SpectraSuite Data File
++++++++++++++++++++++++++++++++++++
Date: Fri Jun 02 14:53:32 CEST 2017
User: INFO_000
Dark Spectrum Present: No
Reference Spectrum Present: No
Number of Sampled Component Spectra: 1
Spectrometers: USB4H00879
Integration Time (usec): 80000 (USB4H00879)
Spectra Averaged: 1 (USB4H00879)
Boxcar Smoothing: 0 (USB4H00879)
Correct for Electrical Dark: No (USB4H00879)
Strobe/Lamp Enabled: No (USB4H00879)
Correct for Detector Non-linearity: No (USB4H00879)
Correct for Stray Light: No (USB4H00879)
Number of Pixels in Processed Spectrum: 3648
>>>>>Begin Processed Spectral Data<<<<<
345.13	1265.64
345.34	1265.64
345.56	1265.64
345.78	1302.51
345.99	1318.89
346.21	1691.62
346.42	1683.43
346.64	1695.72
346.86	1804.26
347.07	1675.24
347.29	1773.54
347.50	1617.90
347.72	1667.05
347.94	1740.77
348.15	1572.84
348.37	1667.05
348.59	1691.62
348.80	1660.90
349.02	1769.44
349.23	1841.12
349.45	1841.12
349.67	1820.64
349.88	1832.93
350.10	1892.32
350.31	1853.41
350.53	1839.08
350.75	1978.34
350.96	1759.21
351.18	1851.36
351.39	1884.13
351.61	1851.36
351.82	1873.89
352.04	1884.13
352.26	1834.98
352.47	1865.70
352.69	1884.13
352.90	1761.25
353.12	1853.41
353.34	1808.36
353.55	2011.11
353.77	1916.90
353.98	1837.03
354.20	1800.16
354.41	1939.43
354.63	1929.19
354.85	2064.35
355.06	1892.32
355.28	1822.69
355.49	1851.36
355.71	1886.18
355.92	1972.19
356.14	1984.48
356.35	1810.40
356.57	1845.22
356.79	1902.56
357.00	1886.18
357.22	2013.15
357.43	1902.56
357.65	1994.72
357.86	1896.42
358.08	1888.23
358.29	2004.96
358.51	2007.01
358.72	2013.15
358.94	1914.85
359.16	1904.61
359.37	2021.35
359.59	1994.72
359.80	2076.64
360.02	1908.71
360.23	1953.76
360.45	2031.58
360.66	1945.57
360.88	1884.13
361.09	1904.61
361.31	1888.23
361.52	1978.34
361.74	2027.49
361.95	2099.17
362.17	1935.33
362.38	2090.98
362.60	2072.54
362.81	1916.90
363.03	1937.38
363.24	1982.43
363.46	2078.69
363.67	2019.30
363.89	1982.43
364.10	2015.20
364.32	1998.82
364.53	1984.48
364.75	1925.09
364.96	2047.97
365.18	2047.97
365.39	1918.95
365.61	1929.19
365.82	2078.69
366.04	2035.68
366.25	1972.19
366.47	2043.87
366.68	2039.78
366.90	1955.81
367.11	2136.03
367.33	2107.36
367.54	2086.88
367.76	2041.82
367.97	2095.07
368.19	1961.95
368.40	2015.20
368.62	1949.67
368.83	1976.29
369.05	2078.69
369.26	2039.78
369.48	1925.09
369.69	1992.67
369.91	2080.74
370.12	2007.01
370.33	2084.83
370.55	2009.06
370.76	2066.40
370.98	2074.59
371.19	2107.36
371.41	1992.67
371.62	2076.64
371.84	1968.10
372.05	2129.89
372.27	2084.83
372.48	2131.94
372.69	2136.03
372.91	2093.02
373.12	2197.47
373.34	2076.64
373.55	2236.38
373.77	2187.23
373.98	2115.55
374.20	2211.81
374.41	2209.76
374.62	2119.65
374.84	2179.04
375.05	2138.08
375.27	2121.70
375.48	2205.66
375.70	2242.53
375.91	2170.85
376.12	2254.81
376.34	2127.84
376.55	2244.57
376.77	2193.37
376.98	2066.40
377.19	2148.32
377.41	2099.17
377.62	2193.37
377.84	2308.06
378.05	2310.11
378.27	2183.13
378.48	2244.57
378.69	2398.17
378.91	2318.30
379.12	2275.29
379.34	2279.39
379.55	2383.84
379.76	2279.39
379.98	2230.24
380.19	2267.10
380.41	2279.39
380.62	2322.40
380.83	2275.29
381.05	2207.71
381.26	2445.27
381.47	2283.49
381.69	2234.33
381.90	2392.03
382.12	2310.11
382.33	2303.96
382.54	2306.01
382.76	2383.84
382.97	2363.36
383.19	2248.67
383.40	2396.12
383.61	2383.84
383.83	2322.40
384.04	2379.74
384.25	2314.20
384.47	2414.56
384.68	2410.46
384.89	2303.96
385.11	2279.39
385.32	2402.27
385.54	2283.49
385.75	2346.97
385.96	2357.21
386.18	2398.17
386.39	2363.36
386.60	2432.99
386.82	2432.99
387.03	2478.04
387.24	2441.18
387.46	2449.37
387.67	2502.62
387.88	2496.47
388.10	2437.08
388.31	2500.57
388.52	2676.70
388.74	2566.10
388.95	2533.34
389.16	2576.34
389.38	2478.04
389.59	2545.63
389.80	2688.98
390.02	2547.67
390.23	2592.73
390.44	2492.38
390.66	2580.44
390.87	2553.82
391.08	2547.67
391.30	2656.22
391.51	2752.47
391.72	2678.74
391.94	2621.40
392.15	2584.54
392.36	2641.88
392.58	2570.20
392.79	2705.37
393.00	2748.37
393.22	2734.04
393.43	2766.81
393.64	2764.76
393.85	2736.09
394.07	2744.28
394.28	2809.81
394.49	2758.61
394.71	2789.33
394.92	2873.30
395.13	2760.66
395.35	2768.85
395.56	2789.33
395.77	2813.91
395.98	2883.54
396.20	2805.72
396.41	2838.48
396.62	2942.93
396.84	2723.80
397.05	2805.72
397.26	2936.79
397.47	2934.74
397.69	2809.81
397.90	2981.84
398.11	2897.88
398.32	2949.08
398.54	2858.96
398.75	2912.21
398.96	2990.03
399.18	3155.92
399.39	3047.38
399.60	3041.23
399.81	3026.90
400.03	2955.22
400.24	3313.61
400.45	2904.02
400.66	3098.58
400.88	3002.32
401.09	3243.98
401.30	3063.76
401.51	3209.17
401.73	3137.49
401.94	3219.41
402.15	3078.10
402.36	3096.53
402.58	3162.06
402.79	3231.69
403.00	3172.30
403.21	3219.41
403.43	3094.48
403.64	3276.75
403.85	3235.79
404.06	3321.81
404.27	3149.78
404.49	3198.93
404.70	3121.10
404.91	3278.80
405.12	3323.85
405.34	3301.33
405.55	3450.83
405.76	3137.49
405.97	3203.02
406.19	3551.18
406.40	3268.56
406.61	3307.47
406.82	3426.25
407.03	3379.15
407.25	3289.04
407.46	3465.16
407.67	3532.75
407.88	3473.36
408.09	3377.10
408.31	3342.28
408.52	3358.67
408.73	3350.48
408.94	3364.81
409.15	3428.30
409.37	3469.26
409.58	3551.18
409.79	3454.92
410.00	3510.22
410.21	3489.74
410.43	3436.49
410.64	3461.07
410.85	3473.36
411.06	3526.60
411.27	3536.84
411.48	3592.14
411.70	3510.22
411.91	3669.96
412.12	3667.91
412.33	3485.64
412.54	3516.36
412.76	3663.82
412.97	3559.37
413.18	3565.51
413.39	3649.48
413.60	3784.65
413.81	3727.30
414.03	3667.91
414.24	3694.54
414.45	3844.04
414.66	3559.37
414.87	3698.63
415.08	3749.83
415.30	3807.17
415.51	3745.73
415.72	3751.88
415.93	3712.97
416.14	3758.02
416.35	3938.24
416.56	3805.13
416.78	3753.93
416.99	3901.38
417.20	3829.70
417.41	3825.61
417.62	3872.71
417.83	3911.62
418.04	3885.00
418.26	4020.16
418.47	3971.01
418.68	3956.68
418.89	3882.95
419.10	4188.10
419.31	3905.48
419.52	4034.50
419.73	3977.16
419.95	4132.80
420.16	3911.62
420.37	3985.35
420.58	3944.39
420.79	3981.25
421.00	4081.60
421.21	4151.23
421.42	4005.83
421.63	4196.29
421.85	4149.18
422.06	4239.30
422.27	4138.94
422.48	4235.20
422.69	4222.91
422.90	4247.49
423.11	4272.06
423.32	4284.35
423.53	4468.67
423.75	4337.60
423.96	4280.25
424.17	4374.46
424.38	4450.24
424.59	4415.42
424.80	4521.92
425.01	4419.52
425.22	4374.46
425.43	4368.32
425.64	4749.24
425.85	4652.98
426.06	4638.65
426.28	4601.79
426.49	4671.42
426.70	4573.11
426.91	4665.27
427.12	4808.63
427.33	4677.56
427.54	4657.08
427.75	4638.65
427.96	4896.69
428.17	4786.10
428.38	4816.82
428.59	4960.18
428.80	4857.78
429.01	4923.32
429.23	4939.70
429.44	5097.39
429.65	5105.59
429.86	4935.60
430.07	5033.91
430.28	4839.35
430.49	4960.18
430.70	5158.83
430.91	5238.70
431.12	5087.15
431.33	5128.11
431.54	5304.24
431.75	5087.15
431.96	5238.70
432.17	5076.91
432.38	5234.61
432.59	5466.03
432.80	5220.27
433.01	5404.59
433.22	5228.46
433.43	5435.31
433.64	5369.77
433.85	5291.95
434.06	5496.75
434.27	5353.39
434.49	5443.50
434.70	5601.19
434.91	5474.22
435.12	5429.17
435.33	5588.91
435.54	5484.46
435.75	5375.92
435.96	5490.60
436.17	5310.38
436.38	5502.89
436.59	5691.31
436.80	5660.59
437.01	5812.14
437.22	5683.11
437.43	5750.70
437.64	5527.47
437.85	5828.52
438.06	5765.03
438.27	5754.79
438.48	5834.66
438.69	5787.56
438.90	5793.70
439.11	5760.94
439.32	5912.49
439.53	5840.81
439.74	6039.46
439.95	5826.47
440.16	6027.17
440.37	5828.52
440.57	5787.56
440.78	6016.93
440.99	6160.29
441.20	6039.46
441.41	5951.40
441.62	6070.18
441.83	5926.82
442.04	6197.15
442.25	6211.49
442.46	6172.58
442.67	6324.13
442.88	6680.47
443.09	6119.33
443.30	6272.93
443.51	6248.35
443.72	6520.73
443.93	6240.16
444.14	6481.82
444.35	6254.50
444.56	6514.59
444.77	6373.28
444.98	6420.38
445.19	6559.64
445.40	6404.00
445.61	6412.19
445.81	6481.82
446.02	6481.82
446.23	6526.88
446.44	6490.01
446.65	6623.13
446.86	6502.30
447.07	6819.74
447.28	6700.95
447.49	6872.98
447.70	6741.91
447.91	6653.85
448.12	6631.32
448.33	6848.41
448.54	6817.69
448.74	6688.67
448.95	6883.22
449.16	6844.31
449.37	7120.79
449.58	6977.43
449.79	7020.44
450.00	6805.40
450.21	7079.83
450.42	7014.29
450.63	7008.15
450.84	7073.68
451.05	7104.40
451.25	7126.93
451.46	6942.61
451.67	7143.32
451.88	7325.58
452.09	7106.45
452.30	7051.16
452.51	7221.14
452.72	7329.68
452.93	7612.30
453.13	7245.71
453.34	7382.93
453.55	7405.46
453.76	7280.53
453.97	7755.66
454.18	7624.59
454.39	7548.81
454.60	7495.57
454.81	7602.06
455.01	7571.34
455.22	7286.67
455.43	7655.31
455.64	7970.69
455.85	7915.40
456.06	7817.10
456.27	7847.82
456.48	7917.45
456.68	8087.43
456.89	8021.89
457.10	8179.59
457.31	7958.41
457.52	7989.13
457.73	8087.43
457.94	8155.01
458.14	8073.09
458.35	8535.93
458.56	8271.75
458.77	8171.40
458.98	8306.56
459.19	8355.71
459.39	8546.17
459.60	8472.45
459.81	8363.90
460.02	8671.10
460.23	8456.06
460.44	8757.11
460.65	8703.87
460.85	8664.96
461.06	8697.72
461.27	8550.27
461.48	8980.34
461.69	9140.08
461.89	8591.23
462.10	8914.81
462.31	8851.32
462.52	8949.62
462.73	9152.37
462.94	9303.92
463.14	9121.65
463.35	9162.61
463.56	9590.64
463.77	9461.62
463.98	9222.00
464.18	9170.80
464.39	9377.65
464.60	9748.33
464.81	9537.39
465.02	9647.98
465.23	9852.78
465.43	9619.31
465.64	9883.50
465.85	9801.58
466.06	9777.00
466.27	10213.22
466.47	9992.04
466.68	10143.59
466.89	10065.77
467.10	10139.49
467.30	10086.25
467.51	10170.21
467.72	10628.96
467.93	10166.12
468.14	10299.23
468.34	10518.37
468.55	10512.22
468.76	10583.90
468.97	10317.67
469.17	10714.97
469.38	10813.28
469.59	11005.78
469.80	10659.68
470.01	10835.80
470.21	10696.54
470.42	11267.92
470.63	11249.49
470.84	11177.81
471.04	11370.32
471.25	11376.47
471.46	11233.11
471.67	11505.49
471.87	11538.26
472.08	11738.96
472.29	11720.53
472.50	11603.79
472.70	11630.41
472.91	11888.46
473.12	12070.73
473.33	11951.95
473.53	12171.08
473.74	12054.34
473.95	12418.88
474.16	12506.95
474.36	12373.83
474.57	12463.94
474.78	12652.35
474.99	12453.70
475.19	12529.47
475.40	12719.93
475.61	12844.86
475.81	13221.69
476.02	13135.67
476.23	13010.75
476.44	13209.40
476.64	13430.58
476.85	13770.54
477.06	13334.32
477.27	13735.73
477.47	13805.36
477.68	13678.38
477.89	14069.55
478.09	13766.45
478.30	13948.72
478.51	13954.86
478.71	14276.39
478.92	14315.30
479.13	14503.71
479.34	14473.00
479.54	14659.36
479.75	14694.18
479.96	14772.00
480.16	14876.44
480.37	14815.01
480.58	15228.70
480.78	15265.56
480.99	15490.84
481.20	15318.81
481.41	15331.09
481.61	15728.40
481.82	15402.77
482.03	15619.86
482.23	15480.60
482.44	15863.57
482.65	16275.21
482.85	16080.65
483.06	16027.40
483.27	16111.37
483.47	16203.53
483.68	16281.35
483.89	16410.37
484.09	16406.28
484.30	16633.60
484.51	16805.63
484.71	17196.79
484.92	16756.48
485.13	17411.83
485.33	17129.21
485.54	17254.14
485.75	17202.94
485.95	17497.84
486.16	17802.99
486.37	17716.98
486.57	17452.79
486.78	17743.60
486.98	17831.66
487.19	17993.45
487.40	18058.99
487.60	17788.66
487.81	18476.77
488.02	18198.25
488.22	18202.35
488.43	18622.18
488.64	18872.03
488.84	18640.61
489.05	18908.90
489.25	18726.63
489.46	18992.86
489.67	18847.46
489.87	19185.37
490.08	19105.50
490.29	19502.81
490.49	19613.40
490.70	19359.45
490.90	19812.05
491.11	19803.86
491.32	19896.02
491.52	19750.61
491.73	19766.99
491.94	20096.72
492.14	19898.06
492.35	20301.51
492.55	20426.44
492.76	20711.11
492.97	20678.34
493.17	20391.62
493.38	20416.20
493.58	20940.48
493.79	20895.43
494.00	20772.55
494.20	21241.53
494.41	20967.10
494.61	21286.59
494.82	21462.71
495.02	21350.07
495.23	21722.80
495.44	21669.56
495.64	21569.21
495.85	21722.80
496.05	21800.63
496.26	22011.57
496.47	21964.46
496.67	21976.75
496.88	22423.21
497.08	21851.83
497.29	22439.59
497.49	22191.79
497.70	22564.52
497.91	22644.39
498.11	22783.65
498.32	22666.92
498.52	22806.18
498.73	23193.25
498.93	22800.04
499.14	22947.49
499.34	22849.19
499.55	23174.81
499.76	23121.57
499.96	23305.88
500.17	23393.95
500.37	23494.30
500.58	23559.83
500.78	23641.75
500.99	23506.59
501.19	23713.43
501.40	23701.14
501.60	23559.83
501.81	23948.95
502.02	24084.11
502.22	24006.29
502.43	24065.68
502.63	24358.54
502.84	24381.07
503.04	24094.35
503.25	24180.37
503.45	24362.64
503.66	24471.18
503.86	24743.56
504.07	24917.64
504.27	24669.83
504.48	25122.43
504.68	24884.87
504.89	25220.74
505.09	24987.27
505.30	25458.30
505.50	24974.98
505.71	25388.67
505.91	24921.73
506.12	25607.80
506.32	25044.61
506.53	25484.92
506.73	25458.30
506.94	25560.70
507.14	25384.57
507.35	25841.27
507.55	25661.05
507.76	25884.28
507.96	26013.30
508.17	26072.69
508.37	25749.11
508.58	25962.10
508.78	26228.34
508.99	26416.75
509.19	26226.29
509.40	26193.52
509.60	26502.76
509.81	26525.29
510.01	26531.44
510.22	26394.22
510.42	26551.91
510.63	26908.26
510.83	26910.31
511.04	26682.98
511.24	26762.86
511.44	26682.98
511.65	26895.97
511.85	26631.79
512.06	26877.54
512.26	27164.26
512.47	27217.50
512.67	27676.25
512.88	27606.62
513.08	27084.39
513.29	27506.27
513.49	27395.68
513.69	27567.71
513.90	27418.21
514.10	27405.92
514.31	27663.96
514.51	28012.12
514.72	27754.07
514.92	27635.29
515.13	28208.72
515.33	27954.77
515.53	28077.65
515.74	27981.40
515.94	27942.49
516.15	28102.23
516.35	27756.12
516.56	28583.50
516.76	28307.02
516.96	28274.26
517.17	28341.84
517.37	28589.64
517.58	28610.12
517.78	28710.47
517.99	28544.59
518.19	28993.09
518.39	28767.82
518.60	28884.55
518.80	28673.61
519.01	28845.64
519.21	29105.73
519.41	29103.68
519.62	29374.02
519.82	29269.57
520.03	29400.64
520.23	29193.79
520.43	29482.56
520.64	29650.49
520.84	29824.57
521.05	29959.73
521.25	29691.45
521.45	29707.83
521.66	29859.38
521.86	29871.67
522.07	30105.14
522.27	29998.65
522.47	29990.45
522.68	30434.86
522.88	30035.51
523.08	30557.74
523.29	30594.61
523.49	30242.35
523.70	30654.00
523.90	30545.45
524.10	30629.42
524.31	31053.35
524.51	30772.78
524.71	31260.20
524.92	30836.27
525.12	31442.46
525.33	31075.88
525.53	31614.49
525.73	31526.43
525.94	31770.14
526.14	31645.21
526.34	31397.41
526.55	31444.51
526.75	31901.21
526.95	31954.46
527.16	31981.08
527.36	32024.09
527.56	32181.78
527.77	32325.14
527.97	32198.16
528.17	32513.55
528.38	32194.07
528.58	32405.01
528.78	32693.77
528.99	32540.18
529.19	32861.71
529.39	32218.64
529.60	32706.06
529.80	33160.71
530.00	32771.60
530.21	33013.26
530.41	33525.25
530.61	33330.69
530.82	33371.65
531.02	33285.64
531.22	33494.53
531.43	33398.27
531.63	33443.33
531.83	33846.78
532.04	34211.32
532.24	33996.28
532.44	34293.24
532.64	34608.62
532.85	34547.18
533.05	34600.43
533.25	34811.37
533.46	34813.42
533.66	35028.46
533.86	34479.60
534.07	34981.35
534.27	35143.14
534.47	35427.81
534.67	34942.44
534.88	34708.97
535.08	35241.45
535.28	35444.20
535.49	35595.74
535.69	35866.08
535.89	35884.51
536.09	35878.36
536.30	35886.56
536.50	35888.60
536.70	36058.59
536.91	36126.17
537.11	36328.92
537.31	36081.11
537.51	36279.77
537.72	37101.00
537.92	36734.42
538.12	36967.88
538.32	36722.13
538.53	37072.33
538.73	36797.90
538.93	36931.02
539.13	37123.53
539.34	36761.04
539.54	37520.84
539.74	37500.36
539.94	37510.60
540.15	37111.24
540.35	37660.10
540.55	37508.55
540.75	37250.50
540.96	37948.86
541.16	37705.15
541.36	37676.48
541.56	37799.36
541.77	38385.08
541.97	38104.51
542.17	38202.81
542.37	38254.01
542.58	38196.67
542.78	38174.14
542.98	37973.44
543.18	38520.24
543.38	38690.23
543.59	38852.02
543.79	38378.93
543.99	38768.05
544.19	38978.99
544.40	38759.86
544.60	38901.17
544.80	39185.83
545.00	39212.46
545.20	39347.62
545.41	39243.18
545.61	39370.15
545.81	39368.10
546.01	39568.80
546.21	39132.59
546.42	39484.84
546.62	39839.14
546.82	39751.07
547.02	39955.87
547.22	39867.81
547.43	39962.01
547.63	39609.76
547.83	40025.50
548.03	39501.22
548.23	40035.74
548.44	40238.49
548.64	40195.48
548.84	40060.32
549.04	40183.19
549.24	40514.97
549.45	40707.47
549.65	40072.60
549.85	40414.62
550.05	40732.05
550.25	40500.63
550.45	41196.94
550.66	40697.24
550.86	40398.23
551.06	41000.33
551.26	40711.57
551.46	40963.47
551.66	41416.07
551.87	41188.75
552.07	41041.29
552.27	41235.85
552.47	41559.43
552.67	41129.36
552.87	40951.18
553.07	41153.93
553.28	41831.81
553.48	41491.85
553.68	41317.77
553.88	41940.35
554.08	41534.85
554.28	41862.53
554.48	41602.44
554.69	41860.48
554.89	41969.02
555.09	41966.98
555.29	41850.24
555.49	41993.60
555.69	42345.85
555.89	42188.16
556.10	42253.69
556.30	41723.27
556.50	42251.64
556.70	41792.90
556.90	42556.79
557.10	42511.74
557.30	42427.77
557.50	42362.23
557.70	42648.95
557.91	42906.99
558.11	42587.51
558.31	42698.10
558.51	42784.12
558.71	42438.01
558.91	42960.24
559.11	42562.93
559.31	42556.79
559.51	42749.30
559.72	42900.85
559.92	42878.32
560.12	42823.03
560.32	42716.53
560.52	42771.83
560.72	42661.24
560.92	43001.20
561.12	43156.85
561.32	43662.69
561.52	42954.10
561.72	43206.00
561.93	43148.65
562.13	43255.15
562.33	42952.05
562.53	43937.12
562.73	43244.91
562.93	43343.21
563.13	43629.93
563.33	43517.29
563.53	43699.56
563.73	43332.97
563.93	43488.62
564.13	44303.71
564.33	43769.19
564.53	43892.07
564.74	43906.40
564.94	43562.34
565.14	43730.28
565.34	43906.40
565.54	44211.55
565.74	43763.04
565.94	44422.49
566.14	44010.85
566.34	43892.07
566.54	44363.10
566.74	43834.72
566.94	44336.48
567.14	44858.71
567.34	44453.21
567.54	44610.90
567.74	44127.58
567.94	44643.67
568.14	44291.42
568.34	45063.50
568.54	44717.40
568.74	44633.43
568.94	44586.33
569.14	45155.66
569.34	44813.65
569.54	44733.78
569.75	44199.26
569.95	44610.90
570.15	44891.48
570.35	44809.56
570.55	45192.53
570.75	44864.85
570.95	45215.05
571.15	45061.46
571.35	44973.39
571.55	45227.34
571.75	45184.33
571.95	44944.72
572.15	44873.04
572.35	45610.31
572.55	45202.77
572.75	45284.68
572.95	45520.20
573.15	45725.00
573.35	45172.05
573.55	45096.27
573.75	45555.02
573.95	45665.61
574.15	45299.02
574.35	45665.61
574.55	45610.31
574.75	45088.08
574.95	45733.19
575.15	45706.57
575.34	45964.61
575.54	46009.67
575.74	46032.19
575.94	46208.32
576.14	46087.49
576.34	46228.80
576.54	46480.70
576.74	46282.05
576.94	46431.55
577.14	46523.71
577.34	46703.93
577.54	46505.27
577.74	46503.23
577.94	46603.58
578.14	46722.36
578.34	46902.58
578.54	45983.04
578.74	46738.74
578.94	47105.33
579.14	46521.66
579.34	46753.08
579.54	47455.53
579.74	47191.34
579.94	46884.15
580.13	47342.89
580.33	47471.92
580.53	47392.04
580.73	47039.79
580.93	47490.35
581.13	47379.76
581.33	47928.61
581.53	47428.91
581.73	47383.85
581.93	47590.70
582.13	47504.68
582.33	47447.34
582.53	47660.33
582.73	47891.75
582.92	47844.65
583.12	47910.18
583.32	48287.01
583.52	47742.25
583.72	48280.86
583.92	48071.97
584.12	48012.58
584.32	48590.11
584.52	48366.88
584.72	48164.13
584.92	48407.84
585.11	48962.84
585.31	48358.69
585.51	48661.79
585.71	48604.44
585.91	48692.50
586.11	48758.04
586.31	48315.68
586.51	48807.19
586.71	49057.04
586.91	49093.91
587.10	49075.48
587.30	48796.95
587.50	49157.39
587.70	49184.02
587.90	49194.26
588.10	49265.94
588.30	49079.57
588.50	49599.76
588.69	49014.04
588.89	49354.00
589.09	49239.31
589.29	49304.85
589.49	49632.52
589.69	49460.49
589.89	49775.88
590.08	49859.85
590.28	49653.00
590.48	49171.73
590.68	49472.78
590.88	49476.88
591.08	49431.82
591.28	49442.06
591.47	50107.65
591.67	49601.80
591.87	49974.53
592.07	49464.59
592.27	49904.90
592.47	49861.90
592.67	50236.67
592.86	49446.16
593.06	50304.26
593.26	50300.16
593.46	50732.28
593.66	50504.96
593.86	50013.44
594.05	50494.72
594.25	50367.74
594.45	50138.37
594.65	50650.36
594.85	50447.61
595.05	50562.30
595.24	50758.91
595.44	50875.64
595.64	50791.67
595.84	50812.15
596.04	50588.92
596.23	50912.50
596.43	50984.18
596.63	50939.13
596.83	51078.39
597.03	51305.71
597.22	51197.17
597.42	51225.84
597.62	51274.99
597.82	51451.12
598.02	51713.26
598.21	51866.86
598.41	51442.93
598.61	51358.96
598.81	51731.69
599.01	51971.30
599.20	51694.83
599.40	51541.23
599.60	51889.38
599.80	51846.38
600.00	51797.23
600.19	52376.80
600.39	51899.62
600.59	52219.11
600.79	52407.52
600.98	52102.37
601.18	52354.27
601.38	52493.54
601.58	52499.68
601.78	52124.90
601.97	52679.90
602.17	52806.87
602.37	52458.72
602.57	52907.22
602.76	52731.10
602.96	52739.29
603.16	52755.68
603.36	52901.08
603.55	53116.12
603.75	52935.90
603.95	53056.73
604.15	53269.72
604.34	53026.01
604.54	53226.71
604.74	53578.96
604.94	52874.46
605.13	53107.93
605.33	53341.39
605.53	53275.86
605.73	53523.66
605.92	53298.39
606.12	53501.14
606.32	53462.22
606.52	53617.87
606.71	53847.24
606.91	53525.71
607.11	53486.80
607.30	53562.57
607.50	53863.63
607.70	54334.66
607.90	53513.42
608.09	53615.82
608.29	54187.21
608.49	53859.53
608.68	53820.62
608.88	53714.12
609.08	54545.60
609.28	54363.33
609.47	53810.38
609.67	54971.58
609.87	54484.16
610.06	54498.50
610.26	54471.87
610.46	54670.53
610.66	54271.17
610.85	54430.91
611.05	54734.01
611.25	54363.33
611.44	54365.38
611.64	54715.58
611.84	54574.27
612.03	53929.16
612.23	54633.66
612.43	54572.22
612.62	54422.72
612.82	54744.25
613.02	54316.23
613.21	54713.53
613.41	54322.37
613.61	54887.61
613.80	54457.54
614.00	54572.22
614.20	54756.54
614.39	54701.25
614.59	54926.52
614.79	55342.26
614.98	54461.63
615.18	54748.35
615.38	54990.01
615.57	54701.25
615.77	54906.04
615.97	54680.77
616.16	54674.62
616.36	54645.95
616.56	55125.17
616.75	54828.22
616.95	54734.01
617.15	54994.10
617.34	55203.00
617.54	54736.06
617.74	55450.80
617.93	55407.79
618.13	54682.81
618.32	54850.75
618.52	54809.79
618.72	55276.72
618.91	55073.98
619.11	55190.71
619.31	54883.51
619.50	55049.40
619.70	54375.62
619.90	54719.68
620.09	54944.95
620.29	54807.74
620.48	54658.24
620.68	55391.41
620.88	54467.78
621.07	54682.81
621.27	55033.02
621.46	54891.71
621.66	54942.91
621.86	55088.31
622.05	54793.40
622.25	55170.23
622.44	54940.86
622.64	55096.50
622.84	55346.36
623.03	54615.23
623.23	55391.41
623.42	54887.61
623.62	55047.35
623.82	55502.00
624.01	54760.64
624.21	55223.48
624.40	54875.32
624.60	55092.41
624.80	54555.84
624.99	55153.85
625.19	54402.24
625.38	55090.36
625.58	55577.78
625.77	55194.81
625.97	55190.71
626.17	54869.18
626.36	54998.20
626.56	55305.40
626.75	55018.68
626.95	55250.10
627.14	54854.84
627.34	55178.42
627.54	55221.43
627.73	55327.92
627.93	55391.41
628.12	55022.78
628.32	55203.00
628.51	54977.72
628.71	55295.16
628.90	55033.02
629.10	54764.73
629.30	55057.59
629.49	54703.29
629.69	54889.66
629.88	55184.57
630.08	55528.62
630.27	55444.66
630.47	55178.42
630.66	54785.21
630.86	55026.87
631.05	54736.06
631.25	55571.63
631.44	55823.53
631.64	54813.88
631.84	55207.09
632.03	55798.96
632.23	55665.84
632.42	55448.75
632.62	55356.60
632.81	55272.63
633.01	55407.79
633.20	55579.82
633.40	55428.27
633.59	55608.50
633.79	55119.03
633.98	55801.00
634.18	55426.23
634.37	55792.81
634.57	55622.83
634.76	55635.12
634.96	55549.10
635.15	55387.31
635.35	55661.74
635.54	55469.23
635.74	55653.55
635.93	54965.43
636.13	55669.93
636.32	55803.05
636.52	55114.94
636.71	55674.03
636.91	55493.81
637.10	55362.74
637.30	55538.86
637.49	55262.39
637.69	55377.08
637.88	56173.73
638.08	55577.78
638.27	55592.11
638.46	55674.03
638.66	55346.36
638.85	55678.13
639.05	55735.47
639.24	56011.95
639.44	55628.98
639.63	55858.35
639.83	55751.85
640.02	55481.52
640.22	55747.76
640.41	56054.95
640.61	55637.17
640.80	55917.74
640.99	55708.85
641.19	56190.12
641.38	56251.56
641.58	56282.28
641.77	55942.31
641.97	55717.04
642.16	56226.98
642.36	56054.95
642.55	56073.38
642.74	55671.98
642.94	56351.91
643.13	55880.88
643.33	56528.03
643.52	55960.75
643.72	56241.32
643.91	56267.94
644.10	56136.87
644.30	56386.72
644.49	55839.92
644.69	55893.16
644.88	56134.82
645.08	56284.33
645.27	56247.46
645.46	55948.46
645.66	56333.48
645.85	56143.02
646.05	56292.52
646.24	56292.52
646.43	56472.74
646.63	56691.87
646.82	56605.86
647.02	56435.87
647.21	56546.47
647.40	56800.41
647.60	56863.90
647.79	56874.14
647.99	56603.81
648.18	56405.16
648.37	56890.52
648.57	56890.52
648.76	56493.22
648.96	56439.97
649.15	56984.73
649.34	56294.56
649.54	56589.47
649.73	56448.16
649.92	56868.00
650.12	56636.58
650.31	57083.03
650.51	56951.96
650.70	57025.69
650.89	56708.25
651.09	57369.75
651.28	57019.55
651.47	56702.11
651.67	57089.18
651.86	56986.78
652.06	56671.39
652.25	56614.05
652.44	56511.65
652.64	56872.09
652.83	56951.96
653.02	56802.46
653.22	56712.35
653.41	56607.90
653.60	56427.68
653.80	56460.45
653.99	57138.33
654.18	57156.76
654.38	56763.55
654.57	57070.75
654.76	57089.18
654.96	57042.07
655.15	56644.77
655.34	56945.82
655.54	56263.85
655.73	56972.44
655.92	57408.66
656.12	56945.82
656.31	56874.14
656.50	56968.35
656.70	56980.63
656.89	56679.58
657.08	57205.91
657.28	57005.21
657.47	57185.43
657.66	57361.56
657.86	57078.94
658.05	57025.69
658.24	57455.76
658.43	57046.17
658.63	57283.73
658.82	57595.03
659.01	57078.94
659.21	56872.09
659.40	56861.85
659.59	56822.94
659.79	57416.85
659.98	57187.48
660.17	57216.15
660.36	57201.82
660.56	57298.07
660.75	57132.18
660.94	57390.23
661.14	57263.25
661.33	57240.73
661.52	56786.08
661.71	57648.27
661.91	56530.08
662.10	56798.37
662.29	57148.57
662.49	57320.60
662.68	57173.14
662.87	57293.97
663.06	57578.64
663.26	57234.58
663.45	57605.26
663.64	57056.41
663.83	57590.93
664.03	57400.47
664.22	56964.25
664.41	57336.98
664.60	57316.50
664.80	57392.28
664.99	56988.83
665.18	56513.70
665.37	56992.92
665.57	57175.19
665.76	57457.81
665.95	57785.49
666.14	56960.15
666.34	56804.51
666.53	56997.02
666.72	57087.13
666.91	57498.77
667.11	57224.34
667.30	56814.75
667.49	56792.22
667.68	57343.12
667.87	56800.41
668.07	57242.77
668.26	56710.30
668.45	57263.25
668.64	56845.47
668.84	57891.98
669.03	57517.20
669.22	56908.96
669.41	57091.22
669.60	57468.05
669.80	57005.21
669.99	57259.16
670.18	57033.88
670.37	57652.37
670.57	57439.38
670.76	57040.03
670.95	57941.13
671.14	56872.09
671.33	57025.69
671.53	57631.89
671.72	57711.76
671.91	57267.35
672.10	57017.50
672.29	57232.53
672.48	57115.80
672.68	57466.00
672.87	57171.10
673.06	57091.22
673.25	56986.78
673.44	56618.14
673.64	56880.28
673.83	56794.27
674.02	56732.83
674.21	56390.82
674.40	57513.11
674.59	56845.47
674.79	56902.81
674.98	56671.39
675.17	56931.48
675.36	56218.79
675.55	57078.94
675.74	56677.54
675.94	56972.44
676.13	56919.20
676.32	56941.72
676.51	57259.16
676.70	56841.37
676.89	56612.00
677.08	56781.98
677.28	56824.99
677.47	57621.65
677.66	57017.50
677.85	56730.78
678.04	57332.89
678.23	57207.96
678.42	57316.50
678.62	56992.92
678.81	56837.28
679.00	56661.15
679.19	56935.58
679.38	56669.34
679.57	56558.75
679.76	56831.13
679.96	57339.03
680.15	56943.77
680.34	56796.32
680.53	56685.73
680.72	56655.01
680.91	56730.78
681.10	56444.07
681.29	56904.86
681.48	56566.94
681.68	56136.87
681.87	56693.92
682.06	56212.65
682.25	55962.79
682.44	56407.20
682.63	56429.73
682.82	56241.32
683.01	56442.02
683.20	56186.02
683.39	56376.48
683.59	56087.72
683.78	55960.75
683.97	56046.76
684.16	56001.71
684.35	55633.07
684.54	56022.19
684.73	55903.40
684.92	56089.77
685.11	55956.65
685.30	56040.62
685.49	56480.93
685.69	56057.00
685.88	56169.64
686.07	55983.27
686.26	56243.37
686.45	56140.97
686.64	56063.14
686.83	56038.57
687.02	56204.45
687.21	55819.44
687.40	55919.79
687.59	55905.45
687.78	55940.27
687.97	56050.86
688.16	55739.57
688.35	55780.52
688.54	55538.86
688.74	55860.40
688.93	55813.29
689.12	56409.25
689.31	55499.95
689.50	55874.73
689.69	55141.56
689.88	55399.60
690.07	55897.26
690.26	55602.35
690.45	55696.56
690.64	55653.55
690.83	55469.23
691.02	54881.47
691.21	55508.14
691.40	55258.29
691.59	55272.63
691.78	55307.44
691.97	55266.48
692.16	55424.18
692.35	55620.78
692.54	55303.35
692.73	55524.53
692.92	55033.02
693.11	55153.85
693.30	54836.41
693.49	55393.46
693.68	54875.32
693.87	55076.02
694.06	54971.58
694.25	54781.12
694.44	54742.20
694.63	54990.01
694.82	55014.58
695.01	54539.46
695.20	54787.26
695.39	54822.08
695.58	55080.12
695.77	54963.39
695.96	54371.52
696.15	54805.69
696.34	54291.65
696.53	54791.36
696.72	54604.99
696.91	54359.23
697.10	54713.53
697.29	54256.84
697.48	54738.11
697.67	54527.17
697.86	54148.29
698.05	54500.54
698.24	54539.46
698.43	53744.84
698.62	54533.31
698.81	53992.65
699.00	53994.70
699.19	54326.47
699.38	54516.93
699.57	53810.38
699.76	54373.57
699.95	54174.92
700.14	53853.39
700.32	53812.43
700.51	54179.01
700.70	54385.86
700.89	53900.49
701.08	54123.72
701.27	53972.17
701.46	54246.60
701.65	53507.28
701.84	53998.79
702.03	53894.35
702.22	53699.79
702.41	53654.73
702.60	54111.43
702.79	53576.91
702.98	53445.84
703.17	53560.53
703.35	53314.77
703.54	53365.97
703.73	53439.70
703.92	53560.53
704.11	53783.76
704.30	52878.55
704.49	53236.95
704.68	53185.75
704.87	53550.29
705.06	53312.72
705.25	53429.46
705.43	53349.59
705.62	53220.56
705.81	53218.52
706.00	53212.37
706.19	52915.42
706.38	53064.92
706.57	52913.37
706.76	52679.90
706.95	53030.10
707.14	52692.19
707.32	52507.87
707.51	52505.82
707.70	52796.63
707.89	53200.08
708.08	52772.06
708.27	52511.97
708.46	52802.78
708.65	52395.23
708.84	53185.75
709.02	52921.56
709.21	52425.95
709.40	52684.00
709.59	52518.11
709.78	52360.42
709.97	52712.67
710.16	52329.70
710.34	52468.96
710.53	52554.97
710.72	52503.77
710.91	52305.12
711.10	52397.28
711.29	52460.77
711.48	52063.46
711.66	51821.80
711.85	52366.56
712.04	51893.48
712.23	51965.16
712.42	52094.18
712.61	52180.20
712.80	51741.93
712.98	51619.05
713.17	51760.36
713.36	52284.64
713.55	51281.14
713.74	51748.07
713.93	51956.97
714.11	51393.78
714.30	51703.02
714.49	51852.52
714.68	51731.69
714.87	51852.52
715.06	51772.65
715.24	51367.15
715.43	51553.52
715.62	51211.51
715.81	51164.40
716.00	51371.25
716.18	51004.66
716.37	50734.33
716.56	50713.85
716.75	51541.23
716.94	51324.14
717.12	50887.93
717.31	51313.90
717.50	51164.40
717.69	50955.51
717.88	51438.83
718.06	51072.24
718.25	50859.26
718.44	50873.59
718.63	50707.71
718.82	50740.47
719.00	50533.63
719.19	50580.73
719.38	50312.45
719.57	50273.54
719.76	49917.19
719.94	50056.45
720.13	50265.34
720.32	50328.83
720.51	50083.08
720.69	50171.14
720.88	50095.36
721.07	50308.35
721.26	49583.37
721.44	49370.38
721.63	49851.66
721.82	49505.55
722.01	49882.37
722.20	49976.58
722.38	49526.03
722.57	49186.07
722.76	49554.70
722.95	49310.99
723.13	49081.62
723.32	49282.32
723.51	49394.96
723.70	49317.14
723.88	49093.91
724.07	49077.52
724.26	49517.84
724.44	48334.11
724.63	49284.37
724.82	49093.91
725.01	48897.30
725.19	48676.12
725.38	48794.90
725.57	48735.51
725.76	48440.60
725.94	48481.56
726.13	48633.11
726.32	48604.44
726.51	48807.19
726.69	48708.89
726.88	48495.90
727.07	48362.78
727.25	48366.88
727.44	48794.90
727.63	48256.29
727.82	48700.70
728.00	48452.89
728.19	48741.66
728.38	48991.51
728.56	47826.21
728.75	48862.49
728.94	48475.42
729.12	48465.18
729.31	48282.91
729.50	48082.21
729.69	48962.84
729.87	48762.14
730.06	48405.79
730.25	48518.43
730.43	48579.87
730.62	48053.54
730.81	48751.90
730.99	48518.43
731.18	48260.38
731.37	48459.04
731.55	48487.71
731.74	48411.93
731.93	48155.94
732.11	48026.92
732.30	48102.69
732.49	48471.32
732.67	48311.58
732.86	48020.77
733.05	48155.94
733.23	47830.31
733.42	47865.13
733.61	47754.54
733.79	48424.22
733.98	48534.81
734.17	48043.30
734.35	48069.92
734.54	48473.37
734.73	48559.39
734.91	48057.63
735.10	48020.77
735.29	48282.91
735.47	47912.23
735.66	48117.03
735.84	47957.28
736.03	48215.33
736.22	48184.61
736.40	47775.02
736.59	47811.88
736.78	47836.45
736.96	47893.80
737.15	47625.51
737.33	47537.45
737.52	47861.03
737.71	47494.44
737.89	47463.72
738.08	47295.79
738.27	47580.46
738.45	48102.69
738.64	47904.04
738.82	47775.02
739.01	47590.70
739.20	47445.29
739.38	47377.71
739.57	47566.12
739.75	47373.61
739.94	47260.97
740.13	47664.42
740.31	47125.81
740.50	47387.95
740.68	47273.26
740.87	47584.55
741.06	47473.96
741.24	47371.57
741.43	46900.53
741.61	47043.89
741.80	46787.89
741.99	47224.11
742.17	46961.97
742.36	47121.71
742.54	47256.88
742.73	47134.00
742.91	47592.75
743.10	46685.50
743.29	47021.36
743.47	47072.56
743.66	47027.51
743.84	46757.17
744.03	46814.52
744.21	46701.88
744.40	47519.02
744.59	46542.14
744.77	46568.76
744.96	47117.62
745.14	47095.09
745.33	46798.13
745.51	46411.07
745.70	46675.26
745.88	46773.56
746.07	46726.46
746.26	46333.24
746.44	46134.59
746.63	46480.70
746.81	46560.57
747.00	46263.61
747.18	46787.89
747.37	46665.02
747.55	46378.30
747.74	46343.48
747.92	46058.82
748.11	46363.96
748.29	46757.17
748.48	46214.46
748.66	46232.89
748.85	46535.99
749.03	46427.45
749.22	46314.81
749.41	45968.71
749.59	46531.90
749.78	45837.64
749.96	45749.57
750.15	45987.14
750.33	46251.33
750.52	45688.13
750.70	45725.00
750.89	45364.56
751.07	45632.84
751.26	45968.71
751.44	45710.66
751.63	45747.53
751.81	45843.78
752.00	45397.32
752.18	45446.47
752.37	45454.67
752.55	45337.93
752.74	45327.69
752.92	45458.76
753.10	44731.73
753.29	45272.40
753.47	45401.42
753.66	45466.95
753.84	45389.13
754.03	45266.25
754.21	44817.75
754.40	45481.29
754.58	45370.70
754.77	44905.81
754.95	44926.29
755.14	44852.56
755.32	44885.33
755.51	45151.57
755.69	44676.44
755.88	44410.20
756.06	44698.97
756.24	44238.17
756.43	44547.42
756.61	44741.97
756.80	44639.57
756.98	44272.99
757.17	44819.80
757.35	44885.33
757.54	44584.28
757.72	44877.14
757.90	44569.94
758.09	44475.74
758.27	44727.64
758.46	44301.66
758.64	44178.78
758.83	44621.14
759.01	44291.42
759.19	44348.76
759.38	44426.59
759.56	44709.21
759.75	44705.11
759.93	44109.15
760.12	43976.03
760.30	43935.07
760.48	43812.20
760.67	44135.77
760.85	44641.62
761.04	44287.32
761.22	43707.75
761.40	44078.43
761.59	43709.80
761.77	43705.70
761.96	44045.66
762.14	43300.20
762.32	43242.86
762.51	43414.89
762.69	44066.14
762.88	43498.86
763.06	43621.73
763.24	43513.19
763.43	43668.84
763.61	43398.51
763.80	43322.73
763.98	43322.73
764.16	43451.75
764.35	43074.93
764.53	43382.12
764.72	43402.60
764.90	43263.34
765.08	43128.17
765.27	43132.27
765.45	42868.08
765.63	42694.00
765.82	43107.69
766.00	42952.05
766.18	43074.93
766.37	43052.40
766.55	42857.84
766.74	42800.50
766.92	42741.11
767.10	42775.92
767.29	42458.49
767.47	42349.95
767.65	42511.74
767.84	42186.11
768.02	42636.66
768.20	42440.06
768.39	42343.80
768.57	42550.65
768.75	42395.00
768.94	42579.32
769.12	42614.13
769.30	42001.79
769.49	42171.77
769.67	42081.66
769.85	41598.34
770.04	41633.16
770.22	41784.71
770.40	41887.10
770.59	41594.25
770.77	41964.93
770.95	41766.27
771.14	41438.60
771.32	41321.87
771.50	41530.76
771.69	41401.74
771.87	41788.80
772.05	41502.09
772.24	41219.47
772.42	41231.75
772.60	41207.18
772.78	41217.42
772.97	41332.11
773.15	41254.28
773.33	41272.71
773.52	41221.52
773.70	41295.24
773.88	41667.97
774.07	41350.54
774.25	40883.60
774.43	41158.03
774.61	41196.94
774.80	41307.53
774.98	41016.72
775.16	41354.63
775.34	41182.60
775.53	41239.95
775.71	41604.49
775.89	41366.92
776.08	41321.87
776.26	41772.42
776.44	41506.18
776.62	41350.54
776.81	41241.99
776.99	41497.99
777.17	41454.98
777.35	41457.03
777.54	41784.71
777.72	41749.89
777.90	41414.02
778.08	41780.61
778.27	41596.29
778.45	41840.00
778.63	41854.34
778.81	41147.79
779.00	41842.05
779.18	41739.65
779.36	42065.28
779.54	41964.93
779.73	41657.73
779.91	41743.75
780.09	42214.78
780.27	41688.45
780.46	41966.98
780.64	42261.88
780.82	41715.08
781.00	42069.37
781.19	42562.93
781.37	42478.97
781.55	42122.62
781.73	42669.43
781.91	41901.44
782.10	42270.08
782.28	42458.49
782.46	42405.24
782.64	42661.24
782.82	42050.94
783.01	42317.18
783.19	42433.91
783.37	42679.67
783.55	42096.00
783.74	42603.89
783.92	42212.73
784.10	42685.81
784.28	42139.00
784.46	42120.57
784.64	42419.58
784.83	42325.37
785.01	42689.91
785.19	42476.92
785.37	42497.40
785.55	42278.27
785.74	41792.90
785.92	42501.50
786.10	42141.05
786.28	42218.88
786.46	41799.04
786.64	41856.39
786.83	42433.91
787.01	41926.02
787.19	42073.47
787.37	41962.88
787.55	42255.74
787.74	41305.48
787.92	41846.15
788.10	41340.30
788.28	41463.18
788.46	42057.09
788.64	41446.79
788.82	41864.58
789.01	41618.82
789.19	41969.02
789.37	41655.68
789.55	41518.47
789.73	41233.80
789.91	41006.48
790.09	41203.08
790.28	41117.07
790.46	40738.19
790.64	41285.00
790.82	41092.49
791.00	41088.40
791.18	40529.30
791.36	41096.59
791.55	41076.11
791.73	40773.01
791.91	40617.36
792.09	40426.90
792.27	40639.89
792.45	40121.76
792.63	40109.47
792.81	40177.05
793.00	40410.52
793.18	40140.19
793.36	39953.82
793.54	40039.84
793.72	39687.59
793.90	39919.01
794.08	39450.02
794.26	39769.51
794.44	39523.75
794.62	39566.76
794.81	39558.56
794.99	39384.49
795.17	39490.98
795.35	39142.83
795.53	39310.76
795.71	39384.49
795.89	39210.41
796.07	38800.82
796.25	38860.21
796.43	38643.12
796.61	38647.22
796.80	38704.56
796.98	38673.84
797.16	38258.10
797.34	38475.19
797.52	38399.41
797.70	38483.38
797.88	37744.06
798.06	38143.42
798.24	38000.06
798.42	37873.09
798.60	38020.54
798.78	38051.26
798.96	37897.66
799.14	37905.85
799.32	37952.96
799.51	37174.73
799.69	37451.20
799.87	37623.23
800.05	36951.50
800.23	37090.76
800.41	37144.01
800.59	37258.70
800.77	36619.73
800.95	36392.40
801.13	37000.65
801.31	36445.65
801.49	36793.81
801.67	36527.57
801.85	36855.25
802.03	36238.81
802.21	36347.35
802.39	36034.01
802.57	36120.02
802.75	35962.33
802.93	35814.88
803.11	35960.28
803.29	36017.63
803.47	35685.86
803.65	35954.14
803.83	35716.58
804.01	35689.95
804.19	35468.77
804.37	35526.11
804.55	35534.31
804.73	35257.83
804.91	34967.02
805.09	35263.97
805.27	35306.98
805.45	34887.15
805.63	35153.38
805.81	34956.78
805.99	34903.53
806.17	35134.95
806.35	34686.45
806.53	34524.66
806.71	34608.62
806.89	34526.71
807.07	34098.68
807.25	34543.09
807.43	34082.30
807.61	34584.05
807.79	34201.08
807.97	34186.74
808.15	33723.90
808.33	33609.22
808.51	33406.47
808.69	33867.26
808.87	33455.62
809.05	33443.33
809.23	33431.04
809.41	33551.87
809.59	33576.45
809.77	33371.65
809.95	33091.08
810.13	33623.55
810.31	33037.83
810.49	33682.94
810.67	32857.61
810.84	33213.96
811.02	33062.41
811.20	32775.69
811.38	32871.95
811.56	32773.64
811.74	32622.09
811.92	32681.49
812.10	32681.49
812.28	32939.53
812.46	32345.62
812.64	32423.44
812.82	32063.00
813.00	32429.59
813.18	32081.43
813.36	32265.75
813.53	32032.28
813.71	32095.77
813.89	31960.60
814.07	31626.78
814.25	32056.85
814.43	31991.32
814.61	31637.02
814.79	31338.02
814.97	31905.31
815.15	31888.92
815.33	31135.27
815.50	31299.11
815.68	31448.61
815.86	31643.17
816.04	31383.07
816.22	30869.03
816.40	31069.73
816.58	31229.48
816.76	31198.76
816.94	30977.58
817.11	30846.51
817.29	30654.00
817.47	31063.59
817.65	30776.87
817.83	30678.57
818.01	30602.80
818.19	30672.43
818.37	30932.52
818.54	30475.82
818.72	30219.83
818.90	30242.35
819.08	30363.18
819.26	30131.76
819.44	30316.08
819.62	30176.82
819.80	30258.74
819.97	30131.76
820.15	30117.43
820.33	30000.69
820.51	30254.64
820.69	29711.93
820.87	29838.90
821.05	30172.72
821.22	29972.02
821.40	29716.03
821.58	29695.55
821.76	29918.78
821.94	29673.02
822.12	29687.36
822.29	29799.99
822.47	29550.14
822.65	29808.19
822.83	29511.23
823.01	29570.62
823.19	29433.41
823.36	29097.54
823.54	29142.60
823.72	29124.16
823.90	29017.67
824.08	28958.28
824.25	28943.94
824.43	28716.62
824.61	28870.22
824.79	28870.22
824.97	28778.06
825.15	28657.23
825.32	28728.91
825.50	28685.90
825.68	28661.32
825.86	28673.61
826.04	28427.85
826.21	28603.98
826.39	28579.40
826.57	28343.89
826.75	28311.12
826.93	28206.67
827.10	28192.34
827.28	28651.08
827.46	28264.02
827.64	27942.49
827.81	28018.26
827.99	28542.54
828.17	28010.07
828.35	27633.24
828.53	27864.66
828.70	27655.77
828.88	27842.14
829.06	27840.09
829.24	27680.35
829.41	27764.31
829.59	28118.61
829.77	27530.84
829.95	27405.92
830.12	27561.56
830.30	27643.48
830.48	27926.10
830.66	27717.21
830.84	27596.38
831.01	27041.38
831.19	27516.51
831.37	27235.94
831.55	27256.42
831.72	27248.22
831.90	27074.15
832.08	27197.02
832.25	27174.50
832.43	27258.46
832.61	26885.73
832.79	27065.96
832.96	26961.51
833.14	27111.01
833.32	27102.82
833.50	27078.24
833.67	26826.34
833.85	26748.52
834.03	26592.87
834.20	26879.59
834.38	26676.84
834.56	26738.28
834.74	26519.15
834.91	26631.79
835.09	26259.06
835.27	25976.44
835.44	26379.89
835.62	25661.05
835.80	26218.10
835.98	26220.14
836.15	26127.99
836.33	25937.52
836.51	26523.24
836.68	26121.84
836.86	26265.20
837.04	26510.96
837.21	26259.06
837.39	26175.09
837.57	26144.37
837.75	26336.88
837.92	25923.19
838.10	26144.37
838.28	25607.80
838.45	25785.97
838.63	25734.78
838.81	25788.02
838.98	25771.64
839.16	25460.35
839.34	25691.77
839.51	25611.90
839.69	25587.32
839.87	25327.23
840.04	25396.86
840.22	25681.53
840.40	25790.07
840.57	25124.48
840.75	25519.74
840.93	25052.80
841.10	25171.58
841.28	25355.90
841.46	25284.22
841.63	25173.63
841.81	24958.60
841.98	25140.86
842.16	25015.94
842.34	25151.10
842.51	24794.76
842.69	25355.90
842.87	24970.88
843.04	25089.67
843.22	24805.00
843.40	24487.56
843.57	24913.54
843.75	24669.83
843.92	24657.54
844.10	24686.22
844.28	24784.52
844.45	24587.91
844.63	24729.22
844.81	24692.36
844.98	24974.98
845.16	24626.82
845.33	24469.13
845.51	24571.53
845.69	24219.28
845.86	24387.21
846.04	24415.88
846.21	24368.78
846.39	24086.16
846.57	24098.45
846.74	24166.03
846.92	24305.29
847.09	24436.36
847.27	24000.15
847.45	23989.91
847.62	24135.31
847.80	24120.98
847.97	23705.24
848.15	24041.11
848.32	23805.59
848.50	23854.74
848.68	23400.09
848.85	23948.95
849.03	23535.26
849.20	23860.88
849.38	23742.10
849.56	23563.93
849.73	23402.14
849.91	23506.59
850.08	23713.43
850.26	23463.58
850.43	23371.42
850.61	23707.29
850.78	23361.18
850.96	23373.47
851.14	23144.09
851.31	23234.21
851.49	23400.09
851.66	23887.51
851.84	23424.67
852.01	23031.46
852.19	23223.97
852.36	23015.07
852.54	23492.25
852.71	23336.60
852.89	23060.13
853.07	23043.74
853.24	23021.22
853.42	23078.56
853.59	22736.55
853.77	23252.64
853.94	23342.75
854.12	23316.12
854.29	22648.49
854.47	22920.87
854.64	22691.49
854.82	22736.55
854.99	22965.92
855.17	22374.06
855.34	22654.63
855.52	22875.81
855.69	22861.48
855.87	22861.48
856.04	22580.90
856.22	22496.94
856.39	22247.08
856.57	22460.07
856.74	22204.08
856.92	22245.04
857.09	22308.52
857.27	22367.91
857.44	22427.31
857.62	22365.87
857.79	22374.06
857.97	22130.35
858.14	22290.09
858.32	22167.21
858.49	22007.47
858.67	22007.47
858.84	21909.17
859.02	22226.60
859.19	22013.62
859.37	21612.21
859.54	21982.90
859.72	22128.30
859.89	21757.62
860.06	22130.35
860.24	21585.59
860.41	22146.73
860.59	21401.27
860.76	21831.35
860.94	21561.02
861.11	21573.30
861.29	21616.31
861.46	21900.98
861.64	21393.08
861.81	21434.04
861.98	21020.35
862.16	21534.39
862.33	21456.57
862.51	21409.47
862.68	21311.16
862.86	21239.48
863.03	21309.11
863.21	21526.20
863.38	21212.86
863.55	21313.21
863.73	21188.28
863.90	21225.15
864.08	20836.03
864.25	21216.96
864.43	20971.20
864.60	21063.36
864.77	21006.02
864.95	20930.24
865.12	20827.84
865.30	20747.97
865.47	20780.74
865.64	20823.75
865.82	20967.10
865.99	20733.64
866.17	20563.65
866.34	20911.81
866.51	20686.53
866.69	20553.41
866.86	20623.05
867.04	20776.64
867.21	20494.02
867.38	20530.89
867.56	20010.70
867.73	20444.87
867.91	20098.77
868.08	20334.28
868.25	20356.81
868.43	19953.36
868.60	20235.98
868.78	20074.19
868.95	20358.86
869.12	20127.44
869.30	19969.74
869.47	20135.63
869.64	19826.39
869.82	20117.20
869.99	19764.95
870.16	20221.64
870.34	19812.05
870.51	19863.25
870.69	19824.34
870.86	19797.71
871.03	20006.61
871.21	19801.81
871.38	19850.96
871.55	19574.49
871.73	19664.60
871.90	19551.96
872.07	19390.17
872.25	19101.40
872.42	19334.87
872.59	19607.25
872.77	19449.56
872.94	19535.57
873.11	19259.10
873.29	19508.95
873.46	19334.87
873.63	19234.52
873.81	19140.32
873.98	18878.18
874.15	19119.84
874.33	18886.37
874.50	18679.52
874.67	18939.62
874.85	18927.33
875.02	18892.51
875.19	18714.34
875.37	18728.67
875.54	18630.37
875.71	18890.46
875.88	18616.04
876.06	18482.92
876.23	18501.35
876.40	18454.25
876.58	18415.34
876.75	18558.69
876.92	18487.01
877.10	18536.17
877.27	18228.97
877.44	18362.09
877.61	18341.61
877.79	18386.66
877.96	18163.43
878.13	18093.80
878.31	17909.49
878.48	17747.70
878.65	18009.84
878.82	17884.91
879.00	17846.00
879.17	17694.45
879.34	17938.16
879.51	17778.42
879.69	17946.35
879.86	17639.15
880.03	17749.75
880.21	17889.01
880.38	17903.34
880.55	17403.64
880.72	17768.18
880.90	17602.29
881.07	17563.38
881.24	17391.35
881.41	17442.55
881.59	17377.01
881.76	17387.25
881.93	17309.43
882.10	17346.30
882.28	17428.21
882.45	17098.49
882.62	17389.30
882.79	17323.77
882.96	17188.60
883.14	17417.97
883.31	17024.76
883.48	17161.98
883.65	16963.33
883.83	17342.20
884.00	17082.11
884.17	17071.87
884.34	16998.14
884.51	16928.51
884.69	16860.93
884.86	16955.13
885.03	16885.50
885.20	16869.12
885.38	16973.56
885.55	16815.87
885.72	16881.41
885.89	16570.12
886.06	16817.92
886.24	16699.14
886.41	16672.51
886.58	16721.66
886.75	16811.78
886.92	16398.09
887.10	16770.82
887.27	16486.15
887.44	16709.38
887.61	16895.74
887.78	16576.26
887.95	16555.78
888.13	16459.52
888.30	16404.23
888.47	16492.29
888.64	16334.60
888.81	16238.34
888.99	16385.80
889.16	16303.88
889.33	16119.56
889.50	16088.84
889.67	16158.47
889.84	16056.08
890.01	16125.71
890.19	16033.55
890.36	16207.62
890.53	16027.40
890.70	15906.57
890.87	15908.62
891.04	16002.83
891.22	15814.41
891.39	16109.32
891.56	15486.74
891.73	16006.92
891.90	15779.60
892.07	15705.87
892.24	15509.27
892.42	15560.47
892.59	15736.59
892.76	15521.56
892.93	15812.37
893.10	15804.17
893.27	15748.88
893.44	15453.97
893.61	15650.58
893.79	15687.44
893.96	15648.53
894.13	15466.26
894.30	15693.58
894.47	15783.70
894.64	15685.39
894.81	15675.15
894.98	15507.22
895.15	15533.84
895.33	15410.96
895.50	15546.13
895.67	15507.22
895.84	15251.22
896.01	15404.82
896.18	15419.16
896.35	15673.10
896.52	15582.99
896.69	15537.94
896.86	15320.85
897.04	15386.39
897.21	15521.56
897.38	15269.66
897.55	15361.81
897.72	15273.75
897.89	15449.88
898.06	15507.22
898.23	15492.88
898.40	15355.67
898.57	15478.55
898.74	15314.71
898.91	15337.24
899.08	15073.05
899.26	15202.07
899.43	15068.95
899.60	15073.05
899.77	15292.18
899.94	15365.91
900.11	15202.07
900.28	15501.08
900.45	15247.13
900.62	15136.54
900.79	15277.85
900.96	15157.02
901.13	15009.56
901.30	15247.13
901.47	15361.81
901.64	15234.84
901.81	15255.32
901.98	15111.96
902.15	15421.20
902.32	15140.63
902.49	15222.55
902.66	15054.62
902.83	15423.25
903.01	15236.89
903.18	15343.38
903.35	15152.92
903.52	15238.94
903.69	15056.67
903.86	15290.13
904.03	15406.87
904.20	15181.59
904.37	15370.01
904.54	15107.87
904.71	15169.30
904.88	14987.04
905.05	14993.18
905.22	15335.19
905.39	15118.11
905.56	15027.99
905.73	15175.45
905.90	15146.78
906.07	15116.06
906.24	14876.44
906.41	15265.56
906.58	15228.70
906.75	15058.71
906.92	14907.16
907.09	14915.36
907.26	15079.19
907.43	14937.88
907.60	15013.66
907.77	15269.66
907.93	15077.15
908.10	14991.13
908.27	15382.29
908.44	14999.32
908.61	14905.12
908.78	14862.11
908.95	15062.81
909.12	14763.81
909.29	14911.26
909.46	15013.66
909.63	15134.49
909.80	15116.06
909.97	15185.69
910.14	14882.59
910.31	14966.56
910.48	14862.11
910.65	14784.29
910.82	14978.84
910.99	14831.39
911.16	14694.18
911.33	15042.33
911.50	14915.36
911.66	14675.74
911.83	14636.83
912.00	14802.72
912.17	14335.78
912.34	14571.30
912.51	14444.32
912.68	14509.86
912.85	14683.94
913.02	14473.00
913.19	14356.26
913.36	14417.70
913.53	14581.54
913.70	14282.53
913.86	14761.76
914.03	14389.03
914.20	14511.91
914.37	14235.43
914.54	14206.76
914.71	14303.01
914.88	14223.14
915.05	14352.16
915.22	14333.73
915.39	14233.38
915.55	14255.91
915.72	14096.17
915.89	14020.39
916.06	13856.56
916.23	14085.93
916.40	13877.04
916.57	13811.50
916.74	13938.48
916.91	13737.77
917.07	14024.49
917.24	13788.97
917.41	13682.48
917.58	13678.38
917.75	13723.44
917.92	13559.60
918.09	13618.99
918.26	13639.47
918.42	13436.72
918.59	13633.33
918.76	13567.79
918.93	13387.57
919.10	13336.37
919.27	13444.91
919.44	13530.93
919.60	13485.87
919.77	13150.01
919.94	13135.67
920.11	13156.15
920.28	13322.04
920.45	12922.68
920.61	12951.35
920.78	13031.23
920.95	12934.97
921.12	12986.17
921.29	12828.48
921.46	12795.71
921.62	12576.58
921.79	12734.27
921.96	12746.56
922.13	12820.28
922.30	12488.51
922.47	12552.00
922.63	12422.98
922.80	12480.32
922.97	12390.21
923.14	12371.78
923.31	12328.77
923.47	12134.21
923.64	12336.96
923.81	12175.17
923.98	12506.95
924.15	12306.24
924.32	12328.77
924.48	12050.25
924.65	12191.56
924.82	11882.31
924.99	11923.27
925.15	11759.44
925.32	11874.12
925.49	11560.78
925.66	11966.28
925.83	11618.13
925.99	11728.72
926.16	11644.75
926.33	11595.60
926.50	11398.99
926.67	11556.69
926.83	11476.82
927.00	11257.68
927.17	11300.69
927.34	11112.28
927.50	11386.71
927.67	11392.85
927.84	11327.32
928.01	11151.19
928.17	11028.31
928.34	10897.24
928.51	10848.09
928.68	10946.39
928.84	11013.98
929.01	10739.55
929.18	10899.29
929.35	10723.16
929.51	10825.56
929.68	10534.75
929.85	10491.74
930.02	10628.96
930.18	10569.57
930.35	10594.14
930.52	10332.00
930.69	10571.61
930.85	10372.96
931.02	10264.42
931.19	10407.78
931.36	10332.00
931.52	10379.11
931.69	10295.14
931.86	9944.94
932.02	9949.03
932.19	9817.96
932.36	10057.57
932.53	9903.98
932.69	9834.35
932.86	10166.12
933.03	9701.23
933.19	9635.69
933.36	9617.26
933.53	9633.64
933.70	9549.68
933.86	9635.69
934.03	9451.38
934.20	9486.19
934.36	9637.74
934.53	9312.11
934.70	9082.74
934.86	9191.28
935.03	9086.84
935.20	8957.82
935.36	9013.11
935.53	8961.91
935.70	8839.03
935.86	8705.92
936.03	8656.76
936.20	8578.94
936.36	8560.51
936.53	8490.88
936.70	8509.31
936.86	8546.17
937.03	8408.96
937.20	8206.21
937.36	8288.13
937.53	7942.02
937.70	7937.93
937.86	7862.15
938.03	7864.20
938.20	8015.75
938.36	7597.96
938.53	7534.48
938.70	7489.42
938.86	7483.28
939.03	7407.50
939.20	7329.68
939.36	7128.98
939.53	7319.44
939.70	7301.01
939.86	6850.46
940.03	6872.98
940.19	6836.12
940.36	6680.47
940.53	6756.25
940.69	6655.90
940.86	6651.80
941.03	6514.59
941.19	6375.33
941.36	6363.04
941.52	6455.20
941.69	6268.83
941.86	6279.07
942.02	6037.41
942.19	5916.58
942.35	6160.29
942.52	6195.11
942.69	6010.79
942.85	5842.85
943.02	5900.20
943.18	5932.97
943.35	5744.55
943.52	5633.96
943.68	5744.55
943.85	5597.10
944.01	5670.83
944.18	5550.00
944.35	5693.35
944.51	5459.88
944.68	5498.80
944.84	5529.52
945.01	5523.37
945.17	5490.60
945.34	5406.64
945.51	5519.28
945.67	5390.25
945.84	5492.65
946.00	5461.93
946.17	5361.58
946.33	5269.42
946.50	5492.65
946.67	5388.21
946.83	5418.93
947.00	5392.30
947.16	5345.20
947.33	5195.70
947.49	5365.68
947.66	5175.22
947.82	5222.32
947.99	5294.00
948.16	5304.24
948.32	5236.66
948.49	5322.67
948.65	5238.70
948.82	5228.46
948.98	5263.28
949.15	5191.60
949.31	5273.52
949.48	5267.38
949.64	5267.38
949.81	5259.18
949.97	5177.26
950.14	5285.81
950.30	5115.83
950.47	5365.68
950.63	5363.63
950.80	5291.95
950.96	5250.99
951.13	5408.69
951.30	5234.61
951.46	5435.31
951.63	5416.88
951.79	5386.16
951.96	5390.25
952.12	5441.45
952.29	5390.25
952.45	5226.42
952.62	5289.90
952.78	5435.31
952.94	5322.67
953.11	5402.54
953.27	5345.20
953.44	5373.87
953.60	5222.32
953.77	5615.53
953.93	5441.45
954.10	5445.55
954.26	5431.21
954.43	5433.26
954.59	5517.23
954.76	5533.61
954.92	5396.40
955.09	5552.04
955.25	5396.40
955.42	5423.02
955.58	5564.33
955.75	5449.64
955.91	5461.93
956.07	5425.07
956.24	5420.97
956.40	5603.24
956.57	5550.00
956.73	5466.03
956.90	5431.21
957.06	5437.36
957.23	5425.07
957.39	5369.77
957.56	5502.89
957.72	5382.06
957.88	5304.24
958.05	5445.55
958.21	5377.97
958.38	5377.97
958.54	5447.60
958.71	5736.36
958.87	5466.03
959.03	5580.71
959.20	5447.60
959.36	5476.27
959.53	5455.79
959.69	5330.86
959.85	5400.49
960.02	5363.63
960.18	5449.64
960.35	5562.28
960.51	5490.60
960.68	5425.07
960.84	5402.54
961.00	5554.09
961.17	5412.78
961.33	5402.54
961.50	5337.01
961.66	5500.84
961.82	5375.92
961.99	5384.11
962.15	5445.55
962.31	5369.77
962.48	5367.73
962.64	5492.65
962.81	5365.68
962.97	5328.81
963.13	5502.89
963.30	5418.93
963.46	5392.30
963.62	5287.86
963.79	5373.87
963.95	5263.28
964.12	5347.25
964.28	5285.81
964.44	5312.43
964.61	5388.21
964.77	5429.17
964.93	5533.61
965.10	5461.93
965.26	5332.91
965.42	5408.69
965.59	5326.77
965.75	5371.82
965.92	5291.95
966.08	5345.20
966.24	5337.01
966.41	5361.58
966.57	5334.96
966.73	5347.25
966.90	5388.21
967.06	5504.94
967.22	5226.42
967.39	5230.51
967.55	5242.80
967.71	5001.14
967.88	5181.36
968.04	5300.14
968.20	5074.87
968.37	5136.31
968.53	5148.59
968.69	5228.46
968.85	5244.85
969.02	5164.98
969.18	5183.41
969.34	5140.40
969.51	5228.46
969.67	5210.03
969.83	4951.99
970.00	5263.28
970.16	5044.15
970.32	5134.26
970.48	5189.55
970.65	5111.73
970.81	4999.09
970.97	5093.30
971.14	4802.49
971.30	5101.49
971.46	5035.96
971.63	5081.01
971.79	5052.34
971.95	5070.77
972.11	4949.94
972.28	4949.94
972.44	4960.18
972.60	4855.73
972.76	4962.23
972.93	4958.13
973.09	5081.01
973.25	4888.50
973.42	4898.74
973.58	4970.42
973.74	4917.17
973.90	4933.56
974.07	4798.39
974.23	4970.42
974.39	4962.23
974.55	4913.08
974.72	4751.29
974.88	4767.67
975.04	4767.67
975.20	4796.34
975.37	4759.48
975.53	4730.81
975.69	4870.07
975.85	4757.43
976.01	4779.96
976.18	4718.52
976.34	4800.44
976.50	4730.81
976.66	4810.68
976.83	4718.52
976.99	4646.84
977.15	4667.32
977.31	4575.16
977.47	4579.26
977.64	4736.95
977.80	4710.33
977.96	4628.41
978.12	4620.22
978.29	4566.97
978.45	4458.43
978.61	4710.33
978.77	4603.83
978.93	4495.29
979.10	4573.11
979.26	4460.48
979.42	4591.55
979.58	4448.19
979.74	4487.10
979.91	4458.43
980.07	4456.38
980.23	4405.18
980.39	4472.76
980.55	4325.31
980.71	4497.34
980.88	4427.71
981.04	4444.09
981.20	4353.98
981.36	4378.56
981.52	4388.80
981.68	4335.55
981.85	4349.89
982.01	4345.79
982.17	4370.37
982.33	4198.34
982.49	4362.17
982.65	4251.58
982.82	4263.87
982.98	4224.96
983.14	4261.82
983.30	4425.66
983.46	4310.97
983.62	4261.82
983.79	4136.90
983.95	4177.86
984.11	4276.16
984.27	4302.78
984.43	4179.90
984.59	4204.48
984.75	4143.04
984.91	4204.48
985.08	4198.34
985.24	4134.85
985.40	4110.27
985.56	4167.62
985.72	4206.53
985.88	4255.68
986.04	4126.66
986.20	3983.30
986.37	4038.59
986.53	3979.20
986.69	3987.40
986.85	3968.96
987.01	4030.40
987.17	3999.68
987.33	4040.64
987.49	3850.18
987.65	4007.87
987.82	4081.60
987.98	3934.15
988.14	3981.25
988.30	3952.58
988.46	3977.16
988.62	3989.44
988.78	3977.16
988.94	3909.57
989.10	3768.26
989.26	3813.32
989.42	3882.95
989.59	3809.22
989.75	3772.36
989.91	3915.72
990.07	3755.97
990.23	3772.36
990.39	3895.24
990.55	3909.57
990.71	3751.88
990.87	3784.65
991.03	3841.99
991.19	3837.89
991.35	3721.16
991.51	3780.55
991.67	3803.08
991.83	3786.69
992.00	3805.13
992.16	3911.62
992.32	3801.03
992.48	3788.74
992.64	3661.77
992.80	3745.73
992.96	3751.88
993.12	3758.02
993.28	3751.88
993.44	3524.55
993.60	3676.10
993.76	3741.64
993.92	3702.73
994.08	3700.68
994.24	3667.91
994.40	3629.00
994.56	3665.86
994.72	3657.67
994.88	3637.19
995.04	3524.55
995.20	3600.33
995.36	3520.46
995.52	3532.75
995.68	3540.94
995.84	3422.16
996.00	3676.10
996.16	3477.45
996.32	3467.21
996.48	3428.30
996.64	3551.18
996.80	3514.31
996.96	3438.54
997.12	3567.56
997.28	3403.72
997.44	3407.82
997.60	3340.24
997.76	3510.22
997.92	3332.05
998.08	3395.53
998.24	3395.53
998.40	3319.76
998.56	3530.70
998.72	3342.28
998.88	3350.48
999.04	3375.05
999.20	3411.92
999.36	3280.85
999.52	3358.67
999.68	3360.72
999.84	3456.97
1000.00	3428.30
1000.16	3338.19
1000.32	3213.26
1000.48	3327.95
1000.64	3254.22
1000.80	3176.40
1000.95	3270.61
1001.11	3190.74
1001.27	3088.34
1001.43	3262.41
1001.59	3162.06
1001.75	3182.54
1001.91	3264.46
1002.07	3151.82
1002.23	3196.88
1002.39	3223.50
1002.55	3170.26
1002.71	3145.68
1002.87	3139.54
1003.03	3137.49
1003.19	3114.96
1003.34	3141.58
1003.50	3106.77
1003.66	3196.88
1003.82	3096.53
1003.98	3112.91
1004.14	3094.48
1004.30	3059.67
1004.46	2967.51
1004.62	3043.28
1004.78	3078.10
1004.94	2994.13
1005.09	3006.42
1005.25	3129.30
1005.41	3018.71
1005.57	2955.22
1005.73	2899.92
1005.89	2877.40
1006.05	2932.69
1006.21	3026.90
1006.37	2899.92
1006.52	2904.02
1006.68	3004.37
1006.84	3035.09
1007.00	2867.16
1007.16	3002.32
1007.32	2920.40
1007.48	2953.17
1007.64	2992.08
1007.79	2895.83
1007.95	2850.77
1008.11	2938.84
1008.27	2826.20
1008.43	2811.86
1008.59	2918.36
1008.75	2942.93
1008.91	2811.86
1009.06	2832.34
1009.22	2895.83
1009.38	2850.77
1009.54	2791.38
1009.70	2815.96
1009.86	2762.71
1010.01	2854.87
1010.17	2828.24
1010.33	2772.95
1010.49	2807.77
1010.65	2934.74
1010.81	2684.89
1010.96	2674.65
1011.12	2695.13
1011.28	2738.13
1011.44	2797.53
1011.60	2676.70
1011.76	2691.03
1011.91	2803.67
1012.07	2553.82
1012.23	2598.87
1012.39	2635.74
1012.55	2658.26
1012.71	2707.41
1012.86	2680.79
1013.02	2654.17
1013.18	2693.08
1013.34	2670.55
1013.50	2697.17
1013.65	2633.69
1013.81	2570.20
1013.97	2512.86
1014.13	2629.59
1014.29	2623.45
1014.44	2619.35
1014.60	2590.68
1014.76	2590.68
1014.92	2600.92
1015.07	2684.89
1015.23	2650.07
1015.39	2641.88
1015.55	2582.49
1015.71	2541.53
1015.86	2488.28
1016.02	2455.51
1016.18	2537.43
1016.34	2572.25
1016.49	2588.63
1016.65	2553.82
1016.81	2473.95
1016.97	2490.33
1017.12	2619.35
1017.28	2406.36
1017.44	2514.91
1017.60	2441.18
1017.75	2541.53
1017.91	2428.89
1018.07	2541.53
1018.23	2457.56
1018.38	2377.69
1018.54	2412.51
1018.70	2435.03
1018.86	2430.94
1019.01	2396.12
1019.17	2367.45
1019.33	2394.08
1019.49	2437.08
1019.64	2387.93
1019.80	2340.83
1019.96	2371.55
1020.12	2475.99
1020.27	2392.03
1020.43	2383.84
1020.59	2418.65
1020.74	2445.27
1020.90	2441.18
1021.06	2308.06
1021.22	2426.84
1021.37	2387.93
1021.53	2244.57
1021.69	2361.31
1021.84	2334.68
1022.00	2441.18
1022.16	2289.63
1022.31	2297.82
1022.47	2324.44
1022.63	2316.25
1022.79	2250.72
1022.94	2197.47
1023.10	2322.40
1023.26	2289.63
1023.41	2306.01
1023.57	2250.72
1023.73	2342.88
1023.88	2299.87
1024.04	2209.76
1024.20	2181.09
1024.35	2295.77
1024.51	2310.11
1024.67	2215.90
1024.82	2285.53
1024.98	2193.37
1025.14	2326.49
1025.29	2217.95
1025.45	2174.94
1025.61	2111.46
1025.76	2166.75
1025.92	2256.86
1026.08	2263.01
1026.23	2236.38
1026.39	2189.28
1026.55	2146.27
1026.70	2191.33
1026.86	2267.10
1027.02	2209.76
1027.17	2117.60
1027.33	2160.61
1027.48	2176.99
1027.64	2166.75
1027.80	2131.94
1027.95	2138.08
1028.11	2123.74
1028.27	2166.75
1028.42	2150.37
1028.58	2047.97
1028.73	2060.26
1028.89	2084.83
1029.05	2265.05
1029.20	2170.85
>>>>>End Processed Spectral Data<<<<<
