SpectraSuite Data File
++++++++++++++++++++++++++++++++++++
Date: Fri Jun 02 14:53:31 CEST 2017
User: INFO_000
Dark Spectrum Present: No
Reference Spectrum Present: No
Number of Sampled Component Spectra: 1
Spectrometers: USB4H00879
Integration Time (usec): 80000 (USB4H00879)
Spectra Averaged: 1 (USB4H00879)
Boxcar Smoothing: 0 (USB4H00879)
Correct for Electrical Dark: No (USB4H00879)
Strobe/Lamp Enabled: No (USB4H00879)
Correct for Detector Non-linearity: No (USB4H00879)
Correct for Stray Light: No (USB4H00879)
Number of Pixels in Processed Spectrum: 3648
>>>>>Begin Processed Spectral Data<<<<<
345.13	1251.31
345.34	1251.31
345.56	1251.31
345.78	1322.99
345.99	1312.75
346.21	1681.38
346.42	1681.38
346.64	1681.38
346.86	1767.40
347.07	1681.38
347.29	1751.01
347.50	1638.38
347.72	1687.53
347.94	1748.97
348.15	1609.70
348.37	1626.09
348.59	1753.06
348.80	1636.33
349.02	1791.97
349.23	1857.51
349.45	1765.35
349.67	1906.66
349.88	1796.07
350.10	1906.66
350.31	1816.55
350.53	1781.73
350.75	1974.24
350.96	1765.35
351.18	1910.75
351.39	1875.94
351.61	1849.32
351.82	1953.76
352.04	1920.99
352.26	1781.73
352.47	1877.99
352.69	1916.90
352.90	1781.73
353.12	1808.36
353.34	1867.75
353.55	1982.43
353.77	1830.88
353.98	1818.60
354.20	1832.93
354.41	1937.38
354.63	1918.95
354.85	2056.16
355.06	1961.95
355.28	1818.60
355.49	1820.64
355.71	1816.55
355.92	1882.08
356.14	1927.14
356.35	1886.18
356.57	1787.88
356.79	1949.67
357.00	1886.18
357.22	1925.09
357.43	1882.08
357.65	1941.47
357.86	1935.33
358.08	1886.18
358.29	1935.33
358.51	1953.76
358.72	1933.28
358.94	1966.05
359.16	1900.52
359.37	1933.28
359.59	1931.23
359.80	2007.01
360.02	1986.53
360.23	1972.19
360.45	1982.43
360.66	1906.66
360.88	1892.32
361.09	1906.66
361.31	1937.38
361.52	1966.05
361.74	2023.39
361.95	2054.11
362.17	1957.86
362.38	2138.08
362.60	2072.54
362.81	1951.71
363.03	1898.47
363.24	1970.15
363.46	2050.02
363.67	2019.30
363.89	2025.44
364.10	2045.92
364.32	1937.38
364.53	2002.91
364.75	1978.34
364.96	2019.30
365.18	2129.89
365.39	2011.11
365.61	2027.49
365.82	2088.93
366.04	1990.63
366.25	1943.52
366.47	2043.87
366.68	2097.12
366.90	1990.63
367.11	2029.54
367.33	2080.74
367.54	2140.13
367.76	2129.89
367.97	2068.45
368.19	2019.30
368.40	2105.31
368.62	1986.53
368.83	2037.73
369.05	2062.30
369.26	1964.00
369.48	2103.26
369.69	1935.33
369.91	2105.31
370.12	2095.07
370.33	2074.59
370.55	1947.62
370.76	2047.97
370.98	2133.98
371.19	2015.20
371.41	2035.68
371.62	2133.98
371.84	2033.63
372.05	2142.18
372.27	2015.20
372.48	2068.45
372.69	2174.94
372.91	2172.89
373.12	2146.27
373.34	2093.02
373.55	2082.78
373.77	2158.56
373.98	2123.74
374.20	2174.94
374.41	2232.29
374.62	2123.74
374.84	2240.48
375.05	2236.38
375.27	2170.85
375.48	2220.00
375.70	2158.56
375.91	2224.09
376.12	2256.86
376.34	2191.33
376.55	2263.01
376.77	2295.77
376.98	2119.65
377.19	2078.69
377.41	2226.14
377.62	2277.34
377.84	2222.05
378.05	2322.40
378.27	2199.52
378.48	2357.21
378.69	2328.54
378.91	2342.88
379.12	2265.05
379.34	2246.62
379.55	2320.35
379.76	2222.05
379.98	2242.53
380.19	2344.92
380.41	2228.19
380.62	2234.33
380.83	2295.77
381.05	2158.56
381.26	2492.38
381.47	2224.09
381.69	2242.53
381.90	2408.41
382.12	2326.49
382.33	2176.99
382.54	2355.16
382.76	2359.26
382.97	2312.16
383.19	2267.10
383.40	2371.55
383.61	2306.01
383.83	2301.92
384.04	2334.68
384.25	2435.03
384.47	2402.27
384.68	2293.72
384.89	2340.83
385.11	2389.98
385.32	2385.88
385.54	2344.92
385.75	2408.41
385.96	2451.42
386.18	2371.55
386.39	2437.08
386.60	2408.41
386.82	2367.45
387.03	2387.93
387.24	2519.00
387.46	2437.08
387.67	2537.43
387.88	2570.20
388.10	2400.22
388.31	2516.95
388.52	2498.52
388.74	2580.44
388.95	2480.09
389.16	2512.86
389.38	2426.84
389.59	2639.83
389.80	2584.54
390.02	2531.29
390.23	2693.08
390.44	2490.33
390.66	2504.67
390.87	2488.28
391.08	2629.59
391.30	2736.09
391.51	2654.17
391.72	2695.13
391.94	2670.55
392.15	2670.55
392.36	2660.31
392.58	2635.74
392.79	2648.02
393.00	2666.46
393.22	2682.84
393.43	2789.33
393.64	2779.09
393.85	2807.77
394.07	2650.07
394.28	2748.37
394.49	2729.94
394.71	2799.57
394.92	2871.25
395.13	2715.61
395.35	2764.76
395.56	2691.03
395.77	2752.47
395.98	2830.29
396.20	2797.53
396.41	2805.72
396.62	3010.51
396.84	2879.44
397.05	2838.48
397.26	2861.01
397.47	2959.31
397.69	2856.92
397.90	3018.71
398.11	2951.12
398.32	2858.96
398.54	2840.53
398.75	2920.40
398.96	3002.32
399.18	3049.43
399.39	3037.14
399.60	2996.18
399.81	2990.03
400.03	2979.79
400.24	3317.71
400.45	3041.23
400.66	3139.54
400.88	2975.70
401.09	3176.40
401.30	3043.28
401.51	3131.34
401.73	3143.63
401.94	3200.98
402.15	3117.01
402.36	3280.85
402.58	3127.25
402.79	3221.45
403.00	3143.63
403.21	3172.30
403.43	3217.36
403.64	3229.65
403.85	3205.07
404.06	3346.38
404.27	3102.67
404.49	3211.22
404.70	3043.28
404.91	3342.28
405.12	3284.94
405.34	3286.99
405.55	3403.72
405.76	3135.44
405.97	3192.78
406.19	3387.34
406.40	3213.26
406.61	3346.38
406.82	3395.53
407.03	3256.27
407.25	3248.08
407.46	3381.20
407.67	3495.88
407.88	3424.20
408.09	3510.22
408.31	3325.90
408.52	3475.40
408.73	3284.94
408.94	3399.63
409.15	3459.02
409.37	3506.12
409.58	3530.70
409.79	3559.37
410.00	3569.61
410.21	3559.37
410.43	3489.74
410.64	3452.88
410.85	3583.95
411.06	3477.45
411.27	3581.90
411.48	3708.87
411.70	3661.77
411.91	3655.62
412.12	3702.73
412.33	3549.13
412.54	3602.38
412.76	3704.78
412.97	3768.26
413.18	3551.18
413.39	3688.39
413.60	3743.69
413.81	3710.92
414.03	3686.34
414.24	3661.77
414.45	3868.61
414.66	3633.10
414.87	3841.99
415.08	3788.74
415.30	3792.84
415.51	3835.85
415.72	3915.72
415.93	3882.95
416.14	3852.23
416.35	3909.57
416.56	3862.47
416.78	3966.92
416.99	3885.00
417.20	3872.71
417.41	4007.87
417.62	3837.89
417.83	3882.95
418.04	3874.76
418.26	4048.83
418.47	4003.78
418.68	4052.93
418.89	3993.54
419.10	4208.58
419.31	4155.33
419.52	4122.56
419.73	4083.65
419.95	4202.43
420.16	3950.53
420.37	4097.99
420.58	4186.05
420.79	4009.92
421.00	4167.62
421.21	4169.66
421.42	4083.65
421.63	4200.38
421.85	4188.10
422.06	4356.03
422.27	4204.48
422.48	4245.44
422.69	4296.64
422.90	4249.54
423.11	4300.73
423.32	4425.66
423.53	4526.01
423.75	4349.89
423.96	4499.39
424.17	4489.15
424.38	4550.59
424.59	4478.91
424.80	4566.97
425.01	4562.87
425.22	4409.28
425.43	4497.34
425.64	4769.72
425.85	4558.78
426.06	4569.02
426.28	4667.32
426.49	4628.41
426.70	4704.18
426.91	4575.16
427.12	4681.66
427.33	4591.55
427.54	4624.31
427.75	4745.14
427.96	4698.04
428.17	4872.12
428.38	4767.67
428.59	4880.31
428.80	4900.79
429.01	4825.01
429.23	4902.84
429.44	5148.59
429.65	4876.21
429.86	4970.42
430.07	4859.83
430.28	4876.21
430.49	5050.29
430.70	5179.31
430.91	5164.98
431.12	5023.67
431.33	5121.97
431.54	5107.63
431.75	5318.57
431.96	5097.39
432.17	5132.21
432.38	5005.24
432.59	5367.73
432.80	5234.61
433.01	5537.71
433.22	5246.90
433.43	5283.76
433.64	5238.70
433.85	5191.60
434.06	5400.49
434.27	5324.72
434.49	5474.22
434.70	5509.04
434.91	5535.66
435.12	5400.49
435.33	5433.26
435.54	5484.46
435.75	5367.73
435.96	5451.69
436.17	5408.69
436.38	5558.19
436.59	5550.00
436.80	5621.67
437.01	5828.52
437.22	5805.99
437.43	5744.55
437.64	5463.98
437.85	5748.65
438.06	5758.89
438.27	5623.72
438.48	5638.06
438.69	5851.05
438.90	5734.31
439.11	5674.92
439.32	5877.67
439.53	5990.31
439.74	5814.18
439.95	5744.55
440.16	5744.55
440.37	5947.30
440.57	5775.27
440.78	5953.45
440.99	5965.73
441.20	5939.11
441.41	5683.11
441.62	5918.63
441.83	5650.35
442.04	6098.85
442.25	6043.56
442.46	5949.35
442.67	6215.59
442.88	6444.96
443.09	6266.78
443.30	6139.81
443.51	6143.91
443.72	6438.81
443.93	6215.59
444.14	6377.37
444.35	6176.67
444.56	6225.82
444.77	6205.35
444.98	6272.93
445.19	6506.40
445.40	6401.95
445.61	6256.54
445.81	6533.02
446.02	6377.37
446.23	6541.21
446.44	6408.09
446.65	6559.64
446.86	6416.29
447.07	6573.98
447.28	6619.04
447.49	6705.05
447.70	6639.51
447.91	6854.55
448.12	6723.48
448.33	6703.00
448.54	6598.56
448.74	6725.53
448.95	6862.74
449.16	6752.15
449.37	6993.81
449.58	6639.51
449.79	6842.26
450.00	6885.27
450.21	6989.72
450.42	7020.44
450.63	7094.16
450.84	7090.07
451.05	7010.20
451.25	6975.38
451.46	6965.14
451.67	7114.64
451.88	7126.93
452.09	7313.30
452.30	7161.75
452.51	7190.42
452.72	7200.66
452.93	7499.66
453.13	7122.84
453.34	7282.58
453.55	7204.75
453.76	7323.54
453.97	7690.12
454.18	7425.93
454.39	7511.95
454.60	7548.81
454.81	7608.20
455.01	7649.16
455.22	7452.56
455.43	7647.12
455.64	7915.40
455.85	7911.30
456.06	8097.67
456.27	7813.00
456.48	7841.67
456.68	8107.91
456.89	8071.04
457.10	8138.63
457.31	7948.17
457.52	7950.21
457.73	8097.67
457.94	8314.75
458.14	8169.35
458.35	8513.41
458.56	8228.74
458.77	8230.79
458.98	8314.75
459.19	8517.50
459.39	8468.35
459.60	8529.79
459.81	8550.27
460.02	8724.35
460.23	8587.13
460.44	8914.81
460.65	8851.32
460.85	8890.23
461.06	8796.03
461.27	8826.75
461.48	9179.00
461.69	9015.16
461.89	8847.22
462.10	9078.65
462.31	8923.00
462.52	8912.76
462.73	8918.90
462.94	9484.14
463.14	9211.76
463.35	9052.02
463.56	9693.04
463.77	9705.32
463.98	9455.47
464.18	9478.00
464.39	9799.53
464.60	9811.82
464.81	9830.25
465.02	9742.19
465.23	9891.69
465.43	9684.84
465.64	9946.98
465.85	9895.78
466.06	9860.97
466.27	10381.15
466.47	10174.31
466.68	10198.88
466.89	10309.47
467.10	10245.99
467.30	10207.08
467.51	10348.39
467.72	10833.75
467.93	10241.89
468.14	10487.65
468.34	10766.17
468.55	10970.97
468.76	10852.19
468.97	10731.36
469.17	10829.66
469.38	11075.42
469.59	11175.77
469.80	10944.34
470.01	11042.65
470.21	10973.02
470.42	11407.19
470.63	11429.71
470.84	11312.98
471.04	11431.76
471.25	11607.89
471.46	11571.02
471.67	12089.16
471.87	11759.44
472.08	11792.20
472.29	12257.09
472.50	11835.21
472.70	11904.84
472.91	11974.47
473.12	12171.08
473.33	12281.67
473.53	12468.03
473.74	12240.71
473.95	12474.18
474.16	12685.12
474.36	12578.62
474.57	12857.15
474.78	12934.97
474.99	12928.83
475.19	12844.86
475.40	13256.50
475.61	13315.89
475.81	13471.54
476.02	13590.32
476.23	13250.36
476.44	13492.02
476.64	13862.70
476.85	14034.73
477.06	13731.63
477.27	14051.11
477.47	14096.17
477.68	14141.22
477.89	14202.66
478.09	14085.93
478.30	14253.86
478.51	14370.60
478.71	14573.35
478.92	14610.21
479.13	14755.61
479.34	14995.23
479.54	14776.09
479.75	14806.81
479.96	14845.73
480.16	14878.49
480.37	15163.16
480.58	15361.81
480.78	15499.03
480.99	15302.42
481.20	15415.06
481.41	15873.81
481.61	15750.93
481.82	15816.46
482.03	15963.92
482.23	15802.13
482.44	16142.09
482.65	16418.57
482.85	16500.48
483.06	16369.41
483.27	16611.07
483.47	16393.99
483.68	16762.62
483.89	16525.06
484.09	16910.08
484.30	16744.19
484.51	17067.77
484.71	17008.38
484.92	17082.11
485.13	17432.31
485.33	17301.24
485.54	17307.38
485.75	17731.31
485.95	17870.58
486.16	17833.71
486.37	17903.34
486.57	17579.76
486.78	17866.48
486.98	17979.12
487.19	18304.74
487.40	18292.46
487.60	18415.34
487.81	18173.67
488.02	18527.97
488.22	18374.38
488.43	18581.22
488.64	18652.90
488.84	18517.73
489.05	18915.04
489.25	18685.67
489.46	18933.47
489.67	18847.46
489.87	19279.58
490.08	19259.10
490.29	19484.37
490.49	19762.90
490.70	19605.20
490.90	19783.38
491.11	19566.29
491.32	19764.95
491.52	19756.75
491.73	19977.94
491.94	19906.26
492.14	19910.35
492.35	20387.53
492.55	20125.39
492.76	20510.41
492.97	20354.76
493.17	20313.80
493.38	20582.09
493.58	21008.06
493.79	20694.72
494.00	20645.57
494.20	20965.06
494.41	20743.88
494.61	21094.08
494.82	21100.22
495.02	21063.36
495.23	21427.90
495.44	21192.38
495.64	21622.45
495.85	21616.31
496.05	21475.00
496.26	21581.49
496.47	21683.89
496.67	21788.34
496.88	22318.76
497.08	21513.91
497.29	22382.25
497.49	21923.51
497.70	22245.04
497.91	22103.73
498.11	22458.03
498.32	22462.12
498.52	22752.93
498.73	22943.39
498.93	22810.28
499.14	22853.28
499.34	22830.76
499.55	22763.17
499.76	22836.90
499.96	23017.12
500.17	22900.39
500.37	23039.65
500.58	23164.57
500.78	23256.73
500.99	23086.75
501.19	23426.71
501.40	23416.47
501.60	23293.60
501.81	23301.79
502.02	23637.66
502.22	23484.06
502.43	23828.12
502.63	23854.74
502.84	24102.54
503.04	23787.16
503.25	24225.42
503.45	23899.80
503.66	24266.38
503.86	24368.78
504.07	24497.80
504.27	24241.81
504.48	24549.00
504.68	24626.82
504.89	24737.41
505.09	24733.32
505.30	24405.64
505.50	24614.54
505.71	24964.74
505.91	24819.33
506.12	25097.86
506.32	24823.43
506.53	25114.24
506.73	25108.10
506.94	25327.23
507.14	25194.11
507.35	25400.96
507.55	25222.78
507.76	25601.66
507.96	25132.67
508.17	25579.13
508.37	25527.93
508.58	25763.45
508.78	25814.65
508.99	25575.03
509.19	25675.38
509.40	25724.54
509.60	25824.89
509.81	26154.61
510.01	25933.43
510.22	26097.27
510.42	25919.09
510.63	26347.12
510.83	26375.79
511.04	26316.40
511.24	26443.37
511.44	26181.23
511.65	26470.00
511.85	26551.91
512.06	26363.50
512.26	26625.64
512.47	26564.20
512.67	26517.10
512.88	26922.60
513.08	26742.38
513.29	27010.66
513.49	26975.84
513.69	26967.65
513.90	26926.69
514.10	27008.61
514.31	27194.98
514.51	27491.93
514.72	27465.31
514.92	27270.75
515.13	27426.40
515.33	27287.14
515.53	27782.74
515.74	27342.43
515.94	27942.49
516.15	27702.87
516.35	27754.07
516.56	28034.64
516.76	27819.61
516.96	27895.38
517.17	28323.41
517.37	27987.54
517.58	28022.36
517.78	28173.91
517.99	28239.44
518.19	28571.21
518.39	28470.86
518.60	28798.54
518.80	28663.37
519.01	28921.41
519.21	28911.17
519.41	28884.55
519.62	28567.12
519.82	28976.71
520.03	28868.17
520.23	29163.08
520.43	29099.59
520.64	28976.71
520.84	29304.38
521.05	29210.18
521.25	29484.61
521.45	29445.69
521.66	29840.95
521.86	29681.21
522.07	29867.58
522.27	29865.53
522.47	29863.48
522.68	30240.31
522.88	29763.13
523.08	30498.35
523.29	30273.07
523.49	30236.21
523.70	30418.48
523.90	30666.28
524.10	30955.05
524.31	31051.30
524.51	30617.13
524.71	31098.41
524.92	30924.33
525.12	31276.58
525.33	31010.34
525.53	31366.69
525.73	31252.00
525.94	31264.29
526.14	31372.83
526.34	31544.86
526.55	31731.23
526.75	31587.87
526.95	31813.15
527.16	31764.00
527.36	32052.76
527.56	32226.84
527.77	32722.44
527.97	32632.33
528.17	32384.53
528.38	32812.56
528.58	32699.92
528.78	33007.11
528.99	32722.44
529.19	32816.65
529.39	32783.88
529.60	32974.34
529.80	33132.04
530.00	33426.95
530.21	33543.68
530.41	33369.60
530.61	33736.19
530.82	33584.64
531.02	33621.50
531.22	33885.69
531.43	33897.98
531.63	34295.28
531.83	34172.41
532.04	34981.35
532.24	34145.78
532.44	34584.05
532.64	34893.29
532.85	34979.31
533.05	35028.46
533.25	34571.76
533.46	35075.56
533.66	35331.56
533.86	35177.96
534.07	35628.51
534.27	35474.91
534.47	35501.54
534.67	35390.95
534.88	35806.69
535.08	35960.28
535.28	35917.28
535.49	36324.82
535.69	36828.62
535.89	36347.35
536.09	36320.73
536.30	36756.94
536.50	36685.26
536.70	36961.74
536.91	36687.31
537.11	36851.15
537.31	37045.71
537.51	36836.81
537.72	37598.66
537.92	37162.44
538.12	37291.46
538.32	37076.43
538.53	37815.74
538.73	37572.03
538.93	37729.73
539.13	37606.85
539.34	37940.67
539.54	37957.05
539.74	38202.81
539.94	37981.63
540.15	38028.73
540.35	38446.52
540.55	38229.43
540.75	38462.90
540.96	38780.34
541.16	38645.17
541.36	38458.81
541.56	38368.69
541.77	39091.63
541.97	38974.89
542.17	38806.96
542.37	39349.67
542.58	38972.85
542.78	39056.81
542.98	39269.80
543.18	39351.72
543.38	39824.80
543.59	39595.43
543.79	39599.52
543.99	39620.00
544.19	39781.79
544.40	39835.04
544.60	39773.60
544.80	40035.74
545.00	40347.03
545.20	40142.24
545.41	40375.70
545.61	40011.17
545.81	40506.77
546.01	40261.02
546.21	40443.29
546.42	40598.93
546.62	40564.12
546.82	40615.32
547.02	40670.61
547.22	40838.54
547.43	40930.70
547.63	40854.93
547.83	40801.68
548.03	40412.57
548.23	41047.44
548.44	41020.81
548.64	40994.19
548.84	41053.58
549.04	41239.95
549.24	41112.97
549.45	41188.75
549.65	41069.97
549.85	41647.49
550.05	41809.28
550.25	41602.44
550.45	41880.96
550.66	41850.24
550.86	41311.63
551.06	41856.39
551.26	41729.41
551.46	41837.95
551.66	42085.76
551.87	41860.48
552.07	42106.24
552.27	41944.45
552.47	42198.40
552.67	42194.30
552.87	41926.02
553.07	41997.70
553.28	42513.78
553.48	42812.79
553.68	42558.84
553.88	42622.33
554.08	42595.70
554.28	42253.69
554.48	42679.67
554.69	42560.89
554.89	42685.81
555.09	42794.36
555.29	42390.91
555.49	42567.03
555.69	42980.72
555.89	42585.46
556.10	43337.07
556.30	42497.40
556.50	42839.41
556.70	42988.91
556.90	42929.52
557.10	43339.11
557.30	42567.03
557.50	43670.89
557.70	43292.01
557.91	43433.32
558.11	43261.29
558.31	43459.94
558.51	43208.04
558.71	43595.11
558.91	43736.42
559.11	43201.90
559.31	43461.99
559.51	43046.26
559.72	43791.72
559.92	43826.53
560.12	43193.71
560.32	43769.19
560.52	43140.46
560.72	43357.55
560.92	43502.95
561.12	43806.05
561.32	44180.83
561.52	43588.97
561.72	44129.63
561.93	43425.13
562.13	43996.51
562.33	43570.54
562.53	44365.15
562.73	43890.02
562.93	43859.30
563.13	44205.41
563.33	43535.72
563.53	44109.15
563.73	43726.18
563.93	44182.88
564.13	44262.75
564.33	44152.16
564.53	44217.69
564.74	44475.74
564.94	44176.73
565.14	44309.85
565.34	44232.03
565.54	44176.73
565.74	44168.54
565.94	44557.66
566.14	44279.13
566.34	44326.24
566.54	44662.10
566.74	44211.55
566.94	44612.95
567.14	44793.17
567.34	44606.81
567.54	44563.80
567.74	44645.72
567.94	44307.80
568.14	44875.09
568.34	45016.40
568.54	44610.90
568.74	44918.10
568.94	44856.66
569.14	45258.06
569.34	45073.74
569.54	44694.87
569.75	44432.73
569.95	44825.94
570.15	45313.36
570.35	44864.85
570.55	44778.84
570.75	45170.00
570.95	44895.57
571.15	45147.47
571.35	44838.23
571.55	45292.88
571.75	45206.86
571.95	45280.59
572.15	44957.01
572.35	45344.08
572.55	45012.31
572.75	45114.70
572.95	44891.48
573.15	45151.57
573.35	45122.90
573.55	45292.88
573.75	45581.64
573.95	45585.74
574.15	45208.91
574.35	45708.61
574.55	45200.72
574.75	45507.91
574.95	45563.21
575.15	45589.83
575.34	45880.64
575.54	46073.15
575.74	46050.63
575.94	45993.28
576.14	45716.81
576.34	46073.15
576.54	45802.82
576.74	46122.30
576.94	46015.81
577.14	45937.99
577.34	46433.60
577.54	46167.36
577.74	46056.77
577.94	46007.62
578.14	45987.14
578.34	46161.22
578.54	46036.29
578.74	46116.16
578.94	46421.31
579.14	46241.09
579.34	46243.13
579.54	46595.38
579.74	46935.35
579.94	46710.07
580.13	46882.10
580.33	46966.07
580.53	46439.74
580.73	46355.77
580.93	46554.43
581.13	46814.52
581.33	46865.72
581.53	47095.09
581.73	46622.01
581.93	47267.12
582.13	47056.18
582.33	47164.72
582.53	47117.62
582.73	47465.77
582.92	47379.76
583.12	47115.57
583.32	47248.69
583.52	47111.47
583.72	46980.40
583.92	47297.84
584.12	47498.54
584.32	48022.82
584.52	47648.04
584.72	47791.40
584.92	47516.97
585.11	48209.18
585.31	47600.94
585.51	47965.48
585.71	47977.76
585.91	48364.83
586.11	47822.12
586.31	47805.73
586.51	47805.73
586.71	48147.75
586.91	48182.56
587.10	48192.80
587.30	48037.16
587.50	48442.65
587.70	48334.11
587.90	48438.56
588.10	48706.84
588.30	48440.60
588.50	48737.56
588.69	48424.22
588.89	48391.45
589.09	48848.15
589.29	48878.87
589.49	49028.37
589.69	48411.93
589.89	48854.29
590.08	48794.90
590.28	49011.99
590.48	48719.13
590.68	48760.09
590.88	48928.02
591.08	48739.61
591.28	48346.40
591.47	49358.09
591.67	49020.18
591.87	49059.09
592.07	49124.63
592.27	49202.45
592.47	49026.32
592.67	49257.74
592.86	49095.95
593.06	49265.94
593.26	49558.80
593.46	49233.17
593.66	49411.34
593.86	49831.18
594.05	49706.25
594.25	49909.00
594.45	49222.93
594.65	49534.22
594.85	49343.76
595.05	50142.47
595.24	49925.38
595.44	49847.56
595.64	49939.72
595.84	49810.70
596.04	49718.54
596.23	49722.63
596.43	50003.20
596.63	49962.25
596.83	50314.50
597.03	50377.98
597.22	50306.30
597.42	50175.23
597.62	50732.28
597.82	50742.52
598.02	50445.57
598.21	50771.19
598.41	50187.52
598.61	50887.93
598.81	50894.07
599.01	51100.92
599.20	50750.71
599.40	50779.39
599.60	50791.67
599.80	50795.77
600.00	50902.26
600.19	50980.09
600.39	50814.20
600.59	51614.96
600.79	51234.03
600.98	51152.12
601.18	51760.36
601.38	51272.95
601.58	51729.64
601.78	51465.45
601.97	51881.19
602.17	51973.35
602.37	51983.59
602.57	51940.58
602.76	51930.34
602.96	51799.27
603.16	51897.58
603.36	52266.21
603.55	52403.42
603.75	51913.96
603.95	52069.61
604.15	52315.36
604.34	52696.28
604.54	52671.71
604.74	52616.41
604.94	52423.90
605.13	53175.51
605.33	52595.93
605.53	52462.82
605.73	52610.27
605.92	52774.11
606.12	53023.96
606.32	53109.97
606.52	52983.00
606.71	53140.69
606.91	53384.40
607.11	53200.08
607.30	53097.69
607.50	53243.09
607.70	53177.56
607.90	53388.50
608.09	53306.58
608.29	53361.87
608.49	53538.00
608.68	53009.62
608.88	53492.94
609.08	53908.68
609.28	53763.28
609.47	53834.95
609.67	53968.07
609.87	53374.16
610.06	53740.75
610.26	53826.76
610.46	54170.82
610.66	54121.67
610.85	54006.98
611.05	53951.69
611.25	54277.32
611.44	53900.49
611.64	54260.93
611.84	54187.21
612.03	53925.07
612.23	54363.33
612.43	54412.48
612.62	54136.01
612.82	54318.28
613.02	54172.87
613.21	54170.82
613.41	53996.74
613.61	54596.80
613.80	53943.50
614.00	54420.67
614.20	54492.35
614.39	54645.95
614.59	54729.92
614.79	54086.85
614.98	54334.66
615.18	54406.34
615.38	54729.92
615.57	54215.88
615.77	54582.46
615.97	54400.19
616.16	54478.02
616.36	54598.85
616.56	54660.29
616.75	54572.22
616.95	54760.64
617.15	54504.64
617.34	54981.82
617.54	54703.29
617.74	55004.34
617.93	54854.84
618.13	54607.04
618.32	54797.50
618.52	54580.42
618.72	54561.98
618.91	55237.81
619.11	54899.90
619.31	55024.82
619.50	55049.40
619.70	54600.89
619.90	54869.18
620.09	54834.36
620.29	55129.27
620.48	54779.07
620.68	55041.21
620.88	54500.54
621.07	54932.67
621.27	55073.98
621.46	54572.22
621.66	55203.00
621.86	55213.24
622.05	55022.78
622.25	55151.80
622.44	54826.17
622.64	54432.96
622.84	55317.68
623.03	55319.73
623.23	55080.12
623.42	55645.36
623.62	55256.24
623.82	55383.22
624.01	54621.37
624.21	55497.91
624.40	55590.06
624.60	55397.55
624.80	54992.06
624.99	55209.14
625.19	54799.55
625.38	55303.35
625.58	55669.93
625.77	55614.64
625.97	55598.26
626.17	54949.05
626.36	55348.40
626.56	55776.43
626.75	54842.56
626.95	55526.58
627.14	55024.82
627.34	55678.13
627.54	55588.02
627.73	55579.82
627.93	55635.12
628.12	55401.65
628.32	55649.45
628.51	55262.39
628.71	55762.09
628.90	56108.20
629.10	55729.33
629.30	55284.92
629.49	55542.96
629.69	55688.37
629.88	55159.99
630.08	55907.50
630.27	55671.98
630.47	55811.24
630.66	55465.14
630.86	56194.21
631.05	55850.16
631.25	56333.48
631.44	55524.53
631.64	55475.38
631.84	55731.37
632.03	56489.12
632.23	55649.45
632.42	55987.37
632.62	55968.94
632.81	55381.17
633.01	56100.01
633.20	56171.69
633.40	56153.26
633.59	56278.18
633.79	55860.40
633.98	55821.48
634.18	55964.84
634.37	56022.19
634.57	56485.03
634.76	56319.14
634.96	56327.33
635.15	56296.61
635.35	55708.85
635.54	55964.84
635.74	56603.81
635.93	56102.06
636.13	56388.77
636.32	56229.03
636.52	55950.51
636.71	56333.48
636.91	56460.45
637.10	56274.09
637.30	56519.84
637.49	56501.41
637.69	56351.91
637.88	56409.25
638.08	56636.58
638.27	56673.44
638.46	56710.30
638.66	55815.34
638.85	56259.75
639.05	56693.92
639.24	56310.95
639.44	56161.45
639.63	56454.31
639.83	56339.62
640.02	56833.18
640.22	56718.49
640.41	56976.54
640.61	56259.75
640.80	56833.18
640.99	56460.45
641.19	57259.16
641.38	56853.66
641.58	56261.80
641.77	56833.18
641.97	56644.77
642.16	57025.69
642.36	56921.24
642.55	57367.70
642.74	56489.12
642.94	57349.27
643.13	56636.58
643.33	57201.82
643.52	57236.63
643.72	57263.25
643.91	57425.04
644.10	57451.67
644.30	57406.61
644.49	56863.90
644.69	57390.23
644.88	57193.62
645.08	57099.42
645.27	57287.83
645.46	57271.45
645.66	57414.80
645.85	57531.54
646.05	57140.38
646.24	57142.42
646.43	57545.87
646.63	57572.50
646.82	57664.66
647.02	57511.06
647.21	57771.15
647.40	57685.14
647.60	57891.98
647.79	58016.91
647.99	57498.77
648.18	57556.11
648.37	57918.60
648.57	57431.19
648.76	57889.93
648.96	57429.14
649.15	58068.11
649.34	58272.90
649.54	57687.18
649.73	57762.96
649.92	57676.94
650.12	57824.40
650.31	57937.04
650.51	57865.36
650.70	57930.89
650.89	57662.61
651.09	58530.95
651.28	57791.63
651.47	58074.25
651.67	58104.97
651.86	58578.05
652.06	57646.22
652.25	58109.07
652.44	57851.02
652.64	57795.73
652.83	57894.03
653.02	57672.85
653.22	57955.47
653.41	57832.59
653.60	57635.98
653.80	57937.04
653.99	58258.57
654.18	57722.00
654.38	57568.40
654.57	57760.91
654.76	57765.01
654.96	57808.01
655.15	57750.67
655.34	58360.97
655.54	57652.37
655.73	58150.02
655.92	57934.99
656.12	58307.72
656.31	58049.67
656.50	58219.66
656.70	58627.20
656.89	57713.81
657.08	58217.61
657.28	58311.81
657.47	58184.84
657.66	58422.40
657.86	57818.25
658.05	58023.05
658.24	58326.15
658.43	57494.67
658.63	58356.87
658.82	58102.92
659.01	58795.13
659.21	58322.05
659.40	57887.88
659.59	57900.17
659.79	58451.08
659.98	58354.82
660.17	58059.91
660.36	58279.05
660.56	58414.21
660.75	58205.32
660.94	58489.99
661.14	58254.47
661.33	58205.32
661.52	57918.60
661.71	58487.94
661.91	57963.66
662.10	57939.08
662.29	58252.42
662.49	58190.98
662.68	58100.87
662.87	57967.76
663.06	58363.01
663.26	58090.63
663.45	58334.34
663.64	58227.85
663.83	58604.67
664.03	58238.09
664.22	58018.95
664.41	58674.30
664.60	57955.47
664.80	57930.89
664.99	57955.47
665.18	58563.71
665.37	58350.73
665.57	58510.47
665.76	58166.41
665.95	58133.64
666.14	58279.05
666.34	58160.26
666.53	58061.96
666.72	58152.07
666.91	58055.82
667.11	57988.24
667.30	58414.21
667.49	57644.18
667.68	57908.36
667.87	57703.57
668.07	58512.52
668.26	57824.40
668.45	58088.59
668.64	57781.39
668.84	58330.25
669.03	58244.23
669.22	58094.73
669.41	58277.00
669.60	58221.70
669.80	57760.91
669.99	58162.31
670.18	58139.78
670.37	57445.52
670.57	58377.35
670.76	57908.36
670.95	57924.75
671.14	57578.64
671.33	57777.29
671.53	58045.58
671.72	58258.57
671.91	58147.98
672.10	57773.20
672.29	57871.50
672.48	57476.24
672.68	58064.01
672.87	57689.23
673.06	57607.31
673.25	57668.75
673.44	57924.75
673.64	57576.59
673.83	57427.09
674.02	57537.68
674.21	57349.27
674.40	57615.50
674.59	57277.59
674.79	57588.88
674.98	57341.08
675.17	57177.24
675.36	57312.41
675.55	57861.26
675.74	57193.62
675.94	57267.35
676.13	57478.29
676.32	57461.91
676.51	57814.16
676.70	57265.30
676.89	57513.11
677.08	57765.01
677.28	57224.34
677.47	57513.11
677.66	57392.28
677.85	57306.26
678.04	57531.54
678.23	57857.17
678.42	57121.94
678.62	57349.27
678.81	57205.91
679.00	57060.51
679.19	57734.29
679.38	57160.86
679.57	56923.29
679.76	57300.12
679.96	57048.22
680.15	56812.70
680.34	56929.44
680.53	57146.52
680.72	57304.21
680.91	57521.30
681.10	56585.38
681.29	57306.26
681.48	56810.65
681.68	56695.97
681.87	56915.10
682.06	56956.06
682.25	56343.72
682.44	56505.51
682.63	56870.04
682.82	56306.85
683.01	56472.74
683.20	56485.03
683.39	56292.52
683.59	56476.83
683.78	56356.00
683.97	56472.74
684.16	56655.01
684.35	56571.04
684.54	56171.69
684.73	56712.35
684.92	56089.77
685.11	56007.85
685.30	56181.93
685.49	56546.47
685.69	56241.32
685.88	56321.19
686.07	55930.03
686.26	55618.74
686.45	55981.23
686.64	56071.34
686.83	56022.19
687.02	56222.89
687.21	56251.56
687.40	55559.34
687.59	55811.24
687.78	55637.17
687.97	55911.59
688.16	55710.89
688.35	55997.61
688.54	55309.49
688.74	55637.17
688.93	55407.79
689.12	55409.84
689.31	55862.44
689.50	55940.27
689.69	55246.00
689.88	54742.20
690.07	55526.58
690.26	55776.43
690.45	56261.80
690.64	55172.28
690.83	54801.60
691.02	55129.27
691.21	55229.62
691.40	54895.80
691.59	55694.51
691.78	55311.54
691.97	55581.87
692.16	55155.89
692.35	54879.42
692.54	55391.41
692.73	54965.43
692.92	55157.94
693.11	55391.41
693.30	55268.53
693.49	55227.57
693.68	54688.96
693.87	54779.07
694.06	54506.69
694.25	55080.12
694.44	54461.63
694.63	54844.60
694.82	55100.60
695.01	54404.29
695.20	54310.08
695.39	54858.94
695.58	54480.06
695.77	54346.95
695.96	54033.61
696.15	54549.70
696.34	54459.58
696.53	54291.65
696.72	54252.74
696.91	54168.77
697.10	54525.12
697.29	54129.86
697.48	54392.00
697.67	53880.01
697.86	54125.77
698.05	53732.56
698.24	54295.75
698.43	53628.11
698.62	54082.76
698.81	53519.57
699.00	54150.34
699.19	53484.75
699.38	53794.00
699.57	53587.15
699.76	54328.52
699.95	53705.93
700.14	53689.55
700.32	53337.30
700.51	53451.98
700.70	53624.01
700.89	53572.81
701.08	53486.80
701.27	53353.68
701.46	53150.93
701.65	53466.32
701.84	53310.67
702.03	53390.55
702.22	52870.36
702.41	53568.72
702.60	53394.64
702.79	52968.66
702.98	52716.76
703.17	52759.77
703.35	52905.18
703.54	52864.22
703.73	53089.49
703.92	52954.33
704.11	52919.51
704.30	52831.45
704.49	52686.04
704.68	52352.23
704.87	52602.08
705.06	52563.17
705.25	52423.90
705.43	52634.84
705.62	52731.10
705.81	52284.64
706.00	52718.81
706.19	52542.69
706.38	52004.07
706.57	52194.53
706.76	52182.24
706.95	51883.24
707.14	51946.73
707.32	52327.65
707.51	51862.76
707.70	52139.24
707.89	52452.58
708.08	51909.86
708.27	52298.98
708.46	52221.16
708.65	52061.41
708.84	52376.80
709.02	52002.02
709.21	52071.65
709.40	51811.56
709.59	51846.38
709.78	51813.61
709.97	51995.88
710.16	51457.26
710.34	51440.88
710.53	51307.76
710.72	51121.40
710.91	51692.78
711.10	51827.95
711.29	51860.71
711.48	51778.79
711.66	51834.09
711.85	51356.91
712.04	51287.28
712.23	51502.32
712.42	51158.26
712.61	51369.20
712.80	51250.42
712.98	51021.05
713.17	51041.53
713.36	51195.12
713.55	51139.83
713.74	51311.86
713.93	51107.06
714.11	51303.67
714.30	50781.43
714.49	51086.58
714.68	51277.04
714.87	51057.91
715.06	51090.68
715.24	50763.00
715.43	50656.51
715.62	50230.53
715.81	50228.48
716.00	50742.52
716.18	50347.26
716.37	50404.61
716.56	50377.98
716.75	51023.09
716.94	50593.02
717.12	50132.23
717.31	50445.57
717.50	50044.16
717.69	50304.26
717.88	49968.39
718.06	50214.15
718.25	50410.75
718.44	49614.09
718.63	49757.45
718.82	49956.10
719.00	50201.86
719.19	49810.70
719.38	49786.12
719.57	49542.41
719.76	49487.12
719.94	49341.71
720.13	49118.48
720.32	49558.80
720.51	49222.93
720.69	49370.38
720.88	49399.05
721.07	49370.38
721.26	48788.76
721.44	48997.65
721.63	48991.51
721.82	48608.54
722.01	49108.24
722.20	49114.39
722.38	48645.40
722.57	48418.08
722.76	48938.26
722.95	48792.86
723.13	48430.36
723.32	48446.75
723.51	48168.22
723.70	48358.69
723.88	48395.55
724.07	48278.82
724.26	48293.15
724.44	48096.55
724.63	48690.46
724.82	47926.56
725.01	47889.70
725.19	48033.06
725.38	48436.51
725.57	47973.67
725.76	48227.62
725.94	47826.21
726.13	48100.64
726.32	47820.07
726.51	47580.46
726.69	47881.51
726.88	47899.94
727.07	47727.91
727.25	47695.14
727.44	47498.54
727.63	47940.90
727.82	47512.88
728.00	48035.11
728.19	47383.85
728.38	47955.24
728.56	47246.64
728.75	47936.80
728.94	47707.43
729.12	47748.39
729.31	47676.71
729.50	47867.17
729.69	47924.52
729.87	47836.45
730.06	47658.28
730.25	47461.68
730.43	48022.82
730.62	47785.25
730.81	48031.01
730.99	47834.41
731.18	47672.62
731.37	47867.17
731.55	47265.07
731.74	48141.60
731.93	47674.66
732.11	47689.00
732.30	47775.02
732.49	47473.96
732.67	47281.45
732.86	47842.60
733.05	47203.63
733.23	47224.11
733.42	47469.87
733.61	47260.97
733.79	47334.70
733.98	47887.65
734.17	47433.00
734.35	47703.34
734.54	47492.40
734.73	47531.31
734.91	47740.20
735.10	47359.28
735.29	47263.02
735.47	46703.93
735.66	47494.44
735.84	47256.88
736.03	47144.24
736.22	47623.47
736.40	47129.90
736.59	47367.47
736.78	47238.45
736.96	47500.59
737.15	47150.38
737.33	47156.53
737.52	46519.61
737.71	47123.76
737.89	46961.97
738.08	47125.81
738.27	46646.58
738.45	47078.71
738.64	46974.26
738.82	47146.29
739.01	46662.97
739.20	47187.25
739.38	46634.30
739.57	47031.60
739.75	47134.00
739.94	46949.68
740.13	46855.48
740.31	46757.17
740.50	46914.87
740.68	47158.58
740.87	46695.74
741.06	46777.65
741.24	46849.33
741.43	46802.23
741.61	46441.79
741.80	46476.60
741.99	46769.46
742.17	46445.88
742.36	46554.43
742.54	46167.36
742.73	46806.33
742.91	46452.03
743.10	46535.99
743.29	46658.87
743.47	46503.23
743.66	46390.59
743.84	46499.13
744.03	46503.23
744.21	46298.43
744.40	46785.85
744.59	46331.20
744.77	45845.83
744.96	46636.34
745.14	46691.64
745.33	46327.10
745.51	46535.99
745.70	46318.91
745.88	46308.67
746.07	46308.67
746.26	46058.82
746.44	46060.87
746.63	46134.59
746.81	46097.73
747.00	45858.12
747.18	46069.06
747.37	46128.45
747.55	46069.06
747.74	46597.43
747.92	45882.69
748.11	45837.64
748.29	46028.10
748.48	46200.13
748.66	45860.16
748.85	45808.96
749.03	46003.52
749.22	45978.95
749.41	45581.64
749.59	45929.80
749.78	45610.31
749.96	45249.87
750.15	45548.87
750.33	45155.66
750.52	45321.55
750.70	45108.56
750.89	45296.97
751.07	45741.38
751.26	45364.56
751.44	45487.43
751.63	45245.77
751.81	45299.02
752.00	45055.31
752.18	45286.73
752.37	45311.31
752.55	45137.23
752.74	44772.69
752.92	44936.53
753.10	44903.76
753.29	45296.97
753.47	44981.59
753.66	44561.75
753.84	45237.58
754.03	44922.19
754.21	44639.57
754.40	44983.63
754.58	44899.67
754.77	44957.01
754.95	44682.58
755.14	44674.39
755.32	44369.24
755.51	44725.59
755.69	44428.63
755.88	44498.26
756.06	44551.51
756.24	44520.79
756.43	44590.42
756.61	44504.41
756.80	44567.90
756.98	44332.38
757.17	43973.98
757.35	44840.28
757.54	44705.11
757.72	44713.30
757.90	44039.52
758.09	43976.03
758.27	44440.92
758.46	44148.06
758.64	44369.24
758.83	44592.47
759.01	44283.23
759.19	44373.34
759.38	43955.55
759.56	44510.55
759.75	44252.51
759.93	44215.65
760.12	43949.41
760.30	43883.87
760.48	43951.46
760.67	44328.28
760.85	43609.45
761.04	44406.11
761.22	44072.29
761.40	43752.80
761.59	43847.01
761.77	43490.66
761.96	43572.58
762.14	44182.88
762.32	43863.39
762.51	43650.41
762.69	43801.96
762.88	43857.25
763.06	43548.01
763.24	43834.72
763.43	43775.33
763.61	43201.90
763.80	43361.64
763.98	43369.83
764.16	43638.12
764.35	43386.22
764.53	42818.93
764.72	43298.16
764.90	43201.90
765.08	43066.73
765.27	43099.50
765.45	43302.25
765.63	42823.03
765.82	43220.33
766.00	42978.67
766.18	42354.04
766.37	43220.33
766.55	42702.20
766.74	42855.79
766.92	42757.49
767.10	42853.75
767.29	42530.17
767.47	42599.80
767.65	42714.48
767.84	42280.31
768.02	42952.05
768.20	42691.96
768.39	42556.79
768.57	42481.02
768.75	42302.84
768.94	42349.95
769.12	42710.39
769.30	42249.60
769.49	42247.55
769.67	42089.85
769.85	41747.84
770.04	42257.79
770.22	41522.57
770.40	42216.83
770.59	41710.98
770.77	42171.77
770.95	42333.56
771.14	41602.44
771.32	41874.82
771.50	41768.32
771.69	41710.98
771.87	41778.56
772.05	41614.72
772.24	41328.01
772.42	41360.78
772.60	41301.39
772.78	41354.63
772.97	41309.58
773.15	41860.48
773.33	41471.37
773.52	41112.97
773.70	41557.38
773.88	41653.64
774.07	41379.21
774.25	41325.96
774.43	41862.53
774.61	41112.97
774.80	41229.71
774.98	41473.42
775.16	41604.49
775.34	41700.74
775.53	41276.81
775.71	41473.42
775.89	41434.50
776.08	41332.11
776.26	41356.68
776.44	41868.67
776.62	41825.67
776.81	41549.19
776.99	41436.55
777.17	41485.70
777.35	41856.39
777.54	41872.77
777.72	41524.61
777.90	41762.18
778.08	41817.47
778.27	42112.38
778.45	42214.78
778.63	41907.58
778.81	41745.80
779.00	42581.37
779.18	42161.53
779.36	42169.72
779.54	42294.65
779.73	41903.49
779.91	42222.97
780.09	42284.41
780.27	42292.60
780.46	42356.09
780.64	42546.55
780.82	42526.07
781.00	42308.99
781.19	42714.48
781.37	42519.93
781.55	42745.20
781.73	42718.58
781.91	42538.36
782.10	42507.64
782.28	42485.11
782.46	42577.27
782.64	42562.93
782.82	42237.31
783.01	42380.67
783.19	42644.85
783.37	42710.39
783.55	42651.00
783.74	42802.55
783.92	42636.66
784.10	43461.99
784.28	42691.96
784.46	42722.68
784.64	42964.34
784.83	42915.19
785.01	43210.09
785.19	42677.62
785.37	42984.82
785.55	42886.51
785.74	42734.96
785.92	42165.63
786.10	42343.80
786.28	42769.78
786.46	42489.21
786.64	42157.44
786.83	42431.86
787.01	42521.98
787.19	42595.70
787.37	42706.29
787.55	42139.00
787.74	42356.09
787.92	42466.68
788.10	42204.54
788.28	42014.08
788.46	42509.69
788.64	42038.65
788.82	42618.23
789.01	42067.33
789.19	42503.54
789.37	42081.66
789.55	42573.17
789.73	41889.15
789.91	41833.86
790.09	41811.33
790.28	41385.35
790.46	41635.20
790.64	41801.09
790.82	41586.05
791.00	41459.08
791.18	41518.47
791.36	41491.85
791.55	41536.90
791.73	41411.98
791.91	41313.67
792.09	41213.32
792.27	41065.87
792.45	40695.19
792.63	40701.33
792.81	40598.93
793.00	40531.35
793.18	40576.40
793.36	40777.11
793.54	40359.32
793.72	40521.11
793.90	40103.32
794.08	40418.71
794.26	40402.33
794.44	39861.66
794.62	39652.77
794.81	40248.73
794.99	39959.97
795.17	39814.56
795.35	40093.08
795.53	40091.04
795.71	40031.65
795.89	39478.69
796.07	39302.57
796.25	38987.18
796.43	39394.73
796.61	38870.45
796.80	38999.47
796.98	39247.27
797.16	39226.79
797.34	39386.54
797.52	38778.29
797.70	38960.56
797.88	39056.81
798.06	38831.54
798.24	38827.44
798.42	38722.99
798.60	38671.79
798.78	38626.74
798.96	38231.48
799.14	38155.71
799.32	38299.06
799.51	37733.82
799.69	38403.51
799.87	38190.52
800.05	37518.79
800.23	37717.44
800.41	37778.88
800.59	37815.74
800.77	37682.62
800.95	37242.31
801.13	37328.33
801.31	37281.22
801.49	37260.74
801.67	37094.86
801.85	37238.22
802.03	36986.32
802.21	36926.92
802.39	36609.49
802.57	36627.92
802.75	36369.88
802.93	36724.18
803.11	36476.37
803.29	36445.65
803.47	36312.53
803.65	36177.37
803.83	36052.44
804.01	36400.60
804.19	35849.69
804.37	36144.60
804.55	35866.08
804.73	35560.93
804.91	35700.19
805.09	36101.59
805.27	35673.57
805.45	35861.98
805.63	35628.51
805.81	35519.97
805.99	35433.96
806.17	35655.14
806.35	35585.50
806.53	35001.83
806.71	34944.49
806.89	35020.27
807.07	34817.52
807.25	34862.57
807.43	34672.11
807.61	34934.25
807.79	34715.12
807.97	34295.28
808.15	34733.55
808.33	34670.06
808.51	34467.31
808.69	34356.72
808.87	34119.16
809.05	34024.95
809.23	34219.51
809.41	33768.96
809.59	33676.80
809.77	34113.02
809.95	33555.97
810.13	34139.64
810.31	33670.65
810.49	33938.94
810.67	33625.60
810.84	33461.76
811.02	32972.30
811.20	33138.18
811.38	33367.55
811.56	32908.81
811.74	33312.26
811.92	33289.73
812.10	33338.88
812.28	33093.13
812.46	33011.21
812.64	33175.05
812.82	32585.23
813.00	32894.47
813.18	32828.94
813.36	32810.51
813.53	32546.32
813.71	32499.22
813.89	32310.80
814.07	32732.68
814.25	32730.64
814.43	32589.33
814.61	32226.84
814.79	32255.51
814.97	32474.64
815.15	32310.80
815.33	31712.80
815.50	31608.35
815.68	32278.04
815.86	32126.49
816.04	31854.11
816.22	31694.36
816.40	31514.14
816.58	31639.07
816.76	31481.38
816.94	31438.37
817.11	31323.68
817.29	31405.60
817.47	31245.86
817.65	31172.13
817.83	31614.49
818.01	31008.29
818.19	31325.73
818.37	31098.41
818.54	30740.01
818.72	31041.06
818.90	30944.81
819.08	30547.50
819.26	30932.52
819.44	30963.24
819.62	30608.94
819.80	30862.89
819.97	30678.57
820.15	30561.84
820.33	30197.30
820.51	30778.92
820.69	30410.29
820.87	30084.66
821.05	30721.58
821.22	30109.24
821.40	30545.45
821.58	30053.94
821.76	30228.02
821.94	29816.38
822.12	30121.52
822.29	30064.18
822.47	29812.28
822.65	29871.67
822.83	29937.21
823.01	29664.83
823.19	29859.38
823.36	29369.92
823.54	29537.85
823.72	29535.81
823.90	29451.84
824.08	29449.79
824.25	29677.12
824.43	29486.65
824.61	29423.17
824.79	29550.14
824.97	29048.39
825.15	29451.84
825.32	29185.60
825.50	29271.62
825.68	28956.23
825.86	29095.49
826.04	29320.77
826.21	29212.23
826.39	28429.90
826.57	28974.66
826.75	28784.20
826.93	28612.17
827.10	28819.02
827.28	28708.43
827.46	28835.40
827.64	28489.29
827.81	28149.33
827.99	28712.52
828.17	28477.01
828.35	28173.91
828.53	28223.06
828.70	28321.36
828.88	28210.77
829.06	28253.78
829.24	28458.57
829.41	27835.99
829.59	28487.25
829.77	28329.55
829.95	28094.04
830.12	28223.06
830.30	27911.77
830.48	28436.05
830.66	27903.57
830.84	27979.35
831.01	27864.66
831.19	28026.45
831.37	27502.17
831.55	27752.02
831.72	27551.32
831.90	27549.28
832.08	27565.66
832.25	27356.77
832.43	27244.13
832.61	27444.83
832.79	26938.98
832.96	27477.60
833.14	27221.60
833.32	27229.79
833.50	27483.74
833.67	27512.41
833.85	27166.31
834.03	27108.96
834.20	27270.75
834.38	27252.32
834.56	27184.74
834.74	26789.48
834.91	27000.42
835.09	26941.03
835.27	26797.67
835.44	26748.52
835.62	26547.82
835.80	26617.45
835.98	26441.32
836.15	26855.01
836.33	26625.64
836.51	26599.02
836.68	26728.04
836.86	26560.11
837.04	26580.59
837.21	26289.77
837.39	26502.76
837.57	26478.19
837.75	26367.60
837.92	26127.99
838.10	26218.10
838.28	25775.73
838.45	25982.58
838.63	26033.78
838.81	26232.43
838.98	25857.65
839.16	26041.97
839.34	25980.53
839.51	25706.10
839.69	25532.03
839.87	25654.90
840.04	25624.18
840.22	25904.76
840.40	25683.58
840.57	25595.51
840.75	25669.24
840.93	25374.33
841.10	25583.23
841.28	25742.97
841.46	25607.80
841.63	25718.39
841.81	25611.90
841.98	25374.33
842.16	25759.35
842.34	25247.36
842.51	25077.38
842.69	25517.69
842.87	25366.14
843.04	25339.52
843.22	24856.20
843.40	25052.80
843.57	25147.01
843.75	25024.13
843.92	24995.46
844.10	24981.12
844.28	25228.93
844.45	25091.71
844.63	25169.54
844.81	24753.80
844.98	24852.10
845.16	24903.30
845.33	24860.29
845.51	24833.67
845.69	24667.78
845.86	24647.30
846.04	24344.20
846.21	24401.55
846.39	24315.53
846.57	24350.35
846.74	24663.69
846.92	24567.43
847.09	24069.78
847.27	23961.23
847.45	24305.29
847.62	24305.29
847.80	24405.64
847.97	24471.18
848.15	24016.53
848.32	24250.00
848.50	23959.19
848.68	24028.82
848.85	24041.11
849.03	23848.60
849.20	24084.11
849.38	23500.44
849.56	24012.43
849.73	23649.94
849.91	24112.78
850.08	24061.58
850.26	23529.11
850.43	23432.86
850.61	23748.25
850.78	23238.30
850.96	23447.19
851.14	23305.88
851.31	23535.26
851.49	23393.95
851.66	23527.06
851.84	23633.56
852.01	23629.46
852.19	23533.21
852.36	23273.12
852.54	23348.89
852.71	23029.41
852.89	23246.49
853.07	23355.04
853.24	23393.95
853.42	23223.97
853.59	23142.05
853.77	23160.48
853.94	23391.90
854.12	23473.82
854.29	22859.43
854.47	22912.67
854.64	22982.31
854.82	22789.80
854.99	22951.59
855.17	22828.71
855.34	22705.83
855.52	22644.39
855.69	22732.45
855.87	22595.24
856.04	22656.68
856.22	22509.22
856.39	22748.84
856.57	22566.57
856.74	22349.48
856.92	22439.59
857.09	22433.45
857.27	22490.79
857.44	22378.15
857.62	22478.50
857.79	22476.46
857.97	22339.24
858.14	22234.80
858.32	22298.28
858.49	22023.86
858.67	22566.57
858.84	22296.24
859.02	21862.07
859.19	21878.45
859.37	22111.92
859.54	21862.07
859.72	21960.37
859.89	22222.51
860.06	21900.98
860.24	21937.84
860.41	22046.38
860.59	21720.76
860.76	21927.60
860.94	21415.61
861.11	21821.11
861.29	21753.52
861.46	21741.24
861.64	21466.81
861.81	21470.90
861.98	21456.57
862.16	21397.18
862.33	21468.86
862.51	21305.02
862.68	21380.79
862.86	21315.26
863.03	21331.64
863.21	21223.10
863.38	21403.32
863.55	21208.76
863.73	21204.67
863.90	21171.90
864.08	21294.78
864.25	20844.23
864.43	20973.25
864.60	20879.04
864.77	20924.10
864.95	20829.89
865.12	20698.82
865.30	20997.82
865.47	20532.93
865.64	20752.07
865.82	20670.15
865.99	20833.99
866.17	20885.19
866.34	20846.27
866.51	20573.89
866.69	20809.41
866.86	20807.36
867.04	20840.13
867.21	20373.19
867.38	20508.36
867.56	20385.48
867.73	20229.84
867.91	20205.26
868.08	20285.13
868.25	20328.14
868.43	20096.72
868.60	19994.32
868.78	19951.31
868.95	20317.90
869.12	19896.02
869.30	19807.95
869.47	20297.42
869.64	20037.33
869.82	19969.74
869.99	19971.79
870.16	19781.33
870.34	19889.87
870.51	20137.68
870.69	19828.43
870.86	20000.46
871.03	20045.52
871.21	19842.77
871.38	19893.97
871.55	19449.56
871.73	19640.02
871.90	19562.20
872.07	19443.42
872.25	19298.01
872.42	19322.59
872.59	19465.94
872.77	19265.24
872.94	19230.43
873.11	19617.49
873.29	19439.32
873.46	19195.61
873.63	19330.78
873.81	19394.26
873.98	18874.08
874.15	19056.35
874.33	18822.88
874.50	18826.98
874.67	19005.15
874.85	18859.74
875.02	18745.06
875.19	18605.80
875.37	18620.13
875.54	18564.84
875.71	18368.23
875.88	18777.83
876.06	18802.40
876.23	18345.70
876.40	18396.90
876.58	18509.54
876.75	18235.11
876.92	18302.70
877.10	18378.47
877.27	18214.63
877.44	18036.46
877.61	17993.45
877.79	18265.83
877.96	18269.93
878.13	18011.89
878.31	17876.72
878.48	17878.77
878.65	18149.10
878.82	17745.65
879.00	17964.78
879.17	17780.46
879.34	18142.96
879.51	17706.74
879.69	17600.24
879.86	17817.33
880.03	17708.79
880.21	17448.69
880.38	17647.35
880.55	17723.12
880.72	17426.17
880.90	17370.87
881.07	17403.64
881.24	17405.69
881.41	17463.03
881.59	17370.87
881.76	17391.35
881.93	17278.71
882.10	17166.07
882.28	17198.84
882.45	17041.15
882.62	17211.13
882.79	17522.42
882.96	16881.41
883.14	17127.16
883.31	17121.02
883.48	16926.46
883.65	17075.96
883.83	17288.95
884.00	17114.87
884.17	17071.87
884.34	17084.16
884.51	16822.02
884.69	16813.82
884.86	16854.78
885.03	16953.09
885.20	16545.54
885.38	16774.91
885.55	16922.37
885.72	16797.44
885.89	16590.59
886.06	16850.69
886.24	16480.00
886.41	16766.72
886.58	16770.82
886.75	16717.57
886.92	16516.87
887.10	16502.53
887.27	16418.57
887.44	16381.70
887.61	16559.88
887.78	16576.26
887.95	16555.78
888.13	16453.38
888.30	16402.18
888.47	16111.37
888.64	16555.78
888.81	16410.37
888.99	16387.85
889.16	16123.66
889.33	16174.86
889.50	16041.74
889.67	15982.35
889.84	15755.02
890.01	15978.25
890.19	16039.69
890.36	16051.98
890.53	16008.97
890.70	16135.95
890.87	15687.44
891.04	15810.32
891.22	15900.43
891.39	15875.85
891.56	15640.34
891.73	15838.99
891.90	15486.74
892.07	15722.26
892.24	15781.65
892.42	15785.74
892.59	15597.33
892.76	15539.99
892.93	15353.62
893.10	15576.85
893.27	15511.32
893.44	15494.93
893.61	15486.74
893.79	15752.98
893.96	15370.01
894.13	15671.06
894.30	15449.88
894.47	15419.16
894.64	15562.51
894.81	15421.20
894.98	15509.27
895.15	15482.64
895.33	15503.12
895.50	15419.16
895.67	15496.98
895.84	15546.13
896.01	15345.43
896.18	15302.42
896.35	15525.65
896.52	15392.53
896.69	15157.02
896.86	15255.32
897.04	15238.94
897.21	15179.54
897.38	15058.71
897.55	15150.87
897.72	15261.46
897.89	15169.30
898.06	15255.32
898.23	15339.29
898.40	15206.17
898.57	15419.16
898.74	15357.72
898.91	15040.28
899.08	15154.97
899.26	15202.07
899.43	15343.38
899.60	15025.95
899.77	15255.32
899.94	15109.91
900.11	14839.58
900.28	15097.63
900.45	15071.00
900.62	15015.71
900.79	15240.98
900.96	15249.18
901.13	14962.46
901.30	14948.12
901.47	14831.39
901.64	15005.47
901.81	15218.46
901.98	14982.94
902.15	15124.25
902.32	15027.99
902.49	15234.84
902.66	14888.73
902.83	15132.44
903.01	15011.61
903.18	15103.77
903.35	15167.26
903.52	14763.81
903.69	15202.07
903.86	15179.54
904.03	15052.57
904.20	15204.12
904.37	15116.06
904.54	14860.06
904.71	14802.72
904.88	14999.32
905.05	14802.72
905.22	14896.92
905.39	14841.63
905.56	15107.87
905.73	14819.10
905.90	15265.56
906.07	15003.42
906.24	14657.31
906.41	15042.33
906.58	15023.90
906.75	14866.21
906.92	14829.34
907.09	15081.24
907.26	14962.46
907.43	14528.29
907.60	14958.36
907.77	14819.10
907.93	14794.53
908.10	14812.96
908.27	14870.30
908.44	14804.77
908.61	14604.07
908.78	14667.55
908.95	14835.49
909.12	14655.26
909.29	14788.38
909.46	14561.06
909.63	14698.27
909.80	14735.14
909.97	14894.88
910.14	14571.30
910.31	14710.56
910.48	14864.16
910.65	14745.38
910.82	14704.42
910.99	14544.67
911.16	14669.60
911.33	14497.57
911.50	14571.30
911.66	14714.66
911.83	14767.90
912.00	14577.44
912.17	14227.24
912.34	14679.84
912.51	14370.60
912.68	14298.92
912.85	14565.15
913.02	14522.15
913.19	14413.60
913.36	14300.97
913.53	14296.87
913.70	14190.38
913.86	14313.25
914.03	14296.87
914.20	14413.60
914.37	14249.77
914.54	14120.74
914.71	14229.29
914.88	14098.22
915.05	14231.33
915.22	14260.01
915.39	14087.98
915.55	13881.13
915.72	13946.67
915.89	13915.95
916.06	13844.27
916.23	13856.56
916.40	13784.88
916.57	13686.58
916.74	13569.84
916.91	13446.96
917.07	13492.02
917.24	13780.78
917.41	13528.88
917.58	13547.31
917.75	13727.53
917.92	13467.44
918.09	13545.27
918.26	13608.75
918.42	13240.12
918.59	13502.26
918.76	13182.77
918.93	13115.19
919.10	13006.65
919.27	13236.02
919.44	13219.64
919.60	13076.28
919.77	13078.33
919.94	13086.52
920.11	13043.51
920.28	13020.99
920.45	12869.44
920.61	12834.62
920.78	12793.66
920.95	12910.40
921.12	12955.45
921.29	12818.24
921.46	12609.34
921.62	12611.39
921.79	12799.80
921.96	12590.91
922.13	12689.21
922.30	12384.07
922.47	12336.96
922.63	12361.54
922.80	12375.88
922.97	12416.83
923.14	12111.69
923.31	12367.68
923.47	12007.24
923.64	12232.52
923.81	12068.68
923.98	12019.53
924.15	11876.17
924.32	11999.05
924.48	11763.53
924.65	11917.13
924.82	11976.52
924.99	11775.82
925.15	11657.04
925.32	11816.78
925.49	11640.65
925.66	11458.39
925.83	11501.39
925.99	11616.08
926.16	11540.30
926.33	11560.78
926.50	11321.17
926.67	11216.72
926.83	11321.17
927.00	11243.35
927.17	11235.16
927.34	11081.56
927.50	11104.09
927.67	11071.32
927.84	11206.48
928.01	11118.42
928.17	10878.81
928.34	10952.54
928.51	11016.02
928.68	10749.79
928.84	10807.13
929.01	10682.20
929.18	10569.57
929.35	10688.35
929.51	10608.48
929.68	10475.36
929.85	10418.02
930.02	10465.12
930.18	10409.83
930.35	10454.88
930.52	10436.45
930.69	10209.12
930.85	10350.43
931.02	10202.98
931.19	10131.30
931.36	10041.19
931.52	10174.31
931.69	10293.09
931.86	9965.42
932.02	10028.90
932.19	10047.33
932.36	10010.47
932.53	9928.55
932.69	9738.09
932.86	9817.96
933.03	9627.50
933.19	9580.40
933.36	9531.25
933.53	9604.97
933.70	9398.13
933.86	9611.12
934.03	9379.70
934.20	9174.90
934.36	9303.92
934.53	9164.66
934.70	8935.29
934.86	9234.29
935.03	8865.66
935.20	8845.18
935.36	8789.88
935.53	8830.84
935.70	8685.44
935.86	8820.60
936.03	8480.64
936.20	8550.27
936.36	8474.49
936.53	8513.41
936.70	8284.03
936.86	8519.55
937.03	8316.80
937.20	8144.77
937.36	7925.64
937.53	7835.53
937.70	7968.65
937.86	7769.99
938.03	8005.51
938.20	7751.56
938.36	7446.41
938.53	7524.24
938.70	7407.50
938.86	7597.96
939.03	7356.30
939.20	7202.71
939.36	7137.17
939.53	7204.75
939.70	7133.08
939.86	6930.33
940.03	6864.79
940.19	6819.74
940.36	6680.47
940.53	6774.68
940.69	6549.40
940.86	6541.21
941.03	6547.36
941.19	6451.10
941.36	6395.81
941.52	6262.69
941.69	6281.12
941.86	6201.25
942.02	6152.10
942.19	6002.60
942.35	6070.18
942.52	5984.16
942.69	5957.54
942.85	5875.62
943.02	5674.92
943.18	5879.72
943.35	5625.77
943.52	5799.85
943.68	5740.46
943.85	5599.15
944.01	5636.01
944.18	5515.18
944.35	5566.38
944.51	5470.12
944.68	5431.21
944.84	5447.60
945.01	5396.40
945.17	5337.01
945.34	5400.49
945.51	5400.49
945.67	5287.86
945.84	5439.40
946.00	5257.14
946.17	5369.77
946.33	5189.55
946.50	5320.62
946.67	5193.65
946.83	5175.22
947.00	5326.77
947.16	5246.90
947.33	5375.92
947.49	5169.07
947.66	5183.41
947.82	5349.29
947.99	5162.93
948.16	5269.42
948.32	5259.18
948.49	5287.86
948.65	5271.47
948.82	5289.90
948.98	5205.94
949.15	5181.36
949.31	5195.70
949.48	5369.77
949.64	5232.56
949.81	5216.18
949.97	5185.46
950.14	5279.66
950.30	5087.15
950.47	5267.38
950.63	5191.60
950.80	5367.73
950.96	5310.38
951.13	5255.09
951.30	5279.66
951.46	5283.76
951.63	5283.76
951.79	5281.71
951.96	5349.29
952.12	5384.11
952.29	5416.88
952.45	5414.83
952.62	5306.29
952.78	5275.57
952.94	5435.31
953.11	5390.25
953.27	5326.77
953.44	5359.53
953.60	5449.64
953.77	5367.73
953.93	5418.93
954.10	5380.01
954.26	5453.74
954.43	5240.75
954.59	5420.97
954.76	5552.04
954.92	5455.79
955.09	5506.99
955.25	5259.18
955.42	5380.01
955.58	5480.36
955.75	5337.01
955.91	5386.16
956.07	5427.12
956.24	5470.12
956.40	5435.31
956.57	5343.15
956.73	5425.07
956.90	5496.75
957.06	5353.39
957.23	5392.30
957.39	5347.25
957.56	5461.93
957.72	5337.01
957.88	5261.23
958.05	5521.32
958.21	5523.37
958.38	5398.45
958.54	5316.53
958.71	5484.46
958.87	5488.56
959.03	5410.73
959.20	5427.12
959.36	5420.97
959.53	5414.83
959.69	5250.99
959.85	5541.80
960.02	5287.86
960.18	5506.99
960.35	5347.25
960.51	5433.26
960.68	5296.05
960.84	5363.63
961.00	5314.48
961.17	5367.73
961.33	5531.56
961.50	5431.21
961.66	5447.60
961.82	5500.84
961.99	5431.21
962.15	5449.64
962.31	5369.77
962.48	5330.86
962.64	5416.88
962.81	5380.01
962.97	5277.62
963.13	5574.57
963.30	5386.16
963.46	5298.10
963.62	5343.15
963.79	5398.45
963.95	5205.94
964.12	5312.43
964.28	5355.44
964.44	5312.43
964.61	5488.56
964.77	5445.55
964.93	5433.26
965.10	5406.64
965.26	5318.57
965.42	5154.74
965.59	5369.77
965.75	5361.58
965.92	5255.09
966.08	5337.01
966.24	5238.70
966.41	5273.52
966.57	5377.97
966.73	5263.28
966.90	5384.11
967.06	5320.62
967.22	5199.79
967.39	5179.31
967.55	5136.31
967.71	5294.00
967.88	5236.66
968.04	4951.99
968.20	5171.12
968.37	5099.44
968.53	5029.81
968.69	5150.64
968.85	5289.90
969.02	5169.07
969.18	5146.55
969.34	5062.58
969.51	5150.64
969.67	5218.22
969.83	4956.08
970.00	5158.83
970.16	5058.48
970.32	5169.07
970.48	5234.61
970.65	5115.83
970.81	5038.00
970.97	4896.69
971.14	4964.28
971.30	5111.73
971.46	4941.75
971.63	4960.18
971.79	4884.41
971.95	4931.51
972.11	4859.83
972.28	5078.96
972.44	4941.75
972.60	4892.60
972.76	4937.65
972.93	4812.73
973.09	4874.17
973.25	4960.18
973.42	4917.17
973.58	5025.72
973.74	4919.22
973.90	4913.08
974.07	4757.43
974.23	4870.07
974.39	4951.99
974.55	4878.26
974.72	4870.07
974.88	4595.64
975.04	4773.82
975.20	4724.66
975.37	4759.48
975.53	4818.87
975.69	4839.35
975.85	4765.62
976.01	4724.66
976.18	4734.90
976.34	4591.55
976.50	4681.66
976.66	4765.62
976.83	4607.93
976.99	4564.92
977.15	4612.03
977.31	4534.20
977.47	4700.09
977.64	4579.26
977.80	4560.83
977.96	4595.64
978.12	4591.55
978.29	4456.38
978.45	4556.73
978.61	4640.70
978.77	4618.17
978.93	4409.28
979.10	4517.82
979.26	4423.61
979.42	4423.61
979.58	4489.15
979.74	4407.23
979.91	4589.50
980.07	4435.90
980.23	4425.66
980.39	4382.65
980.55	4394.94
980.71	4401.08
980.88	4462.52
981.04	4491.20
981.20	4329.41
981.36	4343.74
981.52	4491.20
981.68	4333.50
981.85	4368.32
982.01	4353.98
982.17	4351.93
982.33	4444.09
982.49	4267.97
982.65	4364.22
982.82	4343.74
982.98	4206.53
983.14	4310.97
983.30	4200.38
983.46	4407.23
983.62	4255.68
983.79	4265.92
983.95	4259.78
984.11	4001.73
984.27	4315.07
984.43	4171.71
984.59	4143.04
984.75	4263.87
984.91	4235.20
985.08	4136.90
985.24	4192.19
985.40	4085.70
985.56	4153.28
985.72	4231.10
985.88	4204.48
986.04	4167.62
986.20	3999.68
986.37	4069.31
986.53	4102.08
986.69	4048.83
986.85	4057.03
987.01	4130.75
987.17	4034.50
987.33	4097.99
987.49	3925.96
987.65	3999.68
987.82	4054.98
987.98	3928.00
988.14	3981.25
988.30	3987.40
988.46	3987.40
988.62	3997.64
988.78	3862.47
988.94	3905.48
989.10	3796.93
989.26	3798.98
989.42	3827.65
989.59	3819.46
989.75	3780.55
989.91	3921.86
990.07	3764.17
990.23	3780.55
990.39	3803.08
990.55	3805.13
990.71	3696.58
990.87	3817.41
991.03	3745.73
991.19	3792.84
991.35	3712.97
991.51	3809.22
991.67	3841.99
991.83	3643.34
992.00	3739.59
992.16	3700.68
992.32	3780.55
992.48	3682.25
992.64	3731.40
992.80	3563.47
992.96	3762.12
993.12	3704.78
993.28	3643.34
993.44	3637.19
993.60	3692.49
993.76	3629.00
993.92	3706.82
994.08	3592.14
994.24	3733.45
994.40	3610.57
994.56	3616.71
994.72	3538.89
994.88	3706.82
995.04	3631.05
995.20	3528.65
995.36	3469.26
995.52	3600.33
995.68	3493.83
995.84	3573.71
996.00	3647.43
996.16	3358.67
996.32	3516.36
996.48	3481.55
996.64	3598.28
996.80	3545.03
996.96	3510.22
997.12	3454.92
997.28	3428.30
997.44	3350.48
997.60	3430.35
997.76	3432.40
997.92	3559.37
998.08	3502.03
998.24	3332.05
998.40	3442.64
998.56	3504.07
998.72	3313.61
998.88	3264.46
999.04	3252.17
999.20	3364.81
999.36	3291.09
999.52	3436.49
999.68	3250.13
999.84	3276.75
1000.00	3276.75
1000.16	3354.57
1000.32	3241.93
1000.48	3399.63
1000.64	3211.22
1000.80	3168.21
1000.95	3131.34
1001.11	3311.57
1001.27	3260.37
1001.43	3162.06
1001.59	3207.12
1001.75	3145.68
1001.91	3233.74
1002.07	3190.74
1002.23	3166.16
1002.39	3166.16
1002.55	3176.40
1002.71	3108.82
1002.87	3248.08
1003.03	3076.05
1003.19	3076.05
1003.34	3172.30
1003.50	3100.62
1003.66	3198.93
1003.82	3131.34
1003.98	3059.67
1004.14	2963.41
1004.30	3037.14
1004.46	3100.62
1004.62	3080.14
1004.78	2963.41
1004.94	2969.55
1005.09	3057.62
1005.25	3108.82
1005.41	2957.27
1005.57	3030.99
1005.73	2994.13
1005.89	3043.28
1006.05	2990.03
1006.21	2947.03
1006.37	2854.87
1006.52	2897.88
1006.68	2906.07
1006.84	3047.38
1007.00	2928.60
1007.16	3000.27
1007.32	2879.44
1007.48	2926.55
1007.64	2977.75
1007.79	3026.90
1007.95	2840.53
1008.11	2887.64
1008.27	2871.25
1008.43	2787.29
1008.59	2928.60
1008.75	2932.69
1008.91	2842.58
1009.06	2820.05
1009.22	2871.25
1009.38	2750.42
1009.54	2752.47
1009.70	2797.53
1009.86	2838.48
1010.01	2793.43
1010.17	2781.14
1010.33	2789.33
1010.49	2764.76
1010.65	2834.39
1010.81	2809.81
1010.96	2777.05
1011.12	2639.83
1011.28	2723.80
1011.44	2731.99
1011.60	2686.94
1011.76	2719.70
1011.91	2775.00
1012.07	2625.50
1012.23	2711.51
1012.39	2668.50
1012.55	2695.13
1012.71	2605.02
1012.86	2607.06
1013.02	2682.84
1013.18	2641.88
1013.34	2727.89
1013.50	2709.46
1013.65	2719.70
1013.81	2545.63
1013.97	2492.38
1014.13	2580.44
1014.29	2664.41
1014.44	2676.70
1014.60	2631.64
1014.76	2654.17
1014.92	2559.96
1015.07	2607.06
1015.23	2598.87
1015.39	2459.61
1015.55	2578.39
1015.71	2592.73
1015.86	2500.57
1016.02	2494.43
1016.18	2500.57
1016.34	2541.53
1016.49	2523.10
1016.65	2611.16
1016.81	2562.01
1016.97	2514.91
1017.12	2525.15
1017.28	2398.17
1017.44	2451.42
1017.60	2478.04
1017.75	2439.13
1017.91	2432.99
1018.07	2426.84
1018.23	2459.61
1018.38	2447.32
1018.54	2514.91
1018.70	2410.46
1018.86	2478.04
1019.01	2435.03
1019.17	2428.89
1019.33	2471.90
1019.49	2445.27
1019.64	2504.67
1019.80	2467.80
1019.96	2461.66
1020.12	2400.22
1020.27	2301.92
1020.43	2351.07
1020.59	2396.12
1020.74	2424.80
1020.90	2435.03
1021.06	2355.16
1021.22	2379.74
1021.37	2432.99
1021.53	2258.91
1021.69	2344.92
1021.84	2285.53
1022.00	2287.58
1022.16	2263.01
1022.31	2412.51
1022.47	2396.12
1022.63	2359.26
1022.79	2232.29
1022.94	2170.85
1023.10	2410.46
1023.26	2222.05
1023.41	2254.81
1023.57	2314.20
1023.73	2334.68
1023.88	2238.43
1024.04	2320.35
1024.20	2234.33
1024.35	2316.25
1024.51	2285.53
1024.67	2334.68
1024.82	2273.25
1024.98	2205.66
1025.14	2234.33
1025.29	2166.75
1025.45	2232.29
1025.61	2150.37
1025.76	2228.19
1025.92	2217.95
1026.08	2166.75
1026.23	2242.53
1026.39	2260.96
1026.55	2250.72
1026.70	2146.27
1026.86	2172.89
1027.02	2306.01
1027.17	2285.53
1027.33	2183.13
1027.48	2148.32
1027.64	2109.41
1027.80	2101.22
1027.95	2181.09
1028.11	2164.70
1028.27	2185.18
1028.42	2189.28
1028.58	2119.65
1028.73	2084.83
1028.89	2029.54
1029.05	2224.09
1029.20	2215.90
>>>>>End Processed Spectral Data<<<<<
