SpectraSuite Data File
++++++++++++++++++++++++++++++++++++
Date: Fri Jun 02 14:53:32 CEST 2017
User: INFO_000
Dark Spectrum Present: No
Reference Spectrum Present: No
Number of Sampled Component Spectra: 1
Spectrometers: USB4H00879
Integration Time (usec): 80000 (USB4H00879)
Spectra Averaged: 1 (USB4H00879)
Boxcar Smoothing: 0 (USB4H00879)
Correct for Electrical Dark: No (USB4H00879)
Strobe/Lamp Enabled: No (USB4H00879)
Correct for Detector Non-linearity: No (USB4H00879)
Correct for Stray Light: No (USB4H00879)
Number of Pixels in Processed Spectrum: 3648
>>>>>Begin Processed Spectral Data<<<<<
345.13	1282.03
345.34	1282.03
345.56	1282.03
345.78	1259.50
345.99	1349.61
346.21	1779.68
346.42	1736.68
346.64	1691.62
346.86	1832.93
347.07	1642.47
347.29	1728.49
347.50	1613.80
347.72	1626.09
347.94	1712.10
348.15	1644.52
348.37	1609.70
348.59	1685.48
348.80	1593.32
349.02	1822.69
349.23	1886.18
349.45	1861.60
349.67	1857.51
349.88	1918.95
350.10	1976.29
350.31	1898.47
350.53	1837.03
350.75	2031.58
350.96	1775.59
351.18	1884.13
351.39	1820.64
351.61	1757.16
351.82	1898.47
352.04	1925.09
352.26	1808.36
352.47	1933.28
352.69	1920.99
352.90	1773.54
353.12	1816.55
353.34	1834.98
353.55	1871.84
353.77	1857.51
353.98	1804.26
354.20	1812.45
354.41	1863.65
354.63	1937.38
354.85	2021.35
355.06	1949.67
355.28	1789.92
355.49	1894.37
355.71	1857.51
355.92	1865.70
356.14	1857.51
356.35	1888.23
356.57	1828.84
356.79	1880.04
357.00	1959.91
357.22	1953.76
357.43	1855.46
357.65	2002.91
357.86	1847.27
358.08	1841.12
358.29	1923.04
358.51	2037.73
358.72	2023.39
358.94	1912.80
359.16	1943.52
359.37	1978.34
359.59	2009.06
359.80	2064.35
360.02	1929.19
360.23	1933.28
360.45	2041.82
360.66	1882.08
360.88	1855.46
361.09	1941.47
361.31	1920.99
361.52	1900.52
361.74	1998.82
361.95	2127.84
362.17	1931.23
362.38	2058.21
362.60	2068.45
362.81	1976.29
363.03	1929.19
363.24	2050.02
363.46	2103.26
363.67	2019.30
363.89	1966.05
364.10	2078.69
364.32	2017.25
364.53	2050.02
364.75	1961.95
364.96	2015.20
365.18	2068.45
365.39	1984.48
365.61	1918.95
365.82	2250.72
366.04	2027.49
366.25	1957.86
366.47	2068.45
366.68	2000.87
366.90	1988.58
367.11	2117.60
367.33	2195.42
367.54	2101.22
367.76	1912.80
367.97	2080.74
368.19	1994.72
368.40	2093.02
368.62	1945.57
368.83	2041.82
369.05	2099.17
369.26	2072.54
369.48	1990.63
369.69	2054.11
369.91	2050.02
370.12	2002.91
370.33	2099.17
370.55	1951.71
370.76	2023.39
370.98	2199.52
371.19	2060.26
371.41	2090.98
371.62	2011.11
371.84	1998.82
372.05	2273.25
372.27	2019.30
372.48	2088.93
372.69	2060.26
372.91	2127.84
373.12	2111.46
373.34	2047.97
373.55	2191.33
373.77	2254.81
373.98	2070.50
374.20	2228.19
374.41	2287.58
374.62	2201.57
374.84	2162.66
375.05	2150.37
375.27	2133.98
375.48	2199.52
375.70	2222.05
375.91	2209.76
376.12	2273.25
376.34	2220.00
376.55	2113.50
376.77	2242.53
376.98	2140.13
377.19	2125.79
377.41	2131.94
377.62	2179.04
377.84	2281.44
378.05	2402.27
378.27	2211.81
378.48	2267.10
378.69	2359.26
378.91	2291.68
379.12	2226.14
379.34	2267.10
379.55	2306.01
379.76	2283.49
379.98	2281.44
380.19	2258.91
380.41	2301.92
380.62	2422.75
380.83	2263.01
381.05	2224.09
381.26	2484.19
381.47	2226.14
381.69	2195.42
381.90	2432.99
382.12	2328.54
382.33	2291.68
382.54	2277.34
382.76	2367.45
382.97	2289.63
383.19	2226.14
383.40	2379.74
383.61	2324.44
383.83	2199.52
384.04	2353.12
384.25	2398.17
384.47	2371.55
384.68	2396.12
384.89	2346.97
385.11	2303.96
385.32	2318.30
385.54	2312.16
385.75	2359.26
385.96	2467.80
386.18	2373.60
386.39	2381.79
386.60	2365.40
386.82	2396.12
387.03	2494.43
387.24	2531.29
387.46	2416.60
387.67	2574.30
387.88	2592.73
388.10	2492.38
388.31	2375.64
388.52	2547.67
388.74	2447.32
388.95	2547.67
389.16	2453.47
389.38	2533.34
389.59	2588.63
389.80	2576.34
390.02	2598.87
390.23	2633.69
390.44	2609.11
390.66	2568.15
390.87	2519.00
391.08	2568.15
391.30	2709.46
391.51	2697.17
391.72	2660.31
391.94	2678.74
392.15	2623.45
392.36	2699.22
392.58	2547.67
392.79	2738.13
393.00	2650.07
393.22	2783.19
393.43	2738.13
393.64	2760.66
393.85	2848.72
394.07	2691.03
394.28	2674.65
394.49	2822.10
394.71	2801.62
394.92	2846.68
395.13	2639.83
395.35	2592.73
395.56	2727.89
395.77	2815.96
395.98	2834.39
396.20	2940.88
396.41	2904.02
396.62	2848.72
396.84	2877.40
397.05	2895.83
397.26	2881.49
397.47	2992.08
397.69	2906.07
397.90	2998.23
398.11	2926.55
398.32	2838.48
398.54	2914.26
398.75	2861.01
398.96	2965.46
399.18	3057.62
399.39	2953.17
399.60	3092.43
399.81	2957.27
400.03	2940.88
400.24	3209.17
400.45	2959.31
400.66	3076.05
400.88	3088.34
401.09	3215.31
401.30	3155.92
401.51	3139.54
401.73	3119.06
401.94	3205.07
402.15	3229.65
402.36	3141.58
402.58	3188.69
402.79	3246.03
403.00	3272.65
403.21	3266.51
403.43	3194.83
403.64	3289.04
403.85	3225.55
404.06	3145.68
404.27	3057.62
404.49	3100.62
404.70	3215.31
404.91	3334.09
405.12	3432.40
405.34	3317.71
405.55	3434.44
405.76	3196.88
405.97	3297.23
406.19	3387.34
406.40	3321.81
406.61	3313.61
406.82	3399.63
407.03	3217.36
407.25	3262.41
407.46	3354.57
407.67	3416.01
407.88	3508.17
408.09	3432.40
408.31	3342.28
408.52	3520.46
408.73	3393.48
408.94	3305.42
409.15	3450.83
409.37	3504.07
409.58	3631.05
409.79	3573.71
410.00	3581.90
410.21	3444.68
410.43	3530.70
410.64	3508.17
410.85	3520.46
411.06	3547.08
411.27	3667.91
411.48	3633.10
411.70	3524.55
411.91	3682.25
412.12	3770.31
412.33	3581.90
412.54	3540.94
412.76	3669.96
412.97	3710.92
413.18	3579.85
413.39	3647.43
413.60	3856.33
413.81	3782.60
414.03	3755.97
414.24	3727.30
414.45	3829.70
414.66	3604.42
414.87	3753.93
415.08	3717.06
415.30	3725.26
415.51	3805.13
415.72	3835.85
415.93	3858.37
416.14	3880.90
416.35	3930.05
416.56	3807.17
416.78	3878.85
416.99	3893.19
417.20	3966.92
417.41	3891.14
417.62	3911.62
417.83	3911.62
418.04	3852.23
418.26	3960.77
418.47	3919.81
418.68	3975.11
418.89	4018.11
419.10	4110.27
419.31	4011.97
419.52	4011.97
419.73	3987.40
419.95	3958.72
420.16	3960.77
420.37	4132.80
420.58	4110.27
420.79	4003.78
421.00	4032.45
421.21	4167.62
421.42	4052.93
421.63	4149.18
421.85	4059.07
422.06	4116.42
422.27	4218.82
422.48	4151.23
422.69	4118.47
422.90	4267.97
423.11	4288.45
423.32	4444.09
423.53	4366.27
423.75	4304.83
423.96	4442.04
424.17	4353.98
424.38	4517.82
424.59	4349.89
424.80	4591.55
425.01	4450.24
425.22	4632.51
425.43	4454.33
425.64	4806.58
425.85	4739.00
426.06	4571.07
426.28	4695.99
426.49	4384.70
426.70	4626.36
426.91	4489.15
427.12	4544.44
427.33	4753.34
427.54	4755.38
427.75	4607.93
427.96	4892.60
428.17	4853.69
428.38	4845.49
428.59	4911.03
428.80	4726.71
429.01	4681.66
429.23	4741.05
429.44	5066.67
429.65	4931.51
429.86	4984.76
430.07	4884.41
430.28	4929.46
430.49	5068.72
430.70	5068.72
430.91	5019.57
431.12	4939.70
431.33	5296.05
431.54	5115.83
431.75	5066.67
431.96	5048.24
432.17	5078.96
432.38	5097.39
432.59	5506.99
432.80	5345.20
433.01	5265.33
433.22	5357.49
433.43	5273.52
433.64	5273.52
433.85	5287.86
434.06	5404.59
434.27	5201.84
434.49	5369.77
434.70	5451.69
434.91	5466.03
435.12	5377.97
435.33	5414.83
435.54	5525.42
435.75	5388.21
435.96	5441.45
436.17	5408.69
436.38	5713.83
436.59	5517.23
436.80	5623.72
437.01	5711.78
437.22	5709.74
437.43	5615.53
437.64	5478.32
437.85	5900.20
438.06	5797.80
438.27	5633.96
438.48	5617.58
438.69	5904.29
438.90	5844.90
439.11	5726.12
439.32	5816.23
439.53	5820.33
439.74	5939.11
439.95	6102.95
440.16	5984.16
440.37	5836.71
440.57	5822.38
440.78	6074.28
440.99	6154.15
441.20	6035.36
441.41	5971.88
441.62	5887.91
441.83	6008.74
442.04	6127.52
442.25	6092.71
442.46	6021.03
442.67	6143.91
442.88	6479.77
443.09	6104.99
443.30	6133.67
443.51	6102.95
443.72	6406.05
443.93	6248.35
444.14	6401.95
444.35	6266.78
444.56	6436.77
444.77	6369.18
444.98	6322.08
445.19	6492.06
445.40	6401.95
445.61	6373.28
445.81	6600.60
446.02	6528.92
446.23	6481.82
446.44	6477.73
446.65	6455.20
446.86	6492.06
447.07	6598.56
447.28	6819.74
447.49	6746.01
447.70	6512.54
447.91	6778.78
448.12	6797.21
448.33	6903.70
448.54	6809.50
448.74	6754.20
448.95	6786.97
449.16	6786.97
449.37	7047.06
449.58	6899.61
449.79	7092.12
450.00	6746.01
450.21	6959.00
450.42	7051.16
450.63	7137.17
450.84	7073.68
451.05	7161.75
451.25	6944.66
451.46	7051.16
451.67	7096.21
451.88	7317.39
452.09	7337.87
452.30	7047.06
452.51	7307.15
452.72	7360.40
452.93	7772.04
453.13	7245.71
453.34	7301.01
453.55	7436.17
453.76	7464.85
453.97	7645.07
454.18	7532.43
454.39	7651.21
454.60	7518.09
454.81	7753.61
455.01	7776.14
455.22	7536.52
455.43	7671.69
455.64	8015.75
455.85	7907.21
456.06	7952.26
456.27	7772.04
456.48	7835.53
456.68	7952.26
456.89	7933.83
457.10	8099.72
457.31	8089.48
457.52	8103.81
457.73	8150.92
457.94	8259.46
458.14	8157.06
458.35	8615.80
458.56	8361.86
458.77	8345.47
458.98	8370.05
459.19	8505.21
459.39	8560.51
459.60	8503.17
459.81	8370.05
460.02	8816.51
460.23	8775.55
460.44	8916.86
460.65	8865.66
460.85	9002.87
461.06	8730.49
461.27	8638.33
461.48	9088.89
461.69	9156.47
461.89	8667.00
462.10	9203.57
462.31	9078.65
462.52	8961.91
462.73	9086.84
462.94	9410.42
463.14	9267.06
463.35	9279.35
463.56	9650.03
463.77	9533.29
463.98	9340.79
464.18	9459.57
464.39	9750.38
464.60	9787.24
464.81	9809.77
465.02	9686.89
465.23	9852.78
465.43	9744.24
465.64	10086.25
465.85	9895.78
466.06	9791.34
466.27	10190.69
466.47	10180.45
466.68	10297.19
466.89	10168.16
467.10	10332.00
467.30	9973.61
467.51	10467.17
467.72	10583.90
467.93	10125.16
468.14	10469.22
468.34	10706.78
468.55	10659.68
468.76	10753.88
468.97	10540.90
469.17	10862.43
469.38	10985.30
469.59	11122.52
469.80	10946.39
470.01	10809.18
470.21	11298.64
470.42	11200.34
470.63	11298.64
470.84	11257.68
471.04	11779.92
471.25	11372.37
471.46	11251.54
471.67	11546.45
471.87	11380.56
472.08	11673.42
472.29	11870.03
472.50	11636.56
472.70	11671.37
472.91	11872.07
473.12	12123.98
473.33	12076.87
473.53	12560.19
473.74	12107.59
473.95	12470.08
474.16	12517.18
474.36	12379.97
474.57	12508.99
474.78	12771.13
474.99	12748.61
475.19	12642.11
475.40	12910.40
475.61	12988.22
475.81	13143.86
476.02	13438.77
476.23	13115.19
476.44	13377.33
476.64	13770.54
476.85	13713.20
477.06	13596.46
477.27	13821.74
477.47	13662.00
477.68	13821.74
477.89	14094.12
478.09	14108.46
478.30	14042.92
478.51	14073.64
478.71	14329.64
478.92	14356.26
479.13	14233.38
479.34	14858.01
479.54	14491.43
479.75	14798.62
479.96	14634.78
480.16	14864.16
480.37	14962.46
480.58	14935.84
480.78	15312.66
480.99	15177.50
481.20	15515.41
481.41	15478.55
481.61	15566.61
481.82	15662.86
482.03	15552.27
482.23	15648.53
482.44	15935.24
482.65	16013.07
482.85	16094.99
483.06	16078.60
483.27	16068.36
483.47	16260.87
483.68	16107.27
483.89	16877.31
484.09	16463.62
484.30	16543.49
484.51	16731.90
484.71	16957.18
484.92	16930.56
485.13	17227.51
485.33	17151.74
485.54	16830.21
485.75	17358.58
485.95	17346.30
486.16	17430.26
486.37	17512.18
486.57	17413.88
486.78	17628.92
486.98	17878.77
487.19	17680.11
487.40	18007.79
487.60	17975.02
487.81	18081.52
488.02	18190.06
488.22	17958.64
488.43	18480.87
488.64	18448.10
488.84	18730.72
489.05	18562.79
489.25	18673.38
489.46	18984.67
489.67	18839.26
489.87	19072.73
490.08	19154.65
490.29	19189.47
490.49	19500.76
490.70	19191.52
490.90	19773.14
491.11	19355.35
491.32	19717.84
491.52	19324.63
491.73	19836.63
491.94	20129.48
492.14	19756.75
492.35	19830.48
492.55	20184.78
492.76	20258.51
492.97	20244.17
493.17	20561.61
493.38	20747.97
493.58	20876.99
493.79	20833.99
494.00	20815.55
494.20	20676.29
494.41	20940.48
494.61	21176.00
494.82	20858.56
495.02	20979.39
495.23	21128.89
495.44	21200.57
495.64	21485.24
495.85	21663.41
496.05	21501.62
496.26	21534.39
496.47	22091.44
496.67	21728.95
496.88	22159.02
497.08	21776.05
497.29	22175.41
497.49	22038.19
497.70	22056.62
497.91	22541.99
498.11	22286.00
498.32	22537.90
498.52	22331.05
498.73	23150.24
498.93	22787.75
499.14	22908.58
499.34	22734.50
499.55	22814.37
499.76	22789.80
499.96	23201.44
500.17	22857.38
500.37	23201.44
500.58	23109.28
500.78	23281.31
500.99	23402.14
501.19	23590.55
501.40	23537.30
501.60	23551.64
501.81	23695.00
502.02	23994.00
502.22	23994.00
502.43	23967.38
502.63	24247.95
502.84	24194.70
503.04	24352.40
503.25	24241.81
503.45	23994.00
503.66	24592.01
503.86	24293.01
504.07	24733.32
504.27	24587.91
504.48	24669.83
504.68	24845.96
504.89	25124.48
505.09	24962.69
505.30	24776.33
505.50	24850.05
505.71	25038.47
505.91	25241.21
506.12	25730.68
506.32	25280.13
506.53	25376.38
506.73	25415.29
506.94	25538.17
507.14	25626.23
507.35	25603.71
507.55	25753.21
507.76	25722.49
507.96	25826.93
508.17	25865.85
508.37	26140.27
508.58	26130.03
508.78	25898.61
508.99	26140.27
509.19	26445.42
509.40	26383.98
509.60	26240.62
509.81	26576.49
510.01	26515.05
510.22	26486.38
510.42	26383.98
510.63	26775.14
510.83	26652.27
511.04	26783.34
511.24	26957.41
511.44	26981.99
511.65	26918.50
511.85	26969.70
512.06	27154.02
512.26	27403.87
512.47	27594.33
512.67	27336.29
512.88	27252.32
513.08	27235.94
513.29	27647.58
513.49	27168.35
513.69	27473.50
513.90	27446.88
514.10	27645.53
514.31	27772.50
514.51	27840.09
514.72	27653.72
514.92	28026.45
515.13	28012.12
515.33	27911.77
515.53	28114.52
515.74	28178.00
515.94	28075.60
516.15	27987.54
516.35	28112.47
516.56	28356.18
516.76	28452.43
516.96	28089.94
517.17	28622.41
517.37	28452.43
517.58	28626.51
517.78	28927.56
517.99	28862.02
518.19	29093.44
518.39	29091.40
518.60	29152.84
518.80	29185.60
519.01	29244.99
519.21	29185.60
519.41	29183.55
519.62	29326.91
519.82	29619.77
520.03	29484.61
520.23	29777.47
520.43	29304.38
520.64	29736.51
520.84	29943.35
521.05	29816.38
521.25	30133.81
521.45	30520.88
521.66	30248.50
521.86	29910.58
522.07	30484.01
522.27	30631.47
522.47	30445.10
522.68	30666.28
522.88	30613.04
523.08	31143.46
523.29	30475.82
523.49	30651.95
523.70	30463.54
523.90	31409.70
524.10	30877.22
524.31	31245.86
524.51	30680.62
524.71	31405.60
524.92	31579.68
525.12	31198.76
525.33	31190.56
525.53	32063.00
525.73	31692.32
525.94	31657.50
526.14	31710.75
526.34	31983.13
526.55	31882.78
526.75	31604.25
526.95	32314.90
527.16	32196.12
527.36	32042.52
527.56	32323.09
527.77	32540.18
527.97	32517.65
528.17	32427.54
528.38	32945.67
528.58	32669.20
528.78	32656.91
528.99	32810.51
529.19	32919.05
529.39	32855.56
529.60	33279.49
529.80	33078.79
530.00	33304.07
530.21	33408.51
530.41	33582.59
530.61	33811.96
530.82	34018.81
531.02	33797.63
531.22	33957.37
531.43	33828.35
531.63	34090.49
531.83	34244.09
532.04	34532.85
532.24	34221.56
532.44	34741.74
532.64	34915.82
532.85	34698.73
533.05	34817.52
533.25	34989.55
533.46	34641.39
533.66	35155.43
533.86	35177.96
534.07	35636.70
534.27	35335.65
534.47	35640.80
534.67	35368.42
534.88	35536.35
535.08	35360.23
535.28	35845.60
535.49	35679.71
535.69	36040.15
535.89	36167.13
536.09	36206.04
536.30	36478.42
536.50	36132.31
536.70	36638.16
536.91	36570.58
537.11	36634.06
537.31	36687.31
537.51	36984.27
537.72	36965.84
537.92	37268.94
538.12	37299.65
538.32	36904.40
538.53	37379.53
538.73	36971.98
538.93	37164.49
539.13	37428.68
539.34	37397.96
539.54	37236.17
539.74	37989.82
539.94	37408.20
540.15	37514.69
540.35	37940.67
540.55	38049.21
540.75	37971.39
540.96	38065.60
541.16	37924.29
541.36	38116.79
541.56	38254.01
541.77	38467.00
541.97	38432.18
542.17	38647.22
542.37	38456.76
542.58	38428.09
542.78	38393.27
542.98	38671.79
543.18	38499.76
543.38	39288.23
543.59	38843.82
543.79	38753.71
543.99	38921.65
544.19	38952.37
544.40	39185.83
544.60	39640.48
544.80	39314.86
545.00	39343.53
545.20	39601.57
545.41	38968.75
545.61	39642.53
545.81	39538.08
546.01	39900.58
546.21	39556.52
546.42	39663.01
546.62	40197.53
546.82	39820.70
547.02	40162.72
547.22	39933.34
547.43	39384.49
547.63	40179.10
547.83	40201.63
548.03	40228.25
548.23	40138.14
548.44	40670.61
548.64	40519.06
548.84	40641.94
549.04	40312.22
549.24	40359.32
549.45	40951.18
549.65	40461.72
549.85	40658.32
550.05	40773.01
550.25	40498.58
550.45	41547.14
550.66	40594.84
550.86	40584.60
551.06	41024.91
551.26	40883.60
551.46	41604.49
551.66	40988.05
551.87	41065.87
552.07	41229.71
552.27	41278.86
552.47	41598.34
552.67	41119.12
552.87	41448.84
553.07	41514.37
553.28	41584.01
553.48	41774.47
553.68	41444.74
553.88	41856.39
554.08	41579.91
554.28	41557.38
554.48	41629.06
554.69	41954.69
554.89	41710.98
555.09	41393.54
555.29	41612.68
555.49	41885.06
555.69	41997.70
555.89	42141.05
556.10	42030.46
556.30	41764.23
556.50	42360.19
556.70	41909.63
556.90	42401.14
557.10	42354.04
557.30	42007.94
557.50	42493.30
557.70	42411.38
557.91	42577.27
558.11	42687.86
558.31	42542.45
558.51	42407.29
558.71	42603.89
558.91	42706.29
559.11	42358.14
559.31	42763.64
559.51	42175.87
559.72	42788.21
559.92	42616.18
560.12	42573.17
560.32	43226.48
560.52	42270.08
560.72	42866.03
560.92	42866.03
561.12	42782.07
561.32	43160.94
561.52	42835.31
561.72	43582.82
561.93	42855.79
562.13	43222.38
562.33	43040.11
562.53	43451.75
562.73	42726.77
562.93	43185.52
563.13	43421.03
563.33	43199.85
563.53	43318.64
563.73	42927.47
563.93	43552.10
564.13	43713.89
564.33	43337.07
564.53	43304.30
564.74	43816.29
564.94	43378.03
565.14	43824.48
565.34	43392.36
565.54	43488.62
565.74	44186.97
565.94	44072.29
566.14	43885.92
566.34	43890.02
566.54	44115.29
566.74	43904.35
566.94	44016.99
567.14	44373.34
567.34	43517.29
567.54	44201.31
567.74	43840.87
567.94	44201.31
568.14	44068.19
568.34	44371.29
568.54	44313.95
568.74	44801.36
568.94	44219.74
569.14	44594.52
569.34	44168.54
569.54	44096.86
569.75	44248.41
569.95	44375.39
570.15	44703.06
570.35	44338.52
570.55	44260.70
570.75	44393.82
570.95	44744.02
571.15	44522.84
571.35	44619.10
571.55	45241.68
571.75	45153.62
571.95	45098.32
572.15	45004.11
572.35	44979.54
572.55	44860.76
572.75	44995.92
572.95	45268.30
573.15	45253.97
573.35	45034.83
573.55	45090.13
573.75	45233.49
573.95	45454.67
574.15	45245.77
574.35	45264.21
574.55	45122.90
574.75	45165.90
574.95	45741.38
575.15	45325.64
575.34	45634.89
575.54	45626.70
575.74	45571.40
575.94	45675.85
576.14	46114.11
576.34	46159.17
576.54	45985.09
576.74	45978.95
576.94	45888.84
577.14	45581.64
577.34	46560.57
577.54	45991.23
577.74	46159.17
577.94	46390.59
578.14	46646.58
578.34	46898.48
578.54	46093.63
578.74	46114.11
578.94	46626.10
579.14	46505.27
579.34	46394.68
579.54	46710.07
579.74	46998.83
579.94	46861.62
580.13	46497.08
580.33	47123.76
580.53	46886.20
580.73	47324.46
580.93	47220.02
581.13	46980.40
581.33	47375.66
581.53	47746.34
581.73	47453.48
581.93	47252.78
582.13	47725.86
582.33	47689.00
582.53	47484.20
582.73	47801.64
582.92	47920.42
583.12	47945.00
583.32	47650.09
583.52	47719.72
583.72	47951.14
583.92	47942.95
584.12	47977.76
584.32	48520.48
584.52	48192.80
584.72	48221.47
584.92	48323.87
585.11	48608.54
585.31	48184.61
585.51	48612.63
585.71	48203.04
585.91	48573.72
586.11	48291.10
586.31	48563.48
586.51	47961.38
586.71	48698.65
586.91	48788.76
587.10	48903.45
587.30	48610.59
587.50	48794.90
587.70	48817.43
587.90	48919.83
588.10	49141.01
588.30	49063.19
588.50	49245.46
588.69	49149.20
588.89	48608.54
589.09	49464.59
589.29	49433.87
589.49	49368.33
589.69	49145.11
589.89	49485.07
590.08	49478.92
590.28	49550.60
590.48	49714.44
590.68	49501.45
590.88	50107.65
591.08	49206.55
591.28	49419.53
591.47	50291.97
591.67	49884.42
591.87	49952.01
592.07	49865.99
592.27	50109.70
592.47	49837.32
592.67	50201.86
592.86	50144.51
593.06	50468.09
593.26	50226.43
593.46	50574.59
593.66	50296.06
593.86	50623.74
594.05	50345.22
594.25	50590.97
594.45	50644.22
594.65	50377.98
594.85	50683.13
595.05	50763.00
595.24	50896.12
595.44	50504.96
595.64	50955.51
595.84	50652.41
596.04	50900.22
596.23	51270.90
596.43	51533.04
596.63	51135.73
596.83	51363.06
597.03	51031.29
597.22	51463.41
597.42	51072.24
597.62	51725.55
597.82	51475.69
598.02	51401.97
598.21	51817.71
598.41	51655.92
598.61	51873.00
598.81	51778.79
599.01	51827.95
599.20	51789.03
599.40	51580.14
599.60	52217.06
599.80	52366.56
600.00	52053.22
600.19	52452.58
600.39	52509.92
600.59	52417.76
600.79	52399.33
600.98	52354.27
601.18	52894.94
601.38	52804.83
601.58	52751.58
601.78	52778.20
601.97	52839.64
602.17	53066.97
602.37	52933.85
602.57	52868.31
602.76	53122.26
602.96	52548.83
603.16	53298.39
603.36	52907.22
603.55	53318.87
603.75	53050.58
603.95	53644.49
604.15	53466.32
604.34	53269.72
604.54	53542.10
604.74	53304.53
604.94	53298.39
605.13	53413.07
605.33	53777.61
605.53	53558.48
605.73	54142.15
605.92	53794.00
606.12	54115.53
606.32	54013.13
606.52	53744.84
606.71	54054.09
606.91	54166.73
607.11	53667.02
607.30	54478.02
607.50	54049.99
607.70	54406.34
607.90	54324.42
608.09	53847.24
608.29	54512.83
608.49	54080.71
608.68	54346.95
608.88	54688.96
609.08	54621.37
609.28	54613.18
609.47	54312.13
609.67	54973.63
609.87	54531.26
610.06	54875.32
610.26	54688.96
610.46	54914.23
610.66	55084.22
610.85	54899.90
611.05	54326.47
611.25	55010.49
611.44	54918.33
611.64	55041.21
611.84	54895.80
612.03	54666.43
612.23	54990.01
612.43	54582.46
612.62	55225.53
612.82	55293.11
613.02	55114.94
613.21	54944.95
613.41	54453.44
613.61	55243.96
613.80	54752.44
614.00	55489.71
614.20	54932.67
614.39	55049.40
614.59	55409.84
614.79	55383.22
614.98	54844.60
615.18	54992.06
615.38	55213.24
615.57	55211.19
615.77	55829.68
615.97	55389.36
616.16	55303.35
616.36	55155.89
616.56	55438.51
616.75	55415.99
616.95	55432.37
617.15	55512.24
617.34	55082.17
617.54	55268.53
617.74	55643.31
617.93	55923.88
618.13	54889.66
618.32	55121.08
618.52	55219.38
618.72	55479.47
618.91	55108.79
619.11	55551.15
619.31	55153.85
619.50	55280.82
619.70	55241.91
619.90	55747.76
620.09	55225.53
620.29	55254.20
620.48	55231.67
620.68	56177.83
620.88	54973.63
621.07	55366.84
621.27	55432.37
621.46	55194.81
621.66	55067.83
621.86	55823.53
622.05	55305.40
622.25	55342.26
622.44	55923.88
622.64	54957.24
622.84	55948.46
623.03	55108.79
623.23	55616.69
623.42	55557.30
623.62	55116.98
623.82	55522.48
624.01	55344.31
624.21	55714.99
624.40	55725.23
624.60	55530.67
624.80	55542.96
624.99	55291.06
625.19	54856.89
625.38	55190.71
625.58	55289.01
625.77	55248.05
625.97	55639.22
626.17	55137.46
626.36	55258.29
626.56	55295.16
626.75	54691.01
626.95	55854.25
627.14	54934.71
627.34	55663.79
627.54	54918.33
627.73	55231.67
627.93	55502.00
628.12	55389.36
628.32	55383.22
628.51	55391.41
628.71	55076.02
628.90	55293.11
629.10	55387.31
629.30	55626.93
629.49	55305.40
629.69	55059.64
629.88	55014.58
630.08	55710.89
630.27	55483.57
630.47	55485.62
630.66	55364.79
630.86	56050.86
631.05	55383.22
631.25	55833.77
631.44	55792.81
631.64	55782.57
631.84	55647.41
632.03	55743.66
632.23	55690.41
632.42	55702.70
632.62	55239.86
632.81	55196.85
633.01	55710.89
633.20	56100.01
633.40	55684.27
633.59	55344.31
633.79	55067.83
633.98	55575.73
634.18	56202.41
634.37	55690.41
634.57	55530.67
634.76	55698.61
634.96	55938.22
635.15	55682.22
635.35	55839.92
635.54	55624.88
635.74	55911.59
635.93	55760.05
636.13	56325.28
636.32	56179.88
636.52	55452.85
636.71	55846.06
636.91	55760.05
637.10	55661.74
637.30	55760.05
637.49	55458.99
637.69	55897.26
637.88	55891.12
638.08	55600.30
638.27	56079.53
638.46	55893.16
638.66	55755.95
638.85	55882.92
639.05	55516.34
639.24	55725.23
639.44	55915.69
639.63	56016.04
639.83	56145.06
640.02	55684.27
640.22	56183.97
640.41	56188.07
640.61	55088.31
640.80	55899.31
640.99	55674.03
641.19	56155.30
641.38	55944.36
641.58	55956.65
641.77	55944.36
641.97	55749.81
642.16	55596.21
642.36	55895.21
642.55	56167.59
642.74	55768.24
642.94	56339.62
643.13	56024.23
643.33	56145.06
643.52	56235.17
643.72	56374.44
643.91	56276.13
644.10	55788.72
644.30	56505.51
644.49	55983.27
644.69	56374.44
644.88	56153.26
645.08	55862.44
645.27	55909.55
645.46	56161.45
645.66	56450.21
645.85	56345.76
646.05	56276.13
646.24	56399.01
646.43	56319.14
646.63	56679.58
646.82	56333.48
647.02	56163.50
647.21	56409.25
647.40	56462.50
647.60	56380.58
647.79	56702.11
647.99	56474.79
648.18	56222.89
648.37	56800.41
648.57	56751.26
648.76	56444.07
648.96	56251.56
649.15	56343.72
649.34	56865.95
649.54	56493.22
649.73	56538.27
649.92	56786.08
650.12	56607.90
650.31	56800.41
650.51	56939.68
650.70	57109.66
650.89	56401.06
651.09	57316.50
651.28	57046.17
651.47	56908.96
651.67	56882.33
651.86	56792.22
652.06	56517.79
652.25	56638.62
652.44	56452.26
652.64	56374.44
652.83	56026.28
653.02	56464.55
653.22	56857.76
653.41	56482.98
653.60	56390.82
653.80	56716.45
653.99	57152.66
654.18	56769.69
654.38	56403.11
654.57	57056.41
654.76	56894.62
654.96	56777.89
655.15	56337.57
655.34	56644.77
655.54	56536.23
655.73	56460.45
655.92	56786.08
656.12	56833.18
656.31	56605.86
656.50	56478.88
656.70	56693.92
656.89	56822.94
657.08	56652.96
657.28	57027.74
657.47	56849.56
657.66	57066.65
657.86	56409.25
658.05	56929.44
658.24	56818.84
658.43	56681.63
658.63	56650.91
658.82	57070.75
659.01	57193.62
659.21	57099.42
659.40	56898.72
659.59	56550.56
659.79	57300.12
659.98	57183.38
660.17	57214.10
660.36	57218.20
660.56	56931.48
660.75	57433.24
660.94	56943.77
661.14	56980.63
661.33	57046.17
661.52	56882.33
661.71	57117.85
661.91	56749.21
662.10	56779.93
662.29	56949.92
662.49	57105.56
662.68	57099.42
662.87	57085.08
663.06	56947.87
663.26	57089.18
663.45	57212.06
663.64	57123.99
663.83	57441.43
664.03	56751.26
664.22	57074.84
664.41	57210.01
664.60	56941.72
664.80	57119.90
664.99	56816.80
665.18	57191.58
665.37	56988.83
665.57	57357.46
665.76	56677.54
665.95	56579.23
666.14	56843.42
666.34	56902.81
666.53	57001.11
666.72	57136.28
666.91	56368.29
667.11	56628.38
667.30	57017.50
667.49	56470.69
667.68	56835.23
667.87	56833.18
668.07	56941.72
668.26	56960.15
668.45	57089.18
668.64	56585.38
668.84	57605.26
669.03	57007.26
669.22	56802.46
669.41	56773.79
669.60	56738.97
669.80	56525.99
669.99	57095.32
670.18	57275.54
670.37	56902.81
670.57	56960.15
670.76	56980.63
670.95	57308.31
671.14	57250.97
671.33	56853.66
671.53	57392.28
671.72	56784.03
671.91	56929.44
672.10	56874.14
672.29	57021.59
672.48	56847.52
672.68	57070.75
672.87	56632.48
673.06	56730.78
673.25	56806.56
673.44	56415.40
673.64	56698.01
673.83	56673.44
674.02	56394.92
674.21	56390.82
674.40	56949.92
674.59	56456.35
674.79	56466.59
674.98	56399.01
675.17	56571.04
675.36	56456.35
675.55	56738.97
675.74	56368.29
675.94	56781.98
676.13	56243.37
676.32	56581.28
676.51	57183.38
676.70	56540.32
676.89	56648.86
677.08	56706.21
677.28	56399.01
677.47	56777.89
677.66	56818.84
677.85	56546.47
678.04	56808.61
678.23	57025.69
678.42	56931.48
678.62	56624.29
678.81	57027.74
679.00	56646.82
679.19	57070.75
679.38	56636.58
679.57	56702.11
679.76	56612.00
679.96	56841.37
680.15	56519.84
680.34	56513.70
680.53	56276.13
680.72	56706.21
680.91	57005.21
681.10	56757.41
681.29	56128.68
681.48	56106.15
681.68	56229.03
681.87	56710.30
682.06	56566.94
682.25	55850.16
682.44	56343.72
682.63	56577.18
682.82	55874.73
683.01	56022.19
683.20	56138.92
683.39	56304.80
683.59	55907.50
683.78	55821.48
683.97	55706.80
684.16	55833.77
684.35	55368.88
684.54	56097.96
684.73	55706.80
684.92	56044.71
685.11	55708.85
685.30	55600.30
685.49	55983.27
685.69	56171.69
685.88	55801.00
686.07	55475.38
686.26	55688.37
686.45	56028.33
686.64	55932.07
686.83	55690.41
687.02	55674.03
687.21	56261.80
687.40	55950.51
687.59	55878.83
687.78	55854.25
687.97	55856.30
688.16	55745.71
688.35	55602.35
688.54	55671.98
688.74	55502.00
688.93	55393.46
689.12	55608.50
689.31	55616.69
689.50	55743.66
689.69	55370.93
689.88	54990.01
690.07	55502.00
690.26	55432.37
690.45	55372.98
690.64	55372.98
690.83	54875.32
691.02	55182.52
691.21	55303.35
691.40	55157.94
691.59	55491.76
691.78	55280.82
691.97	55395.51
692.16	55579.82
692.35	55379.12
692.54	55137.46
692.73	55467.19
692.92	55073.98
693.11	55059.64
693.30	55450.80
693.49	55186.61
693.68	55211.19
693.87	54703.29
694.06	54729.92
694.25	54955.19
694.44	54899.90
694.63	55051.45
694.82	55047.35
695.01	54996.15
695.20	54801.60
695.39	55049.40
695.58	54676.67
695.77	54664.38
695.96	54228.16
696.15	54629.57
696.34	54279.36
696.53	54541.50
696.72	54250.69
696.91	54631.61
697.10	54475.97
697.29	54582.46
697.48	54973.63
697.67	54631.61
697.86	54437.06
698.05	54353.09
698.24	54842.56
698.43	53910.73
698.62	54424.77
698.81	54348.99
699.00	54469.82
699.19	54197.44
699.38	54324.42
699.57	53976.26
699.76	54877.37
699.95	53998.79
700.14	54527.17
700.32	54277.32
700.51	53798.09
700.70	54228.16
700.89	54611.13
701.08	54248.64
701.27	54033.61
701.46	54367.43
701.65	53712.08
701.84	53947.59
702.03	53753.04
702.22	53556.43
702.41	53570.77
702.60	53769.42
702.79	53785.80
702.98	53654.73
703.17	53646.54
703.35	53378.26
703.54	53662.93
703.73	53820.62
703.92	53408.98
704.11	53040.34
704.30	53040.34
704.49	53173.46
704.68	53128.41
704.87	53546.19
705.06	53345.49
705.25	52663.52
705.43	52983.00
705.62	53408.98
705.81	52964.57
706.00	53005.53
706.19	53064.92
706.38	52970.71
706.57	53263.57
706.76	53044.44
706.95	52860.12
707.14	52876.51
707.32	52983.00
707.51	52790.49
707.70	53230.80
707.89	52948.18
708.08	52933.85
708.27	53009.62
708.46	53419.22
708.65	52761.82
708.84	52862.17
709.02	53017.82
709.21	53128.41
709.40	52944.09
709.59	53071.06
709.78	52333.79
709.97	52618.46
710.16	52638.94
710.34	52595.93
710.53	52573.41
710.72	52139.24
710.91	52368.61
711.10	52798.68
711.29	52882.65
711.48	52790.49
711.66	52403.42
711.85	52522.21
712.04	51930.34
712.23	52266.21
712.42	52425.95
712.61	52466.91
712.80	52282.59
712.98	52198.63
713.17	51983.59
713.36	52198.63
713.55	52270.31
713.74	52077.80
713.93	52116.71
714.11	51807.47
714.30	51670.25
714.49	51811.56
714.68	51971.30
714.87	51999.97
715.06	51856.62
715.24	51444.98
715.43	51477.74
715.62	51254.51
715.81	51473.65
716.00	51731.69
716.18	51557.61
716.37	51705.07
716.56	51332.34
716.75	51350.77
716.94	51729.64
717.12	51277.04
717.31	51836.14
717.50	51852.52
717.69	50994.42
717.88	51088.63
718.06	51522.80
718.25	51047.67
718.44	50810.10
718.63	51436.78
718.82	51008.76
719.00	50672.89
719.19	50971.89
719.38	50529.53
719.57	50806.01
719.76	50244.87
719.94	50447.61
720.13	50476.29
720.32	50883.83
720.51	50416.89
720.69	50314.50
720.88	50662.65
721.07	50328.83
721.26	49730.83
721.44	49886.47
721.63	50119.94
721.82	49665.29
722.01	49900.81
722.20	50218.24
722.38	50191.62
722.57	49511.69
722.76	49573.13
722.95	49614.09
723.13	49626.38
723.32	49554.70
723.51	49427.73
723.70	49175.83
723.88	49949.96
724.07	49523.98
724.26	49708.30
724.44	48790.81
724.63	49190.16
724.82	49454.35
725.01	49462.54
725.19	49319.18
725.38	48993.56
725.57	49243.41
725.76	48921.88
725.94	48942.36
726.13	49083.67
726.32	49081.62
726.51	48905.49
726.69	49587.47
726.88	49018.13
727.07	48772.38
727.25	48340.25
727.44	48805.14
727.63	48852.25
727.82	48432.41
728.00	49161.49
728.19	48753.94
728.38	48950.55
728.56	48358.69
728.75	48772.38
728.94	48682.27
729.12	48717.08
729.31	48387.36
729.50	48450.84
729.69	48606.49
729.87	48729.37
730.06	48604.44
730.25	48895.25
730.43	48874.77
730.62	48188.70
730.81	48934.17
730.99	48917.78
731.18	48833.81
731.37	48760.09
731.55	48762.14
731.74	48454.94
731.93	48563.48
732.11	48592.15
732.30	48485.66
732.49	48651.55
732.67	48545.05
732.86	48518.43
733.05	48608.54
733.23	48092.45
733.42	48500.00
733.61	48502.04
733.79	48719.13
733.98	48784.66
734.17	48485.66
734.35	48710.94
734.54	48669.98
734.73	48477.47
734.91	48510.24
735.10	48067.87
735.29	48536.86
735.47	48330.01
735.66	48555.29
735.84	48454.94
736.03	47945.00
736.22	48430.36
736.40	47811.88
736.59	48110.88
736.78	48016.68
736.96	47945.00
737.15	48067.87
737.33	47629.61
737.52	48192.80
737.71	47787.30
737.89	47961.38
738.08	47766.82
738.27	48004.39
738.45	47957.28
738.64	48188.70
738.82	48084.26
739.01	47871.27
739.20	48215.33
739.38	47500.59
739.57	48217.38
739.75	48231.71
739.94	47684.90
740.13	47828.26
740.31	47572.27
740.50	47678.76
740.68	47650.09
740.87	48076.07
741.06	47433.00
741.24	47387.95
741.43	47215.92
741.61	47531.31
741.80	47185.20
741.99	47248.69
742.17	47004.98
742.36	47449.39
742.54	47344.94
742.73	47050.03
742.91	47750.44
743.10	47564.07
743.29	47490.35
743.47	47365.42
743.66	47306.03
743.84	47349.04
744.03	46935.35
744.21	46699.83
744.40	47240.50
744.59	47357.23
744.77	47019.31
744.96	46972.21
745.14	47011.12
745.33	47437.10
745.51	47248.69
745.70	47244.59
745.88	46921.01
746.07	46935.35
746.26	46357.82
746.44	46634.30
746.63	47082.80
746.81	47199.54
747.00	46699.83
747.18	46847.29
747.37	46748.98
747.55	46755.13
747.74	47301.93
747.92	46404.92
748.11	46671.16
748.29	46499.13
748.48	46929.20
748.66	46396.73
748.85	46404.92
749.03	46568.76
749.22	46271.81
749.41	46550.33
749.59	46089.54
749.78	46148.93
749.96	45743.43
750.15	45985.09
750.33	46208.32
750.52	46097.73
750.70	45663.56
750.89	45636.94
751.07	45686.09
751.26	46052.67
751.44	45595.98
751.63	45804.87
751.81	45579.59
752.00	45759.81
752.18	45966.66
752.37	45821.25
752.55	45479.24
752.74	45464.91
752.92	45366.60
753.10	45296.97
753.29	45393.23
753.47	45747.53
753.66	44952.91
753.84	45499.72
754.03	45344.08
754.21	45313.36
754.40	45155.66
754.58	45329.74
754.77	45366.60
754.95	44608.86
755.14	44647.77
755.32	45036.88
755.51	45088.08
755.69	44850.52
755.88	44811.60
756.06	44848.47
756.24	44696.92
756.43	44735.83
756.61	44436.83
756.80	44701.01
756.98	44569.94
757.17	45163.85
757.35	44909.91
757.54	44492.12
757.72	44373.34
757.90	44565.85
758.09	44584.28
758.27	45040.98
758.46	44342.62
758.64	44402.01
758.83	44594.52
759.01	44561.75
759.19	44475.74
759.38	44590.42
759.56	44541.27
759.75	44772.69
759.93	44103.01
760.12	43943.27
760.30	44414.30
760.48	44447.07
760.67	44225.89
760.85	43980.13
761.04	44236.12
761.22	44236.12
761.40	44316.00
761.59	43834.72
761.77	43666.79
761.96	43808.10
762.14	43898.21
762.32	43631.97
762.51	43558.25
762.69	43593.06
762.88	43992.42
763.06	43689.32
763.24	44027.23
763.43	43763.04
763.61	43644.26
763.80	43685.22
763.98	43638.12
764.16	43132.27
764.35	43300.20
764.53	42984.82
764.72	43433.32
764.90	43332.97
765.08	43441.51
765.27	43433.32
765.45	43162.99
765.63	43050.35
765.82	43177.33
766.00	42610.04
766.18	42777.97
766.37	43165.04
766.55	42894.71
766.74	42712.44
766.92	42679.67
767.10	42730.87
767.29	42372.47
767.47	42376.57
767.65	42722.68
767.84	42347.90
768.02	42448.25
768.20	42161.53
768.39	42313.08
768.57	42288.51
768.75	42448.25
768.94	42276.22
769.12	42319.23
769.30	42118.53
769.49	42106.24
769.67	41713.03
769.85	41569.67
770.04	41817.47
770.22	41889.15
770.40	41753.99
770.59	41590.15
770.77	42200.44
770.95	42214.78
771.14	41606.53
771.32	41287.05
771.50	41674.12
771.69	41549.19
771.87	41520.52
772.05	41309.58
772.24	40826.26
772.42	41690.50
772.60	40922.51
772.78	41033.10
772.97	40875.41
773.15	41256.33
773.33	40580.50
773.52	41340.30
773.70	41045.39
773.88	41428.36
774.07	40942.99
774.25	41383.30
774.43	41291.15
774.61	40994.19
774.80	40820.11
774.98	41278.86
775.16	40856.98
775.34	41411.98
775.53	40906.13
775.71	41319.82
775.89	40904.08
776.08	41233.80
776.26	41328.01
776.44	40975.76
776.62	41137.55
776.81	41241.99
776.99	41467.27
777.17	41481.61
777.35	41260.43
777.54	41743.75
777.72	41323.91
777.90	41473.42
778.08	41614.72
778.27	41366.92
778.45	41612.68
778.63	41856.39
778.81	40965.52
779.00	41776.51
779.18	41680.26
779.36	41932.16
779.54	41741.70
779.73	41659.78
779.91	41794.95
780.09	41864.58
780.27	41549.19
780.46	42171.77
780.64	42153.34
780.82	41989.50
781.00	42018.17
781.19	42104.19
781.37	41919.87
781.55	42435.96
781.73	42407.29
781.91	42026.37
782.10	41895.30
782.28	41907.58
782.46	42073.47
782.64	42075.52
782.82	42200.44
783.01	42024.32
783.19	42012.03
783.37	42589.56
783.55	42276.22
783.74	42128.77
783.92	41926.02
784.10	42222.97
784.28	41995.65
784.46	41725.32
784.64	42196.35
784.83	42268.03
785.01	42044.80
785.19	42399.10
785.37	41907.58
785.55	42311.03
785.74	42128.77
785.92	41817.47
786.10	41887.10
786.28	41788.80
786.46	41661.83
786.64	41422.22
786.83	41694.60
787.01	42128.77
787.19	41581.96
787.37	42188.16
787.55	41641.35
787.74	41528.71
787.92	41811.33
788.10	41522.57
788.28	41008.53
788.46	41579.91
788.64	41338.25
788.82	41921.92
789.01	41485.70
789.19	41860.48
789.37	40990.09
789.55	41207.18
789.73	40916.37
789.91	40824.21
790.09	40867.22
790.28	41080.21
790.46	40541.59
790.64	41252.23
790.82	41215.37
791.00	40670.61
791.18	40793.49
791.36	40717.71
791.55	40625.56
791.73	40920.46
791.91	40580.50
792.09	40258.97
792.27	40105.37
792.45	40084.89
792.63	40191.39
792.81	40367.51
793.00	40023.45
793.18	39843.23
793.36	39832.99
793.54	39767.46
793.72	39589.28
793.90	39433.64
794.08	39433.64
794.26	39482.79
794.44	39228.84
794.62	39228.84
794.81	39257.51
794.99	39065.00
795.17	39165.35
795.35	39103.92
795.53	39552.42
795.71	39196.07
795.89	38741.42
796.07	38428.09
796.25	38434.23
796.43	38978.99
796.61	38485.43
796.80	38288.82
796.98	38118.84
797.16	37920.19
797.34	38501.81
797.52	38014.40
797.70	38206.90
797.88	37897.66
798.06	37844.41
798.24	37875.13
798.42	37629.38
798.60	37817.79
798.78	37301.70
798.96	37746.11
799.14	37191.11
799.32	37541.32
799.51	36900.30
799.69	37006.80
799.87	37279.18
800.05	36931.02
800.23	36756.94
800.41	36562.39
800.59	36720.08
800.77	36838.86
800.95	36486.61
801.13	36541.91
801.31	36195.80
801.49	36826.57
801.67	36111.83
801.85	36134.36
802.03	35907.04
802.21	36263.38
802.39	35900.89
802.57	35923.42
802.75	35855.84
802.93	35692.00
803.11	35595.74
803.29	35399.14
803.47	35366.37
803.65	35341.80
803.83	35472.87
804.01	35421.67
804.19	35130.86
804.37	35012.07
804.55	34862.57
804.73	34756.08
804.91	34899.44
805.09	34958.83
805.27	34803.18
805.45	34958.83
805.63	34811.37
805.81	34485.75
805.99	34461.17
806.17	35075.56
806.35	34825.71
806.53	34432.50
806.71	34526.71
806.89	34321.91
807.07	34170.36
807.25	34149.88
807.43	34233.85
807.61	34438.64
807.79	34117.11
807.97	34002.43
808.15	33803.77
808.33	33820.16
808.51	33576.45
808.69	33250.82
808.87	33490.43
809.05	33281.54
809.23	33121.80
809.41	33019.40
809.59	33160.71
809.77	33367.55
809.95	32882.19
810.13	33256.96
810.31	32554.51
810.49	32771.60
810.67	32978.44
810.84	32886.28
811.02	32845.32
811.20	32484.88
811.38	33068.55
811.56	32126.49
811.74	32546.32
811.92	32458.26
812.10	32208.40
812.28	32544.27
812.46	32335.38
812.64	32212.50
812.82	31870.49
813.00	32089.62
813.18	32130.58
813.36	31870.49
813.53	31913.50
813.71	31847.96
813.89	31608.35
814.07	31950.36
814.25	31893.02
814.43	31532.57
814.61	31606.30
814.79	31696.41
814.97	31473.18
815.15	31673.88
815.33	31448.61
815.50	31006.25
815.68	31002.15
815.86	31004.20
816.04	31235.62
816.22	30996.01
816.40	31020.58
816.58	30987.82
816.76	30889.51
816.94	30887.46
817.11	30967.34
817.29	30864.94
817.47	30850.60
817.65	30541.36
817.83	30897.70
818.01	30408.24
818.19	30602.80
818.37	30516.78
818.54	30326.32
818.72	30258.74
818.90	30228.02
819.08	30041.65
819.26	30045.75
819.44	29875.77
819.62	29898.30
819.80	29902.39
819.97	30015.03
820.15	29843.00
820.33	29857.34
820.51	29830.71
820.69	29765.18
820.87	30117.43
821.05	29756.99
821.22	29767.23
821.40	29718.07
821.58	29234.75
821.76	29404.74
821.94	29466.17
822.12	29367.87
822.29	29441.60
822.47	29335.10
822.65	29541.95
822.83	29126.21
823.01	29236.80
823.19	29161.03
823.36	29017.67
823.54	28866.12
823.72	29148.74
823.90	28941.89
824.08	28833.35
824.25	28937.80
824.43	28784.20
824.61	28782.15
824.79	28743.24
824.97	28587.60
825.15	28876.36
825.32	28675.66
825.50	28452.43
825.68	28548.68
825.86	29040.20
826.04	28487.25
826.21	28618.32
826.39	28552.78
826.57	28163.67
826.75	28030.55
826.93	28112.47
827.10	28264.02
827.28	28282.45
827.46	28479.05
827.64	28087.89
827.81	27911.77
827.99	28259.92
828.17	27606.62
828.35	27549.28
828.53	27870.81
828.70	27661.91
828.88	27391.58
829.06	27860.57
829.24	27838.04
829.41	27657.82
829.59	27500.12
829.77	27674.20
829.95	27745.88
830.12	27637.34
830.30	27317.86
830.48	27512.41
830.66	27661.91
830.84	27405.92
831.01	27205.22
831.19	27383.39
831.37	27274.85
831.55	27174.50
831.72	27258.46
831.90	27041.38
832.08	27127.39
832.25	27051.62
832.43	27049.57
832.61	26891.88
832.79	26990.18
832.96	26984.04
833.14	26783.34
833.32	27141.73
833.50	27111.01
833.67	26701.42
833.85	26416.75
834.03	26254.96
834.20	26928.74
834.38	26775.14
834.56	26601.07
834.74	26916.45
834.91	26431.08
835.09	26689.13
835.27	26216.05
835.44	26443.37
835.62	26064.50
835.80	26148.46
835.98	26214.00
836.15	25855.61
836.33	26207.86
836.51	26527.34
836.68	26160.75
836.86	26498.67
837.04	26134.13
837.21	26158.70
837.39	25947.76
837.57	26267.25
837.75	25880.18
837.92	25857.65
838.10	25998.96
838.28	25489.02
838.45	25507.45
838.63	25773.69
838.81	25685.62
838.98	25837.17
839.16	25581.18
839.34	25620.09
839.51	25562.75
839.69	25210.50
839.87	25185.92
840.04	25679.48
840.22	25615.99
840.40	25431.68
840.57	25194.11
840.75	25415.29
840.93	24811.14
841.10	25276.03
841.28	25480.83
841.46	24995.46
841.63	25024.13
841.81	25177.73
841.98	25230.98
842.16	25044.61
842.34	25282.17
842.51	25104.00
842.69	25347.71
842.87	24737.41
843.04	24974.98
843.22	24766.09
843.40	24395.40
843.57	24702.60
843.75	24714.89
843.92	25028.23
844.10	24614.54
844.28	24811.14
844.45	24675.98
844.63	24829.57
844.81	24563.34
844.98	24718.98
845.16	24587.91
845.33	24518.28
845.51	24673.93
845.69	24139.41
845.86	23969.43
846.04	24438.41
846.21	24415.88
846.39	24417.93
846.57	23944.85
846.74	24276.62
846.92	24004.24
847.09	24170.13
847.27	24077.97
847.45	24206.99
847.62	24008.34
847.80	24002.19
847.97	24194.70
848.15	23654.04
848.32	23971.47
848.50	23889.56
848.68	23654.04
848.85	23830.16
849.03	23690.90
849.20	23873.17
849.38	23656.09
849.56	23815.83
849.73	23629.46
849.91	23463.58
850.08	23959.19
850.26	23269.02
850.43	23307.93
850.61	23441.05
850.78	23391.90
850.96	23602.84
851.14	23142.05
851.31	23506.59
851.49	23266.97
851.66	23561.88
851.84	23305.88
852.01	23135.90
852.19	23398.04
852.36	23111.33
852.54	23051.94
852.71	23117.47
852.89	23101.09
853.07	23115.42
853.24	23387.80
853.42	23107.23
853.59	23244.45
853.77	23223.97
853.94	23371.42
854.12	23078.56
854.29	22652.58
854.47	23023.26
854.64	22564.52
854.82	22845.09
854.99	22978.21
855.17	22853.28
855.34	22806.18
855.52	22855.33
855.69	22609.58
855.87	22566.57
856.04	22539.94
856.22	22566.57
856.39	22265.52
856.57	22582.95
856.74	22376.11
856.92	22732.45
857.09	22326.96
857.27	22353.58
857.44	22779.56
857.62	22527.66
857.79	22335.15
857.97	22449.83
858.14	22159.02
858.32	22466.22
858.49	22353.58
858.67	22308.52
858.84	21935.79
859.02	22326.96
859.19	21974.70
859.37	21714.61
859.54	21999.28
859.72	21731.00
859.89	22005.42
860.06	21868.21
860.24	21872.31
860.41	21878.45
860.59	21671.61
860.76	22079.15
860.94	21597.88
861.11	21571.25
861.29	21819.06
861.46	21780.15
861.64	21384.89
861.81	21384.89
861.98	21370.55
862.16	21407.42
862.33	21573.30
862.51	21364.41
862.68	21767.86
862.86	21393.08
863.03	20987.58
863.21	21311.16
863.38	21378.75
863.55	21169.85
863.73	21427.90
863.90	21094.08
864.08	21124.80
864.25	21094.08
864.43	21010.11
864.60	20909.76
864.77	20739.78
864.95	20975.30
865.12	20975.30
865.30	21104.32
865.47	21085.89
865.64	20643.52
865.82	21006.02
865.99	21085.89
866.17	20807.36
866.34	20872.90
866.51	20514.50
866.69	20868.80
866.86	20737.73
867.04	20831.94
867.21	20627.14
867.38	20510.41
867.56	20422.34
867.73	20547.27
867.91	20362.95
868.08	20348.62
868.25	20352.71
868.43	20197.07
868.60	20217.55
868.78	20182.73
868.95	20360.91
869.12	20281.03
869.30	20006.61
869.47	20045.52
869.64	19793.62
869.82	20160.20
869.99	20049.61
870.16	19994.32
870.34	20084.43
870.51	20176.59
870.69	20106.96
870.86	19949.26
871.03	20008.65
871.21	19896.02
871.38	20043.47
871.55	19891.92
871.73	19873.49
871.90	19719.89
872.07	19865.30
872.25	19134.17
872.42	19576.53
872.59	19480.28
872.77	19726.04
872.94	19537.62
873.11	19531.48
873.29	19416.79
873.46	19347.16
873.63	19379.93
873.81	19394.26
873.98	19273.43
874.15	19175.13
874.33	19054.30
874.50	19029.73
874.67	18908.90
874.85	18923.23
875.02	18996.96
875.19	18859.74
875.37	18724.58
875.54	18730.72
875.71	19058.40
875.88	18712.29
876.06	18425.57
876.23	18630.37
876.40	18603.75
876.58	18538.21
876.75	18650.85
876.92	18552.55
877.10	18323.18
877.27	18517.73
877.44	18401.00
877.61	18333.42
877.79	18388.71
877.96	18145.00
878.13	18198.25
878.31	18233.07
878.48	18028.27
878.65	17866.48
878.82	18083.56
879.00	18036.46
879.17	18044.65
879.34	18028.27
879.51	18036.46
879.69	17815.28
879.86	17966.83
880.03	17811.18
880.21	17622.77
880.38	17723.12
880.55	17772.27
880.72	17616.63
880.90	17624.82
881.07	17716.98
881.24	17651.44
881.41	17645.30
881.59	17528.56
881.76	17409.78
881.93	17671.92
882.10	17352.44
882.28	17327.86
882.45	17661.68
882.62	17446.65
882.79	17481.46
882.96	17170.17
883.14	17452.79
883.31	17379.06
883.48	17092.35
883.65	17235.70
883.83	17342.20
884.00	17075.96
884.17	17192.70
884.34	17270.52
884.51	17129.21
884.69	16959.23
884.86	17110.78
885.03	16936.70
885.20	16842.50
885.38	17024.76
885.55	17235.70
885.72	17092.35
885.89	16832.26
886.06	16787.20
886.24	17047.29
886.41	16846.59
886.58	16953.09
886.75	17071.87
886.92	16699.14
887.10	16824.06
887.27	16959.23
887.44	16543.49
887.61	16832.26
887.78	16736.00
887.95	16791.30
888.13	16697.09
888.30	16324.36
888.47	16453.38
888.64	16625.41
888.81	16643.84
888.99	16533.25
889.16	16414.47
889.33	16498.44
889.50	16359.17
889.67	16420.61
889.84	16301.83
890.01	16344.84
890.19	16215.82
890.36	16297.74
890.53	16363.27
890.70	16051.98
890.87	16238.34
891.04	16062.22
891.22	15869.71
891.39	15955.72
891.56	16033.55
891.73	15982.35
891.90	16051.98
892.07	15894.29
892.24	16023.31
892.42	15902.48
892.59	15896.33
892.76	15607.57
892.93	15935.24
893.10	15707.92
893.27	15732.50
893.44	15384.34
893.61	15951.63
893.79	15542.03
893.96	15677.20
894.13	15836.94
894.30	15755.02
894.47	15542.03
894.64	15857.42
894.81	15779.60
894.98	15513.36
895.15	15908.62
895.33	15564.56
895.50	15515.41
895.67	15404.82
895.84	15531.80
896.01	15726.35
896.18	15695.63
896.35	15693.58
896.52	15372.05
896.69	15283.99
896.86	15660.82
897.04	15298.33
897.21	15496.98
897.38	15488.79
897.55	15288.09
897.72	15709.97
897.89	15359.77
898.06	15529.75
898.23	15431.44
898.40	15568.66
898.57	15544.08
898.74	15423.25
898.91	15441.68
899.08	15521.56
899.26	15509.27
899.43	15470.36
899.60	15367.96
899.77	15576.85
899.94	15327.00
900.11	15247.13
900.28	15484.69
900.45	15380.25
900.62	15238.94
900.79	15439.64
900.96	15355.67
901.13	15390.49
901.30	15333.14
901.47	15470.36
901.64	15396.63
901.81	15283.99
901.98	15128.35
902.15	15439.64
902.32	15116.06
902.49	15419.16
902.66	15181.59
902.83	15324.95
903.01	14984.99
903.18	15269.66
903.35	15243.03
903.52	15271.70
903.69	15150.87
903.86	15357.72
904.03	15273.75
904.20	15126.30
904.37	15255.32
904.54	15378.20
904.71	14958.36
904.88	15267.61
905.05	15105.82
905.22	15298.33
905.39	15111.96
905.56	15230.74
905.73	15173.40
905.90	15257.37
906.07	15419.16
906.24	15222.55
906.41	15275.80
906.58	15433.49
906.75	15218.46
906.92	14931.74
907.09	15152.92
907.26	15095.58
907.43	15073.05
907.60	15054.62
907.77	15189.78
907.93	15126.30
908.10	15292.18
908.27	15370.01
908.44	14825.25
908.61	14995.23
908.78	15007.52
908.95	15228.70
909.12	15011.61
909.29	15165.21
909.46	14761.76
909.63	15167.26
909.80	14976.80
909.97	14898.97
910.14	15095.58
910.31	15097.63
910.48	15097.63
910.65	14960.41
910.82	15093.53
910.99	14860.06
911.16	15191.83
911.33	14907.16
911.50	14901.02
911.66	14835.49
911.83	14864.16
912.00	14956.32
912.17	14786.33
912.34	14735.14
912.51	14669.60
912.68	14645.02
912.85	14794.53
913.02	14599.97
913.19	14554.91
913.36	14491.43
913.53	14724.90
913.70	14395.17
913.86	14645.02
914.03	14333.73
914.20	14505.76
914.37	14493.47
914.54	14147.37
914.71	14352.16
914.88	14448.42
915.05	14380.84
915.22	14036.78
915.39	14155.56
915.55	14239.53
915.72	14446.37
915.89	14161.70
916.06	14135.08
916.23	14051.11
916.40	14071.59
916.57	14145.32
916.74	14094.12
916.91	13950.76
917.07	13674.29
917.24	13963.05
917.41	13647.66
917.58	13807.41
917.75	13827.88
917.92	13573.94
918.09	13750.06
918.26	13594.42
918.42	13696.82
918.59	13637.42
918.76	13422.39
918.93	13383.48
919.10	13422.39
919.27	13416.24
919.44	13651.76
919.60	13459.25
919.77	13367.09
919.94	13250.36
920.11	13367.09
920.28	13418.29
920.45	13125.43
920.61	12961.59
920.78	13029.18
920.95	13037.37
921.12	13109.05
921.29	12949.31
921.46	12873.53
921.62	12744.51
921.79	13094.71
921.96	12701.50
922.13	12640.06
922.30	12697.41
922.47	12605.25
922.63	12592.96
922.80	12769.09
922.97	12355.40
923.14	12382.02
923.31	12328.77
923.47	12195.65
923.64	12566.34
923.81	12246.85
923.98	12339.01
924.15	12195.65
924.32	12107.59
924.48	12074.82
924.65	12386.12
924.82	11861.84
924.99	12080.97
925.15	11990.86
925.32	11837.26
925.49	11915.08
925.66	12025.67
925.83	11802.44
925.99	11646.80
926.16	11947.85
926.33	11876.17
926.50	11554.64
926.67	11802.44
926.83	11427.67
927.00	11505.49
927.17	11466.58
927.34	11345.75
927.50	11222.87
927.67	11472.72
927.84	11034.46
928.01	11337.56
928.17	10987.35
928.34	11102.04
928.51	11063.13
928.68	11063.13
928.84	11032.41
929.01	10751.84
929.18	10782.56
929.35	10829.66
929.51	10702.68
929.68	10649.44
929.85	10817.37
930.02	10721.12
930.18	10467.17
930.35	10590.05
930.52	10641.25
930.69	10553.18
930.85	10575.71
931.02	10381.15
931.19	10432.35
931.36	10180.45
931.52	10299.23
931.69	10354.53
931.86	10219.36
932.02	10149.73
932.19	10104.68
932.36	10114.92
932.53	9979.75
932.69	9809.77
932.86	10110.82
933.03	9949.03
933.19	9867.11
933.36	9826.15
933.53	9875.31
933.70	9613.17
933.86	9699.18
934.03	9527.15
934.20	9387.89
934.36	9752.43
934.53	9160.56
934.70	9262.96
934.86	9078.65
935.03	9107.32
935.20	9027.45
935.36	8994.68
935.53	8902.52
935.70	8957.82
935.86	8820.60
936.03	8849.27
936.20	8511.36
936.36	8669.05
936.53	8667.00
936.70	8613.76
936.86	8646.52
937.03	8505.21
937.20	8294.27
937.36	8331.14
937.53	8185.73
937.70	8003.46
937.86	7907.21
938.03	7878.54
938.20	7892.87
938.36	7532.43
938.53	7835.53
938.70	7356.30
938.86	7481.23
939.03	7540.62
939.20	7344.02
939.36	7317.39
939.53	7090.07
939.70	7135.12
939.86	7079.83
940.03	6764.44
940.19	6885.27
940.36	6840.22
940.53	6809.50
940.69	6487.96
940.86	6576.03
941.03	6453.15
941.19	6420.38
941.36	6434.72
941.52	6336.42
941.69	6225.82
941.86	6334.37
942.02	6252.45
942.19	6291.36
942.35	6195.11
942.52	5967.78
942.69	5906.34
942.85	6043.56
943.02	5943.21
943.18	5851.05
943.35	5857.19
943.52	5765.03
943.68	5648.30
943.85	5812.14
944.01	5625.77
944.18	5623.72
944.35	5836.71
944.51	5564.33
944.68	5515.18
944.84	5466.03
945.01	5435.31
945.17	5402.54
945.34	5500.84
945.51	5521.32
945.67	5386.16
945.84	5439.40
946.00	5312.43
946.17	5367.73
946.33	5351.34
946.50	5509.04
946.67	5351.34
946.83	5373.87
947.00	5384.11
947.16	5259.18
947.33	5279.66
947.49	5328.81
947.66	5296.05
947.82	5248.94
947.99	5353.39
948.16	5269.42
948.32	5328.81
948.49	5300.14
948.65	5341.10
948.82	5334.96
948.98	5152.69
949.15	5285.81
949.31	5300.14
949.48	5287.86
949.64	5279.66
949.81	5396.40
949.97	5205.94
950.14	5347.25
950.30	5326.77
950.47	5472.17
950.63	5314.48
950.80	5269.42
950.96	5353.39
951.13	5429.17
951.30	5394.35
951.46	5386.16
951.63	5457.84
951.79	5279.66
951.96	5377.97
952.12	5371.82
952.29	5384.11
952.45	5212.08
952.62	5427.12
952.78	5341.10
952.94	5398.45
953.11	5291.95
953.27	5253.04
953.44	5420.97
953.60	5353.39
953.77	5433.26
953.93	5451.69
954.10	5402.54
954.26	5486.51
954.43	5509.04
954.59	5511.08
954.76	5593.00
954.92	5449.64
955.09	5484.46
955.25	5423.02
955.42	5443.50
955.58	5449.64
955.75	5296.05
955.91	5410.73
956.07	5466.03
956.24	5586.86
956.40	5529.52
956.57	5547.95
956.73	5326.77
956.90	5492.65
957.06	5435.31
957.23	5480.36
957.39	5271.47
957.56	5451.69
957.72	5414.83
957.88	5423.02
958.05	5593.00
958.21	5447.60
958.38	5488.56
958.54	5427.12
958.71	5642.15
958.87	5547.95
959.03	5382.06
959.20	5291.95
959.36	5466.03
959.53	5369.77
959.69	5369.77
959.85	5375.92
960.02	5377.97
960.18	5498.80
960.35	5375.92
960.51	5550.00
960.68	5343.15
960.84	5265.33
961.00	5347.25
961.17	5504.94
961.33	5453.74
961.50	5388.21
961.66	5377.97
961.82	5529.52
961.99	5470.12
962.15	5451.69
962.31	5398.45
962.48	5314.48
962.64	5439.40
962.81	5396.40
962.97	5420.97
963.13	5353.39
963.30	5441.45
963.46	5357.49
963.62	5543.85
963.79	5285.81
963.95	5384.11
964.12	5480.36
964.28	5390.25
964.44	5373.87
964.61	5359.53
964.77	5308.34
964.93	5457.84
965.10	5373.87
965.26	5296.05
965.42	5271.47
965.59	5203.89
965.75	5287.86
965.92	5402.54
966.08	5361.58
966.24	5269.42
966.41	5289.90
966.57	5447.60
966.73	5318.57
966.90	5461.93
967.06	5259.18
967.22	5269.42
967.39	5281.71
967.55	4992.95
967.71	5253.04
967.88	5337.01
968.04	5150.64
968.20	5222.32
968.37	5236.66
968.53	5054.39
968.69	5185.46
968.85	5248.94
969.02	5236.66
969.18	5115.83
969.34	5207.98
969.51	5087.15
969.67	5078.96
969.83	4902.84
970.00	5345.20
970.16	5150.64
970.32	5158.83
970.48	5216.18
970.65	5156.79
970.81	4941.75
970.97	5050.29
971.14	4951.99
971.30	5130.16
971.46	4974.52
971.63	4880.31
971.79	5081.01
971.95	5025.72
972.11	4829.11
972.28	4814.77
972.44	5042.10
972.60	4863.93
972.76	4904.89
972.93	4978.61
973.09	4949.94
973.25	4958.13
973.42	4960.18
973.58	4902.84
973.74	4999.09
973.90	4812.73
974.07	4816.82
974.23	4929.46
974.39	4792.25
974.55	4861.88
974.72	4812.73
974.88	4779.96
975.04	4878.26
975.20	4751.29
975.37	4798.39
975.53	4761.53
975.69	4734.90
975.85	4736.95
976.01	4794.29
976.18	4657.08
976.34	4632.51
976.50	4704.18
976.66	4777.91
976.83	4708.28
976.99	4698.04
977.15	4743.10
977.31	4595.64
977.47	4706.23
977.64	4540.35
977.80	4620.22
977.96	4581.31
978.12	4460.48
978.29	4591.55
978.45	4532.15
978.61	4468.67
978.77	4540.35
978.93	4575.16
979.10	4607.93
979.26	4540.35
979.42	4421.56
979.58	4423.61
979.74	4452.28
979.91	4476.86
980.07	4470.72
980.23	4456.38
980.39	4347.84
980.55	4444.09
980.71	4435.90
980.88	4411.32
981.04	4437.95
981.20	4435.90
981.36	4388.80
981.52	4466.62
981.68	4321.21
981.85	4495.29
982.01	4421.56
982.17	4253.63
982.33	4265.92
982.49	4493.24
982.65	4327.36
982.82	4335.55
982.98	4333.50
983.14	4241.34
983.30	4405.18
983.46	4186.05
983.62	4237.25
983.79	4216.77
983.95	4280.25
984.11	4208.58
984.27	4124.61
984.43	4130.75
984.59	4224.96
984.75	4263.87
984.91	4126.66
985.08	4169.66
985.24	4124.61
985.40	4040.64
985.56	4165.57
985.72	4179.90
985.88	4048.83
986.04	4038.59
986.20	4052.93
986.37	4212.67
986.53	4007.87
986.69	4075.46
986.85	3997.64
987.01	4026.31
987.17	3989.44
987.33	3971.01
987.49	3971.01
987.65	4077.51
987.82	4020.16
987.98	3993.54
988.14	4052.93
988.30	4046.79
988.46	3917.76
988.62	3985.35
988.78	3940.29
988.94	3938.24
989.10	3893.19
989.26	3764.17
989.42	3823.56
989.59	3774.41
989.75	3831.75
989.91	3952.58
990.07	3649.48
990.23	3717.06
990.39	3880.90
990.55	3813.32
990.71	3751.88
990.87	3762.12
991.03	3760.07
991.19	3794.89
991.35	3723.21
991.51	3860.42
991.67	3755.97
991.83	3698.63
992.00	3706.82
992.16	3813.32
992.32	3663.82
992.48	3878.85
992.64	3555.27
992.80	3727.30
992.96	3655.62
993.12	3657.67
993.28	3690.44
993.44	3672.01
993.60	3708.87
993.76	3661.77
993.92	3682.25
994.08	3694.54
994.24	3659.72
994.40	3721.16
994.56	3626.95
994.72	3573.71
994.88	3434.44
995.04	3502.03
995.20	3438.54
995.36	3459.02
995.52	3489.74
995.68	3526.60
995.84	3452.88
996.00	3530.70
996.16	3502.03
996.32	3508.17
996.48	3516.36
996.64	3440.59
996.80	3413.96
996.96	3504.07
997.12	3502.03
997.28	3475.40
997.44	3352.52
997.60	3430.35
997.76	3542.99
997.92	3327.95
998.08	3463.12
998.24	3360.72
998.40	3434.44
998.56	3319.76
998.72	3319.76
998.88	3311.57
999.04	3278.80
999.20	3315.66
999.36	3338.19
999.52	3366.86
999.68	3184.59
999.84	3352.52
1000.00	3397.58
1000.16	3346.38
1000.32	3231.69
1000.48	3364.81
1000.64	3215.31
1000.80	3229.65
1000.95	3237.84
1001.11	3360.72
1001.27	3108.82
1001.43	3239.89
1001.59	3102.67
1001.75	3176.40
1001.91	3231.69
1002.07	3194.83
1002.23	3149.78
1002.39	3112.91
1002.55	3203.02
1002.71	3088.34
1002.87	3112.91
1003.03	3082.19
1003.19	3033.04
1003.34	3231.69
1003.50	3035.09
1003.66	3088.34
1003.82	3094.48
1003.98	3045.33
1004.14	3045.33
1004.30	3002.32
1004.46	3033.04
1004.62	3010.51
1004.78	3076.05
1004.94	3041.23
1005.09	3088.34
1005.25	3030.99
1005.41	2942.93
1005.57	2947.03
1005.73	2994.13
1005.89	2957.27
1006.05	2996.18
1006.21	3051.47
1006.37	2940.88
1006.52	2899.92
1006.68	2926.55
1006.84	2981.84
1007.00	2875.35
1007.16	2910.16
1007.32	2822.10
1007.48	2863.06
1007.64	2897.88
1007.79	2871.25
1007.95	2850.77
1008.11	2963.41
1008.27	2803.67
1008.43	2893.78
1008.59	2858.96
1008.75	2897.88
1008.91	2891.73
1009.06	2813.91
1009.22	2793.43
1009.38	2797.53
1009.54	2760.66
1009.70	2772.95
1009.86	2815.96
1010.01	2830.29
1010.17	2721.75
1010.33	2875.35
1010.49	2809.81
1010.65	2916.31
1010.81	2752.47
1010.96	2807.77
1011.12	2641.88
1011.28	2727.89
1011.44	2787.29
1011.60	2752.47
1011.76	2672.60
1011.91	2717.65
1012.07	2695.13
1012.23	2684.89
1012.39	2670.55
1012.55	2668.50
1012.71	2631.64
1012.86	2592.73
1013.02	2670.55
1013.18	2727.89
1013.34	2656.22
1013.50	2627.54
1013.65	2801.62
1013.81	2664.41
1013.97	2521.05
1014.13	2615.26
1014.29	2564.06
1014.44	2705.37
1014.60	2605.02
1014.76	2596.82
1014.92	2541.53
1015.07	2494.43
1015.23	2537.43
1015.39	2549.72
1015.55	2555.86
1015.71	2547.67
1015.86	2562.01
1016.02	2547.67
1016.18	2480.09
1016.34	2578.39
1016.49	2566.10
1016.65	2678.74
1016.81	2437.08
1016.97	2525.15
1017.12	2543.58
1017.28	2473.95
1017.44	2371.55
1017.60	2463.71
1017.75	2402.27
1017.91	2521.05
1018.07	2449.37
1018.23	2459.61
1018.38	2394.08
1018.54	2473.95
1018.70	2426.84
1018.86	2402.27
1019.01	2406.36
1019.17	2445.27
1019.33	2527.19
1019.49	2396.12
1019.64	2353.12
1019.80	2396.12
1019.96	2498.52
1020.12	2471.90
1020.27	2322.40
1020.43	2355.16
1020.59	2420.70
1020.74	2355.16
1020.90	2414.56
1021.06	2320.35
1021.22	2408.41
1021.37	2306.01
1021.53	2207.71
1021.69	2451.42
1021.84	2246.62
1022.00	2396.12
1022.16	2301.92
1022.31	2392.03
1022.47	2318.30
1022.63	2426.84
1022.79	2207.71
1022.94	2281.44
1023.10	2402.27
1023.26	2263.01
1023.41	2271.20
1023.57	2314.20
1023.73	2297.82
1023.88	2285.53
1024.04	2310.11
1024.20	2189.28
1024.35	2252.77
1024.51	2269.15
1024.67	2234.33
1024.82	2236.38
1024.98	2160.61
1025.14	2308.06
1025.29	2121.70
1025.45	2326.49
1025.61	2181.09
1025.76	2181.09
1025.92	2230.24
1026.08	2209.76
1026.23	2271.20
1026.39	2250.72
1026.55	2209.76
1026.70	2170.85
1026.86	2162.66
1027.02	2224.09
1027.17	2179.04
1027.33	2160.61
1027.48	2166.75
1027.64	2142.18
1027.80	2080.74
1027.95	2191.33
1028.11	2056.16
1028.27	2152.42
1028.42	2146.27
1028.58	2109.41
1028.73	2125.79
1028.89	2019.30
1029.05	2230.24
1029.20	2101.22
>>>>>End Processed Spectral Data<<<<<
