SpectraSuite Data File
++++++++++++++++++++++++++++++++++++
Date: Fri Jun 02 14:53:29 CEST 2017
User: INFO_000
Dark Spectrum Present: No
Reference Spectrum Present: No
Number of Sampled Component Spectra: 1
Spectrometers: USB4H00879
Integration Time (usec): 80000 (USB4H00879)
Spectra Averaged: 1 (USB4H00879)
Boxcar Smoothing: 0 (USB4H00879)
Correct for Electrical Dark: No (USB4H00879)
Strobe/Lamp Enabled: No (USB4H00879)
Correct for Detector Non-linearity: No (USB4H00879)
Correct for Stray Light: No (USB4H00879)
Number of Pixels in Processed Spectrum: 3648
>>>>>Begin Processed Spectral Data<<<<<
345.13	1267.69
345.34	1267.69
345.56	1267.69
345.78	1296.36
345.99	1214.45
346.21	1796.07
346.42	1652.71
346.64	1699.81
346.86	1818.60
347.07	1679.33
347.29	1691.62
347.50	1646.57
347.72	1671.14
347.94	1798.12
348.15	1589.22
348.37	1621.99
348.59	1724.39
348.80	1681.38
349.02	1791.97
349.23	1857.51
349.45	1751.01
349.67	1847.27
349.88	1714.15
350.10	1902.56
350.31	1804.26
350.53	1697.77
350.75	1888.23
350.96	1810.40
351.18	1845.22
351.39	1855.46
351.61	1806.31
351.82	1849.32
352.04	1839.08
352.26	1787.88
352.47	1916.90
352.69	1863.65
352.90	1712.10
353.12	1812.45
353.34	1796.07
353.55	1896.42
353.77	1896.42
353.98	1818.60
354.20	1851.36
354.41	1843.17
354.63	1892.32
354.85	2082.78
355.06	1939.43
355.28	1843.17
355.49	1849.32
355.71	1822.69
355.92	1886.18
356.14	1853.41
356.35	1857.51
356.57	1867.75
356.79	1937.38
357.00	1738.73
357.22	1927.14
357.43	1820.64
357.65	1943.52
357.86	1841.12
358.08	1894.37
358.29	1964.00
358.51	2011.11
358.72	1912.80
358.94	1896.42
359.16	1877.99
359.37	1908.71
359.59	1884.13
359.80	1970.15
360.02	1994.72
360.23	1933.28
360.45	1970.15
360.66	1894.37
360.88	1908.71
361.09	1925.09
361.31	1966.05
361.52	1949.67
361.74	2025.44
361.95	1994.72
362.17	1888.23
362.38	2047.97
362.60	2105.31
362.81	1949.67
363.03	1925.09
363.24	1968.10
363.46	2127.84
363.67	2031.58
363.89	1964.00
364.10	1961.95
364.32	1912.80
364.53	2011.11
364.75	1912.80
364.96	2002.91
365.18	2021.35
365.39	1994.72
365.61	2058.21
365.82	2131.94
366.04	2013.15
366.25	1961.95
366.47	1992.67
366.68	1978.34
366.90	1935.33
367.11	2062.30
367.33	2058.21
367.54	2062.30
367.76	1984.48
367.97	2082.78
368.19	2084.83
368.40	2025.44
368.62	2045.92
368.83	1935.33
369.05	2056.16
369.26	1933.28
369.48	2000.87
369.69	1978.34
369.91	2023.39
370.12	1966.05
370.33	2086.88
370.55	2017.25
370.76	2025.44
370.98	2093.02
371.19	2062.30
371.41	1933.28
371.62	2072.54
371.84	1923.04
372.05	2185.18
372.27	1966.05
372.48	2119.65
372.69	2070.50
372.91	2201.57
373.12	2121.70
373.34	2054.11
373.55	2076.64
373.77	2129.89
373.98	2088.93
374.20	2207.71
374.41	2310.11
374.62	2066.40
374.84	2187.23
375.05	2160.61
375.27	2240.48
375.48	2113.50
375.70	2256.86
375.91	2211.81
376.12	2316.25
376.34	2172.89
376.55	2224.09
376.77	2273.25
376.98	2082.78
377.19	2164.70
377.41	2156.51
377.62	2260.96
377.84	2340.83
378.05	2293.72
378.27	2176.99
378.48	2308.06
378.69	2373.60
378.91	2320.35
379.12	2234.33
379.34	2265.05
379.55	2332.64
379.76	2293.72
379.98	2310.11
380.19	2224.09
380.41	2342.88
380.62	2330.59
380.83	2334.68
381.05	2197.47
381.26	2449.37
381.47	2328.54
381.69	2277.34
381.90	2371.55
382.12	2295.77
382.33	2283.49
382.54	2267.10
382.76	2332.64
382.97	2275.29
383.19	2256.86
383.40	2373.60
383.61	2377.69
383.83	2295.77
384.04	2287.58
384.25	2420.70
384.47	2402.27
384.68	2330.59
384.89	2297.82
385.11	2445.27
385.32	2256.86
385.54	2369.50
385.75	2381.79
385.96	2510.81
386.18	2363.36
386.39	2428.89
386.60	2396.12
386.82	2521.05
387.03	2346.97
387.24	2576.34
387.46	2375.64
387.67	2447.32
387.88	2531.29
388.10	2437.08
388.31	2435.03
388.52	2557.91
388.74	2514.91
388.95	2580.44
389.16	2467.80
389.38	2508.76
389.59	2545.63
389.80	2551.77
390.02	2562.01
390.23	2553.82
390.44	2469.85
390.66	2539.48
390.87	2494.43
391.08	2600.92
391.30	2670.55
391.51	2578.39
391.72	2629.59
391.94	2559.96
392.15	2621.40
392.36	2654.17
392.58	2596.82
392.79	2736.09
393.00	2740.18
393.22	2742.23
393.43	2750.42
393.64	2791.38
393.85	2826.20
394.07	2637.78
394.28	2811.86
394.49	2760.66
394.71	2762.71
394.92	2818.00
395.13	2752.47
395.35	2691.03
395.56	2775.00
395.77	2944.98
395.98	2764.76
396.20	2947.03
396.41	2867.16
396.62	2957.27
396.84	2858.96
397.05	2746.33
397.26	2883.54
397.47	2949.08
397.69	2912.21
397.90	3041.23
398.11	2861.01
398.32	2901.97
398.54	2871.25
398.75	2838.48
398.96	2940.88
399.18	3082.19
399.39	2934.74
399.60	3172.30
399.81	2953.17
400.03	3051.47
400.24	3256.27
400.45	3035.09
400.66	3033.04
400.88	2969.55
401.09	3168.21
401.30	3096.53
401.51	3166.16
401.73	3198.93
401.94	3190.74
402.15	3119.06
402.36	3133.39
402.58	3168.21
402.79	3268.56
403.00	3223.50
403.21	3233.74
403.43	3170.26
403.64	3385.29
403.85	3227.60
404.06	3270.61
404.27	3129.30
404.49	3352.52
404.70	3211.22
404.91	3393.48
405.12	3297.23
405.34	3186.64
405.55	3426.25
405.76	3190.74
405.97	3252.17
406.19	3471.31
406.40	3198.93
406.61	3327.95
406.82	3364.81
407.03	3317.71
407.25	3286.99
407.46	3459.02
407.67	3407.82
407.88	3450.83
408.09	3307.47
408.31	3311.57
408.52	3395.53
408.73	3375.05
408.94	3350.48
409.15	3395.53
409.37	3442.64
409.58	3557.32
409.79	3422.16
410.00	3557.32
410.21	3456.97
410.43	3588.04
410.64	3424.20
410.85	3639.24
411.06	3516.36
411.27	3657.67
411.48	3641.29
411.70	3518.41
411.91	3606.47
412.12	3657.67
412.33	3659.72
412.54	3581.90
412.76	3811.27
412.97	3684.30
413.18	3612.62
413.39	3706.82
413.60	3698.63
413.81	3688.39
414.03	3657.67
414.24	3715.02
414.45	3874.76
414.66	3538.89
414.87	3755.97
415.08	3667.91
415.30	3749.83
415.51	3688.39
415.72	3770.31
415.93	3729.35
416.14	3825.61
416.35	3788.74
416.56	3817.41
416.78	3985.35
416.99	3979.20
417.20	3839.94
417.41	3819.46
417.62	3936.20
417.83	3907.52
418.04	3973.06
418.26	3946.44
418.47	3762.12
418.68	4046.79
418.89	4011.97
419.10	4151.23
419.31	3983.30
419.52	4073.41
419.73	4022.21
419.95	3991.49
420.16	3995.59
420.37	4079.55
420.58	4104.13
420.79	3889.09
421.00	3977.16
421.21	4116.42
421.42	4026.31
421.63	4155.33
421.85	4100.03
422.06	4286.40
422.27	4274.11
422.48	4288.45
422.69	4298.69
422.90	4253.63
423.11	4210.62
423.32	4362.17
423.53	4528.06
423.75	4380.61
423.96	4472.76
424.17	4523.96
424.38	4558.78
424.59	4409.28
424.80	4691.90
425.01	4585.40
425.22	4474.81
425.43	4485.05
425.64	4755.38
425.85	4726.71
426.06	4634.55
426.28	4487.10
426.49	4497.34
426.70	4591.55
426.91	4655.03
427.12	4816.82
427.33	4743.10
427.54	4681.66
427.75	4822.97
427.96	4831.16
428.17	4806.58
428.38	4796.34
428.59	4851.64
428.80	4747.19
429.01	4806.58
429.23	4956.08
429.44	5119.92
429.65	5003.19
429.86	5083.06
430.07	4843.45
430.28	4876.21
430.49	5007.28
430.70	5121.97
430.91	5101.49
431.12	5011.38
431.33	5066.67
431.54	5244.85
431.75	5261.23
431.96	5195.70
432.17	4992.95
432.38	5158.83
432.59	5463.98
432.80	5343.15
433.01	5244.85
433.22	5287.86
433.43	5275.57
433.64	5320.62
433.85	5263.28
434.06	5349.29
434.27	5359.53
434.49	5447.60
434.70	5468.08
434.91	5580.71
435.12	5574.57
435.33	5550.00
435.54	5502.89
435.75	5265.33
435.96	5451.69
436.17	5416.88
436.38	5648.30
436.59	5636.01
436.80	5529.52
437.01	5853.09
437.22	5734.31
437.43	5689.26
437.64	5547.95
437.85	5701.54
438.06	5898.15
438.27	5672.87
438.48	5627.82
438.69	5926.82
438.90	5820.33
439.11	5666.73
439.32	6027.17
439.53	5973.92
439.74	6029.22
439.95	5953.45
440.16	5777.32
440.37	6057.89
440.57	5787.56
440.78	6078.37
440.99	6045.60
441.20	6002.60
441.41	5836.71
441.62	6086.56
441.83	5924.77
442.04	6137.76
442.25	6195.11
442.46	6104.99
442.67	6266.78
442.88	6512.54
443.09	5973.92
443.30	6188.96
443.51	6160.29
443.72	6346.66
443.93	6317.98
444.14	6590.36
444.35	6252.45
444.56	6295.46
444.77	6254.50
444.98	6307.74
445.19	6485.92
445.40	6438.81
445.61	6268.83
445.81	6674.33
446.02	6586.27
446.23	6356.90
446.44	6377.37
446.65	6588.32
446.86	6643.61
447.07	6610.84
447.28	6776.73
447.49	6733.72
447.70	6346.66
447.91	6844.31
448.12	6608.80
448.33	6848.41
448.54	6909.85
448.74	6795.16
448.95	6854.55
449.16	6758.30
449.37	7081.88
449.58	6887.32
449.79	7110.55
450.00	6922.13
450.21	7049.11
450.42	7112.60
450.63	7163.79
450.84	7264.15
451.05	7016.34
451.25	7249.81
451.46	7016.34
451.67	7198.61
451.88	7292.82
452.09	7233.43
452.30	7198.61
452.51	7176.08
452.72	7450.51
452.93	7452.56
453.13	7247.76
453.34	7260.05
453.55	7436.17
453.76	7430.03
453.97	7817.10
454.18	7563.15
454.39	7483.28
454.60	7694.22
454.81	7753.61
455.01	7632.78
455.22	7516.05
455.43	7645.07
455.64	7700.36
455.85	8171.40
456.06	8103.81
456.27	7976.84
456.48	7753.61
456.68	7939.97
456.89	8001.41
457.10	7860.10
457.31	8087.43
457.52	8081.28
457.73	8036.23
457.94	8220.55
458.14	8007.56
458.35	8646.52
458.56	8198.02
458.77	8232.83
458.98	8564.61
459.19	8351.62
459.39	8402.82
459.60	8566.65
459.81	8384.38
460.02	8593.28
460.23	8501.12
460.44	8769.40
460.65	8832.89
460.85	8677.24
461.06	8836.99
461.27	8726.39
461.48	8988.53
461.69	9105.27
461.89	8568.70
462.10	9070.45
462.31	8966.01
462.52	8945.53
462.73	9088.89
462.94	9185.14
463.14	9217.91
463.35	9291.63
463.56	9555.82
463.77	9447.28
463.98	9199.48
464.18	9484.14
464.39	9672.56
464.60	9883.50
464.81	9783.15
465.02	9752.43
465.23	9901.93
465.43	9547.63
465.64	9961.32
465.85	9856.87
466.06	9815.91
466.27	10190.69
466.47	9926.50
466.68	10014.57
466.89	10090.34
467.10	10121.06
467.30	10180.45
467.51	10168.16
467.72	10389.35
467.93	10235.75
468.14	10528.61
468.34	10674.01
468.55	10590.05
468.76	10651.49
468.97	10483.55
469.17	10805.08
469.38	10901.34
469.59	11095.89
469.80	10833.75
470.01	10858.33
470.21	10903.39
470.42	11179.86
470.63	11423.57
470.84	11079.51
471.04	11157.33
471.25	11411.28
471.46	11558.74
471.67	11429.71
471.87	11511.63
472.08	11513.68
472.29	11872.07
472.50	11519.82
472.70	11669.33
472.91	11839.31
473.12	12029.77
473.33	12021.58
473.53	12054.34
473.74	12154.69
473.95	12103.50
474.16	12549.95
474.36	12523.33
474.57	12707.65
474.78	12517.18
474.99	12844.86
475.19	12611.39
475.40	12973.88
475.61	13041.46
475.81	13217.59
476.02	13037.37
476.23	13113.14
476.44	13367.09
476.64	13496.11
476.85	13649.71
477.06	13795.12
477.27	13657.90
477.47	13788.97
477.68	13690.67
477.89	13944.62
478.09	13770.54
478.30	13885.23
478.51	14118.70
478.71	14239.53
478.92	14292.77
479.13	14464.80
479.34	14614.30
479.54	14495.52
479.75	14767.90
479.96	15025.95
480.16	14696.22
480.37	14984.99
480.58	15091.48
480.78	15099.67
480.99	15253.27
481.20	15417.11
481.41	15474.45
481.61	15611.67
481.82	15849.23
482.03	15675.15
482.23	15529.75
482.44	15972.11
482.65	16174.86
482.85	16269.06
483.06	16414.47
483.27	16334.60
483.47	16205.58
483.68	16193.29
483.89	16604.93
484.09	16738.05
484.30	16701.19
484.51	16875.26
484.71	16922.37
484.92	17202.94
485.13	17184.51
485.33	17309.43
485.54	17260.28
485.75	17524.47
485.95	17557.24
486.16	17594.10
486.37	17891.06
486.57	17889.01
486.78	17866.48
486.98	18067.18
487.19	18024.17
487.40	18079.47
487.60	18247.40
487.81	18300.65
488.02	18339.56
488.22	18292.46
488.43	18620.13
488.64	18810.59
488.84	18751.20
489.05	18773.73
489.25	18695.91
489.46	19044.06
489.67	19089.12
489.87	19060.45
490.08	19508.95
490.29	19238.62
490.49	19748.56
490.70	19521.24
490.90	20012.75
491.11	19582.68
491.32	19828.43
491.52	20082.38
491.73	19914.45
491.94	20211.40
492.14	19969.74
492.35	20737.73
492.55	20504.26
492.76	20762.31
492.97	20852.42
493.17	20604.61
493.38	20862.66
493.58	21036.74
493.79	20876.99
494.00	21020.35
494.20	21173.95
494.41	21102.27
494.61	21386.94
494.82	21546.68
495.02	21440.18
495.23	21436.09
495.44	21677.75
495.64	21937.84
495.85	21841.59
496.05	21872.31
496.26	21853.87
496.47	22265.52
496.67	21810.87
496.88	22656.68
497.08	22218.41
497.29	22746.79
497.49	22425.26
497.70	22681.25
497.91	22750.88
498.11	22699.69
498.32	22775.46
498.52	23189.15
498.73	23305.88
498.93	22896.29
499.14	23377.56
499.34	23301.79
499.55	23651.99
499.76	23477.91
499.96	23281.31
500.17	23498.39
500.37	23578.26
500.58	23574.17
500.78	23735.96
500.99	23715.48
501.19	24008.34
501.40	24155.79
501.60	23758.49
501.81	23963.28
502.02	24243.85
502.22	23979.67
502.43	24020.63
502.63	24540.81
502.84	24831.62
503.04	24577.67
503.25	24442.51
503.45	24473.23
503.66	24565.39
503.86	24708.74
504.07	25050.75
504.27	24870.53
504.48	25470.59
504.68	24712.84
504.89	25218.69
505.09	25073.28
505.30	24837.76
505.50	25208.45
505.71	25269.89
505.91	25650.81
506.12	25527.93
506.32	25347.71
506.53	25257.60
506.73	25814.65
506.94	25601.66
507.14	25577.08
507.35	25876.09
507.55	25941.62
507.76	25572.99
507.96	25869.94
508.17	25978.48
508.37	25747.06
508.58	26095.22
508.78	25765.49
508.99	26308.21
509.19	26388.08
509.40	26201.71
509.60	26383.98
509.81	26451.56
510.01	26121.84
510.22	26363.50
510.42	26461.80
510.63	26711.66
510.83	26504.81
511.04	26646.12
511.24	26801.77
511.44	26877.54
511.65	26947.17
511.85	26949.22
512.06	26945.12
512.26	26984.04
512.47	27145.83
512.67	27536.99
512.88	27133.54
513.08	26826.34
513.29	27453.02
513.49	26945.12
513.69	27481.69
513.90	27508.32
514.10	27461.21
514.31	27553.37
514.51	27606.62
514.72	27405.92
514.92	27602.52
515.13	27536.99
515.33	27805.27
515.53	27881.05
515.74	27780.70
515.94	27762.26
516.15	27879.00
516.35	28014.16
516.56	28343.89
516.76	27999.83
516.96	27940.44
517.17	28261.97
517.37	28128.85
517.58	28264.02
517.78	28524.11
517.99	28718.67
518.19	28620.36
518.39	28479.05
518.60	28853.83
518.80	28683.85
519.01	28802.63
519.21	28810.82
519.41	28978.76
519.62	28835.40
519.82	29230.66
520.03	29240.90
520.23	29408.83
520.43	29367.87
520.64	29353.54
520.84	29607.48
521.05	29222.47
521.25	29595.20
521.45	29642.30
521.66	29607.48
521.86	29648.44
522.07	29761.08
522.27	29451.84
522.47	29783.61
522.68	29976.12
522.88	29992.50
523.08	30545.45
523.29	30389.81
523.49	30139.96
523.70	30203.44
523.90	30713.39
524.10	30283.31
524.31	31028.77
524.51	30516.78
524.71	31213.09
524.92	30670.38
525.12	31184.42
525.33	31032.87
525.53	31188.52
525.73	31419.94
525.94	31020.58
526.14	31221.28
526.34	31624.73
526.55	31499.81
526.75	31671.84
526.95	31852.06
527.16	31770.14
527.36	31780.38
527.56	32046.62
527.77	31962.65
527.97	32177.68
528.17	31911.45
528.38	32292.37
528.58	32503.31
528.78	32316.95
528.99	32362.00
529.19	32976.39
529.39	32329.23
529.60	32646.67
529.80	32777.74
530.00	32886.28
530.21	33125.89
530.41	33394.18
530.61	33275.40
530.82	33381.89
531.02	33363.46
531.22	33525.25
531.43	33500.67
531.63	33719.81
531.83	34086.39
532.04	34018.81
532.24	33902.07
532.44	34321.91
532.64	34268.66
532.85	34452.98
533.05	34385.40
533.25	34432.50
533.46	34522.61
533.66	34663.92
533.86	34645.49
534.07	35077.61
534.27	34848.24
534.47	35225.06
534.67	35347.94
534.88	35124.71
535.08	35292.65
535.28	35714.53
535.49	35632.61
535.69	35904.99
535.89	35845.60
536.09	36017.63
536.30	35988.95
536.50	35945.95
536.70	36232.66
536.91	36322.77
537.11	36277.72
537.31	36566.48
537.51	36380.12
537.72	37105.10
537.92	36865.49
538.12	36935.12
538.32	36881.87
538.53	37361.09
538.73	36828.62
538.93	37141.96
539.13	37144.01
539.34	37268.94
539.54	37397.96
539.74	37385.67
539.94	37526.98
540.15	37213.64
540.35	38167.99
540.55	38088.12
540.75	37729.73
540.96	37799.36
541.16	38165.95
541.36	38067.64
541.56	38438.33
541.77	38354.36
541.97	38415.80
542.17	38331.83
542.37	38505.91
542.58	38563.25
542.78	38761.90
542.98	38749.62
543.18	39124.40
543.38	39411.11
543.59	38899.12
543.79	38989.23
543.99	39124.40
544.19	39433.64
544.40	39656.87
544.60	39671.20
544.80	39566.76
545.00	39599.52
545.20	39675.30
545.41	39738.79
545.61	39503.27
545.81	39720.35
546.01	39867.81
546.21	39740.83
546.42	39923.10
546.62	40199.58
546.82	40099.23
547.02	40306.07
547.22	40109.47
547.43	40486.29
547.63	40244.63
547.83	40441.24
548.03	40052.12
548.23	40506.77
548.44	40314.26
548.64	40535.45
548.84	40807.83
549.04	40474.01
549.24	40986.00
549.45	40990.09
549.65	40828.30
549.85	41246.09
550.05	41248.14
550.25	40603.03
550.45	41282.95
550.66	41364.87
550.86	40971.66
551.06	41397.64
551.26	41059.73
551.46	41559.43
551.66	41577.86
551.87	41614.72
552.07	41713.03
552.27	41516.42
552.47	42012.03
552.67	42149.24
552.87	42012.03
553.07	42110.33
553.28	41702.79
553.48	42192.25
553.68	41418.12
553.88	42485.11
554.08	42042.75
554.28	41731.46
554.48	42261.88
554.69	42079.61
554.89	42390.91
555.09	42083.71
555.29	42575.22
555.49	42351.99
555.69	42511.74
555.89	42489.21
556.10	42626.42
556.30	42464.63
556.50	42775.92
556.70	42255.74
556.90	42620.28
557.10	42960.24
557.30	42423.67
557.50	43226.48
557.70	43201.90
557.91	43095.41
558.11	42841.46
558.31	43156.85
558.51	42870.13
558.71	42931.57
558.91	43095.41
559.11	42845.55
559.31	42810.74
559.51	42841.46
559.72	43001.20
559.92	43201.90
560.12	43099.50
560.32	43554.15
560.52	43359.59
560.72	43439.47
560.92	43033.97
561.12	43261.29
561.32	43668.84
561.52	43416.94
561.72	43840.87
561.93	43597.16
562.13	43230.57
562.33	43767.14
562.53	43996.51
562.73	43320.68
562.93	43572.58
563.13	43834.72
563.33	43513.19
563.53	44103.01
563.73	43599.21
563.93	43763.04
564.13	44127.58
564.33	44100.96
564.53	44078.43
564.74	44203.36
564.94	43750.76
565.14	43787.62
565.34	43976.03
565.54	44055.90
565.74	43793.76
565.94	44381.53
566.14	44299.61
566.34	43812.20
566.54	44420.44
566.74	44193.12
566.94	44457.31
567.14	44148.06
567.34	44445.02
567.54	44735.83
567.74	44361.05
567.94	44207.45
568.14	44801.36
568.34	44594.52
568.54	44434.78
568.74	44803.41
568.94	44793.17
569.14	44645.72
569.34	44836.18
569.54	44594.52
569.75	44399.96
569.95	44418.39
570.15	45045.07
570.35	44694.87
570.55	45098.32
570.75	44737.88
570.95	44653.91
571.15	45108.56
571.35	45147.47
571.55	45253.97
571.75	45368.65
571.95	45286.73
572.15	45088.08
572.35	45227.34
572.55	44889.43
572.75	44975.44
572.95	45270.35
573.15	45077.84
573.35	45198.67
573.55	45442.38
573.75	45038.93
573.95	45350.22
574.15	45372.75
574.35	45612.36
574.55	45583.69
574.75	45098.32
574.95	45598.02
575.15	45370.70
575.34	45679.94
575.54	45725.00
575.74	45909.32
575.94	45987.14
576.14	46208.32
576.34	45921.60
576.54	46406.97
576.74	46294.33
576.94	46128.45
577.14	46107.97
577.34	46630.20
577.54	45815.11
577.74	46337.34
577.94	46259.52
578.14	46232.89
578.34	46859.57
578.54	46136.64
578.74	46630.20
578.94	47047.99
579.14	46585.15
579.34	46525.75
579.54	46646.58
579.74	47283.50
579.94	46810.42
580.13	47236.40
580.33	47406.38
580.53	47058.23
580.73	47369.52
580.93	46798.13
581.13	47166.77
581.33	47109.43
581.53	47611.18
581.73	47191.34
581.93	47797.54
582.13	47609.13
582.33	47508.78
582.53	47670.57
582.73	47807.78
582.92	47820.07
583.12	47590.70
583.32	47486.25
583.52	47555.88
583.72	48383.26
583.92	47779.11
584.12	47809.83
584.32	47949.09
584.52	48221.47
584.72	48225.57
584.92	48624.92
585.11	48579.87
585.31	47682.86
585.51	48221.47
585.71	48403.74
585.91	48456.99
586.11	48315.68
586.31	48270.62
586.51	48518.43
586.71	48583.96
586.91	48649.50
587.10	49071.38
587.30	48942.36
587.50	49036.56
587.70	48780.57
587.90	49198.35
588.10	49255.70
588.30	49345.81
588.50	48968.98
588.69	49048.85
588.89	49128.72
589.09	49521.93
589.29	49001.75
589.49	49562.89
589.69	49251.60
589.89	49837.32
590.08	49427.73
590.28	49270.03
590.48	49300.75
590.68	49538.32
590.88	49665.29
591.08	49655.05
591.28	49779.98
591.47	49550.60
591.67	49315.09
591.87	49718.54
592.07	49720.59
592.27	49765.64
592.47	50124.04
592.67	50435.33
592.86	50005.25
593.06	50210.05
593.26	50291.97
593.46	50396.42
593.66	50580.73
593.86	50742.52
594.05	50500.86
594.25	50588.92
594.45	49917.19
594.65	50552.06
594.85	50208.00
595.05	50533.63
595.24	50898.17
595.44	50988.28
595.64	50662.65
595.84	51059.96
596.04	51207.41
596.23	50959.61
596.43	51350.77
596.63	51318.00
596.83	51639.53
597.03	51574.00
597.22	51827.95
597.42	51401.97
597.62	51555.57
597.82	51696.88
598.02	51684.59
598.21	51793.13
598.41	51207.41
598.61	52069.61
598.81	52016.36
599.01	52215.01
599.20	51756.27
599.40	51719.40
599.60	52053.22
599.80	51805.42
600.00	51907.82
600.19	52563.17
600.39	52255.97
600.59	52335.84
600.79	52399.33
600.98	52571.36
601.18	52327.65
601.38	52729.05
601.58	53200.08
601.78	52749.53
601.97	52540.64
602.17	53265.62
602.37	53069.01
602.57	53015.77
602.76	53220.56
602.96	52911.32
603.16	53396.69
603.36	53294.29
603.55	53488.85
603.75	53187.80
603.95	53576.91
604.15	53499.09
604.34	53617.87
604.54	54138.05
604.74	53761.23
604.94	53757.13
605.13	53734.60
605.33	53847.24
605.53	53949.64
605.73	54039.75
605.92	53740.75
606.12	54334.66
606.32	54133.96
606.52	54244.55
606.71	54148.29
606.91	54279.36
607.11	54039.75
607.30	54781.12
607.50	54152.39
607.70	54594.75
607.90	54473.92
608.09	54285.51
608.29	54484.16
608.49	54404.29
608.68	54873.27
608.88	54424.77
609.08	54772.92
609.28	54621.37
609.47	54594.75
609.67	54760.64
609.87	55102.65
610.06	55143.61
610.26	54934.71
610.46	55319.73
610.66	54736.06
610.85	54875.32
611.05	55305.40
611.25	55184.57
611.44	54916.28
611.64	55358.64
611.84	54834.36
612.03	54959.29
612.23	55053.50
612.43	55334.07
612.62	54740.16
612.82	55415.99
613.02	55362.74
613.21	55301.30
613.41	54885.56
613.61	55223.48
613.80	55313.59
614.00	55540.91
614.20	55415.99
614.39	55782.57
614.59	55557.30
614.79	55573.68
614.98	55370.93
615.18	55207.09
615.38	55690.41
615.57	55409.84
615.77	55891.12
615.97	55481.52
616.16	55473.33
616.36	55164.09
616.56	55510.19
616.75	55567.54
616.95	55626.93
617.15	55411.89
617.34	55702.70
617.54	55268.53
617.74	55923.88
617.93	55438.51
618.13	55194.81
618.32	55913.64
618.52	55563.44
618.72	55485.62
618.91	55821.48
619.11	55299.25
619.31	55798.96
619.50	55262.39
619.70	55168.18
619.90	55471.28
620.09	55530.67
620.29	55309.49
620.48	55424.18
620.68	55827.63
620.88	55272.63
621.07	55725.23
621.27	55268.53
621.46	55372.98
621.66	55397.55
621.86	55530.67
622.05	55100.60
622.25	55604.40
622.44	55110.84
622.64	55270.58
622.84	55289.01
623.03	55190.71
623.23	55698.61
623.42	55338.16
623.62	55934.12
623.82	56323.24
624.01	55446.71
624.21	55887.02
624.40	55649.45
624.60	55297.20
624.80	55178.42
624.99	55626.93
625.19	55174.33
625.38	55850.16
625.58	55266.48
625.77	55708.85
625.97	55553.20
626.17	55575.73
626.36	55309.49
626.56	55289.01
626.75	55325.88
626.95	56013.99
627.14	55407.79
627.34	55893.16
627.54	55274.68
627.73	55053.50
627.93	55213.24
628.12	55266.48
628.32	54858.94
628.51	55403.70
628.71	55219.38
628.90	55338.16
629.10	55545.01
629.30	55463.09
629.49	55059.64
629.69	54903.99
629.88	55309.49
630.08	55776.43
630.27	55334.07
630.47	55426.23
630.66	55303.35
630.86	55571.63
631.05	54885.56
631.25	55604.40
631.44	55567.54
631.64	55338.16
631.84	55542.96
632.03	55747.76
632.23	55530.67
632.42	55997.61
632.62	55833.77
632.81	55137.46
633.01	55430.32
633.20	55637.17
633.40	55825.58
633.59	55784.62
633.79	55338.16
633.98	55364.79
634.18	55708.85
634.37	55585.97
634.57	54674.62
634.76	55358.64
634.96	55319.73
635.15	55334.07
635.35	55272.63
635.54	55186.61
635.74	55780.52
635.93	55243.96
636.13	55506.10
636.32	55760.05
636.52	55264.44
636.71	55153.85
636.91	55352.50
637.10	55301.30
637.30	55299.25
637.49	55477.43
637.69	55143.61
637.88	56100.01
638.08	55250.10
638.27	55780.52
638.46	55192.76
638.66	54613.18
638.85	55338.16
639.05	55317.68
639.24	55264.44
639.44	55135.41
639.63	55657.65
639.83	55823.53
640.02	55325.88
640.22	55354.55
640.41	55669.93
640.61	55362.74
640.80	55522.48
640.99	55403.70
641.19	55719.09
641.38	55407.79
641.58	55090.36
641.77	55209.14
641.97	55440.56
642.16	55237.81
642.36	55497.91
642.55	56106.15
642.74	55069.88
642.94	55940.27
643.13	55100.60
643.33	55561.39
643.52	55383.22
643.72	55645.36
643.91	55913.64
644.10	55338.16
644.30	55696.56
644.49	55420.08
644.69	55803.05
644.88	55612.59
645.08	55389.36
645.27	55252.15
645.46	55098.55
645.66	55354.55
645.85	55588.02
646.05	55727.28
646.24	55661.74
646.43	55563.44
646.63	55725.23
646.82	56061.10
647.02	55956.65
647.21	55899.31
647.40	56108.20
647.60	55981.23
647.79	56147.11
647.99	55958.70
648.18	55508.14
648.37	56212.65
648.57	55710.89
648.76	55932.07
648.96	55592.11
649.15	56212.65
649.34	56382.63
649.54	55735.47
649.73	55841.96
649.92	55895.21
650.12	56214.69
650.31	56368.29
650.51	56661.15
650.70	56714.40
650.89	55499.95
651.09	56464.55
651.28	55952.55
651.47	56575.14
651.67	56456.35
651.86	56607.90
652.06	55506.10
652.25	56235.17
652.44	55829.68
652.64	55712.94
652.83	56147.11
653.02	55942.31
653.22	56013.99
653.41	55534.77
653.60	55833.77
653.80	56034.47
653.99	56308.90
654.18	56186.02
654.38	55895.21
654.57	56399.01
654.76	56411.30
654.96	56095.91
655.15	55948.46
655.34	56313.00
655.54	55669.93
655.73	55817.39
655.92	56013.99
656.12	56466.59
656.31	56065.19
656.50	56274.09
656.70	56698.01
656.89	55841.96
657.08	56382.63
657.28	56243.37
657.47	56140.97
657.66	56104.10
657.86	56145.06
658.05	56298.66
658.24	56525.99
658.43	55942.31
658.63	56034.47
658.82	56360.10
659.01	56698.01
659.21	56597.66
659.40	56724.64
659.59	56157.35
659.79	56425.64
659.98	56431.78
660.17	56521.89
660.36	56669.34
660.56	56562.85
660.75	56366.24
660.94	56480.93
661.14	56523.94
661.33	56294.56
661.52	55907.50
661.71	56827.04
661.91	56044.71
662.10	56243.37
662.29	56800.41
662.49	56458.40
662.68	57087.13
662.87	56497.31
663.06	56450.21
663.26	56687.78
663.45	57121.94
663.64	56464.55
663.83	57007.26
664.03	56829.08
664.22	56167.59
664.41	56560.80
664.60	56327.33
664.80	56974.49
664.99	56222.89
665.18	56513.70
665.37	56452.26
665.57	56573.09
665.76	55999.66
665.95	56464.55
666.14	56808.61
666.34	56349.86
666.53	56308.90
666.72	56306.85
666.91	56116.39
667.11	56558.75
667.30	57025.69
667.49	56718.49
667.68	56384.68
667.87	56904.86
668.07	56915.10
668.26	56773.79
668.45	56872.09
668.64	56415.40
668.84	57400.47
669.03	56564.90
669.22	57040.03
669.41	56880.28
669.60	56693.92
669.80	56499.36
669.99	56874.14
670.18	56513.70
670.37	56874.14
670.57	56859.80
670.76	56517.79
670.95	57011.35
671.14	56485.03
671.33	56612.00
671.53	57111.70
671.72	56923.29
671.91	56923.29
672.10	57009.31
672.29	57300.12
672.48	56833.18
672.68	57416.85
672.87	57083.03
673.06	57033.88
673.25	56562.85
673.44	56681.63
673.64	56573.09
673.83	56792.22
674.02	56972.44
674.21	56204.45
674.40	56870.04
674.59	56472.74
674.79	56784.03
674.98	56245.41
675.17	56841.37
675.36	56698.01
675.55	56558.75
675.74	56767.65
675.94	56505.51
676.13	56671.39
676.32	56970.39
676.51	56972.44
676.70	56755.36
676.89	56661.15
677.08	57134.23
677.28	56503.46
677.47	57267.35
677.66	57193.62
677.85	56761.50
678.04	56982.68
678.23	57113.75
678.42	56990.87
678.62	56710.30
678.81	57029.79
679.00	56626.34
679.19	57173.14
679.38	56880.28
679.57	56841.37
679.76	57146.52
679.96	57158.81
680.15	57173.14
680.34	57052.31
680.53	56695.97
680.72	57183.38
680.91	56714.40
681.10	57066.65
681.29	57009.31
681.48	56710.30
681.68	56890.52
681.87	56657.06
682.06	56990.87
682.25	56237.22
682.44	56462.50
682.63	56763.55
682.82	56802.46
683.01	56450.21
683.20	56204.45
683.39	56628.38
683.59	56515.75
683.78	56798.37
683.97	56534.18
684.16	56657.06
684.35	56478.88
684.54	56620.19
684.73	56407.20
684.92	56366.24
685.11	56177.83
685.30	56663.20
685.49	57035.93
685.69	56104.10
685.88	56644.77
686.07	56351.91
686.26	56431.78
686.45	56646.82
686.64	56730.78
686.83	56204.45
687.02	56650.91
687.21	56689.82
687.40	56347.81
687.59	56702.11
687.78	56366.24
687.97	56554.66
688.16	56546.47
688.35	56319.14
688.54	56614.05
688.74	56429.73
688.93	56081.58
689.12	56470.69
689.31	56433.83
689.50	56347.81
689.69	55940.27
689.88	55653.55
690.07	56329.38
690.26	55844.01
690.45	56501.41
690.64	56054.95
690.83	55946.41
691.02	55940.27
691.21	56372.39
691.40	56376.48
691.59	56093.86
691.78	56290.47
691.97	56337.57
692.16	56734.88
692.35	56079.53
692.54	55913.64
692.73	55930.03
692.92	56128.68
693.11	56036.52
693.30	56112.30
693.49	56001.71
693.68	56124.58
693.87	56169.64
694.06	55522.48
694.25	56204.45
694.44	55452.85
694.63	55844.01
694.82	55948.46
695.01	55760.05
695.20	56093.86
695.39	55125.17
695.58	55481.52
695.77	55665.84
695.96	55340.21
696.15	55841.96
696.34	55536.82
696.53	55215.29
696.72	55798.96
696.91	55551.15
697.10	55641.26
697.29	55370.93
697.48	55657.65
697.67	55219.38
697.86	55073.98
698.05	55536.82
698.24	55518.38
698.43	54621.37
698.62	55545.01
698.81	55198.90
699.00	55915.69
699.19	55354.55
699.38	55649.45
699.57	54691.01
699.76	55762.09
699.95	55276.72
700.14	54752.44
700.32	55289.01
700.51	55047.35
700.70	55286.96
700.89	55256.24
701.08	55340.21
701.27	55098.55
701.46	55645.36
701.65	54641.85
701.84	55045.30
702.03	54916.28
702.22	54488.26
702.41	54602.94
702.60	54774.97
702.79	54611.13
702.98	54414.53
703.17	54658.24
703.35	54713.53
703.54	54234.31
703.73	55100.60
703.92	54566.08
704.11	54451.39
704.30	53980.36
704.49	54449.35
704.68	54576.32
704.87	54217.92
705.06	54205.64
705.25	54277.32
705.43	54209.73
705.62	54195.40
705.81	54473.92
706.00	53845.19
706.19	53806.28
706.38	53576.91
706.57	54193.35
706.76	53499.09
706.95	53859.53
707.14	53720.27
707.32	53628.11
707.51	53679.31
707.70	53654.73
707.89	53683.40
708.08	53556.43
708.27	54254.79
708.46	54594.75
708.65	53597.39
708.84	53923.02
709.02	53826.76
709.21	53877.96
709.40	54031.56
709.59	53988.55
709.78	53417.17
709.97	53828.81
710.16	53152.98
710.34	53460.18
710.53	53335.25
710.72	53089.49
710.91	53392.59
711.10	53423.31
711.29	53914.83
711.48	53101.78
711.66	53437.65
711.85	52985.05
712.04	53247.19
712.23	53501.14
712.42	52999.38
712.61	53050.58
712.80	53040.34
712.98	52876.51
713.17	52761.82
713.36	52966.62
713.55	52737.24
713.74	52778.20
713.93	52856.03
714.11	52786.39
714.30	52454.62
714.49	52714.72
714.68	52794.59
714.87	52554.97
715.06	52849.88
715.24	52258.02
715.43	52372.70
715.62	52430.05
715.81	52135.14
716.00	52454.62
716.18	52040.93
716.37	51848.42
716.56	52051.17
716.75	52278.50
716.94	52049.13
717.12	52024.55
717.31	52208.87
717.50	52315.36
717.69	51989.73
717.88	51752.17
718.06	52069.61
718.25	52034.79
718.44	51399.92
718.63	51350.77
718.82	51346.67
719.00	51494.13
719.19	51270.90
719.38	51225.84
719.57	51012.85
719.76	50865.40
719.94	50638.08
720.13	50951.41
720.32	50709.75
720.51	50781.43
720.69	51178.74
720.88	50873.59
721.07	51031.29
721.26	50040.07
721.44	50042.12
721.63	50547.96
721.82	50205.95
722.01	50414.85
722.20	50988.28
722.38	49997.06
722.57	49612.04
722.76	50476.29
722.95	50021.64
723.13	49808.65
723.32	49841.42
723.51	50058.50
723.70	49501.45
723.88	49497.36
724.07	49419.53
724.26	49894.66
724.44	49181.97
724.63	49761.54
724.82	49495.31
725.01	49212.69
725.19	49571.08
725.38	49466.64
725.57	49487.12
725.76	49544.46
725.94	49014.04
726.13	49368.33
726.32	49378.57
726.51	48669.98
726.69	48844.05
726.88	49773.83
727.07	49046.80
727.25	48985.36
727.44	49145.11
727.63	48799.00
727.82	48829.72
728.00	49081.62
728.19	48684.31
728.38	49081.62
728.56	48612.63
728.75	48979.22
728.94	48538.91
729.12	48848.15
729.31	48981.27
729.50	48356.64
729.69	48686.36
729.87	48962.84
730.06	48792.86
730.25	48526.62
730.43	48700.70
730.62	48160.03
730.81	49120.53
730.99	48686.36
731.18	48430.36
731.37	48831.77
731.55	48889.11
731.74	48424.22
731.93	48379.17
732.11	48739.61
732.30	48526.62
732.49	48534.81
732.67	48592.15
732.86	48536.86
733.05	47906.08
733.23	48274.72
733.42	47971.62
733.61	48174.37
733.79	48758.04
733.98	48422.17
734.17	48092.45
734.35	48534.81
734.54	48145.70
734.73	48143.65
734.91	48254.24
735.10	48028.96
735.29	48153.89
735.47	47990.05
735.66	47748.39
735.84	48102.69
736.03	47949.09
736.22	48532.76
736.40	48061.73
736.59	48031.01
736.78	47539.50
736.96	48018.72
737.15	47695.14
737.33	47621.42
737.52	47715.62
737.71	48094.50
737.89	47953.19
738.08	47183.15
738.27	47541.55
738.45	47910.18
738.64	47953.19
738.82	47250.74
739.01	47205.68
739.20	47648.04
739.38	47373.61
739.57	47762.73
739.75	47273.26
739.94	47375.66
740.13	47154.48
740.31	47029.55
740.50	47181.10
740.68	47254.83
740.87	47322.41
741.06	47355.18
741.24	47322.41
741.43	46955.83
741.61	47086.90
741.80	47123.76
741.99	46822.71
742.17	46695.74
742.36	46871.86
742.54	46341.44
742.73	46304.57
742.91	47185.20
743.10	46472.51
743.29	47004.98
743.47	47023.41
743.66	46906.68
743.84	46617.91
744.03	46646.58
744.21	46402.88
744.40	46859.57
744.59	46605.62
744.77	46239.04
744.96	46329.15
745.14	46816.57
745.33	46744.89
745.51	46380.35
745.70	46396.73
745.88	46449.98
746.07	46474.55
746.26	45909.32
746.44	46228.80
746.63	46384.44
746.81	46409.02
747.00	46091.58
747.18	46124.35
747.37	46120.26
747.55	46243.13
747.74	46452.03
747.92	45925.70
748.11	46093.63
748.29	46175.55
748.48	45952.32
748.66	45829.44
748.85	45839.68
749.03	45876.55
749.22	45772.10
749.41	45733.19
749.59	45735.24
749.78	45333.84
749.96	45073.74
750.15	45708.61
750.33	45720.90
750.52	45489.48
750.70	45919.56
750.89	45112.66
751.07	45143.38
751.26	45251.92
751.44	45053.26
751.63	45438.28
751.81	45141.33
752.00	44969.30
752.18	45163.85
752.37	44832.08
752.55	44662.10
752.74	44911.95
752.92	44787.03
753.10	44733.78
753.29	45112.66
753.47	44858.71
753.66	44651.86
753.84	44651.86
754.03	44703.06
754.21	44246.36
754.40	44666.20
754.58	44670.29
754.77	44426.59
754.95	44156.25
755.14	44551.51
755.32	44545.37
755.51	44256.60
755.69	44197.21
755.88	44262.75
756.06	44203.36
756.24	44283.23
756.43	43984.22
756.61	44156.25
756.80	44303.71
756.98	44002.66
757.17	44041.57
757.35	44141.92
757.54	43826.53
757.72	44305.76
757.90	43693.41
758.09	43646.31
758.27	44154.21
758.46	43584.87
758.64	43863.39
758.83	44113.25
759.01	43769.19
759.19	44098.91
759.38	43763.04
759.56	44141.92
759.75	43969.89
759.93	43900.26
760.12	43199.85
760.30	43646.31
760.48	43625.83
760.67	43476.33
760.85	43505.00
761.04	43347.31
761.22	43437.42
761.40	43437.42
761.59	42694.00
761.77	43507.05
761.96	43314.54
762.14	43212.14
762.32	42988.91
762.51	43042.16
762.69	43199.85
762.88	43005.30
763.06	42880.37
763.24	43416.94
763.43	42923.38
763.61	42874.23
763.80	43271.53
763.98	42761.59
764.16	42890.61
764.35	42775.92
764.53	42315.13
764.72	42575.22
764.90	42259.84
765.08	42464.63
765.27	42937.71
765.45	42212.73
765.63	42450.30
765.82	42487.16
766.00	41928.06
766.18	42128.77
766.37	42501.50
766.55	42218.88
766.74	42222.97
766.92	42308.99
767.10	42145.15
767.29	41938.30
767.47	41534.85
767.65	42202.49
767.84	41655.68
768.02	42196.35
768.20	41592.20
768.39	41846.15
768.57	41940.35
768.75	41616.77
768.94	42091.90
769.12	41749.89
769.30	41805.19
769.49	41426.31
769.67	41680.26
769.85	41305.48
770.04	41481.61
770.22	41192.84
770.40	41338.25
770.59	41076.11
770.77	41268.62
770.95	41160.08
771.14	40723.86
771.32	41067.92
771.50	41010.57
771.69	40979.85
771.87	41426.31
772.05	40736.15
772.24	40588.69
772.42	40744.34
772.60	40994.19
772.78	40859.02
772.97	40545.69
773.15	41235.85
773.33	40793.49
773.52	40652.18
773.70	40658.32
773.88	40678.80
774.07	40687.00
774.25	40502.68
774.43	40996.24
774.61	40535.45
774.80	40762.77
774.98	40869.26
775.16	40336.79
775.34	40828.30
775.53	40332.70
775.71	40977.81
775.89	41000.33
776.08	40738.19
776.26	41538.95
776.44	41190.80
776.62	40824.21
776.81	40703.38
776.99	40875.41
777.17	40822.16
777.35	40744.34
777.54	41135.50
777.72	40783.25
777.90	41166.22
778.08	41303.43
778.27	41098.64
778.45	41454.98
778.63	41612.68
778.81	41072.01
779.00	41698.69
779.18	41295.24
779.36	41393.54
779.54	41522.57
779.73	41039.25
779.91	41508.23
780.09	41592.20
780.27	41829.76
780.46	41942.40
780.64	41829.76
780.82	41192.84
781.00	41375.11
781.19	42108.29
781.37	41719.17
781.55	41751.94
781.73	41725.32
781.91	41729.41
782.10	41651.59
782.28	42206.59
782.46	42059.13
782.64	42044.80
782.82	41549.19
783.01	41856.39
783.19	42188.16
783.37	41866.63
783.55	41706.88
783.74	42110.33
783.92	41766.27
784.10	42093.95
784.28	42112.38
784.46	42106.24
784.64	41737.60
784.83	42122.62
785.01	42096.00
785.19	42155.39
785.37	42114.43
785.55	41971.07
785.74	41817.47
785.92	41624.96
786.10	42184.06
786.28	41760.13
786.46	41575.81
786.64	41280.91
786.83	41504.13
787.01	41739.65
787.19	41596.29
787.37	41815.43
787.55	41860.48
787.74	41784.71
787.92	41629.06
788.10	41653.64
788.28	41368.97
788.46	41715.08
788.64	41264.52
788.82	41631.11
789.01	41231.75
789.19	41543.05
789.37	41166.22
789.55	41342.35
789.73	41325.96
789.91	41530.76
790.09	41373.06
790.28	41205.13
790.46	40824.21
790.64	41276.81
790.82	40805.78
791.00	40562.07
791.18	41031.05
791.36	40617.36
791.55	40863.12
791.73	41158.03
791.91	40437.14
792.09	40523.16
792.27	40396.18
792.45	40349.08
792.63	40445.33
792.81	40353.18
793.00	40101.28
793.18	39847.33
793.36	40175.00
793.54	39919.01
793.72	39792.03
793.90	39720.35
794.08	39642.53
794.26	39599.52
794.44	39361.96
794.62	39454.12
794.81	39587.24
794.99	39165.35
795.17	39091.63
795.35	39419.30
795.53	39288.23
795.71	39257.51
795.89	39175.59
796.07	38788.53
796.25	38747.57
796.43	38956.46
796.61	38438.33
796.80	38321.59
796.98	38354.36
797.16	38761.90
797.34	38458.81
797.52	38364.60
797.70	38258.10
797.88	38231.48
798.06	38102.46
798.24	38012.35
798.42	38348.21
798.60	37813.70
798.78	37926.33
798.96	37914.05
799.14	37699.01
799.32	37893.57
799.51	37217.74
799.69	37576.13
799.87	37656.00
800.05	37107.15
800.23	37506.50
800.41	37029.32
800.59	37137.87
800.77	36767.18
800.95	36711.89
801.13	36832.72
801.31	36763.09
801.49	36988.36
801.67	36767.18
801.85	36951.50
802.03	36507.09
802.21	36271.57
802.39	36523.47
802.57	36330.97
802.75	35939.80
802.93	36232.66
803.11	36107.74
803.29	35915.23
803.47	35802.59
803.65	35741.15
803.83	35993.05
804.01	35714.53
804.19	35380.71
804.37	35411.43
804.55	35284.45
804.73	35433.96
804.91	35448.29
805.09	35190.25
805.27	35149.29
805.45	35427.81
805.63	35050.99
805.81	35063.27
805.99	34745.84
806.17	35300.84
806.35	35196.39
806.53	34612.72
806.71	34653.68
806.89	34631.15
807.07	34321.91
807.25	34514.42
807.43	34319.86
807.61	34446.83
807.79	34514.42
807.97	33682.94
808.15	33930.75
808.33	34250.23
808.51	34229.75
808.69	33914.36
808.87	33873.40
809.05	33488.38
809.23	33652.22
809.41	33578.50
809.59	33359.36
809.77	33603.07
809.95	33377.79
810.13	33392.13
810.31	32992.78
810.49	33508.86
810.67	33306.12
810.84	33506.82
811.02	33267.20
811.20	32908.81
811.38	33263.11
811.56	32749.07
811.74	32820.75
811.92	32605.71
812.10	32843.27
812.28	32757.26
812.46	32697.87
812.64	32876.04
812.82	32275.99
813.00	32726.54
813.18	32513.55
813.36	32161.30
813.53	32015.90
813.71	32316.95
813.89	32099.86
814.07	32259.60
814.25	32282.13
814.43	31983.13
814.61	32114.20
814.79	31841.82
814.97	31739.42
815.15	31944.22
815.33	31417.89
815.50	31600.16
815.68	31759.90
815.86	31903.26
816.04	31548.96
816.22	31221.28
816.40	31352.35
816.58	31219.24
816.76	30887.46
816.94	31186.47
817.11	30996.01
817.29	31047.21
817.47	31077.93
817.65	30836.27
817.83	31133.22
818.01	30846.51
818.19	30891.56
818.37	30869.03
818.54	30660.14
818.72	30545.45
818.90	30690.86
819.08	30590.51
819.26	30750.25
819.44	30588.46
819.62	30547.50
819.80	30148.15
819.97	30660.14
820.15	30293.55
820.33	30101.04
820.51	30170.68
820.69	30064.18
820.87	30086.71
821.05	30185.01
821.22	30068.28
821.40	29869.62
821.58	29744.70
821.76	29722.17
821.94	30101.04
822.12	29638.20
822.29	29931.06
822.47	29843.00
822.65	30033.46
822.83	29574.72
823.01	29412.93
823.19	29204.03
823.36	29072.96
823.54	29154.88
823.72	29197.89
823.90	29081.16
824.08	29070.92
824.25	28982.85
824.43	28692.04
824.61	29077.06
824.79	29097.54
824.97	28945.99
825.15	29009.48
825.32	28853.83
825.50	28882.50
825.68	28560.97
825.86	28974.66
826.04	28859.98
826.21	28868.17
826.39	28575.31
826.57	28730.95
826.75	28507.72
826.93	28288.59
827.10	28311.12
827.28	28581.45
827.46	28479.05
827.64	28151.38
827.81	28100.18
827.99	28208.72
828.17	28380.75
828.35	27776.60
828.53	28085.84
828.70	28298.83
828.88	27924.05
829.06	28110.42
829.24	28055.12
829.41	28034.64
829.59	28016.21
829.77	28085.84
829.95	27958.87
830.12	27758.17
830.30	27620.95
830.48	27795.03
830.66	27690.59
830.84	27739.74
831.01	27780.70
831.19	27770.46
831.37	27702.87
831.55	27041.38
831.72	27041.38
831.90	27405.92
832.08	27477.60
832.25	27076.19
832.43	27121.25
832.61	27127.39
832.79	26938.98
832.96	27203.17
833.14	27111.01
833.32	27002.47
833.50	27266.66
833.67	26973.80
833.85	26857.06
834.03	26547.82
834.20	26846.82
834.38	26963.56
834.56	26885.73
834.74	26703.46
834.91	26594.92
835.09	26758.76
835.27	26482.28
835.44	26734.18
835.62	26291.82
835.80	26224.24
835.98	26605.16
836.15	26519.15
836.33	26359.41
836.51	26533.48
836.68	26312.30
836.86	26232.43
837.04	26404.46
837.21	26310.25
837.39	26400.37
837.57	26574.44
837.75	26453.61
837.92	25755.26
838.10	25859.70
838.28	25603.71
838.45	26154.61
838.63	25826.93
838.81	25802.36
838.98	25859.70
839.16	25538.17
839.34	25370.24
839.51	25730.68
839.69	25343.61
839.87	25458.30
840.04	25552.51
840.22	25704.06
840.40	25892.47
840.57	25060.99
840.75	25609.85
840.93	25269.89
841.10	25603.71
841.28	25441.92
841.46	25282.17
841.63	25394.81
841.81	25052.80
841.98	25106.05
842.16	25140.86
842.34	25329.28
842.51	25042.56
842.69	25192.06
842.87	24870.53
843.04	25022.08
843.22	24845.96
843.40	24708.74
843.57	24817.29
843.75	24694.41
843.92	24934.02
844.10	24675.98
844.28	24977.03
844.45	24927.88
844.63	24864.39
844.81	24809.09
844.98	24616.58
845.16	24667.78
845.33	24446.60
845.51	24385.16
845.69	24596.10
845.86	24573.58
846.04	24118.93
846.21	24383.12
846.39	24161.94
846.57	24206.99
846.74	24071.82
846.92	24014.48
847.09	24176.27
847.27	23879.32
847.45	24338.06
847.62	24063.63
847.80	24143.50
847.97	24370.83
848.15	23985.81
848.32	23838.36
848.50	23936.66
848.68	23738.01
848.85	23621.27
849.03	23473.82
849.20	23819.92
849.38	23746.20
849.56	23651.99
849.73	23527.06
849.91	23602.84
850.08	23748.25
850.26	23477.91
850.43	23279.26
850.61	23604.89
850.78	23078.56
850.96	23248.54
851.14	23219.87
851.31	23119.52
851.49	23023.26
851.66	23387.80
851.84	23232.16
852.01	23514.78
852.19	23246.49
852.36	23082.66
852.54	22918.82
852.71	23328.41
852.89	22826.66
853.07	22951.59
853.24	22916.77
853.42	23000.74
853.59	22978.21
853.77	22894.24
853.94	22949.54
854.12	23105.18
854.29	22970.02
854.47	22703.78
854.64	22503.08
854.82	22714.02
854.99	22873.76
855.17	22554.28
855.34	22541.99
855.52	22736.55
855.69	22779.56
855.87	22167.21
856.04	22120.11
856.22	22675.11
856.39	22263.47
856.57	22369.96
856.74	22429.35
856.92	22412.97
857.09	22355.63
857.27	22279.85
857.44	22357.67
857.62	22083.25
857.79	22314.67
857.97	22109.87
858.14	22312.62
858.32	21970.61
858.49	21974.70
858.67	22038.19
858.84	21896.88
859.02	21745.33
859.19	21794.48
859.37	21964.46
859.54	21788.34
859.72	22030.00
859.89	21661.37
860.06	21888.69
860.24	21434.04
860.41	21665.46
860.59	21620.41
860.76	21810.87
860.94	21292.73
861.11	21604.02
861.29	21286.59
861.46	21395.13
861.64	21053.12
861.81	21395.13
861.98	21280.44
862.16	21204.67
862.33	21186.24
862.51	21202.62
862.68	21262.01
862.86	21343.93
863.03	21243.58
863.21	20856.51
863.38	21257.92
863.55	21255.87
863.73	20860.61
863.90	21153.47
864.08	21219.00
864.25	20717.25
864.43	20747.97
864.60	20848.32
864.77	20704.96
864.95	20942.53
865.12	20389.58
865.30	20827.84
865.47	20512.46
865.64	20674.24
865.82	20717.25
865.99	20829.89
866.17	20483.78
866.34	20580.04
866.51	20395.72
866.69	20633.29
866.86	20598.47
867.04	20365.00
867.21	20383.43
867.38	20000.46
867.56	20225.74
867.73	19979.98
867.91	19924.69
868.08	20154.06
868.25	19971.79
868.43	20080.33
868.60	19922.64
868.78	19900.11
868.95	20205.26
869.12	19644.12
869.30	20025.04
869.47	20139.72
869.64	19748.56
869.82	19705.56
869.99	19840.72
870.16	19873.49
870.34	19640.02
870.51	19805.91
870.69	19500.76
870.86	19691.22
871.03	19820.24
871.21	19416.79
871.38	19752.66
871.55	19160.80
871.73	19211.99
871.90	19459.80
872.07	19384.02
872.25	19279.58
872.42	19300.06
872.59	19379.93
872.77	19074.78
872.94	19156.70
873.11	19244.76
873.29	19209.95
873.46	19082.97
873.63	19185.37
873.81	19054.30
873.98	18800.35
874.15	18743.01
874.33	18550.50
874.50	18769.63
874.67	18675.43
874.85	18487.01
875.02	18984.67
875.19	18573.03
875.37	18638.56
875.54	18374.38
875.71	18390.76
875.88	18212.59
876.06	18339.56
876.23	18165.48
876.40	18353.90
876.58	18220.78
876.75	18345.70
876.92	18218.73
877.10	18409.19
877.27	18321.13
877.44	18157.29
877.61	18161.39
877.79	17932.01
877.96	18005.74
878.13	17964.78
878.31	17923.82
878.48	17671.92
878.65	17757.94
878.82	17665.78
879.00	17805.04
879.17	17841.90
879.34	17862.38
879.51	17792.75
879.69	17612.53
879.86	17520.37
880.03	17522.42
880.21	17524.47
880.38	17495.80
880.55	17596.15
880.72	17200.89
880.90	17327.86
881.07	17520.37
881.24	17424.12
881.41	17440.50
881.59	17305.34
881.76	17305.34
881.93	17186.55
882.10	17137.40
882.28	17139.45
882.45	17235.70
882.62	16989.95
882.79	17204.99
882.96	16637.70
883.14	17143.55
883.31	17172.22
883.48	16953.09
883.65	16860.93
883.83	16844.54
884.00	17131.26
884.17	16951.04
884.34	16899.84
884.51	16987.90
884.69	16723.71
884.86	16557.83
885.03	17016.57
885.20	16748.29
885.38	16865.02
885.55	16699.14
885.72	16738.05
885.89	16531.20
886.06	16641.79
886.24	16670.47
886.41	16660.23
886.58	16811.78
886.75	16627.46
886.92	16414.47
887.10	16742.14
887.27	16156.43
887.44	16258.82
887.61	16652.03
887.78	16699.14
887.95	16529.16
888.13	16420.61
888.30	16559.88
888.47	16449.28
888.64	16430.85
888.81	16299.78
888.99	15922.96
889.16	15984.40
889.33	16269.06
889.50	16060.17
889.67	16193.29
889.84	15918.86
890.01	15925.00
890.19	16158.47
890.36	16140.04
890.53	16121.61
890.70	15660.82
890.87	16011.02
891.04	16082.70
891.22	15988.49
891.39	15845.13
891.56	15861.52
891.73	15582.99
891.90	15697.68
892.07	15795.98
892.24	15499.03
892.42	15619.86
892.59	15646.48
892.76	15628.05
892.93	15732.50
893.10	15660.82
893.27	15585.04
893.44	15415.06
893.61	15486.74
893.79	15644.43
893.96	15349.53
894.13	15339.29
894.30	15490.84
894.47	15290.13
894.64	15646.48
894.81	15490.84
894.98	15423.25
895.15	15531.80
895.33	15441.68
895.50	15335.19
895.67	15410.96
895.84	15523.60
896.01	15193.88
896.18	15195.93
896.35	15462.16
896.52	15208.22
896.69	15171.35
896.86	15566.61
897.04	15382.29
897.21	15314.71
897.38	15130.39
897.55	15292.18
897.72	15433.49
897.89	15347.48
898.06	15402.77
898.23	15099.67
898.40	15572.75
898.57	15216.41
898.74	15204.12
898.91	15220.50
899.08	15265.56
899.26	15329.05
899.43	15302.42
899.60	15066.91
899.77	15202.07
899.94	15247.13
900.11	15165.21
900.28	15157.02
900.45	15304.47
900.62	15298.33
900.79	15286.04
900.96	15173.40
901.13	15372.05
901.30	15218.46
901.47	15081.24
901.64	15134.49
901.81	15339.29
901.98	15009.56
902.15	15226.65
902.32	15204.12
902.49	15169.30
902.66	15099.67
902.83	15255.32
903.01	15171.35
903.18	15126.30
903.35	15128.35
903.52	15154.97
903.69	15320.85
903.86	15216.41
904.03	15331.09
904.20	15142.68
904.37	15177.50
904.54	15114.01
904.71	15040.28
904.88	15068.95
905.05	15159.06
905.22	15167.26
905.39	15163.16
905.56	15009.56
905.73	14780.19
905.90	15052.57
906.07	15236.89
906.24	15128.35
906.41	15134.49
906.58	15204.12
906.75	15163.16
906.92	14991.13
907.09	15054.62
907.26	14939.93
907.43	14886.68
907.60	15040.28
907.77	15169.30
907.93	15060.76
908.10	15009.56
908.27	15017.75
908.44	15118.11
908.61	14731.04
908.78	14747.42
908.95	15066.91
909.12	14950.17
909.29	15044.38
909.46	14794.53
909.63	14964.51
909.80	15027.99
909.97	15056.67
910.14	14882.59
910.31	14980.89
910.48	14855.97
910.65	14853.92
910.82	14827.29
910.99	14962.46
911.16	14888.73
911.33	14974.75
911.50	14808.86
911.66	14761.76
911.83	14935.84
912.00	14706.46
912.17	14724.90
912.34	14343.97
912.51	14569.25
912.68	14610.21
912.85	14487.33
913.02	14640.93
913.19	14448.42
913.36	14530.34
913.53	14753.57
913.70	14628.64
913.86	14626.59
914.03	14298.92
914.20	14602.02
914.37	14462.76
914.54	14581.54
914.71	14419.75
914.88	14274.34
915.05	14311.21
915.22	14264.10
915.39	14360.36
915.55	14085.93
915.72	14001.96
915.89	14141.22
916.06	14126.89
916.23	14227.24
916.40	13885.23
916.57	13948.72
916.74	13813.55
916.91	13934.38
917.07	13752.11
917.24	13725.49
917.41	13872.94
917.58	13885.23
917.75	13866.80
917.92	13721.39
918.09	13604.66
918.26	13848.36
918.42	13643.57
918.59	13481.78
918.76	13627.18
918.93	13369.14
919.10	13457.20
919.27	13346.61
919.44	13449.01
919.60	13305.65
919.77	13432.63
919.94	13160.25
920.11	13279.03
920.28	13254.45
920.45	13309.75
920.61	12930.87
920.78	13037.37
920.95	13111.10
921.12	12994.36
921.29	13137.72
921.46	12875.58
921.62	12848.96
921.79	12894.01
921.96	12689.21
922.13	12824.38
922.30	12613.44
922.47	12545.86
922.63	12681.02
922.80	12773.18
922.97	12668.73
923.14	12160.84
923.31	12441.41
923.47	12400.45
923.64	12463.94
923.81	12244.81
923.98	12502.85
924.15	12185.41
924.32	12316.48
924.48	12291.91
924.65	12169.03
924.82	12027.72
924.99	12087.11
925.15	11685.71
925.32	12027.72
925.49	11808.59
925.66	12093.26
925.83	11583.31
925.99	11908.94
926.16	11792.20
926.33	11820.88
926.50	11435.86
926.67	11779.92
926.83	11538.26
927.00	11403.09
927.17	11511.63
927.34	11196.25
927.50	11343.70
927.67	11466.58
927.84	11200.34
928.01	11087.70
928.17	10954.58
928.34	11126.61
928.51	11224.92
928.68	11120.47
928.84	11087.70
929.01	10813.28
929.18	10839.90
929.35	10899.29
929.51	11011.93
929.68	10635.10
929.85	10848.09
930.02	10843.99
930.18	10561.37
930.35	10657.63
930.52	10436.45
930.69	10418.02
930.85	10446.69
931.02	10391.39
931.19	10444.64
931.36	10544.99
931.52	10499.94
931.69	10469.22
931.86	10590.05
932.02	10260.32
932.19	10084.20
932.36	10272.61
932.53	10035.05
932.69	9946.98
932.86	10196.84
933.03	9924.46
933.19	9729.90
933.36	10014.57
933.53	9881.45
933.70	9811.82
933.86	9824.11
934.03	9805.67
934.20	9625.45
934.36	9639.79
934.53	9310.07
934.70	9383.79
934.86	9256.82
935.03	9273.20
935.20	9209.72
935.36	9129.84
935.53	8998.77
935.70	9080.69
935.86	8968.06
936.03	8759.16
936.20	8628.09
936.36	8828.79
936.53	8628.09
936.70	8544.13
936.86	8640.38
937.03	8470.40
937.20	8353.66
937.36	8370.05
937.53	8171.40
937.70	7966.60
937.86	8114.05
938.03	8060.80
938.20	8081.28
938.36	7901.06
938.53	7745.42
938.70	7544.72
938.86	7694.22
939.03	7542.67
939.20	7438.22
939.36	7360.40
939.53	7350.16
939.70	7507.85
939.86	7092.12
940.03	7061.40
940.19	6981.53
940.36	6793.11
940.53	6821.78
940.69	6686.62
940.86	6717.34
941.03	6668.19
941.19	6614.94
941.36	6502.30
941.52	6535.07
941.69	6457.25
941.86	6344.61
942.02	6225.82
942.19	6287.26
942.35	6150.05
942.52	6258.59
942.69	6119.33
942.85	6033.32
943.02	6137.76
943.18	6076.32
943.35	5988.26
943.52	6053.80
943.68	5818.28
943.85	5849.00
944.01	5742.50
944.18	5748.65
944.35	5674.92
944.51	5711.78
944.68	5513.13
944.84	5545.90
945.01	5537.71
945.17	5580.71
945.34	5527.47
945.51	5709.74
945.67	5459.88
945.84	5472.17
946.00	5384.11
946.17	5523.37
946.33	5371.82
946.50	5490.60
946.67	5394.35
946.83	5560.24
947.00	5500.84
947.16	5384.11
947.33	5382.06
947.49	5390.25
947.66	5273.52
947.82	5296.05
947.99	5328.81
948.16	5459.88
948.32	5349.29
948.49	5404.59
948.65	5502.89
948.82	5324.72
948.98	5533.61
949.15	5271.47
949.31	5244.85
949.48	5279.66
949.64	5470.12
949.81	5427.12
949.97	5480.36
950.14	5504.94
950.30	5361.58
950.47	5418.93
950.63	5541.80
950.80	5326.77
950.96	5480.36
951.13	5398.45
951.30	5377.97
951.46	5380.01
951.63	5527.47
951.79	5382.06
951.96	5574.57
952.12	5357.49
952.29	5500.84
952.45	5392.30
952.62	5478.32
952.78	5519.28
952.94	5429.17
953.11	5410.73
953.27	5394.35
953.44	5545.90
953.60	5584.81
953.77	5455.79
953.93	5543.85
954.10	5472.17
954.26	5513.13
954.43	5535.66
954.59	5742.50
954.76	5488.56
954.92	5603.24
955.09	5615.53
955.25	5468.08
955.42	5515.18
955.58	5699.50
955.75	5492.65
955.91	5494.70
956.07	5595.05
956.24	5556.14
956.40	5580.71
956.57	5728.17
956.73	5656.49
956.90	5461.93
957.06	5484.46
957.23	5547.95
957.39	5476.27
957.56	5498.80
957.72	5459.88
957.88	5588.91
958.05	5556.14
958.21	5642.15
958.38	5636.01
958.54	5603.24
958.71	5638.06
958.87	5588.91
959.03	5660.59
959.20	5627.82
959.36	5576.62
959.53	5543.85
959.69	5463.98
959.85	5627.82
960.02	5484.46
960.18	5660.59
960.35	5668.78
960.51	5511.08
960.68	5615.53
960.84	5633.96
961.00	5595.05
961.17	5597.10
961.33	5593.00
961.50	5492.65
961.66	5586.86
961.82	5640.11
961.99	5597.10
962.15	5492.65
962.31	5488.56
962.48	5523.37
962.64	5578.67
962.81	5550.00
962.97	5537.71
963.13	5533.61
963.30	5545.90
963.46	5425.07
963.62	5451.69
963.79	5562.28
963.95	5556.14
964.12	5451.69
964.28	5425.07
964.44	5492.65
964.61	5623.72
964.77	5556.14
964.93	5537.71
965.10	5353.39
965.26	5242.80
965.42	5420.97
965.59	5394.35
965.75	5408.69
965.92	5533.61
966.08	5361.58
966.24	5521.32
966.41	5316.53
966.57	5373.87
966.73	5371.82
966.90	5443.50
967.06	5474.22
967.22	5482.41
967.39	5306.29
967.55	5312.43
967.71	5351.34
967.88	5332.91
968.04	5423.02
968.20	5240.75
968.37	5257.14
968.53	5287.86
968.69	5238.70
968.85	5320.62
969.02	5316.53
969.18	5275.57
969.34	5156.79
969.51	5273.52
969.67	5375.92
969.83	5261.23
970.00	5257.14
970.16	5156.79
970.32	5134.26
970.48	5244.85
970.65	5048.24
970.81	5132.21
970.97	5124.02
971.14	4927.41
971.30	5248.94
971.46	5195.70
971.63	5132.21
971.79	5167.03
971.95	5095.35
972.11	5023.67
972.28	5210.03
972.44	5148.59
972.60	4861.88
972.76	4947.89
972.93	4890.55
973.09	4978.61
973.25	5109.68
973.42	5005.24
973.58	4980.66
973.74	5066.67
973.90	4960.18
974.07	4968.37
974.23	4968.37
974.39	5021.62
974.55	4997.04
974.72	4925.36
974.88	4876.21
975.04	4902.84
975.20	4931.51
975.37	5001.14
975.53	4786.10
975.69	4880.31
975.85	5021.62
976.01	4759.48
976.18	4915.12
976.34	4818.87
976.50	4859.83
976.66	4945.84
976.83	4622.27
976.99	4673.46
977.15	4835.25
977.31	4702.14
977.47	4863.93
977.64	4671.42
977.80	4698.04
977.96	4589.50
978.12	4861.88
978.29	4685.75
978.45	4706.23
978.61	4542.39
978.77	4669.37
978.93	4579.26
979.10	4622.27
979.26	4626.36
979.42	4526.01
979.58	4661.18
979.74	4583.35
979.91	4573.11
980.07	4472.76
980.23	4515.77
980.39	4480.96
980.55	4528.06
980.71	4511.68
980.88	4487.10
981.04	4417.47
981.20	4562.87
981.36	4493.24
981.52	4351.93
981.68	4263.87
981.85	4495.29
982.01	4450.24
982.17	4431.80
982.33	4388.80
982.49	4380.61
982.65	4425.66
982.82	4421.56
982.98	4392.89
983.14	4353.98
983.30	4329.41
983.46	4366.27
983.62	4405.18
983.79	4302.78
983.95	4356.03
984.11	4290.49
984.27	4396.99
984.43	4253.63
984.59	4251.58
984.75	4302.78
984.91	4296.64
985.08	4214.72
985.24	4261.82
985.40	4083.65
985.56	4249.54
985.72	4179.90
985.88	4237.25
986.04	4116.42
986.20	4134.85
986.37	4218.82
986.53	4071.36
986.69	4276.16
986.85	4112.32
987.01	4276.16
987.17	4175.81
987.33	4071.36
987.49	4071.36
987.65	4188.10
987.82	4085.70
987.98	4007.87
988.14	4009.92
988.30	4079.55
988.46	4122.56
988.62	3925.96
988.78	4073.41
988.94	3989.44
989.10	3825.61
989.26	3866.56
989.42	3905.48
989.59	3805.13
989.75	3911.62
989.91	3932.10
990.07	3723.21
990.23	3862.47
990.39	3844.04
990.55	3846.09
990.71	3780.55
990.87	3844.04
991.03	3936.20
991.19	3786.69
991.35	3749.83
991.51	3743.69
991.67	3901.38
991.83	3706.82
992.00	3770.31
992.16	3850.18
992.32	3798.98
992.48	3735.50
992.64	3645.38
992.80	3835.85
992.96	3815.37
993.12	3739.59
993.28	3815.37
993.44	3731.40
993.60	3741.64
993.76	3637.19
993.92	3694.54
994.08	3776.45
994.24	3696.58
994.40	3614.66
994.56	3733.45
994.72	3682.25
994.88	3547.08
995.04	3633.10
995.20	3538.89
995.36	3502.03
995.52	3704.78
995.68	3432.40
995.84	3489.74
996.00	3661.77
996.16	3413.96
996.32	3426.25
996.48	3491.79
996.64	3532.75
996.80	3434.44
996.96	3551.18
997.12	3444.68
997.28	3573.71
997.44	3346.38
997.60	3495.88
997.76	3510.22
997.92	3491.79
998.08	3456.97
998.24	3373.00
998.40	3395.53
998.56	3559.37
998.72	3315.66
998.88	3321.81
999.04	3401.68
999.20	3557.32
999.36	3264.46
999.52	3506.12
999.68	3360.72
999.84	3352.52
1000.00	3393.48
1000.16	3350.48
1000.32	3217.36
1000.48	3456.97
1000.64	3284.94
1000.80	3215.31
1000.95	3168.21
1001.11	3325.90
1001.27	3108.82
1001.43	3311.57
1001.59	3205.07
1001.75	3246.03
1001.91	3227.60
1002.07	3264.46
1002.23	3200.98
1002.39	3217.36
1002.55	3258.32
1002.71	3223.50
1002.87	3160.02
1003.03	3125.20
1003.19	3080.14
1003.34	3133.39
1003.50	3035.09
1003.66	3198.93
1003.82	3133.39
1003.98	3002.32
1004.14	3033.04
1004.30	3098.58
1004.46	3055.57
1004.62	3121.10
1004.78	2955.22
1004.94	3020.75
1005.09	3061.71
1005.25	3043.28
1005.41	3051.47
1005.57	3020.75
1005.73	2955.22
1005.89	3051.47
1006.05	3049.43
1006.21	3037.14
1006.37	3018.71
1006.52	2957.27
1006.68	2861.01
1006.84	3090.38
1007.00	2895.83
1007.16	2901.97
1007.32	2940.88
1007.48	2901.97
1007.64	2883.54
1007.79	2920.40
1007.95	2852.82
1008.11	2922.45
1008.27	2908.12
1008.43	2922.45
1008.59	2897.88
1008.75	2916.31
1008.91	2852.82
1009.06	2854.87
1009.22	2863.06
1009.38	2838.48
1009.54	2850.77
1009.70	2770.90
1009.86	2830.29
1010.01	2979.79
1010.17	2854.87
1010.33	2764.76
1010.49	2691.03
1010.65	2861.01
1010.81	2766.81
1010.96	2838.48
1011.12	2754.52
1011.28	2748.37
1011.44	2770.90
1011.60	2713.56
1011.76	2738.13
1011.91	2772.95
1012.07	2656.22
1012.23	2613.21
1012.39	2613.21
1012.55	2734.04
1012.71	2654.17
1012.86	2682.84
1013.02	2715.61
1013.18	2596.82
1013.34	2623.45
1013.50	2764.76
1013.65	2754.52
1013.81	2541.53
1013.97	2557.91
1014.13	2650.07
1014.29	2559.96
1014.44	2674.65
1014.60	2578.39
1014.76	2592.73
1014.92	2531.29
1015.07	2553.82
1015.23	2613.21
1015.39	2537.43
1015.55	2551.77
1015.71	2658.26
1015.86	2527.19
1016.02	2521.05
1016.18	2451.42
1016.34	2516.95
1016.49	2519.00
1016.65	2514.91
1016.81	2553.82
1016.97	2512.86
1017.12	2525.15
1017.28	2445.27
1017.44	2496.47
1017.60	2465.75
1017.75	2486.23
1017.91	2512.86
1018.07	2512.86
1018.23	2484.19
1018.38	2453.47
1018.54	2492.38
1018.70	2389.98
1018.86	2357.21
1019.01	2385.88
1019.17	2437.08
1019.33	2535.39
1019.49	2432.99
1019.64	2420.70
1019.80	2527.19
1019.96	2398.17
1020.12	2435.03
1020.27	2289.63
1020.43	2420.70
1020.59	2371.55
1020.74	2369.50
1020.90	2377.69
1021.06	2314.20
1021.22	2328.54
1021.37	2344.92
1021.53	2297.82
1021.69	2365.40
1021.84	2224.09
1022.00	2306.01
1022.16	2355.16
1022.31	2269.15
1022.47	2379.74
1022.63	2394.08
1022.79	2238.43
1022.94	2377.69
1023.10	2402.27
1023.26	2320.35
1023.41	2291.68
1023.57	2215.90
1023.73	2334.68
1023.88	2260.96
1024.04	2254.81
1024.20	2220.00
1024.35	2353.12
1024.51	2301.92
1024.67	2240.48
1024.82	2312.16
1024.98	2244.57
1025.14	2215.90
1025.29	2125.79
1025.45	2263.01
1025.61	2072.54
1025.76	2170.85
1025.92	2183.13
1026.08	2258.91
1026.23	2226.14
1026.39	2222.05
1026.55	2183.13
1026.70	2170.85
1026.86	2189.28
1027.02	2215.90
1027.17	2150.37
1027.33	2236.38
1027.48	2160.61
1027.64	2273.25
1027.80	2142.18
1027.95	2217.95
1028.11	2154.46
1028.27	2113.50
1028.42	2154.46
1028.58	2117.60
1028.73	2195.42
1028.89	2107.36
1029.05	2179.04
1029.20	2164.70
>>>>>End Processed Spectral Data<<<<<
