SpectraSuite Data File
++++++++++++++++++++++++++++++++++++
Date: Fri Jun 02 14:51:08 CEST 2017
User: INFO_000
Dark Spectrum Present: No
Reference Spectrum Present: No
Number of Sampled Component Spectra: 1
Spectrometers: USB4H00879
Integration Time (usec): 80000 (USB4H00879)
Spectra Averaged: 1 (USB4H00879)
Boxcar Smoothing: 0 (USB4H00879)
Correct for Electrical Dark: No (USB4H00879)
Strobe/Lamp Enabled: No (USB4H00879)
Correct for Detector Non-linearity: No (USB4H00879)
Correct for Stray Light: No (USB4H00879)
Number of Pixels in Processed Spectrum: 3648
>>>>>Begin Processed Spectral Data<<<<<
345.13	1349.61
345.34	1349.61
345.56	1349.61
345.78	1224.69
345.99	1277.93
346.21	1738.73
346.42	1652.71
346.64	1675.24
346.86	1804.26
347.07	1585.13
347.29	1644.52
347.50	1611.75
347.72	1687.53
347.94	1769.44
348.15	1628.14
348.37	1634.28
348.59	1722.34
348.80	1658.85
349.02	1691.62
349.23	1877.99
349.45	1875.94
349.67	1953.76
349.88	1769.44
350.10	1916.90
350.31	1822.69
350.53	1816.55
350.75	1943.52
350.96	1808.36
351.18	1818.60
351.39	1830.88
351.61	1798.12
351.82	1968.10
352.04	1943.52
352.26	1787.88
352.47	1949.67
352.69	1951.71
352.90	1734.63
353.12	1822.69
353.34	1773.54
353.55	1980.39
353.77	1900.52
353.98	1908.71
354.20	1820.64
354.41	1918.95
354.63	1980.39
354.85	1953.76
355.06	1990.63
355.28	1769.44
355.49	1914.85
355.71	1869.80
355.92	1814.50
356.14	1904.61
356.35	1818.60
356.57	1863.65
356.79	1886.18
357.00	1828.84
357.22	1951.71
357.43	1822.69
357.65	1955.81
357.86	1808.36
358.08	1888.23
358.29	1890.28
358.51	1937.38
358.72	1994.72
358.94	1841.12
359.16	1955.81
359.37	1927.14
359.59	1937.38
359.80	1982.43
360.02	1920.99
360.23	1970.15
360.45	1976.29
360.66	1947.62
360.88	1828.84
361.09	1912.80
361.31	1992.67
361.52	1986.53
361.74	2054.11
361.95	2009.06
362.17	1886.18
362.38	2027.49
362.60	2021.35
362.81	1970.15
363.03	1976.29
363.24	1972.19
363.46	2070.50
363.67	2002.91
363.89	1974.24
364.10	2060.26
364.32	2002.91
364.53	2017.25
364.75	1861.60
364.96	1988.58
365.18	1976.29
365.39	1943.52
365.61	1888.23
365.82	2062.30
366.04	1984.48
366.25	1994.72
366.47	2062.30
366.68	2056.16
366.90	1894.37
367.11	1990.63
367.33	2039.78
367.54	2086.88
367.76	1961.95
367.97	2164.70
368.19	1988.58
368.40	2031.58
368.62	1974.24
368.83	1964.00
369.05	2066.40
369.26	1972.19
369.48	2013.15
369.69	2058.21
369.91	1957.86
370.12	2021.35
370.33	2125.79
370.55	1994.72
370.76	2025.44
370.98	2033.63
371.19	2041.82
371.41	2131.94
371.62	2074.59
371.84	2013.15
372.05	2213.85
372.27	2021.35
372.48	2076.64
372.69	2172.89
372.91	2154.46
373.12	2181.09
373.34	2066.40
373.55	2181.09
373.77	2211.81
373.98	2093.02
374.20	2183.13
374.41	2084.83
374.62	2093.02
374.84	2174.94
375.05	2107.36
375.27	2195.42
375.48	2117.60
375.70	2105.31
375.91	2256.86
376.12	2316.25
376.34	2115.55
376.55	2119.65
376.77	2189.28
376.98	2138.08
377.19	2093.02
377.41	2064.35
377.62	2179.04
377.84	2168.80
378.05	2287.58
378.27	2181.09
378.48	2236.38
378.69	2330.59
378.91	2367.45
379.12	2209.76
379.34	2205.66
379.55	2254.81
379.76	2205.66
379.98	2164.70
380.19	2197.47
380.41	2336.73
380.62	2246.62
380.83	2228.19
381.05	2197.47
381.26	2396.12
381.47	2189.28
381.69	2154.46
381.90	2408.41
382.12	2281.44
382.33	2281.44
382.54	2301.92
382.76	2265.05
382.97	2373.60
383.19	2254.81
383.40	2289.63
383.61	2240.48
383.83	2252.77
384.04	2279.39
384.25	2318.30
384.47	2301.92
384.68	2277.34
384.89	2306.01
385.11	2322.40
385.32	2232.29
385.54	2357.21
385.75	2267.10
385.96	2371.55
386.18	2435.03
386.39	2385.88
386.60	2437.08
386.82	2361.31
387.03	2361.31
387.24	2475.99
387.46	2336.73
387.67	2373.60
387.88	2369.50
388.10	2475.99
388.31	2379.74
388.52	2494.43
388.74	2492.38
388.95	2410.46
389.16	2506.71
389.38	2441.18
389.59	2494.43
389.80	2539.48
390.02	2496.47
390.23	2562.01
390.44	2537.43
390.66	2521.05
390.87	2379.74
391.08	2473.95
391.30	2639.83
391.51	2541.53
391.72	2680.79
391.94	2535.39
392.15	2619.35
392.36	2660.31
392.58	2555.86
392.79	2602.97
393.00	2633.69
393.22	2662.36
393.43	2580.44
393.64	2789.33
393.85	2664.41
394.07	2664.41
394.28	2723.80
394.49	2650.07
394.71	2766.81
394.92	2719.70
395.13	2688.98
395.35	2711.51
395.56	2656.22
395.77	2637.78
395.98	2783.19
396.20	2779.09
396.41	2748.37
396.62	2758.61
396.84	2811.86
397.05	2787.29
397.26	2719.70
397.47	2918.36
397.69	2723.80
397.90	2951.12
398.11	2875.35
398.32	2820.05
398.54	2893.78
398.75	2848.72
398.96	2861.01
399.18	3045.33
399.39	2891.73
399.60	2965.46
399.81	2787.29
400.03	2957.27
400.24	3198.93
400.45	2901.97
400.66	3030.99
400.88	2969.55
401.09	3059.67
401.30	2844.63
401.51	3121.10
401.73	3016.66
401.94	3057.62
402.15	3194.83
402.36	3106.77
402.58	3071.95
402.79	3194.83
403.00	3112.91
403.21	3123.15
403.43	3119.06
403.64	3356.62
403.85	3018.71
404.06	3137.49
404.27	3037.14
404.49	3100.62
404.70	3164.11
404.91	3198.93
405.12	3157.97
405.34	3149.78
405.55	3311.57
405.76	3104.72
405.97	3086.29
406.19	3291.09
406.40	3084.24
406.61	3182.54
406.82	3342.28
407.03	3213.26
407.25	3196.88
407.46	3440.59
407.67	3379.15
407.88	3348.43
408.09	3223.50
408.31	3227.60
408.52	3364.81
408.73	3196.88
408.94	3229.65
409.15	3370.96
409.37	3465.16
409.58	3377.10
409.79	3403.72
410.00	3456.97
410.21	3434.44
410.43	3452.88
410.64	3313.61
410.85	3538.89
411.06	3469.26
411.27	3565.51
411.48	3518.41
411.70	3379.15
411.91	3438.54
412.12	3444.68
412.33	3563.47
412.54	3485.64
412.76	3514.31
412.97	3483.59
413.18	3446.73
413.39	3581.90
413.60	3610.57
413.81	3598.28
414.03	3557.32
414.24	3579.85
414.45	3686.34
414.66	3545.03
414.87	3674.06
415.08	3567.56
415.30	3622.86
415.51	3657.67
415.72	3567.56
415.93	3682.25
416.14	3725.26
416.35	3633.10
416.56	3694.54
416.78	3674.06
416.99	3684.30
417.20	3700.68
417.41	3729.35
417.62	3764.17
417.83	3731.40
418.04	3745.73
418.26	3833.80
418.47	3727.30
418.68	3809.22
418.89	3731.40
419.10	3950.53
419.31	3905.48
419.52	3833.80
419.73	3798.98
419.95	3891.14
420.16	3854.28
420.37	3772.36
420.58	3844.04
420.79	3805.13
421.00	3928.00
421.21	3846.09
421.42	3860.42
421.63	3907.52
421.85	4024.26
422.06	4095.94
422.27	4050.88
422.48	4136.90
422.69	4020.16
422.90	4014.02
423.11	4112.32
423.32	4159.42
423.53	4227.01
423.75	4192.19
423.96	4296.64
424.17	4243.39
424.38	4306.88
424.59	4317.12
424.80	4360.13
425.01	4235.20
425.22	4300.73
425.43	4231.10
425.64	4458.43
425.85	4456.38
426.06	4435.90
426.28	4394.94
426.49	4302.78
426.70	4356.03
426.91	4353.98
427.12	4417.47
427.33	4505.53
427.54	4384.70
427.75	4587.45
427.96	4691.90
428.17	4505.53
428.38	4603.83
428.59	4640.70
428.80	4562.87
429.01	4730.81
429.23	4614.07
429.44	5068.72
429.65	4804.53
429.86	4843.45
430.07	4736.95
430.28	4509.63
430.49	4677.56
430.70	4839.35
430.91	5050.29
431.12	4806.58
431.33	4999.09
431.54	4931.51
431.75	4913.08
431.96	5040.05
432.17	5019.57
432.38	4970.42
432.59	5144.50
432.80	5048.24
433.01	5121.97
433.22	5173.17
433.43	5234.61
433.64	5179.31
433.85	5173.17
434.06	5259.18
434.27	5175.22
434.49	5199.79
434.70	5369.77
434.91	5265.33
435.12	5308.34
435.33	5283.76
435.54	5365.68
435.75	5197.74
435.96	5345.20
436.17	5357.49
436.38	5433.26
436.59	5443.50
436.80	5322.67
437.01	5644.20
437.22	5717.93
437.43	5613.48
437.64	5474.22
437.85	5613.48
438.06	5674.92
438.27	5527.47
438.48	5621.67
438.69	5709.74
438.90	5758.89
439.11	5603.24
439.32	5840.81
439.53	5736.36
439.74	5752.74
439.95	5627.82
440.16	5748.65
440.37	5808.04
440.57	5681.07
440.78	5990.31
440.99	5846.95
441.20	5861.29
441.41	5861.29
441.62	5855.14
441.83	5705.64
442.04	5855.14
442.25	5808.04
442.46	5935.01
442.67	5996.45
442.88	6389.66
443.09	5957.54
443.30	5869.48
443.51	5969.83
443.72	6162.34
443.93	5908.39
444.14	6360.99
444.35	6057.89
444.56	6080.42
444.77	6156.19
444.98	6223.78
445.19	6254.50
445.40	6246.30
445.61	6162.34
445.81	6293.41
446.02	6266.78
446.23	6447.01
446.44	6141.86
446.65	6317.98
446.86	6322.08
447.07	6338.46
447.28	6610.84
447.49	6434.72
447.70	6467.49
447.91	6545.31
448.12	6432.67
448.33	6573.98
448.54	6467.49
448.74	6563.74
448.95	6594.46
449.16	6485.92
449.37	6825.88
449.58	6459.29
449.79	6877.08
450.00	6516.64
450.21	6764.44
450.42	6778.78
450.63	6688.67
450.84	6811.54
451.05	6836.12
451.25	6713.24
451.46	6612.89
451.67	6811.54
451.88	6973.33
452.09	6854.55
452.30	6764.44
452.51	7012.24
452.72	7069.59
452.93	7217.04
453.13	6956.95
453.34	7022.48
453.55	6883.22
453.76	7028.63
453.97	7282.58
454.18	7073.68
454.39	7341.97
454.60	7126.93
454.81	7288.72
455.01	7421.84
455.22	7085.97
455.43	7245.71
455.64	7409.55
455.85	7530.38
456.06	7440.27
456.27	7405.46
456.48	7524.24
456.68	7589.77
456.89	7546.76
457.10	7534.48
457.31	7610.25
457.52	7589.77
457.73	7626.64
457.94	7753.61
458.14	7565.20
458.35	8005.51
458.56	7866.25
458.77	7759.75
458.98	7763.85
459.19	7841.67
459.39	7878.54
459.60	7964.55
459.81	7896.97
460.02	8058.76
460.23	8089.48
460.44	8087.43
460.65	8077.19
460.85	8183.68
461.06	8245.12
461.27	8060.80
461.48	8484.73
461.69	8327.04
461.89	8273.79
462.10	8384.38
462.31	8390.53
462.52	8318.85
462.73	8421.25
462.94	8785.79
463.14	8556.41
463.35	8494.97
463.56	8912.76
463.77	8646.52
463.98	8517.50
464.18	8861.56
464.39	8826.75
464.60	8951.67
464.81	8970.10
465.02	9045.88
465.23	9252.72
465.43	9166.71
465.64	9330.55
465.85	9084.79
466.06	9148.28
466.27	9604.97
466.47	9475.95
466.68	9434.99
466.89	9408.37
467.10	9660.27
467.30	9502.58
467.51	9844.59
467.72	9854.83
467.93	9559.92
468.14	9684.84
468.34	9844.59
468.55	9969.51
468.76	9875.31
468.97	9918.31
469.17	10088.29
469.38	10243.94
469.59	10415.97
469.80	10045.29
470.01	10078.05
470.21	10444.64
470.42	10458.98
470.63	10674.01
470.84	10542.94
471.04	10616.67
471.25	10780.51
471.46	10762.08
471.67	10946.39
471.87	10868.57
472.08	11054.94
472.29	11263.83
472.50	10950.49
472.70	11065.18
472.91	11214.68
473.12	11335.51
473.33	11706.19
473.53	11648.85
473.74	11497.30
473.95	11814.73
474.16	11861.84
474.36	12060.49
474.57	11923.27
474.78	12244.81
474.99	12183.37
475.19	12144.45
475.40	12302.15
475.61	12396.35
475.81	12648.26
476.02	12851.00
476.23	12515.14
476.44	12861.24
476.64	12977.98
476.85	12967.74
477.06	12879.68
477.27	13283.13
477.47	13453.11
477.68	13455.15
477.89	13379.38
478.09	13655.86
478.30	13569.84
478.51	13807.41
478.71	13807.41
478.92	14067.50
479.13	14075.69
479.34	14128.94
479.54	13961.00
479.75	14212.90
479.96	14305.06
480.16	14319.40
480.37	14274.34
480.58	14769.95
480.78	14948.12
480.99	14931.74
481.20	14946.08
481.41	15195.93
481.61	14927.64
481.82	14886.68
482.03	15030.04
482.23	15331.09
482.44	15617.81
482.65	15646.48
482.85	15882.00
483.06	15888.14
483.27	15757.07
483.47	16043.79
483.68	16133.90
483.89	16115.47
484.09	16273.16
484.30	16207.62
484.51	16389.89
484.71	16441.09
484.92	16416.52
485.13	16510.72
485.33	16639.75
485.54	16672.51
485.75	16887.55
485.95	17166.07
486.16	17045.24
486.37	17338.10
486.57	17258.23
486.78	17262.33
486.98	17078.01
487.19	17444.60
487.40	17762.03
487.60	17764.08
487.81	17864.43
488.02	17776.37
488.22	17778.42
488.43	17923.82
488.64	18159.34
488.84	18048.75
489.05	18550.50
489.25	18151.15
489.46	18503.40
489.67	18306.79
489.87	18548.45
490.08	18716.39
490.29	18730.72
490.49	19091.16
490.70	19193.56
490.90	19093.21
491.11	18964.19
491.32	19207.90
491.52	18980.57
491.73	19259.10
491.94	19650.26
492.14	19259.10
492.35	19572.44
492.55	19803.86
492.76	19797.71
492.97	19771.09
493.17	19517.14
493.38	19932.88
493.58	20041.42
493.79	20168.40
494.00	20166.35
494.20	20541.13
494.41	20311.75
494.61	20426.44
494.82	20610.76
495.02	20436.68
495.23	20641.48
495.44	20758.21
495.64	21030.59
495.85	20975.30
496.05	21032.64
496.26	20821.70
496.47	21327.55
496.67	20836.03
496.88	21216.96
497.08	21022.40
497.29	21345.98
497.49	21370.55
497.70	21475.00
497.91	21569.21
498.11	21817.01
498.32	21419.71
498.52	21788.34
498.73	21833.39
498.93	21943.99
499.14	21835.44
499.34	22159.02
499.55	21896.88
499.76	22048.43
499.96	22095.53
500.17	22167.21
500.37	21995.18
500.58	21868.21
500.78	22326.96
500.99	22662.82
501.19	22349.48
501.40	22679.21
501.60	22273.71
501.81	22466.22
502.02	22705.83
502.22	22396.59
502.43	22933.15
502.63	23183.01
502.84	23244.45
503.04	22847.14
503.25	22945.44
503.45	22924.96
503.66	23045.79
503.86	22949.54
504.07	23129.76
504.27	23074.46
504.48	23506.59
504.68	23146.14
504.89	23754.39
505.09	23492.25
505.30	23733.91
505.50	23488.15
505.71	23635.61
505.91	23842.45
506.12	23623.32
506.32	23547.54
506.53	23869.08
506.73	24030.87
506.94	24096.40
507.14	24020.63
507.35	24088.21
507.55	24180.37
507.76	24161.94
507.96	23895.70
508.17	24049.30
508.37	24389.26
508.58	24094.35
508.78	24286.86
508.99	24825.48
509.19	24598.15
509.40	24626.82
509.60	24624.78
509.81	24817.29
510.01	24424.08
510.22	24688.26
510.42	24452.75
510.63	24686.22
510.83	24690.31
511.04	24589.96
511.24	25024.13
511.44	24888.96
511.65	24968.84
511.85	25177.73
512.06	24931.97
512.26	25366.14
512.47	25134.72
512.67	25357.95
512.88	25308.80
513.08	25112.19
513.29	25343.61
513.49	25476.73
513.69	25515.64
513.90	25507.45
514.10	25769.59
514.31	25575.03
514.51	25740.92
514.72	25990.77
514.92	25851.51
515.13	25988.72
515.33	25775.73
515.53	26009.20
515.74	26031.73
515.94	26138.23
516.15	26044.02
516.35	25857.65
516.56	26375.79
516.76	26048.11
516.96	26224.24
517.17	26490.48
517.37	26449.52
517.58	26250.86
517.78	26629.74
517.99	26572.39
518.19	26725.99
518.39	26746.47
518.60	26955.36
518.80	26930.79
519.01	27004.52
519.21	27156.07
519.41	27065.96
519.62	27258.46
519.82	27553.37
520.03	27577.95
520.23	27471.45
520.43	27418.21
520.64	27491.93
520.84	27973.21
521.05	27610.71
521.25	28036.69
521.45	27876.95
521.66	27897.43
521.86	27973.21
522.07	27833.94
522.27	28206.67
522.47	28210.77
522.68	28442.19
522.88	28360.27
523.08	28843.59
523.29	28347.98
523.49	28782.15
523.70	28655.18
523.90	28720.71
524.10	28839.50
524.31	29113.92
524.51	29136.45
524.71	29587.00
524.92	29048.39
525.12	29562.43
525.33	29556.28
525.53	29601.34
525.73	29875.77
525.94	30027.32
526.14	29849.14
526.34	30047.80
526.55	30025.27
526.75	30117.43
526.95	30334.51
527.16	30088.76
527.36	30449.20
527.56	30641.71
527.77	30948.90
527.97	30789.16
528.17	30850.60
528.38	31012.39
528.58	31145.51
528.78	31272.48
528.99	31385.12
529.19	31307.30
529.39	31055.40
529.60	31440.42
529.80	31284.77
530.00	31489.57
530.21	31575.58
530.41	32273.94
530.61	31796.76
530.82	32087.57
531.02	32249.36
531.22	32189.97
531.43	32339.47
531.63	32486.93
531.83	32742.92
532.04	33168.90
532.24	32622.09
532.44	33297.92
532.64	33060.36
532.85	33062.41
533.05	33273.35
533.25	33211.91
533.46	33519.10
533.66	33502.72
533.86	33476.10
534.07	33443.33
534.27	33682.94
534.47	34100.73
534.67	33949.18
534.88	33877.50
535.08	34098.68
535.28	34463.22
535.49	34467.31
535.69	34727.41
535.89	34618.86
536.09	34555.38
536.30	34766.32
536.50	34749.93
536.70	35247.59
536.91	35005.93
537.11	35436.00
537.31	35442.15
537.51	35448.29
537.72	35984.86
537.92	35624.42
538.12	36085.21
538.32	35726.81
538.53	35939.80
538.73	35712.48
538.93	36068.83
539.13	36029.91
539.34	36304.34
539.54	35948.00
539.74	36683.22
539.94	36548.05
540.15	36226.52
540.35	36703.70
540.55	36885.97
540.75	36754.90
540.96	36769.23
541.16	36943.31
541.36	36976.08
541.56	37119.43
541.77	37522.88
541.97	37207.50
542.17	37256.65
542.37	37723.58
542.58	37694.91
542.78	37359.05
542.98	37608.90
543.18	38014.40
543.38	38190.52
543.59	37834.17
543.79	37864.89
543.99	37967.29
544.19	37758.40
544.40	38124.99
544.60	38596.02
544.80	38196.67
545.00	38002.11
545.20	38874.54
545.41	38618.55
545.61	38471.09
545.81	38911.41
546.01	38774.19
546.21	38659.51
546.42	38360.50
546.62	38905.26
546.82	38780.34
547.02	39296.42
547.22	38888.88
547.43	38892.97
547.63	39095.72
547.83	39306.66
548.03	38925.74
548.23	39564.71
548.44	39435.69
548.64	39433.64
548.84	39515.56
549.04	39413.16
549.24	39474.60
549.45	39503.27
549.65	39437.73
549.85	39431.59
550.05	40183.19
550.25	39916.96
550.45	39929.25
550.66	40072.60
550.86	39615.91
551.06	40105.37
551.26	40068.51
551.46	39970.21
551.66	40170.91
551.87	40035.74
552.07	40531.35
552.27	39835.04
552.47	40500.63
552.67	40445.33
552.87	40482.20
553.07	40121.76
553.28	40179.10
553.48	40983.95
553.68	40168.86
553.88	40594.84
554.08	40592.79
554.28	41018.77
554.48	40369.56
554.69	40633.75
554.89	40670.61
555.09	40545.69
555.29	40428.95
555.49	40730.00
555.69	41198.99
555.89	40947.09
556.10	40711.57
556.30	40607.12
556.50	40904.08
556.70	40762.77
556.90	41026.96
557.10	40836.50
557.30	40897.94
557.50	41160.08
557.70	41223.56
557.91	41110.92
558.11	40877.46
558.31	40940.94
558.51	40975.76
558.71	41297.29
558.91	41201.04
559.11	40986.00
559.31	41328.01
559.51	41104.78
559.72	40822.16
559.92	41297.29
560.12	41246.09
560.32	41506.18
560.52	40897.94
560.72	41153.93
560.92	41254.28
561.12	41377.16
561.32	41823.62
561.52	40789.39
561.72	41477.51
561.93	41323.91
562.13	41330.06
562.33	41399.69
562.53	41751.94
562.73	41469.32
562.93	41639.30
563.13	41680.26
563.33	41477.51
563.53	41932.16
563.73	41160.08
563.93	41522.57
564.13	42073.47
564.33	41508.23
564.53	41524.61
564.74	41772.42
564.94	41147.79
565.14	41768.32
565.34	41594.25
565.54	41309.58
565.74	41899.39
565.94	41651.59
566.14	41702.79
566.34	41471.37
566.54	42202.49
566.74	41600.39
566.94	42073.47
567.14	42085.76
567.34	41842.05
567.54	42227.07
567.74	41776.51
567.94	41702.79
568.14	42300.79
568.34	41870.72
568.54	42001.79
568.74	42368.38
568.94	42235.26
569.14	42386.81
569.34	42030.46
569.54	42159.48
569.75	41907.58
569.95	41936.26
570.15	42440.06
570.35	42544.50
570.55	42536.31
570.75	42489.21
570.95	42308.99
571.15	42620.28
571.35	42200.44
571.55	42509.69
571.75	42358.14
571.95	42227.07
572.15	42339.71
572.35	42651.00
572.55	42618.23
572.75	42483.06
572.95	42798.45
573.15	42737.01
573.35	42395.00
573.55	42442.10
573.75	42913.14
573.95	43173.23
574.15	42640.76
574.35	42886.51
574.55	42591.61
574.75	42911.09
574.95	42814.83
575.15	42993.01
575.34	43193.71
575.54	43054.45
575.74	43402.60
575.94	43111.79
576.14	42906.99
576.34	43298.16
576.54	43472.23
576.74	43367.79
576.94	43285.87
577.14	43427.18
577.34	43613.54
577.54	43257.20
577.74	43636.07
577.94	43613.54
578.14	43795.81
578.34	44060.00
578.54	43390.31
578.74	43548.01
578.94	43695.46
579.14	43406.70
579.34	43844.96
579.54	43740.52
579.74	44229.98
579.94	44189.02
580.13	44266.84
580.33	44332.38
580.53	44016.99
580.73	43838.82
580.93	43955.55
581.13	44103.01
581.33	44633.43
581.53	44160.35
581.73	44615.00
581.93	44957.01
582.13	44725.59
582.33	44442.97
582.53	44746.07
582.73	44543.32
582.92	44776.79
583.12	44879.19
583.32	44971.35
583.52	44834.13
583.72	45589.83
583.92	44965.20
584.12	45157.71
584.32	45765.96
584.52	44926.29
584.72	45393.23
584.92	45823.30
585.11	46021.95
585.31	45614.41
585.51	45471.05
585.71	45651.27
585.91	45534.54
586.11	45710.66
586.31	45417.80
586.51	45743.43
586.71	45774.15
586.91	46304.57
587.10	45886.79
587.30	45991.23
587.50	46204.22
587.70	46218.56
587.90	46183.74
588.10	46431.55
588.30	46214.46
588.50	46923.06
588.69	46302.53
588.89	46093.63
589.09	46904.63
589.29	46935.35
589.49	47199.54
589.69	46495.03
589.89	46980.40
590.08	47119.66
590.28	47090.99
590.48	46691.64
590.68	46937.40
590.88	47314.22
591.08	47138.10
591.28	47052.08
591.47	47097.14
591.67	47672.62
591.87	47717.67
592.07	47602.99
592.27	47453.48
592.47	47953.19
592.67	47799.59
592.86	47674.66
593.06	47881.51
593.26	47877.41
593.46	47895.85
593.66	48188.70
593.86	48096.55
594.05	48317.73
594.25	48463.13
594.45	47623.47
594.65	48381.21
594.85	48108.83
595.05	48317.73
595.24	48661.79
595.44	48444.70
595.64	48907.54
595.84	48657.69
596.04	48903.45
596.23	48788.76
596.43	48631.07
596.63	48948.50
596.83	49206.55
597.03	49317.14
597.22	49679.63
597.42	49536.27
597.62	49300.75
597.82	49499.40
598.02	49540.36
598.21	49673.48
598.41	48796.95
598.61	49847.56
598.81	49579.28
599.01	49802.50
599.20	49702.15
599.40	49282.32
599.60	50056.45
599.80	49929.48
600.00	50304.26
600.19	50685.18
600.39	49806.60
600.59	50615.55
600.79	50404.61
600.98	50341.12
601.18	50423.04
601.38	50959.61
601.58	51029.24
601.78	50914.55
601.97	50738.43
602.17	51152.12
602.37	51150.07
602.57	50758.91
602.76	51477.74
602.96	51139.83
603.16	51580.14
603.36	51256.56
603.55	51621.10
603.75	51725.55
603.95	51844.33
604.15	51995.88
604.34	51461.36
604.54	52204.77
604.74	51707.12
604.94	51975.40
605.13	51877.10
605.33	51952.87
605.53	51967.21
605.73	52663.52
605.92	52376.80
606.12	52407.52
606.32	52487.39
606.52	52190.44
606.71	52665.56
606.91	53128.41
607.11	52503.77
607.30	52790.49
607.50	52788.44
607.70	52933.85
607.90	52870.36
608.09	52677.85
608.29	52638.94
608.49	53243.09
608.68	53087.45
608.88	53099.73
609.08	52956.38
609.28	52901.08
609.47	53224.66
609.67	54260.93
609.87	53439.70
610.06	53699.79
610.26	53095.64
610.46	53687.50
610.66	53241.04
610.85	53587.15
611.05	53232.85
611.25	53826.76
611.44	52974.81
611.64	53634.25
611.84	53400.79
612.03	53697.74
612.23	53699.79
612.43	53619.92
612.62	53687.50
612.82	53507.28
613.02	53730.51
613.21	53953.74
613.41	53748.94
613.61	53624.01
613.80	53499.09
614.00	54119.62
614.20	54136.01
614.39	54381.76
614.59	54260.93
614.79	54166.73
614.98	53990.60
615.18	54039.75
615.38	54670.53
615.57	54074.57
615.77	54310.08
615.97	54285.51
616.16	53986.50
616.36	53923.02
616.56	54326.47
616.75	54334.66
616.95	54449.35
617.15	53830.86
617.34	54506.69
617.54	54244.55
617.74	54480.06
617.93	54543.55
618.13	53744.84
618.32	54179.01
618.52	53986.50
618.72	54404.29
618.91	54449.35
619.11	53785.80
619.31	53988.55
619.50	53834.95
619.70	54099.14
619.90	54269.12
620.09	54271.17
620.29	54465.73
620.48	54080.71
620.68	54580.42
620.88	54148.29
621.07	53966.02
621.27	54084.81
621.46	54187.21
621.66	53992.65
621.86	54013.13
622.05	54068.42
622.25	54361.28
622.44	54465.73
622.64	54011.08
622.84	54551.74
623.03	53949.64
623.23	54248.64
623.42	54093.00
623.62	53697.74
623.82	54363.33
624.01	54371.52
624.21	54195.40
624.40	53892.30
624.60	53859.53
624.80	53779.66
624.99	54310.08
625.19	53781.71
625.38	53986.50
625.58	54066.38
625.77	54193.35
625.97	54015.18
626.17	53927.11
626.36	54025.42
626.56	54105.29
626.75	53411.02
626.95	54072.52
627.14	54080.71
627.34	54461.63
627.54	54060.23
627.73	53968.07
627.93	54056.14
628.12	54193.35
628.32	54357.19
628.51	53884.11
628.71	53978.31
628.90	53847.24
629.10	54136.01
629.30	54142.15
629.49	54129.86
629.69	54013.13
629.88	53865.67
630.08	54430.91
630.27	53982.41
630.47	54049.99
630.66	53458.13
630.86	54080.71
631.05	53376.21
631.25	54093.00
631.44	53890.25
631.64	53724.36
631.84	53843.15
632.03	53847.24
632.23	54015.18
632.42	54318.28
632.62	53761.23
632.81	54078.66
633.01	53816.52
633.20	53689.55
633.40	53884.11
633.59	53880.01
633.79	53501.14
633.98	54009.03
634.18	54234.31
634.37	53888.20
634.57	53843.15
634.76	53996.74
634.96	53740.75
635.15	53966.02
635.35	53638.35
635.54	53282.00
635.74	53978.31
635.93	53460.18
636.13	53951.69
636.32	53920.97
636.52	53499.09
636.71	53662.93
636.91	53630.16
637.10	53621.97
637.30	53433.55
637.49	53867.72
637.69	53871.82
637.88	53894.35
638.08	53388.50
638.27	53654.73
638.46	53402.83
638.66	53478.61
638.85	53146.84
639.05	53626.06
639.24	53443.79
639.44	53581.01
639.63	53404.88
639.83	53181.65
640.02	53679.31
640.22	53466.32
640.41	53744.84
640.61	53189.84
640.80	53621.97
640.99	52995.29
641.19	53982.41
641.38	53152.98
641.58	53648.59
641.77	53402.83
641.97	53314.77
642.16	53408.98
642.36	53824.71
642.55	54033.61
642.74	52929.75
642.94	53810.38
643.13	53408.98
643.33	53529.81
643.52	53912.78
643.72	53761.23
643.91	53656.78
644.10	53841.10
644.30	53400.79
644.49	53421.26
644.69	53335.25
644.88	53269.72
645.08	53109.97
645.27	53886.15
645.46	53089.49
645.66	53159.12
645.85	53189.84
646.05	53339.35
646.24	53753.04
646.43	53707.98
646.63	53875.91
646.82	53900.49
647.02	53466.32
647.21	53671.12
647.40	53636.30
647.60	53859.53
647.79	53966.02
647.99	53968.07
648.18	53474.51
648.37	53916.87
648.57	53589.20
648.76	53427.41
648.96	52823.26
649.15	53908.68
649.34	53511.38
649.54	53746.89
649.73	53570.77
649.92	53630.16
650.12	53927.11
650.31	53365.97
650.51	53730.51
650.70	53581.01
650.89	53363.92
651.09	54109.38
651.28	53546.19
651.47	53781.71
651.67	53601.49
651.86	54330.56
652.06	52939.99
652.25	53525.71
652.44	53320.91
652.64	53515.47
652.83	53388.50
653.02	53236.95
653.22	53394.64
653.41	53581.01
653.60	53454.03
653.80	53202.13
653.99	53781.71
654.18	53150.93
654.38	53499.09
654.57	53667.02
654.76	53505.23
654.96	53269.72
655.15	53533.90
655.34	53241.04
655.54	53077.21
655.73	53288.15
655.92	53329.11
656.12	53564.62
656.31	53576.91
656.50	53591.25
656.70	53574.86
656.89	53538.00
657.08	53761.23
657.28	53175.51
657.47	53386.45
657.66	53091.54
657.86	53232.85
658.05	53585.10
658.24	53572.81
658.43	53492.94
658.63	53589.20
658.82	53732.56
659.01	53777.61
659.21	53859.53
659.40	53834.95
659.59	53089.49
659.79	53933.26
659.98	53630.16
660.17	53654.73
660.36	53607.63
660.56	53511.38
660.75	53949.64
660.94	53769.42
661.14	53703.88
661.33	53408.98
661.52	53337.30
661.71	53511.38
661.91	53155.03
662.10	53193.94
662.29	53480.66
662.49	53728.46
662.68	53437.65
662.87	53697.74
663.06	53662.93
663.26	53095.64
663.45	53767.37
663.64	53255.38
663.83	53849.29
664.03	54289.60
664.22	53523.66
664.41	53560.53
664.60	53232.85
664.80	53613.77
664.99	53398.74
665.18	53984.46
665.37	53734.60
665.57	54045.90
665.76	53681.36
665.95	53699.79
666.14	53667.02
666.34	53947.59
666.53	52999.38
666.72	53458.13
666.91	53701.84
667.11	53089.49
667.30	53558.48
667.49	53394.64
667.68	53341.39
667.87	53476.56
668.07	53595.34
668.26	53482.70
668.45	53587.15
668.64	53462.22
668.84	53851.34
669.03	53499.09
669.22	53703.88
669.41	53724.36
669.60	53705.93
669.80	53619.92
669.99	53660.88
670.18	53716.17
670.37	53458.13
670.57	53949.64
670.76	53603.53
670.95	53570.77
671.14	53464.27
671.33	53109.97
671.53	54228.16
671.72	53847.24
671.91	53447.89
672.10	53263.57
672.29	53581.01
672.48	53703.88
672.68	54031.56
672.87	53437.65
673.06	53320.91
673.25	53447.89
673.44	53513.42
673.64	53456.08
673.83	53648.59
674.02	53650.64
674.21	53150.93
674.40	53556.43
674.59	53173.46
674.79	53744.84
674.98	53294.29
675.17	53693.64
675.36	53482.70
675.55	53681.36
675.74	53314.77
675.94	52997.34
676.13	53370.07
676.32	53916.87
676.51	54289.60
676.70	53656.78
676.89	53361.87
677.08	53744.84
677.28	53558.48
677.47	54025.42
677.66	53785.80
677.85	53900.49
678.04	53695.69
678.23	54174.92
678.42	53839.05
678.62	53828.81
678.81	54551.74
679.00	53687.50
679.19	54064.33
679.38	54086.85
679.57	53714.12
679.76	53798.09
679.96	54205.64
680.15	53572.81
680.34	53748.94
680.53	53630.16
680.72	53912.78
680.91	54142.15
681.10	53658.83
681.29	54031.56
681.48	53832.91
681.68	53908.68
681.87	53503.18
682.06	53619.92
682.25	53839.05
682.44	53497.04
682.63	53486.80
682.82	53798.09
683.01	53867.72
683.20	53687.50
683.39	53796.04
683.59	53531.86
683.78	53818.57
683.97	53515.47
684.16	53679.31
684.35	53630.16
684.54	53968.07
684.73	53853.39
684.92	53314.77
685.11	53806.28
685.30	53492.94
685.49	54054.09
685.69	53638.35
685.88	53753.04
686.07	53916.87
686.26	53658.83
686.45	54191.30
686.64	53558.48
686.83	53894.35
687.02	53728.46
687.21	53724.36
687.40	53722.32
687.59	53757.13
687.78	53454.03
687.97	53691.60
688.16	53273.81
688.35	53472.46
688.54	53443.79
688.74	54060.23
688.93	54056.14
689.12	53871.82
689.31	53744.84
689.50	53624.01
689.69	53451.98
689.88	53032.15
690.07	53785.80
690.26	53263.57
690.45	54181.06
690.64	53306.58
690.83	53933.26
691.02	53386.45
691.21	53251.28
691.40	53617.87
691.59	53570.77
691.78	53636.30
691.97	53621.97
692.16	53462.22
692.35	54031.56
692.54	53853.39
692.73	53822.67
692.92	53562.57
693.11	53517.52
693.30	53730.51
693.49	53908.68
693.68	53804.24
693.87	53322.96
694.06	53198.04
694.25	53294.29
694.44	53337.30
694.63	53634.25
694.82	53773.52
695.01	53847.24
695.20	53302.48
695.39	53128.41
695.58	53734.60
695.77	53390.55
695.96	53742.80
696.15	53750.99
696.34	53482.70
696.53	53777.61
696.72	53462.22
696.91	53220.56
697.10	54037.70
697.29	53513.42
697.48	53343.44
697.67	53593.29
697.86	53290.19
698.05	53462.22
698.24	53769.42
698.43	53202.13
698.62	53294.29
698.81	53490.90
699.00	53888.20
699.19	53384.40
699.38	53427.41
699.57	52993.24
699.76	53691.60
699.95	53454.03
700.14	53415.12
700.32	52944.09
700.51	53155.03
700.70	53626.06
700.89	53597.39
701.08	53576.91
701.27	53175.51
701.46	53308.63
701.65	52829.40
701.84	53247.19
702.03	53290.19
702.22	53032.15
702.41	53071.06
702.60	53052.63
702.79	52880.60
702.98	53073.11
703.17	53365.97
703.35	52743.39
703.54	52751.58
703.73	52933.85
703.92	53370.07
704.11	52843.74
704.30	52276.45
704.49	53001.43
704.68	52497.63
704.87	52692.19
705.06	52698.33
705.25	52493.54
705.43	52544.73
705.62	52722.91
705.81	52514.01
706.00	52991.19
706.19	52686.04
706.38	52565.21
706.57	52808.92
706.76	52333.79
706.95	52878.55
707.14	52167.91
707.32	52720.86
707.51	52262.11
707.70	52212.96
707.89	52358.37
708.08	52528.35
708.27	53050.58
708.46	52587.74
708.65	52292.83
708.84	53030.10
709.02	52260.07
709.21	52737.24
709.40	52858.07
709.59	52483.30
709.78	51948.78
709.97	52425.95
710.16	52223.20
710.34	52325.60
710.53	52362.46
710.72	51977.45
710.91	52468.96
711.10	51942.63
711.29	52126.95
711.48	52159.72
711.66	51901.67
711.85	51924.20
712.04	52045.03
712.23	52098.28
712.42	51827.95
712.61	52133.09
712.80	51836.14
712.98	52430.05
713.17	51856.62
713.36	51950.82
713.55	51989.73
713.74	51801.32
713.93	51989.73
714.11	51946.73
714.30	51608.81
714.49	51524.85
714.68	51647.72
714.87	51746.03
715.06	51852.52
715.24	51420.40
715.43	51606.76
715.62	51530.99
715.81	51485.93
716.00	51653.87
716.18	51543.28
716.37	51057.91
716.56	51289.33
716.75	51660.01
716.94	51342.58
717.12	51258.61
717.31	51088.63
717.50	50683.13
717.69	51320.05
717.88	51639.53
718.06	51139.83
718.25	51395.82
718.44	50771.19
718.63	51062.00
718.82	50662.65
719.00	50844.92
719.19	50859.26
719.38	50367.74
719.57	50257.15
719.76	50451.71
719.94	50539.77
720.13	50111.75
720.32	50275.58
720.51	50066.69
720.69	50441.47
720.88	50453.76
721.07	50476.29
721.26	49980.68
721.44	50224.39
721.63	49835.27
721.82	49634.57
722.01	49837.32
722.20	49741.06
722.38	49784.07
722.57	49538.32
722.76	49483.02
722.95	49495.31
723.13	49022.23
723.32	49241.36
723.51	49048.85
723.70	49110.29
723.88	49530.12
724.07	49321.23
724.26	49491.21
724.44	48813.34
724.63	49356.05
724.82	49192.21
725.01	48928.02
725.19	49212.69
725.38	48946.45
725.57	48854.29
725.76	49001.75
725.94	48829.72
726.13	48837.91
726.32	48858.39
726.51	48293.15
726.69	48983.32
726.88	48815.38
727.07	48665.88
727.25	48684.31
727.44	48805.14
727.63	48471.32
727.82	48364.83
728.00	48395.55
728.19	48489.76
728.38	48563.48
728.56	48117.03
728.75	48772.38
728.94	48463.13
729.12	48534.81
729.31	48696.60
729.50	48467.23
729.69	48497.95
729.87	48545.05
730.06	48147.75
730.25	48162.08
730.43	48264.48
730.62	47953.19
730.81	48579.87
730.99	48471.32
731.18	47801.64
731.37	48377.12
731.55	48233.76
731.74	48399.65
731.93	48370.97
732.11	48293.15
732.30	47951.14
732.49	47682.86
732.67	48094.50
732.86	47818.02
733.05	47955.24
733.23	47938.85
733.42	48375.07
733.61	47760.68
733.79	48330.01
733.98	47924.52
734.17	47686.95
734.35	47537.45
734.54	47727.91
734.73	48239.90
734.91	47707.43
735.10	47437.10
735.29	48059.68
735.47	47455.53
735.66	47383.85
735.84	47607.08
736.03	47519.02
736.22	47936.80
736.40	47703.34
736.59	47125.81
736.78	47394.09
736.96	47043.89
737.15	47379.76
737.33	47340.85
737.52	47144.24
737.71	47289.65
737.89	47332.65
738.08	47015.22
738.27	46505.27
738.45	47342.89
738.64	47062.32
738.82	47076.66
739.01	47056.18
739.20	46789.94
739.38	47168.82
739.57	47146.29
739.75	47244.59
739.94	46669.11
740.13	46757.17
740.31	46935.35
740.50	46476.60
740.68	46632.25
740.87	46732.60
741.06	47318.32
741.24	46423.36
741.43	46513.47
741.61	46593.34
741.80	46388.54
741.99	46361.92
742.17	46323.01
742.36	46253.37
742.54	45995.33
742.73	46316.86
742.91	46374.20
743.10	45864.26
743.29	46329.15
743.47	46247.23
743.66	45880.64
743.84	46425.40
744.03	46347.58
744.21	45790.53
744.40	46423.36
744.59	45815.11
744.77	45716.81
744.96	45794.63
745.14	46064.96
745.33	45649.22
745.51	45878.60
745.70	45690.18
745.88	45262.16
746.07	45499.72
746.26	44928.34
746.44	45526.35
746.63	45477.19
746.81	45763.91
747.00	45186.38
747.18	45610.31
747.37	45411.66
747.55	45526.35
747.74	45528.39
747.92	44733.78
748.11	45139.28
748.29	45178.19
748.48	45217.10
748.66	45198.67
748.85	45126.99
749.03	45049.17
749.22	44975.44
749.41	44496.22
749.59	44658.01
749.78	44744.02
749.96	44414.30
750.15	44664.15
750.33	44602.71
750.52	44539.22
750.70	44387.67
750.89	44350.81
751.07	44047.71
751.26	44008.80
751.44	44531.03
751.63	44406.11
751.81	44146.01
752.00	44242.27
752.18	44297.56
752.37	44016.99
752.55	43914.59
752.74	43996.51
752.92	43748.71
753.10	43566.44
753.29	43937.12
753.47	43732.32
753.66	43386.22
753.84	43933.03
754.03	43328.87
754.21	43167.09
754.40	43763.04
754.58	43707.75
754.77	43220.33
754.95	42874.23
755.14	43156.85
755.32	43382.12
755.51	42986.86
755.69	43062.64
755.88	43011.44
756.06	43218.28
756.24	43021.68
756.43	42931.57
756.61	43175.28
756.80	42964.34
756.98	42917.23
757.17	43312.49
757.35	43191.66
757.54	42745.20
757.72	42898.80
757.90	42749.30
758.09	42882.42
758.27	42433.91
758.46	42351.99
758.64	42370.43
758.83	42636.66
759.01	42571.13
759.19	42321.27
759.38	42509.69
759.56	42573.17
759.75	42440.06
759.93	42509.69
760.12	42063.23
760.30	42134.91
760.48	42239.36
760.67	42274.17
760.85	42294.65
761.04	42108.29
761.22	42173.82
761.40	42018.17
761.59	41862.53
761.77	41434.50
761.96	41702.79
762.14	41504.13
762.32	41305.48
762.51	41805.19
762.69	41399.69
762.88	41541.00
763.06	41637.25
763.24	41201.04
763.43	41555.33
763.61	41297.29
763.80	41262.47
763.98	41178.51
764.16	41223.56
764.35	41055.63
764.53	40856.98
764.72	41098.64
764.90	41041.29
765.08	40977.81
765.27	40959.38
765.45	40824.21
765.63	40435.10
765.82	40928.66
766.00	40478.10
766.18	40936.85
766.37	40813.97
766.55	40635.80
766.74	40605.08
766.92	40400.28
767.10	40445.33
767.29	40435.10
767.47	40099.23
767.65	40314.26
767.84	39767.46
768.02	40463.77
768.20	39929.25
768.39	40002.97
768.57	40181.15
768.75	40031.65
768.94	40150.43
769.12	39857.57
769.30	39642.53
769.49	39796.13
769.67	39488.93
769.85	38884.78
770.04	39517.60
770.22	39626.15
770.40	39476.65
770.59	39245.23
770.77	39321.00
770.95	39581.09
771.14	39099.82
771.32	39056.81
771.50	38927.79
771.69	38983.09
771.87	39089.58
772.05	38966.70
772.24	38962.61
772.42	38981.04
772.60	38761.90
772.78	38636.98
772.97	38776.24
773.15	39038.38
773.33	38507.96
773.52	38577.59
773.70	38524.34
773.88	38659.51
774.07	38516.15
774.25	38489.52
774.43	38694.32
774.61	38745.52
774.80	38739.38
774.98	38698.42
775.16	38878.64
775.34	39105.96
775.53	38538.68
775.71	38925.74
775.89	38606.26
776.08	38675.89
776.26	38839.73
776.44	39024.04
776.62	38700.47
776.81	38608.31
776.99	38935.98
777.17	38858.16
777.35	38798.77
777.54	38753.71
777.72	38733.23
777.90	38843.82
778.08	38780.34
778.27	38964.65
778.45	38798.77
778.63	39155.11
778.81	39083.44
779.00	39460.26
779.18	38858.16
779.36	39001.52
779.54	38968.75
779.73	39153.07
779.91	39267.75
780.09	39038.38
780.27	39333.29
780.46	39511.46
780.64	39302.57
780.82	38835.63
781.00	39005.61
781.19	39325.10
781.37	39581.09
781.55	39237.03
781.73	39533.99
781.91	39388.58
782.10	39415.21
782.28	39032.24
782.46	39466.41
782.64	39595.43
782.82	39181.74
783.01	39548.32
783.19	39523.75
783.37	39886.24
783.55	39458.21
783.74	39763.36
783.92	39232.94
784.10	39515.56
784.28	39822.75
784.46	39728.55
784.64	39091.63
784.83	39787.94
785.01	39255.46
785.19	39429.54
785.37	39669.15
785.55	39775.65
785.74	39075.24
785.92	39450.02
786.10	39441.83
786.28	39173.55
786.46	38897.07
786.64	38915.50
786.83	39247.27
787.01	39257.51
787.19	39325.10
787.37	39476.65
787.55	38966.70
787.74	38809.01
787.92	39159.21
788.10	38878.64
788.28	38874.54
788.46	39065.00
788.64	38577.59
788.82	39421.35
789.01	38473.14
789.19	39097.77
789.37	38907.31
789.55	38780.34
789.73	38311.35
789.91	38184.38
790.09	38651.31
790.28	38227.38
790.46	38370.74
790.64	38587.83
790.82	38380.98
791.00	37864.89
791.18	38237.62
791.36	38235.58
791.55	38208.95
791.73	38186.43
791.91	37617.09
792.09	38139.32
792.27	37842.37
792.45	38016.44
792.63	37803.46
792.81	37248.46
793.00	37424.58
793.18	37434.82
793.36	37090.76
793.54	37512.64
793.72	37221.83
793.90	37311.94
794.08	37041.61
794.26	37320.13
794.44	36799.95
794.62	36746.70
794.81	36615.63
794.99	36480.47
795.17	36730.32
795.35	37131.72
795.53	36797.90
795.71	36566.48
795.89	36572.63
796.07	36556.24
796.25	36171.22
796.43	36267.48
796.61	35849.69
796.80	35821.02
796.98	35857.88
797.16	36085.21
797.34	35880.41
797.52	35522.02
797.70	36120.02
797.88	35554.79
798.06	35386.85
798.24	35702.24
798.42	35683.81
798.60	35151.34
798.78	35259.88
798.96	35446.24
799.14	35229.16
799.32	35161.58
799.51	35018.22
799.69	35513.83
799.87	34860.52
800.05	35229.16
800.23	35163.62
800.41	34645.49
800.59	34813.42
800.77	34465.27
800.95	34280.95
801.13	34641.39
801.31	33969.66
801.49	34764.27
801.67	34186.74
801.85	34342.39
802.03	34088.44
802.21	33883.64
802.39	33732.09
802.57	33787.39
802.75	34199.03
802.93	34012.66
803.11	33758.72
803.29	33873.40
803.47	33723.90
803.65	33859.07
803.83	33578.50
804.01	33420.80
804.19	33379.84
804.37	33187.33
804.55	33152.52
804.73	33244.68
804.91	33119.75
805.09	32980.49
805.27	33263.11
805.45	33232.39
805.63	33111.56
805.81	32886.28
805.99	32826.89
806.17	32947.72
806.35	32927.24
806.53	32577.04
806.71	32677.39
806.89	32472.59
807.07	32470.54
807.25	32615.95
807.43	32284.18
807.61	32552.46
807.79	32384.53
807.97	32337.43
808.15	32075.29
808.33	31774.24
808.51	31964.70
808.69	32028.18
808.87	31581.73
809.05	31651.36
809.23	31569.44
809.41	31704.60
809.59	31530.53
809.77	31751.71
809.95	31270.43
810.13	31540.77
810.31	31378.98
810.49	31243.81
810.67	31401.50
810.84	31471.14
811.02	31268.39
811.20	30936.62
811.38	31217.19
811.56	30770.73
811.74	31131.17
811.92	31299.11
812.10	31036.97
812.28	31346.21
812.46	31030.82
812.64	30991.91
812.82	30660.14
813.00	30617.13
813.18	30641.71
813.36	30654.00
813.53	30795.31
813.71	30633.52
813.89	30533.17
814.07	30551.60
814.25	30283.31
814.43	30467.63
814.61	30201.40
814.79	30357.04
814.97	30377.52
815.15	30008.89
815.33	29615.68
815.50	30035.51
815.68	29984.31
815.86	29900.34
816.04	29738.55
816.22	29724.22
816.40	29777.47
816.58	29693.50
816.76	29453.89
816.94	29513.28
817.11	29613.63
817.29	29302.34
817.47	29462.08
817.65	29148.74
817.83	29474.37
818.01	29279.81
818.19	29193.79
818.37	29382.21
818.54	29189.70
818.72	28991.05
818.90	29083.20
819.08	28929.61
819.26	29083.20
819.44	29152.84
819.62	28835.40
819.80	28896.84
819.97	29257.28
820.15	28669.51
820.33	28911.17
820.51	28782.15
820.69	28579.40
820.87	28581.45
821.05	28376.66
821.22	28499.53
821.40	28323.41
821.58	28530.25
821.76	28300.88
821.94	28466.77
822.12	28358.22
822.29	28737.10
822.47	28292.69
822.65	28454.48
822.83	28227.15
823.01	28151.38
823.19	28221.01
823.36	27983.44
823.54	27637.34
823.72	28165.71
823.90	28198.48
824.08	28155.47
824.25	28016.21
824.43	27813.46
824.61	27928.15
824.79	27776.60
824.97	27504.22
825.15	27893.33
825.32	27717.21
825.50	27553.37
825.68	27676.25
825.86	27741.78
826.04	27825.75
826.21	27663.96
826.39	27649.63
826.57	27536.99
826.75	27481.69
826.93	27334.24
827.10	27426.40
827.28	27395.68
827.46	27414.11
827.64	27395.68
827.81	27397.73
827.99	27444.83
828.17	27518.56
828.35	27151.97
828.53	27141.73
828.70	27022.95
828.88	26932.84
829.06	27068.00
829.24	27168.35
829.41	27219.55
829.59	27059.81
829.77	26654.31
829.95	26828.39
830.12	26754.66
830.30	26670.70
830.48	27008.61
830.66	26859.11
830.84	26607.21
831.01	26625.64
831.19	26760.81
831.37	26812.01
831.55	26295.92
831.72	26283.63
831.90	26809.96
832.08	26607.21
832.25	26304.11
832.43	26467.95
832.61	26345.07
832.79	26168.94
832.96	26265.20
833.14	26443.37
833.32	26586.73
833.50	26531.44
833.67	26205.81
833.85	26228.34
834.03	26035.83
834.20	26113.65
834.38	26379.89
834.56	26377.84
834.74	25931.38
834.91	26320.49
835.09	25693.82
835.27	25763.45
835.44	25992.82
835.62	25523.83
835.80	25861.75
835.98	25941.62
836.15	25742.97
836.33	25521.79
836.51	25882.23
836.68	25636.47
836.86	25845.37
837.04	25749.11
837.21	25632.38
837.39	25857.65
837.57	25730.68
837.75	25853.56
837.92	25366.14
838.10	25323.13
838.28	25452.16
838.45	25327.23
838.63	25368.19
838.81	25273.98
838.98	25319.04
839.16	25302.65
839.34	25048.71
839.51	25319.04
839.69	25126.53
839.87	24923.78
840.04	25169.54
840.22	25233.02
840.40	25065.09
840.57	24858.24
840.75	24995.46
840.93	24882.82
841.10	24974.98
841.28	25484.92
841.46	24528.52
841.63	25173.63
841.81	24835.72
841.98	24792.71
842.16	24981.12
842.34	24735.37
842.51	24802.95
842.69	24878.72
842.87	24651.40
843.04	24839.81
843.22	24868.48
843.40	24458.89
843.57	24755.85
843.75	24553.10
843.92	24536.71
844.10	24127.12
844.28	24626.82
844.45	24751.75
844.63	24540.81
844.81	24397.45
844.98	24581.77
845.16	24293.01
845.33	24456.84
845.51	24135.31
845.69	24125.07
845.86	24161.94
846.04	24161.94
846.21	24243.85
846.39	24211.09
846.57	24024.72
846.74	24002.19
846.92	23914.13
847.09	23842.45
847.27	23635.61
847.45	24065.68
847.62	24198.80
847.80	23979.67
847.97	23899.80
848.15	23762.58
848.32	23744.15
848.50	23805.59
848.68	23514.78
848.85	23510.68
849.03	23545.50
849.20	23584.41
849.38	23631.51
849.56	23805.59
849.73	23289.50
849.91	23539.35
850.08	23660.18
850.26	23254.69
850.43	23250.59
850.61	23490.20
850.78	23312.03
850.96	23150.24
851.14	23248.54
851.31	23344.80
851.49	23146.14
851.66	23344.80
851.84	23309.98
852.01	23436.95
852.19	23301.79
852.36	23217.82
852.54	23107.23
852.71	23080.61
852.89	22877.86
853.07	23127.71
853.24	23049.89
853.42	22677.16
853.59	22857.38
853.77	23176.86
853.94	22951.59
854.12	23105.18
854.29	22593.19
854.47	22789.80
854.64	22558.38
854.82	23006.88
854.99	23006.88
855.17	22662.82
855.34	22787.75
855.52	22539.94
855.69	22636.20
855.87	22453.93
856.04	22369.96
856.22	22503.08
856.39	22357.67
856.57	22828.71
856.74	22081.20
856.92	22505.13
857.09	22195.89
857.27	22554.28
857.44	22455.98
857.62	22292.14
857.79	22367.91
857.97	22247.08
858.14	22365.87
858.32	22150.83
858.49	22044.34
858.67	22171.31
858.84	22167.21
859.02	22038.19
859.19	21874.35
859.37	21747.38
859.54	22097.58
859.72	22163.12
859.89	21933.75
860.06	21880.50
860.24	21628.60
860.41	22079.15
860.59	21731.00
860.76	21671.61
860.94	21786.29
861.11	21567.16
861.29	21567.16
861.46	21671.61
861.64	21513.91
861.81	21335.74
861.98	21726.90
862.16	21198.52
862.33	21188.28
862.51	21237.44
862.68	21429.94
862.86	21352.12
863.03	21503.67
863.21	21448.38
863.38	21188.28
863.55	20971.20
863.73	21317.31
863.90	20967.10
864.08	21477.05
864.25	21079.74
864.43	21049.02
864.60	21339.83
864.77	20881.09
864.95	20969.15
865.12	20944.58
865.30	20977.34
865.47	20876.99
865.64	21038.78
865.82	20545.22
865.99	21079.74
866.17	20725.44
866.34	20893.38
866.51	20666.05
866.69	20811.46
866.86	20809.41
867.04	20592.33
867.21	20397.77
867.38	20547.27
867.56	20565.70
867.73	20303.56
867.91	20262.60
868.08	20440.78
868.25	20321.99
868.43	20072.14
868.60	20162.25
868.78	20041.42
868.95	20369.10
869.12	20141.77
869.30	19887.82
869.47	20102.86
869.64	19975.89
869.82	20336.33
869.99	19773.14
870.16	20047.57
870.34	20266.70
870.51	20049.61
870.69	20088.53
870.86	19967.70
871.03	20004.56
871.21	19658.45
871.38	19846.87
871.55	19640.02
871.73	19662.55
871.90	19844.82
872.07	19619.54
872.25	19302.11
872.42	19521.24
872.59	19377.88
872.77	19576.53
872.94	19601.11
873.11	19439.32
873.29	19422.94
873.46	19418.84
873.63	19107.55
873.81	19373.78
873.98	19289.82
874.15	19025.63
874.33	18890.46
874.50	18937.57
874.67	19097.31
874.85	19058.40
875.02	18804.45
875.19	18929.38
875.37	18683.62
875.54	18611.94
875.71	18808.54
875.88	18882.27
876.06	18747.11
876.23	18568.93
876.40	18532.07
876.58	18327.27
876.75	18620.13
876.92	18347.75
877.10	18702.05
877.27	18185.96
877.44	18237.16
877.61	18104.04
877.79	18511.59
877.96	18280.17
878.13	18020.08
878.31	17962.73
878.48	17770.22
878.65	18263.79
878.82	17925.87
879.00	17958.64
879.17	17899.25
879.34	17919.73
879.51	17987.31
879.69	17583.86
879.86	17862.38
880.03	17643.25
880.21	17540.85
880.38	17616.63
880.55	17735.41
880.72	17702.64
880.90	17688.31
881.07	17573.62
881.24	17673.97
881.41	17565.43
881.59	17374.97
881.76	17485.56
881.93	17409.78
882.10	17452.79
882.28	17379.06
882.45	17600.24
882.62	17288.95
882.79	17276.66
882.96	17219.32
883.14	17422.07
883.31	17026.81
883.48	17223.42
883.65	17266.42
883.83	17080.06
884.00	17098.49
884.17	17260.28
884.34	17123.07
884.51	17166.07
884.69	17080.06
884.86	16938.75
885.03	17096.44
885.20	16862.97
885.38	17121.02
885.55	16629.51
885.72	16932.61
885.89	16697.09
886.06	16750.34
886.24	16840.45
886.41	16867.07
886.58	16893.69
886.75	17004.28
886.92	16617.22
887.10	16637.70
887.27	16449.28
887.44	16396.04
887.61	16725.76
887.78	16766.72
887.95	16756.48
888.13	16531.20
888.30	16498.44
888.47	16592.64
888.64	16396.04
888.81	16498.44
888.99	16039.69
889.16	16209.67
889.33	16283.40
889.50	16383.75
889.67	16244.49
889.84	15941.39
890.01	16199.43
890.19	15957.77
890.36	15939.34
890.53	16221.96
890.70	15986.44
890.87	15900.43
891.04	15806.22
891.22	16019.21
891.39	15961.87
891.56	15785.74
891.73	15755.02
891.90	15734.54
892.07	15621.91
892.24	15767.31
892.42	15677.20
892.59	15650.58
892.76	15824.65
892.93	15363.86
893.10	15636.24
893.27	15484.69
893.44	15372.05
893.61	15279.89
893.79	15687.44
893.96	15306.52
894.13	15681.30
894.30	15556.37
894.47	15615.76
894.64	15484.69
894.81	15265.56
894.98	15427.35
895.15	15722.26
895.33	15441.68
895.50	15447.83
895.67	15474.45
895.84	15408.92
896.01	15597.33
896.18	15421.20
896.35	15638.29
896.52	15322.90
896.69	15286.04
896.86	15408.92
897.04	15361.81
897.21	15367.96
897.38	15191.83
897.55	15034.14
897.72	15118.11
897.89	15179.54
898.06	15251.22
898.23	15187.74
898.40	15126.30
898.57	15576.85
898.74	15208.22
898.91	15165.21
899.08	15224.60
899.26	15107.87
899.43	15200.02
899.60	15005.47
899.77	14960.41
899.94	15200.02
900.11	14950.17
900.28	15195.93
900.45	14982.94
900.62	14896.92
900.79	15126.30
900.96	15304.47
901.13	15159.06
901.30	14972.70
901.47	14903.07
901.64	15236.89
901.81	15345.43
901.98	15050.52
902.15	15111.96
902.32	14927.64
902.49	15073.05
902.66	15120.15
902.83	14964.51
903.01	15146.78
903.18	15060.76
903.35	14974.75
903.52	14835.49
903.69	14929.69
903.86	15165.21
904.03	14968.60
904.20	15099.67
904.37	15224.60
904.54	14884.64
904.71	14829.34
904.88	14886.68
905.05	14962.46
905.22	15048.47
905.39	15027.99
905.56	14731.04
905.73	14933.79
905.90	14860.06
906.07	14685.98
906.24	14892.83
906.41	14710.56
906.58	15027.99
906.75	14776.09
906.92	14829.34
907.09	14640.93
907.26	15001.37
907.43	14673.70
907.60	14896.92
907.77	14917.40
907.93	14833.44
908.10	14765.85
908.27	14911.26
908.44	14790.43
908.61	14782.24
908.78	14645.02
908.95	14536.48
909.12	14657.31
909.29	14923.55
909.46	14669.60
909.63	14778.14
909.80	14909.21
909.97	14837.53
910.14	14669.60
910.31	14599.97
910.48	14577.44
910.65	14577.44
910.82	14360.36
910.99	14712.61
911.16	14577.44
911.33	14485.28
911.50	14667.55
911.66	14374.69
911.83	14477.09
912.00	14503.71
912.17	14249.77
912.34	14331.69
912.51	14382.88
912.68	14262.05
912.85	14298.92
913.02	14206.76
913.19	14225.19
913.36	14239.53
913.53	14475.04
913.70	14147.37
913.86	14343.97
914.03	14186.28
914.20	14042.92
914.37	14061.35
914.54	13846.32
914.71	14157.61
914.88	14012.20
915.05	13913.90
915.22	13838.12
915.39	13901.61
915.55	13809.45
915.72	13823.79
915.89	13725.49
916.06	13741.87
916.23	13582.13
916.40	13725.49
916.57	13612.85
916.74	13723.44
916.91	13406.00
917.07	13575.98
917.24	13438.77
917.41	13391.67
917.58	13395.76
917.75	13223.73
917.92	13180.73
918.09	13403.96
918.26	13342.52
918.42	13188.92
918.59	13358.90
918.76	13010.75
918.93	13092.66
919.10	12967.74
919.27	12871.48
919.44	13031.23
919.60	13031.23
919.77	12953.40
919.94	12652.35
920.11	12969.79
920.28	12955.45
920.45	12539.71
920.61	12685.12
920.78	12660.54
920.95	12701.50
921.12	12533.57
921.29	12410.69
921.46	12492.61
921.62	12357.44
921.79	12701.50
921.96	12422.98
922.13	12349.25
922.30	12363.59
922.47	12150.60
922.63	12121.93
922.80	12091.21
922.97	12214.09
923.14	11966.28
923.31	12046.15
923.47	11888.46
923.64	12191.56
923.81	11806.54
923.98	11933.51
924.15	11749.20
924.32	11931.47
924.48	11872.07
924.65	11751.24
924.82	11683.66
924.99	11562.83
925.15	11319.12
925.32	11558.74
925.49	11296.60
925.66	11530.06
925.83	11274.07
925.99	11310.93
926.16	11394.90
926.33	11335.51
926.50	10862.43
926.67	11231.06
926.83	11061.08
927.00	11229.01
927.17	11161.43
927.34	11200.34
927.50	11083.61
927.67	10930.01
927.84	10796.89
928.01	10807.13
928.17	10708.83
928.34	10700.64
928.51	10774.36
928.68	10686.30
928.84	10567.52
929.01	10415.97
929.18	10391.39
929.35	10530.66
929.51	10450.78
929.68	10254.18
929.85	10200.93
930.02	10121.06
930.18	10317.67
930.35	10104.68
930.52	10088.29
930.69	9998.18
930.85	10084.20
931.02	9989.99
931.19	9959.27
931.36	9912.17
931.52	9953.13
931.69	9998.18
931.86	9856.87
932.02	9742.19
932.19	9568.11
932.36	9699.18
932.53	9762.67
932.69	9496.43
932.86	9674.60
933.03	9408.37
933.19	9232.24
933.36	9250.67
933.53	9437.04
933.70	9330.55
933.86	9305.97
934.03	9365.36
934.20	9023.35
934.36	9248.63
934.53	9056.12
934.70	8816.51
934.86	8972.15
935.03	8966.01
935.20	8863.61
935.36	8644.48
935.53	8480.64
935.70	8619.90
935.86	8613.76
936.03	8552.32
936.20	8370.05
936.36	8327.04
936.53	8238.98
936.70	8198.02
936.86	8224.64
937.03	8107.91
937.20	7903.11
937.36	7970.69
937.53	7630.73
937.70	7661.45
937.86	7737.23
938.03	7638.92
938.20	7657.36
938.36	7346.06
938.53	7477.13
938.70	7223.19
938.86	7210.90
939.03	7016.34
939.20	7151.51
939.36	7167.89
939.53	7128.98
939.70	7184.27
939.86	6762.39
940.03	6655.90
940.19	6492.06
940.36	6561.69
940.53	6420.38
940.69	6449.05
940.86	6426.53
941.03	6328.22
941.19	6244.26
941.36	6109.09
941.52	6227.87
941.69	6111.14
941.86	6104.99
942.02	6104.99
942.19	5984.16
942.35	5924.77
942.52	5836.71
942.69	5799.85
942.85	5611.43
943.02	5791.66
943.18	5683.11
943.35	5679.02
943.52	5523.37
943.68	5482.41
943.85	5494.70
944.01	5466.03
944.18	5490.60
944.35	5492.65
944.51	5525.42
944.68	5357.49
944.84	5365.68
945.01	5242.80
945.17	5384.11
945.34	5316.53
945.51	5261.23
945.67	5261.23
945.84	5302.19
946.00	5226.42
946.17	5220.27
946.33	5199.79
946.50	5304.24
946.67	5310.38
946.83	5117.87
947.00	5207.98
947.16	5023.67
947.33	5076.91
947.49	5144.50
947.66	5054.39
947.82	5109.68
947.99	5179.31
948.16	5095.35
948.32	5048.24
948.49	5160.88
948.65	5162.93
948.82	5070.77
948.98	5179.31
949.15	4978.61
949.31	5177.26
949.48	5013.43
949.64	5050.29
949.81	5210.03
949.97	5164.98
950.14	5289.90
950.30	5046.20
950.47	5242.80
950.63	5046.20
950.80	5121.97
950.96	5218.22
951.13	5167.03
951.30	5187.50
951.46	5277.62
951.63	5246.90
951.79	5261.23
951.96	5345.20
952.12	5203.89
952.29	5193.65
952.45	5087.15
952.62	5214.13
952.78	5095.35
952.94	5152.69
953.11	5111.73
953.27	5097.39
953.44	5218.22
953.60	5167.03
953.77	5244.85
953.93	5230.51
954.10	5152.69
954.26	5158.83
954.43	5228.46
954.59	5486.51
954.76	5283.76
954.92	5230.51
955.09	5304.24
955.25	5187.50
955.42	5103.54
955.58	5308.34
955.75	5244.85
955.91	5287.86
956.07	5341.10
956.24	5236.66
956.40	5353.39
956.57	5410.73
956.73	5201.84
956.90	5332.91
957.06	5285.81
957.23	5392.30
957.39	5287.86
957.56	5291.95
957.72	5146.55
957.88	5210.03
958.05	5222.32
958.21	5312.43
958.38	5351.34
958.54	5232.56
958.71	5332.91
958.87	5267.38
959.03	5210.03
959.20	5296.05
959.36	5160.88
959.53	5232.56
959.69	5267.38
959.85	5296.05
960.02	5261.23
960.18	5250.99
960.35	5361.58
960.51	5332.91
960.68	5171.12
960.84	5259.18
961.00	5140.40
961.17	5185.46
961.33	5255.09
961.50	5300.14
961.66	5304.24
961.82	5277.62
961.99	5132.21
962.15	5234.61
962.31	5459.88
962.48	5193.65
962.64	5375.92
962.81	5185.46
962.97	5134.26
963.13	5216.18
963.30	5267.38
963.46	5136.31
963.62	5265.33
963.79	5183.41
963.95	5152.69
964.12	5177.26
964.28	5275.57
964.44	5148.59
964.61	5281.71
964.77	5185.46
964.93	5244.85
965.10	5339.05
965.26	5124.02
965.42	5078.96
965.59	5142.45
965.75	5070.77
965.92	5193.65
966.08	5121.97
966.24	5144.50
966.41	5121.97
966.57	5244.85
966.73	5224.37
966.90	5128.11
967.06	5091.25
967.22	5070.77
967.39	5040.05
967.55	5027.76
967.71	4972.47
967.88	5058.48
968.04	5103.54
968.20	5164.98
968.37	5017.52
968.53	5078.96
968.69	4868.02
968.85	5050.29
969.02	4962.23
969.18	5007.28
969.34	5138.35
969.51	4900.79
969.67	5044.15
969.83	4851.64
970.00	5105.59
970.16	4921.27
970.32	4937.65
970.48	4984.76
970.65	4726.71
970.81	4870.07
970.97	5017.52
971.14	4775.86
971.30	4882.36
971.46	4904.89
971.63	4818.87
971.79	4917.17
971.95	4812.73
972.11	4730.81
972.28	4816.82
972.44	4859.83
972.60	4763.58
972.76	4898.74
972.93	4818.87
973.09	4804.53
973.25	4841.40
973.42	4759.48
973.58	4745.14
973.74	4749.24
973.90	4804.53
974.07	4726.71
974.23	4650.94
974.39	4681.66
974.55	4698.04
974.72	4534.20
974.88	4466.62
975.04	4771.77
975.20	4560.83
975.37	4784.06
975.53	4571.07
975.69	4614.07
975.85	4554.68
976.01	4638.65
976.18	4638.65
976.34	4421.56
976.50	4628.41
976.66	4585.40
976.83	4495.29
976.99	4423.61
977.15	4550.59
977.31	4411.32
977.47	4681.66
977.64	4448.19
977.80	4454.33
977.96	4530.11
978.12	4493.24
978.29	4415.42
978.45	4427.71
978.61	4478.91
978.77	4489.15
978.93	4417.47
979.10	4358.08
979.26	4413.37
979.42	4526.01
979.58	4327.36
979.74	4292.54
979.91	4505.53
980.07	4179.90
980.23	4362.17
980.39	4349.89
980.55	4296.64
980.71	4300.73
980.88	4306.88
981.04	4231.10
981.20	4122.56
981.36	4353.98
981.52	4286.40
981.68	4294.59
981.85	4261.82
982.01	4310.97
982.17	4255.68
982.33	4237.25
982.49	4204.48
982.65	4220.86
982.82	4310.97
982.98	4276.16
983.14	4198.34
983.30	4274.11
983.46	4247.49
983.62	4116.42
983.79	4091.84
983.95	4126.66
984.11	4044.74
984.27	4163.52
984.43	4159.42
984.59	4065.22
984.75	4093.89
984.91	3962.82
985.08	4026.31
985.24	3919.81
985.40	3991.49
985.56	4042.69
985.72	4163.52
985.88	4020.16
986.04	3968.96
986.20	3950.53
986.37	3909.57
986.53	3887.04
986.69	4001.73
986.85	4026.31
987.01	3932.10
987.17	3960.77
987.33	3809.22
987.49	3831.75
987.65	3909.57
987.82	3891.14
987.98	3862.47
988.14	3895.24
988.30	3772.36
988.46	3723.21
988.62	3899.33
988.78	3887.04
988.94	3776.45
989.10	3762.12
989.26	3674.06
989.42	3729.35
989.59	3747.78
989.75	3758.02
989.91	3715.02
990.07	3645.38
990.23	3665.86
990.39	3727.30
990.55	3811.27
990.71	3577.80
990.87	3735.50
991.03	3768.26
991.19	3561.42
991.35	3680.20
991.51	3764.17
991.67	3665.86
991.83	3710.92
992.00	3657.67
992.16	3590.09
992.32	3665.86
992.48	3661.77
992.64	3590.09
992.80	3700.68
992.96	3514.31
993.12	3682.25
993.28	3663.82
993.44	3674.06
993.60	3555.27
993.76	3553.23
993.92	3553.23
994.08	3614.66
994.24	3524.55
994.40	3518.41
994.56	3534.79
994.72	3432.40
994.88	3391.44
995.04	3551.18
995.20	3456.97
995.36	3403.72
995.52	3461.07
995.68	3416.01
995.84	3416.01
996.00	3499.98
996.16	3321.81
996.32	3270.61
996.48	3364.81
996.64	3436.49
996.80	3385.29
996.96	3325.90
997.12	3387.34
997.28	3270.61
997.44	3393.48
997.60	3309.52
997.76	3301.33
997.92	3311.57
998.08	3346.38
998.24	3198.93
998.40	3362.76
998.56	3348.43
998.72	3215.31
998.88	3317.71
999.04	3215.31
999.20	3268.56
999.36	3151.82
999.52	3352.52
999.68	3198.93
999.84	3321.81
1000.00	3284.94
1000.16	3295.18
1000.32	3176.40
1000.48	3336.14
1000.64	3080.14
1000.80	3149.78
1000.95	3139.54
1001.11	3176.40
1001.27	3084.24
1001.43	3166.16
1001.59	3096.53
1001.75	3061.71
1001.91	3096.53
1002.07	3082.19
1002.23	3098.58
1002.39	3006.42
1002.55	3135.44
1002.71	3051.47
1002.87	2977.75
1003.03	3061.71
1003.19	3100.62
1003.34	3026.90
1003.50	2959.31
1003.66	3067.86
1003.82	3084.24
1003.98	3090.38
1004.14	3149.78
1004.30	2969.55
1004.46	2987.99
1004.62	2971.60
1004.78	2983.89
1004.94	3047.38
1005.09	3078.10
1005.25	3012.56
1005.41	2914.26
1005.57	2981.84
1005.73	3057.62
1005.89	2777.05
1006.05	2953.17
1006.21	2949.08
1006.37	2818.00
1006.52	2897.88
1006.68	2770.90
1006.84	2998.23
1007.00	2805.72
1007.16	3030.99
1007.32	2797.53
1007.48	2822.10
1007.64	2916.31
1007.79	2799.57
1007.95	2717.65
1008.11	2912.21
1008.27	2797.53
1008.43	2783.19
1008.59	2772.95
1008.75	2826.20
1008.91	2908.12
1009.06	2803.67
1009.22	2887.64
1009.38	2777.05
1009.54	2850.77
1009.70	2676.70
1009.86	2654.17
1010.01	2727.89
1010.17	2727.89
1010.33	2799.57
1010.49	2740.18
1010.65	2809.81
1010.81	2715.61
1010.96	2715.61
1011.12	2645.98
1011.28	2648.02
1011.44	2664.41
1011.60	2611.16
1011.76	2713.56
1011.91	2713.56
1012.07	2592.73
1012.23	2557.91
1012.39	2633.69
1012.55	2613.21
1012.71	2562.01
1012.86	2568.15
1013.02	2672.60
1013.18	2584.54
1013.34	2680.79
1013.50	2602.97
1013.65	2619.35
1013.81	2582.49
1013.97	2568.15
1014.13	2682.84
1014.29	2600.92
1014.44	2717.65
1014.60	2527.19
1014.76	2519.00
1014.92	2615.26
1015.07	2484.19
1015.23	2572.25
1015.39	2523.10
1015.55	2521.05
1015.71	2592.73
1015.86	2498.52
1016.02	2447.32
1016.18	2457.56
1016.34	2496.47
1016.49	2529.24
1016.65	2525.15
1016.81	2574.30
1016.97	2480.09
1017.12	2533.34
1017.28	2447.32
1017.44	2371.55
1017.60	2418.65
1017.75	2400.22
1017.91	2459.61
1018.07	2441.18
1018.23	2484.19
1018.38	2459.61
1018.54	2381.79
1018.70	2445.27
1018.86	2338.78
1019.01	2349.02
1019.17	2412.51
1019.33	2559.96
1019.49	2420.70
1019.64	2373.60
1019.80	2396.12
1019.96	2437.08
1020.12	2418.65
1020.27	2445.27
1020.43	2346.97
1020.59	2383.84
1020.74	2326.49
1020.90	2349.02
1021.06	2250.72
1021.22	2398.17
1021.37	2369.50
1021.53	2355.16
1021.69	2318.30
1021.84	2359.26
1022.00	2367.45
1022.16	2256.86
1022.31	2318.30
1022.47	2326.49
1022.63	2306.01
1022.79	2232.29
1022.94	2279.39
1023.10	2385.88
1023.26	2267.10
1023.41	2220.00
1023.57	2297.82
1023.73	2256.86
1023.88	2238.43
1024.04	2217.95
1024.20	2308.06
1024.35	2265.05
1024.51	2230.24
1024.67	2230.24
1024.82	2295.77
1024.98	2123.74
1025.14	2281.44
1025.29	2162.66
1025.45	2181.09
1025.61	2086.88
1025.76	2152.42
1025.92	2123.74
1026.08	2222.05
1026.23	2166.75
1026.39	2195.42
1026.55	2142.18
1026.70	2156.51
1026.86	2187.23
1027.02	2129.89
1027.17	2205.66
1027.33	2246.62
1027.48	2150.37
1027.64	2103.26
1027.80	2093.02
1027.95	2168.80
1028.11	2113.50
1028.27	2195.42
1028.42	2148.32
1028.58	2207.71
1028.73	2117.60
1028.89	2033.63
1029.05	2234.33
1029.20	2146.27
>>>>>End Processed Spectral Data<<<<<
