SpectraSuite Data File
++++++++++++++++++++++++++++++++++++
Date: Fri Jun 02 14:51:13 CEST 2017
User: INFO_000
Dark Spectrum Present: No
Reference Spectrum Present: No
Number of Sampled Component Spectra: 1
Spectrometers: USB4H00879
Integration Time (usec): 80000 (USB4H00879)
Spectra Averaged: 1 (USB4H00879)
Boxcar Smoothing: 0 (USB4H00879)
Correct for Electrical Dark: No (USB4H00879)
Strobe/Lamp Enabled: No (USB4H00879)
Correct for Detector Non-linearity: No (USB4H00879)
Correct for Stray Light: No (USB4H00879)
Number of Pixels in Processed Spectrum: 3648
>>>>>Begin Processed Spectral Data<<<<<
345.13	1335.28
345.34	1335.28
345.56	1335.28
345.78	1312.75
345.99	1353.71
346.21	1740.77
346.42	1685.48
346.64	1677.29
346.86	1765.35
347.07	1646.57
347.29	1720.29
347.50	1591.27
347.72	1636.33
347.94	1781.73
348.15	1587.18
348.37	1581.03
348.59	1712.10
348.80	1679.33
349.02	1763.30
349.23	1859.56
349.45	1828.84
349.67	1871.84
349.88	1814.50
350.10	2062.30
350.31	1841.12
350.53	1804.26
350.75	1970.15
350.96	1820.64
351.18	1912.80
351.39	1765.35
351.61	1804.26
351.82	1904.61
352.04	1890.28
352.26	1920.99
352.47	1908.71
352.69	1892.32
352.90	1716.20
353.12	1880.04
353.34	1910.75
353.55	1970.15
353.77	1853.41
353.98	1884.13
354.20	1837.03
354.41	1877.99
354.63	1918.95
354.85	1972.19
355.06	1949.67
355.28	1810.40
355.49	1873.89
355.71	1935.33
355.92	1859.56
356.14	1910.75
356.35	1886.18
356.57	1859.56
356.79	1920.99
357.00	1841.12
357.22	2007.01
357.43	1814.50
357.65	2050.02
357.86	1863.65
358.08	1898.47
358.29	1912.80
358.51	1968.10
358.72	1943.52
358.94	1945.57
359.16	1992.67
359.37	1914.85
359.59	1970.15
359.80	1984.48
360.02	1810.40
360.23	1945.57
360.45	1953.76
360.66	1937.38
360.88	1896.42
361.09	1943.52
361.31	1902.56
361.52	2007.01
361.74	2015.20
361.95	2033.63
362.17	1953.76
362.38	2072.54
362.60	1949.67
362.81	1929.19
363.03	1984.48
363.24	1996.77
363.46	2033.63
363.67	2066.40
363.89	2037.73
364.10	2031.58
364.32	1968.10
364.53	2035.68
364.75	1966.05
364.96	1916.90
365.18	1964.00
365.39	2041.82
365.61	1939.43
365.82	2066.40
366.04	2019.30
366.25	1964.00
366.47	2086.88
366.68	2072.54
366.90	2062.30
367.11	2082.78
367.33	2062.30
367.54	2107.36
367.76	1964.00
367.97	2041.82
368.19	2043.87
368.40	2043.87
368.62	1910.75
368.83	2011.11
369.05	2076.64
369.26	1974.24
369.48	1949.67
369.69	2045.92
369.91	2033.63
370.12	2056.16
370.33	2023.39
370.55	2025.44
370.76	2084.83
370.98	2099.17
371.19	2050.02
371.41	2052.06
371.62	2019.30
371.84	2011.11
372.05	2142.18
372.27	2043.87
372.48	2060.26
372.69	2025.44
372.91	2222.05
373.12	2101.22
373.34	2060.26
373.55	2099.17
373.77	2078.69
373.98	2035.68
374.20	2148.32
374.41	2289.63
374.62	2142.18
374.84	2148.32
375.05	2170.85
375.27	2148.32
375.48	2129.89
375.70	2222.05
375.91	2285.53
376.12	2314.20
376.34	2088.93
376.55	2146.27
376.77	2207.71
376.98	2105.31
377.19	2136.03
377.41	2142.18
377.62	2129.89
377.84	2199.52
378.05	2281.44
378.27	2133.98
378.48	2263.01
378.69	2387.93
378.91	2287.58
379.12	2271.20
379.34	2228.19
379.55	2316.25
379.76	2267.10
379.98	2172.89
380.19	2273.25
380.41	2238.43
380.62	2281.44
380.83	2275.29
381.05	2224.09
381.26	2400.22
381.47	2211.81
381.69	2346.97
381.90	2375.64
382.12	2336.73
382.33	2316.25
382.54	2287.58
382.76	2267.10
382.97	2351.07
383.19	2228.19
383.40	2355.16
383.61	2252.77
383.83	2211.81
384.04	2326.49
384.25	2340.83
384.47	2297.82
384.68	2406.36
384.89	2279.39
385.11	2301.92
385.32	2338.78
385.54	2299.87
385.75	2387.93
385.96	2332.64
386.18	2504.67
386.39	2424.80
386.60	2308.06
386.82	2455.51
387.03	2437.08
387.24	2416.60
387.46	2426.84
387.67	2418.65
387.88	2475.99
388.10	2447.32
388.31	2383.84
388.52	2506.71
388.74	2412.51
388.95	2600.92
389.16	2533.34
389.38	2537.43
389.59	2645.98
389.80	2613.21
390.02	2449.37
390.23	2650.07
390.44	2535.39
390.66	2514.91
390.87	2437.08
391.08	2553.82
391.30	2705.37
391.51	2697.17
391.72	2662.36
391.94	2658.26
392.15	2648.02
392.36	2648.02
392.58	2576.34
392.79	2691.03
393.00	2648.02
393.22	2680.79
393.43	2707.41
393.64	2756.57
393.85	2813.91
394.07	2650.07
394.28	2697.17
394.49	2818.00
394.71	2738.13
394.92	2746.33
395.13	2752.47
395.35	2693.08
395.56	2781.14
395.77	2777.05
395.98	2881.49
396.20	2725.85
396.41	2822.10
396.62	2904.02
396.84	2863.06
397.05	2852.82
397.26	2838.48
397.47	2928.60
397.69	2811.86
397.90	3039.19
398.11	2924.50
398.32	2910.16
398.54	2848.72
398.75	2910.16
398.96	2893.78
399.18	3045.33
399.39	2965.46
399.60	3010.51
399.81	2971.60
400.03	3076.05
400.24	3260.37
400.45	3014.61
400.66	2990.03
400.88	2891.73
401.09	3176.40
401.30	3074.00
401.51	3211.22
401.73	2996.18
401.94	3141.58
402.15	3121.10
402.36	3104.72
402.58	3172.30
402.79	3213.26
403.00	3010.51
403.21	3168.21
403.43	3192.78
403.64	3241.93
403.85	3047.38
404.06	3233.74
404.27	3057.62
404.49	3164.11
404.70	3106.77
404.91	3342.28
405.12	3198.93
405.34	3143.63
405.55	3448.78
405.76	3127.25
405.97	3301.33
406.19	3393.48
406.40	3227.60
406.61	3315.66
406.82	3344.33
407.03	3313.61
407.25	3241.93
407.46	3499.98
407.67	3305.42
407.88	3436.49
408.09	3364.81
408.31	3352.52
408.52	3368.91
408.73	3276.75
408.94	3338.19
409.15	3614.66
409.37	3471.31
409.58	3471.31
409.79	3510.22
410.00	3577.80
410.21	3461.07
410.43	3356.62
410.64	3393.48
410.85	3561.42
411.06	3600.33
411.27	3604.42
411.48	3528.65
411.70	3551.18
411.91	3534.79
412.12	3532.75
412.33	3516.36
412.54	3610.57
412.76	3557.32
412.97	3706.82
413.18	3549.13
413.39	3551.18
413.60	3772.36
413.81	3688.39
414.03	3727.30
414.24	3612.62
414.45	3841.99
414.66	3534.79
414.87	3733.45
415.08	3659.72
415.30	3717.06
415.51	3796.93
415.72	3805.13
415.93	3694.54
416.14	3674.06
416.35	3817.41
416.56	3831.75
416.78	3696.58
416.99	3813.32
417.20	3739.59
417.41	3856.33
417.62	3885.00
417.83	3934.15
418.04	3919.81
418.26	3874.76
418.47	3921.86
418.68	3913.67
418.89	3975.11
419.10	4007.87
419.31	3878.85
419.52	4052.93
419.73	3997.64
419.95	4159.42
420.16	3921.86
420.37	3942.34
420.58	4067.27
420.79	3956.68
421.00	4130.75
421.21	4171.71
421.42	4048.83
421.63	4040.64
421.85	4114.37
422.06	4067.27
422.27	4145.09
422.48	4175.81
422.69	4130.75
422.90	4190.14
423.11	4210.62
423.32	4093.89
423.53	4220.86
423.75	4288.45
423.96	4353.98
424.17	4331.45
424.38	4487.10
424.59	4351.93
424.80	4519.87
425.01	4415.42
425.22	4315.07
425.43	4300.73
425.64	4599.74
425.85	4644.79
426.06	4589.50
426.28	4526.01
426.49	4474.81
426.70	4501.44
426.91	4536.25
427.12	4624.31
427.33	4642.75
427.54	4548.54
427.75	4792.25
427.96	4841.40
428.17	4708.28
428.38	4829.11
428.59	4825.01
428.80	4722.62
429.01	4800.44
429.23	4767.67
429.44	4941.75
429.65	4995.00
429.86	4900.79
430.07	4878.26
430.28	4939.70
430.49	4845.49
430.70	5081.01
430.91	5066.67
431.12	4863.93
431.33	5193.65
431.54	5201.84
431.75	4995.00
431.96	5091.25
432.17	5017.52
432.38	4974.52
432.59	5273.52
432.80	5261.23
433.01	5130.16
433.22	5228.46
433.43	5066.67
433.64	5226.42
433.85	5197.74
434.06	5351.34
434.27	5234.61
434.49	5420.97
434.70	5343.15
434.91	5337.01
435.12	5425.07
435.33	5586.86
435.54	5433.26
435.75	5269.42
435.96	5390.25
436.17	5382.06
436.38	5636.01
436.59	5621.67
436.80	5355.44
437.01	5791.66
437.22	5822.38
437.43	5676.97
437.64	5363.63
437.85	5652.39
438.06	5654.44
438.27	5537.71
438.48	5709.74
438.69	5730.22
438.90	5748.65
439.11	5791.66
439.32	5742.50
439.53	5742.50
439.74	5724.07
439.95	5912.49
440.16	5949.35
440.37	5859.24
440.57	5742.50
440.78	5980.07
440.99	6045.60
441.20	5951.40
441.41	5711.78
441.62	5992.36
441.83	5777.32
442.04	5982.12
442.25	5775.27
442.46	6072.23
442.67	6055.84
442.88	6360.99
443.09	5947.30
443.30	6135.71
443.51	6205.35
443.72	6387.61
443.93	6064.04
444.14	6330.27
444.35	6225.82
444.56	6229.92
444.77	6168.48
444.98	6303.65
445.19	6336.42
445.40	6272.93
445.61	6176.67
445.81	6516.64
446.02	6559.64
446.23	6444.96
446.44	6287.26
446.65	6455.20
446.86	6506.40
447.07	6530.97
447.28	6743.96
447.49	6711.19
447.70	6592.41
447.91	6528.92
448.12	6694.81
448.33	6766.49
448.54	6717.34
448.74	6590.36
448.95	6633.37
449.16	6629.27
449.37	6768.54
449.58	6674.33
449.79	6989.72
450.00	6694.81
450.21	6938.52
450.42	6918.04
450.63	7020.44
450.84	7088.02
451.05	7057.30
451.25	6952.85
451.46	6725.53
451.67	7051.16
451.88	7196.56
452.09	7022.48
452.30	7038.87
452.51	7096.21
452.72	7214.99
452.93	7501.71
453.13	7206.80
453.34	7112.60
453.55	7212.95
453.76	7294.86
453.97	7747.47
454.18	7374.74
454.39	7434.13
454.60	7514.00
454.81	7335.82
455.01	7608.20
455.22	7399.31
455.43	7522.19
455.64	7761.80
455.85	7827.34
456.06	7899.02
456.27	7710.60
456.48	7833.48
456.68	7878.54
456.89	7755.66
457.10	7956.36
457.31	7872.39
457.52	7849.86
457.73	7921.54
457.94	8097.67
458.14	7798.66
458.35	8179.59
458.56	8089.48
458.77	8011.65
458.98	8347.52
459.19	8284.03
459.39	8333.18
459.60	8488.83
459.81	8253.31
460.02	8398.72
460.23	8392.58
460.44	8480.64
460.65	8716.16
460.85	8644.48
461.06	8746.87
461.27	8646.52
461.48	8875.90
461.69	8861.56
461.89	8492.93
462.10	8777.59
462.31	8548.22
462.52	8669.05
462.73	8966.01
462.94	9160.56
463.14	8957.82
463.35	9000.82
463.56	9342.83
463.77	9242.48
463.98	9187.19
464.18	9133.94
464.39	9262.96
464.60	9418.61
464.81	9674.60
465.02	9494.38
465.23	9740.14
465.43	9441.14
465.64	9887.59
465.85	9777.00
466.06	9621.36
466.27	10006.38
466.47	10057.57
466.68	9916.26
466.89	10086.25
467.10	9973.61
467.30	9781.10
467.51	10252.13
467.72	10356.58
467.93	9951.08
468.14	10039.14
468.34	10325.86
468.55	10487.65
468.76	10432.35
468.97	10250.08
469.17	10663.77
469.38	10667.87
469.59	10807.13
469.80	10481.50
470.01	10743.64
470.21	10704.73
470.42	10870.62
470.63	11016.02
470.84	10977.11
471.04	10997.59
471.25	11218.77
471.46	11181.91
471.67	11335.51
471.87	11181.91
472.08	11523.92
472.29	11597.65
472.50	11501.39
472.70	11540.30
472.91	11665.23
473.12	11876.17
473.33	11781.96
473.53	12207.94
473.74	11939.66
473.95	12162.89
474.16	12242.76
474.36	12019.53
474.57	12357.44
474.78	12611.39
474.99	12562.24
475.19	12488.51
475.40	12818.24
475.61	12721.98
475.81	12711.74
476.02	13244.21
476.23	12894.01
476.44	13066.04
476.64	13264.69
476.85	13442.87
477.06	13549.36
477.27	13625.14
477.47	13811.50
477.68	13514.55
477.89	13815.60
478.09	13633.33
478.30	13825.84
478.51	13924.14
478.71	13997.87
478.92	14110.50
479.13	14151.46
479.34	14468.90
479.54	14348.07
479.75	14591.78
479.96	14567.20
480.16	14544.67
480.37	14475.04
480.58	14880.54
480.78	15189.78
480.99	15118.11
481.20	15238.94
481.41	15288.09
481.61	15363.86
481.82	15249.18
482.03	15417.11
482.23	15413.01
482.44	15640.34
482.65	15769.36
482.85	15990.54
483.06	15935.24
483.27	16084.75
483.47	15961.87
483.68	16146.19
483.89	16357.13
484.09	16293.64
484.30	16559.88
484.51	16647.94
484.71	16578.31
484.92	16748.29
485.13	16883.45
485.33	16936.70
485.54	16985.85
485.75	17239.80
485.95	17385.21
486.16	17342.20
486.37	17608.44
486.57	17262.33
486.78	17458.93
486.98	17628.92
487.19	17534.71
487.40	17741.55
487.60	17833.71
487.81	18112.24
488.02	17981.17
488.22	17958.64
488.43	18405.10
488.64	18188.01
488.84	18407.14
489.05	18546.40
489.25	18444.01
489.46	18882.27
489.67	18771.68
489.87	18646.76
490.08	18890.46
490.29	18818.78
490.49	19326.68
490.70	19123.93
490.90	19492.57
491.11	19494.61
491.32	19379.93
491.52	19478.23
491.73	19676.88
491.94	19777.23
492.14	19699.41
492.35	20035.28
492.55	20041.42
492.76	20328.14
492.97	20334.28
493.17	20367.05
493.38	20610.76
493.58	20635.33
493.79	20414.15
494.00	20592.33
494.20	20651.72
494.41	21040.83
494.61	20856.51
494.82	21069.50
495.02	20856.51
495.23	21018.30
495.44	21288.64
495.64	21210.81
495.85	21155.52
496.05	21462.71
496.26	21501.62
496.47	21558.97
496.67	21620.41
496.88	21712.56
497.08	21804.72
497.29	21941.94
497.49	21905.07
497.70	21874.35
497.91	22113.97
498.11	22511.27
498.32	22247.08
498.52	22412.97
498.73	22722.21
498.93	22576.81
499.14	22679.21
499.34	22677.16
499.55	23025.31
499.76	22722.21
499.96	22935.20
500.17	22802.08
500.37	22918.82
500.58	23316.12
500.78	23342.75
500.99	23113.38
501.19	23482.01
501.40	23555.74
501.60	23340.70
501.81	23387.80
502.02	23486.11
502.22	23287.45
502.43	23662.23
502.63	23611.03
502.84	24022.67
503.04	23903.89
503.25	24010.39
503.45	24008.34
503.66	24252.05
503.86	24331.92
504.07	24370.83
504.27	24254.09
504.48	24731.27
504.68	24651.40
504.89	24891.01
505.09	24610.44
505.30	24479.37
505.50	24667.78
505.71	24643.21
505.91	24899.20
506.12	25024.13
506.32	25118.34
506.53	25056.90
506.73	25054.85
506.94	25470.59
507.14	25237.12
507.35	25425.53
507.55	25493.12
507.76	25425.53
507.96	25419.39
508.17	25577.08
508.37	25509.50
508.58	25482.88
508.78	25943.67
508.99	26123.89
509.19	26015.35
509.40	25802.36
509.60	25876.09
509.81	25818.74
510.01	25773.69
510.22	25941.62
510.42	26203.76
510.63	26328.69
510.83	26574.44
511.04	26168.94
511.24	26484.33
511.44	26429.04
511.65	26510.96
511.85	26693.22
512.06	26383.98
512.26	26617.45
512.47	26967.65
512.67	26787.43
512.88	26664.55
513.08	26750.57
513.29	26918.50
513.49	26943.08
513.69	27184.74
513.90	27197.02
514.10	27139.68
514.31	27487.84
514.51	27395.68
514.72	27184.74
514.92	27119.20
515.13	27491.93
515.33	27463.26
515.53	27596.38
515.74	27901.53
515.94	27684.44
516.15	27629.15
516.35	27987.54
516.56	27774.55
516.76	27706.97
516.96	27893.33
517.17	27965.01
517.37	28241.49
517.58	27872.85
517.78	27960.92
517.99	28257.87
518.19	28372.56
518.39	28300.88
518.60	28585.55
518.80	28501.58
519.01	28354.13
519.21	28483.15
519.41	28989.00
519.62	28536.40
519.82	28784.20
520.03	28724.81
520.23	28577.36
520.43	29197.89
520.64	29357.63
520.84	29400.64
521.05	29150.79
521.25	29310.53
521.45	29214.27
521.66	29208.13
521.86	29560.38
522.07	29433.41
522.27	29273.67
522.47	29398.59
522.68	29943.35
522.88	29881.91
523.08	30307.89
523.29	30307.89
523.49	30068.28
523.70	30508.59
523.90	30582.32
524.10	30109.24
524.31	30527.02
524.51	30152.24
524.71	30760.49
524.92	30598.70
525.12	30877.22
525.33	30940.71
525.53	30813.74
525.73	30840.36
525.94	31028.77
526.14	31059.49
526.34	31186.47
526.55	31102.50
526.75	31180.32
526.95	31397.41
527.16	31323.68
527.36	31272.48
527.56	31720.99
527.77	31682.08
527.97	32058.90
528.17	31657.50
528.38	32011.80
528.58	31583.77
528.78	32464.40
528.99	31987.22
529.19	32343.57
529.39	32318.99
529.60	32626.19
529.80	32652.81
530.00	32613.90
530.21	32960.01
530.41	32841.23
530.61	32841.23
530.82	32910.86
531.02	32970.25
531.22	33111.56
531.43	33166.85
531.63	33377.79
531.83	33410.56
532.04	33533.44
532.24	33287.68
532.44	33680.89
532.64	33838.59
532.85	34033.14
533.05	34100.73
533.25	34266.61
533.46	33844.73
533.66	34389.49
533.86	34233.85
534.07	34641.39
534.27	34516.47
534.47	34768.37
534.67	34821.61
534.88	34563.57
535.08	34717.17
535.28	35114.47
535.49	35272.17
535.69	35513.83
535.89	35503.59
536.09	35198.44
536.30	35866.08
536.50	35720.67
536.70	35522.02
536.91	35591.65
537.11	36011.48
537.31	35786.21
537.51	36017.63
537.72	36320.73
537.92	36275.67
538.12	36572.63
538.32	36367.83
538.53	36509.14
538.73	36177.37
538.93	36713.94
539.13	36570.58
539.34	36734.42
539.54	36412.88
539.74	36965.84
539.94	36804.05
540.15	36670.93
540.35	36834.77
540.55	36988.36
540.75	37033.42
540.96	37447.11
541.16	37273.03
541.36	37207.50
541.56	37590.47
541.77	37891.52
541.97	37438.92
542.17	37897.66
542.37	38057.40
542.58	37838.27
542.78	37864.89
542.98	38114.75
543.18	38528.44
543.38	38510.00
543.59	38497.72
543.79	38325.69
543.99	38385.08
544.19	38778.29
544.40	38485.43
544.60	38858.16
544.80	38741.42
545.00	38933.93
545.20	38731.18
545.41	38540.72
545.61	38958.51
545.81	38946.22
546.01	38983.09
546.21	38690.23
546.42	38722.99
546.62	39558.56
546.82	39286.18
547.02	39427.49
547.22	39814.56
547.43	39341.48
547.63	39577.00
547.83	39773.60
548.03	39523.75
548.23	39908.77
548.44	39542.18
548.64	39712.16
548.84	40232.35
549.04	39832.99
549.24	40232.35
549.45	40301.98
549.65	40371.61
549.85	40170.91
550.05	40351.13
550.25	40236.44
550.45	40856.98
550.66	40510.87
550.86	40277.40
551.06	40850.83
551.26	40590.74
551.46	40922.51
551.66	40850.83
551.87	40449.43
552.07	40680.85
552.27	40588.69
552.47	40748.43
552.67	41252.23
552.87	40859.02
553.07	40947.09
553.28	41170.32
553.48	41061.77
553.68	41377.16
553.88	41581.96
554.08	41510.28
554.28	41385.35
554.48	41676.16
554.69	41178.51
554.89	41768.32
555.09	41362.82
555.29	41211.28
555.49	41418.12
555.69	41477.51
555.89	41708.93
556.10	42257.79
556.30	41786.75
556.50	41842.05
556.70	41612.68
556.90	42112.38
557.10	41946.50
557.30	41907.58
557.50	42012.03
557.70	42098.05
557.91	42235.26
558.11	42073.47
558.31	42177.92
558.51	42374.52
558.71	42544.50
558.91	42460.54
559.11	42177.92
559.31	41956.74
559.51	42118.53
559.72	42431.86
559.92	42782.07
560.12	42548.60
560.32	42538.36
560.52	42792.31
560.72	42769.78
560.92	42689.91
561.12	42542.45
561.32	43015.54
561.52	42853.75
561.72	43287.92
561.93	42974.58
562.13	42831.22
562.33	42997.10
562.53	43400.55
562.73	43093.36
562.93	43173.23
563.13	43021.68
563.33	43226.48
563.53	43189.61
563.73	43175.28
563.93	43246.96
564.13	43685.22
564.33	43242.86
564.53	43470.18
564.74	43621.73
564.94	43332.97
565.14	43662.69
565.34	43152.75
565.54	43511.14
565.74	43640.17
565.94	44072.29
566.14	44008.80
566.34	43693.41
566.54	43890.02
566.74	43752.80
566.94	43834.72
567.14	44062.05
567.34	43910.50
567.54	44072.29
567.74	43720.04
567.94	43709.80
568.14	44424.54
568.34	44342.62
568.54	44088.67
568.74	44549.46
568.94	44463.45
569.14	44318.04
569.34	44160.35
569.54	44193.12
569.75	44516.70
569.95	44350.81
570.15	44954.96
570.35	44600.66
570.55	44875.09
570.75	44604.76
570.95	44690.77
571.15	44844.37
571.35	44682.58
571.55	44791.12
571.75	44922.19
571.95	44977.49
572.15	44803.41
572.35	45135.18
572.55	44811.60
572.75	45182.29
572.95	44995.92
573.15	45108.56
573.35	45428.04
573.55	45280.59
573.75	45161.81
573.95	45434.19
574.15	45180.24
574.35	45430.09
574.55	45110.61
574.75	45266.25
574.95	45483.34
575.15	45413.71
575.34	45577.54
575.54	46077.25
575.74	45862.21
575.94	45753.67
576.14	45462.86
576.34	45944.13
576.54	45774.15
576.74	46259.52
576.94	45753.67
577.14	46378.30
577.34	46497.08
577.54	46136.64
577.74	46071.10
577.94	46241.09
578.14	46239.04
578.34	46701.88
578.54	45632.84
578.74	46286.14
578.94	46239.04
579.14	46112.06
579.34	46404.92
579.54	46517.56
579.74	46953.78
579.94	46476.60
580.13	46857.52
580.33	47076.66
580.53	46791.99
580.73	47093.04
580.93	47328.56
581.13	47181.10
581.33	47150.38
581.53	47551.79
581.73	47527.21
581.93	47959.33
582.13	47637.80
582.33	47553.83
582.53	47281.45
582.73	47424.81
582.92	47875.37
583.12	47619.37
583.32	47732.01
583.52	47719.72
583.72	48010.53
583.92	47977.76
584.12	47969.57
584.32	48229.66
584.52	48225.57
584.72	48186.66
584.92	48229.66
585.11	48260.38
585.31	48061.73
585.51	48207.14
585.71	48028.96
585.91	48618.78
586.11	48276.77
586.31	48526.62
586.51	48598.30
586.71	48971.03
586.91	48739.61
587.10	48495.90
587.30	48809.24
587.50	48895.25
587.70	48674.07
587.90	49042.71
588.10	49050.90
588.30	49044.76
588.50	49100.05
588.69	48878.87
588.89	49313.04
589.09	49249.55
589.29	49030.42
589.49	49143.06
589.69	49229.07
589.89	49665.29
590.08	49505.55
590.28	49411.34
590.48	49239.31
590.68	49292.56
590.88	49358.09
591.08	49558.80
591.28	49212.69
591.47	50074.88
591.67	49755.40
591.87	49837.32
592.07	49796.36
592.27	49923.33
592.47	49616.14
592.67	49575.18
592.86	49800.46
593.06	49995.01
593.26	50074.88
593.46	50103.56
593.66	50304.26
593.86	50439.42
594.05	50566.40
594.25	50654.46
594.45	50382.08
594.65	50257.15
594.85	50357.50
595.05	50636.03
595.24	50445.57
595.44	50742.52
595.64	50613.50
595.84	50754.81
596.04	50629.88
596.23	50664.70
596.43	51299.57
596.63	50857.21
596.83	51090.68
597.03	51295.47
597.22	51332.34
597.42	51121.40
597.62	51465.45
597.82	51078.39
598.02	51199.22
598.21	51498.22
598.41	51553.52
598.61	51369.20
598.81	51393.78
599.01	51264.75
599.20	51246.32
599.40	51293.43
599.60	51651.82
599.80	51604.72
600.00	51741.93
600.19	51877.10
600.39	51762.41
600.59	51983.59
600.79	52030.69
600.98	51754.22
601.18	52237.54
601.38	52366.56
601.58	51858.66
601.78	52432.10
601.97	52706.52
602.17	52692.19
602.37	52692.19
602.57	52450.53
602.76	52382.94
602.96	52499.68
603.16	52853.98
603.36	52442.34
603.55	52913.37
603.75	52471.01
603.95	52796.63
604.15	52796.63
604.34	52997.34
604.54	53077.21
604.74	53226.71
604.94	53466.32
605.13	53253.33
605.33	52925.66
605.53	52937.94
605.73	53161.17
605.92	53251.28
606.12	53314.77
606.32	53761.23
606.52	53255.38
606.71	53408.98
606.91	53849.29
607.11	53380.31
607.30	53599.44
607.50	53898.44
607.70	53861.58
607.90	53251.28
608.09	53970.12
608.29	54074.57
608.49	53945.54
608.68	53826.76
608.88	54138.05
609.08	54226.12
609.28	53882.06
609.47	54097.09
609.67	54187.21
609.87	54473.92
610.06	54041.80
610.26	54215.88
610.46	54236.36
610.66	54011.08
610.85	54209.73
611.05	53753.04
611.25	54209.73
611.44	53822.67
611.64	54052.04
611.84	54256.84
612.03	54336.71
612.23	54533.31
612.43	54301.89
612.62	54752.44
612.82	54265.03
613.02	54637.76
613.21	54422.72
613.41	53978.31
613.61	54613.18
613.80	54242.50
614.00	54478.02
614.20	54559.94
614.39	54539.46
614.59	54867.13
614.79	54715.58
614.98	54478.02
615.18	54789.31
615.38	54518.98
615.57	54459.58
615.77	54639.81
615.97	54754.49
616.16	54244.55
616.36	54486.21
616.56	54918.33
616.75	54633.66
616.95	54478.02
617.15	54566.08
617.34	54664.38
617.54	54355.14
617.74	55293.11
617.93	54756.54
618.13	54830.27
618.32	55139.51
618.52	54596.80
618.72	54613.18
618.91	54549.70
619.11	54729.92
619.31	54883.51
619.50	54547.65
619.70	54426.82
619.90	54265.03
620.09	54992.06
620.29	54942.91
620.48	54826.17
620.68	54916.28
620.88	54817.98
621.07	54881.47
621.27	54973.63
621.46	54203.59
621.66	54623.42
621.86	54873.27
622.05	54670.53
622.25	54512.83
622.44	55035.06
622.64	54473.92
622.84	54981.82
623.03	54645.95
623.23	54355.14
623.42	54484.16
623.62	54617.28
623.82	55098.55
624.01	54625.47
624.21	54682.81
624.40	54676.67
624.60	54592.70
624.80	54705.34
624.99	54764.73
625.19	54146.25
625.38	54705.34
625.58	54760.64
625.77	54707.39
625.97	54774.97
626.17	54607.04
626.36	54676.67
626.56	54662.33
626.75	53834.95
626.95	55096.50
627.14	54596.80
627.34	55065.78
627.54	54539.46
627.73	54729.92
627.93	54895.80
628.12	54762.68
628.32	54815.93
628.51	54437.06
628.71	54731.96
628.90	54789.31
629.10	54551.74
629.30	54529.22
629.49	54637.76
629.69	54944.95
629.88	54764.73
630.08	54992.06
630.27	55303.35
630.47	54852.80
630.66	54342.85
630.86	55018.68
631.05	54437.06
631.25	55227.57
631.44	54822.08
631.64	54672.57
631.84	54883.51
632.03	55096.50
632.23	55180.47
632.42	55385.27
632.62	55182.52
632.81	54244.55
633.01	55129.27
633.20	55121.08
633.40	55465.14
633.59	54781.12
633.79	54672.57
633.98	55116.98
634.18	55168.18
634.37	55094.46
634.57	55129.27
634.76	55256.24
634.96	55129.27
635.15	55219.38
635.35	54809.79
635.54	55053.50
635.74	55473.33
635.93	55071.93
636.13	55497.91
636.32	55106.74
636.52	55071.93
636.71	55465.14
636.91	55104.70
637.10	55180.47
637.30	55084.22
637.49	55352.50
637.69	55235.77
637.88	55608.50
638.08	54752.44
638.27	55395.51
638.46	55434.42
638.66	54842.56
638.85	55035.06
639.05	54918.33
639.24	55270.58
639.44	55506.10
639.63	55211.19
639.83	55608.50
640.02	55463.09
640.22	55336.12
640.41	55747.76
640.61	55121.08
640.80	55424.18
640.99	55088.31
641.19	55379.12
641.38	55209.14
641.58	55426.23
641.77	55080.12
641.97	55205.05
642.16	55399.60
642.36	55506.10
642.55	56005.80
642.74	55479.47
642.94	56112.30
643.13	55413.94
643.33	55997.61
643.52	55807.15
643.72	55344.31
643.91	55751.85
644.10	55866.54
644.30	55792.81
644.49	55358.64
644.69	56005.80
644.88	55743.66
645.08	55657.65
645.27	56071.34
645.46	55612.59
645.66	55993.51
645.85	55631.02
646.05	56167.59
646.24	55661.74
646.43	55674.03
646.63	56118.44
646.82	56300.71
647.02	55817.39
647.21	56018.09
647.40	55934.12
647.60	56394.92
647.79	56032.42
647.99	55999.66
648.18	55768.24
648.37	56386.72
648.57	56249.51
648.76	55778.48
648.96	56120.49
649.15	55975.08
649.34	56251.56
649.54	56579.23
649.73	55719.09
649.92	56358.05
650.12	56501.41
650.31	56609.95
650.51	56390.82
650.70	56462.50
650.89	56300.71
651.09	56911.00
651.28	56528.03
651.47	56458.40
651.67	56364.20
651.86	56562.85
652.06	55731.37
652.25	56587.42
652.44	56323.24
652.64	55936.17
652.83	56290.47
653.02	56304.80
653.22	56794.27
653.41	56269.99
653.60	55848.11
653.80	56159.40
653.99	56808.61
654.18	56118.44
654.38	56374.44
654.57	56425.64
654.76	56358.05
654.96	56431.78
655.15	56339.62
655.34	56515.75
655.54	56419.49
655.73	56732.83
655.92	56364.20
656.12	56685.73
656.31	56808.61
656.50	56472.74
656.70	56648.86
656.89	56607.90
657.08	57105.56
657.28	56505.51
657.47	56765.60
657.66	56880.28
657.86	56382.63
658.05	56571.04
658.24	56947.87
658.43	56759.45
658.63	56939.68
658.82	57074.84
659.01	57054.36
659.21	56743.07
659.40	56525.99
659.59	56333.48
659.79	56607.90
659.98	56800.41
660.17	57015.45
660.36	56624.29
660.56	56759.45
660.75	57351.32
660.94	56675.49
661.14	56652.96
661.33	56876.19
661.52	56448.16
661.71	56935.58
661.91	56417.44
662.10	56704.16
662.29	57255.06
662.49	56786.08
662.68	56597.66
662.87	56468.64
663.06	57054.36
663.26	56876.19
663.45	57351.32
663.64	56763.55
663.83	57349.27
664.03	57117.85
664.22	57218.20
664.41	56884.38
664.60	56892.57
664.80	56794.27
664.99	56827.04
665.18	56812.70
665.37	57021.59
665.57	57324.69
665.76	56818.84
665.95	56964.25
666.14	57119.90
666.34	56583.33
666.53	57068.70
666.72	56882.33
666.91	56736.93
667.11	56681.63
667.30	56751.26
667.49	56882.33
667.68	56581.28
667.87	56702.11
668.07	56874.14
668.26	56874.14
668.45	57111.70
668.64	56947.87
668.84	57402.52
669.03	56935.58
669.22	56726.69
669.41	56992.92
669.60	56816.80
669.80	56581.28
669.99	57089.18
670.18	56685.73
670.37	56368.29
670.57	57115.80
670.76	56612.00
670.95	57062.55
671.14	56908.96
671.33	56638.62
671.53	57238.68
671.72	56820.89
671.91	56851.61
672.10	56808.61
672.29	56675.49
672.48	56437.92
672.68	56992.92
672.87	57048.22
673.06	56855.71
673.25	56970.39
673.44	56970.39
673.64	57060.51
673.83	56663.20
674.02	56616.10
674.21	56407.20
674.40	56829.08
674.59	56661.15
674.79	56595.62
674.98	56235.17
675.17	56738.97
675.36	56763.55
675.55	56747.17
675.74	56448.16
675.94	56456.35
676.13	56718.49
676.32	57111.70
676.51	56747.17
676.70	56493.22
676.89	56646.82
677.08	56820.89
677.28	56689.82
677.47	56982.68
677.66	56503.46
677.85	56562.85
678.04	56978.59
678.23	56868.00
678.42	56378.53
678.62	56368.29
678.81	56980.63
679.00	56284.33
679.19	56857.76
679.38	56659.10
679.57	56716.45
679.76	56685.73
679.96	56951.96
680.15	56399.01
680.34	56853.66
680.53	56642.72
680.72	56691.87
680.91	56939.68
681.10	56429.73
681.29	57054.36
681.48	56745.12
681.68	56188.07
681.87	56376.48
682.06	56165.54
682.25	56087.72
682.44	56255.65
682.63	56640.67
682.82	55901.36
683.01	56366.24
683.20	55721.13
683.39	56317.09
683.59	56108.20
683.78	56458.40
683.97	55686.32
684.16	56446.11
684.35	55809.20
684.54	56177.83
684.73	55620.78
684.92	56149.16
685.11	55850.16
685.30	55692.46
685.49	56409.25
685.69	55862.44
685.88	56179.88
686.07	55932.07
686.26	55688.37
686.45	56136.87
686.64	55911.59
686.83	55784.62
687.02	56259.75
687.21	56046.76
687.40	56175.78
687.59	55786.67
687.78	55674.03
687.97	55866.54
688.16	55968.94
688.35	56009.90
688.54	55792.81
688.74	55655.60
688.93	55809.20
689.12	55780.52
689.31	55925.93
689.50	55590.06
689.69	55612.59
689.88	55530.67
690.07	55856.30
690.26	55551.15
690.45	55708.85
690.64	55413.94
690.83	55690.41
691.02	55440.56
691.21	55215.29
691.40	55588.02
691.59	55551.15
691.78	55616.69
691.97	55522.48
692.16	55571.63
692.35	55512.24
692.54	55893.16
692.73	55540.91
692.92	55471.28
693.11	55424.18
693.30	55620.78
693.49	55080.12
693.68	55352.50
693.87	55444.66
694.06	55182.52
694.25	55297.20
694.44	54762.68
694.63	55186.61
694.82	55375.03
695.01	54906.04
695.20	54805.69
695.39	54822.08
695.58	55229.62
695.77	54693.05
695.96	54850.75
696.15	54998.20
696.34	54473.92
696.53	54928.57
696.72	54949.05
696.91	54664.38
697.10	54817.98
697.29	54588.61
697.48	54965.43
697.67	54772.92
697.86	54596.80
698.05	54342.85
698.24	55203.00
698.43	54334.66
698.62	54510.78
698.81	54338.75
699.00	55088.31
699.19	54240.45
699.38	54727.87
699.57	54144.20
699.76	55174.33
699.95	54260.93
700.14	54738.11
700.32	54582.46
700.51	54314.18
700.70	54365.38
700.89	54899.90
701.08	54115.53
701.27	53984.46
701.46	54412.48
701.65	53521.62
701.84	54318.28
702.03	54351.04
702.22	53804.24
702.41	54109.38
702.60	53916.87
702.79	53867.72
702.98	53523.66
703.17	54060.23
703.35	53798.09
703.54	53628.11
703.73	53966.02
703.92	53863.63
704.11	53888.20
704.30	53458.13
704.49	53757.13
704.68	53681.36
704.87	53589.20
705.06	53454.03
705.25	53626.06
705.43	53566.67
705.62	53560.53
705.81	53130.45
706.00	53845.19
706.19	53013.72
706.38	52993.24
706.57	52692.19
706.76	52679.90
706.95	53374.16
707.14	53327.06
707.32	52933.85
707.51	52968.66
707.70	53275.86
707.89	52968.66
708.08	53007.58
708.27	53521.62
708.46	53570.77
708.65	52995.29
708.84	53538.00
709.02	53181.65
709.21	53163.22
709.40	52581.60
709.59	53122.26
709.78	52831.45
709.97	53300.43
710.16	53198.04
710.34	52804.83
710.53	52800.73
710.72	52786.39
710.91	52956.38
711.10	52970.71
711.29	52810.97
711.48	52686.04
711.66	52600.03
711.85	52821.21
712.04	52610.27
712.23	52440.29
712.42	52589.79
712.61	52425.95
712.80	52260.07
712.98	52458.72
713.17	52313.31
713.36	52309.22
713.55	52452.58
713.74	52002.02
713.93	52237.54
714.11	51934.44
714.30	52051.17
714.49	51911.91
714.68	52305.12
714.87	52438.24
715.06	52395.23
715.24	52085.99
715.43	51801.32
715.62	51983.59
715.81	51590.38
716.00	51815.66
716.18	51418.35
716.37	51582.19
716.56	51526.89
716.75	52016.36
716.94	51678.44
717.12	51524.85
717.31	51870.95
717.50	51381.49
717.69	51621.10
717.88	51549.42
718.06	51829.99
718.25	51672.30
718.44	51166.45
718.63	51412.21
718.82	50705.66
719.00	51004.66
719.19	50951.41
719.38	51006.71
719.57	50734.33
719.76	50818.30
719.94	50423.04
720.13	50404.61
720.32	50447.61
720.51	50742.52
720.69	50568.44
720.88	50742.52
721.07	50201.86
721.26	50369.79
721.44	50533.63
721.63	50857.21
721.82	49816.84
722.01	50093.32
722.20	50480.38
722.38	49999.11
722.57	49739.02
722.76	50025.73
722.95	49964.29
723.13	49620.23
723.32	49999.11
723.51	49485.07
723.70	49847.56
723.88	49485.07
724.07	49364.24
724.26	49618.19
724.44	48958.74
724.63	49739.02
724.82	49415.44
725.01	49110.29
725.19	49624.33
725.38	49333.52
725.57	49360.14
725.76	49192.21
725.94	49222.93
726.13	49024.28
726.32	49136.91
726.51	48925.97
726.69	49224.98
726.88	49470.73
727.07	49040.66
727.25	48762.14
727.44	48981.27
727.63	49040.66
727.82	49165.59
728.00	48907.54
728.19	48604.44
728.38	49255.70
728.56	48330.01
728.75	48813.34
728.94	48573.72
729.12	49349.90
729.31	48911.64
729.50	49011.99
729.69	48989.46
729.87	48905.49
730.06	48624.92
730.25	48706.84
730.43	48979.22
730.62	48739.61
730.81	49224.98
730.99	48985.36
731.18	48530.72
731.37	49098.00
731.55	48848.15
731.74	49124.63
731.93	48934.17
732.11	48543.00
732.30	48500.00
732.49	48540.96
732.67	48614.68
732.86	48561.44
733.05	48952.60
733.23	48536.86
733.42	48280.86
733.61	48874.77
733.79	48600.35
733.98	49229.07
734.17	48665.88
734.35	48600.35
734.54	48649.50
734.73	48850.20
734.91	48401.69
735.10	48086.31
735.29	48651.55
735.47	48356.64
735.66	48434.46
735.84	48479.52
736.03	47772.97
736.22	48504.09
736.40	48162.08
736.59	48928.02
736.78	48731.42
736.96	47947.04
737.15	48035.11
737.33	47926.56
737.52	48088.35
737.71	47914.28
737.89	47772.97
738.08	47568.17
738.27	47824.17
738.45	48188.70
738.64	47832.36
738.82	47901.99
739.01	48100.64
739.20	47871.27
739.38	48102.69
739.57	48088.35
739.75	48100.64
739.94	48319.77
740.13	47746.34
740.31	47641.90
740.50	47510.83
740.68	47715.62
740.87	47721.77
741.06	48170.27
741.24	47613.23
741.43	47822.12
741.61	47668.52
741.80	47215.92
741.99	47273.26
742.17	47236.40
742.36	47263.02
742.54	47455.53
742.73	47246.64
742.91	47258.93
743.10	47306.03
743.29	47588.65
743.47	47543.59
743.66	47287.60
743.84	47478.06
744.03	47645.99
744.21	47281.45
744.40	47527.21
744.59	46673.21
744.77	47306.03
744.96	47095.09
745.14	46970.16
745.33	47412.52
745.51	47070.51
745.70	47174.96
745.88	47301.93
746.07	47035.70
746.26	46634.30
746.44	47052.08
746.63	46628.15
746.81	47070.51
747.00	46572.86
747.18	47154.48
747.37	46716.22
747.55	46789.94
747.74	46744.89
747.92	46519.61
748.11	46865.72
748.29	46535.99
748.48	46548.28
748.66	46783.80
748.85	46648.63
749.03	46339.39
749.22	46388.54
749.41	46161.22
749.59	46736.69
749.78	45884.74
749.96	46179.65
750.15	46587.19
750.33	46380.35
750.52	46081.34
750.70	46333.24
750.89	45974.85
751.07	45894.98
751.26	45972.80
751.44	45925.70
751.63	46173.50
751.81	45684.04
752.00	45964.61
752.18	45753.67
752.37	45765.96
752.55	45540.68
752.74	45782.34
752.92	45442.38
753.10	45176.14
753.29	45665.61
753.47	45391.18
753.66	45202.77
753.84	45763.91
754.03	45342.03
754.21	45315.40
754.40	45477.19
754.58	45733.19
754.77	45012.31
754.95	44909.91
755.14	44649.81
755.32	44932.43
755.51	45079.89
755.69	44959.06
755.88	45245.77
756.06	45081.94
756.24	45200.72
756.43	45213.01
756.61	45000.02
756.80	44825.94
756.98	44371.29
757.17	44938.58
757.35	44500.31
757.54	44909.91
757.72	44928.34
757.90	44602.71
758.09	44447.07
758.27	44481.88
758.46	44701.01
758.64	44344.67
758.83	44424.54
759.01	44737.88
759.19	44854.61
759.38	44350.81
759.56	44905.81
759.75	44651.86
759.93	44115.29
760.12	43926.88
760.30	44445.02
760.48	44254.56
760.67	44359.00
760.85	44006.75
761.04	44600.66
761.22	44254.56
761.40	44324.19
761.59	43906.40
761.77	43472.23
761.96	44049.76
762.14	43844.96
762.32	43631.97
762.51	43562.34
762.69	43795.81
762.88	43660.65
763.06	43709.80
763.24	43793.76
763.43	43623.78
763.61	43457.90
763.80	43459.94
763.98	43451.75
764.16	43369.83
764.35	43308.40
764.53	43095.41
764.72	43357.55
764.90	43191.66
765.08	43363.69
765.27	42773.88
765.45	42784.12
765.63	42714.48
765.82	42993.01
766.00	42886.51
766.18	43234.67
766.37	43203.95
766.55	42630.52
766.74	43079.02
766.92	42880.37
767.10	42581.37
767.29	42810.74
767.47	42227.07
767.65	42704.24
767.84	42337.66
768.02	42503.54
768.20	42278.27
768.39	42818.93
768.57	42581.37
768.75	42317.18
768.94	42165.63
769.12	42366.33
769.30	42532.22
769.49	41819.52
769.67	41950.59
769.85	42026.37
770.04	41973.12
770.22	41735.56
770.40	41817.47
770.59	41508.23
770.77	41975.17
770.95	41772.42
771.14	41508.23
771.32	41551.24
771.50	41319.82
771.69	41383.30
771.87	41700.74
772.05	41575.81
772.24	41158.03
772.42	41346.44
772.60	41391.50
772.78	41233.80
772.97	40875.41
773.15	41661.83
773.33	41147.79
773.52	41133.45
773.70	41158.03
773.88	41201.04
774.07	40934.80
774.25	41344.39
774.43	41168.27
774.61	41065.87
774.80	41403.78
774.98	41434.50
775.16	41330.06
775.34	41395.59
775.53	41260.43
775.71	41547.14
775.89	41344.39
776.08	41110.92
776.26	41549.19
776.44	41082.25
776.62	41313.67
776.81	40891.79
776.99	41581.96
777.17	41342.35
777.35	41454.98
777.54	41588.10
777.72	41225.61
777.90	41350.54
778.08	41395.59
778.27	41790.85
778.45	41909.63
778.63	41784.71
778.81	41710.98
779.00	41934.21
779.18	41551.24
779.36	41893.25
779.54	41719.17
779.73	41500.04
779.91	41743.75
780.09	41346.44
780.27	42132.86
780.46	41819.52
780.64	41872.77
780.82	41555.33
781.00	42255.74
781.19	41997.70
781.37	42161.53
781.55	41930.11
781.73	42345.85
781.91	41837.95
782.10	42057.09
782.28	42192.25
782.46	41915.78
782.64	42173.82
782.82	41831.81
783.01	42139.00
783.19	42364.28
783.37	42427.77
783.55	42028.41
783.74	42515.83
783.92	41790.85
784.10	42532.22
784.28	42139.00
784.46	42030.46
784.64	42044.80
784.83	42286.46
785.01	42513.78
785.19	42194.30
785.37	42104.19
785.55	42251.64
785.74	41766.27
785.92	41940.35
786.10	42304.89
786.28	41594.25
786.46	41983.36
786.64	41616.77
786.83	41573.77
787.01	42198.40
787.19	41735.56
787.37	41825.67
787.55	41764.23
787.74	41661.83
787.92	41723.27
788.10	41420.17
788.28	41325.96
788.46	41590.15
788.64	41526.66
788.82	42003.84
789.01	41325.96
789.19	41878.91
789.37	41219.47
789.55	41254.28
789.73	41346.44
789.91	40957.33
790.09	41100.68
790.28	41207.18
790.46	40914.32
790.64	41084.30
790.82	41282.95
791.00	40682.90
791.18	40457.62
791.36	40730.00
791.55	40863.12
791.73	40654.23
791.91	40517.01
792.09	40336.79
792.27	40656.28
792.45	40056.22
792.63	40088.99
792.81	39984.54
793.00	39716.26
793.18	40025.50
793.36	39718.31
793.54	39667.11
793.72	39421.35
793.90	39478.69
794.08	39732.64
794.26	39247.27
794.44	39241.13
794.62	39159.21
794.81	39495.08
794.99	39136.68
795.17	39323.05
795.35	39116.20
795.53	39128.49
795.71	38950.32
795.89	38346.17
796.07	38651.31
796.25	38458.81
796.43	38405.56
796.61	38045.12
796.80	38247.86
796.98	38262.20
797.16	38030.78
797.34	38155.71
797.52	38143.42
797.70	38487.48
797.88	37694.91
798.06	37836.22
798.24	37590.47
798.42	37717.44
798.60	37821.89
798.78	37737.92
798.96	37320.13
799.14	37207.50
799.32	37479.88
799.51	37428.68
799.69	37008.84
799.87	37043.66
800.05	36877.77
800.23	36822.48
800.41	36642.26
800.59	36705.74
800.77	36449.75
800.95	36251.09
801.13	36617.68
801.31	36541.91
801.49	36507.09
801.67	36064.73
801.85	36443.60
802.03	35767.77
802.21	35919.32
802.39	36126.17
802.57	35726.81
802.75	35673.57
802.93	35577.31
803.11	35784.16
803.29	35515.87
803.47	35098.09
803.65	34977.26
803.83	35911.13
804.01	35321.32
804.19	34899.44
804.37	34893.29
804.55	34975.21
804.73	34827.76
804.91	34897.39
805.09	34907.63
805.27	34838.00
805.45	35300.84
805.63	34682.35
805.81	34586.10
805.99	34921.96
806.17	34926.06
806.35	34582.00
806.53	34321.91
806.71	34375.16
806.89	34280.95
807.07	34383.35
807.25	34520.56
807.43	34147.83
807.61	34102.78
807.79	34137.59
807.97	34049.53
808.15	33793.53
808.33	33418.75
808.51	33465.86
808.69	33885.69
808.87	33357.32
809.05	33230.34
809.23	33134.09
809.41	32898.57
809.59	33003.02
809.77	33259.01
809.95	33252.87
810.13	32949.77
810.31	32755.21
810.49	32929.29
810.67	33046.02
810.84	32904.71
811.02	32994.82
811.20	32462.35
811.38	32927.24
811.56	32239.12
811.74	32445.97
811.92	32220.69
812.10	32093.72
812.28	32515.60
812.46	32153.11
812.64	32433.68
812.82	31798.81
813.00	32253.46
813.18	31917.59
813.36	32124.44
813.53	31776.28
813.71	31745.56
813.89	31708.70
814.07	32095.77
814.25	31856.15
814.43	31868.44
814.61	31462.94
814.79	31188.52
814.97	31493.66
815.15	31374.88
815.33	31172.13
815.50	31082.02
815.68	31368.74
815.86	31360.55
816.04	31215.14
816.22	30889.51
816.40	31243.81
816.58	31065.64
816.76	30838.31
816.94	30570.03
817.11	30510.64
817.29	30512.69
817.47	30623.28
817.65	30432.82
817.83	30692.91
818.01	30510.64
818.19	30330.42
818.37	30645.80
818.54	30254.64
818.72	30289.46
818.90	30037.56
819.08	30203.44
819.26	30178.87
819.44	29982.26
819.62	30021.17
819.80	29959.73
819.97	29908.54
820.15	29767.23
820.33	29703.74
820.51	29865.53
820.69	29498.94
820.87	29742.65
821.05	29939.26
821.22	29578.81
821.40	29732.41
821.58	29310.53
821.76	29410.88
821.94	29484.61
822.12	29412.93
822.29	29507.13
822.47	28923.46
822.65	29509.18
822.83	29107.78
823.01	28948.04
823.19	29136.45
823.36	29021.77
823.54	28800.58
823.72	28927.56
823.90	28974.66
824.08	28655.18
824.25	29173.31
824.43	28636.75
824.61	28661.32
824.79	28665.42
824.97	28497.49
825.15	28923.46
825.32	28581.45
825.50	28329.55
825.68	28542.54
825.86	28630.60
826.04	28765.77
826.21	28272.21
826.39	28581.45
826.57	28237.39
826.75	28229.20
826.93	28180.05
827.10	27768.41
827.28	28214.87
827.46	28464.72
827.64	28178.00
827.81	27819.61
827.99	28022.36
828.17	27797.08
828.35	27782.74
828.53	28237.39
828.70	27582.04
828.88	27653.72
829.06	27786.84
829.24	28235.35
829.41	27543.13
829.59	27768.41
829.77	27831.90
829.95	27498.08
830.12	27418.21
830.30	27577.95
830.48	27549.28
830.66	27367.01
830.84	27811.42
831.01	27164.26
831.19	27682.39
831.37	27170.40
831.55	26961.51
831.72	26975.84
831.90	26859.11
832.08	27186.79
832.25	27256.42
832.43	26981.99
832.61	27012.71
832.79	26973.80
832.96	26801.77
833.14	26750.57
833.32	26979.94
833.50	27098.72
833.67	26642.03
833.85	26969.70
834.03	26410.60
834.20	26867.30
834.38	26988.13
834.56	26719.85
834.74	26654.31
834.91	26488.43
835.09	26496.62
835.27	26334.83
835.44	26357.36
835.62	26066.55
835.80	26205.81
835.98	26197.62
836.15	26672.74
836.33	26164.85
836.51	26498.67
836.68	26152.56
836.86	26003.06
837.04	26041.97
837.21	26459.76
837.39	26211.95
837.57	26072.69
837.75	25855.61
837.92	25790.07
838.10	25583.23
838.28	25880.18
838.45	25740.92
838.63	25515.64
838.81	25624.18
838.98	25659.00
839.16	25489.02
839.34	25306.75
839.51	25742.97
839.69	25263.74
839.87	25431.68
840.04	25652.86
840.22	25448.06
840.40	25353.85
840.57	25112.19
840.75	25294.46
840.93	25046.66
841.10	25056.90
841.28	25462.40
841.46	25257.60
841.63	25366.14
841.81	25169.54
841.98	25224.83
842.16	25183.87
842.34	25116.29
842.51	24718.98
842.69	25089.67
842.87	24733.32
843.04	25067.14
843.22	24987.27
843.40	24960.64
843.57	24737.41
843.75	24977.03
843.92	24813.19
844.10	24790.66
844.28	24718.98
844.45	24540.81
844.63	24786.57
844.81	24899.20
844.98	24610.44
845.16	24587.91
845.33	24428.17
845.51	24544.91
845.69	24503.95
845.86	24346.25
846.04	24510.09
846.21	24313.48
846.39	24026.77
846.57	24032.91
846.74	24194.70
846.92	24225.42
847.09	24317.58
847.27	23852.69
847.45	24037.01
847.62	24170.13
847.80	24288.91
847.97	24084.11
848.15	23953.04
848.32	23918.23
848.50	23846.55
848.68	23498.39
848.85	23797.40
849.03	23549.59
849.20	23707.29
849.38	23764.63
849.56	24022.67
849.73	23719.57
849.91	23770.77
850.08	24004.24
850.26	23649.94
850.43	23547.54
850.61	23733.91
850.78	23396.00
850.96	23533.21
851.14	23404.19
851.31	23518.87
851.49	23226.01
851.66	23555.74
851.84	23277.21
852.01	23617.18
852.19	23504.54
852.36	22955.68
852.54	23266.97
852.71	23000.74
852.89	23146.14
853.07	22955.68
853.24	23326.36
853.42	23060.13
853.59	23180.96
853.77	23023.26
853.94	23324.32
854.12	23000.74
854.29	22939.30
854.47	22877.86
854.64	22994.59
854.82	22867.62
854.99	23000.74
855.17	22660.77
855.34	23178.91
855.52	22783.65
855.69	22726.31
855.87	22781.60
856.04	22478.50
856.22	22638.25
856.39	22558.38
856.57	22564.52
856.74	22369.96
856.92	22546.09
857.09	22111.92
857.27	22445.74
857.44	22484.65
857.62	22644.39
857.79	22611.62
857.97	22503.08
858.14	22470.31
858.32	22429.35
858.49	22468.27
858.67	21976.75
858.84	22023.86
859.02	22175.41
859.19	22286.00
859.37	22085.30
859.54	22048.43
859.72	22036.14
859.89	22138.54
860.06	22085.30
860.24	21946.03
860.41	22187.69
860.59	22107.82
860.76	21915.31
860.94	21685.94
861.11	22167.21
861.29	21980.85
861.46	21608.12
861.64	21667.51
861.81	21532.34
861.98	21520.06
862.16	21708.47
862.33	21460.66
862.51	21442.23
862.68	21501.62
862.86	21450.42
863.03	21419.71
863.21	21182.14
863.38	21505.72
863.55	21094.08
863.73	21339.83
863.90	21290.68
864.08	21155.52
864.25	21202.62
864.43	21237.44
864.60	21137.09
864.77	20842.18
864.95	21298.88
865.12	20999.87
865.30	21135.04
865.47	20926.14
865.64	21016.26
865.82	21016.26
865.99	21122.75
866.17	20977.34
866.34	20975.30
866.51	20836.03
866.69	20737.73
866.86	20772.55
867.04	20811.46
867.21	20780.74
867.38	20711.11
867.56	20547.27
867.73	20606.66
867.91	20580.04
868.08	20426.44
868.25	20623.05
868.43	20557.51
868.60	20066.00
868.78	19969.74
868.95	20575.94
869.12	20352.71
869.30	20408.01
869.47	20303.56
869.64	20129.48
869.82	20164.30
869.99	20031.18
870.16	20260.55
870.34	20086.48
870.51	20299.47
870.69	20006.61
870.86	20127.44
871.03	19947.22
871.21	19902.16
871.38	20301.51
871.55	19721.94
871.73	19775.19
871.90	19836.63
872.07	19701.46
872.25	19404.50
872.42	19783.38
872.59	19545.81
872.77	19664.60
872.94	19779.28
873.11	19515.09
873.29	19519.19
873.46	19535.57
873.63	19527.38
873.81	19427.03
873.98	19300.06
874.15	19398.36
874.33	19171.04
874.50	18999.01
874.67	19449.56
874.85	19275.48
875.02	18958.05
875.19	19044.06
875.37	18872.03
875.54	19003.10
875.71	18591.46
875.88	18792.16
876.06	18890.46
876.23	18872.03
876.40	18700.00
876.58	18704.10
876.75	18718.43
876.92	18386.66
877.10	18675.43
877.27	18427.62
877.44	18460.39
877.61	18296.55
877.79	18505.45
877.96	18544.36
878.13	18245.35
878.31	18216.68
878.48	18425.57
878.65	18013.93
878.82	17956.59
879.00	18140.91
879.17	18269.93
879.34	18151.15
879.51	18044.65
879.69	17925.87
879.86	17766.13
880.03	18116.33
880.21	17848.05
880.38	18020.08
880.55	18126.57
880.72	17780.46
880.90	17970.93
881.07	17733.36
881.24	17602.29
881.41	17872.62
881.59	18015.98
881.76	17901.29
881.93	17594.10
882.10	17622.77
882.28	17549.04
882.45	17909.49
882.62	17522.42
882.79	17516.28
882.96	17334.01
883.14	17360.63
883.31	17667.83
883.48	17358.58
883.65	17503.99
883.83	17319.67
884.00	17305.34
884.17	17547.00
884.34	17489.65
884.51	17262.33
884.69	17358.58
884.86	17200.89
885.03	17307.38
885.20	16934.65
885.38	17198.84
885.55	17149.69
885.72	17239.80
885.89	17174.27
886.06	17204.99
886.24	17135.35
886.41	16865.02
886.58	17174.27
886.75	17221.37
886.92	16772.86
887.10	17088.25
887.27	16848.64
887.44	16858.88
887.61	16996.09
887.78	17125.11
887.95	16977.66
888.13	16858.88
888.30	16711.42
888.47	16609.03
888.64	16639.75
888.81	16770.82
888.99	16557.83
889.16	16770.82
889.33	16641.79
889.50	16408.33
889.67	16791.30
889.84	16332.55
890.01	16428.81
890.19	16502.53
890.36	16545.54
890.53	16430.85
890.70	16357.13
890.87	16576.26
891.04	16201.48
891.22	16295.69
891.39	16359.17
891.56	16041.74
891.73	16054.03
891.90	16133.90
892.07	15857.42
892.24	15941.39
892.42	15847.18
892.59	16054.03
892.76	15806.22
892.93	15949.58
893.10	16047.88
893.27	16039.69
893.44	15857.42
893.61	15793.94
893.79	15953.68
893.96	15890.19
894.13	16062.22
894.30	15896.33
894.47	15777.55
894.64	15931.15
894.81	15712.02
894.98	15791.89
895.15	15978.25
895.33	15771.41
895.50	15755.02
895.67	15724.30
895.84	15726.35
896.01	15691.54
896.18	15662.86
896.35	15662.86
896.52	15472.40
896.69	15501.08
896.86	15857.42
897.04	15550.23
897.21	15589.14
897.38	15636.24
897.55	15576.85
897.72	15791.89
897.89	15619.86
898.06	15560.47
898.23	15642.39
898.40	15570.71
898.57	15679.25
898.74	15769.36
898.91	15566.61
899.08	15728.40
899.26	15593.23
899.43	15585.04
899.60	15460.12
899.77	15572.75
899.94	15650.58
900.11	15515.41
900.28	15580.95
900.45	15302.42
900.62	15417.11
900.79	15431.44
900.96	15658.77
901.13	15519.51
901.30	15554.32
901.47	15355.67
901.64	15728.40
901.81	15757.07
901.98	15337.24
902.15	15740.69
902.32	15396.63
902.49	15623.95
902.66	15621.91
902.83	15339.29
903.01	15308.57
903.18	15558.42
903.35	15406.87
903.52	15615.76
903.69	15490.84
903.86	15558.42
904.03	15507.22
904.20	15726.35
904.37	15593.23
904.54	15355.67
904.71	15556.37
904.88	15619.86
905.05	15255.32
905.22	15421.20
905.39	15462.16
905.56	15302.42
905.73	15240.98
905.90	15296.28
906.07	15402.77
906.24	15345.43
906.41	15531.80
906.58	15566.61
906.75	15652.63
906.92	15507.22
907.09	15402.77
907.26	15451.92
907.43	15218.46
907.60	15142.68
907.77	15724.30
907.93	15339.29
908.10	15122.20
908.27	15337.24
908.44	15232.79
908.61	15367.96
908.78	15335.19
908.95	15296.28
909.12	15025.95
909.29	15167.26
909.46	15257.37
909.63	15275.80
909.80	15253.27
909.97	15529.75
910.14	15204.12
910.31	15327.00
910.48	15370.01
910.65	15327.00
910.82	14941.98
910.99	15337.24
911.16	14941.98
911.33	15107.87
911.50	15140.63
911.66	14892.83
911.83	15218.46
912.00	14976.80
912.17	14817.05
912.34	14917.40
912.51	14968.60
912.68	14892.83
912.85	14726.94
913.02	14862.11
913.19	14700.32
913.36	14780.19
913.53	14905.12
913.70	14679.84
913.86	14741.28
914.03	14593.83
914.20	14626.59
914.37	14784.29
914.54	14559.01
914.71	14653.22
914.88	14782.24
915.05	14632.74
915.22	14442.28
915.39	14733.09
915.55	14466.85
915.72	14239.53
915.89	14489.38
916.06	14128.94
916.23	14352.16
916.40	14401.32
916.57	14155.56
916.74	14200.62
916.91	14126.89
917.07	14022.44
917.24	14020.39
917.41	13831.98
917.58	13956.91
917.75	14034.73
917.92	13768.49
918.09	14063.40
918.26	13897.52
918.42	13776.69
918.59	13975.34
918.76	13666.10
918.93	13618.99
919.10	13369.14
919.27	13670.19
919.44	13516.59
919.60	13668.14
919.77	13608.75
919.94	13436.72
920.11	13455.15
920.28	13575.98
920.45	13438.77
920.61	13252.41
920.78	13317.94
920.95	13203.25
921.12	13252.41
921.29	13203.25
921.46	12900.16
921.62	13051.70
921.79	13143.86
921.96	12977.98
922.13	13043.51
922.30	12910.40
922.47	12906.30
922.63	12846.91
922.80	12805.95
922.97	12531.52
923.14	12543.81
923.31	12730.17
923.47	12492.61
923.64	12949.31
923.81	12431.17
923.98	12715.84
924.15	12392.26
924.32	12209.99
924.48	12564.29
924.65	12461.89
924.82	12265.28
924.99	12312.39
925.15	11921.23
925.32	11974.47
925.49	11982.67
925.66	12068.68
925.83	11814.73
925.99	11833.16
926.16	11845.45
926.33	12021.58
926.50	11784.01
926.67	11855.69
926.83	11775.82
927.00	11913.03
927.17	11398.99
927.34	11376.47
927.50	11560.78
927.67	11706.19
927.84	11456.34
928.01	11415.38
928.17	11335.51
928.34	11325.27
928.51	11208.53
928.68	11210.58
928.84	11169.62
929.01	11089.75
929.18	10880.86
929.35	11099.99
929.51	10956.63
929.68	10688.35
929.85	10766.17
930.02	10823.51
930.18	10651.49
930.35	10714.97
930.52	10753.88
930.69	10727.26
930.85	10604.38
931.02	10569.57
931.19	10557.28
931.36	10604.38
931.52	10495.84
931.69	10667.87
931.86	10256.23
932.02	10170.21
932.19	10223.46
932.36	10129.25
932.53	10166.12
932.69	10116.97
932.86	10057.57
933.03	10125.16
933.19	9981.80
933.36	10065.77
933.53	9971.56
933.70	9801.58
933.86	9680.75
934.03	9883.50
934.20	9600.88
934.36	9527.15
934.53	9525.10
934.70	9158.52
934.86	9260.91
935.03	9176.95
935.20	8990.58
935.36	9254.77
935.53	9056.12
935.70	8910.71
935.86	9043.83
936.03	8775.55
936.20	8722.30
936.36	8957.82
936.53	8843.13
936.70	8701.82
936.86	8638.33
937.03	8642.43
937.20	8368.00
937.36	8445.82
937.53	8107.91
937.70	8171.40
937.86	8015.75
938.03	8011.65
938.20	7956.36
938.36	7774.09
938.53	7763.85
938.70	7755.66
938.86	7604.11
939.03	7403.41
939.20	7460.75
939.36	7405.46
939.53	7348.11
939.70	7557.00
939.86	6985.62
940.03	7176.08
940.19	6936.47
940.36	6891.41
940.53	6672.28
940.69	6778.78
940.86	6723.48
941.03	6557.60
941.19	6623.13
941.36	6307.74
941.52	6506.40
941.69	6324.13
941.86	6182.82
942.02	6297.50
942.19	6225.82
942.35	6297.50
942.52	6219.68
942.69	6225.82
942.85	6092.71
943.02	6203.30
943.18	6000.55
943.35	5844.90
943.52	6008.74
943.68	5756.84
943.85	5849.00
944.01	5652.39
944.18	5644.20
944.35	5685.16
944.51	5648.30
944.68	5636.01
944.84	5650.35
945.01	5588.91
945.17	5619.63
945.34	5609.39
945.51	5531.56
945.67	5406.64
945.84	5482.41
946.00	5414.83
946.17	5447.60
946.33	5377.97
946.50	5570.48
946.67	5431.21
946.83	5400.49
947.00	5390.25
947.16	5367.73
947.33	5365.68
947.49	5427.12
947.66	5259.18
947.82	5373.87
947.99	5392.30
948.16	5341.10
948.32	5359.53
948.49	5502.89
948.65	5257.14
948.82	5275.57
948.98	5392.30
949.15	5197.74
949.31	5277.62
949.48	5492.65
949.64	5369.77
949.81	5361.58
949.97	5253.04
950.14	5390.25
950.30	5457.84
950.47	5447.60
950.63	5236.66
950.80	5345.20
950.96	5332.91
951.13	5349.29
951.30	5410.73
951.46	5470.12
951.63	5377.97
951.79	5463.98
951.96	5476.27
952.12	5482.41
952.29	5513.13
952.45	5269.42
952.62	5345.20
952.78	5339.05
952.94	5431.21
953.11	5513.13
953.27	5418.93
953.44	5500.84
953.60	5377.97
953.77	5547.95
953.93	5414.83
954.10	5570.48
954.26	5547.95
954.43	5355.44
954.59	5543.85
954.76	5615.53
954.92	5351.34
955.09	5459.88
955.25	5513.13
955.42	5474.22
955.58	5709.74
955.75	5619.63
955.91	5527.47
956.07	5742.50
956.24	5570.48
956.40	5554.09
956.57	5531.56
956.73	5533.61
956.90	5576.62
957.06	5492.65
957.23	5595.05
957.39	5613.48
957.56	5695.40
957.72	5496.75
957.88	5562.28
958.05	5695.40
958.21	5593.00
958.38	5590.95
958.54	5322.67
958.71	5697.45
958.87	5513.13
959.03	5570.48
959.20	5607.34
959.36	5652.39
959.53	5486.51
959.69	5468.08
959.85	5474.22
960.02	5572.52
960.18	5453.74
960.35	5513.13
960.51	5576.62
960.68	5402.54
960.84	5486.51
961.00	5564.33
961.17	5609.39
961.33	5457.84
961.50	5533.61
961.66	5556.14
961.82	5474.22
961.99	5582.76
962.15	5496.75
962.31	5584.81
962.48	5490.60
962.64	5564.33
962.81	5517.23
962.97	5498.80
963.13	5543.85
963.30	5466.03
963.46	5447.60
963.62	5404.59
963.79	5648.30
963.95	5420.97
964.12	5441.45
964.28	5423.02
964.44	5334.96
964.61	5396.40
964.77	5404.59
964.93	5564.33
965.10	5377.97
965.26	5363.63
965.42	5316.53
965.59	5324.72
965.75	5398.45
965.92	5386.16
966.08	5343.15
966.24	5296.05
966.41	5318.57
966.57	5392.30
966.73	5361.58
966.90	5488.56
967.06	5261.23
967.22	5439.40
967.39	5294.00
967.55	5234.61
967.71	5277.62
967.88	5294.00
968.04	5353.39
968.20	5273.52
968.37	5263.28
968.53	5203.89
968.69	5207.98
968.85	5246.90
969.02	5267.38
969.18	5261.23
969.34	5087.15
969.51	5040.05
969.67	5205.94
969.83	5085.11
970.00	5332.91
970.16	5044.15
970.32	5089.20
970.48	5250.99
970.65	5148.59
970.81	5054.39
970.97	5160.88
971.14	4984.76
971.30	5087.15
971.46	5091.25
971.63	5040.05
971.79	4984.76
971.95	5050.29
972.11	4962.23
972.28	4968.37
972.44	5066.67
972.60	4894.65
972.76	5029.81
972.93	4954.04
973.09	5017.52
973.25	4999.09
973.42	4960.18
973.58	4943.80
973.74	4954.04
973.90	4859.83
974.07	4906.93
974.23	4870.07
974.39	4898.74
974.55	4898.74
974.72	4822.97
974.88	4812.73
975.04	4943.80
975.20	4808.63
975.37	4878.26
975.53	4777.91
975.69	4841.40
975.85	4777.91
976.01	4884.41
976.18	4734.90
976.34	4698.04
976.50	4818.87
976.66	4849.59
976.83	4669.37
976.99	4609.98
977.15	4792.25
977.31	4566.97
977.47	4755.38
977.64	4743.10
977.80	4599.74
977.96	4601.79
978.12	4571.07
978.29	4530.11
978.45	4573.11
978.61	4612.03
978.77	4732.86
978.93	4523.96
979.10	4579.26
979.26	4581.31
979.42	4583.35
979.58	4493.24
979.74	4640.70
979.91	4526.01
980.07	4526.01
980.23	4540.35
980.39	4523.96
980.55	4548.54
980.71	4505.53
980.88	4437.95
981.04	4495.29
981.20	4358.08
981.36	4605.88
981.52	4501.44
981.68	4325.31
981.85	4515.77
982.01	4310.97
982.17	4440.00
982.33	4341.69
982.49	4485.05
982.65	4353.98
982.82	4368.32
982.98	4421.56
983.14	4251.58
983.30	4294.59
983.46	4456.38
983.62	4315.07
983.79	4294.59
983.95	4222.91
984.11	4206.53
984.27	4321.21
984.43	4229.06
984.59	4249.54
984.75	4300.73
984.91	4231.10
985.08	4284.35
985.24	4091.84
985.40	4118.47
985.56	4249.54
985.72	4216.77
985.88	4270.01
986.04	4241.34
986.20	4089.79
986.37	4069.31
986.53	4050.88
986.69	4163.52
986.85	3964.87
987.01	4169.66
987.17	4120.51
987.33	3903.43
987.49	4085.70
987.65	3987.40
987.82	4028.35
987.98	3852.23
988.14	4147.14
988.30	4038.59
988.46	3948.48
988.62	3952.58
988.78	3950.53
988.94	4040.64
989.10	3885.00
989.26	3815.37
989.42	3864.52
989.59	3741.64
989.75	3852.23
989.91	3940.29
990.07	3715.02
990.23	3915.72
990.39	3721.16
990.55	3856.33
990.71	3813.32
990.87	3837.89
991.03	3880.90
991.19	3692.49
991.35	3655.62
991.51	3807.17
991.67	3811.27
991.83	3887.04
992.00	3766.21
992.16	3780.55
992.32	3803.08
992.48	3784.65
992.64	3563.47
992.80	3899.33
992.96	3674.06
993.12	3723.21
993.28	3721.16
993.44	3608.52
993.60	3665.86
993.76	3633.10
993.92	3639.24
994.08	3719.11
994.24	3592.14
994.40	3645.38
994.56	3755.97
994.72	3575.75
994.88	3540.94
995.04	3559.37
995.20	3557.32
995.36	3602.38
995.52	3653.58
995.68	3530.70
995.84	3401.68
996.00	3745.73
996.16	3526.60
996.32	3450.83
996.48	3391.44
996.64	3680.20
996.80	3514.31
996.96	3491.79
997.12	3477.45
997.28	3452.88
997.44	3448.78
997.60	3438.54
997.76	3436.49
997.92	3477.45
998.08	3303.37
998.24	3362.76
998.40	3508.17
998.56	3508.17
998.72	3211.22
998.88	3301.33
999.04	3387.34
999.20	3334.09
999.36	3377.10
999.52	3334.09
999.68	3213.26
999.84	3387.34
1000.00	3368.91
1000.16	3293.13
1000.32	3246.03
1000.48	3370.96
1000.64	3289.04
1000.80	3188.69
1000.95	3311.57
1001.11	3313.61
1001.27	3139.54
1001.43	3246.03
1001.59	3080.14
1001.75	3119.06
1001.91	3280.85
1002.07	3096.53
1002.23	3108.82
1002.39	3174.35
1002.55	3196.88
1002.71	3141.58
1002.87	3190.74
1003.03	3067.86
1003.19	3069.91
1003.34	3100.62
1003.50	3102.67
1003.66	3129.30
1003.82	3127.25
1003.98	3047.38
1004.14	3096.53
1004.30	3102.67
1004.46	3041.23
1004.62	3071.95
1004.78	2994.13
1004.94	3067.86
1005.09	3074.00
1005.25	3092.43
1005.41	3002.32
1005.57	3039.19
1005.73	2906.07
1005.89	2940.88
1006.05	2961.36
1006.21	3012.56
1006.37	2930.64
1006.52	2846.68
1006.68	2848.72
1006.84	2953.17
1007.00	2922.45
1007.16	2879.44
1007.32	2918.36
1007.48	2879.44
1007.64	2891.73
1007.79	2936.79
1007.95	2967.51
1008.11	2981.84
1008.27	2842.58
1008.43	2801.62
1008.59	2912.21
1008.75	2818.00
1008.91	2893.78
1009.06	2871.25
1009.22	2824.15
1009.38	2852.82
1009.54	2877.40
1009.70	2736.09
1009.86	2799.57
1010.01	2811.86
1010.17	2818.00
1010.33	2822.10
1010.49	2826.20
1010.65	2842.58
1010.81	2693.08
1010.96	2772.95
1011.12	2676.70
1011.28	2717.65
1011.44	2746.33
1011.60	2729.94
1011.76	2666.46
1011.91	2789.33
1012.07	2664.41
1012.23	2676.70
1012.39	2754.52
1012.55	2709.46
1012.71	2727.89
1012.86	2656.22
1013.02	2777.05
1013.18	2666.46
1013.34	2695.13
1013.50	2648.02
1013.65	2727.89
1013.81	2564.06
1013.97	2570.20
1014.13	2729.94
1014.29	2635.74
1014.44	2650.07
1014.60	2588.63
1014.76	2707.41
1014.92	2619.35
1015.07	2654.17
1015.23	2568.15
1015.39	2613.21
1015.55	2680.79
1015.71	2566.10
1015.86	2549.72
1016.02	2557.91
1016.18	2459.61
1016.34	2586.58
1016.49	2623.45
1016.65	2590.68
1016.81	2510.81
1016.97	2498.52
1017.12	2549.72
1017.28	2408.41
1017.44	2314.20
1017.60	2469.85
1017.75	2383.84
1017.91	2447.32
1018.07	2443.23
1018.23	2492.38
1018.38	2410.46
1018.54	2406.36
1018.70	2432.99
1018.86	2445.27
1019.01	2420.70
1019.17	2367.45
1019.33	2512.86
1019.49	2398.17
1019.64	2392.03
1019.80	2494.43
1019.96	2422.75
1020.12	2453.47
1020.27	2297.82
1020.43	2346.97
1020.59	2473.95
1020.74	2336.73
1020.90	2367.45
1021.06	2240.48
1021.22	2424.80
1021.37	2324.44
1021.53	2238.43
1021.69	2320.35
1021.84	2263.01
1022.00	2310.11
1022.16	2222.05
1022.31	2254.81
1022.47	2344.92
1022.63	2385.88
1022.79	2160.61
1022.94	2326.49
1023.10	2269.15
1023.26	2273.25
1023.41	2330.59
1023.57	2289.63
1023.73	2295.77
1023.88	2293.72
1024.04	2250.72
1024.20	2342.88
1024.35	2213.85
1024.51	2295.77
1024.67	2271.20
1024.82	2291.68
1024.98	2144.22
1025.14	2185.18
1025.29	2213.85
1025.45	2279.39
1025.61	2162.66
1025.76	2164.70
1025.92	2258.91
1026.08	2242.53
1026.23	2271.20
1026.39	2281.44
1026.55	2129.89
1026.70	2133.98
1026.86	2201.57
1027.02	2211.81
1027.17	2199.52
1027.33	2228.19
1027.48	2301.92
1027.64	2136.03
1027.80	2119.65
1027.95	2152.42
1028.11	2109.41
1028.27	2209.76
1028.42	2179.04
1028.58	2111.46
1028.73	2093.02
1028.89	2097.12
1029.05	2166.75
1029.20	2164.70
>>>>>End Processed Spectral Data<<<<<
