SpectraSuite Data File
++++++++++++++++++++++++++++++++++++
Date: Fri Jun 02 14:51:06 CEST 2017
User: INFO_000
Dark Spectrum Present: No
Reference Spectrum Present: No
Number of Sampled Component Spectra: 1
Spectrometers: USB4H00879
Integration Time (usec): 80000 (USB4H00879)
Spectra Averaged: 1 (USB4H00879)
Boxcar Smoothing: 0 (USB4H00879)
Correct for Electrical Dark: No (USB4H00879)
Strobe/Lamp Enabled: No (USB4H00879)
Correct for Detector Non-linearity: No (USB4H00879)
Correct for Stray Light: No (USB4H00879)
Number of Pixels in Processed Spectrum: 3648
>>>>>Begin Processed Spectral Data<<<<<
345.13	1273.84
345.34	1273.84
345.56	1273.84
345.78	1300.46
345.99	1284.08
346.21	1708.01
346.42	1650.66
346.64	1585.13
346.86	1802.21
347.07	1619.94
347.29	1712.10
347.50	1650.66
347.72	1636.33
347.94	1718.25
348.15	1656.81
348.37	1570.79
348.59	1787.88
348.80	1626.09
349.02	1710.05
349.23	1783.78
349.45	1759.21
349.67	1718.25
349.88	1708.01
350.10	1834.98
350.31	1632.23
350.53	1710.05
350.75	1753.06
350.96	1697.77
351.18	1746.92
351.39	1712.10
351.61	1695.72
351.82	1816.55
352.04	1822.69
352.26	1728.49
352.47	1837.03
352.69	1806.31
352.90	1632.23
353.12	1683.43
353.34	1669.09
353.55	1841.12
353.77	1806.31
353.98	1615.85
354.20	1621.99
354.41	1824.74
354.63	1773.54
354.85	1888.23
355.06	1697.77
355.28	1566.70
355.49	1681.38
355.71	1779.68
355.92	1710.05
356.14	1775.59
356.35	1697.77
356.57	1689.57
356.79	1761.25
357.00	1716.20
357.22	1802.21
357.43	1667.05
357.65	1789.92
357.86	1699.81
358.08	1757.16
358.29	1718.25
358.51	1789.92
358.72	1820.64
358.94	1697.77
359.16	1677.29
359.37	1763.30
359.59	1710.05
359.80	1796.07
360.02	1755.11
360.23	1783.78
360.45	1779.68
360.66	1656.81
360.88	1708.01
361.09	1738.73
361.31	1718.25
361.52	1798.12
361.74	1794.02
361.95	1871.84
362.17	1728.49
362.38	1748.97
362.60	1810.40
362.81	1748.97
363.03	1677.29
363.24	1740.77
363.46	1845.22
363.67	1755.11
363.89	1697.77
364.10	1826.79
364.32	1724.39
364.53	1777.64
364.75	1648.61
364.96	1728.49
365.18	1726.44
365.39	1779.68
365.61	1683.43
365.82	1853.41
366.04	1656.81
366.25	1697.77
366.47	1781.73
366.68	1726.44
366.90	1658.85
367.11	1783.78
367.33	1765.35
367.54	1816.55
367.76	1693.67
367.97	1746.92
368.19	1714.15
368.40	1763.30
368.62	1624.04
368.83	1654.76
369.05	1757.16
369.26	1683.43
369.48	1662.95
369.69	1626.09
369.91	1781.73
370.12	1701.86
370.33	1818.60
370.55	1685.48
370.76	1720.29
370.98	1728.49
371.19	1822.69
371.41	1742.82
371.62	1742.82
371.84	1667.05
372.05	1824.74
372.27	1656.81
372.48	1736.68
372.69	1753.06
372.91	1830.88
373.12	1818.60
373.34	1675.24
373.55	1699.81
373.77	1763.30
373.98	1660.90
374.20	1812.45
374.41	1912.80
374.62	1732.58
374.84	1740.77
375.05	1726.44
375.27	1687.53
375.48	1712.10
375.70	1728.49
375.91	1847.27
376.12	1820.64
376.34	1689.57
376.55	1687.53
376.77	1806.31
376.98	1687.53
377.19	1636.33
377.41	1665.00
377.62	1744.87
377.84	1794.02
378.05	1933.28
378.27	1712.10
378.48	1863.65
378.69	1855.46
378.91	1886.18
379.12	1810.40
379.34	1734.63
379.55	1832.93
379.76	1783.78
379.98	1714.15
380.19	1806.31
380.41	1685.48
380.62	1783.78
380.83	1787.88
381.05	1648.61
381.26	1861.60
381.47	1685.48
381.69	1789.92
381.90	1867.75
382.12	1726.44
382.33	1734.63
382.54	1753.06
382.76	1781.73
382.97	1806.31
383.19	1757.16
383.40	1824.74
383.61	1787.88
383.83	1667.05
384.04	1699.81
384.25	1748.97
384.47	1853.41
384.68	1796.07
384.89	1757.16
385.11	1701.86
385.32	1744.87
385.54	1722.34
385.75	1744.87
385.96	1781.73
386.18	1781.73
386.39	1806.31
386.60	1677.29
386.82	1769.44
387.03	1716.20
387.24	1781.73
387.46	1785.83
387.67	1824.74
387.88	1886.18
388.10	1765.35
388.31	1779.68
388.52	1859.56
388.74	1857.51
388.95	1720.29
389.16	1785.83
389.38	1722.34
389.59	1832.93
389.80	1812.45
390.02	1804.26
390.23	1880.04
390.44	1767.40
390.66	1787.88
390.87	1716.20
391.08	1863.65
391.30	1877.99
391.51	1849.32
391.72	1861.60
391.94	1916.90
392.15	1861.60
392.36	1769.44
392.58	1800.16
392.79	1783.78
393.00	1886.18
393.22	1910.75
393.43	1884.13
393.64	1877.99
393.85	1834.98
394.07	1837.03
394.28	1832.93
394.49	1837.03
394.71	1974.24
394.92	1966.05
395.13	1687.53
395.35	1781.73
395.56	1744.87
395.77	1771.49
395.98	1839.08
396.20	1828.84
396.41	1953.76
396.62	1970.15
396.84	1816.55
397.05	1796.07
397.26	1767.40
397.47	1943.52
397.69	1820.64
397.90	1955.81
398.11	1908.71
398.32	1787.88
398.54	1880.04
398.75	1914.85
398.96	1953.76
399.18	1951.71
399.39	1906.66
399.60	1853.41
399.81	1814.50
400.03	1880.04
400.24	2166.75
400.45	1843.17
400.66	1925.09
400.88	1781.73
401.09	2070.50
401.30	1763.30
401.51	2013.15
401.73	1882.08
401.94	1945.57
402.15	1927.14
402.36	2097.12
402.58	1984.48
402.79	2074.59
403.00	2050.02
403.21	2000.87
403.43	2011.11
403.64	1978.34
403.85	1951.71
404.06	1992.67
404.27	1894.37
404.49	1890.28
404.70	2013.15
404.91	1984.48
405.12	1904.61
405.34	1933.28
405.55	2072.54
405.76	1814.50
405.97	1951.71
406.19	2138.08
406.40	1920.99
406.61	2056.16
406.82	1896.42
407.03	1994.72
407.25	1937.38
407.46	2101.22
407.67	2043.87
407.88	2238.43
408.09	2007.01
408.31	1982.43
408.52	2082.78
408.73	2021.35
408.94	2043.87
409.15	2115.55
409.37	2064.35
409.58	2154.46
409.79	2076.64
410.00	2154.46
410.21	1920.99
410.43	2111.46
410.64	1902.56
410.85	2062.30
411.06	2181.09
411.27	2172.89
411.48	2054.11
411.70	2230.24
411.91	2176.99
412.12	2181.09
412.33	2293.72
412.54	2076.64
412.76	2203.61
412.97	2215.90
413.18	2015.20
413.39	2017.25
413.60	2183.13
413.81	2168.80
414.03	2025.44
414.24	2000.87
414.45	2412.51
414.66	2201.57
414.87	2342.88
415.08	2039.78
415.30	2203.61
415.51	2138.08
415.72	2043.87
415.93	2320.35
416.14	2103.26
416.35	2277.34
416.56	2215.90
416.78	2248.67
416.99	2240.48
417.20	2187.23
417.41	2553.82
417.62	2351.07
417.83	2316.25
418.04	2162.66
418.26	2531.29
418.47	2306.01
418.68	2385.88
418.89	2334.68
419.10	2535.39
419.31	2387.93
419.52	2318.30
419.73	2299.87
419.95	2623.45
420.16	2265.05
420.37	2320.35
420.58	2197.47
420.79	2144.22
421.00	2256.86
421.21	2263.01
421.42	2480.09
421.63	2400.22
421.85	2451.42
422.06	2461.66
422.27	2537.43
422.48	2371.55
422.69	2369.50
422.90	2500.57
423.11	2349.02
423.32	2727.89
423.53	2574.30
423.75	2441.18
423.96	2629.59
424.17	2615.26
424.38	2768.85
424.59	2672.60
424.80	2455.51
425.01	2801.62
425.22	2510.81
425.43	2719.70
425.64	2699.22
425.85	3033.04
426.06	3041.23
426.28	2770.90
426.49	2453.47
426.70	2678.74
426.91	2688.98
427.12	2838.48
427.33	3020.75
427.54	2985.94
427.75	2865.11
427.96	3059.67
428.17	2994.13
428.38	2609.11
428.59	2942.93
428.80	2848.72
429.01	2994.13
429.23	2867.16
429.44	2822.10
429.65	3012.56
429.86	3020.75
430.07	3334.09
430.28	3069.91
430.49	3094.48
430.70	2918.36
430.91	3307.47
431.12	3407.82
431.33	3092.43
431.54	3575.75
431.75	3129.30
431.96	3127.25
432.17	3286.99
432.38	3207.12
432.59	3270.61
432.80	3375.05
433.01	3456.97
433.22	3182.54
433.43	3260.37
433.64	3522.51
433.85	3231.69
434.06	3407.82
434.27	3338.19
434.49	3354.57
434.70	3766.21
434.91	3481.55
435.12	3782.60
435.33	3397.58
435.54	3319.76
435.75	3059.67
435.96	3336.14
436.17	3465.16
436.38	3434.44
436.59	3620.81
436.80	3360.72
437.01	3639.24
437.22	3717.06
437.43	3592.14
437.64	3524.55
437.85	3567.56
438.06	3960.77
438.27	3184.59
438.48	3620.81
438.69	3532.75
438.90	3882.95
439.11	3971.01
439.32	4259.78
439.53	3659.72
439.74	3895.24
439.95	3876.80
440.16	3735.50
440.37	3768.26
440.57	3823.56
440.78	3960.77
440.99	4274.11
441.20	3669.96
441.41	3989.44
441.62	3837.89
441.83	4003.78
442.04	3954.63
442.25	4091.84
442.46	3891.14
442.67	3968.96
442.88	4110.27
443.09	4014.02
443.30	3889.09
443.51	3930.05
443.72	4313.02
443.93	4163.52
444.14	4544.44
444.35	4018.11
444.56	4089.79
444.77	4175.81
444.98	4659.13
445.19	4661.18
445.40	4310.97
445.61	4343.74
445.81	4288.45
446.02	4425.66
446.23	4140.99
446.44	4083.65
446.65	4573.11
446.86	4841.40
447.07	4949.94
447.28	4444.09
447.49	4485.05
447.70	4730.81
447.91	4870.07
448.12	4593.59
448.33	4841.40
448.54	4624.31
448.74	4452.28
448.95	4929.46
449.16	4640.70
449.37	4958.13
449.58	4837.30
449.79	5042.10
450.00	4681.66
450.21	4868.02
450.42	5220.27
450.63	5056.43
450.84	4640.70
451.05	5107.63
451.25	4886.45
451.46	4890.55
451.67	5173.17
451.88	5271.47
452.09	5156.79
452.30	4925.36
452.51	5005.24
452.72	5214.13
452.93	5638.06
453.13	4798.39
453.34	4951.99
453.55	5281.71
453.76	5156.79
453.97	5771.18
454.18	4861.88
454.39	5334.96
454.60	5449.64
454.81	5523.37
455.01	5646.25
455.22	5093.30
455.43	5672.87
455.64	5879.72
455.85	5840.81
456.06	5861.29
456.27	6039.46
456.48	5621.67
456.68	5922.73
456.89	6178.72
457.10	5994.40
457.31	5652.39
457.52	5517.23
457.73	6023.08
457.94	6285.22
458.14	5789.61
458.35	6490.01
458.56	5963.68
458.77	6197.15
458.98	6406.05
459.19	6383.52
459.39	6311.84
459.60	6692.76
459.81	6266.78
460.02	6666.14
460.23	6502.30
460.44	6741.91
460.65	6317.98
460.85	6506.40
461.06	6649.75
461.27	6516.64
461.48	6856.60
461.69	6842.26
461.89	6576.03
462.10	6719.39
462.31	6336.42
462.52	6922.13
462.73	6971.29
462.94	7286.67
463.14	6872.98
463.35	6973.33
463.56	7636.88
463.77	7524.24
463.98	7237.52
464.18	7032.72
464.39	7690.12
464.60	7927.69
464.81	7522.19
465.02	7554.96
465.23	7911.30
465.43	7847.82
465.64	7919.50
465.85	7540.62
466.06	7757.71
466.27	8152.96
466.47	8331.14
466.68	7978.89
466.89	8028.04
467.10	8144.77
467.30	7937.93
467.51	8591.23
467.72	8400.77
467.93	8032.13
468.14	8425.34
468.34	8769.40
468.55	8521.60
468.76	8632.19
468.97	8183.68
469.17	9015.16
469.38	8779.64
469.59	9121.65
469.80	8578.94
470.01	9021.30
470.21	8914.81
470.42	9381.74
470.63	9633.64
470.84	9281.39
471.04	9348.98
471.25	9680.75
471.46	9346.93
471.67	9889.64
471.87	9828.20
472.08	9744.24
472.29	9670.51
472.50	9248.63
472.70	10008.42
472.91	9668.46
473.12	10178.40
473.33	9869.16
473.53	10358.63
473.74	10078.05
473.95	10444.64
474.16	10415.97
474.36	10508.13
474.57	10731.36
474.78	10708.83
474.99	10966.87
475.19	10315.62
475.40	11118.42
475.61	11290.45
475.81	10934.11
476.02	11134.81
476.23	11089.75
476.44	11476.82
476.64	11691.85
476.85	11626.32
477.06	11542.35
477.27	12173.13
477.47	12164.93
477.68	11958.09
477.89	12019.53
478.09	12296.00
478.30	11929.42
478.51	12054.34
478.71	12144.45
478.92	12476.23
479.13	12601.15
479.34	12889.92
479.54	12724.03
479.75	12638.02
479.96	12957.50
480.16	12683.07
480.37	12926.78
480.58	13195.06
480.78	13326.13
480.99	13244.21
481.20	13588.27
481.41	13393.72
481.61	13567.79
481.82	13907.76
482.03	13799.21
482.23	13406.00
482.44	13893.42
482.65	14536.48
482.85	14126.89
483.06	14272.29
483.27	14341.93
483.47	14278.44
483.68	14137.13
483.89	14481.19
484.09	14690.08
484.30	14655.26
484.51	14763.81
484.71	14948.12
484.92	14960.41
485.13	15122.20
485.33	15226.65
485.54	14946.08
485.75	15324.95
485.95	15619.86
486.16	15240.98
486.37	15666.96
486.57	15685.39
486.78	15525.65
486.98	15941.39
487.19	15740.69
487.40	16187.14
487.60	15703.82
487.81	16258.82
488.02	15849.23
488.22	16193.29
488.43	16471.81
488.64	16576.26
488.84	16471.81
489.05	16742.14
489.25	16334.60
489.46	16387.85
489.67	16684.80
489.87	17301.24
490.08	17018.62
490.29	17082.11
490.49	17106.68
490.70	17360.63
490.90	17553.14
491.11	17262.33
491.32	17649.39
491.52	17530.61
491.73	17850.10
491.94	17493.75
492.14	17784.56
492.35	18220.78
492.55	17938.16
492.76	18364.14
492.97	18235.11
493.17	18460.39
493.38	18489.06
493.58	18781.92
493.79	18532.07
494.00	18839.26
494.20	18530.02
494.41	19042.01
494.61	19052.25
494.82	18919.14
495.02	18915.04
495.23	19269.34
495.44	18845.41
495.64	19599.06
495.85	19371.74
496.05	19500.76
496.26	19613.40
496.47	19783.38
496.67	19474.13
496.88	20405.96
497.08	19578.58
497.29	20041.42
497.49	19840.72
497.70	20094.67
497.91	20358.86
498.11	20403.91
498.32	20657.86
498.52	20436.68
498.73	20739.78
498.93	20766.40
499.14	20670.15
499.34	20799.17
499.55	21089.98
499.76	20408.01
499.96	21386.94
500.17	20879.04
500.37	21110.46
500.58	21100.22
500.78	21190.33
500.99	21053.12
501.19	21862.07
501.40	21599.93
501.60	21075.65
501.81	21552.82
502.02	21878.45
502.22	21460.66
502.43	21903.03
502.63	21878.45
502.84	22388.39
503.04	21829.30
503.25	22236.84
503.45	22388.39
503.66	21954.22
503.86	22034.10
504.07	22161.07
504.27	22148.78
504.48	22894.24
504.68	22613.67
504.89	23033.50
505.09	22656.68
505.30	22595.24
505.50	22922.91
505.71	22851.24
505.91	23287.45
506.12	22834.85
506.32	22824.61
506.53	22898.34
506.73	23391.90
506.94	23352.99
507.14	23117.47
507.35	23490.20
507.55	23260.83
507.76	23592.60
507.96	23570.07
508.17	23629.46
508.37	23762.58
508.58	24002.19
508.78	23998.10
508.99	24397.45
509.19	24022.67
509.40	24000.15
509.60	24264.33
509.81	24161.94
510.01	24288.91
510.22	23973.52
510.42	24399.50
510.63	24731.27
510.83	24233.61
511.04	24514.19
511.24	24950.40
511.44	24458.89
511.65	25142.91
511.85	24499.85
512.06	24735.37
512.26	25167.49
512.47	24970.88
512.67	25237.12
512.88	24827.53
513.08	25134.72
513.29	25413.24
513.49	24884.87
513.69	25200.26
513.90	25261.69
514.10	25609.85
514.31	25558.65
514.51	25599.61
514.72	25624.18
514.92	25587.32
515.13	25974.39
515.33	25679.48
515.53	25822.84
515.74	25884.28
515.94	26041.97
516.15	26461.80
516.35	25806.45
516.56	26578.54
516.76	25845.37
516.96	26599.02
517.17	26844.77
517.37	26058.35
517.58	26508.91
517.78	26359.41
517.99	26750.57
518.19	27014.76
518.39	26832.49
518.60	27219.55
518.80	27111.01
519.01	27301.47
519.21	26932.84
519.41	27543.13
519.62	27151.97
519.82	27321.95
520.03	27534.94
520.23	27534.94
520.43	27403.87
520.64	28218.96
520.84	27747.93
521.05	27493.98
521.25	27934.29
521.45	28014.16
521.66	28083.80
521.86	27946.58
522.07	28057.17
522.27	28264.02
522.47	28323.41
522.68	28368.46
522.88	28458.57
523.08	29331.01
523.29	28341.84
523.49	28857.93
523.70	28902.98
523.90	29269.57
524.10	28991.05
524.31	28874.31
524.51	28943.94
524.71	29060.68
524.92	29204.03
525.12	29398.59
525.33	29042.24
525.53	29566.52
525.73	29894.20
525.94	29972.02
526.14	29974.07
526.34	30019.13
526.55	29742.65
526.75	30185.01
526.95	30305.84
527.16	30105.14
527.36	30273.07
527.56	30852.65
527.77	30938.66
527.97	30639.66
528.17	30352.94
528.38	31022.63
528.58	30746.15
528.78	31069.73
528.99	30903.85
529.19	31577.63
529.39	30676.52
529.60	31202.85
529.80	31258.15
530.00	31360.55
530.21	31819.29
530.41	32222.74
530.61	32056.85
530.82	32024.09
531.02	31634.97
531.22	32241.17
531.43	32247.32
531.63	32486.93
531.83	32384.53
532.04	33072.65
532.24	32804.36
532.44	33164.81
532.64	32697.87
532.85	33060.36
533.05	33115.65
533.25	33043.98
533.46	32826.89
533.66	33756.67
533.86	32939.53
534.07	33846.78
534.27	33193.48
534.47	33633.79
534.67	33947.13
534.88	33175.05
535.08	34166.26
535.28	34375.16
535.49	34102.78
535.69	34620.91
535.89	34438.64
536.09	34452.98
536.30	34225.65
536.50	34516.47
536.70	34442.74
536.91	34313.72
537.11	34915.82
537.31	35218.92
537.51	35145.19
537.72	35327.46
537.92	35116.52
538.12	35464.67
538.32	35206.63
538.53	35386.85
538.73	35218.92
538.93	35116.52
539.13	35321.32
539.34	35714.53
539.54	35657.18
539.74	36218.33
539.94	35833.31
540.15	35524.07
540.35	36283.86
540.55	35904.99
540.75	35769.82
540.96	36115.93
541.16	36646.35
541.36	36335.06
541.56	36134.36
541.77	36625.87
541.97	36447.70
542.17	36378.07
542.37	36822.48
542.58	36584.91
542.78	36632.02
542.98	36804.05
543.18	37098.95
543.38	37389.77
543.59	37465.54
543.79	36861.39
543.99	37117.39
544.19	37094.86
544.40	37008.84
544.60	37553.60
544.80	38041.02
545.00	37135.82
545.20	37696.96
545.41	37615.04
545.61	37352.90
545.81	37885.37
546.01	38137.27
546.21	37860.80
546.42	37582.27
546.62	38036.92
546.82	37690.82
547.02	38235.58
547.22	38352.31
547.43	38139.32
547.63	38442.42
547.83	38233.53
548.03	38032.83
548.23	38413.75
548.44	38350.26
548.64	38626.74
548.84	38657.46
549.04	38327.74
549.24	38614.45
549.45	38954.41
549.65	38694.32
549.85	38802.86
550.05	38770.10
550.25	38761.90
550.45	39439.78
550.66	38784.43
550.86	38925.74
551.06	39060.91
551.26	39280.04
551.46	38933.93
551.66	39142.83
551.87	39257.51
552.07	39130.54
552.27	39259.56
552.47	39359.91
552.67	39634.34
552.87	39390.63
553.07	39450.02
553.28	39409.06
553.48	39632.29
553.68	39585.19
553.88	39935.39
554.08	39343.53
554.28	39828.90
554.48	39265.70
554.69	39511.46
554.89	39564.71
555.09	40088.99
555.29	39607.72
555.49	39628.20
555.69	40031.65
555.89	39878.05
556.10	40048.03
556.30	40291.74
556.50	39878.05
556.70	39712.16
556.90	40252.83
557.10	40154.52
557.30	39863.71
557.50	40377.75
557.70	40191.39
557.91	40138.14
558.11	40465.81
558.31	40140.19
558.51	40660.37
558.71	40603.03
558.91	40605.08
559.11	40295.83
559.31	40246.68
559.51	40156.57
559.72	40443.29
559.92	40277.40
560.12	40265.11
560.32	40770.96
560.52	40344.98
560.72	40486.29
560.92	40687.00
561.12	40789.39
561.32	41403.78
561.52	40633.75
561.72	41039.25
561.93	40529.30
562.13	40975.76
562.33	40510.87
562.53	41321.87
562.73	40736.15
562.93	40928.66
563.13	41301.39
563.33	40762.77
563.53	41276.81
563.73	40850.83
563.93	41268.62
564.13	41407.88
564.33	41221.52
564.53	41338.25
564.74	41309.58
564.94	40826.26
565.14	41301.39
565.34	41049.49
565.54	41381.26
565.74	41418.12
565.94	41694.60
566.14	41350.54
566.34	41516.42
566.54	41796.99
566.74	41248.14
566.94	41751.94
567.14	41719.17
567.34	41414.02
567.54	41686.40
567.74	42012.03
567.94	41532.81
568.14	42081.66
568.34	42130.81
568.54	42009.98
568.74	42012.03
568.94	42026.37
569.14	42157.44
569.34	42331.51
569.54	41850.24
569.75	42005.89
569.95	42337.66
570.15	42751.35
570.35	42511.74
570.55	42157.44
570.75	42241.40
570.95	42532.22
571.15	42726.77
571.35	42177.92
571.55	42747.25
571.75	42812.79
571.95	42927.47
572.15	42653.05
572.35	42827.12
572.55	42442.10
572.75	42724.72
572.95	42687.86
573.15	43046.26
573.35	42673.52
573.55	42534.26
573.75	42691.96
573.95	43066.73
574.15	42685.81
574.35	43169.13
574.55	42904.95
574.75	42716.53
574.95	43242.86
575.15	42857.84
575.34	43103.60
575.54	43447.66
575.74	43656.55
575.94	43292.01
576.14	43283.82
576.34	43558.25
576.54	43627.88
576.74	43779.43
576.94	43562.34
577.14	44193.12
577.34	44240.22
577.54	43685.22
577.74	43668.84
577.94	43982.18
578.14	44203.36
578.34	44154.21
578.54	43734.37
578.74	44209.50
578.94	44510.55
579.14	44066.14
579.34	43976.03
579.54	44467.55
579.74	44453.21
579.94	44490.07
580.13	44690.77
580.33	44283.23
580.53	44840.28
580.73	44746.07
580.93	44621.14
581.13	44367.20
581.33	44916.05
581.53	45088.08
581.73	45251.92
581.93	45151.57
582.13	45278.54
582.33	45176.14
582.53	45241.68
582.73	45485.39
582.92	45489.48
583.12	45778.25
583.32	45540.68
583.52	45382.99
583.72	45735.24
583.92	45397.32
584.12	45927.75
584.32	46323.01
584.52	45690.18
584.72	46134.59
584.92	46159.17
585.11	46067.01
585.31	46075.20
585.51	46566.71
585.71	45925.70
585.91	46515.51
586.11	45888.84
586.31	46423.36
586.51	46443.84
586.71	46402.88
586.91	46990.64
587.10	46708.02
587.30	46896.44
587.50	46843.19
587.70	46718.26
587.90	47183.15
588.10	47166.77
588.30	46859.57
588.50	47408.43
588.69	46888.24
588.89	47314.22
589.09	47179.06
589.29	47207.73
589.49	47654.18
589.69	47260.97
589.89	47613.23
590.08	47217.97
590.28	47535.40
590.48	47461.68
590.68	47586.60
590.88	47672.62
591.08	47871.27
591.28	47324.46
591.47	48106.79
591.67	48074.02
591.87	48135.46
592.07	47959.33
592.27	48028.96
592.47	47856.93
592.67	48366.88
592.86	47897.89
593.06	48481.56
593.26	48268.58
593.46	48497.95
593.66	48237.86
593.86	48739.61
594.05	48477.47
594.25	49073.43
594.45	48641.31
594.65	48796.95
594.85	48299.30
595.05	49079.57
595.24	48989.46
595.44	48719.13
595.64	49022.23
595.84	48887.06
596.04	49069.33
596.23	49333.52
596.43	49460.49
596.63	49323.28
596.83	49593.61
597.03	49401.10
597.22	49605.90
597.42	49284.37
597.62	49736.97
597.82	49714.44
598.02	50169.09
598.21	49847.56
598.41	49710.35
598.61	49784.07
598.81	50259.20
599.01	50304.26
599.20	49992.97
599.40	50320.64
599.60	50173.19
599.80	50963.70
600.00	50713.85
600.19	50949.37
600.39	50468.09
600.59	51088.63
600.79	50568.44
600.98	50668.79
601.18	51074.29
601.38	51014.90
601.58	50806.01
601.78	51526.89
601.97	51258.61
602.17	51262.71
602.37	51524.85
602.57	51330.29
602.76	52155.62
602.96	51113.20
603.16	51299.57
603.36	51690.73
603.55	51897.58
603.75	51266.80
603.95	51760.36
604.15	51801.32
604.34	52006.12
604.54	52307.17
604.74	52147.43
604.94	51713.26
605.13	52370.66
605.33	51875.05
605.53	52143.33
605.73	52681.95
605.92	52268.26
606.12	52532.45
606.32	52384.99
606.52	52710.62
606.71	52614.37
606.91	52681.95
607.11	52145.38
607.30	52843.74
607.50	52552.93
607.70	53179.60
607.90	52925.66
608.09	52696.28
608.29	53542.10
608.49	52868.31
608.68	53273.81
608.88	53263.57
609.08	52933.85
609.28	52980.95
609.47	53179.60
609.67	53656.78
609.87	53081.30
610.06	53540.05
610.26	53376.21
610.46	53220.56
610.66	53273.81
610.85	53155.03
611.05	53304.53
611.25	53339.35
611.44	53722.32
611.64	53179.60
611.84	53359.83
612.03	53910.73
612.23	53538.00
612.43	53740.75
612.62	53677.26
612.82	53445.84
613.02	53621.97
613.21	53716.17
613.41	53589.20
613.61	53691.60
613.80	53593.29
614.00	53794.00
614.20	53486.80
614.39	54211.78
614.59	53810.38
614.79	53927.11
614.98	53810.38
615.18	54000.84
615.38	53847.24
615.57	53773.52
615.77	53943.50
615.97	53794.00
616.16	53738.70
616.36	54021.32
616.56	53738.70
616.75	54064.33
616.95	53986.50
617.15	53796.04
617.34	53574.86
617.54	54076.61
617.74	54246.60
617.93	54484.16
618.13	53828.81
618.32	53664.97
618.52	54086.85
618.72	54154.44
618.91	54058.18
619.11	53540.05
619.31	53972.17
619.50	53970.12
619.70	53814.47
619.90	54637.76
620.09	54043.85
620.29	54131.91
620.48	53855.43
620.68	54529.22
620.88	53392.59
621.07	53783.76
621.27	54162.63
621.46	53630.16
621.66	53785.80
621.86	53660.88
622.05	53857.48
622.25	54088.90
622.44	53961.93
622.64	53601.49
622.84	53994.70
623.03	53904.59
623.23	53783.76
623.42	53818.57
623.62	54056.14
623.82	54207.68
624.01	53873.87
624.21	53683.40
624.40	53896.39
624.60	53916.87
624.80	53824.71
624.99	53906.63
625.19	53454.03
625.38	53986.50
625.58	53828.81
625.77	53820.62
625.97	53794.00
626.17	53286.10
626.36	54418.63
626.56	54238.40
626.75	53273.81
626.95	54461.63
627.14	53646.54
627.34	54303.94
627.54	54138.05
627.73	53746.89
627.93	53748.94
628.12	53413.07
628.32	53963.98
628.51	54047.94
628.71	54076.61
628.90	53583.05
629.10	53673.16
629.30	53914.83
629.49	53918.92
629.69	53693.64
629.88	53673.16
630.08	54242.50
630.27	54031.56
630.47	53900.49
630.66	53687.50
630.86	54416.58
631.05	53671.12
631.25	54219.97
631.44	53748.94
631.64	53519.57
631.84	53865.67
632.03	54146.25
632.23	53783.76
632.42	54305.99
632.62	54129.86
632.81	53695.69
633.01	53892.30
633.20	54279.36
633.40	54107.33
633.59	54156.49
633.79	53607.63
633.98	53953.74
634.18	53509.33
634.37	53974.22
634.57	53583.05
634.76	54133.96
634.96	54076.61
635.15	54426.82
635.35	53593.29
635.54	53597.39
635.74	53912.78
635.93	53748.94
636.13	54238.40
636.32	53994.70
636.52	53886.15
636.71	53966.02
636.91	53759.18
637.10	53961.93
637.30	54072.52
637.49	53974.22
637.69	54029.51
637.88	53859.53
638.08	53904.59
638.27	53794.00
638.46	53673.16
638.66	54056.14
638.85	53552.33
639.05	53664.97
639.24	53902.54
639.44	53417.17
639.63	53599.44
639.83	54064.33
640.02	53746.89
640.22	54555.84
640.41	53998.79
640.61	53429.46
640.80	54283.46
640.99	53263.57
641.19	54148.29
641.38	53974.22
641.58	53781.71
641.77	53511.38
641.97	53707.98
642.16	54039.75
642.36	53982.41
642.55	54105.29
642.74	53380.31
642.94	54236.36
643.13	53695.69
643.33	54428.87
643.52	54080.71
643.72	54246.60
643.91	53597.39
644.10	53865.67
644.30	53857.48
644.49	53851.34
644.69	54052.04
644.88	53886.15
645.08	53673.16
645.27	53873.87
645.46	53568.72
645.66	53937.35
645.85	53687.50
646.05	53990.60
646.24	53896.39
646.43	54129.86
646.63	54316.23
646.82	54183.11
647.02	54211.78
647.21	53990.60
647.40	53769.42
647.60	54074.57
647.79	54314.18
647.99	54334.66
648.18	53931.21
648.37	54342.85
648.57	54260.93
648.76	53990.60
648.96	54230.21
649.15	54230.21
649.34	54789.31
649.54	54430.91
649.73	53945.54
649.92	54041.80
650.12	54060.23
650.31	54392.00
650.51	54099.14
650.70	54160.58
650.89	54054.09
651.09	54572.22
651.28	54547.65
651.47	54334.66
651.67	54281.41
651.86	54222.02
652.06	53783.76
652.25	54211.78
652.44	54332.61
652.64	53781.71
652.83	54009.03
653.02	54310.08
653.22	53929.16
653.41	53642.45
653.60	54060.23
653.80	53894.35
653.99	54019.27
654.18	53781.71
654.38	53695.69
654.57	54727.87
654.76	53943.50
654.96	53974.22
655.15	54187.21
655.34	54207.68
655.54	53753.04
655.73	53961.93
655.92	54115.53
656.12	54369.47
656.31	53855.43
656.50	53677.26
656.70	54199.49
656.89	54437.06
657.08	54060.23
657.28	53826.76
657.47	54289.60
657.66	54324.42
657.86	53718.22
658.05	54179.01
658.24	54170.82
658.43	53738.70
658.63	54021.32
658.82	54232.26
659.01	54162.63
659.21	54496.45
659.40	54148.29
659.59	54246.60
659.79	54564.03
659.98	54437.06
660.17	54363.33
660.36	54168.77
660.56	54183.11
660.75	54449.35
660.94	54260.93
661.14	53980.36
661.33	53963.98
661.52	54076.61
661.71	54363.33
661.91	53628.11
662.10	54271.17
662.29	54494.40
662.49	54140.10
662.68	54318.28
662.87	54574.27
663.06	53978.31
663.26	53994.70
663.45	54592.70
663.64	54080.71
663.83	54461.63
664.03	54316.23
664.22	54009.03
664.41	54293.70
664.60	54160.58
664.80	54310.08
664.99	54097.09
665.18	54144.20
665.37	54064.33
665.57	54224.07
665.76	54359.23
665.95	54547.65
666.14	54185.16
666.34	54138.05
666.53	53935.30
666.72	53742.80
666.91	53814.47
667.11	53664.97
667.30	53941.45
667.49	53794.00
667.68	53675.21
667.87	54152.39
668.07	54293.70
668.26	54232.26
668.45	53693.64
668.64	53597.39
668.84	54381.76
669.03	54258.88
669.22	53976.26
669.41	54398.15
669.60	53992.65
669.80	53941.45
669.99	54244.55
670.18	53933.26
670.37	54181.06
670.57	54351.04
670.76	54017.22
670.95	53763.28
671.14	54246.60
671.33	53810.38
671.53	54623.42
671.72	54301.89
671.91	54580.42
672.10	53988.55
672.29	54273.22
672.48	54265.03
672.68	54023.37
672.87	53925.07
673.06	53902.54
673.25	53597.39
673.44	53765.32
673.64	54183.11
673.83	53974.22
674.02	53898.44
674.21	53521.62
674.40	53834.95
674.59	53699.79
674.79	53179.60
674.98	53441.74
675.17	53542.10
675.36	53388.50
675.55	53654.73
675.74	53667.02
675.94	53753.04
676.13	53748.94
676.32	53871.82
676.51	54119.62
676.70	53957.83
676.89	54154.44
677.08	53794.00
677.28	53630.16
677.47	54025.42
677.66	54103.24
677.85	54074.57
678.04	54011.08
678.23	54146.25
678.42	53992.65
678.62	53742.80
678.81	54281.41
679.00	53640.40
679.19	54416.58
679.38	53542.10
679.57	53494.99
679.76	53683.40
679.96	54289.60
680.15	53507.28
680.34	53507.28
680.53	53824.71
680.72	53937.35
680.91	54183.11
681.10	53613.77
681.29	53511.38
681.48	53677.26
681.68	53880.01
681.87	53769.42
682.06	53460.18
682.25	53468.37
682.44	53470.42
682.63	53845.19
682.82	53564.62
683.01	53302.48
683.20	53245.14
683.39	53794.00
683.59	53361.87
683.78	52993.24
683.97	53347.54
684.16	53228.76
684.35	53363.92
684.54	53828.81
684.73	53030.10
684.92	53378.26
685.11	53355.73
685.30	53210.32
685.49	53920.97
685.69	53478.61
685.88	53703.88
686.07	53218.52
686.26	53353.68
686.45	53163.22
686.64	53413.07
686.83	53216.47
687.02	53390.55
687.21	53419.22
687.40	53507.28
687.59	53028.05
687.78	53355.73
687.97	53744.84
688.16	53830.86
688.35	53314.77
688.54	53503.18
688.74	52995.29
688.93	53269.72
689.12	52985.05
689.31	53081.30
689.50	53413.07
689.69	52980.95
689.88	53044.44
690.07	53148.88
690.26	52606.17
690.45	53130.45
690.64	52593.89
690.83	53161.17
691.02	52700.38
691.21	53241.04
691.40	53155.03
691.59	52954.33
691.78	52827.35
691.97	53251.28
692.16	53380.31
692.35	53482.70
692.54	53099.73
692.73	53288.15
692.92	52911.32
693.11	53185.75
693.30	53138.65
693.49	53484.75
693.68	52905.18
693.87	53413.07
694.06	52896.98
694.25	52737.24
694.44	52407.52
694.63	53335.25
694.82	53189.84
695.01	52948.18
695.20	52450.53
695.39	52583.65
695.58	52976.86
695.77	52868.31
695.96	52733.15
696.15	53105.88
696.34	53069.01
696.53	52739.29
696.72	52843.74
696.91	52737.24
697.10	52780.25
697.29	52542.69
697.48	53130.45
697.67	53003.48
697.86	52688.09
698.05	52315.36
698.24	52942.04
698.43	52411.62
698.62	52774.11
698.81	52341.99
699.00	53071.06
699.19	52129.00
699.38	52686.04
699.57	52047.08
699.76	52638.94
699.95	52446.43
700.14	52604.13
700.32	52255.97
700.51	52471.01
700.70	52862.17
700.89	52921.56
701.08	52362.46
701.27	52444.38
701.46	52720.86
701.65	51756.27
701.84	52206.82
702.03	52462.82
702.22	52632.80
702.41	52129.00
702.60	52704.48
702.79	52198.63
702.98	52139.24
703.17	52473.06
703.35	51772.65
703.54	52014.31
703.73	52172.00
703.92	52065.51
704.11	52163.81
704.30	51733.74
704.49	52194.53
704.68	51678.44
704.87	51891.43
705.06	52483.30
705.25	51537.13
705.43	52188.39
705.62	52018.41
705.81	52018.41
706.00	52094.18
706.19	51903.72
706.38	51739.88
706.57	51631.34
706.76	51868.90
706.95	52059.37
707.14	51248.37
707.32	51764.46
707.51	51479.79
707.70	51829.99
707.89	51680.49
708.08	51721.45
708.27	51965.16
708.46	51930.34
708.65	51264.75
708.84	52188.39
709.02	51549.42
709.21	52036.84
709.40	51373.30
709.59	51784.94
709.78	51608.81
709.97	51248.37
710.16	51379.44
710.34	51590.38
710.53	51643.63
710.72	51246.32
710.91	51774.70
711.10	51637.48
711.29	51543.28
711.48	51234.03
711.66	51137.78
711.85	51281.14
712.04	50947.32
712.23	51090.68
712.42	51418.35
712.61	51121.40
712.80	51399.92
712.98	51074.29
713.17	50666.75
713.36	51539.18
713.55	51367.15
713.74	51168.50
713.93	51385.58
714.11	51072.24
714.30	50863.35
714.49	51105.01
714.68	51094.77
714.87	51121.40
715.06	50902.26
715.24	50681.08
715.43	50779.39
715.62	50783.48
715.81	50613.50
716.00	51156.21
716.18	50818.30
716.37	50341.12
716.56	50574.59
716.75	51229.94
716.94	50339.07
717.12	50466.05
717.31	50525.44
717.50	50949.37
717.69	50345.22
717.88	50670.84
718.06	50638.08
718.25	50480.38
718.44	49935.62
718.63	50345.22
718.82	50181.38
719.00	50478.33
719.19	50132.23
719.38	50437.37
719.57	49593.61
719.76	49810.70
719.94	49605.90
720.13	49919.24
720.32	50033.92
720.51	49558.80
720.69	49536.27
720.88	49964.29
721.07	49491.21
721.26	49544.46
721.44	49577.23
721.63	49538.32
721.82	49255.70
722.01	49337.62
722.20	49427.73
722.38	49161.49
722.57	48676.12
722.76	49354.00
722.95	49421.58
723.13	48940.31
723.32	49014.04
723.51	48731.42
723.70	48766.23
723.88	49179.92
724.07	48477.47
724.26	49290.51
724.44	48610.59
724.63	48782.62
724.82	49042.71
725.01	48815.38
725.19	48622.87
725.38	48743.70
725.57	48616.73
725.76	48512.28
725.94	48649.50
726.13	48497.95
726.32	48504.09
726.51	48600.35
726.69	48555.29
726.88	48606.49
727.07	48534.81
727.25	48305.44
727.44	48604.44
727.63	48022.82
727.82	48059.68
728.00	48340.25
728.19	48207.14
728.38	48586.01
728.56	47686.95
728.75	48086.31
728.94	48207.14
729.12	47922.47
729.31	48536.86
729.50	47998.24
729.69	48321.82
729.87	48334.11
730.06	48356.64
730.25	48387.36
730.43	48536.86
730.62	47777.06
730.81	48246.05
730.99	48495.90
731.18	48153.89
731.37	48518.43
731.55	48325.92
731.74	48235.81
731.93	48401.69
732.11	48221.47
732.30	48250.14
732.49	47920.42
732.67	48215.33
732.86	48241.95
733.05	48067.87
733.23	47861.03
733.42	48080.16
733.61	48127.27
733.79	48028.96
733.98	48018.72
734.17	48016.68
734.35	48041.25
734.54	47945.00
734.73	48551.20
734.91	48151.84
735.10	47308.08
735.29	47985.96
735.47	47418.67
735.66	47981.86
735.84	48065.83
736.03	47824.17
736.22	48125.22
736.40	47602.99
736.59	48229.66
736.78	47523.11
736.96	47689.00
737.15	47627.56
737.33	47824.17
737.52	47578.41
737.71	47408.43
737.89	47543.59
738.08	47473.96
738.27	47314.22
738.45	47789.35
738.64	48002.34
738.82	47666.47
739.01	47457.58
739.20	47279.41
739.38	47322.41
739.57	47359.28
739.75	47527.21
739.94	46986.55
740.13	47449.39
740.31	47148.34
740.50	47256.88
740.68	47316.27
740.87	46937.40
741.06	47660.33
741.24	47154.48
741.43	46843.19
741.61	47056.18
741.80	46576.95
741.99	46652.73
742.17	46906.68
742.36	47197.49
742.54	46540.09
742.73	46966.07
742.91	47263.02
743.10	46769.46
743.29	47035.70
743.47	46964.02
743.66	46511.42
743.84	46835.00
744.03	46804.28
744.21	46716.22
744.40	46839.09
744.59	46486.84
744.77	46019.91
744.96	46124.35
745.14	46638.39
745.33	46552.38
745.51	46325.05
745.70	46538.04
745.88	46503.23
746.07	46275.90
746.26	45788.49
746.44	45948.23
746.63	46220.61
746.81	46556.47
747.00	45827.40
747.18	46796.09
747.37	46241.09
747.55	46576.95
747.74	46425.40
747.92	46087.49
748.11	45907.27
748.29	45983.04
748.48	45999.43
748.66	46091.58
748.85	45497.67
749.03	45638.98
749.22	45620.55
749.41	45272.40
749.59	45630.79
749.78	45516.11
749.96	45251.92
750.15	45649.22
750.33	45008.21
750.52	45319.50
750.70	45188.43
750.89	45227.34
751.07	44940.63
751.26	45182.29
751.44	44918.10
751.63	45358.41
751.81	44907.86
752.00	44997.97
752.18	45299.02
752.37	45172.05
752.55	44541.27
752.74	44987.73
752.92	44635.48
753.10	44670.29
753.29	44881.24
753.47	44717.40
753.66	44514.65
753.84	44895.57
754.03	44442.97
754.21	44414.30
754.40	44823.89
754.58	44836.18
754.77	44602.71
754.95	44168.54
755.14	44316.00
755.32	43855.20
755.51	43851.11
755.69	44166.49
755.88	44303.71
756.06	44410.20
756.24	44119.39
756.43	44010.85
756.61	43980.13
756.80	44359.00
756.98	43795.81
757.17	43810.15
757.35	43945.31
757.54	44035.42
757.72	43593.06
757.90	43847.01
758.09	43763.04
758.27	43779.43
758.46	43165.04
758.64	43607.40
758.83	43533.67
759.01	43545.96
759.19	43246.96
759.38	43570.54
759.56	43791.72
759.75	43734.37
759.93	43375.98
760.12	43132.27
760.30	43406.70
760.48	43359.59
760.67	43085.17
760.85	43076.97
761.04	43418.99
761.22	43083.12
761.40	42677.62
761.59	42913.14
761.77	42689.91
761.96	43097.45
762.14	43048.30
762.32	42562.93
762.51	42515.83
762.69	42648.95
762.88	42280.31
763.06	42700.15
763.24	42638.71
763.43	42438.01
763.61	41962.88
763.80	42472.82
763.98	42040.70
764.16	42476.92
764.35	41870.72
764.53	42046.85
764.72	42272.12
764.90	41989.50
765.08	42100.09
765.27	41715.08
765.45	41751.94
765.63	41534.85
765.82	41921.92
766.00	41504.13
766.18	41667.97
766.37	42093.95
766.55	41719.17
766.74	41500.04
766.92	41506.18
767.10	41645.44
767.29	41547.14
767.47	41051.53
767.65	41117.07
767.84	40955.28
768.02	41688.45
768.20	40816.02
768.39	40951.18
768.57	41139.60
768.75	41362.82
768.94	41076.11
769.12	40752.53
769.30	40408.47
769.49	40844.69
769.67	40297.88
769.85	39929.25
770.04	40713.62
770.22	40396.18
770.40	40449.43
770.59	39968.16
770.77	40760.72
770.95	40152.48
771.14	39884.19
771.32	39736.74
771.50	40062.36
771.69	40064.41
771.87	40134.04
772.05	39947.68
772.24	39665.06
772.42	39652.77
772.60	40076.70
772.78	39310.76
772.97	39392.68
773.15	40099.23
773.33	39873.95
773.52	39939.49
773.70	40062.36
773.88	39601.57
774.07	39204.27
774.25	39722.40
774.43	39683.49
774.61	39540.13
774.80	39695.78
774.98	39538.08
775.16	39579.04
775.34	39812.51
775.53	39495.08
775.71	39867.81
775.89	39859.62
776.08	39263.66
776.26	39615.91
776.44	39785.89
776.62	39366.06
776.81	39560.61
776.99	39955.87
777.17	39644.58
777.35	40025.50
777.54	39906.72
777.72	39513.51
777.90	39847.33
778.08	39964.06
778.27	39552.42
778.45	39894.43
778.63	40170.91
778.81	39527.84
779.00	40371.61
779.18	39964.06
779.36	40326.55
779.54	39962.01
779.73	39757.22
779.91	40109.47
780.09	39626.15
780.27	39964.06
780.46	39742.88
780.64	40226.20
780.82	39966.11
781.00	39837.09
781.19	39878.05
781.37	40121.76
781.55	40510.87
781.73	40181.15
781.91	40088.99
782.10	40031.65
782.28	40011.17
782.46	39863.71
782.64	40535.45
782.82	39916.96
783.01	40334.74
783.19	40005.02
783.37	40035.74
783.55	40281.50
783.74	40361.37
783.92	40199.58
784.10	40510.87
784.28	40170.91
784.46	40074.65
784.64	40002.97
784.83	39972.25
785.01	40240.54
785.19	39876.00
785.37	40267.16
785.55	40258.97
785.74	39685.54
785.92	39288.23
786.10	40281.50
786.28	39816.61
786.46	39912.86
786.64	39828.90
786.83	39552.42
787.01	39964.06
787.19	39878.05
787.37	39929.25
787.55	39646.63
787.74	39560.61
787.92	39716.26
788.10	39513.51
788.28	39441.83
788.46	39855.52
788.64	39738.79
788.82	39880.10
789.01	39486.89
789.19	39484.84
789.37	39173.55
789.55	39140.78
789.73	38811.06
789.91	38999.47
790.09	38794.67
790.28	38395.32
790.46	38671.79
790.64	38753.71
790.82	38766.00
791.00	38346.17
791.18	38618.55
791.36	38737.33
791.55	38477.24
791.73	38434.23
791.91	38165.95
792.09	38313.40
792.27	38325.69
792.45	38098.36
792.63	37924.29
792.81	37731.78
793.00	37772.74
793.18	37653.95
793.36	37823.93
793.54	37660.10
793.72	37801.41
793.90	37209.54
794.08	36998.60
794.26	37328.33
794.44	36931.02
794.62	37135.82
794.81	37453.25
794.99	36758.99
795.17	36488.66
795.35	36918.73
795.53	37074.38
795.71	36918.73
795.89	36591.06
796.07	36163.03
796.25	36599.25
796.43	36574.67
796.61	36044.25
796.80	36179.42
796.98	36341.21
797.16	35524.07
797.34	36167.13
797.52	35661.28
797.70	35970.52
797.88	35556.83
798.06	35616.22
798.24	35628.51
798.42	35476.96
798.60	35364.32
798.78	35046.89
798.96	35442.15
799.14	34964.97
799.32	35073.51
799.51	34649.58
799.69	34887.15
799.87	34903.53
800.05	34391.54
800.23	34504.18
800.41	34377.20
800.59	34674.16
800.77	34260.47
800.95	33881.60
801.13	34508.27
801.31	34067.96
801.49	34336.24
801.67	34235.89
801.85	33703.42
802.03	33353.22
802.21	33742.33
802.39	33762.81
802.57	34141.69
802.75	33488.38
802.93	33472.00
803.11	33287.68
803.29	33048.07
803.47	33058.31
803.65	32812.56
803.83	33400.32
804.01	32804.36
804.19	32413.20
804.37	32622.09
804.55	32857.61
804.73	32912.91
804.91	32394.77
805.09	32873.99
805.27	32488.98
805.45	32597.52
805.63	32347.67
805.81	32124.44
805.99	32235.03
806.17	32415.25
806.35	32235.03
806.53	31759.90
806.71	31843.87
806.89	31753.76
807.07	31827.48
807.25	31745.56
807.43	31747.61
807.61	32261.65
807.79	31548.96
807.97	31340.07
808.15	31389.22
808.33	31444.51
808.51	31546.91
808.69	31260.20
808.87	30971.43
809.05	31045.16
809.23	30975.53
809.41	30774.83
809.59	30584.37
809.77	30909.99
809.95	30608.94
810.13	31002.15
810.31	30488.11
810.49	30651.95
810.67	30520.88
810.84	31024.68
811.02	30256.69
811.20	30002.74
811.38	30281.27
811.56	29832.76
811.74	30045.75
811.92	29773.37
812.10	29869.62
812.28	30391.86
812.46	29961.78
812.64	30008.89
812.82	29816.38
813.00	29912.63
813.18	29554.24
813.36	29623.87
813.53	29398.59
813.71	29417.02
813.89	29455.93
814.07	29531.71
814.25	29591.10
814.43	29466.17
814.61	29163.08
814.79	28925.51
814.97	29353.54
815.15	29283.91
815.33	28612.17
815.50	28927.56
815.68	28907.08
815.86	29210.18
816.04	28554.83
816.22	28407.37
816.40	28677.71
816.58	28495.44
816.76	28147.28
816.94	28726.86
817.11	28278.35
817.29	28255.82
817.47	28212.82
817.65	28231.25
817.83	28520.01
818.01	28149.33
818.19	28087.89
818.37	28550.73
818.54	27819.61
818.72	27780.70
818.90	27739.74
819.08	27907.67
819.26	27879.00
819.44	27835.99
819.62	27627.10
819.80	27541.08
819.97	27424.35
820.15	27309.66
820.33	27268.70
820.51	27362.91
820.69	27321.95
820.87	27553.37
821.05	27459.16
821.22	27534.94
821.40	27301.47
821.58	27287.14
821.76	27162.21
821.94	27194.98
822.12	26816.10
822.29	27039.33
822.47	26934.88
822.65	27205.22
822.83	27106.91
823.01	27217.50
823.19	26230.38
823.36	26349.17
823.54	26795.62
823.72	26404.46
823.90	26758.76
824.08	26705.51
824.25	26820.20
824.43	26220.14
824.61	26637.93
824.79	26203.76
824.97	26170.99
825.15	26289.77
825.32	26324.59
825.50	26269.30
825.68	26148.46
825.86	26496.62
826.04	26183.28
826.21	26367.60
826.39	25982.58
826.57	26056.31
826.75	25960.05
826.93	25874.04
827.10	25878.13
827.28	26193.52
827.46	26019.44
827.64	25544.31
827.81	26060.40
827.99	25919.09
828.17	25994.87
828.35	25595.51
828.53	25478.78
828.70	25910.90
828.88	25292.41
829.06	25562.75
829.24	25456.25
829.41	25704.06
829.59	25480.83
829.77	25413.24
829.95	25448.06
830.12	25253.50
830.30	25175.68
830.48	25372.28
830.66	25253.50
830.84	25179.78
831.01	25396.86
831.19	25073.28
831.37	25001.60
831.55	24776.33
831.72	24936.07
831.90	25284.22
832.08	25028.23
832.25	24819.33
832.43	24999.55
832.61	24710.79
832.79	24819.33
832.96	24587.91
833.14	24862.34
833.32	24825.48
833.50	24325.77
833.67	24655.50
833.85	24757.89
834.03	24235.66
834.20	24624.78
834.38	24301.20
834.56	24542.86
834.74	24178.32
834.91	24407.69
835.09	24315.53
835.27	23969.43
835.44	24305.29
835.62	23565.98
835.80	24108.69
835.98	24020.63
836.15	24198.80
836.33	24137.36
836.51	23756.44
836.68	24338.06
836.86	24166.03
837.04	23760.53
837.21	24250.00
837.39	24043.15
837.57	24231.57
837.75	24004.24
837.92	23842.45
838.10	23774.87
838.28	23391.90
838.45	23547.54
838.63	23678.61
838.81	23512.73
838.98	23848.60
839.16	23461.53
839.34	23680.66
839.51	23324.32
839.69	23420.57
839.87	23092.90
840.04	23436.95
840.22	23912.08
840.40	23557.78
840.57	23191.20
840.75	23193.25
840.93	22843.04
841.10	23244.45
841.28	23287.45
841.46	23027.36
841.63	23680.66
841.81	22828.71
841.98	23303.84
842.16	23277.21
842.34	23226.01
842.51	22929.06
842.69	23291.55
842.87	22722.21
843.04	23037.60
843.22	22867.62
843.40	22570.66
843.57	22630.05
843.75	22597.29
843.92	22836.90
844.10	22757.03
844.28	22845.09
844.45	22916.77
844.63	22877.86
844.81	22576.81
844.98	22734.50
845.16	22748.84
845.33	22912.67
845.51	22732.45
845.69	22220.46
845.86	22322.86
846.04	22111.92
846.21	22044.34
846.39	22496.94
846.57	22449.83
846.74	22081.20
846.92	22402.73
847.09	22001.33
847.27	21798.58
847.45	22113.97
847.62	22140.59
847.80	22027.95
847.97	22023.86
848.15	22079.15
848.32	22052.53
848.50	21792.44
848.68	21888.69
848.85	22095.53
849.03	21765.81
849.20	21972.66
849.38	21782.20
849.56	21896.88
849.73	21421.75
849.91	21550.78
850.08	21958.32
850.26	21669.56
850.43	21778.10
850.61	21935.79
850.78	21167.80
850.96	21544.63
851.14	20985.54
851.31	21724.85
851.49	21739.19
851.66	21620.41
851.84	21475.00
852.01	21495.48
852.19	21348.03
852.36	21489.34
852.54	21243.58
852.71	21376.70
852.89	21538.49
853.07	21282.49
853.24	21145.28
853.42	21501.62
853.59	21823.16
853.77	21538.49
853.94	21667.51
854.12	21419.71
854.29	21024.45
854.47	21296.83
854.64	21305.02
854.82	20840.13
854.99	20950.72
855.17	21032.64
855.34	21268.16
855.52	20825.79
855.69	21210.81
855.87	20778.69
856.04	20793.03
856.22	21044.93
856.39	20319.95
856.57	20823.75
856.74	20766.40
856.92	20960.96
857.09	20621.00
857.27	20762.31
857.44	21057.21
857.62	20827.84
857.79	20592.33
857.97	20909.76
858.14	20451.02
858.32	20215.50
858.49	20547.27
858.67	20758.21
858.84	20270.79
859.02	20301.51
859.19	20510.41
859.37	20332.23
859.54	19945.17
859.72	20313.80
859.89	20356.81
860.06	20354.76
860.24	20321.99
860.41	20160.20
860.59	19832.53
860.76	20109.01
860.94	20068.05
861.11	20231.88
861.29	20424.39
861.46	19979.98
861.64	19769.04
861.81	19949.26
861.98	19699.41
862.16	19683.03
862.33	19287.77
862.51	19713.75
862.68	19875.54
862.86	19799.76
863.03	19846.87
863.21	19615.44
863.38	19685.08
863.55	19490.52
863.73	19511.00
863.90	19515.09
864.08	19787.47
864.25	19578.58
864.43	19803.86
864.60	19220.19
864.77	19525.33
864.95	19560.15
865.12	19414.74
865.30	19805.91
865.47	19402.46
865.64	19355.35
865.82	18988.77
865.99	19480.28
866.17	19232.47
866.34	19095.26
866.51	18999.01
866.69	19351.26
866.86	19799.76
867.04	19394.26
867.21	19494.61
867.38	18800.35
867.56	18775.78
867.73	19207.90
867.91	18622.18
868.08	18527.97
868.25	19056.35
868.43	18671.33
868.60	18540.26
868.78	18513.64
868.95	18306.79
869.12	18786.02
869.30	18597.60
869.47	18595.56
869.64	18497.25
869.82	18745.06
869.99	18607.84
870.16	18796.26
870.34	18755.30
870.51	18728.67
870.69	18419.43
870.86	18482.92
871.03	18726.63
871.21	18740.96
871.38	18767.59
871.55	18179.82
871.73	18218.73
871.90	18153.20
872.07	18280.17
872.25	17643.25
872.42	18009.84
872.59	18155.24
872.77	17929.97
872.94	17850.10
873.11	18147.05
873.29	18018.03
873.46	17889.01
873.63	17549.04
873.81	17547.00
873.98	18075.37
874.15	17372.92
874.33	17362.68
874.50	17235.70
874.67	17671.92
874.85	17321.72
875.02	17559.28
875.19	17071.87
875.37	17387.25
875.54	17166.07
875.71	17438.45
875.88	17139.45
876.06	17590.00
876.23	17180.41
876.40	17383.16
876.58	17309.43
876.75	17108.73
876.92	16873.21
877.10	17071.87
877.27	16797.44
877.44	16846.59
877.61	16754.43
877.79	17096.44
877.96	16807.68
878.13	17200.89
878.31	16692.99
878.48	16783.10
878.65	16598.79
878.82	16975.61
879.00	16797.44
879.17	16178.95
879.34	16680.71
879.51	16369.41
879.69	15951.63
879.86	16355.08
880.03	16217.86
880.21	16320.26
880.38	16733.95
880.55	16449.28
880.72	16582.40
880.90	16320.26
881.07	16131.85
881.24	16430.85
881.41	16154.38
881.59	15976.20
881.76	16224.01
881.93	16181.00
882.10	16123.66
882.28	15941.39
882.45	15945.48
882.62	16086.79
882.79	16123.66
882.96	15755.02
883.14	15990.54
883.31	15636.24
883.48	15806.22
883.65	15720.21
883.83	16037.64
884.00	15814.41
884.17	15707.92
884.34	16021.26
884.51	15828.75
884.69	15765.26
884.86	15435.54
885.03	15918.86
885.20	15611.67
885.38	15904.53
885.55	15435.54
885.72	16033.55
885.89	15525.65
886.06	15419.16
886.24	15535.89
886.41	15370.01
886.58	15703.82
886.75	15722.26
886.92	15333.14
887.10	15499.03
887.27	15114.01
887.44	15683.34
887.61	15720.21
887.78	15140.63
887.95	15415.06
888.13	14958.36
888.30	15148.82
888.47	15283.99
888.64	15021.85
888.81	15781.65
888.99	15189.78
889.16	15148.82
889.33	15068.95
889.50	14933.79
889.67	15009.56
889.84	14923.55
890.01	14759.71
890.19	15247.13
890.36	15009.56
890.53	15089.43
890.70	14604.07
890.87	15005.47
891.04	14896.92
891.22	14681.89
891.39	14837.53
891.56	14489.38
891.73	14774.05
891.90	14608.16
892.07	14364.45
892.24	14663.46
892.42	14319.40
892.59	14548.77
892.76	14438.18
892.93	14278.44
893.10	14452.52
893.27	14171.94
893.44	14417.70
893.61	14413.60
893.79	14823.20
893.96	13969.19
894.13	14501.67
894.30	14346.02
894.47	14501.67
894.64	14739.23
894.81	14167.85
894.98	14841.63
895.15	14620.45
895.33	14683.94
895.50	14253.86
895.67	14550.82
895.84	14516.00
896.01	14266.15
896.18	13944.62
896.35	14444.32
896.52	13913.90
896.69	13969.19
896.86	14425.89
897.04	14581.54
897.21	14262.05
897.38	14147.37
897.55	14212.90
897.72	13874.99
897.89	14241.57
898.06	14532.39
898.23	14239.53
898.40	14243.62
898.57	13932.33
898.74	14094.12
898.91	14257.96
899.08	14221.10
899.26	14554.91
899.43	14593.83
899.60	13618.99
899.77	14208.81
899.94	14173.99
900.11	13889.32
900.28	13893.42
900.45	14217.00
900.62	13829.93
900.79	14145.32
900.96	14087.98
901.13	14024.49
901.30	13737.77
901.47	13811.50
901.64	14110.50
901.81	14221.10
901.98	13836.08
902.15	14055.21
902.32	13731.63
902.49	13889.32
902.66	13858.60
902.83	14073.64
903.01	14249.77
903.18	14057.26
903.35	14094.12
903.52	13874.99
903.69	13795.12
903.86	14104.36
904.03	14276.39
904.20	14051.11
904.37	13784.88
904.54	13852.46
904.71	13895.47
904.88	14018.35
905.05	13680.43
905.22	13944.62
905.39	13915.95
905.56	13928.24
905.73	14196.52
905.90	14173.99
906.07	14061.35
906.24	13891.37
906.41	14038.83
906.58	14253.86
906.75	14063.40
906.92	13981.48
907.09	13807.41
907.26	13940.52
907.43	13737.77
907.60	14028.59
907.77	13975.34
907.93	13737.77
908.10	13690.67
908.27	13817.65
908.44	13754.16
908.61	13504.31
908.78	13592.37
908.95	14135.08
909.12	13705.01
909.29	13981.48
909.46	13532.98
909.63	13635.38
909.80	13977.39
909.97	13948.72
910.14	13864.75
910.31	13670.19
910.48	13750.06
910.65	13766.45
910.82	14112.55
910.99	13961.00
911.16	13993.77
911.33	13895.47
911.50	13670.19
911.66	13412.15
911.83	13387.57
912.00	13440.82
912.17	13244.21
912.34	13391.67
912.51	13606.70
912.68	13010.75
912.85	13940.52
913.02	13283.13
913.19	12902.20
913.36	13319.99
913.53	13373.24
913.70	12851.00
913.86	13569.84
914.03	13219.64
914.20	13334.32
914.37	13328.18
914.54	12906.30
914.71	13074.23
914.88	13229.88
915.05	12889.92
915.22	12810.04
915.39	13203.25
915.55	13223.73
915.72	13035.32
915.89	12781.37
916.06	12918.59
916.23	13000.51
916.40	12865.34
916.57	12429.12
916.74	12502.85
916.91	12638.02
917.07	12291.91
917.24	12418.88
917.41	12410.69
917.58	12764.99
917.75	12580.67
917.92	12382.02
918.09	12439.36
918.26	12506.95
918.42	12455.75
918.59	12113.74
918.76	12195.65
918.93	12040.01
919.10	12080.97
919.27	12166.98
919.44	12148.55
919.60	12595.01
919.77	11929.42
919.94	11974.47
920.11	12136.26
920.28	12160.84
920.45	11878.22
920.61	11540.30
920.78	11628.37
920.95	11712.33
921.12	11810.64
921.29	11691.85
921.46	11446.10
921.62	10993.50
921.79	11341.65
921.96	11550.54
922.13	11671.37
922.30	11222.87
922.47	11163.48
922.63	11204.44
922.80	11083.61
922.97	11171.67
923.14	10911.58
923.31	10864.47
923.47	10964.82
923.64	11157.33
923.81	11108.18
923.98	10768.22
924.15	11042.65
924.32	10870.62
924.48	10843.99
924.65	10819.42
924.82	10291.04
924.99	10542.94
925.15	10381.15
925.32	10434.40
925.49	10565.47
925.66	10950.49
925.83	10403.68
925.99	10264.42
926.16	10719.07
926.33	10393.44
926.50	9758.57
926.67	9963.37
926.83	10307.43
927.00	10133.35
927.17	9981.80
927.34	9422.70
927.50	9838.44
927.67	9764.72
927.84	10024.81
928.01	9891.69
928.17	9553.77
928.34	9566.06
928.51	9277.30
928.68	9437.04
928.84	9547.63
929.01	9346.93
929.18	8966.01
929.35	9213.81
929.51	9154.42
929.68	8810.36
929.85	8998.77
930.02	9117.56
930.18	9226.10
930.35	8982.39
930.52	8695.68
930.69	9002.87
930.85	8998.77
931.02	8982.39
931.19	9062.26
931.36	8783.74
931.52	8609.66
931.69	8896.38
931.86	8769.40
932.02	8417.15
932.19	8157.06
932.36	8587.13
932.53	8517.50
932.69	8306.56
932.86	8396.67
933.03	8421.25
933.19	8120.20
933.36	8232.83
933.53	8171.40
933.70	8376.19
933.86	8005.51
934.03	7993.22
934.20	7808.90
934.36	8007.56
934.53	7458.70
934.70	7446.41
934.86	7694.22
935.03	7358.35
935.20	7589.77
935.36	7573.39
935.53	7176.08
935.70	7045.01
935.86	7352.21
936.03	6735.77
936.20	6664.09
936.36	6772.63
936.53	6915.99
936.70	6928.28
936.86	6993.81
937.03	6885.27
937.20	6592.41
937.36	6940.57
937.53	5812.14
937.70	6277.02
937.86	5998.50
938.03	6211.49
938.20	6698.91
938.36	5922.73
938.53	6033.32
938.70	5463.98
938.86	5658.54
939.03	5480.36
939.20	5685.16
939.36	5287.86
939.53	5298.10
939.70	5371.82
939.86	5441.45
940.03	5128.11
940.19	5083.06
940.36	5019.57
940.53	5050.29
940.69	4546.49
940.86	4911.03
941.03	4603.83
941.19	4442.04
941.36	4495.29
941.52	4388.80
941.69	4347.84
941.86	4517.82
942.02	4784.06
942.19	4425.66
942.35	4188.10
942.52	4204.48
942.69	4140.99
942.85	3803.08
943.02	3868.61
943.18	3792.84
943.35	4138.94
943.52	3674.06
943.68	3895.24
943.85	3751.88
944.01	4014.02
944.18	3485.64
944.35	3841.99
944.51	3565.51
944.68	3536.84
944.84	3321.81
945.01	3715.02
945.17	3790.79
945.34	3643.34
945.51	3575.75
945.67	3514.31
945.84	3270.61
946.00	3229.65
946.17	3639.24
946.33	3385.29
946.50	3731.40
946.67	3291.09
946.83	3471.31
947.00	3626.95
947.16	3368.91
947.33	3293.13
947.49	3588.04
947.66	3223.50
947.82	3276.75
947.99	3213.26
948.16	3739.59
948.32	3297.23
948.49	3444.68
948.65	3700.68
948.82	3342.28
948.98	3231.69
949.15	2975.70
949.31	3274.70
949.48	3276.75
949.64	3381.20
949.81	3456.97
949.97	3301.33
950.14	3340.24
950.30	3381.20
950.47	3712.97
950.63	3186.64
950.80	3379.15
950.96	3450.83
951.13	3573.71
951.30	3547.08
951.46	3141.58
951.63	3577.80
951.79	3631.05
951.96	3899.33
952.12	3311.57
952.29	3721.16
952.45	3176.40
952.62	3631.05
952.78	3473.36
952.94	3508.17
953.11	3776.45
953.27	3194.83
953.44	3588.04
953.60	3934.15
953.77	3446.73
953.93	3583.95
954.10	3373.00
954.26	3502.03
954.43	3440.59
954.59	3821.51
954.76	3819.46
954.92	3481.55
955.09	3438.54
955.25	3452.88
955.42	3629.00
955.58	3991.49
955.75	3719.11
955.91	3452.88
956.07	3536.84
956.24	3694.54
956.40	3379.15
956.57	3497.93
956.73	3547.08
956.90	3618.76
957.06	3565.51
957.23	3366.86
957.39	3379.15
957.56	3653.58
957.72	3577.80
957.88	3252.17
958.05	3616.71
958.21	3944.39
958.38	3499.98
958.54	3557.32
958.71	3647.43
958.87	3651.53
959.03	3432.40
959.20	3407.82
959.36	3346.38
959.53	3702.73
959.69	3391.44
959.85	3790.79
960.02	3450.83
960.18	3585.99
960.35	3524.55
960.51	3530.70
960.68	3477.45
960.84	3467.21
961.00	3338.19
961.17	3528.65
961.33	3418.06
961.50	3579.85
961.66	3551.18
961.82	3370.96
961.99	3481.55
962.15	3393.48
962.31	3272.65
962.48	3436.49
962.64	3338.19
962.81	3557.32
962.97	3315.66
963.13	3833.80
963.30	3440.59
963.46	3430.35
963.62	3190.74
963.79	3301.33
963.95	3313.61
964.12	3518.41
964.28	3530.70
964.44	3241.93
964.61	3612.62
964.77	3370.96
964.93	3649.48
965.10	3323.85
965.26	3334.09
965.42	3168.21
965.59	3241.93
965.75	3399.63
965.92	3393.48
966.08	3233.74
966.24	3522.51
966.41	3442.64
966.57	3463.12
966.73	3413.96
966.90	3340.24
967.06	3620.81
967.22	3106.77
967.39	3246.03
967.55	3127.25
967.71	3147.73
967.88	2992.08
968.04	3342.28
968.20	3170.26
968.37	3330.00
968.53	3149.78
968.69	3145.68
968.85	3444.68
969.02	3137.49
969.18	3334.09
969.34	3018.71
969.51	3327.95
969.67	3213.26
969.83	2932.69
970.00	3512.27
970.16	3235.79
970.32	3362.76
970.48	3555.27
970.65	3207.12
970.81	3260.37
970.97	3393.48
971.14	2791.38
971.30	3391.44
971.46	2928.60
971.63	3463.12
971.79	3289.04
971.95	3237.84
972.11	3084.24
972.28	3141.58
972.44	3104.72
972.60	2848.72
972.76	2944.98
972.93	2895.83
973.09	3145.68
973.25	3041.23
973.42	2961.36
973.58	3248.08
973.74	3084.24
973.90	2994.13
974.07	2717.65
974.23	2934.74
974.39	2973.65
974.55	2961.36
974.72	2942.93
974.88	2885.59
975.04	2949.08
975.20	3063.76
975.37	2858.96
975.53	3035.09
975.69	3112.91
975.85	2942.93
976.01	2883.54
976.18	2836.44
976.34	2828.24
976.50	2791.38
976.66	3012.56
976.83	2832.34
976.99	2766.81
977.15	2815.96
977.31	2492.38
977.47	2955.22
977.64	2805.72
977.80	2791.38
977.96	2615.26
978.12	2768.85
978.29	2545.63
978.45	2875.35
978.61	2680.79
978.77	2648.02
978.93	2688.98
979.10	2768.85
979.26	2660.31
979.42	2777.05
979.58	2557.91
979.74	2535.39
979.91	2656.22
980.07	2703.32
980.23	2504.67
980.39	2562.01
980.55	2504.67
980.71	2484.19
980.88	2619.35
981.04	2541.53
981.20	2543.58
981.36	2467.80
981.52	2574.30
981.68	2346.97
981.85	2944.98
982.01	2371.55
982.17	2310.11
982.33	2414.56
982.49	2750.42
982.65	2547.67
982.82	2539.48
982.98	2408.41
983.14	2414.56
983.30	2389.98
983.46	2451.42
983.62	2605.02
983.79	2537.43
983.95	2357.21
984.11	2240.48
984.27	2469.85
984.43	2363.36
984.59	2545.63
984.75	2529.24
984.91	2303.96
985.08	2445.27
985.24	2222.05
985.40	2203.61
985.56	2400.22
985.72	2533.34
985.88	2369.50
986.04	2410.46
986.20	2301.92
986.37	2453.47
986.53	2291.68
986.69	2392.03
986.85	2412.51
987.01	2174.94
987.17	2412.51
987.33	2236.38
987.49	2213.85
987.65	2271.20
987.82	2287.58
987.98	2125.79
988.14	2367.45
988.30	2283.49
988.46	2232.29
988.62	2224.09
988.78	2174.94
988.94	2066.40
989.10	2185.18
989.26	2117.60
989.42	2088.93
989.59	2226.14
989.75	2334.68
989.91	2269.15
990.07	2068.45
990.23	2199.52
990.39	2123.74
990.55	2285.53
990.71	2047.97
990.87	2277.34
991.03	2215.90
991.19	1916.90
991.35	2050.02
991.51	2209.76
991.67	2359.26
991.83	2033.63
992.00	2068.45
992.16	2133.98
992.32	2068.45
992.48	2213.85
992.64	2082.78
992.80	2090.98
992.96	2023.39
993.12	2191.33
993.28	2101.22
993.44	1929.19
993.60	2105.31
993.76	2086.88
993.92	2179.04
994.08	2142.18
994.24	2017.25
994.40	2172.89
994.56	2160.61
994.72	1900.52
994.88	2015.20
995.04	2025.44
995.20	2109.41
995.36	2066.40
995.52	2142.18
995.68	2103.26
995.84	2002.91
996.00	2181.09
996.16	1957.86
996.32	1953.76
996.48	1966.05
996.64	2170.85
996.80	2004.96
996.96	2099.17
997.12	1988.58
997.28	1894.37
997.44	1824.74
997.60	1953.76
997.76	1931.23
997.92	1966.05
998.08	1992.67
998.24	1902.56
998.40	1945.57
998.56	1964.00
998.72	1908.71
998.88	1982.43
999.04	1894.37
999.20	2021.35
999.36	1853.41
999.52	1970.15
999.68	1914.85
999.84	1929.19
1000.00	1957.86
1000.16	2144.22
1000.32	1773.54
1000.48	1992.67
1000.64	1748.97
1000.80	1814.50
1000.95	1693.67
1001.11	2002.91
1001.27	1865.70
1001.43	1781.73
1001.59	1916.90
1001.75	1843.17
1001.91	1929.19
1002.07	1953.76
1002.23	1722.34
1002.39	1794.02
1002.55	1789.92
1002.71	1687.53
1002.87	2011.11
1003.03	1841.12
1003.19	1839.08
1003.34	2072.54
1003.50	1783.78
1003.66	1918.95
1003.82	1783.78
1003.98	1884.13
1004.14	1998.82
1004.30	1748.97
1004.46	1820.64
1004.62	1920.99
1004.78	1738.73
1004.94	1861.60
1005.09	1875.94
1005.25	1871.84
1005.41	1939.43
1005.57	1828.84
1005.73	1789.92
1005.89	1740.77
1006.05	1822.69
1006.21	1716.20
1006.37	1701.86
1006.52	1703.91
1006.68	1802.21
1006.84	1839.08
1007.00	1765.35
1007.16	1884.13
1007.32	1697.77
1007.48	1789.92
1007.64	1708.01
1007.79	1753.06
1007.95	1746.92
1008.11	1820.64
1008.27	1816.55
1008.43	1781.73
1008.59	1746.92
1008.75	1748.97
1008.91	1863.65
1009.06	1777.64
1009.22	1806.31
1009.38	1777.64
1009.54	1802.21
1009.70	1673.19
1009.86	1816.55
1010.01	1802.21
1010.17	1710.05
1010.33	1812.45
1010.49	1718.25
1010.65	1959.91
1010.81	1679.33
1010.96	1763.30
1011.12	1712.10
1011.28	1646.57
1011.44	1959.91
1011.60	1730.53
1011.76	1665.00
1011.91	1769.44
1012.07	1757.16
1012.23	1675.24
1012.39	1755.11
1012.55	1767.40
1012.71	1767.40
1012.86	1736.68
1013.02	1744.87
1013.18	1716.20
1013.34	1687.53
1013.50	1861.60
1013.65	1734.63
1013.81	1636.33
1013.97	1787.88
1014.13	1759.21
1014.29	1691.62
1014.44	1806.31
1014.60	1810.40
1014.76	1718.25
1014.92	1683.43
1015.07	1755.11
1015.23	1775.59
1015.39	1730.53
1015.55	1685.48
1015.71	1716.20
1015.86	1710.05
1016.02	1671.14
1016.18	1630.18
1016.34	1744.87
1016.49	1640.42
1016.65	1783.78
1016.81	1685.48
1016.97	1583.08
1017.12	1769.44
1017.28	1605.61
1017.44	1609.70
1017.60	1703.91
1017.75	1693.67
1017.91	1798.12
1018.07	1691.62
1018.23	1765.35
1018.38	1695.72
1018.54	1689.57
1018.70	1710.05
1018.86	1695.72
1019.01	1744.87
1019.17	1779.68
1019.33	1927.14
1019.49	1685.48
1019.64	1687.53
1019.80	1710.05
1019.96	1742.82
1020.12	1665.00
1020.27	1669.09
1020.43	1724.39
1020.59	1691.62
1020.74	1763.30
1020.90	1703.91
1021.06	1660.90
1021.22	1751.01
1021.37	1624.04
1021.53	1705.96
1021.69	1708.01
1021.84	1556.46
1022.00	1738.73
1022.16	1695.72
1022.31	1640.42
1022.47	1718.25
1022.63	1765.35
1022.79	1570.79
1022.94	1646.57
1023.10	1767.40
1023.26	1732.58
1023.41	1628.14
1023.57	1644.52
1023.73	1695.72
1023.88	1630.18
1024.04	1658.85
1024.20	1650.66
1024.35	1640.42
1024.51	1675.24
1024.67	1705.96
1024.82	1748.97
1024.98	1650.66
1025.14	1609.70
1025.29	1716.20
1025.45	1708.01
1025.61	1613.80
1025.76	1638.38
1025.92	1695.72
1026.08	1683.43
1026.23	1652.71
1026.39	1728.49
1026.55	1695.72
1026.70	1650.66
1026.86	1681.38
1027.02	1732.58
1027.17	1720.29
1027.33	1679.33
1027.48	1679.33
1027.64	1679.33
1027.80	1576.94
1027.95	1685.48
1028.11	1593.32
1028.27	1726.44
1028.42	1673.19
1028.58	1599.46
1028.73	1708.01
1028.89	1562.60
1029.05	1779.68
1029.20	1675.24
>>>>>End Processed Spectral Data<<<<<
