SpectraSuite Data File
++++++++++++++++++++++++++++++++++++
Date: Fri Jun 02 14:51:07 CEST 2017
User: INFO_000
Dark Spectrum Present: No
Reference Spectrum Present: No
Number of Sampled Component Spectra: 1
Spectrometers: USB4H00879
Integration Time (usec): 80000 (USB4H00879)
Spectra Averaged: 1 (USB4H00879)
Boxcar Smoothing: 0 (USB4H00879)
Correct for Electrical Dark: No (USB4H00879)
Strobe/Lamp Enabled: No (USB4H00879)
Correct for Detector Non-linearity: No (USB4H00879)
Correct for Stray Light: No (USB4H00879)
Number of Pixels in Processed Spectrum: 3648
>>>>>Begin Processed Spectral Data<<<<<
345.13	1290.22
345.34	1290.22
345.56	1290.22
345.78	1224.69
345.99	1271.79
346.21	1751.01
346.42	1744.87
346.64	1617.90
346.86	1814.50
347.07	1656.81
347.29	1650.66
347.50	1656.81
347.72	1671.14
347.94	1691.62
348.15	1589.22
348.37	1634.28
348.59	1695.72
348.80	1568.74
349.02	1712.10
349.23	1820.64
349.45	1781.73
349.67	1814.50
349.88	1740.77
350.10	1925.09
350.31	1785.83
350.53	1785.83
350.75	1974.24
350.96	1712.10
351.18	1759.21
351.39	1796.07
351.61	1724.39
351.82	1871.84
352.04	1890.28
352.26	1769.44
352.47	1769.44
352.69	1781.73
352.90	1650.66
353.12	1773.54
353.34	1875.94
353.55	1931.23
353.77	1894.37
353.98	1775.59
354.20	1740.77
354.41	1884.13
354.63	1884.13
354.85	1994.72
355.06	1880.04
355.28	1693.67
355.49	1880.04
355.71	1855.46
355.92	1855.46
356.14	1777.64
356.35	1867.75
356.57	1843.17
356.79	1912.80
357.00	1800.16
357.22	1949.67
357.43	1839.08
357.65	1890.28
357.86	1748.97
358.08	1802.21
358.29	1896.42
358.51	1896.42
358.72	1918.95
358.94	1920.99
359.16	1886.18
359.37	1773.54
359.59	1918.95
359.80	1902.56
360.02	1861.60
360.23	1904.61
360.45	1853.41
360.66	1935.33
360.88	1767.40
361.09	1861.60
361.31	1970.15
361.52	1822.69
361.74	1949.67
361.95	2064.35
362.17	1851.36
362.38	1978.34
362.60	2023.39
362.81	1957.86
363.03	1841.12
363.24	1908.71
363.46	1953.76
363.67	1920.99
363.89	1931.23
364.10	1945.57
364.32	1843.17
364.53	1970.15
364.75	1863.65
364.96	1966.05
365.18	1927.14
365.39	1904.61
365.61	1837.03
365.82	2027.49
366.04	1929.19
366.25	1953.76
366.47	2066.40
366.68	1990.63
366.90	1990.63
367.11	2076.64
367.33	2017.25
367.54	2062.30
367.76	1984.48
367.97	2072.54
368.19	1925.09
368.40	2043.87
368.62	1949.67
368.83	1880.04
369.05	1957.86
369.26	1865.70
369.48	1877.99
369.69	1978.34
369.91	1982.43
370.12	1982.43
370.33	2011.11
370.55	1892.32
370.76	2019.30
370.98	2031.58
371.19	1992.67
371.41	2023.39
371.62	2011.11
371.84	2019.30
372.05	2138.08
372.27	1912.80
372.48	2060.26
372.69	2090.98
372.91	2076.64
373.12	2086.88
373.34	2029.54
373.55	2013.15
373.77	2162.66
373.98	2015.20
374.20	2088.93
374.41	2201.57
374.62	2093.02
374.84	2154.46
375.05	2088.93
375.27	2103.26
375.48	2119.65
375.70	2115.55
375.91	2224.09
376.12	2263.01
376.34	2060.26
376.55	2103.26
376.77	2232.29
376.98	2056.16
377.19	2152.42
377.41	2109.41
377.62	2252.77
377.84	2174.94
378.05	2351.07
378.27	2187.23
378.48	2189.28
378.69	2340.83
378.91	2293.72
379.12	2279.39
379.34	2273.25
379.55	2303.96
379.76	2246.62
379.98	2232.29
380.19	2330.59
380.41	2265.05
380.62	2254.81
380.83	2154.46
381.05	2215.90
381.26	2303.96
381.47	2220.00
381.69	2209.76
381.90	2213.85
382.12	2285.53
382.33	2273.25
382.54	2220.00
382.76	2265.05
382.97	2351.07
383.19	2174.94
383.40	2273.25
383.61	2334.68
383.83	2197.47
384.04	2306.01
384.25	2340.83
384.47	2240.48
384.68	2308.06
384.89	2377.69
385.11	2246.62
385.32	2248.67
385.54	2297.82
385.75	2267.10
385.96	2324.44
386.18	2369.50
386.39	2367.45
386.60	2314.20
386.82	2404.32
387.03	2361.31
387.24	2461.66
387.46	2498.52
387.67	2449.37
387.88	2377.69
388.10	2445.27
388.31	2412.51
388.52	2502.62
388.74	2510.81
388.95	2486.23
389.16	2451.42
389.38	2467.80
389.59	2469.85
389.80	2531.29
390.02	2611.16
390.23	2617.30
390.44	2535.39
390.66	2430.94
390.87	2482.14
391.08	2600.92
391.30	2666.46
391.51	2682.84
391.72	2541.53
391.94	2645.98
392.15	2547.67
392.36	2629.59
392.58	2492.38
392.79	2627.54
393.00	2557.91
393.22	2729.94
393.43	2668.50
393.64	2764.76
393.85	2590.68
394.07	2578.39
394.28	2719.70
394.49	2615.26
394.71	2705.37
394.92	2797.53
395.13	2670.55
395.35	2637.78
395.56	2674.65
395.77	2721.75
395.98	2740.18
396.20	2912.21
396.41	2758.61
396.62	2793.43
396.84	2734.04
397.05	2705.37
397.26	2869.20
397.47	2836.44
397.69	2772.95
397.90	2973.65
398.11	2721.75
398.32	2818.00
398.54	2897.88
398.75	2715.61
398.96	2920.40
399.18	3035.09
399.39	2916.31
399.60	3020.75
399.81	2918.36
400.03	2887.64
400.24	3209.17
400.45	2791.38
400.66	3045.33
400.88	2858.96
401.09	3149.78
401.30	3043.28
401.51	2969.55
401.73	3035.09
401.94	3074.00
402.15	3131.34
402.36	3041.23
402.58	3155.92
402.79	3121.10
403.00	3078.10
403.21	3188.69
403.43	3166.16
403.64	3125.20
403.85	3145.68
404.06	3110.86
404.27	3108.82
404.49	3035.09
404.70	3117.01
404.91	3182.54
405.12	3153.87
405.34	3211.22
405.55	3330.00
405.76	3114.96
405.97	3143.63
406.19	3254.22
406.40	3205.07
406.61	3186.64
406.82	3260.37
407.03	3223.50
407.25	3256.27
407.46	3260.37
407.67	3373.00
407.88	3377.10
408.09	3243.98
408.31	3270.61
408.52	3430.35
408.73	3284.94
408.94	3284.94
409.15	3342.28
409.37	3469.26
409.58	3442.64
409.79	3428.30
410.00	3598.28
410.21	3313.61
410.43	3375.05
410.64	3315.66
410.85	3483.59
411.06	3448.78
411.27	3495.88
411.48	3499.98
411.70	3497.93
411.91	3397.58
412.12	3661.77
412.33	3514.31
412.54	3549.13
412.76	3690.44
412.97	3542.99
413.18	3499.98
413.39	3571.66
413.60	3672.01
413.81	3536.84
414.03	3518.41
414.24	3696.58
414.45	3737.54
414.66	3477.45
414.87	3688.39
415.08	3635.14
415.30	3669.96
415.51	3745.73
415.72	3682.25
415.93	3688.39
416.14	3712.97
416.35	3712.97
416.56	3745.73
416.78	3829.70
416.99	3827.65
417.20	3848.13
417.41	3837.89
417.62	3805.13
417.83	3854.28
418.04	3743.69
418.26	3839.94
418.47	3846.09
418.68	3899.33
418.89	3854.28
419.10	3915.72
419.31	4026.31
419.52	3981.25
419.73	3989.44
419.95	4024.26
420.16	3913.67
420.37	3977.16
420.58	3917.76
420.79	3823.56
421.00	4073.41
421.21	3989.44
421.42	3866.56
421.63	4112.32
421.85	4005.83
422.06	4016.07
422.27	3999.68
422.48	3930.05
422.69	4231.10
422.90	4163.52
423.11	4114.37
423.32	4116.42
423.53	4270.01
423.75	4071.36
423.96	4306.88
424.17	4212.67
424.38	4374.46
424.59	4245.44
424.80	4532.15
425.01	4331.45
425.22	4366.27
425.43	4435.90
425.64	4476.86
425.85	4462.52
426.06	4505.53
426.28	4333.50
426.49	4190.14
426.70	4362.17
426.91	4530.11
427.12	4442.04
427.33	4546.49
427.54	4509.63
427.75	4521.92
427.96	4683.70
428.17	4575.16
428.38	4652.98
428.59	4562.87
428.80	4630.46
429.01	4560.83
429.23	4579.26
429.44	4718.52
429.65	4745.14
429.86	4810.68
430.07	4796.34
430.28	4593.59
430.49	4718.52
430.70	4886.45
430.91	4845.49
431.12	4790.20
431.33	4765.62
431.54	4904.89
431.75	4900.79
431.96	5005.24
432.17	4908.98
432.38	4822.97
432.59	5177.26
432.80	5066.67
433.01	5148.59
433.22	5124.02
433.43	5111.73
433.64	5060.53
433.85	4995.00
434.06	5089.20
434.27	4892.60
434.49	5142.45
434.70	5324.72
434.91	5242.80
435.12	5218.22
435.33	5117.87
435.54	5261.23
435.75	5046.20
435.96	5334.96
436.17	5142.45
436.38	5214.13
436.59	5316.53
436.80	5279.66
437.01	5504.94
437.22	5525.42
437.43	5279.66
437.64	5318.57
437.85	5457.84
438.06	5437.36
438.27	5429.17
438.48	5717.93
438.69	5713.83
438.90	5382.06
439.11	5545.90
439.32	5605.29
439.53	5506.99
439.74	5566.38
439.95	5607.34
440.16	5568.43
440.37	5648.30
440.57	5550.00
440.78	5869.48
440.99	5791.66
441.20	5834.66
441.41	5554.09
441.62	5728.17
441.83	5771.18
442.04	5861.29
442.25	5965.73
442.46	5855.14
442.67	5941.16
442.88	6315.94
443.09	5853.09
443.30	5760.94
443.51	5986.21
443.72	6043.56
443.93	6076.32
444.14	6244.26
444.35	5978.02
444.56	6137.76
444.77	6049.70
444.98	6328.22
445.19	6191.01
445.40	6180.77
445.61	6125.47
445.81	6313.89
446.02	6313.89
446.23	6168.48
446.44	6033.32
446.65	6301.60
446.86	6293.41
447.07	6447.01
447.28	6680.47
447.49	6404.00
447.70	6377.37
447.91	6502.30
448.12	6563.74
448.33	6762.39
448.54	6614.94
448.74	6522.78
448.95	6735.77
449.16	6436.77
449.37	6926.23
449.58	6596.51
449.79	6866.84
450.00	6698.91
450.21	6803.35
450.42	6901.65
450.63	6793.11
450.84	6887.32
451.05	6707.10
451.25	6852.50
451.46	6936.47
451.67	7024.53
451.88	7178.13
452.09	6932.37
452.30	6872.98
452.51	7104.40
452.72	7081.88
452.93	7339.92
453.13	6969.24
453.34	7165.84
453.55	7092.12
453.76	7088.02
453.97	7634.83
454.18	7204.75
454.39	7432.08
454.60	7413.65
454.81	7393.17
455.01	7530.38
455.22	7307.15
455.43	7450.51
455.64	7694.22
455.85	7821.19
456.06	7815.05
456.27	7620.49
456.48	7534.48
456.68	7757.71
456.89	7583.63
457.10	7772.04
457.31	7743.37
457.52	7749.51
457.73	7901.06
457.94	7999.37
458.14	7972.74
458.35	8310.66
458.56	7899.02
458.77	7853.96
458.98	8261.51
459.19	8073.09
459.39	8054.66
459.60	8261.51
459.81	8109.96
460.02	8296.32
460.23	8357.76
460.44	8484.73
460.65	8423.30
460.85	8361.86
461.06	8556.41
461.27	8281.99
461.48	8681.34
461.69	8914.81
461.89	8281.99
462.10	8611.71
462.31	8335.23
462.52	8601.47
462.73	8621.95
462.94	9056.12
463.14	8941.43
463.35	8740.73
463.56	9359.22
463.77	9189.24
463.98	8970.10
464.18	9215.86
464.39	9004.92
464.60	9316.21
464.81	9277.30
465.02	9072.50
465.23	9488.24
465.43	9095.03
465.64	9473.90
465.85	9422.70
466.06	9404.27
466.27	9701.23
466.47	9686.89
466.68	9506.67
466.89	9678.70
467.10	9766.76
467.30	9506.67
467.51	9840.49
467.72	9975.66
467.93	9647.98
468.14	9959.27
468.34	9969.51
468.55	10006.38
468.76	10053.48
468.97	10110.82
469.17	10221.41
469.38	10467.17
469.59	10624.86
469.80	10112.87
470.01	10125.16
470.21	10532.70
470.42	10479.46
470.63	10694.49
470.84	10395.49
471.04	10684.25
471.25	10714.97
471.46	10745.69
471.67	11022.17
471.87	10887.00
472.08	10903.39
472.29	11198.29
472.50	10833.75
472.70	10997.59
472.91	11247.44
473.12	11454.29
473.33	11450.19
473.53	11501.39
473.74	11294.55
473.95	11704.14
474.16	11743.05
474.36	11491.15
474.57	11923.27
474.78	12085.06
474.99	11886.41
475.19	11814.73
475.40	12375.88
475.61	12304.20
475.81	12484.42
476.02	12588.86
476.23	12240.71
476.44	12500.80
476.64	12701.50
476.85	12906.30
477.06	12652.35
477.27	13070.14
477.47	13020.99
477.68	13094.71
477.89	13104.95
478.09	13111.10
478.30	13346.61
478.51	13393.72
478.71	13457.20
478.92	13623.09
479.13	13662.00
479.34	13668.14
479.54	13938.48
479.75	13741.87
479.96	13750.06
480.16	14071.59
480.37	14245.67
480.58	14071.59
480.78	14593.83
480.99	14274.34
481.20	14530.34
481.41	14718.75
481.61	14587.68
481.82	14913.31
482.03	14810.91
482.23	14747.42
482.44	15075.10
482.65	15349.53
482.85	15318.81
483.06	15251.22
483.27	15437.59
483.47	15634.19
483.68	15400.72
483.89	15644.43
484.09	15632.15
484.30	15722.26
484.51	16076.55
484.71	16097.03
484.92	16203.53
485.13	16121.61
485.33	16230.15
485.54	16285.45
485.75	16699.14
485.95	16684.80
486.16	16932.61
486.37	16959.23
486.57	16645.89
486.78	17096.44
486.98	17071.87
487.19	17194.75
487.40	17129.21
487.60	17336.06
487.81	17659.63
488.02	17331.96
488.22	17450.74
488.43	17991.41
488.64	17850.10
488.84	18020.08
489.05	18251.50
489.25	18173.67
489.46	18190.06
489.67	18458.34
489.87	18421.48
490.08	18503.40
490.29	18515.69
490.49	18962.14
490.70	18884.32
490.90	19001.05
491.11	18884.32
491.32	18896.61
491.52	19193.56
491.73	19023.58
491.94	19453.66
492.14	19183.32
492.35	19904.21
492.55	19584.73
492.76	19934.93
492.97	19977.94
493.17	20012.75
493.38	20006.61
493.58	20162.25
493.79	20307.66
494.00	20328.14
494.20	20508.36
494.41	20629.19
494.61	20530.89
494.82	20692.68
495.02	20741.83
495.23	20881.09
495.44	20940.48
495.64	20997.82
495.85	21223.10
496.05	21114.56
496.26	21446.33
496.47	21249.72
496.67	21345.98
496.88	21687.99
497.08	21638.84
497.29	22202.03
497.49	21685.94
497.70	21814.96
497.91	22181.55
498.11	22283.95
498.32	22048.43
498.52	22359.72
498.73	22406.83
498.93	22552.23
499.14	22277.80
499.34	22634.15
499.55	22853.28
499.76	22613.67
499.96	22722.21
500.17	22660.77
500.37	22724.26
500.58	22875.81
500.78	23168.67
500.99	23084.70
501.19	23336.60
501.40	23156.38
501.60	23189.15
501.81	23303.84
502.02	23340.70
502.22	23350.94
502.43	23658.14
502.63	23684.76
502.84	23824.02
503.04	23879.32
503.25	23862.93
503.45	24114.83
503.66	23901.84
503.86	23989.91
504.07	24413.84
504.27	24043.15
504.48	24778.37
504.68	24417.93
504.89	24604.30
505.09	24434.32
505.30	24549.00
505.50	24446.60
505.71	24465.03
505.91	24594.06
506.12	24743.56
506.32	24573.58
506.53	24688.26
506.73	24960.64
506.94	24979.07
507.14	24876.68
507.35	25040.51
507.55	25114.24
507.76	24991.36
507.96	25054.85
508.17	25036.42
508.37	25202.30
508.58	25417.34
508.78	25271.93
508.99	25720.44
509.19	25316.99
509.40	25671.29
509.60	25538.17
509.81	25398.91
510.01	25284.22
510.22	25597.56
510.42	25630.33
510.63	25677.43
510.83	25886.32
511.04	25882.23
511.24	25788.02
511.44	25566.84
511.65	25771.64
511.85	26160.75
512.06	25863.80
512.26	26025.59
512.47	26187.38
512.67	26189.42
512.88	26338.93
513.08	25841.27
513.29	26283.63
513.49	26426.99
513.69	26269.30
513.90	26187.38
514.10	26490.48
514.31	26615.40
514.51	26627.69
514.72	26234.48
514.92	26408.56
515.13	26568.30
515.33	26601.07
515.53	26670.70
515.74	26672.74
515.94	26592.87
516.15	26613.35
516.35	26717.80
516.56	26785.38
516.76	27100.77
516.96	26857.06
517.17	26891.88
517.37	26781.29
517.58	27260.51
517.78	26924.65
517.99	27149.92
518.19	27047.52
518.39	27305.57
518.60	27442.78
518.80	27432.54
519.01	27496.03
519.21	27457.12
519.41	27430.49
519.62	27383.39
519.82	27876.95
520.03	27414.11
520.23	27717.21
520.43	27997.78
520.64	27858.52
520.84	28235.35
521.05	27838.04
521.25	28268.11
521.45	28163.67
521.66	28077.65
521.86	27817.56
522.07	28317.26
522.27	27975.25
522.47	28178.00
522.68	28511.82
522.88	28671.56
523.08	28585.55
523.29	28360.27
523.49	28597.84
523.70	28751.43
523.90	28755.53
524.10	28808.78
524.31	28937.80
524.51	28571.21
524.71	29138.50
524.92	29204.03
525.12	29185.60
525.33	29093.44
525.53	29433.41
525.73	29398.59
525.94	29554.24
526.14	29398.59
526.34	29662.78
526.55	29724.22
526.75	29255.23
526.95	29890.10
527.16	29849.14
527.36	29994.55
527.56	30146.10
527.77	30318.13
527.97	29992.50
528.17	30160.44
528.38	30656.04
528.58	30613.04
528.78	30379.57
528.99	30498.35
529.19	30494.25
529.39	30299.70
529.60	30711.34
529.80	30756.39
530.00	30660.14
530.21	31000.10
530.41	31338.02
530.61	30811.69
530.82	31239.72
531.02	31340.07
531.22	31716.89
531.43	31342.11
531.63	31649.31
531.83	32038.42
532.04	32013.85
532.24	31823.39
532.44	32239.12
532.64	32310.80
532.85	32409.11
533.05	32394.77
533.25	32364.05
533.46	32400.91
533.66	32706.06
533.86	32544.27
534.07	33256.96
534.27	32785.93
534.47	33334.79
534.67	33197.57
534.88	32867.85
535.08	32939.53
535.28	33287.68
535.49	33732.09
535.69	33777.15
535.89	33740.29
536.09	33918.46
536.30	33789.44
536.50	34119.16
536.70	34129.40
536.91	34162.17
537.11	33891.83
537.31	34246.13
537.51	34409.97
537.72	34743.79
537.92	34911.72
538.12	35100.14
538.32	34596.34
538.53	34907.63
538.73	35018.22
538.93	34942.44
539.13	34926.06
539.34	35091.94
539.54	35296.74
539.74	35184.10
539.94	35702.24
540.15	35423.72
540.35	35685.86
540.55	35788.25
540.75	35687.90
540.96	35991.00
541.16	36089.31
541.36	35976.67
541.56	36048.35
541.77	36525.52
541.97	36124.12
542.17	36558.29
542.37	36376.02
542.58	36722.13
542.78	36582.87
542.98	36685.26
543.18	36748.75
543.38	37330.37
543.59	37428.68
543.79	36744.66
543.99	37211.59
544.19	37428.68
544.40	37250.50
544.60	37367.24
544.80	37397.96
545.00	37694.91
545.20	37862.85
545.41	37750.21
545.61	37656.00
545.81	37893.57
546.01	38071.74
546.21	37690.82
546.42	38016.44
546.62	38157.75
546.82	38041.02
547.02	37889.47
547.22	38659.51
547.43	38520.24
547.63	38481.33
547.83	38864.30
548.03	38602.16
548.23	38698.42
548.44	38874.54
548.64	38845.87
548.84	39138.73
549.04	38743.47
549.24	39163.31
549.45	39357.86
549.65	39447.97
549.85	39232.94
550.05	39419.30
550.25	39490.98
550.45	40504.73
550.66	39912.86
550.86	39454.12
551.06	39611.81
551.26	39861.66
551.46	40353.18
551.66	40023.45
551.87	40492.44
552.07	40111.52
552.27	40029.60
552.47	40342.94
552.67	40244.63
552.87	40703.38
553.07	40291.74
553.28	40252.83
553.48	40752.53
553.68	40455.57
553.88	40883.60
554.08	40777.11
554.28	40879.50
554.48	40478.10
554.69	40998.29
554.89	41059.73
555.09	41031.05
555.29	40779.15
555.49	41010.57
555.69	41522.57
555.89	41037.20
556.10	41422.22
556.30	40854.93
556.50	41567.62
556.70	41364.87
556.90	41653.64
557.10	41698.69
557.30	41520.52
557.50	41813.38
557.70	42249.60
557.91	41936.26
558.11	41876.86
558.31	41934.21
558.51	42087.81
558.71	42452.34
558.91	42059.13
559.11	42278.27
559.31	42210.68
559.51	42089.85
559.72	42155.39
559.92	42143.10
560.12	41643.40
560.32	42691.96
560.52	42354.04
560.72	42704.24
560.92	42599.80
561.12	42431.86
561.32	42876.27
561.52	42421.62
561.72	42628.47
561.93	42220.92
562.13	42667.38
562.33	42440.06
562.53	42765.68
562.73	42462.58
562.93	42720.63
563.13	42825.07
563.33	42614.13
563.53	43113.84
563.73	42734.96
563.93	42909.04
564.13	43146.61
564.33	43292.01
564.53	42714.48
564.74	43156.85
564.94	42943.86
565.14	43255.15
565.34	42847.60
565.54	43109.74
565.74	43146.61
565.94	43582.82
566.14	43398.51
566.34	43236.72
566.54	43425.13
566.74	43416.94
566.94	43818.34
567.14	43666.79
567.34	43214.19
567.54	43586.92
567.74	43423.08
567.94	43083.12
568.14	43535.72
568.34	43740.52
568.54	43679.08
568.74	44205.41
568.94	43656.55
569.14	44199.26
569.34	43978.08
569.54	44092.77
569.75	43480.42
569.95	43664.74
570.15	44483.93
570.35	44107.10
570.55	44076.38
570.75	44170.59
570.95	44330.33
571.15	44088.67
571.35	44303.71
571.55	44080.48
571.75	43804.00
571.95	44311.90
572.15	44160.35
572.35	44389.72
572.55	44197.21
572.75	44285.28
572.95	44139.87
573.15	44449.11
573.35	44191.07
573.55	44420.44
573.75	44137.82
573.95	44571.99
574.15	44367.20
574.35	44236.12
574.55	44682.58
574.75	43971.94
574.95	44629.34
575.15	44733.78
575.34	44553.56
575.54	44584.28
575.74	44954.96
575.94	44707.16
576.14	44684.63
576.34	44676.44
576.54	44997.97
576.74	45194.57
576.94	44449.11
577.14	44989.78
577.34	44893.52
577.54	44698.97
577.74	44905.81
577.94	44946.77
578.14	44844.37
578.34	45284.68
578.54	44627.29
578.74	44709.21
578.94	44776.79
579.14	44574.04
579.34	45217.10
579.54	45690.18
579.74	45671.75
579.94	45176.14
580.13	45532.49
580.33	45411.66
580.53	45313.36
580.73	45294.92
580.93	45333.84
581.13	45462.86
581.33	45339.98
581.53	45450.57
581.73	45536.59
581.93	45794.63
582.13	45569.35
582.33	45598.02
582.53	45448.52
582.73	45880.64
582.92	45804.87
583.12	45579.59
583.32	45602.12
583.52	45698.37
583.72	46110.02
583.92	45645.13
584.12	45735.24
584.32	46683.45
584.52	45784.39
584.72	46146.88
584.92	46015.81
585.11	46449.98
585.31	46130.50
585.51	46404.92
585.71	45933.89
585.91	46589.24
586.11	46560.57
586.31	46011.71
586.51	46155.07
586.71	46372.16
586.91	46748.98
587.10	46560.57
587.30	46556.47
587.50	46591.29
587.70	46841.14
587.90	46949.68
588.10	46699.83
588.30	46353.72
588.50	46499.13
588.69	46724.41
588.89	46116.16
589.09	46722.36
589.29	46900.53
589.49	47172.91
589.69	46579.00
589.89	46769.46
590.08	46908.72
590.28	47246.64
590.48	46966.07
590.68	46806.33
590.88	47095.09
591.08	46884.15
591.28	46943.54
591.47	47220.02
591.67	47185.20
591.87	47058.23
592.07	47293.74
592.27	47283.50
592.47	47377.71
592.67	47058.23
592.86	47306.03
593.06	47484.20
593.26	47373.61
593.46	47738.15
593.66	47385.90
593.86	47539.50
594.05	47844.65
594.25	47705.38
594.45	47289.65
594.65	47514.92
594.85	47404.33
595.05	47633.71
595.24	48250.14
595.44	47334.70
595.64	47891.75
595.84	47748.39
596.04	48200.99
596.23	47945.00
596.43	48225.57
596.63	48086.31
596.83	47818.02
597.03	48581.91
597.22	48887.06
597.42	48209.18
597.62	48297.25
597.82	48622.87
598.02	48203.04
598.21	48579.87
598.41	48248.10
598.61	48993.56
598.81	48491.80
599.01	48782.62
599.20	48469.28
599.40	48645.40
599.60	49222.93
599.80	48801.05
600.00	48889.11
600.19	49237.26
600.39	48874.77
600.59	49059.09
600.79	49052.95
600.98	49001.75
601.18	49202.45
601.38	49642.76
601.58	49739.02
601.78	49835.27
601.97	49419.53
602.17	49397.01
602.37	49784.07
602.57	49456.40
602.76	50150.66
602.96	49667.34
603.16	50054.40
603.36	49904.90
603.55	50306.30
603.75	50091.27
603.95	50167.04
604.15	50398.46
604.34	50017.54
604.54	50427.13
604.74	50228.48
604.94	50312.45
605.13	50306.30
605.33	50160.90
605.53	50679.03
605.73	50601.21
605.92	50707.71
606.12	51213.55
606.32	51141.88
606.52	50824.44
606.71	51113.20
606.91	51223.79
607.11	51008.76
607.30	50937.08
607.50	50935.03
607.70	51043.57
607.90	50930.93
608.09	51238.13
608.29	51547.37
608.49	51420.40
608.68	51145.97
608.88	51754.22
609.08	51623.15
609.28	51569.90
609.47	51401.97
609.67	51922.15
609.87	51467.50
610.06	52190.44
610.26	51160.31
610.46	51969.26
610.66	51549.42
610.85	51696.88
611.05	51619.05
611.25	52346.08
611.44	51973.35
611.64	51893.48
611.84	52114.66
612.03	52169.96
612.23	52098.28
612.43	52116.71
612.62	52004.07
612.82	52538.59
613.02	52495.58
613.21	52540.64
613.41	52460.77
613.61	52608.22
613.80	52346.08
614.00	52835.55
614.20	52911.32
614.39	52346.08
614.59	52864.22
614.79	52604.13
614.98	52798.68
615.18	52901.08
615.38	52901.08
615.57	52907.22
615.77	53204.18
615.97	53064.92
616.16	52802.78
616.36	52847.83
616.56	52749.53
616.75	53343.44
616.95	52798.68
617.15	53077.21
617.34	53085.40
617.54	52972.76
617.74	53419.22
617.93	53089.49
618.13	52862.17
618.32	52884.70
618.52	52946.14
618.72	53314.77
618.91	52903.13
619.11	52839.64
619.31	53589.20
619.50	53132.50
619.70	52976.86
619.90	53290.19
620.09	53202.13
620.29	53191.89
620.48	53050.58
620.68	54035.66
620.88	53363.92
621.07	53302.48
621.27	53568.72
621.46	53179.60
621.66	53347.54
621.86	53621.97
622.05	53017.82
622.25	53834.95
622.44	53742.80
622.64	53581.01
622.84	53920.97
623.03	53245.14
623.23	53648.59
623.42	53691.60
623.62	53593.29
623.82	53837.00
624.01	53664.97
624.21	53753.04
624.40	53988.55
624.60	53390.55
624.80	53703.88
624.99	53703.88
625.19	53523.66
625.38	53937.35
625.58	53671.12
625.77	53806.28
625.97	54115.53
626.17	53974.22
626.36	54031.56
626.56	53863.63
626.75	53478.61
626.95	54049.99
627.14	53712.08
627.34	54021.32
627.54	53961.93
627.73	53902.54
627.93	54158.53
628.12	53734.60
628.32	54189.25
628.51	54234.31
628.71	54439.11
628.90	54348.99
629.10	53830.86
629.30	54252.74
629.49	54279.36
629.69	54394.05
629.88	53925.07
630.08	54734.01
630.27	54662.33
630.47	54269.12
630.66	53851.34
630.86	54777.02
631.05	53802.19
631.25	54867.13
631.44	54203.59
631.64	54346.95
631.84	54537.41
632.03	54805.69
632.23	54482.11
632.42	54744.25
632.62	54666.43
632.81	54299.84
633.01	54375.62
633.20	54645.95
633.40	54512.83
633.59	54645.95
633.79	54738.11
633.98	54299.84
634.18	54871.23
634.37	54805.69
634.57	54826.17
634.76	55063.74
634.96	54813.88
635.15	54871.23
635.35	54543.55
635.54	54461.63
635.74	55100.60
635.93	54627.52
636.13	54981.82
636.32	55063.74
636.52	54494.40
636.71	54533.31
636.91	54676.67
637.10	55055.54
637.30	54996.15
637.49	54748.35
637.69	55047.35
637.88	55354.55
638.08	54637.76
638.27	55203.00
638.46	55221.43
638.66	54703.29
638.85	54713.53
639.05	55534.77
639.24	55078.07
639.44	54934.71
639.63	55174.33
639.83	55391.41
640.02	54582.46
640.22	54850.75
640.41	55463.09
640.61	54506.69
640.80	55348.40
640.99	55209.14
641.19	55506.10
641.38	55440.56
641.58	55159.99
641.77	55086.26
641.97	55270.58
642.16	55575.73
642.36	55129.27
642.55	55538.86
642.74	55418.03
642.94	55637.17
643.13	54916.28
643.33	55751.85
643.52	55581.87
643.72	55469.23
643.91	55370.93
644.10	55608.50
644.30	55358.64
644.49	55526.58
644.69	55526.58
644.88	55268.53
645.08	54764.73
645.27	55420.08
645.46	55180.47
645.66	55194.81
645.85	55170.23
646.05	55352.50
646.24	55123.13
646.43	55674.03
646.63	55522.48
646.82	55567.54
647.02	55270.58
647.21	55844.01
647.40	55706.80
647.60	55727.28
647.79	55678.13
647.99	55788.72
648.18	55215.29
648.37	55831.72
648.57	55749.81
648.76	55776.43
648.96	55270.58
649.15	55690.41
649.34	56181.93
649.54	55516.34
649.73	54994.10
649.92	55665.84
650.12	55671.98
650.31	55844.01
650.51	55420.08
650.70	55733.42
650.89	55618.74
651.09	55870.64
651.28	55768.24
651.47	55563.44
651.67	55489.71
651.86	55284.92
652.06	55311.54
652.25	55661.74
652.44	55506.10
652.64	55233.72
652.83	55424.18
653.02	55430.32
653.22	55411.89
653.41	55293.11
653.60	55200.95
653.80	55319.73
653.99	55547.06
654.18	55305.40
654.38	55375.03
654.57	55307.44
654.76	55266.48
654.96	55413.94
655.15	55186.61
655.34	55198.90
655.54	54885.56
655.73	55547.06
655.92	55485.62
656.12	55645.36
656.31	55536.82
656.50	55583.92
656.70	55358.64
656.89	55467.19
657.08	55227.57
657.28	55190.71
657.47	54955.19
657.66	55694.51
657.86	54863.03
658.05	55286.96
658.24	55327.92
658.43	55284.92
658.63	55495.86
658.82	55764.14
659.01	55567.54
659.21	55692.46
659.40	55084.22
659.59	55227.57
659.79	55260.34
659.98	55440.56
660.17	55485.62
660.36	55043.26
660.56	55405.75
660.75	55411.89
660.94	55366.84
661.14	55248.05
661.33	55057.59
661.52	54625.47
661.71	55370.93
661.91	54883.51
662.10	54801.60
662.29	55458.99
662.49	55436.47
662.68	55215.29
662.87	55219.38
663.06	54990.01
663.26	54713.53
663.45	55248.05
663.64	55184.57
663.83	55231.67
664.03	55243.96
664.22	54731.96
664.41	54987.96
664.60	55043.26
664.80	55260.34
664.99	54916.28
665.18	54963.39
665.37	55149.75
665.57	55198.90
665.76	54672.57
665.95	54691.01
666.14	55329.97
666.34	54998.20
666.53	54480.06
666.72	54621.37
666.91	54248.64
667.11	54211.78
667.30	54656.19
667.49	54752.44
667.68	54936.76
667.87	54416.58
668.07	54760.64
668.26	54668.48
668.45	54703.29
668.64	54398.15
668.84	54881.47
669.03	54744.25
669.22	54627.52
669.41	54410.43
669.60	54723.77
669.80	54244.55
669.99	54639.81
670.18	54604.99
670.37	54555.84
670.57	54584.51
670.76	54181.06
670.95	54858.94
671.14	54699.20
671.33	54035.66
671.53	54932.67
671.72	54740.16
671.91	54392.00
672.10	54199.49
672.29	54189.25
672.48	54734.01
672.68	54430.91
672.87	54117.57
673.06	54146.25
673.25	53712.08
673.44	53892.30
673.64	53630.16
673.83	54557.89
674.02	54240.45
674.21	53837.00
674.40	54138.05
674.59	53712.08
674.79	53763.28
674.98	53718.22
675.17	54170.82
675.36	53812.43
675.55	54033.61
675.74	53667.02
675.94	53779.66
676.13	53724.36
676.32	53980.36
676.51	54617.28
676.70	54498.50
676.89	54074.57
677.08	54052.04
677.28	53378.26
677.47	54113.48
677.66	54305.99
677.85	53966.02
678.04	54222.02
678.23	54066.38
678.42	53839.05
678.62	53728.46
678.81	53880.01
679.00	53554.38
679.19	54166.73
679.38	53386.45
679.57	53787.85
679.76	53347.54
679.96	53869.77
680.15	53454.03
680.34	53519.57
680.53	53421.26
680.72	53669.07
680.91	53707.98
681.10	53458.13
681.29	53683.40
681.48	53114.07
681.68	53249.24
681.87	53099.73
682.06	53443.79
682.25	52995.29
682.44	53277.91
682.63	53392.59
682.82	53097.69
683.01	53388.50
683.20	52987.10
683.39	53273.81
683.59	52804.83
683.78	53099.73
683.97	52978.90
684.16	52778.20
684.35	52958.42
684.54	52944.09
684.73	52780.25
684.92	52837.59
685.11	52595.93
685.30	52819.16
685.49	53073.11
685.69	53318.87
685.88	53073.11
686.07	52692.19
686.26	52589.79
686.45	52968.66
686.64	53193.94
686.83	52939.99
687.02	52933.85
687.21	52856.03
687.40	52536.54
687.59	52847.83
687.78	52526.30
687.97	53015.77
688.16	52456.67
688.35	52956.38
688.54	52229.35
688.74	53089.49
688.93	52679.90
689.12	52567.26
689.31	52802.78
689.50	52839.64
689.69	52262.11
689.88	52311.27
690.07	52372.70
690.26	52280.55
690.45	53021.91
690.64	52851.93
690.83	52464.86
691.02	52303.07
691.21	52448.48
691.40	52507.87
691.59	52575.45
691.78	52407.52
691.97	52387.04
692.16	52221.16
692.35	52688.09
692.54	52557.02
692.73	51940.58
692.92	52325.60
693.11	52530.40
693.30	51922.15
693.49	52421.86
693.68	52323.55
693.87	52370.66
694.06	52163.81
694.25	52028.65
694.44	51916.01
694.63	52294.88
694.82	52501.73
695.01	52337.89
695.20	52069.61
695.39	52110.56
695.58	51983.59
695.77	51840.23
695.96	52298.98
696.15	52055.27
696.34	52212.96
696.53	52073.70
696.72	52397.28
696.91	52319.46
697.10	51993.83
697.29	51866.86
697.48	52036.84
697.67	51795.18
697.86	51516.65
698.05	51344.62
698.24	52317.41
698.43	51713.26
698.62	52032.74
698.81	51795.18
699.00	52204.77
699.19	51969.26
699.38	51776.75
699.57	52026.60
699.76	52614.37
699.95	51756.27
700.14	51645.68
700.32	51832.04
700.51	51311.86
700.70	51778.79
700.89	51791.08
701.08	52192.48
701.27	51776.75
701.46	51791.08
701.65	51272.95
701.84	51639.53
702.03	51156.21
702.22	51633.39
702.41	51553.52
702.60	51614.96
702.79	51315.95
702.98	51176.69
703.17	51264.75
703.35	51143.92
703.54	51287.28
703.73	51598.57
703.92	51240.18
704.11	51254.51
704.30	50998.52
704.49	51477.74
704.68	51274.99
704.87	50793.72
705.06	51049.72
705.25	51348.72
705.43	51229.94
705.62	51700.97
705.81	51186.93
706.00	51332.34
706.19	50605.31
706.38	51043.57
706.57	51231.99
706.76	50801.91
706.95	51127.54
707.14	51047.67
707.32	51066.10
707.51	50791.67
707.70	51328.24
707.89	51066.10
708.08	51363.06
708.27	50935.03
708.46	51107.06
708.65	50615.55
708.84	50998.52
709.02	51299.57
709.21	51268.85
709.40	51037.43
709.59	50595.07
709.78	50889.98
709.97	51201.27
710.16	50808.06
710.34	50863.35
710.53	51217.65
710.72	50679.03
710.91	50984.18
711.10	50879.74
711.29	50566.40
711.48	50894.07
711.66	50509.05
711.85	50861.30
712.04	50869.50
712.23	50750.71
712.42	50672.89
712.61	51025.14
712.80	50676.99
712.98	50775.29
713.17	50568.44
713.36	50218.24
713.55	50648.32
713.74	50586.88
713.93	51041.53
714.11	50625.79
714.30	50265.34
714.49	50844.92
714.68	50732.28
714.87	50627.84
715.06	50668.79
715.24	50734.33
715.43	50164.99
715.62	49786.12
715.81	50484.48
716.00	50435.33
716.18	50255.11
716.37	50085.12
716.56	49954.05
716.75	50810.10
716.94	50099.46
717.12	50031.88
717.31	50162.95
717.50	50388.22
717.69	50464.00
717.88	50418.94
718.06	50390.27
718.25	50271.49
718.44	50052.36
718.63	50074.88
718.82	49505.55
719.00	49734.92
719.19	49825.03
719.38	50060.55
719.57	49509.64
719.76	49374.48
719.94	49532.17
720.13	49554.70
720.32	49870.09
720.51	49620.23
720.69	49427.73
720.88	49716.49
721.07	49603.85
721.26	49247.50
721.44	49157.39
721.63	49663.24
721.82	49118.48
722.01	49437.97
722.20	49358.09
722.38	48983.32
722.57	48739.61
722.76	49151.25
722.95	48952.60
723.13	49108.24
723.32	48819.48
723.51	48553.24
723.70	48733.46
723.88	48923.93
724.07	48899.35
724.26	48940.31
724.44	48631.07
724.63	48839.96
724.82	49063.19
725.01	48430.36
725.19	49022.23
725.38	48674.07
725.57	48430.36
725.76	48794.90
725.94	48356.64
726.13	48346.40
726.32	48643.35
726.51	48018.72
726.69	48473.37
726.88	48418.08
727.07	48497.95
727.25	47963.43
727.44	48375.07
727.63	48125.22
727.82	47844.65
728.00	48403.74
728.19	48080.16
728.38	48403.74
728.56	48375.07
728.75	48397.60
728.94	48667.93
729.12	48448.80
729.31	48354.59
729.50	48424.22
729.69	48592.15
729.87	48381.21
730.06	48553.24
730.25	48368.93
730.43	48643.35
730.62	48264.48
730.81	48463.13
730.99	48600.35
731.18	48258.34
731.37	48440.60
731.55	48610.59
731.74	49022.23
731.93	48305.44
732.11	48491.80
732.30	48270.62
732.49	48534.81
732.67	48495.90
732.86	48653.59
733.05	48239.90
733.23	48125.22
733.42	48037.16
733.61	48391.45
733.79	48143.65
733.98	48381.21
734.17	48155.94
734.35	48471.32
734.54	48495.90
734.73	48637.21
734.91	48399.65
735.10	48006.44
735.29	48649.50
735.47	47750.44
735.66	48035.11
735.84	48459.04
736.03	47744.30
736.22	48104.74
736.40	48223.52
736.59	48551.20
736.78	48053.54
736.96	48241.95
737.15	48270.62
737.33	47641.90
737.52	47916.32
737.71	47990.05
737.89	47764.78
738.08	47625.51
738.27	47469.87
738.45	48366.88
738.64	47813.93
738.82	47916.32
739.01	48065.83
739.20	47691.05
739.38	48123.17
739.57	48149.79
739.75	47783.21
739.94	47557.93
740.13	47252.78
740.31	47582.51
740.50	47426.86
740.68	47574.31
740.87	47631.66
741.06	47648.04
741.24	47926.56
741.43	47101.23
741.61	47564.07
741.80	47037.75
741.99	47156.53
742.17	47052.08
742.36	47338.80
742.54	47295.79
742.73	47228.21
742.91	47414.57
743.10	47265.07
743.29	47605.03
743.47	47390.00
743.66	46945.59
743.84	47209.78
744.03	47238.45
744.21	46800.18
744.40	47179.06
744.59	46535.99
744.77	46671.16
744.96	46566.71
745.14	47197.49
745.33	47019.31
745.51	47199.54
745.70	47080.75
745.88	46853.43
746.07	46912.82
746.26	46384.44
746.44	46835.00
746.63	46890.29
746.81	46294.33
747.00	46523.71
747.18	46771.51
747.37	46540.09
747.55	46791.99
747.74	46943.54
747.92	46384.44
748.11	46081.34
748.29	46441.79
748.48	46622.01
748.66	46118.21
748.85	46247.23
749.03	46282.05
749.22	45821.25
749.41	45749.57
749.59	46447.93
749.78	46056.77
749.96	45415.76
750.15	45954.37
750.33	45966.66
750.52	45735.24
750.70	45778.25
750.89	46071.10
751.07	45428.04
751.26	45694.28
751.44	45655.37
751.63	45768.01
751.81	45765.96
752.00	45288.78
752.18	45725.00
752.37	45264.21
752.55	45167.95
752.74	45159.76
752.92	45153.62
753.10	45213.01
753.29	45413.71
753.47	45147.47
753.66	44807.51
753.84	45014.35
754.03	44731.73
754.21	44580.18
754.40	45260.11
754.58	44995.92
754.77	44965.20
754.95	44817.75
755.14	44672.34
755.32	44596.57
755.51	43935.07
755.69	44664.15
755.88	44682.58
756.06	44571.99
756.24	44193.12
756.43	44561.75
756.61	44234.08
756.80	44275.04
756.98	44369.24
757.17	44021.09
757.35	44119.39
757.54	44217.69
757.72	44342.62
757.90	43926.88
758.09	44223.84
758.27	44240.22
758.46	43681.13
758.64	44025.18
758.83	44002.66
759.01	44143.97
759.19	43881.83
759.38	43906.40
759.56	44086.62
759.75	43779.43
759.93	44115.29
760.12	43525.48
760.30	43738.47
760.48	43896.16
760.67	43537.77
760.85	43527.53
761.04	43605.35
761.22	43582.82
761.40	43175.28
761.59	43265.39
761.77	42972.53
761.96	43232.62
762.14	42857.84
762.32	42939.76
762.51	42739.06
762.69	42816.88
762.88	42589.56
763.06	43001.20
763.24	43222.38
763.43	42995.06
763.61	42653.05
763.80	42679.67
763.98	42624.37
764.16	42755.44
764.35	42370.43
764.53	41854.34
764.72	42902.90
764.90	42474.87
765.08	42513.78
765.27	42491.26
765.45	42136.96
765.63	42196.35
765.82	42575.22
766.00	41758.08
766.18	41893.25
766.37	42595.70
766.55	41883.01
766.74	42337.66
766.92	41911.68
767.10	41852.29
767.29	41862.53
767.47	41072.01
767.65	41698.69
767.84	41264.52
768.02	41696.64
768.20	41440.65
768.39	41594.25
768.57	41663.88
768.75	41391.50
768.94	41454.98
769.12	41575.81
769.30	41098.64
769.49	40992.14
769.67	40865.17
769.85	40404.38
770.04	40809.87
770.22	40891.79
770.40	40568.21
770.59	40201.63
770.77	41018.77
770.95	40695.19
771.14	40396.18
771.32	40297.88
771.50	40052.12
771.69	40086.94
771.87	40721.81
772.05	40207.77
772.24	40162.72
772.42	40015.26
772.60	40326.55
772.78	39802.27
772.97	40103.32
773.15	39978.40
773.33	39847.33
773.52	39968.16
773.70	39761.31
773.88	40152.48
774.07	39943.58
774.25	39869.86
774.43	39939.49
774.61	39632.29
774.80	39861.66
774.98	40156.57
775.16	40115.61
775.34	40056.22
775.53	39900.58
775.71	40109.47
775.89	39908.77
776.08	39853.47
776.26	39755.17
776.44	39976.35
776.62	39519.65
776.81	39767.46
776.99	39998.88
777.17	40123.80
777.35	40183.19
777.54	39824.80
777.72	40115.61
777.90	39894.43
778.08	39820.70
778.27	39990.69
778.45	40052.12
778.63	39957.92
778.81	40015.26
779.00	40396.18
779.18	40240.54
779.36	40467.86
779.54	40283.55
779.73	40158.62
779.91	40326.55
780.09	39892.38
780.27	40281.50
780.46	40320.41
780.64	40545.69
780.82	39792.03
781.00	40232.35
781.19	40541.59
781.37	40129.95
781.55	40416.66
781.73	40752.53
781.91	40144.28
782.10	40162.72
782.28	40218.01
782.46	40355.22
782.64	40631.70
782.82	39986.59
783.01	40332.70
783.19	40641.94
783.37	40205.72
783.55	40095.13
783.74	40379.80
783.92	40316.31
784.10	40957.33
784.28	40435.10
784.46	39953.82
784.64	40136.09
784.83	40486.29
785.01	40517.01
785.19	40283.55
785.37	40230.30
785.55	40254.87
785.74	39787.94
785.92	39503.27
786.10	40011.17
786.28	39908.77
786.46	39628.20
786.64	39253.42
786.83	39722.40
787.01	40027.55
787.19	40132.00
787.37	40048.03
787.55	39937.44
787.74	39339.43
787.92	39677.35
788.10	39749.03
788.28	39220.65
788.46	39579.04
788.64	39335.34
788.82	39591.33
789.01	39249.32
789.19	39564.71
789.37	39376.30
789.55	39499.17
789.73	39189.93
789.91	39181.74
790.09	39314.86
790.28	39101.87
790.46	38696.37
790.64	38858.16
790.82	38757.81
791.00	38423.99
791.18	38526.39
791.36	38661.55
791.55	38989.23
791.73	38155.71
791.91	38380.98
792.09	38174.14
792.27	37924.29
792.45	38002.11
792.63	38536.63
792.81	37793.22
793.00	37815.74
793.18	37926.33
793.36	37662.15
793.54	37641.67
793.72	37637.57
793.90	37256.65
794.08	37373.38
794.26	37195.21
794.44	37193.16
794.62	37168.58
794.81	37498.31
794.99	37086.67
795.17	37289.42
795.35	36939.21
795.53	37338.57
795.71	37146.06
795.89	36279.77
796.07	36554.19
796.25	36589.01
796.43	36318.68
796.61	36068.83
796.80	36097.50
796.98	36099.55
797.16	36365.78
797.34	35870.17
797.52	36263.38
797.70	36107.74
797.88	35749.34
798.06	35368.42
798.24	35950.04
798.42	35378.66
798.60	35421.67
798.78	35427.81
798.96	35991.00
799.14	35071.46
799.32	35380.71
799.51	35210.73
799.69	35216.87
799.87	34940.39
800.05	34719.21
800.23	34862.57
800.41	34690.54
800.59	34751.98
800.77	34643.44
800.95	34262.52
801.13	34547.18
801.31	34313.72
801.49	34528.75
801.67	33990.14
801.85	34326.00
802.03	33666.56
802.21	33758.72
802.39	33986.04
802.57	34041.34
802.75	33887.74
802.93	33695.23
803.11	33422.85
803.29	33449.47
803.47	33134.09
803.65	33437.19
803.83	33099.27
804.01	33138.18
804.19	32816.65
804.37	32769.55
804.55	33195.53
804.73	33035.78
804.91	32454.16
805.09	33107.46
805.27	32644.62
805.45	33097.22
805.63	32921.10
805.81	32968.20
805.99	32716.30
806.17	32726.54
806.35	32615.95
806.53	32134.68
806.71	32208.40
806.89	32269.84
807.07	32280.08
807.25	32488.98
807.43	32067.09
807.61	32028.18
807.79	31944.22
807.97	31749.66
808.15	31782.43
808.33	31546.91
808.51	31372.83
808.69	31925.78
808.87	31190.56
809.05	31221.28
809.23	31426.08
809.41	31331.87
809.59	31249.96
809.77	31364.64
809.95	31024.68
810.13	31188.52
810.31	30864.94
810.49	31206.95
810.67	30635.56
810.84	30752.30
811.02	30934.57
811.20	30826.03
811.38	30981.67
811.56	30762.54
811.74	30549.55
811.92	30037.56
812.10	30574.13
812.28	30582.32
812.46	30328.37
812.64	30332.47
812.82	29922.87
813.00	30115.38
813.18	30359.09
813.36	30090.80
813.53	30033.46
813.71	29920.82
813.89	30039.61
814.07	29873.72
814.25	30010.93
814.43	29677.12
814.61	29703.74
814.79	29709.88
814.97	29679.16
815.15	29677.12
815.33	29347.39
815.50	29042.24
815.68	29410.88
815.86	29341.25
816.04	28941.89
816.22	28966.47
816.40	29394.50
816.58	28880.46
816.76	28956.23
816.94	28876.36
817.11	29075.01
817.29	29175.36
817.47	28825.16
817.65	28866.12
817.83	28665.42
818.01	28667.47
818.19	28608.08
818.37	28751.43
818.54	28323.41
818.72	28323.41
818.90	28757.58
819.08	28456.53
819.26	28333.65
819.44	28526.16
819.62	28278.35
819.80	28595.79
819.97	28229.20
820.15	28309.07
820.33	27946.58
820.51	27856.47
820.69	27907.67
820.87	27948.63
821.05	27805.27
821.22	27721.30
821.40	28063.32
821.58	27754.07
821.76	27559.52
821.94	27706.97
822.12	27573.85
822.29	27727.45
822.47	27596.38
822.65	27645.53
822.83	27582.04
823.01	27598.43
823.19	27545.18
823.36	27375.20
823.54	26953.32
823.72	27004.52
823.90	27309.66
824.08	27117.15
824.25	27295.33
824.43	26971.75
824.61	27182.69
824.79	27637.34
824.97	27055.72
825.15	26981.99
825.32	27166.31
825.50	26793.58
825.68	26715.75
825.86	27352.67
826.04	27121.25
826.21	26713.70
826.39	26660.46
826.57	26703.46
826.75	26867.30
826.93	26500.72
827.10	26797.67
827.28	26560.11
827.46	26750.57
827.64	26412.65
827.81	26257.01
827.99	26906.21
828.17	26375.79
828.35	26351.21
828.53	26347.12
828.70	26400.37
828.88	26488.43
829.06	26259.06
829.24	26461.80
829.41	26207.86
829.59	26404.46
829.77	26136.18
829.95	26230.38
830.12	25808.50
830.30	26164.85
830.48	26179.18
830.66	26099.31
830.84	26265.20
831.01	25822.84
831.19	26170.99
831.37	26203.76
831.55	25695.86
831.72	25839.22
831.90	25964.15
832.08	25943.67
832.25	26173.04
832.43	25521.79
832.61	25728.63
832.79	25753.21
832.96	25554.55
833.14	25519.74
833.32	25962.10
833.50	25923.19
833.67	25513.59
833.85	25632.38
834.03	25337.47
834.20	25353.85
834.38	25562.75
834.56	25575.03
834.74	25419.39
834.91	25331.33
835.09	25267.84
835.27	24938.12
835.44	25183.87
835.62	25069.19
835.80	25015.94
835.98	25157.25
836.15	25202.30
836.33	25185.92
836.51	25196.16
836.68	24878.72
836.86	24856.20
837.04	25122.43
837.21	25106.05
837.39	25005.70
837.57	24952.45
837.75	25126.53
837.92	24792.71
838.10	24583.82
838.28	24592.01
838.45	24635.02
838.63	24813.19
838.81	24405.64
838.98	24469.13
839.16	24669.83
839.34	24448.65
839.51	24616.58
839.69	24278.67
839.87	24295.05
840.04	24524.43
840.22	24489.61
840.40	24448.65
840.57	23953.04
840.75	24247.95
840.93	23930.51
841.10	24477.32
841.28	24600.20
841.46	24071.82
841.63	24424.08
841.81	24411.79
841.98	24172.18
842.16	24383.12
842.34	24235.66
842.51	24053.39
842.69	24448.65
842.87	23965.33
843.04	24280.72
843.22	24123.02
843.40	23711.38
843.57	23666.33
843.75	23942.80
843.92	24077.97
844.10	23801.49
844.28	24012.43
844.45	23930.51
844.63	24096.40
844.81	23615.13
844.98	24080.02
845.16	23797.40
845.33	23934.61
845.51	23641.75
845.69	23676.57
845.86	23408.28
846.04	23639.70
846.21	23555.74
846.39	23586.46
846.57	23383.71
846.74	23756.44
846.92	23662.23
847.09	23326.36
847.27	23359.13
847.45	23352.99
847.62	23649.94
847.80	23707.29
847.97	23299.74
848.15	22951.59
848.32	23004.83
848.50	23285.40
848.68	23080.61
848.85	23131.81
849.03	22912.67
849.20	22859.43
849.38	23084.70
849.56	23064.22
849.73	22881.95
849.91	22873.76
850.08	23258.78
850.26	22789.80
850.43	22947.49
850.61	22894.24
850.78	22625.96
850.96	22800.04
851.14	22668.97
851.31	22771.36
851.49	22847.14
851.66	22906.53
851.84	22722.21
852.01	22716.07
852.19	22857.38
852.36	22628.01
852.54	22697.64
852.71	22374.06
852.89	22650.53
853.07	22759.08
853.24	22558.38
853.42	22875.81
853.59	22859.43
853.77	22568.62
853.94	22711.97
854.12	22789.80
854.29	22572.71
854.47	22228.65
854.64	22347.44
854.82	22292.14
854.99	22523.56
855.17	22113.97
855.34	22316.72
855.52	22568.62
855.69	22523.56
855.87	22169.26
856.04	22245.04
856.22	22464.17
856.39	21907.12
856.57	22472.36
856.74	22011.57
856.92	22005.42
857.09	21943.99
857.27	21833.39
857.44	22306.48
857.62	22269.61
857.79	21868.21
857.97	21847.73
858.14	21974.70
858.32	21800.63
858.49	21974.70
858.67	21864.11
858.84	21720.76
859.02	22034.10
859.19	21812.92
859.37	21671.61
859.54	21714.61
859.72	21817.01
859.89	21624.50
860.06	21806.77
860.24	21597.88
860.41	21659.32
860.59	21087.93
860.76	21792.44
860.94	21214.91
861.11	21823.16
861.29	21700.28
861.46	21311.16
861.64	21102.27
861.81	21391.03
861.98	21266.11
862.16	20774.60
862.33	20825.79
862.51	21227.20
862.68	21141.18
862.86	21249.72
863.03	21046.97
863.21	21067.45
863.38	20973.25
863.55	20856.51
863.73	20895.43
863.90	20971.20
864.08	21073.60
864.25	20848.32
864.43	20995.78
864.60	20876.99
864.77	20911.81
864.95	20963.01
865.12	20612.81
865.30	20948.67
865.47	20614.85
865.64	20707.01
865.82	20911.81
865.99	21036.74
866.17	20541.13
866.34	20846.27
866.51	20524.74
866.69	20463.30
866.86	20696.77
867.04	20723.40
867.21	20688.58
867.38	20438.73
867.56	20684.48
867.73	20444.87
867.91	19982.03
868.08	20145.87
868.25	20027.09
868.43	20010.70
868.60	20219.60
868.78	19936.98
868.95	20362.95
869.12	20102.86
869.30	20182.73
869.47	20031.18
869.64	19660.50
869.82	20147.92
869.99	19869.39
870.16	20000.46
870.34	19766.99
870.51	20025.04
870.69	19816.15
870.86	19631.83
871.03	20016.85
871.21	19826.39
871.38	20006.61
871.55	19783.38
871.73	19617.49
871.90	19504.85
872.07	19498.71
872.25	19287.77
872.42	19508.95
872.59	19513.05
872.77	19465.94
872.94	19246.81
873.11	19494.61
873.29	19511.00
873.46	19277.53
873.63	19179.23
873.81	19252.95
873.98	19064.54
874.15	19044.06
874.33	19377.88
874.50	18927.33
874.67	19011.29
874.85	19115.74
875.02	18915.04
875.19	18958.05
875.37	19001.05
875.54	18824.93
875.71	18779.87
875.88	18720.48
876.06	18577.12
876.23	18783.97
876.40	18685.67
876.58	18523.88
876.75	18433.77
876.92	18478.82
877.10	18452.20
877.27	18357.99
877.44	18353.90
877.61	18376.42
877.79	18472.68
877.96	18337.51
878.13	18419.43
878.31	18063.08
878.48	18247.40
878.65	18126.57
878.82	17968.88
879.00	18366.18
879.17	18116.33
879.34	18079.47
879.51	17919.73
879.69	18038.51
879.86	17889.01
880.03	17733.36
880.21	17725.17
880.38	17991.41
880.55	17794.80
880.72	17764.08
880.90	17860.34
881.07	17846.00
881.24	17913.58
881.41	17934.06
881.59	17553.14
881.76	17766.13
881.93	17463.03
882.10	17372.92
882.28	17497.84
882.45	17338.10
882.62	17403.64
882.79	17696.50
882.96	17327.86
883.14	17583.86
883.31	17383.16
883.48	17370.87
883.65	17422.07
883.83	17483.51
884.00	17356.54
884.17	17170.17
884.34	17198.84
884.51	17202.94
884.69	17067.77
884.86	17010.43
885.03	17012.48
885.20	17069.82
885.38	17301.24
885.55	17164.03
885.72	17231.61
885.89	17037.05
886.06	17139.45
886.24	16908.03
886.41	17014.52
886.58	17102.59
886.75	17204.99
886.92	16977.66
887.10	16883.45
887.27	16803.58
887.44	16877.31
887.61	17170.17
887.78	16813.82
887.95	16613.12
888.13	16631.55
888.30	16672.51
888.47	16582.40
888.64	16393.99
888.81	16701.19
888.99	16680.71
889.16	16502.53
889.33	16535.30
889.50	16549.64
889.67	16326.41
889.84	16453.38
890.01	16477.96
890.19	16461.57
890.36	16316.17
890.53	16377.61
890.70	16350.98
890.87	16322.31
891.04	16480.00
891.22	16340.74
891.39	16041.74
891.56	16123.66
891.73	15988.49
891.90	16092.94
892.07	15916.81
892.24	16281.35
892.42	16025.36
892.59	16082.70
892.76	16031.50
892.93	15898.38
893.10	16031.50
893.27	15802.13
893.44	15535.89
893.61	15693.58
893.79	15984.40
893.96	15556.37
894.13	15888.14
894.30	15656.72
894.47	15959.82
894.64	15746.83
894.81	15742.74
894.98	15791.89
895.15	15943.44
895.33	15802.13
895.50	15712.02
895.67	15648.53
895.84	15632.15
896.01	15603.47
896.18	15505.17
896.35	15822.61
896.52	15712.02
896.69	15703.82
896.86	15757.07
897.04	15664.91
897.21	15761.17
897.38	15529.75
897.55	15374.10
897.72	15859.47
897.89	15542.03
898.06	15533.84
898.23	15431.44
898.40	15327.00
898.57	15611.67
898.74	15404.82
898.91	15533.84
899.08	15564.56
899.26	15623.95
899.43	15775.50
899.60	15386.39
899.77	15443.73
899.94	15566.61
900.11	15468.31
900.28	15341.33
900.45	15179.54
900.62	15437.59
900.79	15580.95
900.96	15458.07
901.13	15224.60
901.30	15394.58
901.47	15353.62
901.64	15482.64
901.81	15419.16
901.98	15615.76
902.15	15664.91
902.32	14978.84
902.49	15554.32
902.66	15353.62
902.83	15310.61
903.01	15296.28
903.18	15429.40
903.35	15480.60
903.52	15406.87
903.69	15388.44
903.86	15542.03
904.03	15544.08
904.20	15654.67
904.37	15632.15
904.54	15474.45
904.71	15478.55
904.88	15374.10
905.05	15081.24
905.22	15445.78
905.39	15292.18
905.56	15210.26
905.73	15206.17
905.90	15275.80
906.07	15173.40
906.24	15392.53
906.41	15308.57
906.58	15413.01
906.75	15214.36
906.92	15267.61
907.09	15040.28
907.26	15486.74
907.43	15060.76
907.60	15050.52
907.77	15175.45
907.93	15351.57
908.10	15310.61
908.27	15343.38
908.44	14815.01
908.61	14968.60
908.78	15261.46
908.95	15001.37
909.12	15036.19
909.29	15163.16
909.46	15216.41
909.63	15238.94
909.80	15249.18
909.97	15089.43
910.14	15179.54
910.31	15021.85
910.48	15111.96
910.65	14950.17
910.82	15179.54
910.99	14837.53
911.16	15062.81
911.33	15103.77
911.50	14829.34
911.66	14950.17
911.83	14917.40
912.00	14815.01
912.17	14628.64
912.34	14743.33
912.51	14821.15
912.68	14765.85
912.85	14853.92
913.02	14790.43
913.19	14493.47
913.36	14747.42
913.53	14651.17
913.70	14401.32
913.86	14642.98
914.03	14626.59
914.20	14642.98
914.37	14583.59
914.54	14499.62
914.71	14419.75
914.88	14618.40
915.05	14241.57
915.22	14493.47
915.39	14395.17
915.55	14470.95
915.72	14350.12
915.89	14141.22
916.06	14237.48
916.23	13928.24
916.40	14092.07
916.57	14059.31
916.74	13930.28
916.91	13686.58
917.07	13803.31
917.24	14077.74
917.41	13778.73
917.58	13823.79
917.75	13754.16
917.92	13649.71
918.09	13635.38
918.26	13588.27
918.42	13635.38
918.59	13489.97
918.76	13283.13
918.93	13360.95
919.10	13434.68
919.27	13264.69
919.44	13463.35
919.60	13674.29
919.77	13203.25
919.94	13205.30
920.11	13399.86
920.28	13236.02
920.45	12943.16
920.61	13016.89
920.78	13059.90
920.95	13287.22
921.12	12775.23
921.29	13025.08
921.46	12865.34
921.62	12580.67
921.79	12863.29
921.96	12664.64
922.13	12662.59
922.30	12683.07
922.47	12519.23
922.63	12494.66
922.80	12580.67
922.97	12384.07
923.14	12529.47
923.31	12300.10
923.47	12218.18
923.64	12576.58
923.81	12058.44
923.98	12080.97
924.15	12250.95
924.32	12259.14
924.48	12287.81
924.65	12062.54
924.82	12035.91
924.99	11962.19
925.15	11767.63
925.32	11769.68
925.49	11845.45
925.66	11732.81
925.83	11708.24
925.99	11642.70
926.16	11427.67
926.33	11423.57
926.50	11458.39
926.67	11388.75
926.83	11507.54
927.00	11272.02
927.17	11370.32
927.34	11183.96
927.50	11136.85
927.67	11466.58
927.84	11239.25
928.01	11308.88
928.17	11040.60
928.34	11030.36
928.51	10899.29
928.68	10829.66
928.84	10792.80
929.01	10764.12
929.18	10645.34
929.35	10641.25
929.51	10749.79
929.68	10491.74
929.85	10628.96
930.02	10497.89
930.18	10522.46
930.35	10569.57
930.52	10321.76
930.69	10344.29
930.85	10340.19
931.02	10229.60
931.19	10440.54
931.36	10110.82
931.52	10004.33
931.69	10241.89
931.86	9889.64
932.02	10006.38
932.19	9820.01
932.36	10018.66
932.53	9992.04
932.69	9744.24
932.86	9994.09
933.03	9865.07
933.19	9529.20
933.36	9656.17
933.53	9766.76
933.70	9437.04
933.86	9637.74
934.03	9443.18
934.20	9301.87
934.36	9486.19
934.53	9119.60
934.70	9142.13
934.86	9230.20
935.03	9105.27
935.20	9039.73
935.36	9037.69
935.53	8767.35
935.70	8802.17
935.86	8859.51
936.03	8634.24
936.20	8580.99
936.36	8650.62
936.53	8365.95
936.70	8294.27
936.86	8515.45
937.03	8357.76
937.20	8159.11
937.36	7993.22
937.53	8064.90
937.70	7978.89
937.86	7706.51
938.03	7716.75
938.20	7999.37
938.36	7499.66
938.53	7579.53
938.70	7415.69
938.86	7321.49
939.03	7358.35
939.20	7260.05
939.36	7210.90
939.53	6903.70
939.70	7329.68
939.86	6887.32
940.03	6727.58
940.19	6815.64
940.36	6721.43
940.53	6672.28
940.69	6582.17
940.86	6514.59
941.03	6401.95
941.19	6229.92
941.36	6270.88
941.52	6352.80
941.69	6223.78
941.86	6172.58
942.02	6023.08
942.19	5975.97
942.35	6094.76
942.52	6027.17
942.69	6012.84
942.85	5863.33
943.02	5779.37
943.18	5687.21
943.35	5742.50
943.52	5765.03
943.68	5541.80
943.85	5625.77
944.01	5607.34
944.18	5408.69
944.35	5642.15
944.51	5377.97
944.68	5275.57
944.84	5326.77
945.01	5404.59
945.17	5355.44
945.34	5394.35
945.51	5363.63
945.67	5425.07
945.84	5255.09
946.00	5257.14
946.17	5134.26
946.33	5214.13
946.50	5294.00
946.67	5181.36
946.83	5240.75
947.00	5431.21
947.16	5197.74
947.33	5318.57
947.49	5085.11
947.66	5195.70
947.82	5193.65
947.99	5074.87
948.16	5248.94
948.32	5101.49
948.49	5294.00
948.65	5138.35
948.82	5154.74
948.98	5152.69
949.15	5074.87
949.31	5283.76
949.48	5087.15
949.64	5119.92
949.81	5255.09
949.97	5150.64
950.14	5255.09
950.30	5074.87
950.47	5232.56
950.63	5171.12
950.80	5164.98
950.96	5263.28
951.13	5124.02
951.30	5246.90
951.46	5210.03
951.63	5257.14
951.79	5375.92
951.96	5263.28
952.12	5287.86
952.29	5242.80
952.45	5296.05
952.62	5205.94
952.78	5312.43
952.94	5294.00
953.11	5365.68
953.27	5162.93
953.44	5359.53
953.60	5287.86
953.77	5359.53
953.93	5343.15
954.10	5220.27
954.26	5304.24
954.43	5183.41
954.59	5224.37
954.76	5300.14
954.92	5169.07
955.09	5261.23
955.25	5277.62
955.42	5132.21
955.58	5500.84
955.75	5310.38
955.91	5296.05
956.07	5353.39
956.24	5394.35
956.40	5435.31
956.57	5363.63
956.73	5236.66
956.90	5351.34
957.06	5412.78
957.23	5214.13
957.39	5357.49
957.56	5367.73
957.72	5167.03
957.88	5353.39
958.05	5416.88
958.21	5373.87
958.38	5263.28
958.54	5263.28
958.71	5359.53
958.87	5328.81
959.03	5337.01
959.20	5257.14
959.36	5283.76
959.53	5216.18
959.69	5277.62
959.85	5369.77
960.02	5173.17
960.18	5179.31
960.35	5269.42
960.51	5339.05
960.68	5255.09
960.84	5146.55
961.00	5304.24
961.17	5285.81
961.33	5285.81
961.50	5201.84
961.66	5459.88
961.82	5132.21
961.99	5271.47
962.15	5300.14
962.31	5244.85
962.48	5345.20
962.64	5320.62
962.81	5300.14
962.97	5277.62
963.13	5181.36
963.30	5287.86
963.46	5220.27
963.62	5212.08
963.79	5250.99
963.95	5246.90
964.12	5203.89
964.28	5117.87
964.44	5136.31
964.61	5279.66
964.77	5189.55
964.93	5244.85
965.10	5244.85
965.26	5121.97
965.42	5197.74
965.59	5105.59
965.75	5083.06
965.92	5306.29
966.08	5138.35
966.24	5072.82
966.41	5087.15
966.57	5201.84
966.73	5158.83
966.90	5205.94
967.06	5124.02
967.22	5113.78
967.39	5179.31
967.55	5097.39
967.71	5146.55
967.88	5091.25
968.04	4968.37
968.20	5085.11
968.37	5009.33
968.53	4966.32
968.69	5060.53
968.85	5040.05
969.02	4929.46
969.18	5015.48
969.34	5042.10
969.51	4892.60
969.67	4984.76
969.83	4947.89
970.00	4968.37
970.16	4974.52
970.32	4876.21
970.48	4966.32
970.65	4802.49
970.81	4814.77
970.97	4798.39
971.14	4835.25
971.30	4876.21
971.46	4911.03
971.63	4884.41
971.79	4933.56
971.95	4870.07
972.11	4843.45
972.28	4804.53
972.44	4784.06
972.60	4698.04
972.76	4775.86
972.93	4782.01
973.09	4818.87
973.25	4816.82
973.42	4700.09
973.58	4882.36
973.74	4622.27
973.90	4739.00
974.07	4632.51
974.23	4779.96
974.39	4571.07
974.55	4689.85
974.72	4554.68
974.88	4562.87
975.04	4665.27
975.20	4685.75
975.37	4786.10
975.53	4640.70
975.69	4571.07
975.85	4616.12
976.01	4657.08
976.18	4575.16
976.34	4638.65
976.50	4679.61
976.66	4667.32
976.83	4655.03
976.99	4452.28
977.15	4509.63
977.31	4452.28
977.47	4431.80
977.64	4513.72
977.80	4583.35
977.96	4407.23
978.12	4392.89
978.29	4589.50
978.45	4515.77
978.61	4425.66
978.77	4450.24
978.93	4351.93
979.10	4446.14
979.26	4374.46
979.42	4440.00
979.58	4210.62
979.74	4351.93
979.91	4333.50
980.07	4331.45
980.23	4429.76
980.39	4288.45
980.55	4313.02
980.71	4300.73
980.88	4362.17
981.04	4376.51
981.20	4184.00
981.36	4292.54
981.52	4296.64
981.68	4292.54
981.85	4419.52
982.01	4267.97
982.17	4190.14
982.33	4177.86
982.49	4229.06
982.65	4251.58
982.82	4140.99
982.98	4227.01
983.14	4169.66
983.30	4155.33
983.46	4220.86
983.62	4214.72
983.79	4126.66
983.95	4149.18
984.11	4020.16
984.27	4153.28
984.43	4116.42
984.59	4171.71
984.75	4054.98
984.91	3954.63
985.08	4134.85
985.24	4014.02
985.40	4011.97
985.56	4036.55
985.72	4153.28
985.88	4005.83
986.04	4042.69
986.20	3930.05
986.37	3995.59
986.53	3928.00
986.69	3903.43
986.85	3950.53
987.01	3841.99
987.17	3950.53
987.33	3901.38
987.49	3846.09
987.65	3903.43
987.82	3864.52
987.98	3868.61
988.14	3846.09
988.30	3803.08
988.46	3715.02
988.62	3837.89
988.78	3831.75
988.94	3770.31
989.10	3698.63
989.26	3706.82
989.42	3803.08
989.59	3676.10
989.75	3575.75
989.91	3751.88
990.07	3581.90
990.23	3712.97
990.39	3674.06
990.55	3739.59
990.71	3688.39
990.87	3674.06
991.03	3717.06
991.19	3594.19
991.35	3626.95
991.51	3741.64
991.67	3624.90
991.83	3657.67
992.00	3542.99
992.16	3739.59
992.32	3639.24
992.48	3641.29
992.64	3467.21
992.80	3602.38
992.96	3567.56
993.12	3508.17
993.28	3573.71
993.44	3530.70
993.60	3579.85
993.76	3440.59
993.92	3585.99
994.08	3432.40
994.24	3401.68
994.40	3602.38
994.56	3635.14
994.72	3403.72
994.88	3493.83
995.04	3383.24
995.20	3512.27
995.36	3442.64
995.52	3481.55
995.68	3495.88
995.84	3393.48
996.00	3547.08
996.16	3352.52
996.32	3340.24
996.48	3323.85
996.64	3504.07
996.80	3250.13
996.96	3364.81
997.12	3336.14
997.28	3301.33
997.44	3344.33
997.60	3430.35
997.76	3256.27
997.92	3317.71
998.08	3344.33
998.24	3295.18
998.40	3280.85
998.56	3366.86
998.72	3194.83
998.88	3258.32
999.04	3178.45
999.20	3258.32
999.36	3227.60
999.52	3272.65
999.68	3170.26
999.84	3262.41
1000.00	3178.45
1000.16	3297.23
1000.32	3108.82
1000.48	3305.42
1000.64	3106.77
1000.80	3055.57
1000.95	3225.55
1001.11	3192.78
1001.27	3100.62
1001.43	3198.93
1001.59	3092.43
1001.75	3078.10
1001.91	3162.06
1002.07	3016.66
1002.23	3108.82
1002.39	3110.86
1002.55	3153.87
1002.71	2959.31
1002.87	3028.95
1003.03	2981.84
1003.19	3004.37
1003.34	3108.82
1003.50	3018.71
1003.66	3030.99
1003.82	3153.87
1003.98	2934.74
1004.14	3016.66
1004.30	2904.02
1004.46	3045.33
1004.62	2955.22
1004.78	3012.56
1004.94	2944.98
1005.09	3047.38
1005.25	2938.84
1005.41	2949.08
1005.57	2904.02
1005.73	2881.49
1005.89	2830.29
1006.05	2916.31
1006.21	2994.13
1006.37	2934.74
1006.52	2891.73
1006.68	2832.34
1006.84	2932.69
1007.00	2813.91
1007.16	2889.68
1007.32	2783.19
1007.48	2797.53
1007.64	2818.00
1007.79	2861.01
1007.95	2942.93
1008.11	2918.36
1008.27	2793.43
1008.43	2799.57
1008.59	2738.13
1008.75	2795.48
1008.91	2887.64
1009.06	2719.70
1009.22	2789.33
1009.38	2777.05
1009.54	2691.03
1009.70	2740.18
1009.86	2711.51
1010.01	2744.28
1010.17	2729.94
1010.33	2750.42
1010.49	2752.47
1010.65	2770.90
1010.81	2684.89
1010.96	2658.26
1011.12	2613.21
1011.28	2625.50
1011.44	2811.86
1011.60	2613.21
1011.76	2693.08
1011.91	2766.81
1012.07	2602.97
1012.23	2582.49
1012.39	2590.68
1012.55	2734.04
1012.71	2533.34
1012.86	2703.32
1013.02	2650.07
1013.18	2498.52
1013.34	2559.96
1013.50	2551.77
1013.65	2639.83
1013.81	2521.05
1013.97	2602.97
1014.13	2562.01
1014.29	2609.11
1014.44	2678.74
1014.60	2488.28
1014.76	2510.81
1014.92	2498.52
1015.07	2619.35
1015.23	2566.10
1015.39	2486.23
1015.55	2484.19
1015.71	2496.47
1015.86	2521.05
1016.02	2461.66
1016.18	2392.03
1016.34	2461.66
1016.49	2527.19
1016.65	2584.54
1016.81	2437.08
1016.97	2471.90
1017.12	2475.99
1017.28	2432.99
1017.44	2346.97
1017.60	2346.97
1017.75	2430.94
1017.91	2414.56
1018.07	2381.79
1018.23	2459.61
1018.38	2398.17
1018.54	2426.84
1018.70	2344.92
1018.86	2287.58
1019.01	2377.69
1019.17	2322.40
1019.33	2455.51
1019.49	2371.55
1019.64	2439.13
1019.80	2320.35
1019.96	2365.40
1020.12	2353.12
1020.27	2252.77
1020.43	2412.51
1020.59	2422.75
1020.74	2389.98
1020.90	2357.21
1021.06	2238.43
1021.22	2297.82
1021.37	2377.69
1021.53	2260.96
1021.69	2306.01
1021.84	2228.19
1022.00	2349.02
1022.16	2293.72
1022.31	2306.01
1022.47	2281.44
1022.63	2314.20
1022.79	2168.80
1022.94	2277.34
1023.10	2387.93
1023.26	2220.00
1023.41	2211.81
1023.57	2158.56
1023.73	2230.24
1023.88	2238.43
1024.04	2228.19
1024.20	2240.48
1024.35	2254.81
1024.51	2312.16
1024.67	2179.04
1024.82	2185.18
1024.98	2084.83
1025.14	2195.42
1025.29	2242.53
1025.45	2330.59
1025.61	2099.17
1025.76	2179.04
1025.92	2205.66
1026.08	2203.61
1026.23	2209.76
1026.39	2222.05
1026.55	2123.74
1026.70	2131.94
1026.86	2195.42
1027.02	2226.14
1027.17	2193.37
1027.33	2125.79
1027.48	2148.32
1027.64	2070.50
1027.80	2172.89
1027.95	2136.03
1028.11	2066.40
1028.27	2052.06
1028.42	2088.93
1028.58	2099.17
1028.73	2023.39
1028.89	2058.21
1029.05	2238.43
1029.20	2187.23
>>>>>End Processed Spectral Data<<<<<
