SpectraSuite Data File
++++++++++++++++++++++++++++++++++++
Date: Fri Jun 02 14:51:11 CEST 2017
User: INFO_000
Dark Spectrum Present: No
Reference Spectrum Present: No
Number of Sampled Component Spectra: 1
Spectrometers: USB4H00879
Integration Time (usec): 80000 (USB4H00879)
Spectra Averaged: 1 (USB4H00879)
Boxcar Smoothing: 0 (USB4H00879)
Correct for Electrical Dark: No (USB4H00879)
Strobe/Lamp Enabled: No (USB4H00879)
Correct for Detector Non-linearity: No (USB4H00879)
Correct for Stray Light: No (USB4H00879)
Number of Pixels in Processed Spectrum: 3648
>>>>>Begin Processed Spectral Data<<<<<
345.13	1341.42
345.34	1341.42
345.56	1341.42
345.78	1310.70
345.99	1241.07
346.21	1761.25
346.42	1638.38
346.64	1595.37
346.86	1798.12
347.07	1687.53
347.29	1667.05
347.50	1677.29
347.72	1693.67
347.94	1740.77
348.15	1634.28
348.37	1595.37
348.59	1724.39
348.80	1798.12
349.02	1806.31
349.23	1837.03
349.45	1834.98
349.67	1877.99
349.88	1761.25
350.10	1931.23
350.31	1781.73
350.53	1851.36
350.75	1955.81
350.96	1720.29
351.18	1867.75
351.39	1910.75
351.61	1806.31
351.82	1890.28
352.04	1949.67
352.26	1877.99
352.47	1884.13
352.69	1951.71
352.90	1765.35
353.12	1886.18
353.34	1873.89
353.55	1918.95
353.77	1882.08
353.98	1798.12
354.20	1914.85
354.41	1937.38
354.63	1865.70
354.85	2029.54
355.06	1900.52
355.28	1724.39
355.49	1920.99
355.71	1841.12
355.92	1890.28
356.14	1961.95
356.35	1802.21
356.57	1851.36
356.79	1961.95
357.00	1898.47
357.22	1992.67
357.43	1849.32
357.65	1976.29
357.86	1916.90
358.08	1927.14
358.29	1902.56
358.51	1978.34
358.72	1970.15
358.94	1902.56
359.16	1931.23
359.37	1925.09
359.59	2025.44
359.80	1920.99
360.02	1982.43
360.23	1974.24
360.45	1964.00
360.66	2019.30
360.88	1925.09
361.09	1947.62
361.31	2011.11
361.52	1953.76
361.74	2009.06
361.95	2037.73
362.17	1880.04
362.38	2068.45
362.60	2025.44
362.81	1988.58
363.03	1904.61
363.24	2037.73
363.46	2045.92
363.67	2054.11
363.89	2007.01
364.10	1939.43
364.32	1982.43
364.53	2060.26
364.75	1843.17
364.96	2107.36
365.18	2041.82
365.39	1951.71
365.61	1984.48
365.82	2076.64
366.04	2035.68
366.25	2084.83
366.47	2021.35
366.68	2037.73
366.90	1945.57
367.11	2068.45
367.33	2123.74
367.54	2033.63
367.76	1929.19
367.97	2023.39
368.19	2074.59
368.40	2015.20
368.62	1961.95
368.83	1931.23
369.05	2019.30
369.26	2023.39
369.48	1953.76
369.69	1970.15
369.91	2097.12
370.12	2004.96
370.33	2056.16
370.55	1986.53
370.76	2072.54
370.98	2101.22
371.19	2103.26
371.41	2031.58
371.62	2109.41
371.84	2019.30
372.05	2152.42
372.27	2066.40
372.48	2066.40
372.69	2039.78
372.91	2146.27
373.12	2166.75
373.34	2047.97
373.55	2095.07
373.77	2166.75
373.98	2021.35
374.20	2154.46
374.41	2166.75
374.62	2211.81
374.84	2119.65
375.05	2195.42
375.27	2185.18
375.48	2203.61
375.70	2125.79
375.91	2228.19
376.12	2281.44
376.34	2191.33
376.55	2207.71
376.77	2271.20
376.98	2129.89
377.19	2158.56
377.41	2201.57
377.62	2197.47
377.84	2240.48
378.05	2303.96
378.27	2193.37
378.48	2254.81
378.69	2435.03
378.91	2344.92
379.12	2195.42
379.34	2174.94
379.55	2246.62
379.76	2303.96
379.98	2234.33
380.19	2236.38
380.41	2222.05
380.62	2289.63
380.83	2213.85
381.05	2203.61
381.26	2412.51
381.47	2240.48
381.69	2252.77
381.90	2445.27
382.12	2306.01
382.33	2260.96
382.54	2271.20
382.76	2289.63
382.97	2367.45
383.19	2215.90
383.40	2330.59
383.61	2193.37
383.83	2318.30
384.04	2236.38
384.25	2303.96
384.47	2445.27
384.68	2437.08
384.89	2263.01
385.11	2267.10
385.32	2320.35
385.54	2404.32
385.75	2318.30
385.96	2408.41
386.18	2463.71
386.39	2355.16
386.60	2367.45
386.82	2392.03
387.03	2404.32
387.24	2541.53
387.46	2471.90
387.67	2467.80
387.88	2445.27
388.10	2447.32
388.31	2363.36
388.52	2531.29
388.74	2416.60
388.95	2478.04
389.16	2508.76
389.38	2467.80
389.59	2600.92
389.80	2527.19
390.02	2662.36
390.23	2676.70
390.44	2555.86
390.66	2584.54
390.87	2559.96
391.08	2584.54
391.30	2727.89
391.51	2535.39
391.72	2633.69
391.94	2590.68
392.15	2717.65
392.36	2613.21
392.58	2568.15
392.79	2605.02
393.00	2676.70
393.22	2703.32
393.43	2791.38
393.64	2768.85
393.85	2729.94
394.07	2609.11
394.28	2678.74
394.49	2754.52
394.71	2787.29
394.92	2777.05
395.13	2729.94
395.35	2633.69
395.56	2668.50
395.77	2787.29
395.98	2826.20
396.20	2793.43
396.41	2848.72
396.62	2969.55
396.84	2729.94
397.05	2818.00
397.26	2828.24
397.47	2908.12
397.69	2813.91
397.90	3016.66
398.11	2877.40
398.32	2885.59
398.54	2920.40
398.75	2797.53
398.96	2961.36
399.18	2967.51
399.39	2957.27
399.60	2959.31
399.81	2871.25
400.03	2893.78
400.24	3278.80
400.45	2987.99
400.66	3033.04
400.88	3045.33
401.09	3092.43
401.30	3094.48
401.51	3049.43
401.73	3106.77
401.94	3188.69
402.15	3123.15
402.36	3125.20
402.58	3239.89
402.79	3196.88
403.00	3108.82
403.21	3119.06
403.43	3041.23
403.64	3180.50
403.85	3102.67
404.06	3160.02
404.27	3119.06
404.49	3268.56
404.70	3274.70
404.91	3274.70
405.12	3157.97
405.34	3221.45
405.55	3373.00
405.76	3121.10
405.97	3184.59
406.19	3452.88
406.40	3209.17
406.61	3223.50
406.82	3237.84
407.03	3217.36
407.25	3200.98
407.46	3442.64
407.67	3405.77
407.88	3461.07
408.09	3274.70
408.31	3317.71
408.52	3477.45
408.73	3399.63
408.94	3379.15
409.15	3379.15
409.37	3538.89
409.58	3536.84
409.79	3524.55
410.00	3604.42
410.21	3389.39
410.43	3514.31
410.64	3444.68
410.85	3442.64
411.06	3647.43
411.27	3559.37
411.48	3508.17
411.70	3532.75
411.91	3481.55
412.12	3555.27
412.33	3669.96
412.54	3571.66
412.76	3620.81
412.97	3661.77
413.18	3506.12
413.39	3565.51
413.60	3475.40
413.81	3653.58
414.03	3524.55
414.24	3622.86
414.45	3788.74
414.66	3516.36
414.87	3688.39
415.08	3661.77
415.30	3747.78
415.51	3694.54
415.72	3592.14
415.93	3702.73
416.14	3813.32
416.35	3706.82
416.56	3688.39
416.78	3872.71
416.99	3807.17
417.20	3880.90
417.41	3909.57
417.62	3870.66
417.83	3872.71
418.04	3856.33
418.26	3960.77
418.47	3827.65
418.68	4011.97
418.89	4001.73
419.10	4204.48
419.31	3964.87
419.52	3997.64
419.73	3960.77
419.95	4151.23
420.16	3971.01
420.37	4050.88
420.58	4138.94
420.79	3968.96
421.00	4054.98
421.21	4104.13
421.42	4059.07
421.63	3956.68
421.85	4030.40
422.06	4196.29
422.27	4210.62
422.48	4167.62
422.69	4255.68
422.90	4106.18
423.11	4169.66
423.32	4255.68
423.53	4284.35
423.75	4292.54
423.96	4405.18
424.17	4319.17
424.38	4388.80
424.59	4378.56
424.80	4562.87
425.01	4376.51
425.22	4403.13
425.43	4431.80
425.64	4636.60
425.85	4495.29
426.06	4509.63
426.28	4597.69
426.49	4517.82
426.70	4483.00
426.91	4599.74
427.12	4673.46
427.33	4589.50
427.54	4618.17
427.75	4626.36
427.96	4835.25
428.17	4702.14
428.38	4689.85
428.59	4771.77
428.80	4607.93
429.01	4769.72
429.23	4919.22
429.44	4876.21
429.65	4808.63
429.86	4913.08
430.07	4882.36
430.28	4956.08
430.49	5035.96
430.70	5214.13
430.91	4995.00
431.12	5029.81
431.33	5091.25
431.54	4986.80
431.75	5089.20
431.96	5064.63
432.17	5154.74
432.38	5150.64
432.59	5341.10
432.80	5279.66
433.01	5345.20
433.22	5222.32
433.43	5259.18
433.64	5121.97
433.85	5167.03
434.06	5216.18
434.27	5298.10
434.49	5451.69
434.70	5533.61
434.91	5343.15
435.12	5377.97
435.33	5425.07
435.54	5396.40
435.75	5124.02
435.96	5435.31
436.17	5488.56
436.38	5451.69
436.59	5615.53
436.80	5484.46
437.01	5693.35
437.22	5627.82
437.43	5617.58
437.64	5406.64
437.85	5758.89
438.06	5803.94
438.27	5650.35
438.48	5728.17
438.69	5738.41
438.90	5740.46
439.11	5746.60
439.32	5910.44
439.53	5814.18
439.74	5904.29
439.95	5910.44
440.16	5738.41
440.37	5855.14
440.57	5857.19
440.78	5853.09
440.99	6074.28
441.20	6090.66
441.41	5685.16
441.62	5920.68
441.83	5857.19
442.04	5992.36
442.25	6025.12
442.46	5986.21
442.67	6215.59
442.88	6541.21
443.09	5939.11
443.30	6100.90
443.51	6164.39
443.72	6471.58
443.93	5926.82
444.14	6367.13
444.35	6119.33
444.56	6240.16
444.77	6328.22
444.98	6322.08
445.19	6363.04
445.40	6242.21
445.61	6416.29
445.81	6453.15
446.02	6596.51
446.23	6227.87
446.44	6342.56
446.65	6473.63
446.86	6373.28
447.07	6561.69
447.28	6576.03
447.49	6653.85
447.70	6545.31
447.91	6666.14
448.12	6616.99
448.33	6719.39
448.54	6832.02
448.74	6645.66
448.95	6588.32
449.16	6703.00
449.37	6907.80
449.58	6758.30
449.79	6872.98
450.00	6836.12
450.21	6991.77
450.42	6746.01
450.63	6793.11
450.84	7014.29
451.05	6948.76
451.25	6817.69
451.46	6969.24
451.67	7028.63
451.88	7088.02
452.09	7028.63
452.30	7137.17
452.51	7163.79
452.72	7167.89
452.93	7528.33
453.13	6938.52
453.34	7251.86
453.55	7264.15
453.76	7317.39
453.97	7569.29
454.18	7413.65
454.39	7432.08
454.60	7395.22
454.81	7360.40
455.01	7669.64
455.22	7237.52
455.43	7475.09
455.64	7626.64
455.85	7876.49
456.06	7896.97
456.27	7769.99
456.48	7720.84
456.68	7729.03
456.89	7815.05
457.10	7917.45
457.31	7929.74
457.52	7817.10
457.73	8130.44
457.94	8155.01
458.14	7923.59
458.35	8368.00
458.56	8122.24
458.77	8134.53
458.98	8353.66
459.19	8230.79
459.39	8308.61
459.60	8613.76
459.81	8304.51
460.02	8578.94
460.23	8357.76
460.44	8546.17
460.65	8628.09
460.85	8662.91
461.06	8642.43
461.27	8488.83
461.48	8957.82
461.69	8865.66
461.89	8474.49
462.10	8972.15
462.31	8671.10
462.52	8593.28
462.73	8851.32
462.94	9066.36
463.14	8941.43
463.35	8963.96
463.56	9521.01
463.77	9543.53
463.98	9176.95
464.18	9156.47
464.39	9338.74
464.60	9645.93
464.81	9518.96
465.02	9363.31
465.23	9766.76
465.43	9469.81
465.64	9688.94
465.85	9619.31
466.06	9588.59
466.27	10086.25
466.47	9932.65
466.68	9936.74
466.89	9838.44
467.10	10061.67
467.30	10030.95
467.51	10112.87
467.72	10338.15
467.93	10168.16
468.14	10332.00
468.34	10450.78
468.55	10366.82
468.76	10332.00
468.97	10321.76
469.17	10487.65
469.38	10889.05
469.59	10940.25
469.80	10819.42
470.01	10821.47
470.21	10592.09
470.42	11118.42
470.63	11120.47
470.84	11052.89
471.04	11220.82
471.25	11134.81
471.46	11218.77
471.67	11558.74
471.87	11439.95
472.08	11407.19
472.29	11642.70
472.50	11403.09
472.70	11564.88
472.91	11773.77
473.12	11976.52
473.33	11935.56
473.53	12197.70
473.74	11931.47
473.95	12021.58
474.16	12644.16
474.36	12238.66
474.57	12392.26
474.78	12373.83
474.99	12455.75
475.19	12324.68
475.40	12838.72
475.61	12672.83
475.81	12875.58
476.02	13193.01
476.23	13143.86
476.44	13061.94
476.64	13475.63
476.85	13459.25
477.06	13213.49
477.27	13852.46
477.47	13741.87
477.68	13782.83
477.89	13592.37
478.09	13821.74
478.30	13922.09
478.51	14038.83
478.71	13971.24
478.92	14081.83
479.13	14221.10
479.34	14354.21
479.54	14470.95
479.75	14606.11
479.96	14620.45
480.16	14466.85
480.37	14821.15
480.58	14864.16
480.78	15200.02
480.99	14972.70
481.20	15191.83
481.41	15232.79
481.61	15351.57
481.82	15560.47
482.03	15341.33
482.23	15390.49
482.44	15603.47
482.65	15695.63
482.85	16000.78
483.06	15693.58
483.27	16103.18
483.47	16092.94
483.68	16215.82
483.89	16387.85
484.09	16465.67
484.30	16463.62
484.51	16666.37
484.71	16748.29
484.92	16760.58
485.13	16940.80
485.33	17166.07
485.54	16971.52
485.75	17231.61
485.95	17370.87
486.16	17403.64
486.37	17348.34
486.57	17393.40
486.78	17622.77
486.98	17780.46
487.19	17551.09
487.40	17901.29
487.60	17925.87
487.81	17997.55
488.02	17751.79
488.22	18081.52
488.43	18355.94
488.64	18116.33
488.84	18437.86
489.05	18831.07
489.25	18613.99
489.46	18902.75
489.67	18761.44
489.87	19115.74
490.08	19195.61
490.29	19326.68
490.49	19314.39
490.70	19447.51
490.90	19291.87
491.11	19392.22
491.32	19549.91
491.52	19379.93
491.73	19893.97
491.94	19787.47
492.14	19887.82
492.35	19898.06
492.55	20276.94
492.76	20297.42
492.97	20147.92
493.17	20405.96
493.38	20602.57
493.58	20555.46
493.79	20489.93
494.00	20436.68
494.20	20647.62
494.41	20788.93
494.61	21069.50
494.82	20895.43
495.02	20864.71
495.23	21040.83
495.44	20829.89
495.64	21206.72
495.85	21280.44
496.05	21601.97
496.26	21552.82
496.47	21685.94
496.67	21534.39
496.88	21851.83
497.08	21751.48
497.29	22085.30
497.49	21882.55
497.70	21741.24
497.91	22286.00
498.11	21954.22
498.32	22564.52
498.52	22318.76
498.73	22595.24
498.93	22679.21
499.14	22746.79
499.34	22728.36
499.55	22922.91
499.76	23033.50
499.96	22902.43
500.17	22935.20
500.37	23115.42
500.58	23180.96
500.78	23021.22
500.99	23133.86
501.19	23457.43
501.40	23592.60
501.60	23533.21
501.81	23664.28
502.02	23576.22
502.22	23633.56
502.43	23887.51
502.63	24110.74
502.84	24145.55
503.04	24120.98
503.25	24002.19
503.45	24100.50
503.66	24409.74
503.86	24256.14
504.07	24512.14
504.27	24356.49
504.48	24772.23
504.68	24505.99
504.89	25058.95
505.09	24897.16
505.30	24571.53
505.50	24772.23
505.71	24755.85
505.91	24723.08
506.12	24802.95
506.32	25243.26
506.53	24985.22
506.73	25214.59
506.94	25706.10
507.14	25620.09
507.35	25331.33
507.55	25372.28
507.76	25431.68
507.96	25421.44
508.17	25593.47
508.37	25394.81
508.58	25785.97
508.78	25927.28
508.99	26150.51
509.19	25890.42
509.40	25962.10
509.60	25972.34
509.81	25912.95
510.01	26119.79
510.22	26279.54
510.42	25980.53
510.63	26136.18
510.83	26490.48
511.04	26377.84
511.24	26599.02
511.44	26478.19
511.65	26414.70
511.85	26443.37
512.06	26795.62
512.26	26787.43
512.47	26799.72
512.67	26996.32
512.88	27088.48
513.08	26515.05
513.29	26744.42
513.49	27041.38
513.69	26959.46
513.90	27350.62
514.10	26936.93
514.31	27498.08
514.51	27453.02
514.72	27410.01
514.92	27221.60
515.13	27444.83
515.33	27477.60
515.53	27500.12
515.74	27500.12
515.94	27645.53
516.15	27872.85
516.35	27965.01
516.56	27807.32
516.76	27835.99
516.96	27774.55
517.17	28079.70
517.37	28032.60
517.58	28063.32
517.78	28503.63
517.99	28126.80
518.19	28444.24
518.39	28427.85
518.60	28825.16
518.80	28495.44
519.01	28712.52
519.21	28790.34
519.41	28808.78
519.62	28884.55
519.82	28845.64
520.03	28853.83
520.23	29001.29
520.43	28943.94
520.64	28890.70
520.84	29310.53
521.05	29070.92
521.25	29136.45
521.45	29556.28
521.66	29673.02
521.86	29402.69
522.07	29576.76
522.27	29765.18
522.47	29560.38
522.68	30021.17
522.88	29810.23
523.08	30160.44
523.29	30066.23
523.49	30185.01
523.70	29949.50
523.90	30414.38
524.10	29978.17
524.31	30410.29
524.51	30586.41
524.71	30953.00
524.92	30678.57
525.12	30991.91
525.33	30686.76
525.53	30975.53
525.73	30787.11
525.94	30987.82
526.14	31133.22
526.34	31485.47
526.55	31360.55
526.75	31360.55
526.95	31647.26
527.16	31512.10
527.36	31714.84
527.56	31704.60
527.77	31872.54
527.97	32087.57
528.17	32011.80
528.38	32421.39
528.58	32263.70
528.78	32060.95
528.99	31997.46
529.19	32177.68
529.39	31964.70
529.60	32755.21
529.80	32769.55
530.00	32464.40
530.21	33136.13
530.41	32704.01
530.61	32968.20
530.82	33234.44
531.02	32771.60
531.22	33285.64
531.43	33498.62
531.63	33676.80
531.83	33775.10
532.04	34020.86
532.24	33408.51
532.44	34229.75
532.64	33877.50
532.85	33951.23
533.05	34229.75
533.25	34293.24
533.46	33990.14
533.66	34430.45
533.86	34559.47
534.07	34495.99
534.27	34487.79
534.47	34844.14
534.67	34637.30
534.88	34817.52
535.08	34754.03
535.28	35266.02
535.49	35263.97
535.69	35853.79
535.89	35444.20
536.09	35530.21
536.30	35669.47
536.50	35493.35
536.70	35859.93
536.91	35943.90
537.11	35765.73
537.31	36185.56
537.51	36101.59
537.72	36597.20
537.92	36087.26
538.12	36177.37
538.32	36431.32
538.53	36390.36
538.73	36091.35
538.93	36615.63
539.13	37168.58
539.34	36640.21
539.54	36773.33
539.74	37225.93
539.94	36816.33
540.15	36857.29
540.35	37363.14
540.55	37088.71
540.75	37305.80
540.96	37189.06
541.16	37303.75
541.36	37291.46
541.56	37465.54
541.77	37739.97
541.97	37950.91
542.17	38020.54
542.37	38059.45
542.58	37934.53
542.78	37844.41
542.98	37803.46
543.18	38258.10
543.38	38657.46
543.59	38276.54
543.79	38419.89
543.99	38393.27
544.19	38372.79
544.40	38294.97
544.60	38942.13
544.80	38542.77
545.00	38888.88
545.20	38671.79
545.41	38794.67
545.61	38995.37
545.81	39054.76
546.01	39478.69
546.21	39339.43
546.42	39493.03
546.62	39468.45
546.82	39394.73
547.02	39574.95
547.22	39171.50
547.43	39941.53
547.63	39706.02
547.83	39955.87
548.03	39546.28
548.23	39699.87
548.44	40351.13
548.64	39830.94
548.84	39828.90
549.04	39800.22
549.24	40347.03
549.45	40228.25
549.65	39810.46
549.85	40439.19
550.05	40572.31
550.25	40211.87
550.45	40514.97
550.66	40502.68
550.86	40164.76
551.06	40566.16
551.26	40764.82
551.46	40768.91
551.66	40621.46
551.87	41166.22
552.07	40668.56
552.27	40899.98
552.47	40846.74
552.67	41198.99
552.87	40949.14
553.07	40695.19
553.28	41328.01
553.48	41340.30
553.68	40934.80
553.88	41559.43
554.08	41418.12
554.28	41489.80
554.48	41545.09
554.69	41121.16
554.89	41465.22
555.09	41835.91
555.29	41395.59
555.49	41844.10
555.69	41608.58
555.89	41489.80
556.10	42112.38
556.30	41536.90
556.50	42024.32
556.70	41860.48
556.90	42296.70
557.10	42251.64
557.30	41751.94
557.50	42534.26
557.70	42067.33
557.91	42509.69
558.11	42337.66
558.31	42564.98
558.51	41969.02
558.71	42452.34
558.91	42653.05
559.11	42411.38
559.31	42730.87
559.51	42247.55
559.72	42202.49
559.92	42696.05
560.12	42534.26
560.32	42622.33
560.52	42648.95
560.72	42704.24
560.92	43228.52
561.12	42698.10
561.32	43267.44
561.52	42870.13
561.72	43193.71
561.93	42849.65
562.13	42995.06
562.33	43036.02
562.53	43165.04
562.73	43185.52
562.93	43298.16
563.13	43294.06
563.33	43330.92
563.53	43068.78
563.73	42800.50
563.93	43509.10
564.13	44117.34
564.33	43455.85
564.53	43570.54
564.74	43636.07
564.94	43801.96
565.14	43615.59
565.34	43238.76
565.54	44107.10
565.74	43490.66
565.94	44021.09
566.14	43820.39
566.34	43208.04
566.54	44240.22
566.74	43734.37
566.94	44008.80
567.14	44129.63
567.34	43697.51
567.54	44148.06
567.74	43967.84
567.94	43615.59
568.14	44162.40
568.34	44434.78
568.54	44129.63
568.74	44914.00
568.94	44295.52
569.14	44578.14
569.34	44602.71
569.54	44447.07
569.75	44035.42
569.95	44350.81
570.15	44940.63
570.35	44356.96
570.55	44539.22
570.75	44488.03
570.95	44565.85
571.15	44727.64
571.35	44711.25
571.55	45118.80
571.75	44756.31
571.95	45229.39
572.15	45079.89
572.35	45219.15
572.55	45100.37
572.75	45159.76
572.95	44950.87
573.15	45129.04
573.35	45198.67
573.55	45276.49
573.75	45389.13
573.95	45419.85
574.15	45290.83
574.35	45425.99
574.55	45264.21
574.75	45552.97
574.95	45802.82
575.15	45413.71
575.34	45927.75
575.54	45790.53
575.74	45866.31
575.94	45923.65
576.14	45655.37
576.34	46036.29
576.54	46333.24
576.74	46085.44
576.94	46136.64
577.14	46570.81
577.34	46470.46
577.54	46210.37
577.74	45966.66
577.94	46187.84
578.14	46363.96
578.34	46431.55
578.54	45856.07
578.74	46048.58
578.94	46593.34
579.14	46329.15
579.34	46523.71
579.54	46445.88
579.74	46931.25
579.94	46589.24
580.13	47207.73
580.33	47269.17
580.53	46906.68
580.73	47299.89
580.93	47416.62
581.13	47070.51
581.33	47109.43
581.53	47555.88
581.73	47535.40
581.93	47293.74
582.13	47494.44
582.33	47457.58
582.53	47789.35
582.73	47555.88
582.92	47457.58
583.12	47932.71
583.32	47664.42
583.52	47263.02
583.72	48139.55
583.92	47983.91
584.12	48035.11
584.32	48186.66
584.52	47940.90
584.72	48092.45
584.92	48186.66
585.11	48303.39
585.31	48205.09
585.51	48532.76
585.71	48129.31
585.91	48698.65
586.11	48358.69
586.31	48581.91
586.51	48667.93
586.71	48829.72
586.91	48862.49
587.10	49161.49
587.30	48686.36
587.50	48823.58
587.70	48891.16
587.90	48932.12
588.10	49302.80
588.30	49145.11
588.50	49141.01
588.69	49251.60
588.89	49210.64
589.09	49259.79
589.29	49564.94
589.49	49714.44
589.69	49378.57
589.89	49603.85
590.08	49911.05
590.28	49335.57
590.48	48921.88
590.68	49302.80
590.88	49655.05
591.08	49327.38
591.28	49384.72
591.47	49818.89
591.67	49902.85
591.87	49808.65
592.07	50089.22
592.27	50009.35
592.47	50076.93
592.67	49986.82
592.86	49931.53
593.06	50078.98
593.26	50091.27
593.46	50144.51
593.66	50296.06
593.86	50173.19
594.05	49904.90
594.25	50453.76
594.45	50533.63
594.65	50689.27
594.85	50013.44
595.05	50406.65
595.24	50660.60
595.44	50392.32
595.64	50552.06
595.84	50341.12
596.04	50337.02
596.23	50441.47
596.43	51064.05
596.63	50844.92
596.83	50830.58
597.03	51270.90
597.22	51131.64
597.42	50935.03
597.62	51660.01
597.82	51410.16
598.02	50904.31
598.21	51840.23
598.41	50822.39
598.61	51418.35
598.81	51225.84
599.01	51557.61
599.20	51424.50
599.40	51631.34
599.60	51664.11
599.80	51873.00
600.00	51664.11
600.19	52272.35
600.39	51444.98
600.59	52174.05
600.79	52016.36
600.98	51735.79
601.18	52147.43
601.38	52477.15
601.58	52311.27
601.78	52417.76
601.97	52069.61
602.17	52835.55
602.37	52909.27
602.57	52616.41
602.76	52882.65
602.96	52468.96
603.16	52647.13
603.36	52888.79
603.55	53165.27
603.75	52665.56
603.95	52954.33
604.15	52727.00
604.34	52417.76
604.54	53177.56
604.74	53286.10
604.94	52872.41
605.13	53441.74
605.33	53306.58
605.53	53271.76
605.73	53628.11
605.92	53241.04
606.12	53558.48
606.32	53896.39
606.52	53052.63
606.71	53652.69
606.91	53673.16
607.11	53859.53
607.30	53236.95
607.50	53544.14
607.70	54099.14
607.90	53863.63
608.09	54146.25
608.29	53867.72
608.49	53753.04
608.68	53718.22
608.88	53861.58
609.08	54129.86
609.28	54492.35
609.47	53867.72
609.67	54654.14
609.87	54480.06
610.06	54760.64
610.26	54525.12
610.46	54701.25
610.66	54408.39
610.85	54183.11
611.05	54033.61
611.25	54412.48
611.44	54609.09
611.64	54340.80
611.84	54361.28
612.03	54238.40
612.23	54469.82
612.43	54451.39
612.62	54543.55
612.82	54875.32
613.02	54510.78
613.21	54285.51
613.41	54535.36
613.61	54744.25
613.80	54457.54
614.00	54539.46
614.20	54615.23
614.39	55014.58
614.59	54998.20
614.79	54889.66
614.98	54738.11
615.18	54781.12
615.38	54760.64
615.57	54557.89
615.77	54877.37
615.97	54795.45
616.16	54195.40
616.36	54535.36
616.56	54615.23
616.75	54516.93
616.95	54912.19
617.15	54609.09
617.34	54703.29
617.54	54854.84
617.74	54766.78
617.93	55399.60
618.13	54758.59
618.32	54787.26
618.52	54498.50
618.72	54576.32
618.91	55018.68
619.11	54738.11
619.31	54660.29
619.50	54510.78
619.70	54482.11
619.90	54705.34
620.09	55026.87
620.29	54848.70
620.48	54670.53
620.68	55149.75
620.88	54318.28
621.07	55018.68
621.27	54602.94
621.46	54365.38
621.66	54715.58
621.86	54709.44
622.05	54475.97
622.25	55332.02
622.44	54529.22
622.64	54578.37
622.84	54834.36
623.03	54688.96
623.23	54942.91
623.42	55166.13
623.62	54918.33
623.82	54746.30
624.01	54428.87
624.21	55153.85
624.40	54977.72
624.60	54813.88
624.80	54596.80
624.99	55159.99
625.19	54187.21
625.38	54998.20
625.58	54668.48
625.77	54637.76
625.97	55073.98
626.17	54906.04
626.36	54869.18
626.56	54832.32
626.75	54490.30
626.95	55420.08
627.14	54789.31
627.34	54828.22
627.54	55030.97
627.73	54537.41
627.93	54873.27
628.12	54875.32
628.32	54975.67
628.51	54801.60
628.71	55065.78
628.90	54852.80
629.10	54568.13
629.30	54830.27
629.49	54801.60
629.69	54811.84
629.88	54879.42
630.08	55198.90
630.27	55028.92
630.47	54793.40
630.66	55116.98
630.86	54850.75
631.05	54641.85
631.25	55323.83
631.44	54994.10
631.64	55014.58
631.84	54996.15
632.03	55585.97
632.23	54803.64
632.42	55080.12
632.62	55108.79
632.81	54762.68
633.01	54932.67
633.20	55282.87
633.40	55540.91
633.59	54975.67
633.79	54760.64
633.98	55321.78
634.18	54996.15
634.37	55231.67
634.57	55299.25
634.76	55035.06
634.96	55536.82
635.15	55565.49
635.35	55116.98
635.54	54871.23
635.74	55637.17
635.93	55284.92
636.13	55463.09
636.32	55145.65
636.52	54772.92
636.71	55203.00
636.91	55379.12
637.10	55172.28
637.30	55559.34
637.49	55387.31
637.69	55080.12
637.88	55647.41
638.08	55149.75
638.27	55411.89
638.46	54955.19
638.66	55567.54
638.85	55542.96
639.05	55291.06
639.24	55753.90
639.44	55010.49
639.63	55403.70
639.83	55604.40
640.02	55616.69
640.22	55256.24
640.41	55307.44
640.61	55104.70
640.80	55530.67
640.99	55532.72
641.19	55958.70
641.38	55645.36
641.58	55563.44
641.77	55585.97
641.97	55174.33
642.16	55768.24
642.36	55862.44
642.55	55735.47
642.74	55276.72
642.94	55655.60
643.13	55714.99
643.33	55897.26
643.52	55891.12
643.72	56009.90
643.91	55524.53
644.10	55846.06
644.30	56124.58
644.49	55706.80
644.69	55807.15
644.88	56104.10
645.08	55723.18
645.27	55637.17
645.46	55379.12
645.66	55968.94
645.85	55342.26
646.05	56079.53
646.24	55723.18
646.43	56165.54
646.63	56003.75
646.82	56390.82
647.02	56390.82
647.21	56321.19
647.40	56089.77
647.60	55917.74
647.79	56044.71
647.99	56376.48
648.18	56046.76
648.37	56693.92
648.57	56415.40
648.76	56100.01
648.96	55903.40
649.15	56366.24
649.34	56896.67
649.54	56220.84
649.73	55612.59
649.92	56241.32
650.12	56349.86
650.31	56999.07
650.51	56437.92
650.70	56753.31
650.89	56556.70
651.09	57234.58
651.28	56415.40
651.47	56540.32
651.67	56800.41
651.86	56683.68
652.06	56122.54
652.25	56935.58
652.44	56411.30
652.64	56013.99
652.83	56456.35
653.02	56409.25
653.22	56554.66
653.41	55856.30
653.60	56468.64
653.80	56134.82
653.99	56552.61
654.18	56790.17
654.38	56636.58
654.57	56489.12
654.76	56448.16
654.96	56407.20
655.15	56353.96
655.34	56622.24
655.54	55878.83
655.73	56542.37
655.92	56538.27
656.12	56349.86
656.31	56581.28
656.50	56951.96
656.70	56366.24
656.89	56519.84
657.08	56652.96
657.28	56810.65
657.47	56341.67
657.66	57050.27
657.86	56624.29
658.05	56466.59
658.24	56982.68
658.43	56634.53
658.63	57300.12
658.82	56566.94
659.01	56798.37
659.21	56702.11
659.40	57097.37
659.59	56399.01
659.79	57119.90
659.98	56779.93
660.17	56861.85
660.36	56941.72
660.56	57390.23
660.75	56804.51
660.94	57009.31
661.14	56929.44
661.33	56628.38
661.52	56464.55
661.71	57123.99
661.91	56929.44
662.10	56865.95
662.29	56812.70
662.49	57089.18
662.68	56980.63
662.87	56693.92
663.06	57029.79
663.26	56931.48
663.45	57261.21
663.64	57332.89
663.83	57818.25
664.03	57259.16
664.22	56720.54
664.41	56741.02
664.60	57287.83
664.80	56896.67
664.99	56720.54
665.18	57064.60
665.37	57152.66
665.57	57042.07
665.76	56714.40
665.95	56960.15
666.14	56931.48
666.34	57332.89
666.53	57187.48
666.72	56927.39
666.91	56982.68
667.11	56482.98
667.30	57066.65
667.49	56704.16
667.68	57097.37
667.87	56759.45
668.07	57158.81
668.26	56675.49
668.45	56974.49
668.64	56816.80
668.84	57312.41
669.03	57504.91
669.22	57142.42
669.41	57072.79
669.60	57025.69
669.80	56741.02
669.99	57185.43
670.18	57113.75
670.37	57083.03
670.57	57345.17
670.76	56741.02
670.95	56859.80
671.14	57412.76
671.33	56734.88
671.53	57500.82
671.72	57123.99
671.91	57013.40
672.10	57115.80
672.29	56968.35
672.48	56476.83
672.68	57562.26
672.87	57013.40
673.06	57119.90
673.25	57191.58
673.44	56272.04
673.64	56876.19
673.83	57046.17
674.02	57050.27
674.21	56603.81
674.40	56829.08
674.59	56562.85
674.79	56779.93
674.98	56837.28
675.17	57189.53
675.36	56640.67
675.55	56665.25
675.74	56489.12
675.94	56810.65
676.13	56894.62
676.32	57066.65
676.51	56984.73
676.70	56829.08
676.89	56777.89
677.08	57259.16
677.28	56679.58
677.47	57285.78
677.66	57492.63
677.85	56796.32
678.04	57054.36
678.23	57177.24
678.42	56870.04
678.62	56509.60
678.81	57056.41
679.00	56978.59
679.19	57138.33
679.38	56657.06
679.57	56794.27
679.76	56837.28
679.96	56597.66
680.15	56595.62
680.34	57025.69
680.53	56593.57
680.72	56792.22
680.91	56902.81
681.10	56636.58
681.29	56652.96
681.48	56439.97
681.68	56581.28
681.87	56165.54
682.06	56513.70
682.25	56222.89
682.44	56562.85
682.63	56487.07
682.82	56278.18
683.01	56370.34
683.20	55983.27
683.39	56439.97
683.59	56128.68
683.78	56411.30
683.97	56108.20
684.16	56386.72
684.35	56198.31
684.54	55653.55
684.73	56321.19
684.92	56341.67
685.11	56188.07
685.30	56151.21
685.49	56497.31
685.69	56581.28
685.88	56220.84
686.07	56155.30
686.26	55807.15
686.45	56128.68
686.64	55760.05
686.83	55614.64
687.02	56198.31
687.21	56257.70
687.40	56243.37
687.59	55665.84
687.78	55973.03
687.97	56386.72
688.16	56335.52
688.35	55796.91
688.54	55692.46
688.74	55700.65
688.93	55710.89
689.12	55547.06
689.31	55874.73
689.50	55878.83
689.69	55151.80
689.88	55456.95
690.07	55467.19
690.26	55841.96
690.45	55930.03
690.64	55538.86
690.83	55508.14
691.02	55151.80
691.21	55436.47
691.40	55649.45
691.59	55346.36
691.78	55317.68
691.97	55776.43
692.16	55622.83
692.35	56042.66
692.54	55770.28
692.73	55721.13
692.92	55526.58
693.11	55633.07
693.30	55372.98
693.49	55606.45
693.68	54906.04
693.87	55481.52
694.06	55274.68
694.25	55071.93
694.44	54817.98
694.63	54951.10
694.82	55315.64
695.01	54777.02
695.20	54873.27
695.39	54996.15
695.58	55248.05
695.77	55008.44
695.96	54772.92
696.15	55250.10
696.34	54639.81
696.53	55110.84
696.72	55260.34
696.91	54707.39
697.10	54820.03
697.29	54932.67
697.48	55125.17
697.67	54936.76
697.86	55166.13
698.05	54731.96
698.24	55106.74
698.43	54332.61
698.62	54453.44
698.81	54291.65
699.00	54887.61
699.19	54420.67
699.38	54746.30
699.57	54480.06
699.76	54983.86
699.95	54082.76
700.14	54435.01
700.32	54408.39
700.51	54240.45
700.70	54940.86
700.89	54594.75
701.08	54441.15
701.27	54502.59
701.46	54858.94
701.65	53777.61
701.84	54021.32
702.03	54127.81
702.22	54277.32
702.41	54041.80
702.60	54217.92
702.79	54174.92
702.98	54068.42
703.17	54283.46
703.35	53734.60
703.54	53890.25
703.73	54076.61
703.92	53744.84
704.11	53916.87
704.30	53271.76
704.49	53515.47
704.68	53632.21
704.87	53494.99
705.06	53755.08
705.25	53406.93
705.43	53902.54
705.62	53427.41
705.81	53486.80
706.00	53802.19
706.19	53271.76
706.38	53023.96
706.57	53443.79
706.76	53302.48
706.95	53116.12
707.14	52849.88
707.32	53171.41
707.51	52886.74
707.70	53005.53
707.89	53621.97
708.08	53423.31
708.27	53030.10
708.46	53329.11
708.65	52714.72
708.84	53433.55
709.02	53419.22
709.21	53222.61
709.40	52923.61
709.59	52905.18
709.78	52729.05
709.97	53204.18
710.16	52929.75
710.34	52540.64
710.53	53073.11
710.72	53109.97
710.91	53271.76
711.10	53052.63
711.29	52671.71
711.48	52356.32
711.66	52968.66
711.85	52729.05
712.04	52722.91
712.23	52460.77
712.42	52384.99
712.61	52360.42
712.80	52540.64
712.98	52688.09
713.17	52184.29
713.36	52311.27
713.55	52217.06
713.74	52233.44
713.93	52202.72
714.11	52333.79
714.30	52020.45
714.49	52595.93
714.68	52571.36
714.87	52307.17
715.06	52051.17
715.24	52415.71
715.43	52219.11
715.62	51688.68
715.81	51803.37
716.00	52372.70
716.18	51668.20
716.37	51389.68
716.56	51444.98
716.75	52114.66
716.94	51983.59
717.12	51580.14
717.31	51582.19
717.50	51508.46
717.69	51387.63
717.88	51426.54
718.06	51354.86
718.25	52020.45
718.44	51516.65
718.63	51606.76
718.82	51025.14
719.00	51520.75
719.19	51211.51
719.38	51209.46
719.57	50529.53
719.76	51029.24
719.94	50644.22
720.13	50767.10
720.32	50097.41
720.51	50570.49
720.69	50900.22
720.88	50631.93
721.07	50676.99
721.26	50214.15
721.44	50373.89
721.63	50044.16
721.82	50306.30
722.01	50296.06
722.20	50394.37
722.38	50193.67
722.57	49515.79
722.76	49935.62
722.95	49851.66
723.13	49679.63
723.32	49726.73
723.51	49306.90
723.70	49683.72
723.88	50040.07
724.07	49431.82
724.26	49743.11
724.44	49145.11
724.63	49653.00
724.82	49620.23
725.01	49380.62
725.19	49501.45
725.38	49376.53
725.57	49218.83
725.76	49415.44
725.94	49061.14
726.13	49331.47
726.32	49206.55
726.51	49083.67
726.69	49587.47
726.88	49515.79
727.07	48803.10
727.25	48928.02
727.44	49075.48
727.63	48885.01
727.82	48799.00
728.00	48893.21
728.19	49368.33
728.38	49214.74
728.56	48801.05
728.75	49165.59
728.94	49128.72
729.12	49124.63
729.31	49169.68
729.50	49112.34
729.69	49227.02
729.87	49175.83
730.06	48799.00
730.25	48895.25
730.43	49227.02
730.62	48620.83
730.81	48620.83
730.99	49122.58
731.18	48588.06
731.37	49306.90
731.55	49132.82
731.74	49204.50
731.93	48964.88
732.11	48557.34
732.30	48680.22
732.49	48612.63
732.67	48770.33
732.86	48751.90
733.05	48930.07
733.23	48250.14
733.42	48868.63
733.61	48651.55
733.79	48684.31
733.98	49009.94
734.17	48497.95
734.35	48764.18
734.54	49122.58
734.73	49075.48
734.91	48682.27
735.10	48563.48
735.29	48563.48
735.47	47887.65
735.66	48579.87
735.84	48698.65
736.03	48078.11
736.22	48977.17
736.40	48166.18
736.59	48217.38
736.78	48100.64
736.96	48209.18
737.15	48411.93
737.33	48153.89
737.52	48147.75
737.71	48272.67
737.89	48016.68
738.08	47834.41
738.27	48307.49
738.45	48620.83
738.64	48278.82
738.82	47920.42
739.01	47813.93
739.20	48180.51
739.38	47850.79
739.57	48094.50
739.75	48256.29
739.94	47877.41
740.13	47945.00
740.31	47736.10
740.50	47621.42
740.68	47678.76
740.87	47881.51
741.06	48215.33
741.24	47959.33
741.43	47441.20
741.61	47645.99
741.80	47250.74
741.99	47381.80
742.17	47310.13
742.36	47430.96
742.54	47334.70
742.73	47525.16
742.91	47523.11
743.10	47322.41
743.29	47629.61
743.47	47627.56
743.66	47279.41
743.84	47365.42
744.03	47281.45
744.21	47242.54
744.40	47506.73
744.59	47351.09
744.77	47199.54
744.96	46806.33
745.14	47349.04
745.33	47678.76
745.51	47346.99
745.70	47422.76
745.88	47205.68
746.07	46849.33
746.26	46521.66
746.44	46994.74
746.63	47275.31
746.81	47109.43
747.00	46617.91
747.18	47283.50
747.37	46800.18
747.55	47144.24
747.74	47043.89
747.92	46388.54
748.11	46781.75
748.29	46650.68
748.48	46763.32
748.66	46765.37
748.85	46875.96
749.03	46529.85
749.22	46142.78
749.41	46101.82
749.59	46292.29
749.78	46456.12
749.96	46150.98
750.15	46081.34
750.33	46292.29
750.52	46052.67
750.70	45884.74
750.89	46077.25
751.07	45770.05
751.26	46077.25
751.44	46028.10
751.63	46028.10
751.81	46085.44
752.00	45649.22
752.18	46183.74
752.37	45888.84
752.55	45665.61
752.74	45331.79
752.92	45563.21
753.10	45548.87
753.29	45385.04
753.47	45546.82
753.66	45466.95
753.84	45507.91
754.03	45217.10
754.21	45348.17
754.40	45593.93
754.58	45768.01
754.77	44995.92
754.95	45208.91
755.14	44936.53
755.32	45059.41
755.51	45362.51
755.69	44977.49
755.88	44852.56
756.06	45270.35
756.24	45243.73
756.43	44762.45
756.61	44975.44
756.80	44864.85
756.98	44664.15
757.17	44674.39
757.35	44918.10
757.54	45178.19
757.72	44875.09
757.90	44823.89
758.09	44961.11
758.27	44623.19
758.46	44631.38
758.64	44819.80
758.83	44782.93
759.01	44778.84
759.19	44393.82
759.38	44555.61
759.56	44576.09
759.75	44496.22
759.93	44440.92
760.12	44229.98
760.30	44774.74
760.48	44082.53
760.67	44043.62
760.85	44324.19
761.04	44473.69
761.22	44078.43
761.40	44113.25
761.59	44025.18
761.77	43732.32
761.96	43871.59
762.14	43892.07
762.32	43650.41
762.51	43758.95
762.69	44037.47
762.88	43658.60
763.06	43988.32
763.24	43834.72
763.43	43912.55
763.61	43767.14
763.80	43554.15
763.98	43406.70
764.16	43470.18
764.35	43339.11
764.53	43382.12
764.72	43859.30
764.90	43308.40
765.08	43461.99
765.27	43320.68
765.45	42995.06
765.63	42818.93
765.82	43027.82
766.00	42597.75
766.18	43208.04
766.37	43048.30
766.55	43312.49
766.74	43062.64
766.92	42679.67
767.10	42868.08
767.29	42765.68
767.47	42454.39
767.65	43109.74
767.84	42120.57
768.02	42474.87
768.20	42087.81
768.39	42481.02
768.57	42564.98
768.75	42392.95
768.94	42413.43
769.12	42618.23
769.30	42116.48
769.49	42073.47
769.67	41973.12
769.85	41960.83
770.04	42177.92
770.22	42116.48
770.40	42026.37
770.59	41864.58
770.77	42093.95
770.95	41923.97
771.14	41749.89
771.32	41504.13
771.50	41047.44
771.69	41473.42
771.87	41766.27
772.05	41594.25
772.24	40988.05
772.42	41651.59
772.60	41106.83
772.78	40897.94
772.97	41174.41
773.15	41131.40
773.33	40930.70
773.52	41024.91
773.70	40912.27
773.88	41653.64
774.07	40893.84
774.25	41010.57
774.43	41215.37
774.61	41418.12
774.80	41170.32
774.98	41059.73
775.16	41270.67
775.34	41727.36
775.53	41588.10
775.71	41588.10
775.89	41385.35
776.08	41246.09
776.26	41641.35
776.44	41344.39
776.62	41061.77
776.81	40856.98
776.99	41147.79
777.17	41395.59
777.35	41510.28
777.54	41928.06
777.72	41295.24
777.90	41776.51
778.08	41569.67
778.27	41610.63
778.45	41667.97
778.63	42202.49
778.81	41278.86
779.00	42163.58
779.18	41665.92
779.36	41620.87
779.54	41684.36
779.73	41622.92
779.91	41905.54
780.09	41788.80
780.27	42009.98
780.46	41549.19
780.64	42016.13
780.82	41788.80
781.00	41592.20
781.19	41962.88
781.37	42337.66
781.55	41942.40
781.73	42378.62
781.91	41778.56
782.10	42192.25
782.28	41899.39
782.46	42257.79
782.64	42188.16
782.82	41645.44
783.01	42229.12
783.19	42202.49
783.37	42182.01
783.55	41831.81
783.74	42229.12
783.92	42161.53
784.10	42569.08
784.28	42153.34
784.46	42016.13
784.64	42231.16
784.83	42218.88
785.01	42374.52
785.19	42268.03
785.37	42313.08
785.55	42143.10
785.74	41622.92
785.92	41915.78
786.10	41921.92
786.28	42026.37
786.46	41688.45
786.64	41360.78
786.83	41940.35
787.01	41936.26
787.19	42003.84
787.37	42044.80
787.55	41497.99
787.74	41520.52
787.92	41948.54
788.10	41635.20
788.28	41371.02
788.46	41665.92
788.64	41346.44
788.82	41653.64
789.01	41260.43
789.19	41862.53
789.37	41604.49
789.55	41667.97
789.73	41389.45
789.91	41104.78
790.09	41084.30
790.28	41293.19
790.46	41194.89
790.64	41325.96
790.82	41053.58
791.00	40740.24
791.18	40484.25
791.36	40670.61
791.55	40883.60
791.73	41024.91
791.91	40461.72
792.09	40461.72
792.27	40547.73
792.45	40199.58
792.63	40138.14
792.81	40009.12
793.00	40140.19
793.18	39816.61
793.36	39683.49
793.54	39579.04
793.72	39294.38
793.90	39558.56
794.08	39687.59
794.26	39304.62
794.44	39206.31
794.62	39134.63
794.81	39519.65
794.99	39261.61
795.17	39347.62
795.35	39151.02
795.53	39355.82
795.71	39663.01
795.89	39120.30
796.07	38544.82
796.25	38456.76
796.43	38528.44
796.61	37959.10
796.80	38276.54
796.98	38286.78
797.16	37946.81
797.34	38581.68
797.52	37899.71
797.70	37903.81
797.88	37991.87
798.06	37576.13
798.24	37959.10
798.42	38024.64
798.60	37610.95
798.78	37512.64
798.96	37856.70
799.14	37084.62
799.32	37348.81
799.51	37369.29
799.69	37301.70
799.87	37201.35
800.05	37170.63
800.23	37176.78
800.41	36943.31
800.59	37002.70
800.77	36832.72
800.95	36658.64
801.13	36404.69
801.31	36455.89
801.49	36378.07
801.67	36320.73
801.85	36224.47
802.03	36124.12
802.21	35767.77
802.39	36085.21
802.57	36029.91
802.75	36091.35
802.93	35763.68
803.11	35560.93
803.29	35423.72
803.47	35442.15
803.65	35548.64
803.83	35393.00
804.01	35399.14
804.19	35175.91
804.37	35165.67
804.55	35100.14
804.73	35376.61
804.91	34502.13
805.09	35132.90
805.27	34575.86
805.45	35118.57
805.63	35157.48
805.81	34643.44
805.99	34598.38
806.17	34842.09
806.35	34733.55
806.53	34436.59
806.71	34041.34
806.89	34354.68
807.07	34106.87
807.25	34416.11
807.43	34203.13
807.61	33943.03
807.79	34262.52
807.97	33555.97
808.15	33715.71
808.33	33572.35
808.51	33707.52
808.69	33719.81
808.87	33287.68
809.05	33314.31
809.23	33400.32
809.41	32792.08
809.59	33103.37
809.77	33302.02
809.95	33009.16
810.13	33381.89
810.31	32667.15
810.49	33322.50
810.67	32794.12
810.84	33064.46
811.02	32808.46
811.20	32642.57
811.38	32828.94
811.56	32452.11
811.74	32288.28
811.92	32378.39
812.10	32321.04
812.28	32603.66
812.46	32493.07
812.64	32454.16
812.82	32202.26
813.00	32019.99
813.18	31886.87
813.36	31946.26
813.53	31542.81
813.71	32054.81
813.89	32042.52
814.07	31714.84
814.25	31776.28
814.43	31815.19
814.61	31299.11
814.79	31733.28
814.97	31434.27
815.15	31274.53
815.33	31295.01
815.50	31004.20
815.68	31401.50
815.86	31143.46
816.04	30801.45
816.22	31129.12
816.40	30912.04
816.58	30656.04
816.76	30791.21
816.94	30758.44
817.11	30805.55
817.29	30893.61
817.47	30385.71
817.65	30373.42
817.83	30942.76
818.01	30668.33
818.19	30516.78
818.37	30137.91
818.54	30193.20
818.72	30352.94
818.90	30316.08
819.08	30002.74
819.26	29992.50
819.44	30021.17
819.62	30234.16
819.80	30055.99
819.97	29900.34
820.15	29814.33
820.33	29666.88
820.51	29969.97
820.69	29525.57
820.87	29734.46
821.05	29652.54
821.22	29830.71
821.40	29447.74
821.58	29427.26
821.76	29703.74
821.94	29410.88
822.12	29185.60
822.29	29392.45
822.47	29210.18
822.65	29408.83
822.83	29347.39
823.01	29359.68
823.19	29316.67
823.36	29156.93
823.54	28997.19
823.72	28900.94
823.90	29142.60
824.08	28620.36
824.25	29013.57
824.43	28804.68
824.61	28505.68
824.79	28753.48
824.97	29081.16
825.15	28759.63
825.32	28571.21
825.50	28182.10
825.68	28708.43
825.86	28761.67
826.04	28386.89
826.21	28382.80
826.39	28487.25
826.57	28223.06
826.75	28227.15
826.93	28034.64
827.10	28231.25
827.28	28128.85
827.46	28200.53
827.64	28116.56
827.81	28003.92
827.99	27899.48
828.17	28081.75
828.35	27846.23
828.53	27754.07
828.70	27711.07
828.88	27739.74
829.06	28081.75
829.24	27719.26
829.41	27666.01
829.59	27991.64
829.77	27549.28
829.95	27663.96
830.12	27498.08
830.30	27401.82
830.48	27530.84
830.66	27438.69
830.84	27418.21
831.01	27498.08
831.19	27328.10
831.37	27080.29
831.55	27258.46
831.72	27022.95
831.90	27164.26
832.08	27033.19
832.25	27246.18
832.43	26846.82
832.61	26789.48
832.79	26586.73
832.96	27008.61
833.14	27149.92
833.32	27041.38
833.50	26818.15
833.67	26850.92
833.85	26648.17
834.03	26439.28
834.20	26658.41
834.38	26697.32
834.56	26844.77
834.74	26523.24
834.91	26873.45
835.09	26644.07
835.27	26439.28
835.44	26592.87
835.62	26355.31
835.80	26044.02
835.98	26326.64
836.15	26758.76
836.33	26269.30
836.51	26451.56
836.68	25949.81
836.86	25986.68
837.04	26236.53
837.21	25994.87
837.39	26521.20
837.57	26334.83
837.75	26037.87
837.92	25724.54
838.10	26017.40
838.28	25634.42
838.45	25812.60
838.63	25890.42
838.81	25634.42
838.98	25788.02
839.16	25480.83
839.34	25390.72
839.51	25507.45
839.69	25562.75
839.87	25468.54
840.04	25396.86
840.22	25597.56
840.40	25360.00
840.57	25130.62
840.75	25413.24
840.93	25034.37
841.10	25341.57
841.28	25276.03
841.46	24977.03
841.63	25390.72
841.81	25142.91
841.98	25128.58
842.16	25056.90
842.34	25112.19
842.51	24868.48
842.69	25325.18
842.87	24989.31
843.04	25030.27
843.22	25048.71
843.40	25147.01
843.57	24772.23
843.75	25134.72
843.92	24792.71
844.10	24874.63
844.28	24714.89
844.45	24684.17
844.63	24739.46
844.81	24987.27
844.98	24897.16
845.16	24616.58
845.33	24630.92
845.51	24489.61
845.69	24286.86
845.86	24426.12
846.04	24204.94
846.21	24462.99
846.39	24155.79
846.57	24188.56
846.74	24233.61
846.92	24446.60
847.09	23856.79
847.27	23922.32
847.45	24118.93
847.62	24202.89
847.80	24417.93
847.97	24338.06
848.15	23953.04
848.32	23973.52
848.50	24147.60
848.68	23791.25
848.85	23703.19
849.03	23776.92
849.20	23844.50
849.38	23785.11
849.56	23645.85
849.73	23527.06
849.91	23606.94
850.08	24071.82
850.26	23541.40
850.43	23586.46
850.61	23416.47
850.78	23107.23
850.96	23613.08
851.14	23293.60
851.31	23328.41
851.49	23215.77
851.66	23436.95
851.84	23379.61
852.01	23432.86
852.19	23162.53
852.36	23115.42
852.54	23455.39
852.71	23391.90
852.89	23228.06
853.07	23238.30
853.24	23400.09
853.42	23154.33
853.59	22961.83
853.77	23211.68
853.94	23264.92
854.12	22894.24
854.29	22640.29
854.47	22939.30
854.64	22939.30
854.82	23033.50
854.99	22933.15
855.17	23211.68
855.34	22589.10
855.52	23031.46
855.69	22955.68
855.87	22705.83
856.04	22415.02
856.22	22679.21
856.39	22621.86
856.57	22687.40
856.74	22427.31
856.92	22681.25
857.09	22490.79
857.27	22449.83
857.44	22482.60
857.62	22408.87
857.79	22396.59
857.97	22427.31
858.14	22273.71
858.32	22386.35
858.49	22234.80
858.67	22294.19
858.84	22179.50
859.02	22357.67
859.19	22050.48
859.37	22124.21
859.54	21972.66
859.72	21898.93
859.89	22214.32
860.06	21849.78
860.24	21915.31
860.41	22265.52
860.59	21741.24
860.76	22040.24
860.94	21704.37
861.11	22075.06
861.29	21614.26
861.46	21952.18
861.64	21481.14
861.81	21552.82
861.98	21604.02
862.16	21753.52
862.33	21427.90
862.51	21511.86
862.68	21542.58
862.86	21348.03
863.03	21440.18
863.21	21599.93
863.38	21634.74
863.55	21352.12
863.73	21294.78
863.90	21311.16
864.08	21274.30
864.25	21221.05
864.43	21317.31
864.60	21182.14
864.77	21194.43
864.95	21335.74
865.12	20969.15
865.30	20842.18
865.47	20825.79
865.64	20831.94
865.82	21323.45
865.99	20999.87
866.17	21014.21
866.34	21116.61
866.51	20752.07
866.69	20981.44
866.86	20833.99
867.04	20907.71
867.21	20864.71
867.38	20504.26
867.56	20707.01
867.73	20553.41
867.91	20715.20
868.08	20426.44
868.25	20315.85
868.43	20293.32
868.60	20276.94
868.78	20422.34
868.95	20485.83
869.12	20092.62
869.30	19953.36
869.47	20547.27
869.64	20037.33
869.82	20371.15
869.99	20262.60
870.16	20287.18
870.34	20281.03
870.51	20027.09
870.69	19828.43
870.86	20033.23
871.03	20195.02
871.21	19941.07
871.38	20301.51
871.55	19855.06
871.73	19846.87
871.90	19588.82
872.07	19936.98
872.25	19742.42
872.42	19619.54
872.59	19527.38
872.77	19547.86
872.94	19424.98
873.11	19775.19
873.29	19566.29
873.46	19637.97
873.63	19668.69
873.81	19513.05
873.98	19310.30
874.15	19162.84
874.33	19259.10
874.50	19003.10
874.67	19257.05
874.85	19062.49
875.02	18650.85
875.19	18601.70
875.37	19154.65
875.54	18947.81
875.71	19244.76
875.88	18929.38
876.06	18962.14
876.23	18796.26
876.40	18695.91
876.58	18474.73
876.75	18726.63
876.92	18618.08
877.10	18786.02
877.27	18470.63
877.44	18568.93
877.61	18427.62
877.79	18534.12
877.96	18188.01
878.13	18314.98
878.31	18290.41
878.48	18194.15
878.65	18165.48
878.82	18036.46
879.00	18337.51
879.17	18282.22
879.34	18407.14
879.51	18401.00
879.69	17989.36
879.86	17966.83
880.03	17805.04
880.21	17886.96
880.38	17940.21
880.55	18030.32
880.72	17661.68
880.90	17676.02
881.07	17745.65
881.24	17721.07
881.41	17852.14
881.59	17692.40
881.76	17934.06
881.93	17592.05
882.10	17719.03
882.28	17536.76
882.45	17741.55
882.62	17684.21
882.79	17657.59
882.96	17334.01
883.14	17604.34
883.31	17577.72
883.48	17225.47
883.65	17405.69
883.83	17518.32
884.00	17583.86
884.17	17301.24
884.34	17323.77
884.51	17313.53
884.69	17211.13
884.86	17182.46
885.03	17301.24
885.20	17098.49
885.38	17204.99
885.55	17284.86
885.72	17336.06
885.89	16969.47
886.06	17164.03
886.24	16852.73
886.41	16883.45
886.58	17100.54
886.75	17059.58
886.92	16928.51
887.10	17258.23
887.27	16711.42
887.44	16748.29
887.61	16994.04
887.78	16809.73
887.95	16842.50
888.13	16895.74
888.30	16846.59
888.47	16686.85
888.64	16725.76
888.81	16832.26
888.99	16627.46
889.16	16508.68
889.33	16805.63
889.50	16424.71
889.67	16674.56
889.84	16471.81
890.01	16428.81
890.19	16154.38
890.36	16510.72
890.53	16215.82
890.70	16060.17
890.87	16506.63
891.04	16281.35
891.22	16336.65
891.39	16221.96
891.56	16219.91
891.73	15914.77
891.90	16082.70
892.07	16008.97
892.24	16135.95
892.42	15914.77
892.59	15916.81
892.76	15933.20
892.93	16011.02
893.10	15873.81
893.27	15800.08
893.44	15716.11
893.61	15847.18
893.79	15783.70
893.96	15918.86
894.13	16037.64
894.30	15869.71
894.47	15810.32
894.64	16060.17
894.81	16066.31
894.98	15867.66
895.15	15861.52
895.33	15556.37
895.50	15720.21
895.67	16062.22
895.84	15650.58
896.01	15763.22
896.18	15757.07
896.35	15916.81
896.52	15626.00
896.69	15683.34
896.86	15890.19
897.04	15410.96
897.21	15724.30
897.38	15585.04
897.55	15564.56
897.72	15838.99
897.89	15699.73
898.06	15779.60
898.23	15400.72
898.40	15759.12
898.57	15716.11
898.74	15386.39
898.91	15443.73
899.08	15587.09
899.26	15890.19
899.43	15648.53
899.60	15410.96
899.77	15281.94
899.94	15451.92
900.11	15503.12
900.28	15490.84
900.45	15451.92
900.62	15550.23
900.79	15611.67
900.96	15451.92
901.13	15453.97
901.30	15484.69
901.47	15218.46
901.64	15474.45
901.81	15644.43
901.98	15443.73
902.15	15757.07
902.32	15337.24
902.49	15576.85
902.66	15408.92
902.83	15666.96
903.01	15363.86
903.18	15519.51
903.35	15615.76
903.52	15560.47
903.69	15449.88
903.86	15648.53
904.03	15482.64
904.20	15619.86
904.37	15730.45
904.54	15286.04
904.71	15648.53
904.88	15470.36
905.05	15374.10
905.22	15449.88
905.39	15410.96
905.56	15163.16
905.73	15386.39
905.90	15355.67
906.07	15574.80
906.24	15617.81
906.41	15343.38
906.58	15320.85
906.75	15609.62
906.92	15290.13
907.09	15568.66
907.26	15361.81
907.43	15273.75
907.60	15281.94
907.77	15234.84
907.93	15527.70
908.10	15474.45
908.27	15312.66
908.44	15218.46
908.61	15238.94
908.78	15255.32
908.95	15265.56
909.12	15331.09
909.29	15437.59
909.46	15517.46
909.63	15456.02
909.80	15279.89
909.97	15243.03
910.14	15437.59
910.31	15150.87
910.48	15167.26
910.65	15347.48
910.82	15232.79
910.99	15130.39
911.16	15286.04
911.33	15116.06
911.50	15052.57
911.66	14960.41
911.83	14999.32
912.00	15126.30
912.17	14849.82
912.34	14892.83
912.51	15032.09
912.68	14733.09
912.85	14737.18
913.02	15038.23
913.19	14858.01
913.36	14907.16
913.53	14765.85
913.70	14911.26
913.86	14970.65
914.03	14776.09
914.20	14724.90
914.37	14782.24
914.54	14815.01
914.71	14872.35
914.88	14505.76
915.05	14599.97
915.22	14397.22
915.39	14499.62
915.55	14604.07
915.72	14401.32
915.89	14421.80
916.06	14198.57
916.23	14346.02
916.40	14274.34
916.57	14251.81
916.74	14208.81
916.91	14026.54
917.07	13991.72
917.24	14120.74
917.41	14020.39
917.58	13897.52
917.75	14122.79
917.92	13745.97
918.09	13930.28
918.26	13840.17
918.42	13829.93
918.59	13625.14
918.76	13735.73
918.93	13543.22
919.10	13594.42
919.27	13461.30
919.44	13954.86
919.60	13782.83
919.77	13348.66
919.94	13342.52
920.11	13604.66
920.28	13449.01
920.45	13528.88
920.61	13463.35
920.78	13391.67
920.95	13410.10
921.12	13076.28
921.29	13221.69
921.46	13107.00
921.62	12959.55
921.79	13029.18
921.96	12934.97
922.13	12891.96
922.30	12760.89
922.47	13031.23
922.63	12732.22
922.80	12744.51
922.97	12533.57
923.14	12474.18
923.31	12707.65
923.47	12552.00
923.64	12873.53
923.81	12349.25
923.98	12576.58
924.15	12418.88
924.32	12549.95
924.48	12277.57
924.65	12541.76
924.82	12005.19
924.99	12212.04
925.15	12017.48
925.32	12074.82
925.49	12091.21
925.66	12085.06
925.83	11837.26
925.99	11949.90
926.16	12013.38
926.33	11896.65
926.50	11710.29
926.67	11788.11
926.83	11847.50
927.00	11822.92
927.17	11683.66
927.34	11503.44
927.50	11599.70
927.67	11489.10
927.84	11489.10
928.01	11536.21
928.17	11298.64
928.34	11355.99
928.51	11077.46
928.68	11202.39
928.84	11130.71
929.01	11032.41
929.18	11183.96
929.35	11005.78
929.51	10911.58
929.68	10880.86
929.85	10811.23
930.02	10811.23
930.18	10710.88
930.35	10823.51
930.52	10815.32
930.69	10612.57
930.85	10665.82
931.02	10358.63
931.19	10393.44
931.36	10526.56
931.52	10520.42
931.69	10422.11
931.86	10350.43
932.02	10360.67
932.19	10289.00
932.36	10108.77
932.53	10121.06
932.69	9975.66
932.86	10051.43
933.03	9992.04
933.19	9881.45
933.36	9969.51
933.53	9916.26
933.70	9820.01
933.86	9686.89
934.03	9729.90
934.20	9635.69
934.36	9568.11
934.53	9291.63
934.70	9127.80
934.86	9437.04
935.03	9205.62
935.20	9322.35
935.36	9203.57
935.53	9181.04
935.70	9041.78
935.86	9174.90
936.03	8896.38
936.20	8654.72
936.36	8605.56
936.53	8662.91
936.70	8587.13
936.86	8757.11
937.03	8732.54
937.20	8327.04
937.36	8531.84
937.53	8167.30
937.70	8069.00
937.86	7905.16
938.03	7942.02
938.20	8157.06
938.36	7694.22
938.53	7769.99
938.70	7583.63
938.86	7638.92
939.03	7499.66
939.20	7341.97
939.36	7528.33
939.53	7284.62
939.70	7407.50
939.86	7022.48
940.03	6981.53
940.19	6864.79
940.36	7014.29
940.53	6969.24
940.69	6733.72
940.86	6750.10
941.03	6457.25
941.19	6473.63
941.36	6510.49
941.52	6367.13
941.69	6279.07
941.86	6512.54
942.02	6350.75
942.19	6197.15
942.35	6199.20
942.52	6113.19
942.69	6080.42
942.85	6057.89
943.02	6072.23
943.18	6049.70
943.35	5853.09
943.52	5765.03
943.68	5717.93
943.85	5875.62
944.01	5762.98
944.18	5871.53
944.35	5611.43
944.51	5609.39
944.68	5535.66
944.84	5617.58
945.01	5486.51
945.17	5535.66
945.34	5568.43
945.51	5593.00
945.67	5539.76
945.84	5539.76
946.00	5455.79
946.17	5380.01
946.33	5377.97
946.50	5554.09
946.67	5287.86
946.83	5334.96
947.00	5388.21
947.16	5294.00
947.33	5474.22
947.49	5296.05
947.66	5377.97
947.82	5531.56
947.99	5255.09
948.16	5423.02
948.32	5271.47
948.49	5459.88
948.65	5515.18
948.82	5394.35
948.98	5320.62
949.15	5236.66
949.31	5480.36
949.48	5474.22
949.64	5384.11
949.81	5246.90
949.97	5218.22
950.14	5474.22
950.30	5267.38
950.47	5484.46
950.63	5433.26
950.80	5312.43
950.96	5392.30
951.13	5492.65
951.30	5443.50
951.46	5334.96
951.63	5588.91
951.79	5394.35
951.96	5459.88
952.12	5543.85
952.29	5334.96
952.45	5404.59
952.62	5480.36
952.78	5506.99
952.94	5584.81
953.11	5414.83
953.27	5310.38
953.44	5707.69
953.60	5584.81
953.77	5560.24
953.93	5529.52
954.10	5441.45
954.26	5408.69
954.43	5431.21
954.59	5558.19
954.76	5509.04
954.92	5506.99
955.09	5599.15
955.25	5433.26
955.42	5457.84
955.58	5515.18
955.75	5525.42
955.91	5484.46
956.07	5449.64
956.24	5472.17
956.40	5576.62
956.57	5511.08
956.73	5607.34
956.90	5550.00
957.06	5533.61
957.23	5445.55
957.39	5482.41
957.56	5367.73
957.72	5613.48
957.88	5605.29
958.05	5601.19
958.21	5787.56
958.38	5519.28
958.54	5382.06
958.71	5619.63
958.87	5509.04
959.03	5484.46
959.20	5420.97
959.36	5265.33
959.53	5509.04
959.69	5443.50
959.85	5535.66
960.02	5410.73
960.18	5543.85
960.35	5484.46
960.51	5709.74
960.68	5513.13
960.84	5371.82
961.00	5463.98
961.17	5531.56
961.33	5582.76
961.50	5550.00
961.66	5484.46
961.82	5437.36
961.99	5476.27
962.15	5494.70
962.31	5451.69
962.48	5437.36
962.64	5625.77
962.81	5384.11
962.97	5556.14
963.13	5470.12
963.30	5414.83
963.46	5513.13
963.62	5590.95
963.79	5423.02
963.95	5550.00
964.12	5523.37
964.28	5463.98
964.44	5349.29
964.61	5390.25
964.77	5468.08
964.93	5482.41
965.10	5375.92
965.26	5277.62
965.42	5527.47
965.59	5296.05
965.75	5359.53
965.92	5459.88
966.08	5365.68
966.24	5390.25
966.41	5500.84
966.57	5363.63
966.73	5478.32
966.90	5365.68
967.06	5468.08
967.22	5269.42
967.39	5332.91
967.55	5291.95
967.71	5359.53
967.88	5230.51
968.04	5265.33
968.20	5300.14
968.37	5242.80
968.53	5314.48
968.69	5271.47
968.85	5187.50
969.02	5191.60
969.18	5246.90
969.34	5232.56
969.51	5087.15
969.67	5230.51
969.83	4992.95
970.00	5248.94
970.16	5072.82
970.32	5248.94
970.48	5222.32
970.65	5121.97
970.81	4974.52
970.97	5083.06
971.14	5083.06
971.30	5128.11
971.46	5095.35
971.63	4992.95
971.79	5107.63
971.95	4992.95
972.11	4974.52
972.28	5093.30
972.44	5056.43
972.60	4958.13
972.76	5078.96
972.93	4990.90
973.09	5031.86
973.25	4956.08
973.42	4945.84
973.58	5005.24
973.74	4915.12
973.90	4898.74
974.07	4951.99
974.23	4988.85
974.39	4939.70
974.55	4765.62
974.72	5013.43
974.88	4786.10
975.04	4818.87
975.20	4870.07
975.37	4921.27
975.53	4704.18
975.69	4888.50
975.85	4712.38
976.01	4775.86
976.18	4736.95
976.34	4806.58
976.50	4825.01
976.66	4759.48
976.83	4829.11
976.99	4794.29
977.15	4603.83
977.31	4601.79
977.47	4806.58
977.64	4788.15
977.80	4784.06
977.96	4622.27
978.12	4630.46
978.29	4753.34
978.45	4528.06
978.61	4503.48
978.77	4636.60
978.93	4523.96
979.10	4663.22
979.26	4593.59
979.42	4620.22
979.58	4513.72
979.74	4546.49
979.91	4558.78
980.07	4505.53
980.23	4577.21
980.39	4450.24
980.55	4540.35
980.71	4472.76
980.88	4480.96
981.04	4470.72
981.20	4442.04
981.36	4507.58
981.52	4440.00
981.68	4476.86
981.85	4530.11
982.01	4290.49
982.17	4423.61
982.33	4276.16
982.49	4480.96
982.65	4392.89
982.82	4362.17
982.98	4294.59
983.14	4286.40
983.30	4405.18
983.46	4433.85
983.62	4331.45
983.79	4186.05
983.95	4435.90
984.11	4235.20
984.27	4265.92
984.43	4278.21
984.59	4298.69
984.75	4239.30
984.91	4249.54
985.08	4218.82
985.24	4100.03
985.40	4085.70
985.56	4171.71
985.72	4335.55
985.88	4177.86
986.04	3968.96
986.20	4069.31
986.37	4167.62
986.53	4116.42
986.69	4214.72
986.85	4143.04
987.01	4081.60
987.17	4126.66
987.33	4007.87
987.49	3952.58
987.65	3917.76
987.82	4022.21
987.98	3979.20
988.14	3977.16
988.30	3956.68
988.46	3960.77
988.62	3868.61
988.78	3825.61
988.94	3944.39
989.10	3833.80
989.26	3762.12
989.42	3901.38
989.59	3829.70
989.75	3801.03
989.91	3817.41
990.07	3858.37
990.23	3850.18
990.39	3813.32
990.55	3823.56
990.71	3864.52
990.87	3819.46
991.03	3942.34
991.19	3753.93
991.35	3862.47
991.51	3868.61
991.67	3782.60
991.83	3788.74
992.00	3784.65
992.16	3848.13
992.32	3868.61
992.48	3833.80
992.64	3751.88
992.80	3743.69
992.96	3631.05
993.12	3710.92
993.28	3647.43
993.44	3702.73
993.60	3641.29
993.76	3721.16
993.92	3715.02
994.08	3631.05
994.24	3612.62
994.40	3557.32
994.56	3747.78
994.72	3594.19
994.88	3616.71
995.04	3573.71
995.20	3592.14
995.36	3565.51
995.52	3518.41
995.68	3551.18
995.84	3395.53
996.00	3688.39
996.16	3456.97
996.32	3420.11
996.48	3463.12
996.64	3631.05
996.80	3465.16
996.96	3514.31
997.12	3450.83
997.28	3463.12
997.44	3465.16
997.60	3416.01
997.76	3366.86
997.92	3549.13
998.08	3477.45
998.24	3272.65
998.40	3438.54
998.56	3395.53
998.72	3289.04
998.88	3334.09
999.04	3305.42
999.20	3489.74
999.36	3342.28
999.52	3495.88
999.68	3332.05
999.84	3385.29
1000.00	3356.62
1000.16	3348.43
1000.32	3239.89
1000.48	3411.92
1000.64	3295.18
1000.80	3246.03
1000.95	3127.25
1001.11	3338.19
1001.27	3246.03
1001.43	3379.15
1001.59	3108.82
1001.75	3207.12
1001.91	3311.57
1002.07	3114.96
1002.23	3160.02
1002.39	3278.80
1002.55	3043.28
1002.71	3207.12
1002.87	3104.72
1003.03	3084.24
1003.19	3153.87
1003.34	3166.16
1003.50	3117.01
1003.66	3286.99
1003.82	3190.74
1003.98	3076.05
1004.14	3164.11
1004.30	2975.70
1004.46	3022.80
1004.62	3026.90
1004.78	3069.91
1004.94	3076.05
1005.09	3110.86
1005.25	3057.62
1005.41	2959.31
1005.57	2985.94
1005.73	2910.16
1005.89	2942.93
1006.05	3020.75
1006.21	3131.34
1006.37	2973.65
1006.52	2983.89
1006.68	2865.11
1006.84	3033.04
1007.00	2897.88
1007.16	2863.06
1007.32	2942.93
1007.48	2893.78
1007.64	2967.51
1007.79	2852.82
1007.95	2848.72
1008.11	2918.36
1008.27	2928.60
1008.43	2873.30
1008.59	2752.47
1008.75	2953.17
1008.91	2977.75
1009.06	2842.58
1009.22	2942.93
1009.38	2820.05
1009.54	2858.96
1009.70	2793.43
1009.86	2877.40
1010.01	2885.59
1010.17	2729.94
1010.33	2861.01
1010.49	2850.77
1010.65	2822.10
1010.81	2731.99
1010.96	2789.33
1011.12	2740.18
1011.28	2775.00
1011.44	2803.67
1011.60	2785.24
1011.76	2682.84
1011.91	2764.76
1012.07	2678.74
1012.23	2598.87
1012.39	2623.45
1012.55	2699.22
1012.71	2578.39
1012.86	2695.13
1013.02	2709.46
1013.18	2662.36
1013.34	2633.69
1013.50	2670.55
1013.65	2680.79
1013.81	2672.60
1013.97	2527.19
1014.13	2570.20
1014.29	2658.26
1014.44	2684.89
1014.60	2664.41
1014.76	2555.86
1014.92	2592.73
1015.07	2654.17
1015.23	2682.84
1015.39	2553.82
1015.55	2537.43
1015.71	2566.10
1015.86	2467.80
1016.02	2480.09
1016.18	2435.03
1016.34	2537.43
1016.49	2549.72
1016.65	2600.92
1016.81	2461.66
1016.97	2441.18
1017.12	2596.82
1017.28	2314.20
1017.44	2455.51
1017.60	2449.37
1017.75	2494.43
1017.91	2510.81
1018.07	2482.14
1018.23	2506.71
1018.38	2451.42
1018.54	2414.56
1018.70	2453.47
1018.86	2437.08
1019.01	2410.46
1019.17	2461.66
1019.33	2586.58
1019.49	2426.84
1019.64	2404.32
1019.80	2498.52
1019.96	2400.22
1020.12	2432.99
1020.27	2379.74
1020.43	2426.84
1020.59	2443.23
1020.74	2326.49
1020.90	2408.41
1021.06	2314.20
1021.22	2363.36
1021.37	2404.32
1021.53	2346.97
1021.69	2428.89
1021.84	2283.49
1022.00	2328.54
1022.16	2318.30
1022.31	2346.97
1022.47	2383.84
1022.63	2369.50
1022.79	2209.76
1022.94	2289.63
1023.10	2318.30
1023.26	2291.68
1023.41	2271.20
1023.57	2230.24
1023.73	2314.20
1023.88	2271.20
1024.04	2174.94
1024.20	2236.38
1024.35	2342.88
1024.51	2289.63
1024.67	2246.62
1024.82	2267.10
1024.98	2181.09
1025.14	2246.62
1025.29	2273.25
1025.45	2263.01
1025.61	2146.27
1025.76	2213.85
1025.92	2254.81
1026.08	2230.24
1026.23	2232.29
1026.39	2228.19
1026.55	2226.14
1026.70	2105.31
1026.86	2207.71
1027.02	2226.14
1027.17	2215.90
1027.33	2226.14
1027.48	2142.18
1027.64	2162.66
1027.80	2105.31
1027.95	2256.86
1028.11	2082.78
1028.27	2254.81
1028.42	2203.61
1028.58	2220.00
1028.73	2148.32
1028.89	2041.82
1029.05	2181.09
1029.20	2183.13
>>>>>End Processed Spectral Data<<<<<
