SpectraSuite Data File
++++++++++++++++++++++++++++++++++++
Date: Fri Jun 02 14:51:08 CEST 2017
User: INFO_000
Dark Spectrum Present: No
Reference Spectrum Present: No
Number of Sampled Component Spectra: 1
Spectrometers: USB4H00879
Integration Time (usec): 80000 (USB4H00879)
Spectra Averaged: 1 (USB4H00879)
Boxcar Smoothing: 0 (USB4H00879)
Correct for Electrical Dark: No (USB4H00879)
Strobe/Lamp Enabled: No (USB4H00879)
Correct for Detector Non-linearity: No (USB4H00879)
Correct for Stray Light: No (USB4H00879)
Number of Pixels in Processed Spectrum: 3648
>>>>>Begin Processed Spectral Data<<<<<
345.13	1300.46
345.34	1300.46
345.56	1300.46
345.78	1327.08
345.99	1314.80
346.21	1714.15
346.42	1724.39
346.64	1636.33
346.86	1802.21
347.07	1621.99
347.29	1695.72
347.50	1632.23
347.72	1638.38
347.94	1705.96
348.15	1591.27
348.37	1611.75
348.59	1691.62
348.80	1591.27
349.02	1802.21
349.23	1822.69
349.45	1773.54
349.67	1941.47
349.88	1775.59
350.10	2023.39
350.31	1839.08
350.53	1861.60
350.75	2000.87
350.96	1802.21
351.18	1886.18
351.39	1814.50
351.61	1822.69
351.82	1865.70
352.04	1892.32
352.26	1822.69
352.47	1863.65
352.69	1912.80
352.90	1693.67
353.12	1863.65
353.34	1902.56
353.55	1888.23
353.77	1896.42
353.98	1845.22
354.20	1843.17
354.41	1888.23
354.63	1908.71
354.85	1914.85
355.06	1861.60
355.28	1777.64
355.49	1839.08
355.71	1896.42
355.92	1826.79
356.14	1890.28
356.35	1843.17
356.57	1851.36
356.79	1884.13
357.00	1898.47
357.22	1900.52
357.43	1806.31
357.65	1892.32
357.86	1855.46
358.08	1871.84
358.29	1859.56
358.51	1959.91
358.72	1955.81
358.94	1920.99
359.16	1888.23
359.37	1914.85
359.59	1970.15
359.80	1916.90
360.02	1933.28
360.23	1961.95
360.45	2011.11
360.66	1970.15
360.88	1837.03
361.09	1937.38
361.31	2025.44
361.52	1920.99
361.74	2000.87
361.95	2080.74
362.17	1978.34
362.38	2054.11
362.60	1984.48
362.81	1914.85
363.03	1964.00
363.24	1873.89
363.46	2023.39
363.67	2047.97
363.89	1970.15
364.10	1939.43
364.32	1896.42
364.53	2117.60
364.75	1927.14
364.96	1978.34
365.18	2021.35
365.39	2011.11
365.61	1908.71
365.82	2093.02
366.04	2068.45
366.25	1953.76
366.47	1980.39
366.68	2047.97
366.90	1957.86
367.11	2056.16
367.33	2039.78
367.54	2084.83
367.76	2009.06
367.97	2160.61
368.19	2047.97
368.40	2076.64
368.62	1933.28
368.83	1992.67
369.05	2033.63
369.26	1908.71
369.48	2099.17
369.69	1986.53
369.91	2064.35
370.12	1923.04
370.33	2035.68
370.55	1974.24
370.76	2031.58
370.98	2076.64
371.19	2088.93
371.41	2025.44
371.62	2068.45
371.84	1898.47
372.05	2207.71
372.27	2043.87
372.48	2101.22
372.69	2082.78
372.91	2064.35
373.12	2093.02
373.34	2084.83
373.55	2074.59
373.77	2195.42
373.98	2045.92
374.20	2166.75
374.41	2215.90
374.62	2082.78
374.84	2174.94
375.05	2121.70
375.27	2176.99
375.48	2107.36
375.70	2105.31
375.91	2213.85
376.12	2279.39
376.34	2187.23
376.55	2162.66
376.77	2224.09
376.98	2007.01
377.19	2150.37
377.41	2142.18
377.62	2250.72
377.84	2195.42
378.05	2213.85
378.27	2133.98
378.48	2289.63
378.69	2301.92
378.91	2308.06
379.12	2187.23
379.34	2191.33
379.55	2269.15
379.76	2232.29
379.98	2197.47
380.19	2213.85
380.41	2203.61
380.62	2258.91
380.83	2170.85
381.05	2156.51
381.26	2297.82
381.47	2246.62
381.69	2267.10
381.90	2291.68
382.12	2285.53
382.33	2205.66
382.54	2146.27
382.76	2297.82
382.97	2238.43
383.19	2265.05
383.40	2406.36
383.61	2211.81
383.83	2156.51
384.04	2271.20
384.25	2279.39
384.47	2398.17
384.68	2279.39
384.89	2254.81
385.11	2375.64
385.32	2236.38
385.54	2224.09
385.75	2260.96
385.96	2377.69
386.18	2346.97
386.39	2377.69
386.60	2330.59
386.82	2367.45
387.03	2353.12
387.24	2502.62
387.46	2459.61
387.67	2426.84
387.88	2482.14
388.10	2324.44
388.31	2441.18
388.52	2512.86
388.74	2547.67
388.95	2412.51
389.16	2482.14
389.38	2459.61
389.59	2484.19
389.80	2463.71
390.02	2471.90
390.23	2576.34
390.44	2648.02
390.66	2439.13
390.87	2385.88
391.08	2574.30
391.30	2670.55
391.51	2594.78
391.72	2592.73
391.94	2623.45
392.15	2525.15
392.36	2508.76
392.58	2553.82
392.79	2617.30
393.00	2666.46
393.22	2652.12
393.43	2770.90
393.64	2719.70
393.85	2672.60
394.07	2621.40
394.28	2605.02
394.49	2750.42
394.71	2766.81
394.92	2795.48
395.13	2652.12
395.35	2682.84
395.56	2748.37
395.77	2779.09
395.98	2703.32
396.20	2805.72
396.41	2846.68
396.62	2842.58
396.84	2674.65
397.05	2809.81
397.26	2850.77
397.47	2930.64
397.69	2758.61
397.90	2963.41
398.11	2863.06
398.32	2820.05
398.54	2779.09
398.75	2846.68
398.96	2815.96
399.18	2996.18
399.39	2932.69
399.60	2981.84
399.81	2914.26
400.03	2844.63
400.24	3182.54
400.45	2985.94
400.66	2983.89
400.88	2992.08
401.09	3121.10
401.30	2949.08
401.51	3108.82
401.73	3041.23
401.94	3043.28
402.15	3057.62
402.36	3049.43
402.58	3174.35
402.79	3207.12
403.00	3125.20
403.21	3160.02
403.43	3235.79
403.64	3256.27
403.85	3055.57
404.06	3217.36
404.27	3018.71
404.49	3205.07
404.70	3057.62
404.91	3252.17
405.12	3223.50
405.34	3184.59
405.55	3325.90
405.76	3114.96
405.97	3192.78
406.19	3360.72
406.40	3274.70
406.61	3305.42
406.82	3293.13
407.03	3243.98
407.25	3248.08
407.46	3389.39
407.67	3338.19
407.88	3360.72
408.09	3317.71
408.31	3360.72
408.52	3387.34
408.73	3344.33
408.94	3315.66
409.15	3434.44
409.37	3450.83
409.58	3305.42
409.79	3360.72
410.00	3465.16
410.21	3321.81
410.43	3442.64
410.64	3377.10
410.85	3395.53
411.06	3381.20
411.27	3479.50
411.48	3557.32
411.70	3674.06
411.91	3407.82
412.12	3551.18
412.33	3424.20
412.54	3483.59
412.76	3575.75
412.97	3667.91
413.18	3436.49
413.39	3532.75
413.60	3534.79
413.81	3551.18
414.03	3590.09
414.24	3448.78
414.45	3774.41
414.66	3385.29
414.87	3637.19
415.08	3647.43
415.30	3657.67
415.51	3686.34
415.72	3567.56
415.93	3559.37
416.14	3563.47
416.35	3696.58
416.56	3629.00
416.78	3577.80
416.99	3801.03
417.20	3661.77
417.41	3786.69
417.62	3706.82
417.83	3831.75
418.04	3612.62
418.26	3784.65
418.47	3772.36
418.68	3825.61
418.89	3817.41
419.10	3901.38
419.31	3780.55
419.52	3915.72
419.73	4059.07
419.95	3858.37
420.16	3868.61
420.37	3782.60
420.58	3882.95
420.79	3819.46
421.00	3975.11
421.21	4087.75
421.42	3948.48
421.63	3971.01
421.85	3936.20
422.06	4007.87
422.27	3999.68
422.48	3899.33
422.69	3989.44
422.90	3944.39
423.11	4122.56
423.32	4089.79
423.53	4298.69
423.75	4284.35
423.96	4239.30
424.17	4231.10
424.38	4255.68
424.59	4257.73
424.80	4472.76
425.01	4249.54
425.22	4179.90
425.43	4202.43
425.64	4593.59
425.85	4538.30
426.06	4411.32
426.28	4362.17
426.49	4331.45
426.70	4278.21
426.91	4505.53
427.12	4353.98
427.33	4382.65
427.54	4454.33
427.75	4437.95
427.96	4745.14
428.17	4521.92
428.38	4540.35
428.59	4741.05
428.80	4599.74
429.01	4739.00
429.23	4693.94
429.44	4773.82
429.65	4771.77
429.86	4747.19
430.07	4667.32
430.28	4739.00
430.49	4812.73
430.70	4898.74
430.91	4925.36
431.12	4874.17
431.33	4894.65
431.54	4894.65
431.75	4880.31
431.96	4960.18
432.17	4972.47
432.38	5060.53
432.59	5091.25
432.80	5033.91
433.01	5146.55
433.22	5230.51
433.43	5144.50
433.64	5095.35
433.85	5173.17
434.06	5179.31
434.27	5060.53
434.49	5318.57
434.70	5281.71
434.91	5261.23
435.12	5337.01
435.33	5375.92
435.54	5435.31
435.75	5291.95
435.96	5382.06
436.17	5214.13
436.38	5668.78
436.59	5486.51
436.80	5447.60
437.01	5617.58
437.22	5609.39
437.43	5566.38
437.64	5337.01
437.85	5613.48
438.06	5607.34
438.27	5517.23
438.48	5621.67
438.69	5664.68
438.90	5629.87
439.11	5791.66
439.32	5803.94
439.53	5730.22
439.74	5640.11
439.95	5846.95
440.16	5697.45
440.37	5814.18
440.57	5656.49
440.78	5869.48
440.99	5930.92
441.20	5992.36
441.41	5734.31
441.62	5869.48
441.83	5787.56
442.04	6023.08
442.25	5877.67
442.46	5883.81
442.67	6031.27
442.88	6336.42
443.09	5947.30
443.30	5992.36
443.51	6109.09
443.72	6307.74
443.93	5922.73
444.14	6412.19
444.35	6100.90
444.56	6061.99
444.77	6045.60
444.98	6248.35
445.19	6414.24
445.40	6188.96
445.61	6158.24
445.81	6209.44
446.02	6354.85
446.23	6428.57
446.44	6137.76
446.65	6270.88
446.86	6414.24
447.07	6442.91
447.28	6573.98
447.49	6530.97
447.70	6383.52
447.91	6528.92
448.12	6565.79
448.33	6606.75
448.54	6508.44
448.74	6490.01
448.95	6715.29
449.16	6504.35
449.37	6832.02
449.58	6571.93
449.79	6901.65
450.00	6430.62
450.21	6770.58
450.42	6852.50
450.63	6778.78
450.84	6645.66
451.05	6754.20
451.25	6711.19
451.46	6643.61
451.67	6918.04
451.88	6975.38
452.09	6944.66
452.30	6985.62
452.51	6852.50
452.72	7014.29
452.93	7196.56
453.13	6936.47
453.34	6965.14
453.55	7002.01
453.76	7032.72
453.97	7284.62
454.18	7016.34
454.39	7270.29
454.60	7198.61
454.81	7159.70
455.01	7401.36
455.22	6938.52
455.43	7128.98
455.64	7296.91
455.85	7620.49
456.06	7514.00
456.27	7331.73
456.48	7266.19
456.68	7348.11
456.89	7425.93
457.10	7671.69
457.31	7686.03
457.52	7538.57
457.73	7749.51
457.94	7677.83
458.14	7647.12
458.35	7952.26
458.56	7716.75
458.77	7638.92
458.98	7952.26
459.19	8001.41
459.39	7987.08
459.60	8030.09
459.81	8066.95
460.02	8226.69
460.23	7937.93
460.44	8261.51
460.65	8157.06
460.85	8331.14
461.06	8292.23
461.27	8071.04
461.48	8392.58
461.69	8464.25
461.89	8011.65
462.10	8306.56
462.31	8255.36
462.52	8324.99
462.73	8509.31
462.94	8757.11
463.14	8558.46
463.35	8568.70
463.56	8691.58
463.77	8789.88
463.98	8761.21
464.18	8693.63
464.39	8957.82
464.60	8978.30
464.81	9138.04
465.02	8963.96
465.23	9322.35
465.43	8980.34
465.64	9361.27
465.85	9275.25
466.06	9193.33
466.27	9434.99
466.47	9334.64
466.68	9441.14
466.89	9496.43
467.10	9678.70
467.30	9500.53
467.51	9729.90
467.72	9867.11
467.93	9576.30
468.14	9756.52
468.34	9860.97
468.55	9985.90
468.76	9998.18
468.97	9899.88
469.17	10088.29
469.38	10303.33
469.59	10413.92
469.80	10055.53
470.01	10397.54
470.21	10385.25
470.42	10536.80
470.63	10481.50
470.84	10401.63
471.04	10530.66
471.25	10817.37
471.46	10577.76
471.67	11143.00
471.87	10911.58
472.08	11079.51
472.29	11351.89
472.50	10968.92
472.70	11190.10
472.91	11210.58
473.12	11308.88
473.33	11495.25
473.53	11532.11
473.74	11609.93
473.95	11575.12
474.16	11931.47
474.36	11741.00
474.57	11902.79
474.78	12001.10
474.99	11904.84
475.19	11968.33
475.40	12322.63
475.61	12369.73
475.81	12439.36
476.02	12764.99
476.23	12547.90
476.44	12812.09
476.64	12812.09
476.85	13016.89
477.06	12898.11
477.27	13446.96
477.47	13363.00
477.68	13176.63
477.89	13475.63
478.09	13344.56
478.30	13643.57
478.51	13680.43
478.71	13709.10
478.92	13707.05
479.13	14090.02
479.34	13977.39
479.54	14112.55
479.75	14243.62
479.96	14184.23
480.16	14442.28
480.37	14567.20
480.58	14595.87
480.78	14911.26
480.99	14780.19
481.20	14858.01
481.41	15124.25
481.61	15329.05
481.82	15261.46
482.03	15111.96
482.23	15187.74
482.44	15619.86
482.65	15847.18
482.85	15679.25
483.06	15707.92
483.27	15494.93
483.47	15861.52
483.68	15703.82
483.89	16213.77
484.09	16191.24
484.30	16193.29
484.51	16285.45
484.71	16682.75
484.92	16729.86
485.13	16854.78
485.33	16914.17
485.54	16856.83
485.75	17078.01
485.95	17026.81
486.16	16936.70
486.37	17358.58
486.57	17088.25
486.78	17256.18
486.98	17254.14
487.19	17501.94
487.40	17809.14
487.60	17694.45
487.81	18089.71
488.02	17872.62
488.22	17667.83
488.43	18173.67
488.64	17987.31
488.84	18091.76
489.05	18290.41
489.25	18314.98
489.46	18497.25
489.67	18536.17
489.87	18673.38
490.08	18925.28
490.29	18906.85
490.49	19070.68
490.70	19224.28
490.90	19009.25
491.11	19138.27
491.32	19298.01
491.52	19285.72
491.73	19384.02
491.94	19730.13
492.14	19484.37
492.35	19689.17
492.55	19889.87
492.76	20057.81
492.97	19822.29
493.17	19652.31
493.38	20113.10
493.58	20291.27
493.79	20170.44
494.00	20235.98
494.20	20426.44
494.41	20377.29
494.61	20489.93
494.82	20737.73
495.02	20479.69
495.23	20629.19
495.44	20797.12
495.64	21089.98
495.85	20995.78
496.05	21159.61
496.26	20821.70
496.47	21319.35
496.67	21110.46
496.88	21354.17
497.08	21497.53
497.29	21427.90
497.49	21481.14
497.70	21407.42
497.91	21493.43
498.11	21771.96
498.32	21743.28
498.52	21925.55
498.73	21919.41
498.93	21966.51
499.14	22073.01
499.34	22005.42
499.55	22245.04
499.76	22292.14
499.96	22288.04
500.17	22369.96
500.37	22283.95
500.58	22623.91
500.78	22224.56
500.99	22406.83
501.19	22709.93
501.40	22892.19
501.60	22511.27
501.81	22742.69
502.02	22709.93
502.22	22496.94
502.43	22943.39
502.63	23158.43
502.84	23076.51
503.04	23094.94
503.25	23105.18
503.45	23246.49
503.66	23049.89
503.86	23377.56
504.07	23672.47
504.27	23271.07
504.48	23635.61
504.68	23391.90
504.89	23649.94
505.09	23762.58
505.30	23692.95
505.50	23856.79
505.71	23666.33
505.91	23860.88
506.12	23713.43
506.32	23559.83
506.53	23922.32
506.73	24176.27
506.94	24129.17
507.14	24135.31
507.35	24094.35
507.55	24307.34
507.76	24243.85
507.96	23858.84
508.17	24307.34
508.37	24227.47
508.58	24245.90
508.78	24315.53
508.99	24696.46
509.19	24530.57
509.40	24497.80
509.60	24278.67
509.81	24520.33
510.01	24739.46
510.22	24866.44
510.42	24882.82
510.63	24893.06
510.83	24755.85
511.04	24800.90
511.24	24977.03
511.44	24886.92
511.65	25357.95
511.85	24962.69
512.06	25194.11
512.26	25161.34
512.47	25239.17
512.67	25403.00
512.88	25257.60
513.08	25106.05
513.29	25398.91
513.49	25390.72
513.69	25509.50
513.90	25556.60
514.10	25615.99
514.31	25656.95
514.51	25699.96
514.72	25650.81
514.92	25665.14
515.13	26138.23
515.33	25898.61
515.53	26060.40
515.74	25933.43
515.94	26103.41
516.15	26058.35
516.35	26105.46
516.56	26461.80
516.76	25986.68
516.96	26013.30
517.17	26670.70
517.37	26338.93
517.58	26633.83
517.78	26621.55
517.99	26644.07
518.19	26789.48
518.39	26861.16
518.60	26941.03
518.80	26742.38
519.01	26949.22
519.21	26910.31
519.41	26852.97
519.62	26945.12
519.82	26977.89
520.03	27219.55
520.23	27344.48
520.43	27403.87
520.64	27475.55
520.84	27706.97
521.05	27317.86
521.25	27659.87
521.45	27948.63
521.66	27979.35
521.86	27805.27
522.07	27960.92
522.27	28114.52
522.47	27840.09
522.68	28411.47
522.88	28245.58
523.08	28436.05
523.29	28423.76
523.49	28266.06
523.70	28337.74
523.90	28644.94
524.10	28780.10
524.31	28857.93
524.51	28784.20
524.71	29316.67
524.92	29001.29
525.12	29513.28
525.33	29675.07
525.53	29433.41
525.73	29687.36
525.94	29478.46
526.14	29675.07
526.34	29912.63
526.55	29838.90
526.75	29769.27
526.95	29976.12
527.16	30039.61
527.36	30277.17
527.56	30498.35
527.77	30656.04
527.97	30709.29
528.17	30498.35
528.38	30713.39
528.58	30715.44
528.78	31067.69
528.99	30842.41
529.19	30989.86
529.39	31133.22
529.60	31194.66
529.80	31528.48
530.00	31471.14
530.21	31577.63
530.41	31981.08
530.61	31548.96
530.82	31872.54
531.02	31749.66
531.22	31841.82
531.43	32374.29
531.63	32230.93
531.83	32351.76
532.04	32450.06
532.24	32398.87
532.44	32742.92
532.64	33244.68
532.85	33144.33
533.05	32947.72
533.25	33068.55
533.46	33052.17
533.66	33756.67
533.86	33461.76
534.07	33644.03
534.27	33371.65
534.47	33936.89
534.67	34045.43
534.88	33891.83
535.08	34315.76
535.28	34311.67
535.49	34520.56
535.69	34459.12
535.89	34778.61
536.09	34604.53
536.30	34711.02
536.50	34903.53
536.70	35083.75
536.91	35104.23
537.11	34827.76
537.31	35405.28
537.51	35411.43
537.72	35673.57
537.92	35706.34
538.12	35849.69
538.32	35775.97
538.53	35866.08
538.73	35513.83
538.93	35853.79
539.13	36107.74
539.34	36191.70
539.54	36089.31
539.74	36771.28
539.94	36466.13
540.15	36287.96
540.35	36732.37
540.55	36449.75
540.75	36392.40
540.96	36939.21
541.16	36797.90
541.36	37174.73
541.56	36955.60
541.77	37227.98
541.97	37395.91
542.17	37334.47
542.37	37662.15
542.58	37586.37
542.78	37486.02
542.98	37412.29
543.18	37756.35
543.38	37641.67
543.59	38211.00
543.79	37701.06
543.99	37809.60
544.19	38151.61
544.40	38075.84
544.60	38378.93
544.80	38043.07
545.00	38620.59
545.20	38501.81
545.41	38493.62
545.61	38331.83
545.81	39290.28
546.01	39167.40
546.21	38712.75
546.42	38966.70
546.62	39028.14
546.82	38766.00
547.02	38999.47
547.22	39171.50
547.43	39331.24
547.63	39114.16
547.83	39703.97
548.03	39333.29
548.23	39302.57
548.44	39333.29
548.64	39298.47
548.84	39372.20
549.04	39310.76
549.24	39787.94
549.45	39804.32
549.65	39880.10
549.85	39892.38
550.05	39871.90
550.25	39746.98
550.45	40301.98
550.66	39638.44
550.86	39927.20
551.06	40023.45
551.26	40066.46
551.46	40310.17
551.66	40052.12
551.87	39939.49
552.07	40064.41
552.27	40310.17
552.47	40404.38
552.67	40758.67
552.87	40639.89
553.07	40117.66
553.28	40560.02
553.48	40687.00
553.68	40609.17
553.88	40484.25
554.08	40871.31
554.28	40486.29
554.48	40359.32
554.69	40529.30
554.89	40674.71
555.09	40617.36
555.29	41037.20
555.49	40895.89
555.69	41026.96
555.89	40840.59
556.10	40998.29
556.30	40551.83
556.50	41170.32
556.70	40942.99
556.90	41000.33
557.10	41131.40
557.30	40699.28
557.50	41481.61
557.70	41342.35
557.91	41246.09
558.11	41375.11
558.31	41676.16
558.51	41112.97
558.71	41272.71
558.91	41262.47
559.11	41672.07
559.31	41653.64
559.51	40949.14
559.72	41358.73
559.92	41792.90
560.12	41057.68
560.32	41383.30
560.52	41194.89
560.72	41647.49
560.92	41670.02
561.12	41639.30
561.32	41350.54
561.52	41368.97
561.72	42040.70
561.93	41440.65
562.13	41375.11
562.33	41198.99
562.53	42001.79
562.73	41471.37
562.93	41672.07
563.13	42022.27
563.33	41311.63
563.53	41893.25
563.73	41547.14
563.93	41696.64
564.13	41997.70
564.33	41637.25
564.53	41608.58
564.74	41807.23
564.94	41614.72
565.14	42057.09
565.34	41969.02
565.54	42042.75
565.74	41891.20
565.94	42077.57
566.14	41856.39
566.34	41758.08
566.54	42351.99
566.74	42065.28
566.94	41819.52
567.14	42259.84
567.34	42007.94
567.54	42399.10
567.74	41848.19
567.94	42212.73
568.14	42171.77
568.34	42069.37
568.54	42288.51
568.74	42712.44
568.94	41909.63
569.14	42620.28
569.34	42556.79
569.54	42096.00
569.75	42052.99
569.95	42128.77
570.15	42911.09
570.35	42392.95
570.55	42331.51
570.75	42272.12
570.95	42689.91
571.15	42655.09
571.35	42272.12
571.55	42534.26
571.75	42468.73
571.95	42485.11
572.15	42186.11
572.35	42503.54
572.55	42628.47
572.75	42739.06
572.95	42521.98
573.15	42462.58
573.35	42737.01
573.55	42476.92
573.75	42585.46
573.95	42696.05
574.15	42515.83
574.35	42810.74
574.55	43048.30
574.75	42784.12
574.95	42962.29
575.15	42757.49
575.34	43089.26
575.54	43472.23
575.74	42974.58
575.94	43130.22
576.14	43064.69
576.34	43640.17
576.54	43287.92
576.74	43568.49
576.94	43400.55
577.14	43425.13
577.34	43701.61
577.54	43038.06
577.74	43378.03
577.94	43611.49
578.14	43347.31
578.34	43986.27
578.54	43335.02
578.74	44004.70
578.94	43705.70
579.14	44053.86
579.34	43650.41
579.54	43853.15
579.74	44076.38
579.94	43668.84
580.13	43855.20
580.33	44002.66
580.53	44287.32
580.73	44457.31
580.93	44160.35
581.13	44207.45
581.33	44594.52
581.53	44760.40
581.73	44447.07
581.93	44397.91
582.13	44606.81
582.33	45112.66
582.53	44477.79
582.73	44547.42
582.92	44873.04
583.12	45114.70
583.32	44834.13
583.52	44565.85
583.72	44879.19
583.92	45086.03
584.12	45075.79
584.32	45528.39
584.52	45079.89
584.72	45292.88
584.92	45282.64
585.11	46050.63
585.31	45425.99
585.51	45671.75
585.71	45546.82
585.91	45901.12
586.11	45520.20
586.31	45727.05
586.51	45716.81
586.71	46011.71
586.91	46169.41
587.10	45970.75
587.30	46323.01
587.50	46200.13
587.70	46200.13
587.90	46097.73
588.10	46601.53
588.30	46087.49
588.50	46351.68
588.69	46073.15
588.89	45937.99
589.09	46318.91
589.29	46677.30
589.49	46675.26
589.69	46427.45
589.89	47060.27
590.08	47138.10
590.28	46728.50
590.48	46581.05
590.68	46832.95
590.88	46996.79
591.08	47093.04
591.28	46640.44
591.47	47230.26
591.67	46943.54
591.87	46978.36
592.07	46921.01
592.27	47316.27
592.47	47539.50
592.67	47326.51
592.86	47312.17
593.06	47396.14
593.26	48028.96
593.46	47953.19
593.66	47901.99
593.86	47613.23
594.05	47885.61
594.25	48088.35
594.45	47625.51
594.65	48186.66
594.85	47922.47
595.05	48203.04
595.24	48522.52
595.44	48102.69
595.64	48659.74
595.84	48465.18
596.04	48123.17
596.23	48606.49
596.43	48874.77
596.63	48891.16
596.83	48487.71
597.03	49218.83
597.22	49095.95
597.42	49071.38
597.62	49599.76
597.82	49018.13
598.02	49040.66
598.21	49409.29
598.41	48850.20
598.61	49235.22
598.81	49267.98
599.01	49775.88
599.20	49505.55
599.40	49427.73
599.60	49874.18
599.80	49734.92
600.00	50023.68
600.19	50289.92
600.39	49816.84
600.59	50013.44
600.79	50138.37
600.98	50232.58
601.18	50171.14
601.38	50298.11
601.58	51215.60
601.78	51117.30
601.97	50500.86
602.17	50586.88
602.37	51021.05
602.57	50885.88
602.76	51307.76
602.96	50625.79
603.16	51170.55
603.36	51041.53
603.55	51436.78
603.75	51027.19
603.95	51426.54
604.15	51643.63
604.34	51475.69
604.54	51434.74
604.74	51242.23
604.94	51541.23
605.13	52124.90
605.33	52260.07
605.53	51508.46
605.73	52178.15
605.92	51571.95
606.12	51911.91
606.32	52278.50
606.52	52350.18
606.71	52266.21
606.91	52593.89
607.11	52217.06
607.30	52485.34
607.50	52227.30
607.70	52391.14
607.90	52434.14
608.09	52456.67
608.29	52638.94
608.49	53365.97
608.68	52550.88
608.88	52923.61
609.08	52845.79
609.28	53083.35
609.47	53099.73
609.67	53562.57
609.87	53406.93
610.06	53443.79
610.26	53155.03
610.46	53568.72
610.66	52901.08
610.85	53277.91
611.05	53109.97
611.25	53370.07
611.44	53408.98
611.64	53341.39
611.84	53783.76
612.03	53449.94
612.23	53712.08
612.43	53650.64
612.62	53572.81
612.82	53902.54
613.02	54031.56
613.21	53963.98
613.41	53611.73
613.61	54060.23
613.80	53241.04
614.00	54002.89
614.20	53974.22
614.39	53853.39
614.59	54172.87
614.79	53976.26
614.98	53703.88
615.18	54074.57
615.38	53998.79
615.57	54146.25
615.77	54226.12
615.97	54041.80
616.16	53837.00
616.36	54136.01
616.56	54228.16
616.75	53953.74
616.95	53931.21
617.15	53980.36
617.34	54394.05
617.54	53990.60
617.74	54369.47
617.93	54502.59
618.13	53920.97
618.32	54041.80
618.52	54029.51
618.72	54129.86
618.91	54078.66
619.11	54299.84
619.31	54353.09
619.50	54244.55
619.70	54015.18
619.90	54037.70
620.09	54469.82
620.29	54033.61
620.48	54066.38
620.68	54654.14
620.88	53859.53
621.07	54445.25
621.27	54254.79
621.46	54252.74
621.66	54439.11
621.86	54553.79
622.05	53955.78
622.25	54299.84
622.44	54107.33
622.64	53877.96
622.84	54287.56
623.03	54086.85
623.23	54549.70
623.42	53963.98
623.62	54623.42
623.82	54361.28
624.01	54336.71
624.21	54369.47
624.40	54074.57
624.60	54039.75
624.80	54187.21
624.99	54224.07
625.19	53589.20
625.38	53937.35
625.58	54353.09
625.77	54449.35
625.97	54308.04
626.17	53966.02
626.36	53992.65
626.56	54633.66
626.75	53871.82
626.95	54686.91
627.14	54045.90
627.34	54629.57
627.54	54289.60
627.73	54742.20
627.93	54555.84
628.12	54031.56
628.32	54136.01
628.51	54369.47
628.71	54285.51
628.90	54518.98
629.10	54072.52
629.30	54088.90
629.49	53990.60
629.69	54314.18
629.88	53920.97
630.08	54342.85
630.27	54152.39
630.47	54058.18
630.66	54115.53
630.86	54457.54
631.05	53822.67
631.25	54451.39
631.44	54293.70
631.64	54103.24
631.84	53906.63
632.03	54674.62
632.23	54322.37
632.42	54471.87
632.62	54187.21
632.81	53992.65
633.01	54199.49
633.20	54203.59
633.40	54457.54
633.59	54041.80
633.79	53982.41
633.98	54097.09
634.18	54138.05
634.37	53925.07
634.57	53486.80
634.76	54006.98
634.96	53902.54
635.15	54179.01
635.35	54049.99
635.54	53736.65
635.74	54240.45
635.93	53732.56
636.13	54236.36
636.32	54369.47
636.52	53953.74
636.71	53959.88
636.91	54113.48
637.10	54432.96
637.30	54070.47
637.49	53777.61
637.69	53705.93
637.88	54566.08
638.08	53937.35
638.27	53882.06
638.46	53888.20
638.66	53232.85
638.85	53779.66
639.05	53990.60
639.24	54099.14
639.44	53732.56
639.63	53818.57
639.83	53857.48
640.02	53894.35
640.22	53769.42
640.41	54289.60
640.61	53064.92
640.80	53617.87
640.99	53718.22
641.19	54627.52
641.38	53972.17
641.58	54015.18
641.77	54047.94
641.97	53591.25
642.16	53243.09
642.36	53730.51
642.55	54254.79
642.74	53130.45
642.94	54478.02
643.13	53480.66
643.33	53894.35
643.52	53877.96
643.72	54232.26
643.91	54009.03
644.10	53699.79
644.30	53974.22
644.49	53507.28
644.69	53857.48
644.88	53599.44
645.08	53118.17
645.27	53812.43
645.46	53351.63
645.66	53691.60
645.85	53730.51
646.05	54062.28
646.24	54203.59
646.43	53568.72
646.63	53978.31
646.82	54095.05
647.02	53730.51
647.21	54072.52
647.40	54348.99
647.60	54181.06
647.79	53980.36
647.99	54219.97
648.18	53494.99
648.37	54054.09
648.57	54052.04
648.76	53621.97
648.96	54070.47
649.15	54129.86
649.34	53943.50
649.54	53515.47
649.73	53511.38
649.92	53894.35
650.12	53935.30
650.31	54187.21
650.51	54146.25
650.70	53863.63
650.89	54029.51
651.09	54510.78
651.28	53673.16
651.47	53775.56
651.67	54113.48
651.86	53859.53
652.06	53474.51
652.25	53904.59
652.44	53513.42
652.64	53638.35
652.83	53890.25
653.02	53107.93
653.22	53966.02
653.41	53325.01
653.60	53378.26
653.80	53552.33
653.99	53787.85
654.18	53589.20
654.38	53443.79
654.57	53966.02
654.76	53777.61
654.96	53322.96
655.15	53511.38
655.34	53689.55
655.54	53028.05
655.73	53060.82
655.92	53695.69
656.12	53335.25
656.31	53372.11
656.50	53855.43
656.70	53724.36
656.89	53527.76
657.08	53632.21
657.28	53904.59
657.47	53628.11
657.66	53697.74
657.86	53058.77
658.05	53617.87
658.24	53460.18
658.43	53382.35
658.63	53687.50
658.82	53736.65
659.01	53691.60
659.21	53511.38
659.40	53691.60
659.59	53382.35
659.79	53662.93
659.98	53904.59
660.17	53646.54
660.36	53400.79
660.56	53544.14
660.75	53664.97
660.94	53466.32
661.14	53359.83
661.33	53523.66
661.52	53245.14
661.71	53456.08
661.91	53007.58
662.10	53294.29
662.29	53828.81
662.49	53669.07
662.68	53382.35
662.87	53583.05
663.06	53761.23
663.26	53517.52
663.45	54031.56
663.64	53347.54
663.83	53884.11
664.03	53540.05
664.22	53402.83
664.41	53507.28
664.60	53363.92
664.80	53806.28
664.99	53529.81
665.18	53468.37
665.37	53617.87
665.57	53859.53
665.76	53236.95
665.95	53595.34
666.14	53343.44
666.34	53732.56
666.53	53408.98
666.72	53568.72
666.91	53251.28
667.11	53114.07
667.30	53163.22
667.49	53470.42
667.68	53427.41
667.87	53261.52
668.07	53689.55
668.26	53415.12
668.45	53548.24
668.64	53206.23
668.84	53914.83
669.03	53728.46
669.22	53691.60
669.41	53531.86
669.60	53824.71
669.80	53282.00
669.99	53492.94
670.18	53372.11
670.37	53499.09
670.57	53982.41
670.76	53345.49
670.95	53701.84
671.14	53861.58
671.33	53241.04
671.53	53769.42
671.72	53552.33
671.91	53472.46
672.10	53116.12
672.29	53376.21
672.48	53738.70
672.68	53667.02
672.87	53662.93
673.06	53298.39
673.25	53527.76
673.44	53216.47
673.64	53169.36
673.83	53279.96
674.02	53314.77
674.21	53269.72
674.40	53273.81
674.59	53474.51
674.79	53253.33
674.98	53265.62
675.17	53386.45
675.36	53349.59
675.55	53501.14
675.74	53261.52
675.94	53218.52
676.13	53826.76
676.32	53646.54
676.51	53867.72
676.70	53757.13
676.89	53523.66
677.08	53740.75
677.28	53206.23
677.47	53908.68
677.66	53683.40
677.85	53511.38
678.04	53826.76
678.23	53527.76
678.42	53576.91
678.62	53531.86
678.81	54039.75
679.00	53220.56
679.19	54461.63
679.38	53521.62
679.57	53368.02
679.76	53359.83
679.96	53548.24
680.15	53607.63
680.34	53521.62
680.53	53388.50
680.72	53968.07
680.91	53982.41
681.10	54009.03
681.29	53773.52
681.48	53480.66
681.68	53554.38
681.87	53912.78
682.06	53931.21
682.25	53368.02
682.44	53445.84
682.63	53765.32
682.82	53417.17
683.01	53499.09
683.20	53497.04
683.39	53376.21
683.59	53568.72
683.78	53322.96
683.97	53361.87
684.16	53519.57
684.35	53386.45
684.54	53693.64
684.73	53245.14
684.92	53259.48
685.11	53806.28
685.30	52843.74
685.49	53648.59
685.69	53109.97
685.88	53105.88
686.07	53771.47
686.26	53613.77
686.45	53542.10
686.64	53804.24
686.83	53621.97
687.02	53585.10
687.21	53636.30
687.40	53744.84
687.59	53472.46
687.78	53259.48
687.97	53777.61
688.16	53445.84
688.35	53419.22
688.54	53202.13
688.74	53564.62
688.93	53120.21
689.12	53468.37
689.31	53632.21
689.50	53542.10
689.69	53257.43
689.88	52851.93
690.07	53597.39
690.26	53343.44
690.45	53882.06
690.64	53349.59
690.83	53413.07
691.02	53023.96
691.21	53058.77
691.40	53181.65
691.59	53089.49
691.78	53116.12
691.97	53427.41
692.16	53441.74
692.35	53320.91
692.54	53738.70
692.73	53515.47
692.92	53380.31
693.11	53462.22
693.30	53361.87
693.49	53863.63
693.68	53343.44
693.87	53128.41
694.06	53036.25
694.25	53138.65
694.44	52870.36
694.63	53286.10
694.82	53691.60
695.01	53624.01
695.20	53220.56
695.39	53155.03
695.58	53177.56
695.77	53220.56
695.96	52876.51
696.15	53335.25
696.34	52958.42
696.53	53357.78
696.72	53380.31
696.91	53179.60
697.10	53744.84
697.29	52911.32
697.48	53628.11
697.67	52813.02
697.86	52970.71
698.05	52993.24
698.24	53540.05
698.43	52839.64
698.62	53425.36
698.81	53026.01
699.00	53382.35
699.19	52839.64
699.38	53650.64
699.57	52776.15
699.76	52974.81
699.95	52950.23
700.14	53277.91
700.32	52958.42
700.51	52913.37
700.70	53361.87
700.89	53374.16
701.08	53247.19
701.27	52901.08
701.46	52976.86
701.65	52999.38
701.84	52896.98
702.03	52921.56
702.22	53083.35
702.41	53255.38
702.60	52796.63
702.79	52702.43
702.98	52733.15
703.17	52888.79
703.35	52677.85
703.54	52532.45
703.73	52733.15
703.92	52778.20
704.11	52671.71
704.30	52372.70
704.49	52684.00
704.68	52108.52
704.87	52960.47
705.06	52757.72
705.25	52679.90
705.43	52640.99
705.62	52761.82
705.81	52360.42
706.00	52335.84
706.19	52204.77
706.38	52442.34
706.57	52747.48
706.76	52110.56
706.95	52755.68
707.14	52722.91
707.32	52399.33
707.51	52595.93
707.70	52704.48
707.89	52442.34
708.08	52382.94
708.27	52591.84
708.46	52892.89
708.65	52516.06
708.84	52444.38
709.02	52569.31
709.21	52739.29
709.40	52180.20
709.59	52151.52
709.78	52280.55
709.97	52018.41
710.16	52077.80
710.34	52362.46
710.53	52450.53
710.72	52040.93
710.91	52405.47
711.10	52311.27
711.29	51959.02
711.48	52378.85
711.66	52268.26
711.85	51885.29
712.04	52049.13
712.23	52032.74
712.42	52210.92
712.61	51795.18
712.80	51991.78
712.98	51864.81
713.17	51748.07
713.36	51832.04
713.55	51909.86
713.74	52153.57
713.93	52141.28
714.11	51791.08
714.30	51506.41
714.49	51440.88
714.68	51791.08
714.87	51729.64
715.06	51868.90
715.24	51657.96
715.43	51625.20
715.62	51283.19
715.81	51598.57
716.00	51770.60
716.18	51434.74
716.37	51637.48
716.56	51426.54
716.75	51660.01
716.94	51197.17
717.12	50803.96
717.31	51100.92
717.50	51342.58
717.69	51092.72
717.88	51100.92
718.06	51303.67
718.25	51381.49
718.44	50846.97
718.63	51100.92
718.82	50664.70
719.00	51039.48
719.19	50877.69
719.38	50842.87
719.57	50480.38
719.76	50277.63
719.94	50058.50
720.13	50371.84
720.32	50459.90
720.51	50627.84
720.69	50427.13
720.88	50220.29
721.07	50212.10
721.26	49890.57
721.44	49700.11
721.63	50171.14
721.82	49816.84
722.01	49755.40
722.20	50078.98
722.38	49724.68
722.57	49198.35
722.76	49661.19
722.95	49747.21
723.13	49497.36
723.32	49251.60
723.51	49691.91
723.70	49454.35
723.88	49354.00
724.07	49308.94
724.26	49689.87
724.44	48516.38
724.63	49276.18
724.82	49351.95
725.01	49126.67
725.19	49104.15
725.38	49419.53
725.57	49011.99
725.76	49607.95
725.94	48739.61
726.13	48870.68
726.32	48669.98
726.51	48792.86
726.69	49069.33
726.88	49435.92
727.07	48860.44
727.25	48590.11
727.44	48526.62
727.63	48504.09
727.82	48495.90
728.00	48698.65
728.19	48805.14
728.38	49198.35
728.56	48373.02
728.75	48913.69
728.94	48217.38
729.12	48817.43
729.31	48692.50
729.50	48416.03
729.69	48981.27
729.87	48403.74
730.06	48244.00
730.25	48244.00
730.43	48577.82
730.62	48268.58
730.81	48700.70
730.99	48565.53
731.18	48278.82
731.37	48665.88
731.55	48172.32
731.74	48725.27
731.93	48594.20
732.11	48786.71
732.30	48428.32
732.49	48440.60
732.67	47945.00
732.86	48248.10
733.05	48174.37
733.23	47971.62
733.42	47654.18
733.61	48354.59
733.79	48350.49
733.98	48323.87
734.17	48340.25
734.35	48256.29
734.54	48282.91
734.73	48276.77
734.91	47985.96
735.10	47555.88
735.29	47981.86
735.47	47645.99
735.66	47500.59
735.84	47539.50
736.03	47926.56
736.22	48360.73
736.40	47697.19
736.59	47836.45
736.78	47430.96
736.96	47291.69
737.15	47727.91
737.33	47338.80
737.52	47435.05
737.71	47326.51
737.89	47387.95
738.08	47365.42
738.27	46992.69
738.45	47592.75
738.64	47363.37
738.82	47453.48
739.01	46986.55
739.20	47383.85
739.38	47021.36
739.57	47471.92
739.75	47164.72
739.94	47170.86
740.13	47363.37
740.31	46855.48
740.50	46970.16
740.68	46769.46
740.87	46824.76
741.06	46994.74
741.24	46779.70
741.43	46751.03
741.61	46925.11
741.80	46511.42
741.99	46486.84
742.17	46656.82
742.36	46923.06
742.54	46679.35
742.73	46484.79
742.91	46298.43
743.10	46419.26
743.29	46435.64
743.47	46423.36
743.66	46347.58
743.84	46212.41
744.03	46169.41
744.21	45950.27
744.40	46841.14
744.59	46120.26
744.77	45966.66
744.96	46277.95
745.14	46011.71
745.33	46245.18
745.51	45880.64
745.70	45815.11
745.88	45534.54
746.07	45747.53
746.26	45679.94
746.44	45804.87
746.63	45770.05
746.81	45739.33
747.00	45610.31
747.18	45757.77
747.37	45380.94
747.55	45610.31
747.74	45823.30
747.92	45116.75
748.11	45448.52
748.29	45446.47
748.48	45122.90
748.66	45067.60
748.85	45155.66
749.03	45172.05
749.22	45026.64
749.41	45006.16
749.59	44717.40
749.78	44496.22
749.96	44676.44
750.15	44553.56
750.33	44821.84
750.52	44668.25
750.70	44653.91
750.89	44424.54
751.07	44672.34
751.26	44645.72
751.44	44639.57
751.63	44117.34
751.81	44262.75
752.00	44184.93
752.18	44416.35
752.37	44332.38
752.55	43578.73
752.74	43844.96
752.92	44150.11
753.10	43908.45
753.29	43978.08
753.47	43617.64
753.66	43523.43
753.84	43910.50
754.03	43492.71
754.21	43668.84
754.40	43658.60
754.58	43652.45
754.77	43285.87
754.95	43218.28
755.14	43595.11
755.32	43591.01
755.51	43212.14
755.69	43443.56
755.88	43447.66
756.06	43234.67
756.24	43476.33
756.43	43261.29
756.61	43365.74
756.80	42904.95
756.98	43150.70
757.17	43191.66
757.35	42997.10
757.54	42747.25
757.72	43058.54
757.90	42675.57
758.09	42771.83
758.27	42671.48
758.46	42999.15
758.64	42644.85
758.83	42796.40
759.01	42753.40
759.19	42782.07
759.38	42511.74
759.56	42673.52
759.75	42661.24
759.93	42192.25
760.12	42284.41
760.30	42268.03
760.48	42173.82
760.67	42220.92
760.85	42259.84
761.04	42433.91
761.22	42493.30
761.40	42173.82
761.59	41944.45
761.77	41704.84
761.96	41880.96
762.14	41758.08
762.32	41760.13
762.51	41522.57
762.69	41602.44
762.88	41561.48
763.06	41217.42
763.24	41620.87
763.43	41708.93
763.61	41592.20
763.80	41549.19
763.98	41399.69
764.16	41170.32
764.35	41438.60
764.53	40914.32
764.72	41016.72
764.90	41317.77
765.08	41104.78
765.27	41274.76
765.45	41033.10
765.63	40326.55
765.82	40781.20
766.00	40492.44
766.18	40897.94
766.37	40844.69
766.55	40779.15
766.74	40996.24
766.92	40002.97
767.10	40695.19
767.29	40461.72
767.47	39880.10
767.65	40461.72
767.84	39859.62
768.02	40301.98
768.20	39890.34
768.39	40211.87
768.57	40297.88
768.75	40234.39
768.94	40136.09
769.12	40342.94
769.30	39425.45
769.49	39622.05
769.67	39714.21
769.85	39663.01
770.04	39562.66
770.22	39673.25
770.40	39220.65
770.59	39482.79
770.77	39773.60
770.95	39511.46
771.14	39048.62
771.32	39077.29
771.50	39032.24
771.69	38663.60
771.87	39273.90
772.05	39148.97
772.24	38649.27
772.42	39169.45
772.60	38571.44
772.78	38735.28
772.97	38739.38
773.15	38620.59
773.33	38905.26
773.52	38620.59
773.70	38852.02
773.88	38577.59
774.07	38313.40
774.25	38739.38
774.43	39060.91
774.61	38923.69
774.80	38976.94
774.98	38845.87
775.16	38903.21
775.34	38995.37
775.53	38430.13
775.71	38847.92
775.89	38514.10
776.08	38884.78
776.26	38663.60
776.44	38507.96
776.62	38931.89
776.81	38593.97
776.99	39155.11
777.17	38884.78
777.35	38770.10
777.54	39079.34
777.72	38378.93
777.90	38763.95
778.08	38991.28
778.27	38948.27
778.45	38874.54
778.63	39253.42
778.81	38948.27
779.00	39273.90
779.18	38856.11
779.36	39515.56
779.54	39202.22
779.73	38968.75
779.91	39251.37
780.09	38976.94
780.27	39548.32
780.46	38946.22
780.64	39753.12
780.82	39060.91
781.00	39306.66
781.19	39511.46
781.37	39632.29
781.55	39390.63
781.73	39654.82
781.91	39171.50
782.10	39173.55
782.28	39527.84
782.46	39210.41
782.64	39695.78
782.82	39253.42
783.01	39462.31
783.19	39493.03
783.37	39433.64
783.55	39306.66
783.74	39579.04
783.92	39284.14
784.10	39617.96
784.28	39490.98
784.46	39181.74
784.64	39533.99
784.83	39343.53
785.01	40066.46
785.19	39452.07
785.37	39161.26
785.55	39720.35
785.74	39226.79
785.92	38897.07
786.10	39339.43
786.28	39556.52
786.46	39140.78
786.64	39206.31
786.83	38978.99
787.01	39392.68
787.19	39237.03
787.37	39116.20
787.55	39290.28
787.74	38798.77
787.92	38839.73
788.10	38968.75
788.28	38591.92
788.46	39099.82
788.64	38925.74
788.82	39017.90
789.01	38972.85
789.19	39157.16
789.37	38997.42
789.55	38712.75
789.73	38507.96
789.91	38499.76
790.09	38432.18
790.28	38305.21
790.46	38034.88
790.64	38884.78
790.82	38145.47
791.00	38262.20
791.18	38229.43
791.36	38204.86
791.55	38147.51
791.73	37825.98
791.91	37877.18
792.09	37828.03
792.27	37365.19
792.45	37854.65
792.63	37627.33
792.81	37533.12
793.00	37342.66
793.18	37365.19
793.36	37416.39
793.54	37483.97
793.72	37156.30
793.90	37131.72
794.08	36898.25
794.26	36922.83
794.44	36931.02
794.62	36603.35
794.81	36971.98
794.99	36988.36
795.17	36509.14
795.35	36644.30
795.53	36568.53
795.71	36845.01
795.89	36115.93
796.07	36210.14
796.25	36365.78
796.43	36150.74
796.61	35870.17
796.80	35870.17
796.98	35575.27
797.16	35773.92
797.34	35644.90
797.52	35708.38
797.70	35894.75
797.88	35382.76
798.06	35380.71
798.24	35448.29
798.42	35538.40
798.60	35204.58
798.78	34995.69
798.96	35159.53
799.14	35028.46
799.32	35130.86
799.51	34702.83
799.69	34915.82
799.87	34819.56
800.05	34932.20
800.23	34747.89
800.41	34608.62
800.59	34848.24
800.77	34536.94
800.95	34153.97
801.13	34622.96
801.31	34276.85
801.49	34395.64
801.67	34156.02
801.85	34174.45
802.03	34586.10
802.21	33762.81
802.39	33629.69
802.57	33740.29
802.75	33709.57
802.93	33684.99
803.11	33635.84
803.29	33390.08
803.47	33205.77
803.65	33570.30
803.83	33369.60
804.01	33367.55
804.19	33074.70
804.37	33043.98
804.55	33373.70
804.73	33316.36
804.91	32859.66
805.09	33105.41
805.27	32683.53
805.45	32816.65
805.63	33299.97
805.81	32648.72
805.99	32673.29
806.17	33105.41
806.35	32452.11
806.53	32290.32
806.71	32704.01
806.89	32431.63
807.07	32275.99
807.25	32521.74
807.43	32083.48
807.61	32392.72
807.79	31909.40
807.97	31743.52
808.15	32009.75
808.33	32001.56
808.51	31761.95
808.69	31702.56
808.87	31239.72
809.05	31362.59
809.23	31594.01
809.41	31512.10
809.59	31450.66
809.77	31831.58
809.95	31399.46
810.13	31469.09
810.31	31258.15
810.49	31362.59
810.67	31331.87
810.84	31004.20
811.02	31434.27
811.20	30762.54
811.38	31100.45
811.56	30469.68
811.74	30963.24
811.92	30809.64
812.10	30590.51
812.28	30830.12
812.46	30686.76
812.64	30627.37
812.82	30903.85
813.00	30242.35
813.18	30678.57
813.36	30400.05
813.53	30125.62
813.71	30621.23
813.89	30496.30
814.07	30412.34
814.25	30311.99
814.43	30211.64
814.61	30258.74
814.79	30520.88
814.97	29965.88
815.15	30277.17
815.33	29711.93
815.50	29732.41
815.68	29908.54
815.86	30096.95
816.04	29496.89
816.22	29566.52
816.40	29685.31
816.58	29552.19
816.76	29374.02
816.94	29544.00
817.11	29591.10
817.29	29255.23
817.47	29294.14
817.65	29296.19
817.83	29523.52
818.01	29093.44
818.19	29195.84
818.37	29173.31
818.54	28800.58
818.72	28919.37
818.90	29005.38
819.08	28778.06
819.26	28804.68
819.44	28646.99
819.62	28917.32
819.80	28726.86
819.97	28608.08
820.15	28595.79
820.33	28511.82
820.51	28743.24
820.69	28374.61
820.87	28995.14
821.05	28575.31
821.22	28370.51
821.40	28477.01
821.58	28288.59
821.76	28472.91
821.94	28163.67
822.12	28202.58
822.29	28491.34
822.47	27942.49
822.65	28884.55
822.83	28085.84
823.01	28106.32
823.19	27954.77
823.36	27930.20
823.54	27919.96
823.72	27975.25
823.90	27852.38
824.08	27625.05
824.25	28036.69
824.43	28003.92
824.61	27997.78
824.79	28077.65
824.97	27741.78
825.15	27876.95
825.32	27553.37
825.50	27383.39
825.68	27500.12
825.86	27731.54
826.04	27850.33
826.21	27530.84
826.39	27532.89
826.57	27334.24
826.75	27258.46
826.93	27227.74
827.10	27219.55
827.28	27342.43
827.46	27461.21
827.64	27016.80
827.81	27108.96
827.99	27360.86
828.17	27090.53
828.35	26793.58
828.53	26783.34
828.70	26947.17
828.88	26662.51
829.06	27149.92
829.24	26955.36
829.41	27037.28
829.59	27283.04
829.77	26607.21
829.95	26650.22
830.12	27025.00
830.30	27072.10
830.48	26789.48
830.66	26670.70
830.84	26711.66
831.01	26445.42
831.19	26740.33
831.37	26478.19
831.55	26629.74
831.72	26482.28
831.90	26508.91
832.08	25927.28
832.25	26279.54
832.43	26275.44
832.61	26242.67
832.79	26181.23
832.96	26013.30
833.14	26388.08
833.32	26066.55
833.50	26449.52
833.67	26478.19
833.85	26357.36
834.03	25581.18
834.20	26138.23
834.38	26191.47
834.56	26304.11
834.74	25970.29
834.91	25998.96
835.09	25980.53
835.27	25400.96
835.44	26033.78
835.62	25624.18
835.80	25411.20
835.98	25992.82
836.15	25644.66
836.33	25345.66
836.51	25796.21
836.68	25745.02
836.86	25622.14
837.04	25745.02
837.21	25345.66
837.39	25648.76
837.57	25790.07
837.75	25908.85
837.92	25476.73
838.10	25357.95
838.28	25220.74
838.45	25181.82
838.63	24981.12
838.81	25298.56
838.98	25228.93
839.16	24915.59
839.34	24970.88
839.51	25058.95
839.69	25030.27
839.87	24807.05
840.04	25247.36
840.22	25192.06
840.40	25046.66
840.57	25048.71
840.75	25011.84
840.93	24682.12
841.10	25013.89
841.28	24968.84
841.46	24782.47
841.63	25003.65
841.81	24854.15
841.98	24778.37
842.16	24780.42
842.34	24893.06
842.51	24383.12
842.69	24737.41
842.87	24495.75
843.04	24917.64
843.22	24839.81
843.40	24315.53
843.57	24381.07
843.75	24516.23
843.92	24376.97
844.10	24551.05
844.28	24596.10
844.45	24612.49
844.63	24577.67
844.81	24231.57
844.98	24352.40
845.16	24264.33
845.33	24274.57
845.51	24118.93
845.69	24077.97
845.86	24151.70
846.04	24075.92
846.21	24147.60
846.39	24086.16
846.57	23910.04
846.74	23987.86
846.92	24020.63
847.09	23781.01
847.27	23867.03
847.45	23879.32
847.62	23768.73
847.80	23752.34
847.97	23809.68
848.15	23959.19
848.32	23731.86
848.50	23826.07
848.68	23527.06
848.85	23326.36
849.03	23619.22
849.20	23817.88
849.38	23352.99
849.56	23584.41
849.73	23563.93
849.91	23684.76
850.08	23385.76
850.26	23457.43
850.43	23580.31
850.61	23580.31
850.78	23269.02
850.96	23418.52
851.14	23166.62
851.31	23449.24
851.49	23117.47
851.66	23357.08
851.84	23348.89
852.01	23381.66
852.19	23217.82
852.36	23084.70
852.54	22976.16
852.71	23183.01
852.89	23086.75
853.07	22912.67
853.24	23029.41
853.42	22941.35
853.59	22894.24
853.77	22941.35
853.94	22797.99
854.12	22830.76
854.29	22873.76
854.47	22820.52
854.64	22767.27
854.82	22859.43
854.99	22927.01
855.17	22671.01
855.34	22613.67
855.52	22677.16
855.69	22738.60
855.87	22453.93
856.04	22589.10
856.22	22613.67
856.39	22324.91
856.57	22488.74
856.74	22443.69
856.92	22357.67
857.09	22034.10
857.27	22226.60
857.44	22228.65
857.62	22191.79
857.79	22197.93
857.97	22134.45
858.14	22296.24
858.32	22095.53
858.49	21986.99
858.67	21952.18
858.84	22230.70
859.02	22048.43
859.19	22159.02
859.37	22116.01
859.54	21784.24
859.72	22058.67
859.89	21788.34
860.06	22113.97
860.24	21833.39
860.41	21989.04
860.59	21677.75
860.76	21972.66
860.94	21376.70
861.11	21694.13
861.29	21673.65
861.46	21630.65
861.64	21200.57
861.81	21511.86
861.98	21587.64
862.16	21294.78
862.33	21184.19
862.51	21204.67
862.68	21800.63
862.86	21262.01
863.03	21405.37
863.21	21257.92
863.38	21362.36
863.55	21376.70
863.73	21278.40
863.90	21366.46
864.08	20987.58
864.25	21323.45
864.43	21339.83
864.60	21173.95
864.77	21042.88
864.95	20991.68
865.12	20944.58
865.30	21104.32
865.47	20629.19
865.64	20879.04
865.82	21085.89
865.99	21081.79
866.17	20993.73
866.34	20887.23
866.51	20473.54
866.69	20600.52
866.86	20745.92
867.04	20608.71
867.21	20534.98
867.38	20420.30
867.56	20264.65
867.73	20317.90
867.91	20623.05
868.08	20623.05
868.25	20319.95
868.43	20256.46
868.60	20262.60
868.78	20121.29
868.95	20215.50
869.12	20424.39
869.30	20123.34
869.47	20215.50
869.64	19959.50
869.82	20066.00
869.99	20012.75
870.16	20158.16
870.34	19779.28
870.51	20096.72
870.69	19797.71
870.86	20244.17
871.03	19687.12
871.21	19801.81
871.38	20033.23
871.55	19719.89
871.73	19480.28
871.90	19615.44
872.07	19648.21
872.25	19613.40
872.42	19611.35
872.59	19375.83
872.77	19568.34
872.94	19291.87
873.11	19367.64
873.29	19400.41
873.46	19314.39
873.63	19158.75
873.81	19232.47
873.98	19007.20
874.15	19314.39
874.33	18845.41
874.50	18818.78
874.67	18925.28
874.85	18798.31
875.02	18880.22
875.19	18865.89
875.37	18736.87
875.54	18706.15
875.71	18829.02
875.88	18595.56
876.06	19023.58
876.23	18855.65
876.40	18476.77
876.58	18802.40
876.75	18585.32
876.92	18444.01
877.10	18448.10
877.27	18362.09
877.44	18433.77
877.61	18335.46
877.79	18304.74
877.96	18366.18
878.13	18421.48
878.31	18020.08
878.48	18030.32
878.65	18124.52
878.82	18083.56
879.00	18005.74
879.17	18255.59
879.34	18093.80
879.51	17706.74
879.69	17866.48
879.86	17805.04
880.03	17854.19
880.21	17778.42
880.38	17737.46
880.55	17919.73
880.72	17442.55
880.90	17657.59
881.07	17587.96
881.24	17663.73
881.41	17676.02
881.59	17835.76
881.76	17622.77
881.93	17442.55
882.10	17243.90
882.28	17481.46
882.45	17633.01
882.62	17075.96
882.79	17247.99
882.96	17149.69
883.14	17327.86
883.31	17387.25
883.48	17170.17
883.65	17270.52
883.83	17368.82
884.00	17286.90
884.17	17026.81
884.34	17061.63
884.51	16922.37
884.69	16799.49
884.86	17016.57
885.03	16992.00
885.20	16535.30
885.38	17067.77
885.55	16836.35
885.72	17137.40
885.89	16760.58
886.06	16889.60
886.24	16670.47
886.41	16801.54
886.58	16899.84
886.75	16922.37
886.92	16803.58
887.10	16822.02
887.27	16396.04
887.44	16807.68
887.61	16666.37
887.78	16776.96
887.95	16486.15
888.13	16277.26
888.30	16500.48
888.47	16447.24
888.64	16502.53
888.81	16625.41
888.99	16346.89
889.16	16361.22
889.33	16248.58
889.50	16111.37
889.67	16203.53
889.84	16076.55
890.01	16199.43
890.19	16031.50
890.36	16236.30
890.53	16004.88
890.70	16131.85
890.87	15965.96
891.04	16121.61
891.22	16039.69
891.39	16213.77
891.56	15834.89
891.73	15777.55
891.90	15918.86
892.07	15726.35
892.24	15789.84
892.42	15537.94
892.59	15656.72
892.76	15724.30
892.93	15535.89
893.10	15593.23
893.27	15621.91
893.44	15376.15
893.61	15511.32
893.79	15382.29
893.96	15724.30
894.13	15648.53
894.30	15589.14
894.47	15480.60
894.64	15832.85
894.81	15449.88
894.98	15544.08
895.15	15552.27
895.33	15585.04
895.50	15548.18
895.67	15605.52
895.84	15580.95
896.01	15290.13
896.18	15429.40
896.35	15496.98
896.52	15281.94
896.69	15140.63
896.86	15593.23
897.04	15501.08
897.21	15341.33
897.38	15378.20
897.55	15251.22
897.72	15318.81
897.89	15343.38
898.06	15339.29
898.23	15269.66
898.40	15269.66
898.57	15101.72
898.74	15318.81
898.91	15122.20
899.08	15101.72
899.26	15230.74
899.43	15085.34
899.60	15040.28
899.77	15257.37
899.94	15136.54
900.11	15095.58
900.28	14991.13
900.45	15013.66
900.62	15165.21
900.79	15298.33
900.96	15234.84
901.13	15148.82
901.30	15034.14
901.47	14901.02
901.64	15064.86
901.81	15189.78
901.98	14796.57
902.15	15300.37
902.32	15122.20
902.49	15109.91
902.66	15159.06
902.83	15101.72
903.01	15138.58
903.18	14905.12
903.35	15011.61
903.52	15116.06
903.69	15077.15
903.86	15068.95
904.03	15257.37
904.20	15341.33
904.37	15220.50
904.54	14890.78
904.71	15038.23
904.88	14823.20
905.05	14976.80
905.22	14935.84
905.39	14827.29
905.56	14944.03
905.73	14827.29
905.90	14956.32
906.07	14923.55
906.24	15179.54
906.41	15191.83
906.58	15202.07
906.75	15165.21
906.92	14731.04
907.09	14995.23
907.26	15152.92
907.43	14858.01
907.60	14851.87
907.77	15040.28
907.93	14948.12
908.10	14884.64
908.27	15173.40
908.44	14679.84
908.61	14552.87
908.78	14819.10
908.95	14866.21
909.12	14784.29
909.29	14749.47
909.46	14624.54
909.63	14804.77
909.80	14921.50
909.97	14862.11
910.14	14620.45
910.31	14786.33
910.48	14941.98
910.65	14700.32
910.82	14622.50
910.99	14704.42
911.16	14681.89
911.33	14767.90
911.50	14518.05
911.66	14548.77
911.83	14667.55
912.00	14534.43
912.17	14456.61
912.34	14284.58
912.51	14337.83
912.68	14210.86
912.85	14298.92
913.02	14305.06
913.19	14149.42
913.36	14423.84
913.53	14343.97
913.70	14085.93
913.86	14210.86
914.03	14081.83
914.20	14116.65
914.37	14227.24
914.54	14143.27
914.71	14169.90
914.88	13967.15
915.05	14018.35
915.22	13958.96
915.39	13743.92
915.55	14204.71
915.72	13905.71
915.89	13823.79
916.06	13760.30
916.23	13709.10
916.40	13625.14
916.57	13772.59
916.74	13606.70
916.91	13434.68
917.07	13621.04
917.24	13414.20
917.41	13563.70
917.58	13479.73
917.75	13391.67
917.92	13319.99
918.09	13274.93
918.26	13334.32
918.42	13313.84
918.59	13201.21
918.76	13193.01
918.93	12949.31
919.10	12879.68
919.27	13182.77
919.44	13315.89
919.60	13082.42
919.77	13053.75
919.94	12971.83
920.11	12959.55
920.28	12904.25
920.45	12957.50
920.61	12744.51
920.78	12611.39
920.95	12644.16
921.12	12724.03
921.29	12410.69
921.46	12447.55
921.62	12404.55
921.79	12525.38
921.96	12537.66
922.13	12275.52
922.30	12296.00
922.47	12386.12
922.63	12255.04
922.80	12302.15
922.97	11988.81
923.14	11982.67
923.31	12035.91
923.47	11820.88
923.64	12265.28
923.81	11847.50
923.98	12058.44
924.15	11638.61
924.32	11837.26
924.48	11777.87
924.65	11792.20
924.82	11583.31
924.99	11573.07
925.15	11585.36
925.32	11458.39
925.49	11564.88
925.66	11247.44
925.83	11503.44
925.99	11284.31
926.16	11378.51
926.33	11384.66
926.50	11368.27
926.67	11233.11
926.83	11202.39
927.00	11089.75
927.17	10884.95
927.34	11112.28
927.50	10874.71
927.67	11169.62
927.84	10776.41
928.01	10751.84
928.17	10753.88
928.34	10792.80
928.51	10606.43
928.68	10602.33
928.84	10420.06
929.01	10538.85
929.18	10217.32
929.35	10368.87
929.51	10497.89
929.68	10159.97
929.85	10323.81
930.02	10213.22
930.18	10368.87
930.35	10039.14
930.52	10024.81
930.69	10297.19
930.85	10057.57
931.02	9924.46
931.19	10082.15
931.36	9867.11
931.52	10176.36
931.69	10051.43
931.86	9936.74
932.02	9680.75
932.19	9736.04
932.36	9676.65
932.53	9686.89
932.69	9523.05
932.86	9742.19
933.03	9494.38
933.19	9373.55
933.36	9297.78
933.53	9650.03
933.70	9367.41
933.86	9400.18
934.03	9183.09
934.20	9152.37
934.36	9236.34
934.53	8867.70
934.70	9039.73
934.86	8925.05
935.03	8744.83
935.20	8732.54
935.36	8759.16
935.53	8738.68
935.70	8576.89
935.86	8726.39
936.03	8253.31
936.20	8425.34
936.36	8349.57
936.53	8195.97
936.70	8224.64
936.86	8208.26
937.03	8124.29
937.20	7858.06
937.36	8112.00
937.53	7767.95
937.70	7769.99
937.86	7628.68
938.03	7616.40
938.20	7671.69
938.36	7325.58
938.53	7251.86
938.70	7159.70
938.86	7270.29
939.03	7286.67
939.20	7131.03
939.36	7014.29
939.53	7014.29
939.70	7108.50
939.86	6795.16
940.03	6829.98
940.19	6563.74
940.36	6569.88
940.53	6610.84
940.69	6430.62
940.86	6346.66
941.03	6209.44
941.19	6111.14
941.36	6281.12
941.52	6100.90
941.69	5924.77
941.86	6002.60
942.02	6053.80
942.19	5752.74
942.35	5918.63
942.52	5746.60
942.69	5752.74
942.85	5705.64
943.02	5640.11
943.18	5744.55
943.35	5570.48
943.52	5584.81
943.68	5537.71
943.85	5547.95
944.01	5541.80
944.18	5345.20
944.35	5449.64
944.51	5451.69
944.68	5400.49
944.84	5261.23
945.01	5367.73
945.17	5263.28
945.34	5345.20
945.51	5189.55
945.67	5238.70
945.84	5236.66
946.00	5222.32
946.17	5250.99
946.33	5103.54
946.50	5226.42
946.67	5195.70
946.83	5195.70
947.00	5203.89
947.16	4980.66
947.33	5107.63
947.49	5074.87
947.66	5128.11
947.82	5230.51
947.99	5126.07
948.16	5189.55
948.32	5126.07
948.49	5074.87
948.65	5189.55
948.82	5009.33
948.98	5046.20
949.15	5040.05
949.31	4992.95
949.48	5087.15
949.64	5076.91
949.81	5128.11
949.97	5111.73
950.14	5134.26
950.30	5001.14
950.47	5089.20
950.63	5074.87
950.80	5101.49
950.96	5146.55
951.13	5183.41
951.30	5070.77
951.46	5076.91
951.63	5183.41
951.79	5081.01
951.96	5230.51
952.12	5121.97
952.29	5255.09
952.45	5115.83
952.62	5181.36
952.78	5218.22
952.94	5173.17
953.11	5179.31
953.27	5046.20
953.44	5187.50
953.60	5246.90
953.77	5296.05
953.93	5107.63
954.10	5083.06
954.26	5189.55
954.43	5271.47
954.59	5359.53
954.76	5232.56
954.92	5195.70
955.09	5312.43
955.25	5205.94
955.42	5259.18
955.58	5377.97
955.75	5214.13
955.91	5181.36
956.07	5259.18
956.24	5189.55
956.40	5246.90
956.57	5466.03
956.73	5337.01
956.90	5312.43
957.06	5164.98
957.23	5351.34
957.39	5183.41
957.56	5337.01
957.72	5197.74
957.88	5242.80
958.05	5318.57
958.21	5320.62
958.38	5406.64
958.54	5363.63
958.71	5359.53
958.87	5312.43
959.03	5203.89
959.20	5380.01
959.36	5228.46
959.53	5173.17
959.69	5373.87
959.85	5353.39
960.02	5070.77
960.18	5271.47
960.35	5265.33
960.51	5306.29
960.68	5083.06
960.84	5099.44
961.00	5238.70
961.17	5355.44
961.33	5234.61
961.50	5285.81
961.66	5207.98
961.82	5222.32
961.99	5164.98
962.15	5207.98
962.31	5066.67
962.48	5283.76
962.64	5199.79
962.81	5259.18
962.97	5177.26
963.13	5240.75
963.30	5281.71
963.46	5136.31
963.62	5275.57
963.79	5132.21
963.95	5146.55
964.12	5228.46
964.28	5220.27
964.44	5152.69
964.61	5138.35
964.77	5224.37
964.93	5267.38
965.10	5160.88
965.26	4968.37
965.42	5109.68
965.59	5197.74
965.75	5117.87
965.92	5126.07
966.08	5234.61
966.24	5207.98
966.41	5132.21
966.57	5019.57
966.73	5218.22
966.90	5220.27
967.06	5105.59
967.22	5099.44
967.39	4904.89
967.55	4892.60
967.71	4990.90
967.88	4941.75
968.04	5007.28
968.20	5060.53
968.37	5023.67
968.53	5087.15
968.69	5101.49
968.85	4962.23
969.02	5097.39
969.18	4995.00
969.34	4939.70
969.51	5121.97
969.67	5011.38
969.83	4857.78
970.00	5058.48
970.16	4851.64
970.32	4878.26
970.48	5038.00
970.65	4876.21
970.81	4835.25
970.97	5050.29
971.14	4757.43
971.30	4974.52
971.46	4757.43
971.63	4716.47
971.79	4956.08
971.95	4835.25
972.11	4913.08
972.28	4784.06
972.44	4814.77
972.60	4908.98
972.76	4761.53
972.93	4638.65
973.09	4779.96
973.25	4784.06
973.42	4739.00
973.58	4671.42
973.74	4698.04
973.90	4835.25
974.07	4708.28
974.23	4730.81
974.39	4777.91
974.55	4648.89
974.72	4743.10
974.88	4485.05
975.04	4616.12
975.20	4728.76
975.37	4579.26
975.53	4700.09
975.69	4585.40
975.85	4513.72
976.01	4501.44
976.18	4435.90
976.34	4526.01
976.50	4657.08
976.66	4595.64
976.83	4573.11
976.99	4577.21
977.15	4599.74
977.31	4485.05
977.47	4556.73
977.64	4499.39
977.80	4431.80
977.96	4540.35
978.12	4468.67
978.29	4401.08
978.45	4417.47
978.61	4378.56
978.77	4403.13
978.93	4409.28
979.10	4329.41
979.26	4454.33
979.42	4360.13
979.58	4306.88
979.74	4370.37
979.91	4321.21
980.07	4386.75
980.23	4343.74
980.39	4272.06
980.55	4321.21
980.71	4427.71
980.88	4290.49
981.04	4409.28
981.20	4196.29
981.36	4329.41
981.52	4212.67
981.68	4253.63
981.85	4251.58
982.01	4220.86
982.17	4116.42
982.33	4235.20
982.49	4288.45
982.65	4159.42
982.82	4220.86
982.98	4247.49
983.14	4093.89
983.30	4216.77
983.46	4149.18
983.62	4091.84
983.79	4091.84
983.95	4102.08
984.11	3991.49
984.27	4181.95
984.43	4204.48
984.59	4020.16
984.75	4065.22
984.91	4097.99
985.08	4167.62
985.24	3870.66
985.40	3989.44
985.56	4091.84
985.72	3993.54
985.88	4116.42
986.04	3852.23
986.20	3964.87
986.37	4007.87
986.53	3813.32
986.69	3981.25
986.85	3930.05
987.01	3983.30
987.17	4005.83
987.33	3747.78
987.49	3776.45
987.65	3956.68
987.82	3901.38
987.98	3971.01
988.14	3860.42
988.30	3835.85
988.46	3792.84
988.62	3942.34
988.78	3919.81
988.94	3751.88
989.10	3745.73
989.26	3733.45
989.42	3811.27
989.59	3602.38
989.75	3678.15
989.91	3796.93
990.07	3766.21
990.23	3712.97
990.39	3690.44
990.55	3684.30
990.71	3682.25
990.87	3768.26
991.03	3751.88
991.19	3647.43
991.35	3629.00
991.51	3626.95
991.67	3674.06
991.83	3622.86
992.00	3721.16
992.16	3755.97
992.32	3622.86
992.48	3743.69
992.64	3524.55
992.80	3596.23
992.96	3676.10
993.12	3547.08
993.28	3604.42
993.44	3592.14
993.60	3608.52
993.76	3428.30
993.92	3663.82
994.08	3547.08
994.24	3581.90
994.40	3712.97
994.56	3534.79
994.72	3520.46
994.88	3483.59
995.04	3485.64
995.20	3456.97
995.36	3448.78
995.52	3508.17
995.68	3483.59
995.84	3358.67
996.00	3469.26
996.16	3403.72
996.32	3295.18
996.48	3502.03
996.64	3473.36
996.80	3364.81
996.96	3338.19
997.12	3434.44
997.28	3325.90
997.44	3321.81
997.60	3403.72
997.76	3356.62
997.92	3432.40
998.08	3432.40
998.24	3239.89
998.40	3368.91
998.56	3401.68
998.72	3227.60
998.88	3313.61
999.04	3282.89
999.20	3352.52
999.36	3192.78
999.52	3379.15
999.68	3225.55
999.84	3241.93
1000.00	3297.23
1000.16	3190.74
1000.32	3188.69
1000.48	3424.20
1000.64	3108.82
1000.80	3215.31
1000.95	3035.09
1001.11	3117.01
1001.27	3088.34
1001.43	3221.45
1001.59	3082.19
1001.75	3055.57
1001.91	3098.58
1002.07	3108.82
1002.23	3065.81
1002.39	3092.43
1002.55	3119.06
1002.71	2981.84
1002.87	3051.47
1003.03	3057.62
1003.19	3065.81
1003.34	3082.19
1003.50	2930.64
1003.66	3069.91
1003.82	3108.82
1003.98	2934.74
1004.14	2969.55
1004.30	3018.71
1004.46	2922.45
1004.62	3020.75
1004.78	3055.57
1004.94	2947.03
1005.09	2981.84
1005.25	2983.89
1005.41	2858.96
1005.57	2967.51
1005.73	2924.50
1005.89	2957.27
1006.05	2961.36
1006.21	2912.21
1006.37	2824.15
1006.52	2938.84
1006.68	2795.48
1006.84	2918.36
1007.00	2906.07
1007.16	2920.40
1007.32	2922.45
1007.48	2781.14
1007.64	2963.41
1007.79	2922.45
1007.95	2787.29
1008.11	2985.94
1008.27	2791.38
1008.43	2746.33
1008.59	2830.29
1008.75	2844.63
1008.91	2879.44
1009.06	2758.61
1009.22	2775.00
1009.38	2758.61
1009.54	2760.66
1009.70	2736.09
1009.86	2764.76
1010.01	2813.91
1010.17	2721.75
1010.33	2746.33
1010.49	2658.26
1010.65	2815.96
1010.81	2670.55
1010.96	2658.26
1011.12	2643.93
1011.28	2643.93
1011.44	2723.80
1011.60	2682.84
1011.76	2635.74
1011.91	2748.37
1012.07	2641.88
1012.23	2654.17
1012.39	2617.30
1012.55	2650.07
1012.71	2564.06
1012.86	2637.78
1013.02	2633.69
1013.18	2559.96
1013.34	2598.87
1013.50	2672.60
1013.65	2588.63
1013.81	2531.29
1013.97	2533.34
1014.13	2676.70
1014.29	2660.31
1014.44	2770.90
1014.60	2445.27
1014.76	2555.86
1014.92	2580.44
1015.07	2615.26
1015.23	2541.53
1015.39	2592.73
1015.55	2453.47
1015.71	2586.58
1015.86	2478.04
1016.02	2486.23
1016.18	2412.51
1016.34	2525.15
1016.49	2500.57
1016.65	2553.82
1016.81	2379.74
1016.97	2512.86
1017.12	2482.14
1017.28	2287.58
1017.44	2449.37
1017.60	2465.75
1017.75	2578.39
1017.91	2412.51
1018.07	2453.47
1018.23	2428.89
1018.38	2365.40
1018.54	2398.17
1018.70	2412.51
1018.86	2361.31
1019.01	2381.79
1019.17	2355.16
1019.33	2469.85
1019.49	2326.49
1019.64	2394.08
1019.80	2420.70
1019.96	2383.84
1020.12	2418.65
1020.27	2318.30
1020.43	2375.64
1020.59	2389.98
1020.74	2312.16
1020.90	2443.23
1021.06	2265.05
1021.22	2371.55
1021.37	2412.51
1021.53	2328.54
1021.69	2310.11
1021.84	2209.76
1022.00	2289.63
1022.16	2342.88
1022.31	2279.39
1022.47	2367.45
1022.63	2435.03
1022.79	2181.09
1022.94	2252.77
1023.10	2301.92
1023.26	2314.20
1023.41	2228.19
1023.57	2279.39
1023.73	2265.05
1023.88	2240.48
1024.04	2211.81
1024.20	2215.90
1024.35	2191.33
1024.51	2228.19
1024.67	2185.18
1024.82	2281.44
1024.98	2156.51
1025.14	2242.53
1025.29	2197.47
1025.45	2322.40
1025.61	2234.33
1025.76	2121.70
1025.92	2265.05
1026.08	2248.67
1026.23	2111.46
1026.39	2224.09
1026.55	2144.22
1026.70	2138.08
1026.86	2146.27
1027.02	2224.09
1027.17	2252.77
1027.33	2203.61
1027.48	2090.98
1027.64	2140.13
1027.80	2125.79
1027.95	2174.94
1028.11	2119.65
1028.27	2199.52
1028.42	2113.50
1028.58	2004.96
1028.73	2133.98
1028.89	2043.87
1029.05	2166.75
1029.20	2170.85
>>>>>End Processed Spectral Data<<<<<
