SpectraSuite Data File
++++++++++++++++++++++++++++++++++++
Date: Fri Jun 02 14:51:06 CEST 2017
User: INFO_000
Dark Spectrum Present: No
Reference Spectrum Present: No
Number of Sampled Component Spectra: 1
Spectrometers: USB4H00879
Integration Time (usec): 80000 (USB4H00879)
Spectra Averaged: 1 (USB4H00879)
Boxcar Smoothing: 0 (USB4H00879)
Correct for Electrical Dark: No (USB4H00879)
Strobe/Lamp Enabled: No (USB4H00879)
Correct for Detector Non-linearity: No (USB4H00879)
Correct for Stray Light: No (USB4H00879)
Number of Pixels in Processed Spectrum: 3648
>>>>>Begin Processed Spectral Data<<<<<
345.13	1257.45
345.34	1257.45
345.56	1257.45
345.78	1273.84
345.99	1333.23
346.21	1796.07
346.42	1658.85
346.64	1705.96
346.86	1796.07
347.07	1675.24
347.29	1738.73
347.50	1613.80
347.72	1755.11
347.94	1708.01
348.15	1540.07
348.37	1593.32
348.59	1687.53
348.80	1675.24
349.02	1724.39
349.23	1834.98
349.45	1812.45
349.67	1818.60
349.88	1763.30
350.10	1869.80
350.31	1740.77
350.53	1802.21
350.75	1906.66
350.96	1636.33
351.18	1814.50
351.39	1806.31
351.61	1753.06
351.82	1822.69
352.04	1826.79
352.26	1763.30
352.47	1837.03
352.69	1834.98
352.90	1669.09
353.12	1896.42
353.34	1863.65
353.55	1816.55
353.77	1800.16
353.98	1810.40
354.20	1689.57
354.41	1822.69
354.63	1810.40
354.85	1884.13
355.06	1824.74
355.28	1701.86
355.49	1814.50
355.71	1818.60
355.92	1751.01
356.14	1843.17
356.35	1710.05
356.57	1779.68
356.79	1873.89
357.00	1765.35
357.22	1873.89
357.43	1742.82
357.65	1845.22
357.86	1748.97
358.08	1769.44
358.29	1841.12
358.51	1929.19
358.72	1896.42
358.94	1910.75
359.16	1867.75
359.37	1880.04
359.59	1834.98
359.80	1863.65
360.02	1869.80
360.23	1830.88
360.45	1937.38
360.66	1822.69
360.88	1798.12
361.09	1787.88
361.31	1869.80
361.52	1798.12
361.74	1970.15
361.95	2041.82
362.17	1798.12
362.38	2011.11
362.60	1953.76
362.81	1943.52
363.03	1875.94
363.24	1908.71
363.46	2033.63
363.67	1826.79
363.89	1941.47
364.10	2009.06
364.32	1814.50
364.53	1980.39
364.75	1857.51
364.96	1935.33
365.18	2011.11
365.39	1912.80
365.61	1894.37
365.82	2023.39
366.04	1980.39
366.25	1806.31
366.47	1949.67
366.68	1964.00
366.90	1906.66
367.11	2021.35
367.33	2033.63
367.54	2017.25
367.76	1941.47
367.97	2058.21
368.19	1910.75
368.40	2027.49
368.62	1961.95
368.83	1845.22
369.05	1867.75
369.26	1857.51
369.48	1890.28
369.69	1875.94
369.91	1994.72
370.12	1902.56
370.33	2023.39
370.55	1892.32
370.76	1918.95
370.98	2050.02
371.19	2025.44
371.41	1988.58
371.62	1947.62
371.84	1972.19
372.05	2058.21
372.27	1970.15
372.48	2054.11
372.69	1996.77
372.91	2131.94
373.12	2138.08
373.34	1957.86
373.55	2193.37
373.77	2074.59
373.98	1998.82
374.20	2058.21
374.41	2185.18
374.62	2144.22
374.84	2168.80
375.05	2146.27
375.27	2062.30
375.48	2097.12
375.70	2133.98
375.91	2146.27
376.12	2246.62
376.34	2174.94
376.55	2031.58
376.77	2207.71
376.98	2099.17
377.19	2074.59
377.41	2117.60
377.62	2234.33
377.84	2248.67
378.05	2281.44
378.27	2107.36
378.48	2248.67
378.69	2310.11
378.91	2252.77
379.12	2277.34
379.34	2176.99
379.55	2277.34
379.76	2234.33
379.98	2144.22
380.19	2162.66
380.41	2265.05
380.62	2287.58
380.83	2281.44
381.05	2148.32
381.26	2435.03
381.47	2252.77
381.69	2207.71
381.90	2402.27
382.12	2256.86
382.33	2224.09
382.54	2293.72
382.76	2228.19
382.97	2297.82
383.19	2238.43
383.40	2334.68
383.61	2267.10
383.83	2248.67
384.04	2346.97
384.25	2215.90
384.47	2265.05
384.68	2285.53
384.89	2334.68
385.11	2303.96
385.32	2353.12
385.54	2267.10
385.75	2330.59
385.96	2308.06
386.18	2410.46
386.39	2314.20
386.60	2355.16
386.82	2447.32
387.03	2367.45
387.24	2396.12
387.46	2369.50
387.67	2414.56
387.88	2473.95
388.10	2430.94
388.31	2422.75
388.52	2508.76
388.74	2459.61
388.95	2428.89
389.16	2369.50
389.38	2521.05
389.59	2555.86
389.80	2525.15
390.02	2519.00
390.23	2586.58
390.44	2553.82
390.66	2623.45
390.87	2521.05
391.08	2529.24
391.30	2598.87
391.51	2586.58
391.72	2609.11
391.94	2625.50
392.15	2564.06
392.36	2568.15
392.58	2475.99
392.79	2611.16
393.00	2615.26
393.22	2627.54
393.43	2799.57
393.64	2766.81
393.85	2648.02
394.07	2596.82
394.28	2748.37
394.49	2672.60
394.71	2650.07
394.92	2754.52
395.13	2760.66
395.35	2668.50
395.56	2648.02
395.77	2777.05
395.98	2715.61
396.20	2766.81
396.41	2801.62
396.62	2783.19
396.84	2727.89
397.05	2797.53
397.26	2772.95
397.47	2942.93
397.69	2854.87
397.90	2891.73
398.11	2877.40
398.32	2824.15
398.54	2828.24
398.75	2785.24
398.96	2873.30
399.18	3076.05
399.39	2916.31
399.60	2895.83
399.81	2861.01
400.03	2875.35
400.24	3170.26
400.45	2811.86
400.66	2912.21
400.88	2914.26
401.09	3076.05
401.30	3000.27
401.51	3133.39
401.73	3016.66
401.94	3125.20
402.15	3043.28
402.36	2918.36
402.58	3059.67
402.79	3000.27
403.00	3155.92
403.21	3090.38
403.43	3137.49
403.64	3223.50
403.85	3110.86
404.06	3219.41
404.27	2924.50
404.49	3176.40
404.70	3080.14
404.91	3231.69
405.12	3135.44
405.34	3151.82
405.55	3362.76
405.76	3092.43
405.97	3184.59
406.19	3456.97
406.40	3215.31
406.61	3196.88
406.82	3256.27
407.03	3239.89
407.25	3207.12
407.46	3373.00
407.67	3350.48
407.88	3360.72
408.09	3336.14
408.31	3330.00
408.52	3389.39
408.73	3268.56
408.94	3219.41
409.15	3360.72
409.37	3315.66
409.58	3432.40
409.79	3311.57
410.00	3512.27
410.21	3370.96
410.43	3416.01
410.64	3459.02
410.85	3506.12
411.06	3465.16
411.27	3491.79
411.48	3518.41
411.70	3440.59
411.91	3563.47
412.12	3590.09
412.33	3596.23
412.54	3422.16
412.76	3649.48
412.97	3631.05
413.18	3641.29
413.39	3557.32
413.60	3629.00
413.81	3649.48
414.03	3600.33
414.24	3602.38
414.45	3747.78
414.66	3534.79
414.87	3698.63
415.08	3641.29
415.30	3719.11
415.51	3760.07
415.72	3639.24
415.93	3702.73
416.14	3712.97
416.35	3676.10
416.56	3772.36
416.78	3741.64
416.99	3827.65
417.20	3739.59
417.41	3885.00
417.62	3841.99
417.83	3887.04
418.04	3825.61
418.26	3768.26
418.47	3839.94
418.68	3807.17
418.89	3952.58
419.10	4130.75
419.31	3917.76
419.52	4001.73
419.73	3934.15
419.95	3971.01
420.16	3831.75
420.37	3891.14
420.58	4022.21
420.79	3803.08
421.00	3946.44
421.21	4009.92
421.42	3923.91
421.63	4007.87
421.85	4048.83
422.06	4087.75
422.27	4097.99
422.48	4184.00
422.69	3981.25
422.90	4102.08
423.11	4042.69
423.32	4231.10
423.53	4362.17
423.75	4171.71
423.96	4407.23
424.17	4190.14
424.38	4376.51
424.59	4298.69
424.80	4319.17
425.01	4335.55
425.22	4327.36
425.43	4272.06
425.64	4440.00
425.85	4548.54
426.06	4483.00
426.28	4421.56
426.49	4437.95
426.70	4425.66
426.91	4329.41
427.12	4581.31
427.33	4485.05
427.54	4605.88
427.75	4587.45
427.96	4669.37
428.17	4532.15
428.38	4607.93
428.59	4564.92
428.80	4675.51
429.01	4702.14
429.23	4618.17
429.44	4874.17
429.65	4734.90
429.86	4878.26
430.07	4695.99
430.28	4798.39
430.49	4876.21
430.70	4900.79
430.91	4972.47
431.12	4865.97
431.33	4958.13
431.54	4931.51
431.75	5089.20
431.96	4929.46
432.17	4949.94
432.38	4859.83
432.59	5121.97
432.80	5097.39
433.01	5056.43
433.22	5023.67
433.43	5197.74
433.64	5007.28
433.85	5085.11
434.06	5105.59
434.27	5015.48
434.49	5171.12
434.70	5347.25
434.91	5097.39
435.12	5316.53
435.33	5228.46
435.54	5205.94
435.75	5025.72
435.96	5281.71
436.17	5101.49
436.38	5277.62
436.59	5418.93
436.80	5244.85
437.01	5457.84
437.22	5517.23
437.43	5431.21
437.64	5230.51
437.85	5570.48
438.06	5578.67
438.27	5369.77
438.48	5390.25
438.69	5515.18
438.90	5636.01
439.11	5533.61
439.32	5722.02
439.53	5627.82
439.74	5621.67
439.95	5840.81
440.16	5603.24
440.37	5701.54
440.57	5633.96
440.78	5717.93
440.99	5922.73
441.20	5834.66
441.41	5541.80
441.62	5801.90
441.83	5849.00
442.04	5795.75
442.25	5887.91
442.46	5834.66
442.67	6156.19
442.88	6221.73
443.09	5703.59
443.30	5867.43
443.51	5898.15
443.72	6102.95
443.93	5871.53
444.14	6234.02
444.35	5908.39
444.56	6180.77
444.77	6152.10
444.98	6184.87
445.19	6082.47
445.40	6238.11
445.61	6053.80
445.81	6317.98
446.02	6258.59
446.23	6260.64
446.44	6141.86
446.65	6352.80
446.86	6317.98
447.07	6399.90
447.28	6721.43
447.49	6524.83
447.70	6348.70
447.91	6631.32
448.12	6524.83
448.33	6580.12
448.54	6614.94
448.74	6494.11
448.95	6637.47
449.16	6500.25
449.37	6809.50
449.58	6713.24
449.79	6866.84
450.00	6647.71
450.21	6758.30
450.42	6776.73
450.63	6920.09
450.84	6811.54
451.05	6768.54
451.25	6778.78
451.46	6875.03
451.67	6979.48
451.88	6999.96
452.09	6979.48
452.30	7051.16
452.51	7094.16
452.72	7141.27
452.93	7309.20
453.13	6922.13
453.34	7149.46
453.55	7126.93
453.76	7270.29
453.97	7511.95
454.18	7307.15
454.39	7391.12
454.60	7247.76
454.81	7337.87
455.01	7620.49
455.22	7368.59
455.43	7464.85
455.64	7554.96
455.85	7573.39
456.06	7815.05
456.27	7610.25
456.48	7544.72
456.68	7761.80
456.89	7692.17
457.10	7810.95
457.31	7917.45
457.52	7788.43
457.73	8009.61
457.94	7960.45
458.14	8001.41
458.35	8109.96
458.56	8046.47
458.77	7944.07
458.98	8298.37
459.19	8169.35
459.39	8165.25
459.60	8415.10
459.81	8130.44
460.02	8382.34
460.23	8175.49
460.44	8511.36
460.65	8431.49
460.85	8587.13
461.06	8476.54
461.27	8236.93
461.48	8720.25
461.69	8718.20
461.89	8398.72
462.10	8613.76
462.31	8425.34
462.52	8503.17
462.73	8814.46
462.94	8832.89
463.14	8894.33
463.35	8816.51
463.56	9285.49
463.77	9119.60
463.98	8851.32
464.18	9054.07
464.39	9109.36
464.60	9301.87
464.81	9004.92
465.02	9301.87
465.23	9566.06
465.43	9373.55
465.64	9627.50
465.85	9404.27
466.06	9217.91
466.27	9645.93
466.47	9613.17
466.68	9621.36
466.89	9594.73
467.10	9820.01
467.30	9697.13
467.51	9830.25
467.72	9942.89
467.93	9801.58
468.14	10004.33
468.34	10106.73
468.55	10016.62
468.76	10268.52
468.97	10051.43
469.17	10307.43
469.38	10194.79
469.59	10659.68
469.80	10366.82
470.01	10235.75
470.21	10348.39
470.42	10465.12
470.63	10639.20
470.84	10569.57
471.04	10696.54
471.25	10841.95
471.46	10717.02
471.67	11056.98
471.87	11020.12
472.08	11138.90
472.29	11337.56
472.50	10872.67
472.70	11122.52
472.91	11011.93
473.12	11536.21
473.33	11384.66
473.53	11495.25
473.74	11540.30
473.95	11618.13
474.16	11773.77
474.36	11681.61
474.57	11949.90
474.78	11880.27
474.99	11792.20
475.19	11822.92
475.40	12189.51
475.61	12418.88
475.81	12482.37
476.02	12554.05
476.23	12435.27
476.44	12623.68
476.64	12699.45
476.85	12715.84
477.06	12709.69
477.27	12916.54
477.47	12984.12
477.68	12902.20
477.89	13154.10
478.09	13217.59
478.30	13233.97
478.51	13176.63
478.71	13434.68
478.92	13377.33
479.13	13588.27
479.34	13803.31
479.54	13799.21
479.75	13848.36
479.96	13688.62
480.16	14079.79
480.37	14053.16
480.58	14401.32
480.78	14577.44
480.99	14208.81
481.20	14313.25
481.41	14376.74
481.61	14659.36
481.82	14901.02
482.03	14907.16
482.23	14864.16
482.44	15097.63
482.65	15197.98
482.85	15384.34
483.06	15255.32
483.27	15281.94
483.47	15568.66
483.68	15648.53
483.89	15542.03
484.09	15609.62
484.30	15898.38
484.51	16121.61
484.71	16283.40
484.92	16090.89
485.13	16398.09
485.33	16199.43
485.54	16432.90
485.75	16471.81
485.95	16576.26
486.16	16533.25
486.37	17004.28
486.57	16912.13
486.78	16897.79
486.98	16926.46
487.19	17143.55
487.40	17473.27
487.60	17360.63
487.81	17680.11
488.02	17520.37
488.22	17420.02
488.43	17880.82
488.64	17534.71
488.84	17964.78
489.05	17979.12
489.25	17809.14
489.46	18140.91
489.67	18196.20
489.87	18364.14
490.08	18392.81
490.29	18360.04
490.49	18843.36
490.70	18677.48
490.90	18986.72
491.11	18867.94
491.32	18896.61
491.52	18956.00
491.73	19404.50
491.94	19232.47
492.14	19199.71
492.35	19556.05
492.55	19904.21
492.76	19736.27
492.97	19857.10
493.17	19896.02
493.38	19883.73
493.58	20309.71
493.79	20225.74
494.00	20178.64
494.20	20371.15
494.41	20424.39
494.61	20735.68
494.82	20510.41
495.02	20723.40
495.23	20721.35
495.44	20727.49
495.64	21036.74
495.85	21167.80
496.05	21051.07
496.26	21153.47
496.47	21673.65
496.67	21597.88
496.88	21366.46
497.08	21493.43
497.29	21675.70
497.49	21649.08
497.70	21767.86
497.91	22017.71
498.11	22030.00
498.32	22146.73
498.52	22128.30
498.73	22574.76
498.93	22140.59
499.14	22349.48
499.34	22554.28
499.55	22587.05
499.76	22441.64
499.96	22607.53
500.17	22834.85
500.37	23070.37
500.58	23199.39
500.78	22986.40
500.99	22892.19
501.19	23078.56
501.40	23146.14
501.60	23193.25
501.81	23387.80
502.02	23398.04
502.22	23047.84
502.43	23541.40
502.63	23553.69
502.84	23738.01
503.04	23600.79
503.25	23547.54
503.45	23852.69
503.66	24000.15
503.86	23635.61
504.07	24186.51
504.27	24096.40
504.48	24532.62
504.68	23887.51
504.89	24626.82
505.09	24338.06
505.30	24297.10
505.50	24649.35
505.71	24647.30
505.91	24759.94
506.12	24483.47
506.32	24727.17
506.53	24753.80
506.73	24876.68
506.94	25173.63
507.14	24974.98
507.35	24667.78
507.55	24954.50
507.76	25046.66
507.96	25206.40
508.17	25159.30
508.37	25034.37
508.58	25136.77
508.78	25521.79
508.99	25710.20
509.19	25767.54
509.40	25484.92
509.60	25374.33
509.81	25693.82
510.01	25538.17
510.22	25484.92
510.42	25679.48
510.63	25644.66
510.83	25894.52
511.04	25581.18
511.24	25722.49
511.44	25933.43
511.65	26084.98
511.85	26037.87
512.06	26228.34
512.26	25933.43
512.47	26238.58
512.67	25919.09
512.88	26408.56
513.08	26162.80
513.29	26447.47
513.49	26396.27
513.69	26373.74
513.90	26467.95
514.10	26779.24
514.31	26668.65
514.51	26459.76
514.72	26619.50
514.92	26453.61
515.13	26314.35
515.33	26709.61
515.53	26476.14
515.74	26754.66
515.94	26846.82
516.15	26785.38
516.35	26738.28
516.56	27305.57
516.76	26926.69
516.96	27068.00
517.17	26709.61
517.37	27119.20
517.58	27283.04
517.78	27100.77
517.99	27371.10
518.19	27285.09
518.39	27661.91
518.60	27250.27
518.80	27354.72
519.01	27532.89
519.21	27432.54
519.41	27782.74
519.62	27453.02
519.82	27606.62
520.03	27813.46
520.23	27852.38
520.43	27588.19
520.64	27960.92
520.84	28171.86
521.05	28284.50
521.25	28229.20
521.45	28010.07
521.66	28249.68
521.86	28149.33
522.07	28294.74
522.27	28223.06
522.47	28323.41
522.68	28612.17
522.88	28190.29
523.08	28964.42
523.29	28812.87
523.49	28544.59
523.70	28857.93
523.90	29142.60
524.10	28800.58
524.31	28862.02
524.51	28837.45
524.71	29517.37
524.92	28911.17
525.12	29357.63
525.33	29142.60
525.53	29412.93
525.73	29775.42
525.94	29476.41
526.14	29769.27
526.34	29728.31
526.55	29838.90
526.75	29625.92
526.95	30101.04
527.16	29720.12
527.36	29924.92
527.56	30078.52
527.77	30199.35
527.97	30340.66
528.17	30629.42
528.38	30498.35
528.58	30692.91
528.78	30393.90
528.99	30262.83
529.19	30606.89
529.39	30484.01
529.60	31071.78
529.80	31086.12
530.00	30989.86
530.21	31385.12
530.41	31079.97
530.61	31168.04
530.82	31165.99
531.02	31401.50
531.22	31548.96
531.43	31614.49
531.63	31753.76
531.83	31811.10
532.04	31696.41
532.24	31632.93
532.44	32554.51
532.64	32419.35
532.85	32554.51
533.05	32349.71
533.25	32677.39
533.46	32275.99
533.66	32609.81
533.86	32624.14
534.07	32974.34
534.27	33127.94
534.47	32839.18
534.67	33140.23
534.88	32865.80
535.08	33185.29
535.28	33179.14
535.49	33283.59
535.69	33754.62
535.89	33924.60
536.09	33797.63
536.30	34018.81
536.50	33873.40
536.70	34098.68
536.91	34227.70
537.11	34192.89
537.31	34403.83
537.51	34350.58
537.72	34747.89
537.92	34823.66
538.12	35022.31
538.32	34727.41
538.53	35116.52
538.73	34840.04
538.93	35016.17
539.13	35010.03
539.34	35130.86
539.54	35241.45
539.74	35558.88
539.94	35702.24
540.15	35079.66
540.35	35632.61
540.55	35304.93
540.75	35735.01
540.96	35728.86
541.16	35853.79
541.36	35902.94
541.56	36013.53
541.77	36519.38
541.97	36031.96
542.17	36599.25
542.37	36699.60
542.58	36541.91
542.78	36589.01
542.98	36388.31
543.18	36943.31
543.38	37172.68
543.59	37000.65
543.79	37037.51
543.99	36996.56
544.19	37549.51
544.40	37307.85
544.60	37963.20
544.80	37111.24
545.00	37254.60
545.20	37799.36
545.41	37537.22
545.61	37555.65
545.81	37811.65
546.01	37959.10
546.21	38086.07
546.42	37686.72
546.62	38092.22
546.82	38292.92
547.02	38397.37
547.22	38432.18
547.43	38383.03
547.63	38561.20
547.83	38817.20
548.03	38323.64
548.23	38938.03
548.44	38569.40
548.64	38755.76
548.84	39120.30
549.04	39321.00
549.24	39032.24
549.45	39542.18
549.65	39103.92
549.85	39234.99
550.05	39499.17
550.25	39333.29
550.45	39736.74
550.66	39386.54
550.86	39511.46
551.06	39396.77
551.26	39855.52
551.46	39953.82
551.66	39738.79
551.87	39785.89
552.07	40224.15
552.27	40555.93
552.47	40068.51
552.67	40318.36
552.87	40318.36
553.07	40418.71
553.28	40562.07
553.48	40832.40
553.68	40600.98
553.88	41035.15
554.08	40529.30
554.28	40775.06
554.48	40588.69
554.69	40809.87
554.89	40648.08
555.09	41035.15
555.29	40959.38
555.49	41055.63
555.69	41022.86
555.89	41268.62
556.10	41551.24
556.30	41022.86
556.50	41653.64
556.70	41708.93
556.90	41438.60
557.10	41497.99
557.30	41497.99
557.50	41555.33
557.70	41497.99
557.91	41731.46
558.11	41528.71
558.31	42175.87
558.51	41817.47
558.71	42214.78
558.91	41848.19
559.11	41766.27
559.31	41850.24
559.51	41903.49
559.72	42304.89
559.92	42184.06
560.12	42130.81
560.32	42227.07
560.52	42071.42
560.72	41979.26
560.92	41921.92
561.12	42577.27
561.32	42655.09
561.52	42415.48
561.72	42997.10
561.93	42319.23
562.13	42331.51
562.33	42401.14
562.53	42763.64
562.73	42808.69
562.93	42669.43
563.13	42995.06
563.33	42630.52
563.53	43005.30
563.73	42714.48
563.93	43146.61
564.13	43507.05
564.33	43095.41
564.53	42892.66
564.74	43375.98
564.94	42890.61
565.14	42866.03
565.34	43191.66
565.54	43218.28
565.74	43410.79
565.94	43382.12
566.14	43265.39
566.34	43146.61
566.54	43656.55
566.74	43076.97
566.94	43007.34
567.14	43588.97
567.34	43169.13
567.54	43441.51
567.74	43543.91
567.94	43468.14
568.14	43478.38
568.34	43455.85
568.54	43591.01
568.74	43601.25
568.94	43525.48
569.14	43746.66
569.34	43750.76
569.54	43609.45
569.75	43464.04
569.95	43773.28
570.15	44311.90
570.35	44103.01
570.55	43726.18
570.75	43998.56
570.95	43689.32
571.15	44072.29
571.35	43894.11
571.55	44225.89
571.75	43918.69
571.95	44514.65
572.15	43763.04
572.35	43939.17
572.55	44125.53
572.75	44318.04
572.95	43894.11
573.15	44508.50
573.35	44436.83
573.55	44475.74
573.75	44311.90
573.95	44277.08
574.15	44293.47
574.35	44506.46
574.55	44735.83
574.75	44324.19
574.95	44860.76
575.15	44389.72
575.34	44526.94
575.54	44717.40
575.74	44926.29
575.94	45053.26
576.14	44471.64
576.34	44830.04
576.54	45100.37
576.74	44901.71
576.94	44963.15
577.14	45028.69
577.34	45413.71
577.54	45110.61
577.74	45247.82
577.94	45094.22
578.14	44739.93
578.34	45161.81
578.54	44565.85
578.74	45333.84
578.94	45210.96
579.14	45163.85
579.34	45344.08
579.54	45608.26
579.74	45401.42
579.94	45583.69
580.13	45544.78
580.33	45524.30
580.53	45489.48
580.73	45296.97
580.93	45559.11
581.13	45512.01
581.33	45823.30
581.53	45815.11
581.73	45776.20
581.93	45737.29
582.13	45925.70
582.33	45497.67
582.53	45708.61
582.73	45911.36
582.92	45911.36
583.12	46339.39
583.32	46019.91
583.52	45948.23
583.72	46142.78
583.92	45634.89
584.12	46083.39
584.32	46355.77
584.52	46060.87
584.72	46048.58
584.92	46396.73
585.11	46355.77
585.31	46462.27
585.51	46351.68
585.71	46337.34
585.91	46501.18
586.11	46447.93
586.31	46185.79
586.51	46175.55
586.71	46855.48
586.91	46394.68
587.10	46564.67
587.30	46882.10
587.50	46585.15
587.70	46642.49
587.90	47152.43
588.10	46538.04
588.30	46867.76
588.50	46939.44
588.69	47115.57
588.89	46662.97
589.09	47152.43
589.29	47109.43
589.49	47275.31
589.69	46609.72
589.89	47390.00
590.08	47150.38
590.28	46826.81
590.48	46935.35
590.68	47125.81
590.88	46943.54
591.08	46906.68
591.28	46816.57
591.47	47213.87
591.67	47152.43
591.87	47410.48
592.07	47465.77
592.27	47490.35
592.47	47351.09
592.67	47326.51
592.86	47207.73
593.06	47695.14
593.26	47572.27
593.46	47801.64
593.66	47433.00
593.86	47822.12
594.05	47486.25
594.25	47785.25
594.45	47330.61
594.65	47682.86
594.85	47783.21
595.05	48104.74
595.24	48407.84
595.44	48219.42
595.64	47975.72
595.84	47998.24
596.04	47985.96
596.23	47871.27
596.43	48520.48
596.63	48108.83
596.83	47938.85
597.03	48244.00
597.22	48702.74
597.42	48512.28
597.62	48332.06
597.82	48266.53
598.02	48352.54
598.21	49104.15
598.41	48016.68
598.61	48739.61
598.81	49038.61
599.01	49132.82
599.20	48370.97
599.40	48510.24
599.60	48794.90
599.80	49286.42
600.00	49126.67
600.19	49399.05
600.39	48715.03
600.59	49136.91
600.79	49290.51
600.98	49231.12
601.18	49126.67
601.38	49067.28
601.58	49743.11
601.78	49456.40
601.97	49294.61
602.17	49861.90
602.37	49761.54
602.57	49388.81
602.76	49816.84
602.96	49624.33
603.16	49761.54
603.36	49796.36
603.55	50449.66
603.75	49747.21
603.95	50296.06
604.15	50541.82
604.34	50173.19
604.54	50605.31
604.74	50234.63
604.94	50541.82
605.13	50552.06
605.33	50578.68
605.53	50511.10
605.73	50672.89
605.92	50717.95
606.12	50631.93
606.32	50828.54
606.52	51025.14
606.71	50640.12
606.91	50779.39
607.11	51244.27
607.30	51045.62
607.50	51299.57
607.70	51328.24
607.90	50820.34
608.09	51283.19
608.29	51293.43
608.49	51326.19
608.68	50885.88
608.88	51664.11
609.08	51557.61
609.28	51959.02
609.47	51160.31
609.67	51778.79
609.87	51719.40
610.06	52159.72
610.26	51541.23
610.46	51723.50
610.66	51897.58
610.85	51922.15
611.05	51420.40
611.25	52178.15
611.44	51721.45
611.64	51913.96
611.84	51803.37
612.03	51895.53
612.23	52178.15
612.43	51944.68
612.62	51942.63
612.82	52702.43
613.02	52264.16
613.21	52303.07
613.41	52278.50
613.61	52569.31
613.80	52376.80
614.00	52815.07
614.20	52653.28
614.39	52862.17
614.59	52720.86
614.79	52524.25
614.98	52307.17
615.18	52258.02
615.38	52831.45
615.57	52485.34
615.77	53159.12
615.97	52978.90
616.16	52950.23
616.36	52638.94
616.56	52745.44
616.75	52905.18
616.95	52743.39
617.15	52444.38
617.34	53058.77
617.54	52888.79
617.74	53664.97
617.93	52815.07
618.13	52546.78
618.32	53263.57
618.52	52430.05
618.72	53419.22
618.91	53206.23
619.11	53155.03
619.31	53329.11
619.50	52851.93
619.70	53069.01
619.90	53423.31
620.09	53345.49
620.29	53112.02
620.48	52995.29
620.68	53642.45
620.88	52765.91
621.07	53245.14
621.27	53064.92
621.46	53179.60
621.66	53589.20
621.86	53261.52
622.05	52925.66
622.25	53384.40
622.44	52622.56
622.64	53152.98
622.84	53785.80
623.03	53443.79
623.23	53630.16
623.42	53378.26
623.62	53927.11
623.82	53830.86
624.01	53843.15
624.21	53421.26
624.40	53247.19
624.60	54082.76
624.80	53425.36
624.99	53458.13
625.19	53503.18
625.38	53466.32
625.58	53538.00
625.77	53734.60
625.97	53949.64
626.17	53753.04
626.36	53937.35
626.56	53998.79
626.75	53449.94
626.95	54006.98
627.14	53882.06
627.34	54248.64
627.54	53710.03
627.73	53910.73
627.93	54183.11
628.12	53779.66
628.32	53656.78
628.51	53974.22
628.71	53990.60
628.90	53935.30
629.10	54076.61
629.30	54138.05
629.49	54107.33
629.69	54072.52
629.88	54146.25
630.08	54140.10
630.27	54406.34
630.47	54451.39
630.66	54117.57
630.86	54240.45
631.05	53628.11
631.25	54181.06
631.44	54695.10
631.64	54123.72
631.84	54256.84
632.03	54854.84
632.23	54228.16
632.42	54604.99
632.62	54285.51
632.81	54017.22
633.01	54621.37
633.20	54469.82
633.40	54533.31
633.59	54785.21
633.79	54047.94
633.98	54660.29
634.18	54510.78
634.37	54652.09
634.57	54324.42
634.76	54867.13
634.96	54787.26
635.15	54652.09
635.35	54482.11
635.54	54615.23
635.74	54914.23
635.93	54480.06
636.13	54731.96
636.32	54748.35
636.52	54654.14
636.71	54961.34
636.91	54674.62
637.10	54504.64
637.30	54412.48
637.49	55284.92
637.69	54641.85
637.88	54674.62
638.08	54660.29
638.27	55006.39
638.46	54637.76
638.66	54615.23
638.85	54639.81
639.05	54983.86
639.24	55301.30
639.44	54707.39
639.63	55149.75
639.83	55086.26
640.02	55450.80
640.22	54682.81
640.41	55131.32
640.61	54697.15
640.80	55233.72
640.99	54815.93
641.19	55530.67
641.38	54842.56
641.58	55450.80
641.77	54871.23
641.97	54418.63
642.16	54893.75
642.36	55276.72
642.55	55475.38
642.74	54787.26
642.94	55372.98
643.13	54785.21
643.33	55182.52
643.52	55506.10
643.72	55497.91
643.91	55203.00
644.10	55178.42
644.30	55383.22
644.49	55145.65
644.69	55248.05
644.88	55325.88
645.08	55190.71
645.27	55471.28
645.46	55207.09
645.66	55573.68
645.85	55360.69
646.05	55719.09
646.24	55440.56
646.43	55141.56
646.63	55751.85
646.82	56218.79
647.02	55291.06
647.21	55815.34
647.40	55723.18
647.60	55542.96
647.79	55610.54
647.99	55248.05
648.18	55567.54
648.37	56036.52
648.57	55397.55
648.76	55284.92
648.96	55186.61
649.15	55995.56
649.34	55364.79
649.54	55545.01
649.73	55297.20
649.92	55964.84
650.12	55399.60
650.31	55372.98
650.51	55958.70
650.70	55727.28
650.89	55497.91
651.09	55872.68
651.28	55573.68
651.47	55450.80
651.67	55344.31
651.86	55985.32
652.06	55129.27
652.25	55594.16
652.44	55614.64
652.64	55080.12
652.83	55469.23
653.02	55215.29
653.22	55680.17
653.41	54951.10
653.60	55661.74
653.80	55649.45
653.99	55964.84
654.18	55397.55
654.38	55366.84
654.57	55620.78
654.76	55309.49
654.96	55463.09
655.15	55129.27
655.34	55211.19
655.54	55100.60
655.73	55565.49
655.92	55372.98
656.12	55639.22
656.31	55594.16
656.50	55702.70
656.70	55483.57
656.89	55106.74
657.08	55426.23
657.28	55772.33
657.47	55282.87
657.66	55354.55
657.86	55809.20
658.05	55180.47
658.24	55645.36
658.43	55358.64
658.63	55381.17
658.82	55516.34
659.01	55362.74
659.21	55758.00
659.40	55542.96
659.59	54856.89
659.79	55647.41
659.98	55180.47
660.17	55162.04
660.36	55434.42
660.56	55481.52
660.75	55407.79
660.94	55336.12
661.14	55538.86
661.33	55442.61
661.52	54604.99
661.71	55243.96
661.91	55135.41
662.10	55033.02
662.29	55354.55
662.49	54934.71
662.68	55426.23
662.87	55246.00
663.06	55338.16
663.26	55256.24
663.45	55577.78
663.64	55358.64
663.83	55342.26
664.03	55174.33
664.22	55151.80
664.41	55026.87
664.60	55235.77
664.80	55145.65
664.99	55090.36
665.18	54969.53
665.37	55289.01
665.57	55399.60
665.76	55020.73
665.95	55055.54
666.14	55112.89
666.34	54836.41
666.53	54701.25
666.72	54506.69
666.91	54463.68
667.11	54756.54
667.30	54410.43
667.49	54596.80
667.68	54471.87
667.87	54449.35
668.07	54998.20
668.26	54502.59
668.45	54602.94
668.64	54179.01
668.84	55166.13
669.03	54650.05
669.22	54996.15
669.41	54633.66
669.60	55116.98
669.80	54852.80
669.99	54658.24
670.18	54260.93
670.37	54869.18
670.57	55342.26
670.76	54377.67
670.95	54906.04
671.14	54543.55
671.33	54273.22
671.53	55260.34
671.72	54506.69
671.91	54176.97
672.10	54482.11
672.29	54330.56
672.48	54459.58
672.68	54473.92
672.87	54510.78
673.06	54217.92
673.25	54357.19
673.44	53984.46
673.64	54258.88
673.83	54408.39
674.02	53945.54
674.21	53423.31
674.40	54240.45
674.59	53482.70
674.79	53875.91
674.98	53564.62
675.17	53748.94
675.36	53566.67
675.55	53929.16
675.74	53961.93
675.94	53738.70
676.13	53939.40
676.32	53918.92
676.51	54080.71
676.70	54295.75
676.89	54080.71
677.08	54170.82
677.28	53861.58
677.47	54277.32
677.66	53951.69
677.85	53951.69
678.04	53945.54
678.23	54093.00
678.42	53986.50
678.62	53445.84
678.81	54207.68
679.00	53736.65
679.19	54285.51
679.38	53519.57
679.57	53591.25
679.76	53992.65
679.96	53984.46
680.15	53581.01
680.34	53951.69
680.53	53689.55
680.72	53892.30
680.91	54031.56
681.10	53802.19
681.29	54211.78
681.48	53589.20
681.68	53535.95
681.87	53040.34
682.06	53413.07
682.25	53150.93
682.44	53525.71
682.63	53497.04
682.82	53224.66
683.01	53263.57
683.20	52927.70
683.39	53269.72
683.59	52921.56
683.78	53122.26
683.97	53112.02
684.16	52909.27
684.35	52839.64
684.54	53195.99
684.73	52708.57
684.92	53157.08
685.11	52548.83
685.30	53286.10
685.49	53294.29
685.69	52974.81
685.88	53003.48
686.07	52892.89
686.26	52944.09
686.45	53351.63
686.64	53148.88
686.83	52937.94
687.02	53060.82
687.21	52866.27
687.40	53075.16
687.59	52843.74
687.78	53036.25
687.97	53445.84
688.16	52948.18
688.35	52835.55
688.54	52688.09
688.74	53019.86
688.93	52700.38
689.12	52305.12
689.31	52917.46
689.50	52481.25
689.69	52339.94
689.88	52415.71
690.07	52724.96
690.26	52520.16
690.45	52772.06
690.64	52833.50
690.83	52241.63
691.02	52415.71
691.21	52323.55
691.40	52352.23
691.59	52395.23
691.78	52780.25
691.97	52378.85
692.16	52516.06
692.35	52704.48
692.54	52415.71
692.73	52378.85
692.92	52278.50
693.11	52425.95
693.30	52270.31
693.49	52360.42
693.68	51809.51
693.87	52577.50
694.06	51901.67
694.25	51971.30
694.44	52448.48
694.63	52485.34
694.82	52554.97
695.01	52411.62
695.20	52278.50
695.39	51989.73
695.58	52335.84
695.77	51979.49
695.96	51942.63
696.15	51911.91
696.34	51881.19
696.53	52061.41
696.72	52370.66
696.91	52122.85
697.10	52194.53
697.29	52034.79
697.48	52321.51
697.67	52067.56
697.86	51709.16
698.05	51387.63
698.24	52370.66
698.43	51465.45
698.62	52294.88
698.81	51797.23
699.00	52290.79
699.19	51680.49
699.38	51913.96
699.57	51762.41
699.76	52266.21
699.95	51547.37
700.14	51369.20
700.32	51549.42
700.51	51485.93
700.70	52215.01
700.89	51780.84
701.08	52282.59
701.27	51909.86
701.46	51786.99
701.65	51090.68
701.84	51313.90
702.03	51672.30
702.22	51477.74
702.41	51647.72
702.60	51336.43
702.79	51672.30
702.98	51332.34
703.17	51639.53
703.35	51160.31
703.54	51322.10
703.73	51477.74
703.92	51301.62
704.11	51193.07
704.30	51326.19
704.49	50939.13
704.68	51037.43
704.87	51418.35
705.06	50932.98
705.25	51535.09
705.43	51074.29
705.62	51008.76
705.81	51111.16
706.00	50869.50
706.19	51012.85
706.38	51221.75
706.57	50916.60
706.76	50693.37
706.95	51109.11
707.14	50662.65
707.32	50730.23
707.51	50885.88
707.70	50969.85
707.89	50679.03
708.08	51238.13
708.27	51217.65
708.46	51330.29
708.65	50918.65
708.84	50978.04
709.02	50986.23
709.21	51010.81
709.40	51039.48
709.59	50734.33
709.78	50994.42
709.97	51023.09
710.16	50724.09
710.34	50973.94
710.53	50892.02
710.72	50939.13
710.91	51033.33
711.10	51021.05
711.29	50957.56
711.48	50939.13
711.66	50726.14
711.85	50511.10
712.04	50504.96
712.23	50789.62
712.42	50763.00
712.61	50566.40
712.80	50914.55
712.98	50730.23
713.17	50326.78
713.36	50969.85
713.55	50670.84
713.74	50693.37
713.93	50281.73
714.11	50541.82
714.30	50132.23
714.49	50287.87
714.68	50492.67
714.87	50941.17
715.06	50631.93
715.24	50050.31
715.43	50273.54
715.62	49698.06
715.81	50126.08
716.00	50423.04
716.18	50404.61
716.37	49960.20
716.56	50035.97
716.75	50457.85
716.94	50144.51
717.12	49816.84
717.31	49921.29
717.50	50193.67
717.69	49837.32
717.88	50154.75
718.06	50320.64
718.25	50371.84
718.44	49693.96
718.63	49796.36
718.82	49870.09
719.00	49829.13
719.19	49851.66
719.38	49935.62
719.57	49364.24
719.76	49157.39
719.94	49347.86
720.13	49618.19
720.32	49691.91
720.51	49859.85
720.69	49354.00
720.88	49415.44
721.07	49394.96
721.26	48809.24
721.44	49337.62
721.63	49108.24
721.82	49302.80
722.01	49335.57
722.20	49337.62
722.38	48815.38
722.57	48909.59
722.76	48999.70
722.95	48846.10
723.13	48700.70
723.32	48805.14
723.51	48436.51
723.70	48622.87
723.88	48833.81
724.07	48592.15
724.26	48842.01
724.44	48231.71
724.63	49016.08
724.82	48553.24
725.01	48751.90
725.19	48411.93
725.38	48209.18
725.57	48432.41
725.76	48481.56
725.94	48450.84
726.13	48370.97
726.32	48448.80
726.51	48315.68
726.69	48467.23
726.88	48244.00
727.07	47813.93
727.25	48411.93
727.44	48254.24
727.63	48397.60
727.82	48174.37
728.00	48237.86
728.19	48141.60
728.38	48626.97
728.56	47689.00
728.75	48430.36
728.94	47805.73
729.12	48514.33
729.31	48518.43
729.50	48143.65
729.69	48463.13
729.87	48172.32
730.06	48268.58
730.25	48033.06
730.43	48510.24
730.62	48321.82
730.81	48260.38
730.99	48223.52
731.18	48088.35
731.37	48676.12
731.55	48381.21
731.74	48663.83
731.93	48497.95
732.11	48360.73
732.30	48379.17
732.49	48166.18
732.67	48536.86
732.86	48162.08
733.05	48311.58
733.23	47594.79
733.42	47602.99
733.61	48217.38
733.79	48059.68
733.98	48649.50
734.17	48297.25
734.35	48186.66
734.54	48500.00
734.73	48600.35
734.91	48121.12
735.10	48344.35
735.29	48502.04
735.47	47729.96
735.66	47973.67
735.84	47666.47
736.03	48043.30
736.22	48596.25
736.40	47951.14
736.59	48112.93
736.78	47910.18
736.96	47488.30
737.15	47922.47
737.33	47760.68
737.52	47918.37
737.71	47828.26
737.89	47645.99
738.08	47719.72
738.27	47830.31
738.45	47889.70
738.64	47985.96
738.82	47658.28
739.01	47848.74
739.20	47963.43
739.38	47611.18
739.57	48033.06
739.75	47754.54
739.94	47625.51
740.13	47508.78
740.31	47129.90
740.50	47447.34
740.68	47732.01
740.87	47607.08
741.06	47455.53
741.24	46900.53
741.43	46777.65
741.61	47246.64
741.80	47076.66
741.99	47381.80
742.17	47228.21
742.36	47043.89
742.54	47164.72
742.73	47277.36
742.91	47252.78
743.10	47177.01
743.29	47430.96
743.47	46865.72
743.66	47064.37
743.84	47273.26
744.03	46822.71
744.21	46898.48
744.40	47426.86
744.59	46818.61
744.77	46970.16
744.96	46636.34
745.14	47123.76
745.33	46955.83
745.51	46708.02
745.70	47023.41
745.88	46884.15
746.07	47039.79
746.26	46196.03
746.44	46447.93
746.63	46693.69
746.81	46789.94
747.00	46890.29
747.18	46501.18
747.37	46466.36
747.55	46576.95
747.74	46519.61
747.92	46310.72
748.11	46564.67
748.29	46419.26
748.48	46634.30
748.66	46277.95
748.85	46554.43
749.03	45987.14
749.22	46488.89
749.41	46204.22
749.59	46241.09
749.78	45745.48
749.96	46075.20
750.15	45952.32
750.33	45819.20
750.52	45587.78
750.70	45571.40
750.89	45823.30
751.07	45430.09
751.26	45821.25
751.44	45600.07
751.63	45757.77
751.81	45894.98
752.00	45008.21
752.18	45483.34
752.37	45356.36
752.55	45112.66
752.74	45196.62
752.92	45122.90
753.10	45129.04
753.29	45309.26
753.47	44848.47
753.66	44545.37
753.84	45217.10
754.03	44957.01
754.21	44748.12
754.40	44764.50
754.58	44703.06
754.77	44619.10
754.95	44823.89
755.14	44559.70
755.32	44852.56
755.51	44258.65
755.69	44397.91
755.88	44916.05
756.06	44391.77
756.24	44277.08
756.43	44359.00
756.61	44776.79
756.80	44070.24
756.98	44113.25
757.17	44485.98
757.35	44338.52
757.54	44291.42
757.72	44578.14
757.90	44379.48
758.09	43994.46
758.27	44305.76
758.46	43849.06
758.64	43982.18
758.83	43971.94
759.01	43930.98
759.19	43791.72
759.38	43869.54
759.56	44047.71
759.75	43849.06
759.93	44113.25
760.12	43402.60
760.30	43955.55
760.48	43742.56
760.67	44029.28
760.85	43435.37
761.04	43517.29
761.22	43427.18
761.40	43271.53
761.59	43302.25
761.77	43126.13
761.96	43029.87
762.14	43089.26
762.32	43076.97
762.51	43126.13
762.69	42929.52
762.88	42866.03
763.06	43023.73
763.24	42939.76
763.43	43103.60
763.61	42581.37
763.80	42622.33
763.98	42583.41
764.16	42358.14
764.35	42417.53
764.53	42177.92
764.72	42691.96
764.90	42595.70
765.08	42569.08
765.27	42198.40
765.45	42640.76
765.63	42061.18
765.82	42108.29
766.00	42077.57
766.18	41919.87
766.37	42278.27
766.55	42227.07
766.74	41688.45
766.92	41819.52
767.10	41848.19
767.29	41717.12
767.47	41411.98
767.65	41627.01
767.84	41047.44
768.02	41780.61
768.20	41223.56
768.39	41377.16
768.57	41287.05
768.75	41690.50
768.94	41055.63
769.12	41387.40
769.30	40940.94
769.49	41289.10
769.67	41115.02
769.85	40572.31
770.04	40783.25
770.22	40684.95
770.40	40828.30
770.59	40637.84
770.77	40555.93
770.95	40711.57
771.14	40404.38
771.32	39959.97
771.50	40009.12
771.69	40494.49
771.87	40498.58
772.05	40590.74
772.24	40353.18
772.42	40412.57
772.60	40201.63
772.78	39919.01
772.97	39906.72
773.15	40304.02
773.33	39550.37
773.52	39908.77
773.70	40101.28
773.88	40074.65
774.07	39777.70
774.25	39959.97
774.43	39816.61
774.61	39753.12
774.80	39794.08
774.98	39884.19
775.16	40048.03
775.34	40246.68
775.53	39724.45
775.71	39992.73
775.89	40045.98
776.08	40076.70
776.26	40304.02
776.44	40123.80
776.62	39802.27
776.81	39654.82
776.99	40027.55
777.17	39644.58
777.35	39626.15
777.54	40308.12
777.72	39765.41
777.90	40132.00
778.08	40084.89
778.27	39728.55
778.45	40168.86
778.63	40152.48
778.81	40015.26
779.00	40793.49
779.18	39951.77
779.36	40246.68
779.54	39992.73
779.73	40070.56
779.91	39978.40
780.09	40142.24
780.27	40351.13
780.46	40332.70
780.64	40418.71
780.82	40314.26
781.00	40013.21
781.19	40258.97
781.37	40185.24
781.55	40459.67
781.73	40754.58
781.91	40297.88
782.10	40566.16
782.28	40580.50
782.46	40869.26
782.64	40355.22
782.82	39669.15
783.01	40224.15
783.19	40551.83
783.37	40576.40
783.55	40465.81
783.74	40682.90
783.92	40158.62
784.10	40508.82
784.28	40289.69
784.46	39884.19
784.64	39904.67
784.83	40355.22
785.01	40484.25
785.19	40539.54
785.37	40609.17
785.55	40408.47
785.74	39775.65
785.92	39908.77
786.10	39923.10
786.28	39886.24
786.46	40189.34
786.64	39736.74
786.83	39787.94
787.01	39818.66
787.19	40213.91
787.37	39910.82
787.55	39986.59
787.74	39892.38
787.92	39814.56
788.10	39339.43
788.28	39280.04
788.46	39474.60
788.64	39529.89
788.82	39732.64
789.01	39376.30
789.19	40035.74
789.37	39343.53
789.55	39421.35
789.73	38735.28
789.91	39191.98
790.09	39048.62
790.28	38845.87
790.46	38686.13
790.64	39204.27
790.82	38874.54
791.00	38620.59
791.18	38854.06
791.36	38479.28
791.55	38651.31
791.73	38391.22
791.91	38145.47
792.09	38317.50
792.27	38069.69
792.45	38016.44
792.63	37975.48
792.81	38364.60
793.00	38340.02
793.18	37721.54
793.36	37754.30
793.54	38079.93
793.72	37553.60
793.90	37723.58
794.08	37350.85
794.26	37541.32
794.44	37385.67
794.62	36890.06
794.81	37101.00
794.99	37027.28
795.17	37129.67
795.35	36576.72
795.53	36869.58
795.71	37387.72
795.89	36412.88
796.07	36423.12
796.25	36455.89
796.43	36322.77
796.61	36163.03
796.80	36384.21
796.98	36189.66
797.16	36226.52
797.34	35833.31
797.52	36052.44
797.70	36132.31
797.88	35673.57
798.06	35306.98
798.24	35552.74
798.42	35384.80
798.60	35636.70
798.78	35190.25
798.96	35751.39
799.14	35343.84
799.32	35282.41
799.51	35157.48
799.69	35067.37
799.87	35302.89
800.05	34850.28
800.23	35167.72
800.41	34407.92
800.59	34678.25
800.77	34674.16
800.95	34278.90
801.13	34573.81
801.31	34135.54
801.49	34113.02
801.67	33992.19
801.85	34469.36
802.03	34272.76
802.21	33936.89
802.39	33631.74
802.57	33906.17
802.75	33758.72
802.93	33760.76
803.11	33797.63
803.29	33787.39
803.47	33488.38
803.65	33725.95
803.83	33463.81
804.01	33400.32
804.19	33066.50
804.37	32790.03
804.55	32871.95
804.73	33113.61
804.91	32949.77
805.09	33033.74
805.27	32656.91
805.45	33138.18
805.63	32706.06
805.81	32663.05
805.99	32654.86
806.17	32843.27
806.35	32663.05
806.53	32265.75
806.71	32316.95
806.89	32323.09
807.07	32493.07
807.25	32181.78
807.43	31813.15
807.61	32216.60
807.79	31815.19
807.97	31655.45
808.15	31864.35
808.33	31968.79
808.51	31639.07
808.69	31483.42
808.87	31358.50
809.05	31241.76
809.23	31153.70
809.41	31016.49
809.59	31393.31
809.77	31393.31
809.95	31143.46
810.13	31297.06
810.31	31090.21
810.49	30922.28
810.67	31002.15
810.84	30764.59
811.02	30905.90
811.20	30803.50
811.38	30664.24
811.56	30326.32
811.74	30723.63
811.92	30586.41
812.10	30266.93
812.28	30752.30
812.46	30293.55
812.64	30420.53
812.82	30246.45
813.00	30457.39
813.18	30514.73
813.36	29953.59
813.53	30043.70
813.71	29904.44
813.89	29951.54
814.07	29720.12
814.25	30076.47
814.43	29707.83
814.61	29519.42
814.79	29582.91
814.97	29498.94
815.15	29810.23
815.33	29369.92
815.50	29029.96
815.68	29734.46
815.86	29662.78
816.04	29140.55
816.22	29187.65
816.40	29466.17
816.58	29214.27
816.76	29001.29
816.94	29267.52
817.11	29195.84
817.29	28687.95
817.47	28571.21
817.65	28528.20
817.83	28661.32
818.01	28358.22
818.19	28581.45
818.37	28661.32
818.54	28503.63
818.72	28450.38
818.90	28630.60
819.08	28317.26
819.26	28294.74
819.44	28030.55
819.62	28354.13
819.80	28223.06
819.97	28487.25
820.15	28302.93
820.33	28229.20
820.51	28141.14
820.69	28057.17
820.87	28016.21
821.05	28165.71
821.22	27930.20
821.40	28225.11
821.58	27655.77
821.76	27870.81
821.94	27661.91
822.12	27686.49
822.29	27776.60
822.47	27762.26
822.65	27768.41
822.83	27879.00
823.01	27801.18
823.19	27434.59
823.36	27117.15
823.54	27252.32
823.72	27440.73
823.90	27553.37
824.08	27188.83
824.25	27530.84
824.43	27346.53
824.61	27416.16
824.79	27461.21
824.97	26914.41
825.15	27121.25
825.32	27186.79
825.50	26799.72
825.68	27043.43
825.86	27164.26
826.04	26959.46
826.21	26932.84
826.39	26830.44
826.57	26691.18
826.75	26609.26
826.93	26644.07
827.10	26703.46
827.28	26697.32
827.46	26902.12
827.64	26850.92
827.81	26324.59
827.99	26633.83
828.17	26220.14
828.35	26388.08
828.53	26300.01
828.70	26439.28
828.88	26351.21
829.06	26117.75
829.24	26461.80
829.41	26179.18
829.59	26592.87
829.77	26062.45
829.95	26504.81
830.12	25925.24
830.30	26224.24
830.48	26084.98
830.66	26314.35
830.84	26072.69
831.01	25831.03
831.19	26019.44
831.37	25740.92
831.55	25691.77
831.72	25958.00
831.90	25773.69
832.08	25403.00
832.25	25458.30
832.43	25804.41
832.61	25638.52
832.79	25790.07
832.96	25706.10
833.14	25558.65
833.32	25558.65
833.50	25613.95
833.67	25439.87
833.85	25583.23
834.03	25142.91
834.20	25685.62
834.38	25409.15
834.56	25697.91
834.74	25095.81
834.91	25542.27
835.09	25149.06
835.27	25069.19
835.44	25048.71
835.62	24839.81
835.80	25038.47
835.98	25136.77
836.15	24786.57
836.33	25128.58
836.51	24934.02
836.68	25206.40
836.86	25042.56
837.04	25187.97
837.21	24956.55
837.39	25259.65
837.57	25235.07
837.75	24983.17
837.92	24635.02
838.10	24479.37
838.28	24761.99
838.45	24893.06
838.63	24516.23
838.81	24598.15
838.98	24602.25
839.16	24213.13
839.34	24368.78
839.51	24479.37
839.69	24256.14
839.87	24252.05
840.04	24495.75
840.22	24161.94
840.40	24393.36
840.57	24131.22
840.75	24307.34
840.93	24006.29
841.10	24315.53
841.28	24284.81
841.46	24123.02
841.63	24018.58
841.81	24235.66
841.98	24037.01
842.16	24155.79
842.34	24157.84
842.51	23629.46
842.69	24297.10
842.87	23785.11
843.04	24059.54
843.22	23604.89
843.40	23721.62
843.57	23848.60
843.75	23994.00
843.92	24151.70
844.10	23842.45
844.28	23967.38
844.45	23893.65
844.63	23766.68
844.81	23809.68
844.98	23946.90
845.16	23623.32
845.33	23918.23
845.51	23766.68
845.69	23651.99
845.86	23674.52
846.04	23535.26
846.21	23572.12
846.39	23146.14
846.57	23441.05
846.74	23561.88
846.92	23473.82
847.09	23533.21
847.27	23209.63
847.45	23377.56
847.62	23705.24
847.80	23664.28
847.97	23371.42
848.15	23402.14
848.32	23338.65
848.50	23359.13
848.68	22908.58
848.85	23115.42
849.03	22775.46
849.20	23117.47
849.38	23105.18
849.56	23109.28
849.73	22789.80
849.91	22890.15
850.08	23522.97
850.26	22832.80
850.43	23015.07
850.61	23029.41
850.78	22791.84
850.96	22730.41
851.14	22611.62
851.31	22910.63
851.49	22462.12
851.66	22773.41
851.84	22742.69
852.01	22564.52
852.19	22789.80
852.36	22451.88
852.54	22326.96
852.71	22535.85
852.89	22556.33
853.07	22593.19
853.24	22617.77
853.42	22539.94
853.59	22496.94
853.77	22521.51
853.94	22578.86
854.12	22572.71
854.29	22304.43
854.47	22544.04
854.64	22435.50
854.82	22331.05
854.99	22527.66
855.17	22220.46
855.34	22214.32
855.52	22314.67
855.69	22607.53
855.87	22204.08
856.04	22242.99
856.22	22390.44
856.39	22036.14
856.57	22089.39
856.74	21782.20
856.92	22197.93
857.09	21905.07
857.27	21841.59
857.44	22191.79
857.62	22027.95
857.79	22030.00
857.97	21991.09
858.14	22179.50
858.32	21821.11
858.49	21501.62
858.67	21792.44
858.84	21622.45
859.02	21720.76
859.19	21706.42
859.37	21399.23
859.54	21624.50
859.72	21677.75
859.89	21593.78
860.06	21305.02
860.24	21819.06
860.41	21769.91
860.59	21454.52
860.76	21690.04
860.94	21253.82
861.11	21649.08
861.29	21192.38
861.46	21356.22
861.64	21122.75
861.81	20965.06
861.98	21262.01
862.16	21262.01
862.33	20840.13
862.51	21073.60
862.68	21190.33
862.86	21114.56
863.03	20917.95
863.21	21067.45
863.38	21006.02
863.55	21118.65
863.73	20977.34
863.90	21014.21
864.08	21073.60
864.25	21087.93
864.43	20756.16
864.60	20819.65
864.77	20958.91
864.95	20870.85
865.12	20647.62
865.30	20860.61
865.47	20690.63
865.64	20831.94
865.82	20680.39
865.99	20952.77
866.17	20666.05
866.34	20772.55
866.51	20293.32
866.69	20590.28
866.86	20512.46
867.04	20631.24
867.21	20516.55
867.38	20272.84
867.56	20115.15
867.73	20225.74
867.91	20029.13
868.08	20274.89
868.25	20219.60
868.43	20350.67
868.60	19959.50
868.78	20086.48
868.95	20217.55
869.12	19943.12
869.30	19736.27
869.47	20027.09
869.64	19920.59
869.82	20010.70
869.99	20033.23
870.16	20199.12
870.34	19926.74
870.51	19939.02
870.69	19855.06
870.86	19783.38
871.03	19926.74
871.21	19605.20
871.38	19828.43
871.55	19680.98
871.73	19693.27
871.90	19748.56
872.07	19465.94
872.25	19291.87
872.42	19543.77
872.59	19496.66
872.77	19560.15
872.94	19566.29
873.11	19369.69
873.29	19521.24
873.46	19384.02
873.63	19437.27
873.81	19443.42
873.98	19152.60
874.15	19281.63
874.33	18802.40
874.50	19103.45
874.67	19107.55
874.85	18863.84
875.02	18829.02
875.19	18777.83
875.37	18700.00
875.54	18661.09
875.71	19013.34
875.88	18499.30
876.06	18763.49
876.23	18685.67
876.40	18448.10
876.58	18439.91
876.75	18697.95
876.92	18327.27
877.10	18589.41
877.27	18331.37
877.44	18249.45
877.61	18679.52
877.79	18161.39
877.96	18339.56
878.13	18106.09
878.31	17993.45
878.48	18145.00
878.65	18052.84
878.82	17839.86
879.00	17999.60
879.17	18302.70
879.34	18188.01
879.51	17952.49
879.69	17823.47
879.86	17809.14
880.03	17876.72
880.21	17895.15
880.38	17977.07
880.55	17960.69
880.72	17846.00
880.90	17684.21
881.07	17430.26
881.24	17802.99
881.41	17712.88
881.59	17641.20
881.76	17630.96
881.93	17733.36
882.10	17479.41
882.28	17401.59
882.45	17825.52
882.62	17442.55
882.79	17696.50
882.96	17135.35
883.14	17233.66
883.31	17297.14
883.48	17084.16
883.65	17264.38
883.83	17350.39
884.00	17338.10
884.17	17352.44
884.34	17307.38
884.51	17137.40
884.69	17211.13
884.86	16969.47
885.03	16918.27
885.20	17127.16
885.38	17010.43
885.55	17123.07
885.72	16926.46
885.89	16844.54
886.06	17065.72
886.24	16977.66
886.41	16848.64
886.58	16971.52
886.75	17094.40
886.92	16701.19
887.10	17069.82
887.27	16799.49
887.44	16752.38
887.61	17125.11
887.78	16865.02
887.95	16842.50
888.13	16774.91
888.30	16516.87
888.47	16602.88
888.64	16709.38
888.81	16535.30
888.99	16363.27
889.16	16531.20
889.33	16584.45
889.50	16166.67
889.67	16330.50
889.84	16467.72
890.01	16455.43
890.19	16361.22
890.36	16299.78
890.53	16232.20
890.70	16310.02
890.87	16449.28
891.04	16185.10
891.22	16252.68
891.39	16191.24
891.56	16004.88
891.73	16154.38
891.90	15978.25
892.07	15914.77
892.24	15769.36
892.42	15908.62
892.59	15970.06
892.76	16035.60
892.93	15841.04
893.10	15646.48
893.27	15802.13
893.44	15722.26
893.61	15736.59
893.79	15992.59
893.96	15664.91
894.13	16025.36
894.30	15802.13
894.47	15730.45
894.64	15925.00
894.81	15920.91
894.98	15750.93
895.15	15701.78
895.33	15566.61
895.50	15732.50
895.67	15859.47
895.84	15615.76
896.01	15990.54
896.18	15669.01
896.35	15927.05
896.52	15740.69
896.69	15460.12
896.86	15572.75
897.04	15728.40
897.21	15640.34
897.38	15439.64
897.55	15615.76
897.72	15519.51
897.89	15640.34
898.06	15578.90
898.23	15707.92
898.40	15374.10
898.57	15535.89
898.74	15615.76
898.91	15679.25
899.08	15621.91
899.26	15628.05
899.43	15548.18
899.60	15378.20
899.77	15589.14
899.94	15539.99
900.11	15253.27
900.28	15329.05
900.45	15228.70
900.62	15306.52
900.79	15712.02
900.96	15447.83
901.13	15353.62
901.30	15376.15
901.47	15257.37
901.64	15202.07
901.81	15441.68
901.98	15390.49
902.15	15486.74
902.32	15396.63
902.49	15263.51
902.66	15167.26
902.83	15568.66
903.01	15261.46
903.18	15380.25
903.35	15501.08
903.52	15433.49
903.69	15347.48
903.86	15456.02
904.03	15259.42
904.20	15511.32
904.37	15484.69
904.54	15183.64
904.71	15355.67
904.88	15306.52
905.05	15007.52
905.22	15349.53
905.39	15261.46
905.56	15251.22
905.73	15269.66
905.90	15462.16
906.07	15294.23
906.24	15171.35
906.41	15171.35
906.58	15447.83
906.75	15132.44
906.92	15253.27
907.09	15157.02
907.26	15128.35
907.43	15126.30
907.60	15415.06
907.77	15564.56
907.93	15390.49
908.10	15165.21
908.27	15480.60
908.44	15148.82
908.61	14958.36
908.78	15007.52
908.95	15120.15
909.12	15167.26
909.29	15298.33
909.46	15128.35
909.63	15304.47
909.80	15089.43
909.97	15253.27
910.14	15107.87
910.31	15206.17
910.48	15095.58
910.65	14909.21
910.82	14911.26
910.99	14939.93
911.16	14898.97
911.33	14915.36
911.50	15011.61
911.66	14829.34
911.83	15058.71
912.00	14849.82
912.17	14626.59
912.34	14829.34
912.51	14845.73
912.68	14556.96
912.85	14690.08
913.02	14913.31
913.19	14733.09
913.36	14470.95
913.53	14645.02
913.70	14511.91
913.86	14579.49
914.03	14702.37
914.20	14407.46
914.37	14577.44
914.54	14460.71
914.71	14604.07
914.88	14352.16
915.05	14405.41
915.22	14280.49
915.39	14329.64
915.55	14358.31
915.72	14339.88
915.89	14444.32
916.06	14182.18
916.23	14030.63
916.40	13891.37
916.57	13934.38
916.74	14139.18
916.91	14012.20
917.07	13881.13
917.24	13938.48
917.41	13754.16
917.58	13731.63
917.75	13608.75
917.92	13287.22
918.09	13571.89
918.26	13715.25
918.42	13772.59
918.59	13811.50
918.76	13516.59
918.93	13328.18
919.10	13268.79
919.27	13365.04
919.44	13068.09
919.60	13387.57
919.77	13057.85
919.94	13219.64
920.11	13416.24
920.28	13219.64
920.45	13129.53
920.61	13027.13
920.78	13084.47
920.95	12908.35
921.12	13045.56
921.29	12838.72
921.46	12724.03
921.62	12810.04
921.79	12801.85
921.96	12887.87
922.13	12650.30
922.30	12810.04
922.47	12713.79
922.63	12603.20
922.80	12732.22
922.97	12615.49
923.14	12271.43
923.31	12578.62
923.47	12255.04
923.64	12439.36
923.81	12203.85
923.98	12113.74
924.15	11976.52
924.32	12183.37
924.48	12146.50
924.65	12349.25
924.82	11925.32
924.99	11773.77
925.15	11855.69
925.32	11720.53
925.49	11687.76
925.66	11777.87
925.83	11849.55
925.99	11743.05
926.16	11822.92
926.33	11589.46
926.50	11460.43
926.67	11493.20
926.83	11454.29
927.00	11353.94
927.17	11202.39
927.34	11145.05
927.50	11437.91
927.67	11358.03
927.84	11237.20
928.01	11081.56
928.17	11153.24
928.34	11009.88
928.51	10866.52
928.68	10854.23
928.84	10772.32
929.01	10725.21
929.18	10567.52
929.35	10714.97
929.51	10692.44
929.68	10487.65
929.85	10698.59
930.02	10604.38
930.18	10610.53
930.35	10438.50
930.52	10428.26
930.69	10379.11
930.85	10534.75
931.02	10237.80
931.19	10364.77
931.36	10254.18
931.52	10266.47
931.69	10270.56
931.86	10039.14
932.02	9928.55
932.19	9957.22
932.36	9785.19
932.53	10028.90
932.69	9846.63
932.86	9951.08
933.03	9756.52
933.19	9658.22
933.36	9666.41
933.53	9625.45
933.70	9490.29
933.86	9437.04
934.03	9447.28
934.20	9394.03
934.36	9486.19
934.53	9146.23
934.70	9049.97
934.86	9097.08
935.03	8855.42
935.20	8953.72
935.36	8937.34
935.53	8869.75
935.70	8712.06
935.86	8728.44
936.03	8695.68
936.20	8435.58
936.36	8486.78
936.53	8484.73
936.70	8392.58
936.86	8511.36
937.03	8288.13
937.20	8189.83
937.36	8179.59
937.53	8003.46
937.70	7788.43
937.86	7946.12
938.03	7765.90
938.20	7718.79
938.36	7571.34
938.53	7636.88
938.70	7346.06
938.86	7344.02
939.03	7403.41
939.20	7202.71
939.36	7190.42
939.53	7196.56
939.70	7143.32
939.86	6786.97
940.03	6815.64
940.19	6772.63
940.36	6692.76
940.53	6780.82
940.69	6420.38
940.86	6502.30
941.03	6434.72
941.19	6469.53
941.36	6432.67
941.52	6332.32
941.69	6205.35
941.86	6041.51
942.02	6250.40
942.19	6082.47
942.35	6109.09
942.52	5988.26
942.69	5965.73
942.85	5840.81
943.02	5834.66
943.18	5808.04
943.35	5722.02
943.52	5693.35
943.68	5728.17
943.85	5545.90
944.01	5527.47
944.18	5595.05
944.35	5584.81
944.51	5429.17
944.68	5511.08
944.84	5318.57
945.01	5361.58
945.17	5390.25
945.34	5382.06
945.51	5263.28
945.67	5380.01
945.84	5244.85
946.00	5148.59
946.17	5265.33
946.33	5263.28
946.50	5322.67
946.67	5246.90
946.83	5201.84
947.00	5382.06
947.16	5212.08
947.33	5248.94
947.49	5263.28
947.66	5140.40
947.82	5130.16
947.99	5195.70
948.16	5207.98
948.32	5238.70
948.49	5185.46
948.65	5298.10
948.82	5296.05
948.98	5201.84
949.15	5013.43
949.31	5259.18
949.48	5095.35
949.64	5234.61
949.81	5259.18
949.97	5216.18
950.14	5224.37
950.30	5214.13
950.47	5308.34
950.63	5195.70
950.80	5248.94
950.96	5255.09
951.13	5255.09
951.30	5171.12
951.46	5207.98
951.63	5382.06
951.79	5216.18
951.96	5224.37
952.12	5099.44
952.29	5158.83
952.45	5156.79
952.62	5324.72
952.78	5373.87
952.94	5263.28
953.11	5289.90
953.27	5316.53
953.44	5418.93
953.60	5136.31
953.77	5253.04
953.93	5382.06
954.10	5259.18
954.26	5195.70
954.43	5171.12
954.59	5291.95
954.76	5361.58
954.92	5363.63
955.09	5351.34
955.25	5230.51
955.42	5332.91
955.58	5298.10
955.75	5394.35
955.91	5279.66
956.07	5345.20
956.24	5193.65
956.40	5167.03
956.57	5402.54
956.73	5171.12
956.90	5435.31
957.06	5339.05
957.23	5160.88
957.39	5377.97
957.56	5384.11
957.72	5244.85
957.88	5230.51
958.05	5302.19
958.21	5246.90
958.38	5377.97
958.54	5212.08
958.71	5511.08
958.87	5232.56
959.03	5369.77
959.20	5300.14
959.36	5283.76
959.53	5234.61
959.69	5265.33
959.85	5382.06
960.02	5261.23
960.18	5308.34
960.35	5302.19
960.51	5361.58
960.68	5289.90
960.84	5238.70
961.00	5224.37
961.17	5228.46
961.33	5375.92
961.50	5271.47
961.66	5451.69
961.82	5296.05
961.99	5173.17
962.15	5271.47
962.31	5361.58
962.48	5302.19
962.64	5263.28
962.81	5195.70
962.97	5361.58
963.13	5375.92
963.30	5183.41
963.46	5197.74
963.62	5236.66
963.79	5138.35
963.95	5128.11
964.12	5113.78
964.28	5337.01
964.44	5091.25
964.61	5308.34
964.77	5275.57
964.93	5287.86
965.10	5259.18
965.26	5207.98
965.42	5201.84
965.59	5132.21
965.75	5162.93
965.92	5146.55
966.08	5224.37
966.24	5273.52
966.41	5171.12
966.57	5042.10
966.73	5214.13
966.90	5144.50
967.06	5128.11
967.22	5023.67
967.39	5107.63
967.55	5015.48
967.71	5062.58
967.88	5152.69
968.04	4960.18
968.20	5009.33
968.37	5005.24
968.53	4931.51
968.69	4937.65
968.85	5048.24
969.02	5035.96
969.18	5121.97
969.34	4966.32
969.51	5058.48
969.67	4990.90
969.83	4937.65
970.00	5031.86
970.16	4878.26
970.32	5021.62
970.48	4954.04
970.65	4908.98
970.81	4951.99
970.97	4865.97
971.14	4771.77
971.30	5003.19
971.46	4804.53
971.63	4845.49
971.79	4884.41
971.95	4679.61
972.11	4825.01
972.28	4956.08
972.44	4831.16
972.60	4861.88
972.76	4767.67
972.93	4749.24
973.09	4804.53
973.25	4767.67
973.42	4730.81
973.58	4841.40
973.74	4759.48
973.90	4814.77
974.07	4712.38
974.23	4743.10
974.39	4736.95
974.55	4691.90
974.72	4786.10
974.88	4603.83
975.04	4769.72
975.20	4693.94
975.37	4618.17
975.53	4460.48
975.69	4661.18
975.85	4663.22
976.01	4550.59
976.18	4605.88
976.34	4591.55
976.50	4556.73
976.66	4632.51
976.83	4536.25
976.99	4507.58
977.15	4556.73
977.31	4444.09
977.47	4593.59
977.64	4507.58
977.80	4495.29
977.96	4444.09
978.12	4425.66
978.29	4329.41
978.45	4474.81
978.61	4396.99
978.77	4464.57
978.93	4427.71
979.10	4331.45
979.26	4419.52
979.42	4394.94
979.58	4161.47
979.74	4427.71
979.91	4294.59
980.07	4286.40
980.23	4288.45
980.39	4192.19
980.55	4288.45
980.71	4104.13
980.88	4286.40
981.04	4296.64
981.20	4345.79
981.36	4286.40
981.52	4159.42
981.68	4190.14
981.85	4206.53
982.01	4237.25
982.17	4130.75
982.33	4259.78
982.49	4245.44
982.65	4059.07
982.82	4188.10
982.98	4179.90
983.14	4075.46
983.30	4227.01
983.46	4124.61
983.62	4196.29
983.79	4040.64
983.95	4108.23
984.11	3968.96
984.27	4038.59
984.43	4165.57
984.59	4112.32
984.75	4169.66
984.91	4032.45
985.08	4079.55
985.24	3948.48
985.40	3960.77
985.56	3952.58
985.72	4112.32
985.88	4081.60
986.04	3895.24
986.20	3987.40
986.37	3907.52
986.53	3962.82
986.69	3878.85
986.85	3866.56
987.01	3905.48
987.17	3909.57
987.33	3979.20
987.49	3911.62
987.65	3917.76
987.82	3885.00
987.98	3821.51
988.14	3792.84
988.30	3905.48
988.46	3846.09
988.62	3909.57
988.78	3706.82
988.94	3825.61
989.10	3755.97
989.26	3745.73
989.42	3753.93
989.59	3618.76
989.75	3706.82
989.91	3911.62
990.07	3629.00
990.23	3737.54
990.39	3723.21
990.55	3641.29
990.71	3620.81
990.87	3745.73
991.03	3768.26
991.19	3637.19
991.35	3651.53
991.51	3579.85
991.67	3776.45
991.83	3633.10
992.00	3575.75
992.16	3637.19
992.32	3526.60
992.48	3631.05
992.64	3467.21
992.80	3637.19
992.96	3534.79
993.12	3637.19
993.28	3598.28
993.44	3489.74
993.60	3612.62
993.76	3504.07
993.92	3542.99
994.08	3542.99
994.24	3504.07
994.40	3489.74
994.56	3635.14
994.72	3424.20
994.88	3522.51
995.04	3403.72
995.20	3469.26
995.36	3514.31
995.52	3438.54
995.68	3506.12
995.84	3327.95
996.00	3528.65
996.16	3420.11
996.32	3262.41
996.48	3432.40
996.64	3532.75
996.80	3413.96
996.96	3362.76
997.12	3354.57
997.28	3235.79
997.44	3301.33
997.60	3295.18
997.76	3254.22
997.92	3313.61
998.08	3215.31
998.24	3229.65
998.40	3348.43
998.56	3340.24
998.72	3194.83
998.88	3239.89
999.04	3317.71
999.20	3368.91
999.36	3205.07
999.52	3264.46
999.68	3336.14
999.84	3256.27
1000.00	3321.81
1000.16	3223.50
1000.32	3168.21
1000.48	3391.44
1000.64	3117.01
1000.80	3215.31
1000.95	3119.06
1001.11	3131.34
1001.27	3004.37
1001.43	3112.91
1001.59	3074.00
1001.75	2994.13
1001.91	3088.34
1002.07	3100.62
1002.23	3149.78
1002.39	3135.44
1002.55	3182.54
1002.71	3061.71
1002.87	3045.33
1003.03	2965.46
1003.19	3088.34
1003.34	2975.70
1003.50	2979.79
1003.66	3090.38
1003.82	3092.43
1003.98	2920.40
1004.14	3043.28
1004.30	2955.22
1004.46	2926.55
1004.62	2994.13
1004.78	2934.74
1004.94	3014.61
1005.09	2973.65
1005.25	3000.27
1005.41	2811.86
1005.57	2951.12
1005.73	2926.55
1005.89	2867.16
1006.05	2901.97
1006.21	2944.98
1006.37	2858.96
1006.52	2854.87
1006.68	2897.88
1006.84	2879.44
1007.00	2828.24
1007.16	2883.54
1007.32	2727.89
1007.48	2822.10
1007.64	2836.44
1007.79	2865.11
1007.95	2756.57
1008.11	2865.11
1008.27	2842.58
1008.43	2852.82
1008.59	2723.80
1008.75	2842.58
1008.91	2820.05
1009.06	2748.37
1009.22	2787.29
1009.38	2693.08
1009.54	2740.18
1009.70	2836.44
1009.86	2777.05
1010.01	2705.37
1010.17	2768.85
1010.33	2701.27
1010.49	2711.51
1010.65	2822.10
1010.81	2697.17
1010.96	2709.46
1011.12	2586.58
1011.28	2676.70
1011.44	2645.98
1011.60	2648.02
1011.76	2664.41
1011.91	2775.00
1012.07	2650.07
1012.23	2607.06
1012.39	2631.64
1012.55	2684.89
1012.71	2549.72
1012.86	2588.63
1013.02	2580.44
1013.18	2600.92
1013.34	2635.74
1013.50	2723.80
1013.65	2744.28
1013.81	2547.67
1013.97	2494.43
1014.13	2488.28
1014.29	2525.15
1014.44	2596.82
1014.60	2514.91
1014.76	2525.15
1014.92	2527.19
1015.07	2521.05
1015.23	2496.47
1015.39	2519.00
1015.55	2510.81
1015.71	2500.57
1015.86	2500.57
1016.02	2414.56
1016.18	2385.88
1016.34	2559.96
1016.49	2494.43
1016.65	2500.57
1016.81	2527.19
1016.97	2525.15
1017.12	2578.39
1017.28	2412.51
1017.44	2322.40
1017.60	2416.60
1017.75	2435.03
1017.91	2437.08
1018.07	2449.37
1018.23	2414.56
1018.38	2320.35
1018.54	2377.69
1018.70	2404.32
1018.86	2344.92
1019.01	2295.77
1019.17	2396.12
1019.33	2430.94
1019.49	2310.11
1019.64	2484.19
1019.80	2346.97
1019.96	2396.12
1020.12	2406.36
1020.27	2275.29
1020.43	2263.01
1020.59	2330.59
1020.74	2373.60
1020.90	2361.31
1021.06	2271.20
1021.22	2297.82
1021.37	2246.62
1021.53	2258.91
1021.69	2338.78
1021.84	2254.81
1022.00	2277.34
1022.16	2285.53
1022.31	2220.00
1022.47	2330.59
1022.63	2355.16
1022.79	2215.90
1022.94	2244.57
1023.10	2410.46
1023.26	2213.85
1023.41	2269.15
1023.57	2213.85
1023.73	2230.24
1023.88	2242.53
1024.04	2109.41
1024.20	2187.23
1024.35	2312.16
1024.51	2158.56
1024.67	2179.04
1024.82	2220.00
1024.98	2146.27
1025.14	2140.13
1025.29	2097.12
1025.45	2228.19
1025.61	2213.85
1025.76	2166.75
1025.92	2199.52
1026.08	2154.46
1026.23	2199.52
1026.39	2246.62
1026.55	2234.33
1026.70	2183.13
1026.86	2056.16
1027.02	2125.79
1027.17	2107.36
1027.33	2215.90
1027.48	2074.59
1027.64	2125.79
1027.80	2080.74
1027.95	2088.93
1028.11	1998.82
1028.27	2082.78
1028.42	2127.84
1028.58	2066.40
1028.73	2002.91
1028.89	1992.67
1029.05	2140.13
1029.20	2084.83
>>>>>End Processed Spectral Data<<<<<
