SpectraSuite Data File
++++++++++++++++++++++++++++++++++++
Date: Fri Jun 02 14:51:08 CEST 2017
User: INFO_000
Dark Spectrum Present: No
Reference Spectrum Present: No
Number of Sampled Component Spectra: 1
Spectrometers: USB4H00879
Integration Time (usec): 80000 (USB4H00879)
Spectra Averaged: 1 (USB4H00879)
Boxcar Smoothing: 0 (USB4H00879)
Correct for Electrical Dark: No (USB4H00879)
Strobe/Lamp Enabled: No (USB4H00879)
Correct for Detector Non-linearity: No (USB4H00879)
Correct for Stray Light: No (USB4H00879)
Number of Pixels in Processed Spectrum: 3648
>>>>>Begin Processed Spectral Data<<<<<
345.13	1257.45
345.34	1257.45
345.56	1257.45
345.78	1214.45
345.99	1265.64
346.21	1769.44
346.42	1712.10
346.64	1650.66
346.86	1781.73
347.07	1615.85
347.29	1716.20
347.50	1630.18
347.72	1738.73
347.94	1769.44
348.15	1515.50
348.37	1599.46
348.59	1712.10
348.80	1658.85
349.02	1804.26
349.23	1925.09
349.45	1871.84
349.67	1912.80
349.88	1812.45
350.10	1941.47
350.31	1791.97
350.53	1847.27
350.75	1941.47
350.96	1763.30
351.18	1880.04
351.39	1837.03
351.61	1763.30
351.82	1923.04
352.04	1949.67
352.26	1851.36
352.47	1841.12
352.69	1875.94
352.90	1712.10
353.12	1959.91
353.34	1849.32
353.55	2009.06
353.77	1916.90
353.98	1900.52
354.20	1843.17
354.41	1863.65
354.63	1908.71
354.85	1976.29
355.06	1849.32
355.28	1781.73
355.49	1877.99
355.71	1904.61
355.92	1855.46
356.14	1918.95
356.35	1900.52
356.57	1867.75
356.79	1855.46
357.00	1789.92
357.22	1998.82
357.43	1830.88
357.65	1929.19
357.86	1824.74
358.08	1906.66
358.29	1923.04
358.51	2021.35
358.72	1925.09
358.94	1892.32
359.16	1894.37
359.37	1933.28
359.59	1994.72
359.80	1923.04
360.02	1896.42
360.23	1976.29
360.45	2043.87
360.66	1961.95
360.88	1779.68
361.09	1900.52
361.31	1976.29
361.52	1951.71
361.74	2043.87
361.95	2072.54
362.17	1898.47
362.38	1964.00
362.60	2025.44
362.81	1964.00
363.03	1951.71
363.24	1929.19
363.46	2052.06
363.67	1992.67
363.89	1998.82
364.10	2019.30
364.32	1912.80
364.53	2039.78
364.75	1900.52
364.96	2000.87
365.18	2031.58
365.39	1951.71
365.61	2021.35
365.82	2148.32
366.04	1943.52
366.25	1935.33
366.47	2002.91
366.68	2011.11
366.90	1920.99
367.11	2052.06
367.33	1976.29
367.54	2004.96
367.76	1961.95
367.97	1978.34
368.19	2066.40
368.40	1974.24
368.62	1988.58
368.83	2054.11
369.05	2021.35
369.26	1970.15
369.48	2007.01
369.69	1996.77
369.91	2023.39
370.12	2099.17
370.33	2105.31
370.55	2023.39
370.76	1974.24
370.98	2080.74
371.19	2041.82
371.41	2058.21
371.62	2039.78
371.84	1968.10
372.05	2082.78
372.27	2058.21
372.48	2115.55
372.69	2090.98
372.91	2093.02
373.12	2162.66
373.34	2207.71
373.55	2187.23
373.77	2127.84
373.98	2113.50
374.20	2103.26
374.41	2244.57
374.62	2115.55
374.84	2152.42
375.05	2129.89
375.27	2181.09
375.48	2129.89
375.70	2162.66
375.91	2183.13
376.12	2306.01
376.34	2207.71
376.55	2181.09
376.77	2043.87
376.98	2183.13
377.19	2127.84
377.41	2164.70
377.62	2115.55
377.84	2303.96
378.05	2303.96
378.27	2199.52
378.48	2224.09
378.69	2367.45
378.91	2236.38
379.12	2215.90
379.34	2197.47
379.55	2306.01
379.76	2240.48
379.98	2183.13
380.19	2238.43
380.41	2306.01
380.62	2283.49
380.83	2142.18
381.05	2187.23
381.26	2359.26
381.47	2172.89
381.69	2269.15
381.90	2320.35
382.12	2293.72
382.33	2265.05
382.54	2160.61
382.76	2226.14
382.97	2330.59
383.19	2215.90
383.40	2328.54
383.61	2338.78
383.83	2314.20
384.04	2236.38
384.25	2258.91
384.47	2355.16
384.68	2338.78
384.89	2306.01
385.11	2344.92
385.32	2342.88
385.54	2312.16
385.75	2287.58
385.96	2453.47
386.18	2412.51
386.39	2355.16
386.60	2371.55
386.82	2328.54
387.03	2404.32
387.24	2398.17
387.46	2453.47
387.67	2422.75
387.88	2496.47
388.10	2441.18
388.31	2447.32
388.52	2484.19
388.74	2486.23
388.95	2439.13
389.16	2506.71
389.38	2365.40
389.59	2467.80
389.80	2535.39
390.02	2586.58
390.23	2562.01
390.44	2500.57
390.66	2516.95
390.87	2424.80
391.08	2512.86
391.30	2625.50
391.51	2676.70
391.72	2617.30
391.94	2519.00
392.15	2559.96
392.36	2625.50
392.58	2594.78
392.79	2645.98
393.00	2621.40
393.22	2639.83
393.43	2758.61
393.64	2787.29
393.85	2754.52
394.07	2648.02
394.28	2652.12
394.49	2691.03
394.71	2789.33
394.92	2793.43
395.13	2559.96
395.35	2715.61
395.56	2666.46
395.77	2688.98
395.98	2899.92
396.20	2838.48
396.41	2705.37
396.62	2803.67
396.84	2813.91
397.05	2736.09
397.26	2924.50
397.47	2883.54
397.69	2738.13
397.90	2996.18
398.11	2787.29
398.32	2885.59
398.54	2838.48
398.75	2781.14
398.96	2834.39
399.18	3088.34
399.39	2938.84
399.60	3022.80
399.81	2834.39
400.03	2992.08
400.24	3211.22
400.45	2869.20
400.66	3035.09
400.88	2889.68
401.09	3180.50
401.30	2990.03
401.51	3037.14
401.73	3000.27
401.94	3061.71
402.15	3131.34
402.36	3121.10
402.58	3078.10
402.79	3233.74
403.00	3106.77
403.21	3123.15
403.43	3160.02
403.64	3272.65
403.85	3033.04
404.06	3207.12
404.27	3024.85
404.49	3237.84
404.70	3063.76
404.91	3198.93
405.12	3219.41
405.34	3147.73
405.55	3350.48
405.76	3092.43
405.97	3233.74
406.19	3258.32
406.40	3284.94
406.61	3330.00
406.82	3323.85
407.03	3256.27
407.25	3229.65
407.46	3426.25
407.67	3356.62
407.88	3364.81
408.09	3309.52
408.31	3303.37
408.52	3299.28
408.73	3203.02
408.94	3221.45
409.15	3395.53
409.37	3508.17
409.58	3450.83
409.79	3313.61
410.00	3418.06
410.21	3352.52
410.43	3395.53
410.64	3321.81
410.85	3473.36
411.06	3493.83
411.27	3405.77
411.48	3547.08
411.70	3491.79
411.91	3471.31
412.12	3573.71
412.33	3491.79
412.54	3553.23
412.76	3659.72
412.97	3680.20
413.18	3272.65
413.39	3475.40
413.60	3540.94
413.81	3604.42
414.03	3536.84
414.24	3622.86
414.45	3790.79
414.66	3430.35
414.87	3579.85
415.08	3624.90
415.30	3717.06
415.51	3608.52
415.72	3594.19
415.93	3620.81
416.14	3663.82
416.35	3577.80
416.56	3745.73
416.78	3641.29
416.99	3747.78
417.20	3727.30
417.41	3743.69
417.62	3764.17
417.83	3788.74
418.04	3659.72
418.26	3891.14
418.47	3807.17
418.68	3966.92
418.89	3770.31
419.10	3993.54
419.31	3819.46
419.52	3923.91
419.73	3989.44
419.95	3985.35
420.16	3805.13
420.37	3893.19
420.58	3876.80
420.79	3680.20
421.00	3911.62
421.21	4030.40
421.42	3893.19
421.63	3977.16
421.85	3860.42
422.06	4007.87
422.27	3911.62
422.48	4001.73
422.69	4032.45
422.90	4063.17
423.11	4061.12
423.32	4161.47
423.53	4247.49
423.75	4104.13
423.96	4159.42
424.17	4253.63
424.38	4272.06
424.59	4263.87
424.80	4388.80
425.01	4251.58
425.22	4265.92
425.43	4288.45
425.64	4407.23
425.85	4501.44
426.06	4360.13
426.28	4376.51
426.49	4224.96
426.70	4298.69
426.91	4386.75
427.12	4550.59
427.33	4556.73
427.54	4380.61
427.75	4554.68
427.96	4605.88
428.17	4644.79
428.38	4687.80
428.59	4655.03
428.80	4620.22
429.01	4726.71
429.23	4622.27
429.44	4845.49
429.65	4786.10
429.86	4853.69
430.07	4755.38
430.28	4652.98
430.49	4835.25
430.70	5009.33
430.91	4958.13
431.12	4947.89
431.33	4968.37
431.54	4964.28
431.75	4906.93
431.96	4818.87
432.17	5062.58
432.38	5003.19
432.59	5140.40
432.80	5121.97
433.01	5164.98
433.22	5052.34
433.43	5250.99
433.64	5066.67
433.85	5158.83
434.06	5203.89
434.27	5179.31
434.49	5332.91
434.70	5445.55
434.91	5441.45
435.12	5377.97
435.33	5261.23
435.54	5205.94
435.75	5257.14
435.96	5263.28
436.17	5044.15
436.38	5496.75
436.59	5488.56
436.80	5429.17
437.01	5693.35
437.22	5574.57
437.43	5506.99
437.64	5365.68
437.85	5539.76
438.06	5754.79
438.27	5531.56
438.48	5513.13
438.69	5732.26
438.90	5597.10
439.11	5695.40
439.32	5705.64
439.53	5742.50
439.74	5781.42
439.95	5830.57
440.16	5711.78
440.37	5820.33
440.57	5738.41
440.78	5801.90
440.99	5805.99
441.20	5683.11
441.41	5689.26
441.62	5935.01
441.83	5765.03
442.04	5998.50
442.25	5975.97
442.46	5838.76
442.67	6092.71
442.88	6379.42
443.09	5795.75
443.30	5984.16
443.51	6164.39
443.72	6217.63
443.93	6016.93
444.14	6260.64
444.35	5984.16
444.56	6301.60
444.77	6215.59
444.98	6356.90
445.19	6195.11
445.40	6328.22
445.61	6141.86
445.81	6483.87
446.02	6332.32
446.23	6291.36
446.44	6217.63
446.65	6381.47
446.86	6373.28
447.07	6305.70
447.28	6623.13
447.49	6678.43
447.70	6272.93
447.91	6375.33
448.12	6477.73
448.33	6616.99
448.54	6514.59
448.74	6487.96
448.95	6438.81
449.16	6614.94
449.37	6891.41
449.58	6522.78
449.79	6809.50
450.00	6690.71
450.21	6729.63
450.42	6827.93
450.63	6676.38
450.84	6840.22
451.05	6723.48
451.25	6760.34
451.46	6635.42
451.67	7036.82
451.88	6920.09
452.09	6856.60
452.30	6813.59
452.51	6952.85
452.72	7090.07
452.93	7303.06
453.13	7065.49
453.34	7128.98
453.55	7008.15
453.76	7108.50
453.97	7391.12
454.18	7077.78
454.39	7194.51
454.60	7169.94
454.81	7266.19
455.01	7346.06
455.22	7055.25
455.43	7329.68
455.64	7489.42
455.85	7434.13
456.06	7622.54
456.27	7448.46
456.48	7444.37
456.68	7655.31
456.89	7448.46
457.10	7597.96
457.31	7589.77
457.52	7538.57
457.73	7671.69
457.94	7817.10
458.14	7626.64
458.35	7892.87
458.56	7780.23
458.77	7726.99
458.98	7925.64
459.19	7802.76
459.39	7925.64
459.60	8034.18
459.81	7784.33
460.02	8195.97
460.23	8036.23
460.44	8177.54
460.65	8124.29
460.85	8134.53
461.06	8157.06
461.27	8208.26
461.48	8503.17
461.69	8417.15
461.89	8130.44
462.10	8226.69
462.31	8247.17
462.52	8224.64
462.73	8333.18
462.94	8583.04
463.14	8451.97
463.35	8603.52
463.56	9017.21
463.77	8728.44
463.98	8826.75
464.18	8724.35
464.39	8972.15
464.60	9090.93
464.81	9056.12
465.02	8947.58
465.23	9183.09
465.43	9127.80
465.64	9326.45
465.85	9117.56
466.06	9215.86
466.27	9480.05
466.47	9473.90
466.68	9484.14
466.89	9539.44
467.10	9482.10
467.30	9406.32
467.51	9637.74
467.72	9922.41
467.93	9582.45
468.14	9709.42
468.34	10067.81
468.55	9842.54
468.76	10045.29
468.97	9842.54
469.17	10145.64
469.38	10123.11
469.59	10395.49
469.80	10159.97
470.01	10151.78
470.21	10391.39
470.42	10501.98
470.63	10727.26
470.84	10403.68
471.04	10688.35
471.25	10553.18
471.46	10862.43
471.67	10913.63
471.87	10733.40
472.08	10907.48
472.29	11427.67
472.50	10938.20
472.70	11106.13
472.91	11312.98
473.12	11204.44
473.33	11624.27
473.53	11716.43
473.74	11347.79
473.95	11648.85
474.16	11849.55
474.36	11870.03
474.57	11908.94
474.78	11997.00
474.99	12046.15
475.19	11997.00
475.40	12240.71
475.61	12513.09
475.81	12695.36
476.02	12707.65
476.23	12494.66
476.44	12785.47
476.64	13053.75
476.85	13180.73
477.06	12830.52
477.27	13160.25
477.47	13336.37
477.68	13162.30
477.89	13530.93
478.09	13444.91
478.30	13322.04
478.51	13627.18
478.71	13727.53
478.92	13821.74
479.13	13750.06
479.34	14173.99
479.54	14323.49
479.75	14202.66
479.96	14169.90
480.16	14112.55
480.37	14550.82
480.58	14626.59
480.78	14868.25
480.99	14710.56
481.20	14788.38
481.41	14896.92
481.61	15169.30
481.82	15208.22
482.03	15286.04
482.23	15085.34
482.44	15304.47
482.65	15531.80
482.85	15623.95
483.06	15572.75
483.27	15800.08
483.47	15959.82
483.68	15845.13
483.89	16092.94
484.09	16164.62
484.30	16267.02
484.51	16328.45
484.71	16332.55
484.92	16291.59
485.13	16703.23
485.33	16729.86
485.54	16656.13
485.75	16957.18
485.95	17121.02
486.16	17110.78
486.37	17325.82
486.57	17151.74
486.78	17112.83
486.98	17293.05
487.19	17374.97
487.40	17649.39
487.60	17645.30
487.81	17708.79
488.02	17770.22
488.22	17749.75
488.43	18095.85
488.64	18169.58
488.84	18226.92
489.05	18317.03
489.25	18228.97
489.46	18360.04
489.67	18304.74
489.87	18544.36
490.08	18906.85
490.29	18710.24
490.49	18968.29
490.70	19031.77
490.90	19269.34
491.11	18974.43
491.32	19431.13
491.52	19453.66
491.73	19252.95
491.94	19318.49
492.14	19404.50
492.35	19607.25
492.55	19693.27
492.76	19973.84
492.97	19771.09
493.17	20014.80
493.38	20229.84
493.58	20278.99
493.79	20031.18
494.00	20395.72
494.20	20217.55
494.41	20627.14
494.61	20594.37
494.82	20747.97
495.02	20522.69
495.23	20784.83
495.44	20879.04
495.64	20782.79
495.85	21038.78
496.05	21046.97
496.26	20958.91
496.47	21460.66
496.67	20790.98
496.88	21710.52
497.08	21006.02
497.29	21597.88
497.49	21288.64
497.70	21415.61
497.91	21913.27
498.11	21651.13
498.32	21892.79
498.52	21833.39
498.73	21997.23
498.93	21819.06
499.14	21997.23
499.34	21890.74
499.55	22040.24
499.76	21943.99
499.96	22206.13
500.17	22316.72
500.37	22398.63
500.58	22261.42
500.78	22390.44
500.99	22574.76
501.19	22451.88
501.40	22630.05
501.60	22585.00
501.81	22757.03
502.02	22949.54
502.22	22830.76
502.43	22841.00
502.63	23180.96
502.84	23193.25
503.04	23056.03
503.25	23293.60
503.45	23176.86
503.66	23459.48
503.86	23266.97
504.07	23525.02
504.27	23113.38
504.48	23651.99
504.68	23228.06
504.89	23885.46
505.09	23584.41
505.30	23803.54
505.50	23383.71
505.71	23684.76
505.91	24069.78
506.12	23762.58
506.32	24159.89
506.53	24110.74
506.73	24090.26
506.94	23994.00
507.14	24096.40
507.35	24082.06
507.55	24254.09
507.76	24090.26
507.96	24360.59
508.17	24370.83
508.37	24133.26
508.58	24557.19
508.78	24307.34
508.99	24366.73
509.19	24684.17
509.40	24686.22
509.60	24667.78
509.81	24598.15
510.01	24643.21
510.22	24731.27
510.42	24606.34
510.63	24974.98
510.83	25050.75
511.04	25069.19
511.24	25136.77
511.44	24948.36
511.65	25038.47
511.85	25314.94
512.06	24897.16
512.26	25228.93
512.47	25378.43
512.67	25134.72
512.88	25218.69
513.08	25097.86
513.29	25321.09
513.49	25470.59
513.69	25689.72
513.90	25695.86
514.10	25577.08
514.31	25581.18
514.51	25814.65
514.72	25878.13
514.92	26017.40
515.13	25730.68
515.33	25808.50
515.53	26064.50
515.74	26144.37
515.94	26095.22
516.15	26076.79
516.35	26111.60
516.56	26375.79
516.76	26060.40
516.96	26234.48
517.17	26627.69
517.37	26349.17
517.58	26678.89
517.78	26521.20
517.99	26601.07
518.19	26703.46
518.39	26676.84
518.60	26805.86
518.80	26855.01
519.01	26986.08
519.21	26701.42
519.41	27027.04
519.62	26865.25
519.82	27190.88
520.03	27450.97
520.23	27395.68
520.43	27369.05
520.64	27666.01
520.84	27932.25
521.05	27520.60
521.25	27823.70
521.45	27915.86
521.66	27792.98
521.86	27919.96
522.07	28014.16
522.27	28202.58
522.47	28098.13
522.68	28266.06
522.88	28542.54
523.08	28722.76
523.29	28438.09
523.49	28567.12
523.70	28806.73
523.90	28888.65
524.10	28560.97
524.31	29134.40
524.51	28556.88
524.71	29263.43
524.92	29103.68
525.12	29466.17
525.33	29443.65
525.53	29521.47
525.73	29867.58
525.94	29974.07
526.14	29546.05
526.34	30049.85
526.55	30021.17
526.75	29759.03
526.95	30045.75
527.16	30010.93
527.36	29914.68
527.56	30297.65
527.77	30398.00
527.97	30619.18
528.17	30715.44
528.38	30819.88
528.58	30993.96
528.78	30916.14
528.99	31028.77
529.19	31061.54
529.39	30834.22
529.60	31311.39
529.80	31241.76
530.00	31331.87
530.21	31733.28
530.41	31747.61
530.61	31413.79
530.82	31686.17
531.02	31755.80
531.22	32001.56
531.43	31993.37
531.63	32374.29
531.83	32685.58
532.04	32792.08
532.24	32405.01
532.44	33160.71
532.64	33256.96
532.85	32710.16
533.05	32867.85
533.25	33048.07
533.46	32798.22
533.66	33564.16
533.86	33388.03
534.07	33885.69
534.27	33295.88
534.47	33844.73
534.67	33947.13
534.88	33660.41
535.08	34029.05
535.28	34491.89
535.49	34051.58
535.69	34696.69
535.89	34373.11
536.09	34821.61
536.30	34723.31
536.50	34881.00
536.70	35384.80
536.91	34860.52
537.11	35032.55
537.31	34983.40
537.51	34942.44
537.72	35659.23
537.92	35876.32
538.12	35630.56
538.32	35335.65
538.53	35814.88
538.73	35812.83
538.93	35839.45
539.13	35804.64
539.34	36410.84
539.54	35968.48
539.74	36656.59
539.94	36312.53
540.15	36431.32
540.35	36892.11
540.55	36511.19
540.75	36808.14
540.96	36976.08
541.16	36961.74
541.36	36885.97
541.56	37148.11
541.77	37578.18
541.97	36980.17
542.17	37268.94
542.37	37524.93
542.58	37705.15
542.78	37285.32
542.98	37297.61
543.18	37682.62
543.38	38145.47
543.59	38311.35
543.79	37963.20
543.99	38004.16
544.19	38139.32
544.40	37674.43
544.60	38393.27
544.80	38358.45
545.00	38503.86
545.20	38557.11
545.41	38679.99
545.61	38571.44
545.81	38811.06
546.01	38692.27
546.21	38446.52
546.42	38866.35
546.62	38563.25
546.82	38708.66
547.02	38659.51
547.22	38847.92
547.43	38915.50
547.63	38882.73
547.83	38983.09
548.03	38811.06
548.23	39654.82
548.44	39185.83
548.64	39454.12
548.84	39749.03
549.04	39376.30
549.24	39597.48
549.45	39716.26
549.65	39527.84
549.85	39798.18
550.05	40510.87
550.25	39441.83
550.45	40379.80
550.66	39884.19
550.86	39857.57
551.06	39863.71
551.26	40377.75
551.46	40265.11
551.66	40017.31
551.87	40250.78
552.07	40232.35
552.27	40019.36
552.47	40250.78
552.67	40674.71
552.87	40349.08
553.07	40613.27
553.28	40547.73
553.48	40652.18
553.68	40517.01
553.88	40711.57
554.08	40555.93
554.28	40641.94
554.48	40449.43
554.69	41217.42
554.89	40689.04
555.09	41129.36
555.29	40717.71
555.49	40906.13
555.69	40687.00
555.89	40961.42
556.10	40940.94
556.30	40766.87
556.50	41016.72
556.70	40643.99
556.90	41252.23
557.10	41250.19
557.30	40953.23
557.50	41147.79
557.70	41209.23
557.91	41409.93
558.11	41508.23
558.31	41543.05
558.51	41506.18
558.71	41457.03
558.91	41309.58
559.11	41397.64
559.31	41375.11
559.51	41205.13
559.72	41571.72
559.92	41418.12
560.12	41215.37
560.32	41596.29
560.52	41256.33
560.72	41360.78
560.92	41581.96
561.12	41651.59
561.32	41686.40
561.52	41123.21
561.72	42370.43
561.93	41321.87
562.13	41821.57
562.33	41375.11
562.53	42020.22
562.73	41379.21
562.93	41610.63
563.13	41616.77
563.33	41420.17
563.53	41799.04
563.73	41342.35
563.93	41880.96
564.13	42380.67
564.33	41780.61
564.53	41581.96
564.74	41942.40
564.94	41500.04
565.14	42077.57
565.34	41928.06
565.54	41858.43
565.74	42225.02
565.94	42470.78
566.14	41950.59
566.34	41663.88
566.54	42163.58
566.74	41790.85
566.94	42077.57
567.14	42390.91
567.34	41887.10
567.54	42333.56
567.74	41872.77
567.94	42204.54
568.14	42507.64
568.34	42538.36
568.54	41973.12
568.74	41887.10
568.94	42354.04
569.14	42286.46
569.34	42435.96
569.54	42253.69
569.75	41979.26
569.95	42466.68
570.15	42859.89
570.35	42159.48
570.55	42636.66
570.75	42255.74
570.95	42665.33
571.15	42679.67
571.35	42476.92
571.55	42833.27
571.75	42726.77
571.95	42581.37
572.15	42245.50
572.35	42616.18
572.55	42972.53
572.75	42562.93
572.95	42780.02
573.15	42976.62
573.35	42925.42
573.55	42636.66
573.75	42614.13
573.95	42984.82
574.15	42687.86
574.35	42833.27
574.55	42732.92
574.75	42988.91
574.95	43156.85
575.15	43095.41
575.34	43111.79
575.54	43195.76
575.74	43140.46
575.94	43382.12
576.14	43582.82
576.34	43371.88
576.54	43621.73
576.74	43337.07
576.94	43300.20
577.14	43715.94
577.34	44004.70
577.54	43253.10
577.74	43900.26
577.94	43859.30
578.14	44115.29
578.34	43742.56
578.54	43312.49
578.74	43574.63
578.94	43867.49
579.14	43795.81
579.34	43914.59
579.54	43914.59
579.74	44227.93
579.94	43799.91
580.13	44082.53
580.33	44107.10
580.53	44047.71
580.73	44182.88
580.93	44621.14
581.13	44356.96
581.33	44823.89
581.53	44588.38
581.73	44582.23
581.93	44662.10
582.13	44739.93
582.33	44950.87
582.53	44545.37
582.73	45073.74
582.92	45284.68
583.12	45108.56
583.32	44918.10
583.52	44463.45
583.72	45395.28
583.92	44643.67
584.12	44969.30
584.32	45587.78
584.52	45081.94
584.72	45653.32
584.92	45249.87
585.11	46013.76
585.31	45321.55
585.51	45456.71
585.71	45337.93
585.91	45829.44
586.11	45806.92
586.31	45299.02
586.51	45536.59
586.71	45800.77
586.91	45819.20
587.10	45806.92
587.30	45751.62
587.50	45827.40
587.70	46257.47
587.90	46359.87
588.10	45960.51
588.30	46181.70
588.50	46519.61
588.69	46640.44
588.89	46187.84
589.09	46204.22
589.29	46693.69
589.49	46892.34
589.69	46388.54
589.89	46873.91
590.08	46570.81
590.28	46929.20
590.48	47095.09
590.68	46630.20
590.88	47023.41
591.08	47064.37
591.28	46605.62
591.47	47551.79
591.67	47250.74
591.87	46867.76
592.07	47342.89
592.27	47260.97
592.47	47248.69
592.67	47224.11
592.86	47566.12
593.06	47590.70
593.26	47742.25
593.46	47781.16
593.66	47807.78
593.86	47807.78
594.05	47613.23
594.25	48045.35
594.45	47779.11
594.65	48106.79
594.85	47244.59
595.05	48401.69
595.24	48342.30
595.44	47867.17
595.64	48753.94
595.84	48530.72
596.04	48315.68
596.23	48307.49
596.43	48866.58
596.63	48706.84
596.83	48692.50
597.03	48684.31
597.22	49052.95
597.42	48876.82
597.62	49122.58
597.82	49388.81
598.02	48837.91
598.21	49188.11
598.41	48993.56
598.61	49302.80
598.81	49333.52
599.01	49339.66
599.20	49765.64
599.40	49519.88
599.60	49906.95
599.80	49681.67
600.00	50072.84
600.19	49882.37
600.39	49681.67
600.59	50326.78
600.79	50388.22
600.98	50115.84
601.18	50251.01
601.38	50611.45
601.58	50511.10
601.78	50541.82
601.97	50783.48
602.17	50865.40
602.37	50683.13
602.57	50646.27
602.76	50894.07
602.96	50754.81
603.16	51346.67
603.36	51168.50
603.55	51348.72
603.75	51025.14
603.95	51594.48
604.15	51643.63
604.34	51408.11
604.54	51563.76
604.74	51541.23
604.94	51545.33
605.13	51672.30
605.33	51606.76
605.53	51324.14
605.73	52100.32
605.92	52135.14
606.12	51973.35
606.32	52258.02
606.52	51940.58
606.71	51905.77
606.91	52370.66
607.11	52227.30
607.30	52065.51
607.50	52288.74
607.70	52700.38
607.90	52597.98
608.09	52591.84
608.29	52415.71
608.49	53116.12
608.68	52688.09
608.88	52927.70
609.08	52804.83
609.28	52831.45
609.47	53189.84
609.67	53419.22
609.87	52851.93
610.06	53581.01
610.26	53046.49
610.46	53630.16
610.66	53073.11
610.85	53148.88
611.05	53179.60
611.25	53462.22
611.44	53146.84
611.64	53114.07
611.84	53306.58
612.03	53445.84
612.23	53544.14
612.43	54275.27
612.62	52968.66
612.82	53712.08
613.02	53478.61
613.21	53863.63
613.41	53826.76
613.61	53978.31
613.80	53591.25
614.00	53714.12
614.20	53707.98
614.39	54039.75
614.59	54113.48
614.79	54195.40
614.98	53945.54
615.18	54080.71
615.38	54305.99
615.57	53685.45
615.77	54404.29
615.97	54342.85
616.16	53945.54
616.36	53974.22
616.56	54195.40
616.75	53798.09
616.95	54047.94
617.15	53843.15
617.34	54101.19
617.54	53888.20
617.74	54242.50
617.93	54719.68
618.13	54228.16
618.32	54588.61
618.52	54088.90
618.72	53822.67
618.91	54691.01
619.11	54129.86
619.31	54396.10
619.50	54056.14
619.70	53654.73
619.90	54371.52
620.09	54387.91
620.29	54326.47
620.48	54195.40
620.68	54584.51
620.88	54072.52
621.07	54346.95
621.27	54047.94
621.46	53783.76
621.66	54006.98
621.86	54232.26
622.05	54111.43
622.25	54627.52
622.44	53945.54
622.64	54281.41
622.84	54314.18
623.03	54195.40
623.23	54373.57
623.42	54334.66
623.62	54627.52
623.82	54578.37
624.01	54160.58
624.21	54715.58
624.40	54226.12
624.60	54375.62
624.80	54271.17
624.99	53773.52
625.19	54049.99
625.38	54713.53
625.58	54277.32
625.77	54211.78
625.97	54420.67
626.17	53892.30
626.36	54424.77
626.56	53904.59
626.75	53871.82
626.95	54414.53
627.14	54123.72
627.34	54219.97
627.54	54133.96
627.73	54056.14
627.93	54316.23
628.12	53630.16
628.32	54140.10
628.51	54185.16
628.71	54351.04
628.90	54191.30
629.10	54279.36
629.30	54213.83
629.49	54070.47
629.69	53621.97
629.88	54287.56
630.08	54097.09
630.27	54541.50
630.47	54312.13
630.66	54138.05
630.86	54398.15
631.05	53814.47
631.25	54547.65
631.44	54054.09
631.64	53929.16
631.84	54367.43
632.03	54168.77
632.23	53880.01
632.42	54234.31
632.62	54150.34
632.81	53945.54
633.01	54191.30
633.20	54076.61
633.40	54287.56
633.59	54351.04
633.79	53564.62
633.98	54140.10
634.18	54093.00
634.37	54088.90
634.57	54394.05
634.76	54318.28
634.96	53910.73
635.15	53957.83
635.35	54103.24
635.54	53644.49
635.74	54602.94
635.93	53988.55
636.13	54428.87
636.32	54320.32
636.52	53671.12
636.71	53828.81
636.91	53908.68
637.10	54187.21
637.30	53722.32
637.49	53886.15
637.69	53853.39
637.88	54189.25
638.08	53873.87
638.27	53771.47
638.46	53972.17
638.66	53914.83
638.85	53945.54
639.05	53828.81
639.24	54058.18
639.44	53894.35
639.63	54074.57
639.83	54195.40
640.02	53654.73
640.22	53925.07
640.41	54277.32
640.61	53968.07
640.80	53810.38
640.99	53664.97
641.19	54441.15
641.38	54019.27
641.58	53710.03
641.77	54031.56
641.97	53802.19
642.16	53540.05
642.36	54516.93
642.55	54508.74
642.74	53503.18
642.94	54312.13
643.13	54097.09
643.33	54205.64
643.52	54328.52
643.72	54117.57
643.91	53462.22
644.10	53687.50
644.30	54062.28
644.49	53630.16
644.69	53781.71
644.88	54162.63
645.08	53687.50
645.27	53966.02
645.46	53576.91
645.66	53552.33
645.85	53650.64
646.05	54090.95
646.24	54037.70
646.43	53998.79
646.63	53865.67
646.82	54082.76
647.02	53523.66
647.21	54140.10
647.40	53777.61
647.60	53994.70
647.79	54043.85
647.99	53892.30
648.18	54058.18
648.37	53998.79
648.57	53990.60
648.76	53834.95
648.96	53408.98
649.15	53814.47
649.34	53947.59
649.54	54017.22
649.73	53746.89
649.92	53988.55
650.12	53701.84
650.31	53974.22
650.51	54144.20
650.70	53705.93
650.89	53685.45
651.09	54269.12
651.28	54058.18
651.47	53810.38
651.67	54158.53
651.86	54424.77
652.06	53654.73
652.25	53497.04
652.44	53963.98
652.64	53884.11
652.83	53337.30
653.02	53593.29
653.22	54099.14
653.41	53697.74
653.60	53396.69
653.80	53535.95
653.99	53599.44
654.18	53818.57
654.38	53705.93
654.57	54002.89
654.76	53662.93
654.96	53282.00
655.15	53449.94
655.34	53120.21
655.54	53394.64
655.73	53527.76
655.92	53945.54
656.12	53820.62
656.31	53654.73
656.50	53415.12
656.70	53454.03
656.89	53720.27
657.08	53767.37
657.28	53980.36
657.47	53662.93
657.66	53804.24
657.86	53431.50
658.05	53282.00
658.24	53527.76
658.43	53159.12
658.63	53632.21
658.82	53769.42
659.01	53867.72
659.21	53568.72
659.40	53556.43
659.59	53605.58
659.79	53906.63
659.98	53564.62
660.17	53818.57
660.36	53685.45
660.56	53619.92
660.75	53624.01
660.94	53929.16
661.14	53568.72
661.33	53181.65
661.52	53159.12
661.71	53941.45
661.91	53331.15
662.10	53206.23
662.29	53861.58
662.49	53591.25
662.68	53619.92
662.87	53630.16
663.06	53664.97
663.26	53429.46
663.45	54064.33
663.64	53548.24
663.83	53839.05
664.03	53841.10
664.22	53603.53
664.41	53982.41
664.60	53376.21
664.80	53572.81
664.99	53345.49
665.18	53632.21
665.37	53716.17
665.57	53507.28
665.76	53638.35
665.95	54074.57
666.14	53828.81
666.34	53572.81
666.53	53667.02
666.72	53355.73
666.91	53347.54
667.11	53073.11
667.30	53437.65
667.49	53058.77
667.68	53302.48
667.87	53261.52
668.07	53744.84
668.26	53673.16
668.45	53503.18
668.64	53439.70
668.84	54183.11
669.03	54146.25
669.22	53531.86
669.41	53789.90
669.60	53425.36
669.80	53329.11
669.99	54150.34
670.18	53443.79
670.37	53466.32
670.57	53359.83
670.76	53396.69
670.95	53617.87
671.14	53570.77
671.33	53525.71
671.53	53576.91
671.72	53544.14
671.91	53714.12
672.10	53687.50
672.29	53611.73
672.48	53716.17
672.68	54031.56
672.87	53640.40
673.06	53337.30
673.25	53824.71
673.44	53542.10
673.64	53300.43
673.83	53466.32
674.02	53523.66
674.21	53376.21
674.40	53261.52
674.59	53474.51
674.79	53126.36
674.98	53087.45
675.17	53531.86
675.36	53376.21
675.55	53705.93
675.74	53275.86
675.94	53451.98
676.13	53748.94
676.32	54013.13
676.51	54236.36
676.70	53521.62
676.89	53425.36
677.08	53810.38
677.28	53421.26
677.47	54064.33
677.66	53857.48
677.85	53499.09
678.04	53687.50
678.23	54031.56
678.42	53554.38
678.62	53617.87
678.81	53701.84
679.00	53646.54
679.19	54146.25
679.38	53550.29
679.57	53744.84
679.76	53738.70
679.96	53828.81
680.15	53652.69
680.34	53605.58
680.53	53347.54
680.72	53867.72
680.91	53847.24
681.10	53480.66
681.29	53902.54
681.48	53634.25
681.68	53857.48
681.87	53619.92
682.06	53613.77
682.25	53519.57
682.44	53406.93
682.63	53744.84
682.82	53800.14
683.01	53365.97
683.20	53105.88
683.39	53796.04
683.59	53122.26
683.78	53155.03
683.97	53548.24
684.16	52958.42
684.35	53026.01
684.54	53417.17
684.73	53302.48
684.92	53148.88
685.11	53505.23
685.30	53097.69
685.49	53943.50
685.69	53093.59
685.88	53347.54
686.07	53183.70
686.26	53306.58
686.45	53699.79
686.64	53595.34
686.83	53859.53
687.02	53781.71
687.21	53785.80
687.40	53361.87
687.59	53503.18
687.78	53544.14
687.97	53527.76
688.16	53531.86
688.35	53677.26
688.54	53150.93
688.74	53695.69
688.93	53322.96
689.12	53703.88
689.31	53413.07
689.50	53724.36
689.69	53204.18
689.88	53357.78
690.07	53259.48
690.26	53011.67
690.45	53581.01
690.64	53570.77
690.83	53519.57
691.02	52847.83
691.21	53376.21
691.40	53302.48
691.59	53581.01
691.78	53353.68
691.97	53542.10
692.16	53583.05
692.35	53269.72
692.54	53548.24
692.73	53425.36
692.92	53325.01
693.11	53376.21
693.30	53228.76
693.49	53370.07
693.68	53314.77
693.87	53484.75
694.06	53216.47
694.25	53048.53
694.44	53083.35
694.63	53529.81
694.82	53695.69
695.01	53447.89
695.20	53535.95
695.39	53052.63
695.58	53343.44
695.77	53060.82
695.96	52868.31
696.15	53787.85
696.34	53208.28
696.53	53212.37
696.72	53501.14
696.91	53515.47
697.10	53370.07
697.29	53257.43
697.48	53744.84
697.67	52856.03
697.86	52620.51
698.05	53087.45
698.24	53318.87
698.43	52647.13
698.62	53195.99
698.81	52421.86
699.00	53214.42
699.19	53060.82
699.38	53398.74
699.57	52557.02
699.76	53712.08
699.95	52989.14
700.14	53075.16
700.32	53232.85
700.51	53073.11
700.70	53486.80
700.89	53415.12
701.08	53251.28
701.27	52845.79
701.46	53445.84
701.65	52245.73
701.84	52755.68
702.03	52958.42
702.22	53167.32
702.41	53058.77
702.60	53394.64
702.79	53333.20
702.98	52092.13
703.17	52354.27
703.35	52651.23
703.54	52282.59
703.73	53081.30
703.92	52679.90
704.11	52950.23
704.30	52880.60
704.49	52526.30
704.68	53040.34
704.87	52581.60
705.06	52651.23
705.25	52466.91
705.43	52450.53
705.62	52935.90
705.81	52489.44
706.00	52409.57
706.19	52276.45
706.38	52430.05
706.57	52466.91
706.76	52196.58
706.95	52409.57
707.14	51930.34
707.32	52468.96
707.51	52192.48
707.70	52178.15
707.89	52479.20
708.08	52462.82
708.27	52458.72
708.46	52575.45
708.65	52442.34
708.84	52475.10
709.02	52518.11
709.21	52489.44
709.40	52389.09
709.59	52518.11
709.78	51606.76
709.97	52376.80
710.16	52124.90
710.34	52327.65
710.53	52188.39
710.72	51756.27
710.91	52110.56
711.10	52174.05
711.29	52337.89
711.48	52118.76
711.66	52145.38
711.85	51924.20
712.04	51936.49
712.23	51881.19
712.42	51723.50
712.61	52274.40
712.80	51672.30
712.98	52053.22
713.17	51590.38
713.36	51875.05
713.55	52104.42
713.74	51686.64
713.93	51723.50
714.11	51700.97
714.30	51492.08
714.49	51561.71
714.68	51637.48
714.87	52149.48
715.06	51936.49
715.24	51479.79
715.43	51297.52
715.62	51014.90
715.81	51479.79
716.00	51643.63
716.18	50869.50
716.37	51019.00
716.56	51182.84
716.75	51696.88
716.94	51162.36
717.12	51051.76
717.31	51172.60
717.50	50947.32
717.69	50742.52
717.88	51203.31
718.06	51197.17
718.25	51479.79
718.44	50986.23
718.63	51055.86
718.82	50789.62
719.00	50892.02
719.19	50816.25
719.38	50578.68
719.57	50054.40
719.76	50107.65
719.94	50439.42
720.13	50218.24
720.32	50232.58
720.51	50248.96
720.69	50341.12
720.88	50312.45
721.07	50279.68
721.26	49702.15
721.44	49739.02
721.63	49653.00
721.82	49892.61
722.01	49847.56
722.20	49974.53
722.38	49849.61
722.57	49702.15
722.76	49769.74
722.95	49435.92
723.13	49394.96
723.32	49519.88
723.51	48997.65
723.70	49538.32
723.88	49730.83
724.07	49036.56
724.26	49554.70
724.44	48788.76
724.63	49200.40
724.82	48950.55
725.01	48837.91
725.19	48870.68
725.38	48866.58
725.57	48977.17
725.76	49138.96
725.94	48559.39
726.13	48971.03
726.32	48612.63
726.51	48741.66
726.69	49263.89
726.88	48760.09
727.07	48870.68
727.25	48444.70
727.44	48788.76
727.63	48616.73
727.82	48725.27
728.00	48794.90
728.19	48442.65
728.38	48696.60
728.56	47938.85
728.75	48688.41
728.94	48389.41
729.12	48575.77
729.31	48706.84
729.50	48581.91
729.69	48502.04
729.87	48555.29
730.06	48667.93
730.25	48104.74
730.43	48792.86
730.62	48074.02
730.81	48411.93
730.99	48815.38
731.18	48559.39
731.37	47936.80
731.55	48145.70
731.74	48665.88
731.93	48405.79
732.11	48663.83
732.30	48463.13
732.49	48133.41
732.67	48528.67
732.86	48039.20
733.05	48153.89
733.23	47861.03
733.42	48131.36
733.61	47895.85
733.79	47930.66
733.98	47832.36
734.17	48299.30
734.35	48119.07
734.54	48186.66
734.73	47938.85
734.91	47854.89
735.10	48014.63
735.29	48248.10
735.47	47602.99
735.66	47879.46
735.84	47674.66
736.03	47848.74
736.22	48164.13
736.40	47564.07
736.59	47879.46
736.78	47371.57
736.96	47656.23
737.15	47879.46
737.33	47781.16
737.52	47351.09
737.71	47631.66
737.89	47752.49
738.08	46929.20
738.27	47346.99
738.45	47762.73
738.64	47420.72
738.82	47238.45
739.01	47332.65
739.20	47349.04
739.38	47480.11
739.57	47342.89
739.75	47217.97
739.94	46783.80
740.13	47330.61
740.31	46986.55
740.50	46820.66
740.68	47125.81
740.87	46961.97
741.06	46953.78
741.24	46904.63
741.43	46527.80
741.61	46282.05
741.80	46523.71
741.99	46538.04
742.17	46298.43
742.36	46638.39
742.54	46484.79
742.73	46345.53
742.91	46587.19
743.10	46499.13
743.29	46646.58
743.47	46392.64
743.66	46535.99
743.84	46286.14
744.03	46597.43
744.21	46091.58
744.40	46431.55
744.59	46095.68
744.77	46030.15
744.96	46136.64
745.14	46024.00
745.33	46216.51
745.51	45821.25
745.70	45913.41
745.88	46017.86
746.07	46419.26
746.26	45002.07
746.44	45571.40
746.63	46175.55
746.81	45759.81
747.00	45393.23
747.18	45489.48
747.37	45593.93
747.55	45636.94
747.74	45610.31
747.92	45227.34
748.11	45143.38
748.29	45425.99
748.48	45409.61
748.66	45266.25
748.85	45325.64
749.03	45153.62
749.22	45008.21
749.41	45141.33
749.59	45362.51
749.78	44780.88
749.96	44852.56
750.15	45036.88
750.33	44811.60
750.52	44389.72
750.70	44340.57
750.89	44152.16
751.07	44189.02
751.26	44490.07
751.44	44504.41
751.63	44799.32
751.81	44471.64
752.00	44266.84
752.18	44535.13
752.37	44256.60
752.55	44162.40
752.74	43988.32
752.92	44172.64
753.10	44232.03
753.29	44328.28
753.47	43576.68
753.66	43615.59
753.84	44088.67
754.03	43568.49
754.21	43521.38
754.40	43939.17
754.58	43867.49
754.77	43783.52
754.95	43502.95
755.14	43627.88
755.32	43517.29
755.51	43144.56
755.69	43140.46
755.88	43003.25
756.06	43672.93
756.24	43140.46
756.43	43197.80
756.61	43101.55
756.80	42972.53
756.98	42614.13
757.17	42761.59
757.35	42968.43
757.54	42870.13
757.72	43126.13
757.90	42945.90
758.09	42515.83
758.27	42726.77
758.46	42679.67
758.64	42730.87
758.83	42851.70
759.01	42833.27
759.19	42259.84
759.38	42816.88
759.56	43050.35
759.75	42710.39
759.93	42575.22
760.12	42370.43
760.30	42589.56
760.48	42483.06
760.67	42061.18
760.85	42067.33
761.04	42319.23
761.22	42425.72
761.40	41981.31
761.59	42235.26
761.77	41645.44
761.96	41731.46
762.14	42071.42
762.32	41987.46
762.51	41706.88
762.69	41710.98
762.88	41723.27
763.06	41835.91
763.24	41948.54
763.43	41801.09
763.61	41463.18
763.80	41403.78
763.98	41383.30
764.16	41403.78
764.35	41088.40
764.53	40887.70
764.72	41182.60
764.90	41514.37
765.08	41018.77
765.27	41596.29
765.45	40836.50
765.63	40480.15
765.82	41155.98
766.00	40672.66
766.18	40557.97
766.37	41237.90
766.55	40603.03
766.74	40981.90
766.92	40797.59
767.10	40400.28
767.29	40416.66
767.47	40224.15
767.65	40170.91
767.84	39929.25
768.02	40250.78
768.20	39990.69
768.39	40621.46
768.57	40560.02
768.75	39894.43
768.94	40318.36
769.12	40418.71
769.30	39470.50
769.49	39652.77
769.67	39482.79
769.85	39306.66
770.04	39493.03
770.22	39462.31
770.40	39474.60
770.59	39093.68
770.77	39544.23
770.95	39380.39
771.14	38901.17
771.32	39001.52
771.50	39171.50
771.69	39120.30
771.87	39466.41
772.05	39417.25
772.24	38946.22
772.42	39015.85
772.60	39091.63
772.78	38507.96
772.97	38284.73
773.15	38972.85
773.33	38622.64
773.52	38495.67
773.70	39046.57
773.88	38671.79
774.07	38817.20
774.25	38843.82
774.43	39228.84
774.61	38804.91
774.80	38819.25
774.98	38751.66
775.16	38839.73
775.34	38905.26
775.53	38895.02
775.71	39196.07
775.89	38909.36
776.08	38700.47
776.26	39048.62
776.44	38743.47
776.62	38802.86
776.81	38643.12
776.99	39110.06
777.17	39144.87
777.35	38645.17
777.54	39159.21
777.72	38792.62
777.90	38645.17
778.08	38868.40
778.27	38864.30
778.45	39130.54
778.63	39220.65
778.81	38872.49
779.00	39560.61
779.18	39155.11
779.36	39370.15
779.54	38806.96
779.73	38983.09
779.91	39044.52
780.09	38770.10
780.27	39632.29
780.46	38895.02
780.64	39302.57
780.82	38927.79
781.00	38669.75
781.19	39355.82
781.37	39318.95
781.55	39083.44
781.73	39683.49
781.91	39396.77
782.10	39091.63
782.28	39146.92
782.46	39816.61
782.64	39419.30
782.82	39423.40
783.01	39564.71
783.19	39548.32
783.37	39638.44
783.55	39462.31
783.74	39353.77
783.92	39204.27
784.10	39531.94
784.28	39466.41
784.46	39286.18
784.64	39316.90
784.83	39980.45
785.01	39937.44
785.19	39613.86
785.37	39785.89
785.55	39767.46
785.74	39519.65
785.92	39204.27
786.10	39587.24
786.28	39321.00
786.46	39327.14
786.64	38968.75
786.83	39282.09
787.01	39525.80
787.19	38888.88
787.37	39300.52
787.55	39071.15
787.74	38925.74
787.92	39120.30
788.10	38952.37
788.28	38923.69
788.46	39173.55
788.64	38569.40
788.82	39194.03
789.01	38809.01
789.19	39026.09
789.37	38620.59
789.55	39007.66
789.73	38249.91
789.91	38636.98
790.09	38536.63
790.28	38419.89
790.46	38034.88
790.64	38686.13
790.82	38147.51
791.00	38262.20
791.18	37936.57
791.36	38098.36
791.55	37957.05
791.73	37836.22
791.91	37643.71
792.09	38172.09
792.27	37866.94
792.45	37866.94
792.63	37895.61
792.81	37193.16
793.00	37477.83
793.18	37434.82
793.36	37363.14
793.54	37307.85
793.72	37160.39
793.90	37092.81
794.08	36732.37
794.26	37533.12
794.44	36971.98
794.62	36873.68
794.81	37078.47
794.99	36619.73
795.17	36625.87
795.35	36384.21
795.53	36752.85
795.71	36781.52
795.89	36666.83
796.07	36320.73
796.25	36144.60
796.43	36253.14
796.61	35575.27
796.80	36187.61
796.98	35859.93
797.16	35808.73
797.34	35614.18
797.52	35747.29
797.70	35884.51
797.88	35479.01
798.06	35153.38
798.24	35427.81
798.42	35229.16
798.60	35628.51
798.78	35085.80
798.96	35218.92
799.14	35079.66
799.32	34924.01
799.51	34946.54
799.69	35280.36
799.87	35175.91
800.05	35018.22
800.23	35020.27
800.41	34590.19
800.59	34852.33
800.77	34526.71
800.95	34239.99
801.13	34272.76
801.31	34899.44
801.49	34106.87
801.67	33945.08
801.85	33793.53
802.03	34135.54
802.21	33854.97
802.39	33805.82
802.57	33519.10
802.75	33914.36
802.93	33678.85
803.11	33453.57
803.29	33254.92
803.47	33291.78
803.65	33367.55
803.83	33379.84
804.01	33486.34
804.19	33140.23
804.37	33111.56
804.55	33226.24
804.73	33209.86
804.91	33050.12
805.09	32683.53
805.27	32751.12
805.45	32792.08
805.63	33234.44
805.81	32939.53
805.99	32595.47
806.17	32957.96
806.35	32744.97
806.53	32648.72
806.71	32396.82
806.89	32538.13
807.07	32642.57
807.25	32081.43
807.43	32063.00
807.61	32609.81
807.79	32226.84
807.97	32134.68
808.15	32103.96
808.33	31651.36
808.51	31878.68
808.69	31657.50
808.87	31434.27
809.05	31342.11
809.23	31671.84
809.41	31462.94
809.59	31348.26
809.77	31536.67
809.95	31172.13
810.13	31260.20
810.31	31141.41
810.49	31510.05
810.67	31018.53
810.84	31288.87
811.02	30942.76
811.20	30750.25
811.38	31010.34
811.56	30414.38
811.74	30823.98
811.92	30594.61
812.10	30598.70
812.28	30883.37
812.46	30901.80
812.64	30750.25
812.82	30449.20
813.00	30565.93
813.18	30549.55
813.36	30195.25
813.53	30250.55
813.71	30428.72
813.89	30010.93
814.07	30164.53
814.25	30547.50
814.43	30604.84
814.61	29875.77
814.79	30015.03
814.97	29953.59
815.15	30232.11
815.33	29771.32
815.50	29417.02
815.68	30049.85
815.86	29730.36
816.04	29707.83
816.22	29279.81
816.40	29615.68
816.58	29701.69
816.76	29259.33
816.94	29593.15
817.11	29513.28
817.29	29535.81
817.47	29435.45
817.65	29390.40
817.83	29081.16
818.01	29175.36
818.19	29197.89
818.37	29201.99
818.54	28833.35
818.72	28882.50
818.90	28878.41
819.08	29087.30
819.26	28679.75
819.44	29175.36
819.62	28972.61
819.80	28980.81
819.97	28931.65
820.15	28573.26
820.33	28417.61
820.51	28784.20
820.69	28249.68
820.87	28673.61
821.05	28737.10
821.22	28524.11
821.40	28509.77
821.58	27993.68
821.76	28378.70
821.94	28169.81
822.12	28632.65
822.29	28362.32
822.47	28137.04
822.65	28542.54
822.83	28307.02
823.01	28245.58
823.19	28243.54
823.36	27876.95
823.54	27688.54
823.72	27983.44
823.90	27940.44
824.08	27688.54
824.25	27758.17
824.43	27618.91
824.61	27631.19
824.79	27655.77
824.97	27469.40
825.15	27752.02
825.32	27645.53
825.50	27461.21
825.68	27475.55
825.86	27934.29
826.04	27729.50
826.21	27674.20
826.39	27577.95
826.57	27655.77
826.75	27661.91
826.93	27151.97
827.10	27340.38
827.28	27111.01
827.46	27293.28
827.64	27022.95
827.81	27131.49
827.99	27405.92
828.17	27094.63
828.35	26842.73
828.53	26750.57
828.70	27014.76
828.88	27289.18
829.06	26965.60
829.24	27080.29
829.41	26734.18
829.59	26644.07
829.77	26795.62
829.95	27041.38
830.12	26633.83
830.30	26865.25
830.48	26781.29
830.66	26609.26
830.84	26766.95
831.01	26263.15
831.19	26439.28
831.37	26547.82
831.55	26271.34
831.72	26216.05
831.90	26365.55
832.08	26527.34
832.25	26236.53
832.43	26570.35
832.61	26291.82
832.79	26187.38
832.96	26166.90
833.14	26117.75
833.32	26412.65
833.50	26494.57
833.67	25964.15
833.85	26152.56
834.03	25865.85
834.20	26074.74
834.38	26230.38
834.56	26136.18
834.74	26136.18
834.91	26007.16
835.09	25859.70
835.27	25771.64
835.44	25681.53
835.62	25583.23
835.80	25560.70
835.98	25652.86
836.15	25466.49
836.33	25771.64
836.51	26044.02
836.68	25605.75
836.86	25593.47
837.04	25667.19
837.21	25665.14
837.39	25579.13
837.57	25710.20
837.75	25394.81
837.92	25087.62
838.10	25214.59
838.28	25165.44
838.45	25480.83
838.63	24987.27
838.81	24995.46
838.98	25446.01
839.16	25175.68
839.34	24811.14
839.51	25112.19
839.69	24829.57
839.87	24907.40
840.04	24956.55
840.22	25452.16
840.40	25009.79
840.57	24741.51
840.75	24995.46
840.93	24651.40
841.10	24903.30
841.28	25243.26
841.46	24843.91
841.63	24911.49
841.81	24624.78
841.98	24702.60
842.16	25075.33
842.34	24661.64
842.51	24518.28
842.69	24876.68
842.87	24557.19
843.04	24587.91
843.22	24628.87
843.40	24376.97
843.57	24522.38
843.75	24344.20
843.92	24583.82
844.10	24313.48
844.28	24235.66
844.45	24520.33
844.63	24397.45
844.81	24336.01
844.98	24276.62
845.16	24528.52
845.33	24395.40
845.51	24415.88
845.69	24137.36
845.86	24108.69
846.04	24028.82
846.21	24123.02
846.39	24157.84
846.57	24045.20
846.74	24086.16
846.92	24037.01
847.09	23965.33
847.27	23715.48
847.45	23934.61
847.62	23934.61
847.80	23764.63
847.97	23959.19
848.15	23932.56
848.32	23629.46
848.50	23738.01
848.68	23432.86
848.85	23729.81
849.03	23426.71
849.20	23273.12
849.38	23228.06
849.56	23424.67
849.73	23160.48
849.91	23615.13
850.08	23688.85
850.26	23287.45
850.43	23232.16
850.61	23109.28
850.78	23017.12
850.96	23264.92
851.14	22994.59
851.31	23375.52
851.49	23053.98
851.66	23359.13
851.84	23258.78
852.01	23363.23
852.19	23269.02
852.36	22976.16
852.54	23029.41
852.71	23035.55
852.89	23256.73
853.07	22855.33
853.24	23461.53
853.42	23039.65
853.59	23117.47
853.77	23047.84
853.94	23008.93
854.12	23144.09
854.29	22902.43
854.47	22814.37
854.64	22820.52
854.82	22642.34
854.99	22957.73
855.17	22638.25
855.34	22632.10
855.52	22695.59
855.69	22804.13
855.87	22806.18
856.04	22165.17
856.22	22828.71
856.39	22474.41
856.57	22347.44
856.74	22314.67
856.92	22558.38
857.09	22242.99
857.27	22398.63
857.44	22675.11
857.62	22396.59
857.79	22279.85
857.97	22181.55
858.14	22138.54
858.32	22126.25
858.49	21862.07
858.67	22204.08
858.84	21939.89
859.02	22144.69
859.19	21610.17
859.37	22036.14
859.54	21649.08
859.72	22099.63
859.89	22107.82
860.06	21819.06
860.24	22070.96
860.41	22136.49
860.59	21827.25
860.76	21946.03
860.94	21565.11
861.11	21708.47
861.29	21925.55
861.46	21542.58
861.64	21651.13
861.81	21591.73
861.98	21608.12
862.16	21366.46
862.33	21327.55
862.51	21380.79
862.68	21309.11
862.86	21587.64
863.03	21282.49
863.21	21393.08
863.38	21462.71
863.55	21190.33
863.73	21364.41
863.90	21157.57
864.08	21362.36
864.25	20936.38
864.43	21360.31
864.60	20670.15
864.77	21155.52
864.95	20876.99
865.12	20862.66
865.30	21255.87
865.47	20965.06
865.64	20692.68
865.82	21176.00
865.99	21280.44
866.17	20823.75
866.34	21065.41
866.51	20547.27
866.69	20909.76
866.86	20745.92
867.04	20776.64
867.21	20530.89
867.38	20602.57
867.56	20424.39
867.73	20590.28
867.91	20283.08
868.08	20354.76
868.25	20178.64
868.43	20201.16
868.60	20100.81
868.78	19900.11
868.95	20668.10
869.12	20059.85
869.30	20029.13
869.47	20444.87
869.64	19840.72
869.82	20119.24
869.99	19979.98
870.16	20102.86
870.34	20094.67
870.51	20039.37
870.69	19822.29
870.86	20027.09
871.03	19855.06
871.21	19906.26
871.38	19861.20
871.55	19689.17
871.73	19963.60
871.90	19640.02
872.07	19863.25
872.25	19568.34
872.42	19461.85
872.59	19566.29
872.77	19523.29
872.94	19435.22
873.11	19617.49
873.29	19220.19
873.46	19021.53
873.63	19158.75
873.81	19707.60
873.98	19115.74
874.15	19015.39
874.33	19074.78
874.50	19105.50
874.67	19158.75
874.85	19091.16
875.02	18906.85
875.19	18788.07
875.37	18712.29
875.54	18611.94
875.71	18517.73
875.88	18552.55
876.06	18904.80
876.23	18771.68
876.40	18622.18
876.58	18472.68
876.75	18624.23
876.92	18349.80
877.10	18458.34
877.27	18507.49
877.44	18118.38
877.61	18441.96
877.79	18325.22
877.96	18120.43
878.13	18237.16
878.31	18018.03
878.48	17948.40
878.65	18085.61
878.82	17979.12
879.00	18284.26
879.17	17848.05
879.34	18208.49
879.51	17843.95
879.69	17651.44
879.86	17880.82
880.03	17841.90
880.21	17751.79
880.38	17927.92
880.55	17704.69
880.72	17641.20
880.90	17956.59
881.07	17526.52
881.24	17716.98
881.41	17463.03
881.59	17565.43
881.76	17798.90
881.93	17164.03
882.10	17317.62
882.28	17280.76
882.45	17522.42
882.62	17299.19
882.79	17231.61
882.96	16994.04
883.14	17624.82
883.31	17362.68
883.48	17407.73
883.65	17280.76
883.83	17063.68
884.00	17198.84
884.17	17370.87
884.34	17141.50
884.51	17092.35
884.69	16979.71
884.86	16891.65
885.03	17207.03
885.20	16637.70
885.38	17008.38
885.55	17104.64
885.72	16899.84
885.89	16971.52
886.06	17118.97
886.24	16742.14
886.41	16723.71
886.58	16967.42
886.75	17053.44
886.92	16525.06
887.10	17125.11
887.27	16701.19
887.44	16576.26
887.61	16637.70
887.78	16570.12
887.95	16582.40
888.13	16697.09
888.30	16361.22
888.47	16383.75
888.64	16746.24
888.81	16545.54
888.99	16434.95
889.16	16226.06
889.33	16267.02
889.50	16178.95
889.67	16183.05
889.84	16221.96
890.01	16203.53
890.19	16529.16
890.36	16092.94
890.53	15699.73
890.70	16101.13
890.87	16101.13
891.04	16013.07
891.22	15863.57
891.39	16088.84
891.56	15980.30
891.73	15816.46
891.90	15812.37
892.07	15642.39
892.24	15769.36
892.42	15742.74
892.59	15492.88
892.76	15562.51
892.93	15482.64
893.10	15664.91
893.27	15699.73
893.44	15611.67
893.61	15501.08
893.79	15537.94
893.96	15564.56
894.13	15587.09
894.30	15478.55
894.47	15515.41
894.64	15943.44
894.81	15419.16
894.98	15646.48
895.15	15591.19
895.33	15388.44
895.50	15562.51
895.67	15396.63
895.84	15392.53
896.01	15474.45
896.18	15288.09
896.35	15453.97
896.52	15417.11
896.69	15226.65
896.86	15480.60
897.04	15437.59
897.21	15337.24
897.38	15269.66
897.55	15277.85
897.72	15492.88
897.89	15320.85
898.06	15308.57
898.23	15150.87
898.40	15339.29
898.57	15206.17
898.74	15314.71
898.91	15189.78
899.08	15386.39
899.26	15279.89
899.43	15402.77
899.60	15200.02
899.77	15271.70
899.94	15146.78
900.11	15132.44
900.28	15187.74
900.45	15032.09
900.62	15027.99
900.79	15111.96
900.96	15271.70
901.13	15087.39
901.30	15009.56
901.47	15206.17
901.64	15091.48
901.81	15249.18
901.98	14954.27
902.15	15142.68
902.32	15058.71
902.49	15124.25
902.66	14995.23
902.83	14927.64
903.01	14921.50
903.18	15058.71
903.35	15048.47
903.52	15189.78
903.69	15259.42
903.86	15144.73
904.03	15154.97
904.20	15099.67
904.37	15042.33
904.54	15025.95
904.71	15144.73
904.88	15044.38
905.05	14761.76
905.22	14995.23
905.39	15083.29
905.56	14987.04
905.73	15087.39
905.90	14974.75
906.07	14864.16
906.24	15030.04
906.41	14982.94
906.58	15017.75
906.75	14948.12
906.92	14837.53
907.09	14772.00
907.26	14790.43
907.43	14706.46
907.60	14788.38
907.77	15179.54
907.93	14743.33
908.10	14769.95
908.27	15011.61
908.44	14767.90
908.61	14677.79
908.78	14794.53
908.95	14692.13
909.12	14483.24
909.29	14790.43
909.46	14839.58
909.63	14782.24
909.80	14839.58
909.97	14880.54
910.14	14575.39
910.31	14614.30
910.48	14694.18
910.65	14808.86
910.82	14548.77
910.99	14675.74
911.16	14571.30
911.33	14665.50
911.50	14616.35
911.66	14436.13
911.83	14604.07
912.00	14487.33
912.17	14405.41
912.34	14292.77
912.51	14350.12
912.68	14264.10
912.85	14569.25
913.02	14333.73
913.19	14251.81
913.36	14366.50
913.53	14407.46
913.70	14305.06
913.86	14294.82
914.03	14319.40
914.20	14163.75
914.37	13963.05
914.54	14124.84
914.71	14286.63
914.88	14114.60
915.05	14044.97
915.22	14055.21
915.39	14024.49
915.55	14053.16
915.72	13936.43
915.89	13686.58
916.06	13385.52
916.23	13778.73
916.40	13760.30
916.57	13592.37
916.74	13604.66
916.91	13752.11
917.07	13406.00
917.24	13412.15
917.41	13375.28
917.58	13524.79
917.75	13580.08
917.92	13363.00
918.09	13223.73
918.26	13262.65
918.42	13285.17
918.59	13254.45
918.76	13016.89
918.93	13186.87
919.10	12994.36
919.27	12986.17
919.44	13250.36
919.60	13025.08
919.77	13008.70
919.94	12980.03
920.11	12861.24
920.28	12795.71
920.45	12730.17
920.61	12609.34
920.78	12728.13
920.95	12648.26
921.12	12603.20
921.29	12668.73
921.46	12664.64
921.62	12488.51
921.79	12388.16
921.96	12545.86
922.13	12248.90
922.30	12330.82
922.47	12248.90
922.63	12220.23
922.80	12365.64
922.97	12205.89
923.14	11915.08
923.31	12087.11
923.47	11972.43
923.64	12230.47
923.81	11810.64
923.98	11818.83
924.15	11800.40
924.32	11896.65
924.48	11812.68
924.65	11845.45
924.82	11691.85
924.99	11487.06
925.15	11511.63
925.32	11556.69
925.49	11366.23
925.66	11454.29
925.83	11321.17
925.99	11192.15
926.16	11398.99
926.33	11415.38
926.50	11200.34
926.67	11337.56
926.83	11315.03
927.00	10973.02
927.17	11020.12
927.34	10858.33
927.50	10966.87
927.67	11171.67
927.84	11061.08
928.01	11007.83
928.17	10737.50
928.34	10669.92
928.51	10608.48
928.68	10643.29
928.84	10440.54
929.01	10569.57
929.18	10415.97
929.35	10432.35
929.51	10329.95
929.68	10297.19
929.85	10145.64
930.02	10264.42
930.18	10299.23
930.35	10188.64
930.52	10063.72
930.69	10145.64
930.85	10082.15
931.02	9906.02
931.19	10026.86
931.36	9871.21
931.52	9852.78
931.69	9922.41
931.86	9764.72
932.02	9740.14
932.19	9566.06
932.36	9543.53
932.53	9740.14
932.69	9408.37
932.86	9678.70
933.03	9621.36
933.19	9310.07
933.36	9381.74
933.53	9301.87
933.70	9398.13
933.86	9312.11
934.03	9289.59
934.20	9035.64
934.36	9193.33
934.53	9076.60
934.70	8890.23
934.86	9002.87
935.03	8798.07
935.20	8611.71
935.36	8560.51
935.53	8736.63
935.70	8554.37
935.86	8529.79
936.03	8415.10
936.20	8292.23
936.36	8271.75
936.53	8236.93
936.70	8097.67
936.86	8306.56
937.03	8101.76
937.20	7888.78
937.36	8038.28
937.53	7786.38
937.70	7702.41
937.86	7507.85
938.03	7610.25
938.20	7645.07
938.36	7352.21
938.53	7497.61
938.70	7303.06
938.86	7301.01
939.03	7153.55
939.20	7055.25
939.36	7012.24
939.53	6901.65
939.70	7139.22
939.86	6868.89
940.03	6694.81
940.19	6711.19
940.36	6537.12
940.53	6647.71
940.69	6324.13
940.86	6524.83
941.03	6279.07
941.19	6221.73
941.36	6111.14
941.52	6227.87
941.69	6021.03
941.86	5939.11
942.02	6057.89
942.19	6045.60
942.35	5887.91
942.52	5883.81
942.69	5773.22
942.85	5738.41
943.02	5617.58
943.18	5724.07
943.35	5619.63
943.52	5582.76
943.68	5523.37
943.85	5615.53
944.01	5535.66
944.18	5418.93
944.35	5500.84
944.51	5316.53
944.68	5283.76
944.84	5238.70
945.01	5222.32
945.17	5228.46
945.34	5328.81
945.51	5345.20
945.67	5160.88
945.84	5320.62
946.00	5044.15
946.17	5304.24
946.33	5019.57
946.50	5302.19
946.67	5240.75
946.83	5095.35
947.00	5195.70
947.16	5140.40
947.33	5199.79
947.49	5007.28
947.66	5033.91
947.82	5023.67
947.99	5062.58
948.16	5087.15
948.32	5062.58
948.49	5119.92
948.65	5259.18
948.82	5042.10
948.98	5113.78
949.15	4890.55
949.31	4956.08
949.48	5060.53
949.64	5072.82
949.81	5074.87
949.97	4999.09
950.14	5121.97
950.30	5099.44
950.47	5185.46
950.63	5210.03
950.80	5173.17
950.96	5259.18
951.13	5214.13
951.30	5169.07
951.46	5070.77
951.63	5269.42
951.79	5207.98
951.96	5207.98
952.12	5253.04
952.29	5275.57
952.45	5099.44
952.62	5267.38
952.78	5148.59
952.94	5205.94
953.11	5154.74
953.27	5148.59
953.44	5212.08
953.60	5111.73
953.77	5271.47
953.93	5201.84
954.10	5197.74
954.26	5212.08
954.43	5171.12
954.59	5332.91
954.76	5431.21
954.92	5283.76
955.09	5263.28
955.25	5373.87
955.42	5099.44
955.58	5328.81
955.75	5308.34
955.91	5210.03
956.07	5171.12
956.24	5091.25
956.40	5334.96
956.57	5212.08
956.73	5103.54
956.90	5291.95
957.06	5367.73
957.23	5296.05
957.39	5189.55
957.56	5355.44
957.72	5119.92
957.88	5179.31
958.05	5361.58
958.21	5337.01
958.38	5244.85
958.54	5253.04
958.71	5316.53
958.87	5240.75
959.03	5367.73
959.20	5300.14
959.36	5253.04
959.53	5169.07
959.69	5220.27
959.85	5302.19
960.02	5207.98
960.18	5234.61
960.35	5246.90
960.51	5371.82
960.68	5210.03
960.84	5197.74
961.00	5365.68
961.17	5216.18
961.33	5263.28
961.50	5181.36
961.66	5361.58
961.82	5152.69
961.99	5279.66
962.15	5248.94
962.31	5234.61
962.48	5136.31
962.64	5273.52
962.81	5154.74
962.97	5207.98
963.13	5259.18
963.30	5210.03
963.46	5218.22
963.62	5058.48
963.79	5150.64
963.95	5050.29
964.12	5197.74
964.28	5283.76
964.44	5248.94
964.61	5136.31
964.77	5046.20
964.93	5263.28
965.10	5136.31
965.26	5183.41
965.42	5070.77
965.59	5132.21
965.75	5144.50
965.92	5304.24
966.08	5205.94
966.24	5255.09
966.41	5072.82
966.57	4984.76
966.73	5083.06
966.90	5148.59
967.06	4962.23
967.22	5011.38
967.39	4966.32
967.55	4976.56
967.71	5093.30
967.88	5140.40
968.04	4999.09
968.20	5105.59
968.37	4949.94
968.53	5062.58
968.69	5042.10
968.85	5068.72
969.02	4980.66
969.18	5031.86
969.34	4937.65
969.51	4806.58
969.67	5048.24
969.83	4892.60
970.00	5056.43
970.16	4923.32
970.32	4947.89
970.48	5013.43
970.65	4841.40
970.81	4757.43
970.97	4861.88
971.14	4704.18
971.30	4992.95
971.46	4865.97
971.63	4782.01
971.79	4796.34
971.95	4640.70
972.11	4820.92
972.28	4714.42
972.44	4800.44
972.60	4722.62
972.76	4663.22
972.93	4700.09
973.09	4894.65
973.25	4878.26
973.42	4808.63
973.58	4845.49
973.74	4730.81
973.90	4804.53
974.07	4646.84
974.23	4632.51
974.39	4806.58
974.55	4734.90
974.72	4583.35
974.88	4523.96
975.04	4679.61
975.20	4607.93
975.37	4726.71
975.53	4526.01
975.69	4634.55
975.85	4644.79
976.01	4638.65
976.18	4497.34
976.34	4558.78
976.50	4599.74
976.66	4638.65
976.83	4526.01
976.99	4464.57
977.15	4460.48
977.31	4530.11
977.47	4671.42
977.64	4497.34
977.80	4480.96
977.96	4405.18
978.12	4407.23
978.29	4440.00
978.45	4356.03
978.61	4427.71
978.77	4517.82
978.93	4255.68
979.10	4460.48
979.26	4212.67
979.42	4532.15
979.58	4157.38
979.74	4364.22
979.91	4298.69
980.07	4302.78
980.23	4372.41
980.39	4177.86
980.55	4370.37
980.71	4282.30
980.88	4253.63
981.04	4259.78
981.20	4300.73
981.36	4337.60
981.52	4280.25
981.68	4265.92
981.85	4349.89
982.01	4157.38
982.17	4319.17
982.33	4132.80
982.49	4198.34
982.65	4190.14
982.82	4065.22
982.98	4155.33
983.14	4122.56
983.30	4253.63
983.46	4241.34
983.62	4128.70
983.79	4069.31
983.95	4200.38
984.11	3958.72
984.27	4247.49
984.43	4073.41
984.59	4091.84
984.75	4054.98
984.91	3985.35
985.08	4204.48
985.24	4016.07
985.40	3968.96
985.56	4085.70
985.72	4005.83
985.88	4032.45
986.04	3999.68
986.20	3944.39
986.37	3940.29
986.53	3907.52
986.69	3981.25
986.85	3960.77
987.01	3846.09
987.17	4065.22
987.33	3839.94
987.49	4003.78
987.65	3887.04
987.82	3909.57
987.98	3841.99
988.14	3989.44
988.30	3796.93
988.46	3876.80
988.62	3889.09
988.78	3813.32
988.94	3825.61
989.10	3715.02
989.26	3733.45
989.42	3825.61
989.59	3657.67
989.75	3753.93
989.91	3788.74
990.07	3629.00
990.23	3674.06
990.39	3588.04
990.55	3786.69
990.71	3602.38
990.87	3731.40
991.03	3809.22
991.19	3655.62
991.35	3559.37
991.51	3678.15
991.67	3700.68
991.83	3596.23
992.00	3635.14
992.16	3731.40
992.32	3637.19
992.48	3639.24
992.64	3594.19
992.80	3657.67
992.96	3528.65
993.12	3549.13
993.28	3567.56
993.44	3573.71
993.60	3618.76
993.76	3569.61
993.92	3508.17
994.08	3506.12
994.24	3530.70
994.40	3540.94
994.56	3563.47
994.72	3469.26
994.88	3557.32
995.04	3467.21
995.20	3561.42
995.36	3397.58
995.52	3487.69
995.68	3463.12
995.84	3450.83
996.00	3518.41
996.16	3358.67
996.32	3352.52
996.48	3393.48
996.64	3485.64
996.80	3356.62
996.96	3409.87
997.12	3336.14
997.28	3307.47
997.44	3248.08
997.60	3221.45
997.76	3403.72
997.92	3491.79
998.08	3305.42
998.24	3289.04
998.40	3297.23
998.56	3309.52
998.72	3221.45
998.88	3219.41
999.04	3137.49
999.20	3385.29
999.36	3219.41
999.52	3350.48
999.68	3362.76
999.84	3297.23
1000.00	3229.65
1000.16	3254.22
1000.32	3246.03
1000.48	3342.28
1000.64	3071.95
1000.80	3131.34
1000.95	3123.15
1001.11	3149.78
1001.27	3063.76
1001.43	3198.93
1001.59	3137.49
1001.75	3096.53
1001.91	3172.30
1002.07	3090.38
1002.23	3121.10
1002.39	3131.34
1002.55	3125.20
1002.71	3035.09
1002.87	3067.86
1003.03	2985.94
1003.19	3026.90
1003.34	3145.68
1003.50	2963.41
1003.66	3141.58
1003.82	3149.78
1003.98	2992.08
1004.14	3035.09
1004.30	3074.00
1004.46	2918.36
1004.62	2969.55
1004.78	2953.17
1004.94	2936.79
1005.09	2994.13
1005.25	2940.88
1005.41	2951.12
1005.57	2938.84
1005.73	2908.12
1005.89	2877.40
1006.05	3018.71
1006.21	2885.59
1006.37	2889.68
1006.52	2906.07
1006.68	2795.48
1006.84	3067.86
1007.00	2899.92
1007.16	2885.59
1007.32	2809.81
1007.48	2852.82
1007.64	2832.34
1007.79	2869.20
1007.95	2863.06
1008.11	2897.88
1008.27	2783.19
1008.43	2922.45
1008.59	2793.43
1008.75	2791.38
1008.91	2820.05
1009.06	2670.55
1009.22	2863.06
1009.38	2758.61
1009.54	2795.48
1009.70	2658.26
1009.86	2772.95
1010.01	2658.26
1010.17	2779.09
1010.33	2842.58
1010.49	2744.28
1010.65	2772.95
1010.81	2629.59
1010.96	2777.05
1011.12	2639.83
1011.28	2617.30
1011.44	2729.94
1011.60	2656.22
1011.76	2709.46
1011.91	2682.84
1012.07	2658.26
1012.23	2557.91
1012.39	2582.49
1012.55	2619.35
1012.71	2643.93
1012.86	2486.23
1013.02	2695.13
1013.18	2594.78
1013.34	2564.06
1013.50	2592.73
1013.65	2676.70
1013.81	2641.88
1013.97	2582.49
1014.13	2658.26
1014.29	2623.45
1014.44	2686.94
1014.60	2629.59
1014.76	2531.29
1014.92	2516.95
1015.07	2564.06
1015.23	2631.64
1015.39	2547.67
1015.55	2576.34
1015.71	2494.43
1015.86	2457.56
1016.02	2490.33
1016.18	2461.66
1016.34	2557.91
1016.49	2379.74
1016.65	2605.02
1016.81	2416.60
1016.97	2475.99
1017.12	2500.57
1017.28	2457.56
1017.44	2408.41
1017.60	2478.04
1017.75	2408.41
1017.91	2336.73
1018.07	2420.70
1018.23	2416.60
1018.38	2334.68
1018.54	2353.12
1018.70	2400.22
1018.86	2473.95
1019.01	2367.45
1019.17	2410.46
1019.33	2426.84
1019.49	2340.83
1019.64	2394.08
1019.80	2377.69
1019.96	2432.99
1020.12	2310.11
1020.27	2365.40
1020.43	2240.48
1020.59	2351.07
1020.74	2394.08
1020.90	2453.47
1021.06	2273.25
1021.22	2342.88
1021.37	2408.41
1021.53	2263.01
1021.69	2416.60
1021.84	2119.65
1022.00	2273.25
1022.16	2265.05
1022.31	2258.91
1022.47	2293.72
1022.63	2351.07
1022.79	2156.51
1022.94	2263.01
1023.10	2371.55
1023.26	2242.53
1023.41	2232.29
1023.57	2228.19
1023.73	2301.92
1023.88	2306.01
1024.04	2215.90
1024.20	2238.43
1024.35	2222.05
1024.51	2236.38
1024.67	2207.71
1024.82	2265.05
1024.98	2129.89
1025.14	2306.01
1025.29	2193.37
1025.45	2246.62
1025.61	2195.42
1025.76	2320.35
1025.92	2191.33
1026.08	2228.19
1026.23	2215.90
1026.39	2293.72
1026.55	2181.09
1026.70	2168.80
1026.86	2047.97
1027.02	2252.77
1027.17	2158.56
1027.33	2248.67
1027.48	2113.50
1027.64	2158.56
1027.80	2168.80
1027.95	2174.94
1028.11	1996.77
1028.27	2189.28
1028.42	2117.60
1028.58	2052.06
1028.73	2172.89
1028.89	2060.26
1029.05	2162.66
1029.20	2121.70
>>>>>End Processed Spectral Data<<<<<
