SpectraSuite Data File
++++++++++++++++++++++++++++++++++++
Date: Fri Jun 02 14:51:08 CEST 2017
User: INFO_000
Dark Spectrum Present: No
Reference Spectrum Present: No
Number of Sampled Component Spectra: 1
Spectrometers: USB4H00879
Integration Time (usec): 80000 (USB4H00879)
Spectra Averaged: 1 (USB4H00879)
Boxcar Smoothing: 0 (USB4H00879)
Correct for Electrical Dark: No (USB4H00879)
Strobe/Lamp Enabled: No (USB4H00879)
Correct for Detector Non-linearity: No (USB4H00879)
Correct for Stray Light: No (USB4H00879)
Number of Pixels in Processed Spectrum: 3648
>>>>>Begin Processed Spectral Data<<<<<
345.13	1318.89
345.34	1318.89
345.56	1318.89
345.78	1304.56
345.99	1318.89
346.21	1669.09
346.42	1634.28
346.64	1621.99
346.86	1818.60
347.07	1636.33
347.29	1740.77
347.50	1552.36
347.72	1656.81
347.94	1779.68
348.15	1525.74
348.37	1578.98
348.59	1751.01
348.80	1650.66
349.02	1748.97
349.23	1849.32
349.45	1820.64
349.67	1875.94
349.88	1851.36
350.10	1984.48
350.31	1820.64
350.53	1794.02
350.75	1978.34
350.96	1802.21
351.18	1939.43
351.39	1900.52
351.61	1791.97
351.82	1916.90
352.04	1964.00
352.26	1865.70
352.47	1968.10
352.69	1943.52
352.90	1757.16
353.12	1898.47
353.34	1847.27
353.55	1980.39
353.77	1875.94
353.98	1855.46
354.20	1841.12
354.41	1929.19
354.63	1984.48
354.85	1959.91
355.06	1853.41
355.28	1789.92
355.49	1892.32
355.71	1877.99
355.92	1806.31
356.14	1908.71
356.35	1884.13
356.57	1859.56
356.79	1896.42
357.00	1859.56
357.22	1927.14
357.43	1843.17
357.65	1910.75
357.86	1830.88
358.08	1871.84
358.29	1880.04
358.51	2019.30
358.72	2019.30
358.94	1837.03
359.16	1869.80
359.37	2025.44
359.59	1976.29
359.80	1964.00
360.02	1970.15
360.23	1920.99
360.45	1982.43
360.66	1863.65
360.88	1855.46
361.09	1910.75
361.31	1947.62
361.52	1945.57
361.74	2017.25
361.95	2043.87
362.17	1974.24
362.38	2107.36
362.60	1970.15
362.81	1951.71
363.03	1890.28
363.24	2002.91
363.46	2082.78
363.67	1990.63
363.89	1941.47
364.10	1974.24
364.32	1861.60
364.53	2019.30
364.75	1834.98
364.96	1941.47
365.18	2037.73
365.39	1964.00
365.61	2025.44
365.82	2107.36
366.04	1978.34
366.25	1986.53
366.47	2097.12
366.68	2021.35
366.90	1918.95
367.11	2080.74
367.33	2105.31
367.54	2041.82
367.76	1953.76
367.97	2047.97
368.19	2011.11
368.40	2068.45
368.62	2011.11
368.83	1964.00
369.05	2111.46
369.26	2021.35
369.48	1923.04
369.69	2002.91
369.91	2088.93
370.12	2011.11
370.33	2078.69
370.55	1937.38
370.76	1978.34
370.98	2088.93
371.19	2002.91
371.41	2009.06
371.62	2052.06
371.84	1974.24
372.05	2133.98
372.27	2027.49
372.48	2090.98
372.69	2086.88
372.91	2064.35
373.12	2166.75
373.34	2009.06
373.55	2136.03
373.77	2150.37
373.98	2052.06
374.20	2125.79
374.41	2310.11
374.62	2123.74
374.84	2138.08
375.05	2103.26
375.27	2174.94
375.48	2131.94
375.70	2232.29
375.91	2140.13
376.12	2281.44
376.34	2138.08
376.55	2142.18
376.77	2209.76
376.98	2086.88
377.19	2062.30
377.41	2179.04
377.62	2211.81
377.84	2238.43
378.05	2383.84
378.27	2099.17
378.48	2277.34
378.69	2385.88
378.91	2273.25
379.12	2197.47
379.34	2168.80
379.55	2224.09
379.76	2123.74
379.98	2152.42
380.19	2254.81
380.41	2183.13
380.62	2269.15
380.83	2248.67
381.05	2185.18
381.26	2359.26
381.47	2222.05
381.69	2140.13
381.90	2445.27
382.12	2318.30
382.33	2267.10
382.54	2183.13
382.76	2258.91
382.97	2248.67
383.19	2256.86
383.40	2381.79
383.61	2277.34
383.83	2273.25
384.04	2279.39
384.25	2289.63
384.47	2353.12
384.68	2420.70
384.89	2324.44
385.11	2338.78
385.32	2287.58
385.54	2289.63
385.75	2369.50
385.96	2334.68
386.18	2441.18
386.39	2334.68
386.60	2293.72
386.82	2459.61
387.03	2375.64
387.24	2494.43
387.46	2457.56
387.67	2525.15
387.88	2430.94
388.10	2385.88
388.31	2432.99
388.52	2523.10
388.74	2494.43
388.95	2408.41
389.16	2537.43
389.38	2437.08
389.59	2502.62
389.80	2555.86
390.02	2435.03
390.23	2557.91
390.44	2428.89
390.66	2586.58
390.87	2453.47
391.08	2588.63
391.30	2686.94
391.51	2605.02
391.72	2727.89
391.94	2623.45
392.15	2533.34
392.36	2535.39
392.58	2535.39
392.79	2570.20
393.00	2699.22
393.22	2686.94
393.43	2715.61
393.64	2691.03
393.85	2811.86
394.07	2529.24
394.28	2715.61
394.49	2666.46
394.71	2772.95
394.92	2813.91
395.13	2713.56
395.35	2695.13
395.56	2723.80
395.77	2752.47
395.98	2760.66
396.20	2850.77
396.41	2752.47
396.62	2908.12
396.84	2772.95
397.05	2789.33
397.26	2856.92
397.47	2910.16
397.69	2777.05
397.90	2977.75
398.11	2899.92
398.32	2834.39
398.54	2834.39
398.75	2881.49
398.96	2908.12
399.18	3041.23
399.39	2983.89
399.60	3016.66
399.81	2904.02
400.03	2922.45
400.24	3125.20
400.45	2904.02
400.66	3047.38
400.88	3043.28
401.09	3166.16
401.30	3020.75
401.51	3053.52
401.73	2985.94
401.94	3026.90
402.15	3024.85
402.36	3006.42
402.58	3125.20
402.79	3123.15
403.00	3200.98
403.21	3094.48
403.43	3170.26
403.64	3170.26
403.85	3178.45
404.06	3174.35
404.27	2996.18
404.49	3141.58
404.70	3114.96
404.91	3190.74
405.12	3145.68
405.34	3094.48
405.55	3307.47
405.76	3047.38
405.97	3252.17
406.19	3254.22
406.40	3135.44
406.61	3209.17
406.82	3270.61
407.03	3205.07
407.25	3254.22
407.46	3264.46
407.67	3278.80
407.88	3411.92
408.09	3203.02
408.31	3289.04
408.52	3260.37
408.73	3307.47
408.94	3325.90
409.15	3364.81
409.37	3387.34
409.58	3504.07
409.79	3346.38
410.00	3422.16
410.21	3321.81
410.43	3416.01
410.64	3270.61
410.85	3424.20
411.06	3377.10
411.27	3375.05
411.48	3499.98
411.70	3348.43
411.91	3442.64
412.12	3553.23
412.33	3442.64
412.54	3542.99
412.76	3497.93
412.97	3573.71
413.18	3280.85
413.39	3649.48
413.60	3487.69
413.81	3461.07
414.03	3420.11
414.24	3413.96
414.45	3747.78
414.66	3461.07
414.87	3641.29
415.08	3583.95
415.30	3573.71
415.51	3692.49
415.72	3590.09
415.93	3643.34
416.14	3692.49
416.35	3672.01
416.56	3688.39
416.78	3839.94
416.99	3737.54
417.20	3721.16
417.41	3747.78
417.62	3667.91
417.83	3882.95
418.04	3721.16
418.26	3915.72
418.47	3794.89
418.68	3782.60
418.89	3835.85
419.10	3882.95
419.31	3878.85
419.52	3997.64
419.73	3956.68
419.95	3925.96
420.16	3778.50
420.37	3866.56
420.58	4016.07
420.79	3885.00
421.00	3958.72
421.21	3928.00
421.42	3971.01
421.63	4018.11
421.85	4048.83
422.06	4007.87
422.27	4091.84
422.48	4030.40
422.69	4022.21
422.90	4112.32
423.11	4177.86
423.32	4196.29
423.53	4177.86
423.75	4218.82
423.96	4313.02
424.17	4274.11
424.38	4390.84
424.59	4270.01
424.80	4427.71
425.01	4362.17
425.22	4413.37
425.43	4440.00
425.64	4540.35
425.85	4579.26
426.06	4386.75
426.28	4446.14
426.49	4302.78
426.70	4513.72
426.91	4466.62
427.12	4683.70
427.33	4573.11
427.54	4505.53
427.75	4612.03
427.96	4759.48
428.17	4667.32
428.38	4638.65
428.59	4796.34
428.80	4605.88
429.01	4904.89
429.23	4802.49
429.44	5015.48
429.65	4800.44
429.86	4753.34
430.07	4687.80
430.28	4667.32
430.49	4956.08
430.70	5029.81
430.91	4958.13
431.12	4954.04
431.33	4980.66
431.54	5173.17
431.75	4972.47
431.96	4988.85
432.17	5007.28
432.38	4974.52
432.59	5214.13
432.80	5169.07
433.01	5255.09
433.22	5119.92
433.43	5224.37
433.64	5130.16
433.85	5115.83
434.06	5195.70
434.27	5146.55
434.49	5230.51
434.70	5400.49
434.91	5171.12
435.12	5345.20
435.33	5210.03
435.54	5332.91
435.75	5304.24
435.96	5416.88
436.17	5277.62
436.38	5480.36
436.59	5435.31
436.80	5345.20
437.01	5617.58
437.22	5648.30
437.43	5623.72
437.64	5392.30
437.85	5562.28
438.06	5595.05
438.27	5441.45
438.48	5521.32
438.69	5703.59
438.90	5656.49
439.11	5515.18
439.32	5824.42
439.53	5707.69
439.74	5812.14
439.95	5662.63
440.16	5554.09
440.37	5734.31
440.57	5607.34
440.78	5701.54
440.99	5762.98
441.20	5867.43
441.41	5666.73
441.62	5826.47
441.83	5535.66
442.04	5722.02
442.25	5875.62
442.46	5873.57
442.67	6008.74
442.88	6178.72
443.09	5947.30
443.30	5908.39
443.51	5910.44
443.72	6131.62
443.93	5861.29
444.14	6252.45
444.35	5867.43
444.56	6100.90
444.77	6016.93
444.98	6012.84
445.19	6084.52
445.40	6193.06
445.61	6127.52
445.81	6350.75
446.02	6191.01
446.23	6266.78
446.44	6141.86
446.65	6182.82
446.86	6227.87
447.07	6348.70
447.28	6432.67
447.49	6188.96
447.70	6268.83
447.91	6299.55
448.12	6383.52
448.33	6389.66
448.54	6473.63
448.74	6365.09
448.95	6459.29
449.16	6324.13
449.37	6743.96
449.58	6467.49
449.79	6692.76
450.00	6426.53
450.21	6520.73
450.42	6637.47
450.63	6573.98
450.84	6555.55
451.05	6612.89
451.25	6666.14
451.46	6557.60
451.67	6903.70
451.88	6881.18
452.09	6764.44
452.30	6703.00
452.51	6608.80
452.72	6848.41
452.93	7159.70
453.13	6686.62
453.34	6959.00
453.55	7083.92
453.76	6965.14
453.97	7196.56
454.18	6954.90
454.39	7325.58
454.60	7114.64
454.81	7176.08
455.01	7210.90
455.22	7073.68
455.43	7292.82
455.64	7286.67
455.85	7489.42
456.06	7628.68
456.27	7200.66
456.48	7399.31
456.68	7389.07
456.89	7391.12
457.10	7720.84
457.31	7710.60
457.52	7518.09
457.73	7602.06
457.94	7845.77
458.14	7509.90
458.35	7882.63
458.56	7681.93
458.77	7851.91
458.98	8095.62
459.19	7792.52
459.39	8032.13
459.60	8195.97
459.81	8046.47
460.02	8220.55
460.23	8077.19
460.44	8306.56
460.65	8386.43
460.85	8263.55
461.06	8349.57
461.27	8152.96
461.48	8644.48
461.69	8523.65
461.89	8212.35
462.10	8480.64
462.31	8275.84
462.52	8365.95
462.73	8599.42
462.94	9031.54
463.14	8830.84
463.35	8669.05
463.56	9238.39
463.77	8843.13
463.98	8859.51
464.18	8920.95
464.39	9092.98
464.60	9234.29
464.81	9152.37
465.02	9043.83
465.23	9510.77
465.43	9283.44
465.64	9244.53
465.85	9543.53
466.06	9434.99
466.27	9731.95
466.47	9514.86
466.68	9830.25
466.89	9848.68
467.10	9836.39
467.30	9627.50
467.51	9832.30
467.72	10100.58
467.93	9779.05
468.14	10008.42
468.34	10205.03
468.55	10088.29
468.76	10217.32
468.97	10039.14
469.17	10278.76
469.38	10393.44
469.59	10786.65
469.80	10227.56
470.01	10600.29
470.21	10809.18
470.42	10817.37
470.63	10911.58
470.84	10706.78
471.04	10977.11
471.25	11034.46
471.46	10968.92
471.67	11239.25
471.87	11110.23
472.08	11276.12
472.29	11427.67
472.50	11372.37
472.70	11333.46
472.91	11632.46
473.12	11659.09
473.33	11560.78
473.53	11851.60
473.74	11497.30
473.95	11999.05
474.16	12138.31
474.36	12080.97
474.57	12427.07
474.78	12324.68
474.99	12293.96
475.19	12152.65
475.40	12574.53
475.61	12492.61
475.81	12754.75
476.02	12871.48
476.23	12648.26
476.44	12959.55
476.64	13299.51
476.85	13111.10
477.06	13041.46
477.27	13547.31
477.47	13356.85
477.68	13563.70
477.89	13571.89
478.09	13350.71
478.30	13776.69
478.51	13670.19
478.71	13741.87
478.92	13858.60
479.13	13981.48
479.34	13944.62
479.54	14159.66
479.75	14202.66
479.96	14124.84
480.16	14378.79
480.37	14624.54
480.58	14577.44
480.78	14997.28
480.99	14747.42
481.20	14712.61
481.41	15169.30
481.61	15019.80
481.82	15243.03
482.03	15011.61
482.23	15298.33
482.44	15308.57
482.65	15296.28
482.85	15660.82
483.06	15587.09
483.27	15568.66
483.47	15671.06
483.68	15605.52
483.89	15933.20
484.09	16025.36
484.30	16072.46
484.51	16289.54
484.71	16101.13
484.92	16178.95
485.13	16525.06
485.33	16473.86
485.54	16328.45
485.75	16738.05
485.95	16856.83
486.16	16944.89
486.37	16891.65
486.57	16813.82
486.78	16824.06
486.98	16926.46
487.19	17114.87
487.40	17207.03
487.60	17420.02
487.81	17377.01
488.02	17487.61
488.22	17690.35
488.43	17612.53
488.64	17559.28
488.84	17852.14
489.05	17991.41
489.25	17719.03
489.46	18255.59
489.67	18050.80
489.87	18194.15
490.08	18423.53
490.29	18247.40
490.49	18708.19
490.70	18869.98
490.90	18663.14
491.11	18659.04
491.32	18491.11
491.52	18720.48
491.73	18607.84
491.94	19031.77
492.14	18824.93
492.35	19111.64
492.55	18988.77
492.76	19261.15
492.97	19285.72
493.17	19406.55
493.38	19300.06
493.58	19738.32
493.79	19556.05
494.00	19406.55
494.20	19762.90
494.41	19783.38
494.61	19822.29
494.82	19934.93
495.02	20154.06
495.23	20027.09
495.44	20125.39
495.64	20008.65
495.85	20274.89
496.05	20270.79
496.26	20129.48
496.47	20401.86
496.67	20498.12
496.88	20889.28
497.08	20344.52
497.29	20852.42
497.49	20657.86
497.70	20995.78
497.91	20917.95
498.11	20924.10
498.32	21216.96
498.52	21257.92
498.73	21290.68
498.93	21360.31
499.14	21403.32
499.34	21487.29
499.55	21491.38
499.76	21505.72
499.96	21706.42
500.17	21685.94
500.37	21839.54
500.58	21927.60
500.78	22140.59
500.99	21896.88
501.19	22027.95
501.40	22056.62
501.60	22195.89
501.81	22197.93
502.02	22517.42
502.22	22263.47
502.43	22255.28
502.63	22701.73
502.84	22877.86
503.04	22836.90
503.25	22888.10
503.45	22783.65
503.66	22793.89
503.86	23013.02
504.07	23056.03
504.27	22957.73
504.48	23527.06
504.68	23199.39
504.89	23699.09
505.09	23565.98
505.30	23389.85
505.50	23228.06
505.71	23695.00
505.91	23596.70
506.12	23701.14
506.32	23930.51
506.53	23754.39
506.73	24018.58
506.94	24061.58
507.14	24008.34
507.35	24237.71
507.55	24047.25
507.76	24215.18
507.96	24080.02
508.17	24094.35
508.37	24362.64
508.58	24231.57
508.78	24399.50
508.99	24770.18
509.19	24456.84
509.40	24610.44
509.60	24618.63
509.81	25165.44
510.01	24602.25
510.22	24888.96
510.42	24983.17
510.63	25122.43
510.83	25093.76
511.04	25142.91
511.24	25314.94
511.44	24946.31
511.65	25294.46
511.85	25380.48
512.06	25435.77
512.26	25505.40
512.47	25638.52
512.67	25622.14
512.88	25613.95
513.08	25312.89
513.29	26232.43
513.49	26175.09
513.69	25712.25
513.90	25927.28
514.10	25890.42
514.31	26082.93
514.51	26062.45
514.72	26044.02
514.92	26179.18
515.13	26326.64
515.33	26533.48
515.53	26621.55
515.74	26343.02
515.94	26551.91
516.15	26758.76
516.35	26707.56
516.56	27221.60
516.76	26809.96
516.96	26889.83
517.17	27244.13
517.37	27049.57
517.58	27186.79
517.78	27313.76
517.99	27375.20
518.19	27747.93
518.39	27348.57
518.60	27821.66
518.80	27477.60
519.01	27747.93
519.21	27913.81
519.41	28137.04
519.62	28003.92
519.82	28460.62
520.03	28149.33
520.23	28178.00
520.43	28083.80
520.64	28229.20
520.84	28753.48
521.05	28491.34
521.25	28716.62
521.45	28882.50
521.66	28692.04
521.86	28941.89
522.07	29050.44
522.27	29191.75
522.47	28989.00
522.68	29429.31
522.88	29040.20
523.08	29128.26
523.29	29271.62
523.49	29830.71
523.70	29353.54
523.90	29810.23
524.10	29556.28
524.31	29929.02
524.51	29787.71
524.71	30121.52
524.92	30211.64
525.12	30111.28
525.33	30094.90
525.53	30373.42
525.73	30836.27
525.94	30688.81
526.14	30869.03
526.34	30821.93
526.55	30840.36
526.75	30516.78
526.95	31051.30
527.16	31102.50
527.36	31069.73
527.56	31280.67
527.77	31432.22
527.97	31084.07
528.17	31194.66
528.38	31428.13
528.58	31790.62
528.78	31643.17
528.99	31764.00
529.19	31870.49
529.39	31657.50
529.60	31802.91
529.80	32083.48
530.00	32142.87
530.21	32411.15
530.41	32466.45
530.61	32308.76
530.82	32454.16
531.02	32548.37
531.22	32964.10
531.43	32804.36
531.63	32988.68
531.83	33115.65
532.04	33539.58
532.24	32943.63
532.44	33576.45
532.64	33529.34
532.85	33678.85
533.05	33582.59
533.25	33623.55
533.46	33562.11
533.66	33945.08
533.86	33910.27
534.07	34250.23
534.27	34188.79
534.47	34350.58
534.67	34434.55
534.88	34391.54
535.08	34051.58
535.28	34375.16
535.49	35040.75
535.69	34747.89
535.89	35182.06
536.09	34461.17
536.30	35419.62
536.50	35016.17
536.70	35345.89
536.91	35022.31
537.11	35319.27
537.31	35427.81
537.51	35239.40
537.72	35655.14
537.92	35542.50
538.12	35759.58
538.32	35554.79
538.53	35982.81
538.73	35843.55
538.93	35974.62
539.13	35943.90
539.34	35786.21
539.54	36095.45
539.74	36062.68
539.94	36433.36
540.15	36005.34
540.35	36523.47
540.55	35939.80
540.75	37094.86
540.96	36308.44
541.16	36439.51
541.36	36539.86
541.56	36591.06
541.77	37201.35
541.97	36580.82
542.17	36871.63
542.37	36937.16
542.58	37213.64
542.78	36951.50
542.98	37033.42
543.18	37002.70
543.38	37692.86
543.59	37369.29
543.79	37443.01
543.99	37148.11
544.19	37238.22
544.40	37187.02
544.60	37762.50
544.80	37393.86
545.00	37617.09
545.20	38034.88
545.41	37529.03
545.61	37627.33
545.81	37742.02
546.01	37643.71
546.21	37899.71
546.42	37758.40
546.62	37887.42
546.82	38012.35
547.02	38081.98
547.22	38591.92
547.43	38065.60
547.63	38176.19
547.83	38438.33
548.03	38288.82
548.23	38542.77
548.44	38280.63
548.64	38018.49
548.84	38344.12
549.04	38491.57
549.24	38645.17
549.45	38516.15
549.65	38839.73
549.85	38725.04
550.05	39185.83
550.25	38473.14
550.45	39284.14
550.66	39140.78
550.86	38538.68
551.06	39230.89
551.26	38700.47
551.46	39212.46
551.66	39077.29
551.87	38774.19
552.07	39052.72
552.27	39058.86
552.47	39380.39
552.67	39146.92
552.87	38933.93
553.07	38981.04
553.28	39327.14
553.48	39482.79
553.68	39282.09
553.88	39497.13
554.08	39470.50
554.28	39441.83
554.48	39337.38
554.69	39593.38
554.89	39529.89
555.09	39728.55
555.29	39398.82
555.49	39837.09
555.69	39583.14
555.89	39665.06
556.10	39536.04
556.30	39759.27
556.50	39859.62
556.70	39794.08
556.90	40129.95
557.10	40045.98
557.30	39456.17
557.50	40005.02
557.70	39865.76
557.91	40164.76
558.11	39943.58
558.31	39908.77
558.51	39919.01
558.71	40224.15
558.91	40322.46
559.11	40168.86
559.31	40052.12
559.51	40039.84
559.72	40367.51
559.92	40306.07
560.12	40291.74
560.32	40547.73
560.52	40213.91
560.72	40480.15
560.92	40361.37
561.12	40252.83
561.32	40973.71
561.52	40322.46
561.72	40533.40
561.93	40564.12
562.13	40164.76
562.33	40213.91
562.53	40936.85
562.73	39912.86
562.93	40922.51
563.13	40793.49
563.33	40256.92
563.53	40826.26
563.73	40519.06
563.93	40914.32
564.13	40942.99
564.33	40838.54
564.53	40961.42
564.74	41145.74
564.94	40781.20
565.14	41008.53
565.34	40750.48
565.54	41006.48
565.74	41506.18
565.94	41452.94
566.14	41112.97
566.34	41117.07
566.54	41344.39
566.74	41026.96
566.94	41489.80
567.14	41686.40
567.34	41342.35
567.54	41397.64
567.74	41629.06
567.94	41530.76
568.14	41467.27
568.34	41934.21
568.54	41532.81
568.74	42009.98
568.94	41493.89
569.14	42149.24
569.34	41895.30
569.54	41747.84
569.75	41510.28
569.95	42014.08
570.15	42351.99
570.35	42061.18
570.55	41948.54
570.75	42536.31
570.95	42259.84
571.15	42519.93
571.35	42581.37
571.55	42452.34
571.75	42585.46
571.95	42540.41
572.15	42327.42
572.35	42651.00
572.55	42415.48
572.75	42521.98
572.95	42700.15
573.15	42714.48
573.35	42509.69
573.55	42618.23
573.75	42614.13
573.95	42950.00
574.15	42954.10
574.35	42952.05
574.55	43220.33
574.75	42978.67
574.95	43584.87
575.15	43271.53
575.34	43539.82
575.54	43588.97
575.74	43605.35
575.94	43822.44
576.14	43804.00
576.34	43791.72
576.54	43879.78
576.74	43709.80
576.94	43416.94
577.14	43971.94
577.34	44258.65
577.54	43777.38
577.74	44244.32
577.94	44451.16
578.14	43865.44
578.34	44430.68
578.54	43838.82
578.74	44021.09
578.94	44592.47
579.14	44281.18
579.34	44072.29
579.54	44676.44
579.74	44836.18
579.94	45006.16
580.13	44756.31
580.33	44825.94
580.53	44936.53
580.73	44965.20
580.93	44868.95
581.13	44991.83
581.33	45462.86
581.53	45495.63
581.73	45219.15
581.93	45634.89
582.13	45727.05
582.33	45565.26
582.53	45555.02
582.73	45993.28
582.92	45733.19
583.12	46079.30
583.32	45815.11
583.52	45620.55
583.72	45880.64
583.92	45593.93
584.12	46214.46
584.32	46740.79
584.52	46226.75
584.72	46331.20
584.92	46744.89
585.11	46908.72
585.31	46757.17
585.51	46705.98
585.71	46503.23
585.91	47013.17
586.11	46617.91
586.31	46896.44
586.51	47174.96
586.71	47158.58
586.91	47045.94
587.10	47099.19
587.30	47584.55
587.50	47201.58
587.70	47291.69
587.90	47379.76
588.10	47734.06
588.30	47574.31
588.50	47820.07
588.69	47975.72
588.89	47480.11
589.09	47926.56
589.29	47592.75
589.49	48213.28
589.69	47904.04
589.89	48420.13
590.08	48289.06
590.28	48196.90
590.48	48516.38
590.68	48215.33
590.88	48119.07
591.08	48071.97
591.28	48444.70
591.47	49272.08
591.67	48575.77
591.87	48925.97
592.07	48565.53
592.27	48438.56
592.47	48608.54
592.67	49063.19
592.86	48936.21
593.06	48821.53
593.26	49341.71
593.46	49243.41
593.66	48942.36
593.86	49575.18
594.05	49009.94
594.25	49388.81
594.45	49116.43
594.65	49440.01
594.85	48755.99
595.05	50001.16
595.24	49779.98
595.44	49808.65
595.64	49589.52
595.84	49970.44
596.04	49583.37
596.23	49902.85
596.43	50201.86
596.63	49837.32
596.83	50023.68
597.03	50472.19
597.22	50097.41
597.42	50291.97
597.62	50476.29
597.82	50406.65
598.02	50296.06
598.21	50414.85
598.41	50885.88
598.61	50818.30
598.81	50627.84
599.01	50959.61
599.20	50820.34
599.40	50406.65
599.60	51270.90
599.80	50996.47
600.00	50951.41
600.19	51502.32
600.39	50820.34
600.59	51473.65
600.79	51164.40
600.98	51166.45
601.18	51313.90
601.38	51578.09
601.58	51944.68
601.78	51625.20
601.97	51600.62
602.17	51903.72
602.37	51913.96
602.57	51739.88
602.76	51977.45
602.96	51582.19
603.16	52073.70
603.36	51682.54
603.55	52151.52
603.75	51799.27
603.95	52448.48
604.15	51586.28
604.34	52262.11
604.54	52597.98
604.74	52030.69
604.94	52419.81
605.13	52194.53
605.33	52550.88
605.53	52483.30
605.73	52442.34
605.92	52622.56
606.12	52948.18
606.32	53044.44
606.52	52657.37
606.71	52917.46
606.91	52913.37
607.11	52870.36
607.30	53128.41
607.50	52892.89
607.70	52729.05
607.90	52964.57
608.09	52866.27
608.29	53433.55
608.49	53525.71
608.68	53066.97
608.88	53462.22
609.08	53007.58
609.28	53591.25
609.47	52987.10
609.67	53904.59
609.87	53310.67
610.06	53920.97
610.26	53875.91
610.46	53732.56
610.66	53185.75
610.85	53230.80
611.05	53265.62
611.25	53253.33
611.44	53413.07
611.64	53355.73
611.84	53527.76
612.03	53173.46
612.23	53685.45
612.43	53423.31
612.62	53640.40
612.82	54015.18
613.02	53779.66
613.21	53519.57
613.41	53744.84
613.61	53753.04
613.80	53284.05
614.00	53886.15
614.20	53507.28
614.39	53462.22
614.59	53951.69
614.79	53429.46
614.98	53284.05
615.18	53744.84
615.38	53863.63
615.57	53275.86
615.77	53734.60
615.97	53886.15
616.16	53544.14
616.36	53681.36
616.56	53718.22
616.75	53501.14
616.95	53267.67
617.15	53810.38
617.34	53417.17
617.54	53451.98
617.74	54056.14
617.93	53705.93
618.13	53417.17
618.32	53900.49
618.52	53458.13
618.72	53408.98
618.91	53400.79
619.11	53531.86
619.31	53562.57
619.50	53044.44
619.70	52966.62
619.90	53451.98
620.09	53054.68
620.29	53169.36
620.48	53605.58
620.68	54080.71
620.88	52864.22
621.07	53429.46
621.27	53529.81
621.46	53210.32
621.66	53538.00
621.86	53212.37
622.05	53126.36
622.25	53327.06
622.44	53167.32
622.64	53304.53
622.84	53239.00
623.03	53308.63
623.23	53351.63
623.42	52976.86
623.62	53195.99
623.82	53062.87
624.01	53136.60
624.21	53105.88
624.40	53236.95
624.60	52878.55
624.80	52909.27
624.99	52995.29
625.19	52403.42
625.38	53081.30
625.58	52921.56
625.77	52782.30
625.97	52630.75
626.17	52727.00
626.36	52896.98
626.56	52688.09
626.75	52262.11
626.95	53122.26
627.14	52778.20
627.34	52821.21
627.54	52548.83
627.73	52282.59
627.93	53005.53
628.12	52620.51
628.32	52927.70
628.51	52761.82
628.71	52509.92
628.90	52407.52
629.10	52589.79
629.30	52847.83
629.49	52520.16
629.69	52335.84
629.88	52358.37
630.08	52925.66
630.27	52569.31
630.47	52645.08
630.66	52362.46
630.86	52655.32
631.05	51881.19
631.25	52950.23
631.44	52690.14
631.64	52634.84
631.84	52722.91
632.03	53021.91
632.23	52544.73
632.42	52917.46
632.62	52905.18
632.81	52098.28
633.01	52610.27
633.20	52417.76
633.40	52647.13
633.59	52622.56
633.79	51989.73
633.98	52401.38
634.18	52657.37
634.37	52614.37
634.57	52387.04
634.76	53198.04
634.96	52399.33
635.15	52391.14
635.35	52215.01
635.54	52620.51
635.74	52518.11
635.93	52509.92
636.13	52569.31
636.32	52917.46
636.52	52165.86
636.71	52319.46
636.91	52395.23
637.10	52421.86
637.30	52010.21
637.49	52139.24
637.69	52280.55
637.88	52528.35
638.08	51944.68
638.27	52690.14
638.46	52595.93
638.66	52012.26
638.85	52223.20
639.05	52606.17
639.24	52491.49
639.44	52141.28
639.63	52428.00
639.83	52489.44
640.02	52925.66
640.22	52524.25
640.41	52442.34
640.61	52047.08
640.80	52229.35
640.99	52452.58
641.19	53216.47
641.38	52483.30
641.58	51829.99
641.77	52251.87
641.97	52354.27
642.16	52597.98
642.36	52360.42
642.55	52557.02
642.74	52540.64
642.94	52632.80
643.13	52145.38
643.33	52727.00
643.52	52679.90
643.72	52767.96
643.91	52233.44
644.10	52806.87
644.30	52251.87
644.49	52266.21
644.69	52761.82
644.88	52804.83
645.08	52434.14
645.27	52239.59
645.46	52401.38
645.66	52425.95
645.85	52432.10
646.05	52456.67
646.24	52307.17
646.43	52835.55
646.63	52993.24
646.82	53032.15
647.02	52729.05
647.21	52948.18
647.40	52827.35
647.60	52681.95
647.79	52647.13
647.99	52935.90
648.18	52939.99
648.37	53175.51
648.57	53212.37
648.76	52970.71
648.96	52737.24
649.15	53253.33
649.34	52741.34
649.54	52806.87
649.73	52473.06
649.92	53386.45
650.12	52626.65
650.31	53329.11
650.51	53341.39
650.70	52880.60
650.89	52798.68
651.09	53388.50
651.28	52774.11
651.47	52995.29
651.67	52770.01
651.86	52899.03
652.06	52634.84
652.25	53109.97
652.44	52669.66
652.64	52741.34
652.83	53308.63
653.02	52720.86
653.22	53392.59
653.41	52817.11
653.60	52913.37
653.80	53009.62
653.99	53345.49
654.18	53355.73
654.38	52827.35
654.57	53388.50
654.76	53355.73
654.96	53384.40
655.15	52880.60
655.34	53513.42
655.54	53273.81
655.73	53107.93
655.92	53198.04
656.12	53318.87
656.31	53429.46
656.50	53351.63
656.70	53306.58
656.89	53163.22
657.08	53650.64
657.28	53560.53
657.47	53560.53
657.66	53390.55
657.86	53509.33
658.05	53222.61
658.24	53638.35
658.43	53753.04
658.63	53837.00
658.82	53929.16
659.01	53884.11
659.21	54123.72
659.40	53931.21
659.59	53695.69
659.79	53812.43
659.98	54072.52
660.17	53949.64
660.36	54111.43
660.56	53734.60
660.75	53843.15
660.94	53705.93
661.14	53761.23
661.33	54056.14
661.52	53363.92
661.71	54514.88
661.91	53908.68
662.10	53394.64
662.29	54043.85
662.49	53497.04
662.68	53900.49
662.87	54062.28
663.06	54432.96
663.26	53830.86
663.45	54113.48
663.64	53978.31
663.83	54473.92
664.03	54516.93
664.22	54371.52
664.41	54303.94
664.60	53851.34
664.80	54414.53
664.99	54054.09
665.18	54412.48
665.37	54252.74
665.57	54422.72
665.76	54117.57
665.95	54568.13
666.14	54461.63
666.34	54150.34
666.53	54035.66
666.72	54303.94
666.91	54486.21
667.11	54084.81
667.30	54414.53
667.49	54127.81
667.68	54437.06
667.87	54105.29
668.07	54502.59
668.26	54285.51
668.45	54619.33
668.64	53943.50
668.84	54535.36
669.03	54654.14
669.22	54482.11
669.41	54701.25
669.60	54516.93
669.80	54435.01
669.99	55121.08
670.18	55008.44
670.37	54508.74
670.57	54699.20
670.76	54897.85
670.95	54992.06
671.14	54455.49
671.33	54443.20
671.53	55190.71
671.72	54619.33
671.91	54435.01
672.10	54582.46
672.29	54627.52
672.48	54596.80
672.68	54654.14
672.87	55116.98
673.06	54340.80
673.25	54578.37
673.44	54432.96
673.64	54508.74
673.83	54074.57
674.02	54725.82
674.21	54537.41
674.40	54652.09
674.59	54924.47
674.79	54695.10
674.98	54717.63
675.17	54557.89
675.36	54441.15
675.55	54508.74
675.74	54654.14
675.94	54598.85
676.13	54899.90
676.32	54926.52
676.51	55065.78
676.70	55102.65
676.89	54928.57
677.08	54924.47
677.28	54977.72
677.47	55182.52
677.66	55239.86
677.85	55080.12
678.04	55219.38
678.23	55520.43
678.42	55149.75
678.62	54951.10
678.81	54899.90
679.00	55340.21
679.19	55309.49
679.38	55108.79
679.57	54994.10
679.76	55219.38
679.96	55211.19
680.15	55436.47
680.34	55110.84
680.53	55030.97
680.72	55381.17
680.91	55301.30
681.10	55102.65
681.29	55057.59
681.48	55080.12
681.68	55010.49
681.87	54713.53
682.06	55289.01
682.25	54817.98
682.44	55293.11
682.63	55145.65
682.82	54932.67
683.01	55016.63
683.20	54678.72
683.39	55057.59
683.59	54699.20
683.78	54541.50
683.97	54654.14
684.16	55260.34
684.35	54957.24
684.54	54645.95
684.73	54715.58
684.92	54774.97
685.11	54934.71
685.30	54928.57
685.49	55415.99
685.69	55129.27
685.88	54672.57
686.07	55039.16
686.26	55035.06
686.45	55133.37
686.64	55352.50
686.83	54809.79
687.02	54914.23
687.21	55284.92
687.40	54865.08
687.59	55155.89
687.78	55026.87
687.97	55053.50
688.16	54787.26
688.35	54789.31
688.54	54777.02
688.74	55047.35
688.93	54953.15
689.12	54742.20
689.31	54953.15
689.50	54820.03
689.69	55114.94
689.88	54199.49
690.07	54682.81
690.26	54346.95
690.45	54875.32
690.64	54756.54
690.83	54736.06
691.02	54729.92
691.21	54531.26
691.40	54641.85
691.59	55006.39
691.78	54777.02
691.97	54844.60
692.16	54557.89
692.35	54813.88
692.54	54508.74
692.73	54883.51
692.92	54873.27
693.11	54478.02
693.30	54901.95
693.49	54740.16
693.68	54506.69
693.87	54678.72
694.06	54002.89
694.25	54219.97
694.44	54768.83
694.63	54774.97
694.82	54248.64
695.01	54680.77
695.20	54236.36
695.39	54557.89
695.58	54488.26
695.77	54158.53
695.96	54473.92
696.15	54607.04
696.34	54301.89
696.53	54506.69
696.72	54654.14
696.91	54293.70
697.10	54361.28
697.29	54369.47
697.48	54566.08
697.67	54406.34
697.86	53982.41
698.05	53687.50
698.24	54011.08
698.43	53587.15
698.62	54269.12
698.81	53851.34
699.00	54719.68
699.19	53609.68
699.38	54019.27
699.57	54260.93
699.76	54527.17
699.95	53697.74
700.14	53912.78
700.32	53814.47
700.51	53863.63
700.70	54015.18
700.89	54414.53
701.08	54375.62
701.27	53951.69
701.46	53957.83
701.65	53116.12
701.84	53767.37
702.03	53402.83
702.22	53245.14
702.41	53667.02
702.60	53423.31
702.79	53433.55
702.98	53355.73
703.17	53527.76
703.35	53159.12
703.54	53001.43
703.73	53525.71
703.92	53521.62
704.11	53247.19
704.30	52882.65
704.49	52583.65
704.68	52860.12
704.87	53390.55
705.06	53062.87
705.25	53044.44
705.43	52770.01
705.62	53056.73
705.81	52980.95
706.00	53232.85
706.19	53042.39
706.38	52688.09
706.57	53011.67
706.76	52311.27
706.95	52782.30
707.14	52573.41
707.32	52692.19
707.51	52378.85
707.70	52335.84
707.89	52532.45
708.08	52774.11
708.27	52935.90
708.46	52604.13
708.65	52538.59
708.84	52518.11
709.02	52505.82
709.21	52688.09
709.40	52741.34
709.59	52378.85
709.78	51903.72
709.97	52610.27
710.16	52006.12
710.34	52208.87
710.53	52319.46
710.72	51979.49
710.91	52030.69
711.10	51934.44
711.29	52118.76
711.48	52028.65
711.66	52262.11
711.85	52258.02
712.04	51913.96
712.23	52112.61
712.42	51506.41
712.61	51754.22
712.80	51791.08
712.98	51533.04
713.17	51428.59
713.36	51520.75
713.55	51627.24
713.74	52004.07
713.93	51602.67
714.11	51434.74
714.30	50863.35
714.49	51614.96
714.68	51383.54
714.87	51336.43
715.06	51606.76
715.24	51496.17
715.43	51303.67
715.62	50832.63
715.81	51293.43
716.00	51455.21
716.18	50394.37
716.37	50990.33
716.56	50775.29
716.75	50951.41
716.94	51332.34
717.12	50550.01
717.31	51062.00
717.50	50679.03
717.69	50527.48
717.88	50763.00
718.06	50689.27
718.25	51426.54
718.44	50375.94
718.63	50189.57
718.82	49958.15
719.00	50267.39
719.19	50119.94
719.38	49728.78
719.57	49636.62
719.76	49556.75
719.94	49378.57
720.13	49661.19
720.32	49661.19
720.51	49509.64
720.69	49476.88
720.88	49427.73
721.07	49554.70
721.26	48882.97
721.44	49327.38
721.63	48966.93
721.82	49011.99
722.01	49198.35
722.20	49120.53
722.38	49014.04
722.57	48629.02
722.76	48747.80
722.95	48799.00
723.13	48524.57
723.32	48786.71
723.51	48563.48
723.70	48266.53
723.88	48678.17
724.07	48278.82
724.26	48207.14
724.44	48117.03
724.63	48166.18
724.82	48446.75
725.01	47985.96
725.19	48028.96
725.38	48004.39
725.57	47478.06
725.76	48067.87
725.94	47211.82
726.13	47738.15
726.32	47189.30
726.51	47945.00
726.69	48164.13
726.88	48028.96
727.07	47549.74
727.25	47553.83
727.44	47910.18
727.63	47381.80
727.82	47494.44
728.00	47635.75
728.19	47551.79
728.38	47637.80
728.56	47179.06
728.75	47764.78
728.94	47383.85
729.12	47891.75
729.31	47385.90
729.50	47363.37
729.69	47443.24
729.87	47125.81
730.06	46996.79
730.25	47312.17
730.43	47580.46
730.62	46683.45
730.81	47144.24
730.99	47523.11
731.18	46949.68
731.37	47285.55
731.55	47097.14
731.74	47134.00
731.93	47148.34
732.11	47144.24
732.30	46818.61
732.49	47197.49
732.67	47029.55
732.86	46832.95
733.05	46712.12
733.23	46802.23
733.42	46810.42
733.61	46814.52
733.79	46886.20
733.98	47293.74
734.17	46732.60
734.35	46853.43
734.54	46722.36
734.73	46640.44
734.91	46654.78
735.10	46728.50
735.29	46873.91
735.47	46507.32
735.66	46474.55
735.84	46505.27
736.03	46513.47
736.22	46757.17
736.40	46273.85
736.59	46038.34
736.78	46521.66
736.96	46212.41
737.15	46341.44
737.33	45929.80
737.52	46075.20
737.71	45929.80
737.89	46116.16
738.08	45485.39
738.27	45778.25
738.45	46277.95
738.64	46191.94
738.82	45743.43
739.01	45790.53
739.20	45583.69
739.38	45763.91
739.57	45946.18
739.75	45585.74
739.94	45503.82
740.13	45864.26
740.31	45813.06
740.50	45544.78
740.68	45690.18
740.87	45882.69
741.06	45956.42
741.24	45563.21
741.43	45249.87
741.61	45491.53
741.80	45354.32
741.99	45626.70
742.17	44803.41
742.36	45170.00
742.54	44684.63
742.73	45126.99
742.91	45194.57
743.10	45325.64
743.29	44832.08
743.47	44596.57
743.66	44619.10
743.84	45221.20
744.03	44832.08
744.21	44811.60
744.40	45020.50
744.59	44897.62
744.77	44668.25
744.96	44918.10
745.14	44782.93
745.33	45305.16
745.51	44705.11
745.70	44789.08
745.88	44653.91
746.07	44842.32
746.26	44367.20
746.44	44266.84
746.63	44725.59
746.81	44408.15
747.00	44350.81
747.18	44635.48
747.37	44303.71
747.55	43926.88
747.74	44623.19
747.92	44103.01
748.11	44193.12
748.29	44471.64
748.48	44297.56
748.66	43912.55
748.85	43963.75
749.03	43838.82
749.22	43902.31
749.41	43597.16
749.59	43752.80
749.78	43699.56
749.96	43251.05
750.15	43631.97
750.33	43720.04
750.52	43812.20
750.70	43494.76
750.89	43255.15
751.07	43285.87
751.26	43283.82
751.44	43226.48
751.63	43324.78
751.81	43136.37
752.00	43332.97
752.18	43277.68
752.37	43343.21
752.55	43142.51
752.74	42866.03
752.92	42741.11
753.10	42937.71
753.29	43169.13
753.47	42927.47
753.66	42784.12
753.84	42952.05
754.03	42884.47
754.21	42773.88
754.40	42511.74
754.58	42470.78
754.77	42505.59
754.95	42096.00
755.14	42536.31
755.32	42702.20
755.51	42659.19
755.69	42607.99
755.88	42214.78
756.06	42280.31
756.24	42192.25
756.43	42067.33
756.61	42247.55
756.80	41936.26
756.98	42100.09
757.17	42159.48
757.35	42188.16
757.54	41829.76
757.72	42149.24
757.90	41706.88
758.09	41598.34
758.27	41956.74
758.46	41579.91
758.64	41911.68
758.83	41903.49
759.01	41985.41
759.19	42005.89
759.38	41643.40
759.56	41885.06
759.75	41559.43
759.93	42063.23
760.12	41598.34
760.30	41596.29
760.48	41682.31
760.67	41252.23
760.85	41420.17
761.04	41495.94
761.22	41354.63
761.40	41160.08
761.59	41450.89
761.77	41133.45
761.96	41391.50
762.14	41366.92
762.32	40875.41
762.51	40961.42
762.69	40899.98
762.88	40990.09
763.06	41039.25
763.24	40992.14
763.43	41123.21
763.61	40777.11
763.80	40852.88
763.98	40738.19
764.16	40818.07
764.35	40680.85
764.53	40590.74
764.72	40662.42
764.90	40555.93
765.08	40271.26
765.27	40562.07
765.45	40332.70
765.63	40045.98
765.82	40490.39
766.00	39927.20
766.18	40172.96
766.37	40707.47
766.55	40514.97
766.74	40009.12
766.92	39972.25
767.10	40086.94
767.29	39959.97
767.47	39712.16
767.65	39929.25
767.84	39308.71
768.02	40093.08
768.20	39540.13
768.39	39923.10
768.57	39900.58
768.75	39986.59
768.94	39708.07
769.12	39581.09
769.30	39589.28
769.49	39460.26
769.67	38929.84
769.85	39370.15
770.04	39554.47
770.22	38929.84
770.40	39048.62
770.59	38647.22
770.77	39222.70
770.95	39269.80
771.14	39044.52
771.32	39206.31
771.50	38876.59
771.69	38876.59
771.87	39032.24
772.05	39163.31
772.24	38321.59
772.42	39177.64
772.60	38581.68
772.78	38542.77
772.97	38772.14
773.15	38952.37
773.33	38292.92
773.52	38870.45
773.70	38892.97
773.88	38747.57
774.07	38538.68
774.25	38487.48
774.43	38763.95
774.61	38819.25
774.80	38823.34
774.98	38630.83
775.16	38786.48
775.34	38442.42
775.53	38380.98
775.71	38817.20
775.89	38907.31
776.08	38407.61
776.26	38874.54
776.44	38935.98
776.62	38751.66
776.81	38964.65
776.99	38673.84
777.17	38581.68
777.35	39089.58
777.54	39388.58
777.72	38794.67
777.90	38958.51
778.08	39327.14
778.27	39108.01
778.45	39404.97
778.63	39517.60
778.81	38827.44
779.00	39871.90
779.18	39120.30
779.36	39454.12
779.54	39245.23
779.73	39157.16
779.91	39533.99
780.09	39499.17
780.27	39216.55
780.46	39630.24
780.64	39663.01
780.82	39626.15
781.00	39148.97
781.19	39884.19
781.37	39878.05
781.55	39675.30
781.73	40070.56
781.91	39630.24
782.10	39867.81
782.28	39726.50
782.46	39531.94
782.64	40074.65
782.82	39681.44
783.01	40091.04
783.19	39613.86
783.37	39916.96
783.55	39589.28
783.74	40054.17
783.92	39437.73
784.10	40306.07
784.28	40205.72
784.46	39450.02
784.64	39724.45
784.83	39929.25
785.01	40367.51
785.19	40115.61
785.37	40267.16
785.55	40226.20
785.74	39560.61
785.92	39646.63
786.10	39931.29
786.28	40035.74
786.46	39734.69
786.64	39548.32
786.83	39818.66
787.01	39732.64
787.19	39566.76
787.37	39634.34
787.55	39562.66
787.74	39556.52
787.92	39556.52
788.10	39228.84
788.28	39308.71
788.46	39521.70
788.64	39206.31
788.82	39769.51
789.01	39402.92
789.19	39474.60
789.37	39568.80
789.55	39296.42
789.73	39216.55
789.91	39028.14
790.09	39185.83
790.28	38978.99
790.46	38970.80
790.64	39179.69
790.82	39085.48
791.00	38927.79
791.18	38671.79
791.36	38585.78
791.55	38561.20
791.73	38702.51
791.91	38667.70
792.09	38772.14
792.27	38589.88
792.45	38663.60
792.63	38702.51
792.81	38196.67
793.00	38213.05
793.18	38020.54
793.36	38096.31
793.54	38194.62
793.72	37797.31
793.90	37805.50
794.08	37520.84
794.26	37907.90
794.44	37475.78
794.62	37385.67
794.81	37418.44
794.99	37709.25
795.17	37457.35
795.35	37127.63
795.53	37316.04
795.71	37969.34
795.89	37213.64
796.07	37400.01
796.25	36971.98
796.43	36924.88
796.61	36687.31
796.80	36726.22
796.98	36867.53
797.16	36697.55
797.34	36681.17
797.52	36419.03
797.70	36699.60
797.88	36333.01
798.06	36101.59
798.24	36419.03
798.42	36230.62
798.60	36273.62
798.78	36091.35
798.96	35976.67
799.14	35900.89
799.32	36105.69
799.51	35474.91
799.69	36103.64
799.87	35882.46
800.05	35489.25
800.23	35390.95
800.41	35263.97
800.59	35487.20
800.77	35018.22
800.95	34989.55
801.13	35479.01
801.31	35155.43
801.49	35313.13
801.67	34854.38
801.85	35210.73
802.03	34813.42
802.21	34747.89
802.39	34608.62
802.57	35100.14
802.75	34567.66
802.93	34776.56
803.11	34401.78
803.29	34391.54
803.47	34115.06
803.65	34231.80
803.83	34276.85
804.01	34221.56
804.19	33908.22
804.37	34008.57
804.55	33971.71
804.73	33605.12
804.91	33703.42
805.09	34088.44
805.27	33789.44
805.45	34082.30
805.63	33725.95
805.81	33750.52
805.99	33633.79
806.17	33936.89
806.35	33418.75
806.53	33728.00
806.71	33652.22
806.89	33482.24
807.07	33029.64
807.25	32976.39
807.43	33275.40
807.61	33191.43
807.79	33007.11
807.97	32687.63
808.15	32937.48
808.33	32876.04
808.51	32443.92
808.69	33043.98
808.87	32280.08
809.05	32429.59
809.23	32435.73
809.41	31950.36
809.59	32339.47
809.77	32560.66
809.95	31903.26
810.13	32493.07
810.31	32007.70
810.49	31856.15
810.67	32278.04
810.84	31893.02
811.02	31827.48
811.20	31714.84
811.38	31747.61
811.56	31544.86
811.74	31571.49
811.92	31569.44
812.10	31688.22
812.28	31770.14
812.46	31682.08
812.64	31268.39
812.82	31202.85
813.00	31553.05
813.18	31290.91
813.36	31221.28
813.53	31049.25
813.71	31407.65
813.89	31161.89
814.07	31059.49
814.25	31139.36
814.43	31213.09
814.61	30783.02
814.79	31098.41
814.97	30793.26
815.15	31096.36
815.33	30496.30
815.50	30594.61
815.68	30563.89
815.86	30666.28
816.04	30398.00
816.22	30398.00
816.40	30236.21
816.58	30424.62
816.76	30256.69
816.94	30133.81
817.11	30555.69
817.29	30268.98
817.47	29859.38
817.65	30029.37
817.83	29978.17
818.01	29742.65
818.19	29875.77
818.37	30021.17
818.54	29621.82
818.72	29429.31
818.90	30092.85
819.08	30051.89
819.26	29673.02
819.44	29443.65
819.62	29265.47
819.80	29789.75
819.97	29271.62
820.15	29351.49
820.33	29349.44
820.51	29371.97
820.69	28968.52
820.87	29189.70
821.05	29214.27
821.22	29290.05
821.40	29111.88
821.58	28808.78
821.76	29199.94
821.94	28749.39
822.12	29097.54
822.29	28911.17
822.47	28790.34
822.65	29079.11
822.83	28862.02
823.01	28782.15
823.19	28542.54
823.36	28587.60
823.54	28442.19
823.72	28663.37
823.90	28438.09
824.08	28384.85
824.25	28511.82
824.43	28474.96
824.61	28298.83
824.79	28470.86
824.97	28307.02
825.15	28638.80
825.32	28274.26
825.50	28194.39
825.68	28270.16
825.86	28245.58
826.04	28347.98
826.21	28321.36
826.39	28055.12
826.57	28001.88
826.75	27760.22
826.93	27731.54
827.10	27602.52
827.28	28180.05
827.46	27829.85
827.64	27651.67
827.81	27444.83
827.99	28100.18
828.17	27412.06
828.35	27567.71
828.53	27610.71
828.70	27352.67
828.88	27549.28
829.06	27610.71
829.24	27635.29
829.41	27301.47
829.59	27352.67
829.77	27178.59
829.95	27397.73
830.12	27199.07
830.30	27260.51
830.48	27479.64
830.66	27100.77
830.84	27369.05
831.01	26719.85
831.19	27123.30
831.37	26967.65
831.55	26990.18
831.72	26816.10
831.90	26994.28
832.08	26947.17
832.25	26746.47
832.43	26826.34
832.61	26609.26
832.79	26416.75
832.96	26687.08
833.14	26879.59
833.32	26490.48
833.50	26805.86
833.67	26576.49
833.85	26474.09
834.03	26422.89
834.20	26474.09
834.38	26572.39
834.56	26551.91
834.74	26353.26
834.91	26482.28
835.09	26271.34
835.27	25896.56
835.44	26222.19
835.62	25812.60
835.80	25915.00
835.98	26343.02
836.15	26021.49
836.33	25935.48
836.51	26029.68
836.68	25808.50
836.86	25560.70
837.04	25976.44
837.21	25802.36
837.39	26060.40
837.57	25792.12
837.75	25915.00
837.92	25601.66
838.10	25732.73
838.28	25566.84
838.45	25704.06
838.63	25493.12
838.81	25429.63
838.98	25736.82
839.16	25276.03
839.34	25345.66
839.51	25390.72
839.69	25190.02
839.87	25171.58
840.04	25501.31
840.22	25353.85
840.40	25255.55
840.57	25118.34
840.75	25218.69
840.93	24979.07
841.10	25097.86
841.28	25298.56
841.46	25030.27
841.63	25273.98
841.81	25026.18
841.98	25171.58
842.16	25007.75
842.34	24794.76
842.51	24702.60
842.69	25020.03
842.87	24854.15
843.04	24837.76
843.22	24594.06
843.40	24491.66
843.57	24376.97
843.75	24524.43
843.92	24600.20
844.10	24792.71
844.28	24366.73
844.45	24417.93
844.63	24567.43
844.81	24647.30
844.98	24252.05
845.16	24041.11
845.33	24200.85
845.51	24368.78
845.69	24192.65
845.86	24174.22
846.04	23928.47
846.21	23920.28
846.39	24303.25
846.57	23959.19
846.74	24010.39
846.92	23881.36
847.09	24082.06
847.27	23926.42
847.45	24274.57
847.62	24049.30
847.80	24057.49
847.97	23994.00
848.15	23781.01
848.32	23668.37
848.50	23649.94
848.68	23611.03
848.85	23477.91
849.03	23649.94
849.20	23461.53
849.38	23547.54
849.56	23551.64
849.73	23330.46
849.91	23525.02
850.08	23670.42
850.26	23099.04
850.43	23596.70
850.61	23244.45
850.78	22947.49
850.96	23226.01
851.14	23076.51
851.31	23099.04
851.49	23172.77
851.66	23178.91
851.84	22951.59
852.01	23209.63
852.19	23092.90
852.36	22824.61
852.54	22843.04
852.71	22914.72
852.89	22818.47
853.07	23223.97
853.24	22632.10
853.42	22797.99
853.59	22722.21
853.77	22808.23
853.94	22728.36
854.12	22929.06
854.29	22695.59
854.47	22568.62
854.64	22652.58
854.82	22630.05
854.99	22640.29
855.17	22400.68
855.34	22630.05
855.52	22689.45
855.69	22613.67
855.87	22400.68
856.04	22175.41
856.22	22302.38
856.39	22539.94
856.57	22478.50
856.74	21970.61
856.92	22208.17
857.09	22046.38
857.27	22150.83
857.44	22333.10
857.62	22126.25
857.79	22271.66
857.97	22142.64
858.14	22333.10
858.32	21687.99
858.49	21812.92
858.67	21880.50
858.84	21544.63
859.02	21857.97
859.19	21708.47
859.37	21808.82
859.54	21493.43
859.72	21788.34
859.89	21667.51
860.06	22027.95
860.24	21429.94
860.41	21819.06
860.59	21513.91
860.76	21704.37
860.94	21352.12
861.11	21673.65
861.29	21647.03
861.46	21483.19
861.64	20987.58
861.81	21370.55
861.98	21425.85
862.16	21124.80
862.33	20860.61
862.51	20952.77
862.68	21427.90
862.86	21075.65
863.03	21356.22
863.21	21059.26
863.38	20999.87
863.55	20819.65
863.73	21212.86
863.90	21245.63
864.08	20803.27
864.25	20967.10
864.43	20604.61
864.60	20717.25
864.77	20586.18
864.95	20733.64
865.12	20451.02
865.30	20713.16
865.47	20543.17
865.64	20698.82
865.82	20754.12
865.99	20709.06
866.17	20577.99
866.34	20604.61
866.51	20090.57
866.69	20590.28
866.86	20426.44
867.04	20365.00
867.21	20135.63
867.38	20233.93
867.56	20203.21
867.73	20240.08
867.91	20471.50
868.08	20106.96
868.25	20133.58
868.43	19793.62
868.60	19775.19
868.78	19893.97
868.95	19893.97
869.12	19740.37
869.30	19758.80
869.47	19787.47
869.64	19795.67
869.82	19556.05
869.99	19465.94
870.16	20072.14
870.34	19775.19
870.51	19627.73
870.69	19801.81
870.86	19752.66
871.03	19644.12
871.21	19578.58
871.38	19535.57
871.55	19328.73
871.73	19226.33
871.90	19402.46
872.07	19230.43
872.25	19236.57
872.42	19218.14
872.59	18769.63
872.77	19062.49
872.94	19054.30
873.11	19123.93
873.29	18960.09
873.46	18925.28
873.63	19023.58
873.81	18765.54
873.98	18654.95
874.15	18681.57
874.33	18648.80
874.50	18484.97
874.67	18773.73
874.85	18679.52
875.02	18591.46
875.19	18372.33
875.37	18323.18
875.54	18292.46
875.71	18521.83
875.88	18349.80
876.06	18280.17
876.23	18253.55
876.40	18155.24
876.58	17919.73
876.75	18134.76
876.92	18161.39
877.10	18079.47
877.27	18058.99
877.44	17993.45
877.61	17876.72
877.79	17874.67
877.96	17800.94
878.13	17895.15
878.31	17532.66
878.48	17880.82
878.65	17567.48
878.82	17667.83
879.00	17602.29
879.17	17704.69
879.34	17465.08
879.51	17460.98
879.69	17342.20
879.86	17444.60
880.03	17630.96
880.21	17321.72
880.38	17413.88
880.55	17297.14
880.72	17229.56
880.90	17143.55
881.07	17354.49
881.24	17270.52
881.41	17051.39
881.59	17198.84
881.76	17047.29
881.93	16895.74
882.10	16977.66
882.28	16971.52
882.45	17184.51
882.62	17178.36
882.79	17239.80
882.96	16672.51
883.14	16908.03
883.31	16916.22
883.48	16770.82
883.65	16621.31
883.83	16758.53
884.00	16731.90
884.17	16992.00
884.34	16742.14
884.51	16666.37
884.69	16629.51
884.86	16580.36
885.03	16658.18
885.20	16561.92
885.38	16451.33
885.55	16350.98
885.72	16445.19
885.89	16412.42
886.06	16496.39
886.24	16316.17
886.41	16353.03
886.58	16432.90
886.75	16731.90
886.92	16379.65
887.10	16332.55
887.27	15939.34
887.44	16080.65
887.61	16332.55
887.78	16537.35
887.95	16252.68
888.13	15925.00
888.30	16162.57
888.47	15863.57
888.64	16103.18
888.81	16019.21
888.99	16330.50
889.16	15697.68
889.33	15953.68
889.50	15869.71
889.67	15992.59
889.84	15656.72
890.01	15855.37
890.19	15814.41
890.36	15980.30
890.53	15804.17
890.70	15578.90
890.87	15816.46
891.04	15693.58
891.22	15695.63
891.39	15386.39
891.56	15511.32
891.73	15466.26
891.90	15300.37
892.07	15286.04
892.24	15169.30
892.42	15228.70
892.59	15355.67
892.76	15218.46
892.93	15060.76
893.10	15206.17
893.27	15238.94
893.44	15142.68
893.61	15193.88
893.79	15222.55
893.96	15064.86
894.13	15161.11
894.30	15353.62
894.47	14778.14
894.64	15271.70
894.81	15083.29
894.98	14876.44
895.15	15075.10
895.33	14831.39
895.50	14952.22
895.67	15157.02
895.84	15200.02
896.01	15107.87
896.18	14841.63
896.35	15185.69
896.52	15130.39
896.69	15019.80
896.86	15030.04
897.04	14954.27
897.21	14974.75
897.38	14712.61
897.55	14819.10
897.72	14870.30
897.89	14753.57
898.06	14980.89
898.23	14989.08
898.40	14806.81
898.57	14669.60
898.74	15093.53
898.91	14894.88
899.08	14825.25
899.26	14694.18
899.43	14841.63
899.60	14835.49
899.77	14829.34
899.94	14630.69
900.11	14538.53
900.28	14833.44
900.45	14663.46
900.62	14683.94
900.79	14864.16
900.96	14655.26
901.13	14655.26
901.30	14683.94
901.47	14614.30
901.64	14735.14
901.81	14731.04
901.98	14712.61
902.15	14661.41
902.32	14796.57
902.49	14735.14
902.66	14772.00
902.83	14855.97
903.01	14386.98
903.18	14589.73
903.35	14772.00
903.52	14667.55
903.69	14618.40
903.86	14714.66
904.03	14509.86
904.20	15044.38
904.37	14735.14
904.54	14567.20
904.71	14741.28
904.88	14700.32
905.05	14530.34
905.22	14851.87
905.39	14538.53
905.56	14565.15
905.73	14556.96
905.90	14739.23
906.07	14855.97
906.24	14593.83
906.41	14528.29
906.58	14698.27
906.75	14728.99
906.92	14247.72
907.09	14489.38
907.26	14528.29
907.43	14436.13
907.60	14563.11
907.77	14583.59
907.93	14393.12
908.10	14307.11
908.27	14427.94
908.44	14440.23
908.61	14579.49
908.78	14434.08
908.95	14513.95
909.12	14544.67
909.29	14331.69
909.46	14645.02
909.63	14307.11
909.80	14530.34
909.97	14591.78
910.14	14255.91
910.31	14333.73
910.48	14446.37
910.65	14274.34
910.82	14255.91
910.99	14264.10
911.16	14368.55
911.33	14221.10
911.50	14225.19
911.66	14006.06
911.83	14200.62
912.00	14145.32
912.17	14010.15
912.34	14294.82
912.51	14247.72
912.68	13913.90
912.85	14028.59
913.02	14030.63
913.19	13870.89
913.36	14214.95
913.53	14016.30
913.70	13961.00
913.86	14001.96
914.03	13868.84
914.20	13756.21
914.37	13883.18
914.54	14108.46
914.71	13840.17
914.88	13649.71
915.05	13803.31
915.22	13793.07
915.39	13772.59
915.55	13655.86
915.72	13575.98
915.89	13465.39
916.06	13530.93
916.23	13477.68
916.40	13295.41
916.57	13166.39
916.74	13315.89
916.91	13258.55
917.07	13322.04
917.24	13340.47
917.41	13213.49
917.58	13297.46
917.75	13182.77
917.92	12914.49
918.09	12887.87
918.26	12959.55
918.42	12900.16
918.59	12984.12
918.76	12805.95
918.93	12627.78
919.10	12732.22
919.27	12719.93
919.44	12949.31
919.60	12805.95
919.77	12640.06
919.94	12689.21
920.11	12767.04
920.28	12865.34
920.45	12744.51
920.61	12609.34
920.78	12570.43
920.95	12486.47
921.12	12367.68
921.29	12601.15
921.46	12400.45
921.62	12312.39
921.79	12248.90
921.96	12144.45
922.13	12308.29
922.30	12154.69
922.47	12169.03
922.63	11794.25
922.80	12171.08
922.97	11870.03
923.14	11982.67
923.31	11913.03
923.47	11849.55
923.64	12011.34
923.81	11800.40
923.98	11781.96
924.15	11718.48
924.32	11800.40
924.48	11720.53
924.65	11519.82
924.82	11358.03
924.99	11448.15
925.15	11325.27
925.32	11568.98
925.49	11253.59
925.66	11417.43
925.83	11196.25
925.99	11159.38
926.16	11312.98
926.33	11235.16
926.50	11048.79
926.67	11089.75
926.83	11011.93
927.00	10940.25
927.17	10993.50
927.34	10846.04
927.50	10897.24
927.67	10850.14
927.84	10884.95
928.01	10747.74
928.17	10628.96
928.34	10702.68
928.51	10671.97
928.68	10446.69
928.84	10448.74
929.01	10325.86
929.18	10276.71
929.35	10217.32
929.51	10397.54
929.68	10180.45
929.85	10131.30
930.02	10303.33
930.18	10250.08
930.35	10030.95
930.52	9951.08
930.69	9971.56
930.85	9930.60
931.02	10008.42
931.19	10073.96
931.36	9922.41
931.52	9946.98
931.69	9705.32
931.86	9830.25
932.02	9746.28
932.19	9645.93
932.36	9623.41
932.53	9715.56
932.69	9486.19
932.86	9568.11
933.03	9490.29
933.19	9295.73
933.36	9375.60
933.53	9512.81
933.70	9404.27
933.86	9398.13
934.03	9203.57
934.20	9031.54
934.36	9140.08
934.53	8828.79
934.70	8898.42
934.86	8896.38
935.03	8732.54
935.20	8685.44
935.36	8531.84
935.53	8562.56
935.70	8478.59
935.86	8572.80
936.03	8525.69
936.20	8408.96
936.36	8241.03
936.53	8181.64
936.70	8310.66
936.86	8286.08
937.03	8109.96
937.20	7790.47
937.36	7974.79
937.53	7696.27
937.70	7737.23
937.86	7606.16
938.03	7540.62
938.20	7620.49
938.36	7362.45
938.53	7448.46
938.70	7112.60
938.86	7153.55
939.03	7110.55
939.20	7022.48
939.36	6911.89
939.53	6911.89
939.70	7100.31
939.86	6674.33
940.03	6586.27
940.19	6612.89
940.36	6606.75
940.53	6578.08
940.69	6461.34
940.86	6344.61
941.03	6324.13
941.19	6129.57
941.36	6201.25
941.52	6184.87
941.69	6162.34
941.86	6008.74
942.02	6023.08
942.19	5902.25
942.35	5849.00
942.52	5785.51
942.69	5783.46
942.85	5664.68
943.02	5576.62
943.18	5660.59
943.35	5709.74
943.52	5570.48
943.68	5605.29
943.85	5689.26
944.01	5500.84
944.18	5281.71
944.35	5513.13
944.51	5461.93
944.68	5216.18
944.84	5353.39
945.01	5289.90
945.17	5351.34
945.34	5400.49
945.51	5271.47
945.67	5162.93
945.84	5300.14
946.00	5173.17
946.17	5167.03
946.33	5156.79
946.50	5115.83
946.67	5132.21
946.83	5089.20
947.00	5111.73
947.16	5212.08
947.33	5107.63
947.49	5197.74
947.66	4999.09
947.82	5054.39
947.99	5148.59
948.16	5255.09
948.32	5070.77
948.49	5160.88
948.65	5275.57
948.82	5273.52
948.98	5111.73
949.15	5056.43
949.31	5175.22
949.48	5029.81
949.64	4956.08
949.81	5087.15
949.97	5132.21
950.14	5078.96
950.30	5013.43
950.47	5021.62
950.63	5113.78
950.80	5042.10
950.96	5179.31
951.13	5095.35
951.30	5078.96
951.46	5205.94
951.63	5267.38
951.79	5126.07
951.96	5380.01
952.12	5234.61
952.29	5226.42
952.45	4992.95
952.62	5220.27
952.78	5203.89
952.94	5232.56
953.11	5207.98
953.27	5126.07
953.44	5302.19
953.60	5134.26
953.77	5287.86
953.93	5210.03
954.10	5320.62
954.26	5181.36
954.43	5189.55
954.59	5332.91
954.76	5291.95
954.92	5263.28
955.09	5343.15
955.25	5156.79
955.42	5353.39
955.58	5482.41
955.75	5259.18
955.91	5265.33
956.07	5412.78
956.24	5369.77
956.40	5302.19
956.57	5439.40
956.73	5390.25
956.90	5207.98
957.06	5343.15
957.23	5369.77
957.39	5285.81
957.56	5332.91
957.72	5152.69
957.88	5298.10
958.05	5298.10
958.21	5449.64
958.38	5339.05
958.54	5232.56
958.71	5423.02
958.87	5226.42
959.03	5236.66
959.20	5369.77
959.36	5275.57
959.53	5322.67
959.69	5011.38
959.85	5316.53
960.02	5148.59
960.18	5367.73
960.35	5242.80
960.51	5326.77
960.68	5097.39
960.84	5369.77
961.00	5126.07
961.17	5220.27
961.33	5337.01
961.50	5279.66
961.66	5476.27
961.82	5312.43
961.99	5355.44
962.15	5367.73
962.31	5259.18
962.48	5234.61
962.64	5261.23
962.81	5269.42
962.97	5306.29
963.13	5154.74
963.30	5244.85
963.46	5320.62
963.62	5195.70
963.79	5259.18
963.95	5271.47
964.12	5285.81
964.28	5230.51
964.44	5148.59
964.61	5263.28
964.77	5232.56
964.93	5246.90
965.10	5300.14
965.26	5164.98
965.42	5248.94
965.59	5283.76
965.75	5246.90
965.92	5240.75
966.08	5089.20
966.24	5154.74
966.41	5140.40
966.57	5222.32
966.73	5193.65
966.90	5134.26
967.06	5207.98
967.22	4931.51
967.39	4962.23
967.55	5216.18
967.71	5087.15
967.88	5042.10
968.04	5001.14
968.20	4982.71
968.37	5044.15
968.53	4861.88
968.69	5124.02
968.85	5011.38
969.02	5201.84
969.18	5066.67
969.34	4974.52
969.51	5011.38
969.67	5064.63
969.83	4861.88
970.00	5175.22
970.16	4921.27
970.32	5056.43
970.48	4966.32
970.65	5064.63
970.81	4935.60
970.97	4786.10
971.14	4863.93
971.30	5056.43
971.46	4984.76
971.63	4945.84
971.79	5031.86
971.95	4919.22
972.11	4851.64
972.28	4956.08
972.44	4972.47
972.60	4726.71
972.76	4870.07
972.93	4855.73
973.09	5017.52
973.25	4820.92
973.42	4661.18
973.58	4999.09
973.74	4872.12
973.90	4894.65
974.07	4741.05
974.23	4845.49
974.39	4822.97
974.55	4796.34
974.72	4673.46
974.88	4573.11
975.04	4691.90
975.20	4599.74
975.37	4779.96
975.53	4612.03
975.69	4747.19
975.85	4693.94
976.01	4618.17
976.18	4661.18
976.34	4650.94
976.50	4726.71
976.66	4691.90
976.83	4513.72
976.99	4638.65
977.15	4648.89
977.31	4472.76
977.47	4513.72
977.64	4511.68
977.80	4624.31
977.96	4493.24
978.12	4521.92
978.29	4562.87
978.45	4376.51
978.61	4370.37
978.77	4554.68
978.93	4437.95
979.10	4485.05
979.26	4532.15
979.42	4468.67
979.58	4374.46
979.74	4362.17
979.91	4485.05
980.07	4196.29
980.23	4362.17
980.39	4370.37
980.55	4452.28
980.71	4302.78
980.88	4300.73
981.04	4329.41
981.20	4315.07
981.36	4364.22
981.52	4370.37
981.68	4202.43
981.85	4366.27
982.01	4341.69
982.17	4202.43
982.33	4302.78
982.49	4304.83
982.65	4249.54
982.82	4302.78
982.98	4267.97
983.14	4026.31
983.30	4247.49
983.46	4245.44
983.62	4194.24
983.79	4100.03
983.95	4251.58
984.11	4138.94
984.27	4087.75
984.43	4122.56
984.59	4181.95
984.75	4181.95
984.91	4042.69
985.08	4151.23
985.24	4081.60
985.40	4042.69
985.56	4159.42
985.72	4091.84
985.88	4050.88
986.04	4030.40
986.20	3968.96
986.37	3985.35
986.53	3960.77
986.69	4067.27
986.85	3975.11
987.01	3987.40
987.17	4048.83
987.33	3975.11
987.49	4001.73
987.65	3925.96
987.82	3975.11
987.98	3887.04
988.14	3936.20
988.30	3993.54
988.46	3811.27
988.62	3874.76
988.78	3835.85
988.94	3844.04
989.10	3807.17
989.26	3815.37
989.42	3760.07
989.59	3678.15
989.75	3868.61
989.91	3825.61
990.07	3712.97
990.23	3751.88
990.39	3768.26
990.55	3868.61
990.71	3780.55
990.87	3798.98
991.03	3829.70
991.19	3704.78
991.35	3745.73
991.51	3762.12
991.67	3897.28
991.83	3745.73
992.00	3745.73
992.16	3801.03
992.32	3645.38
992.48	3710.92
992.64	3645.38
992.80	3610.57
992.96	3653.58
993.12	3704.78
993.28	3710.92
993.44	3688.39
993.60	3776.45
993.76	3600.33
993.92	3608.52
994.08	3741.64
994.24	3545.03
994.40	3532.75
994.56	3565.51
994.72	3579.85
994.88	3549.13
995.04	3522.51
995.20	3573.71
995.36	3504.07
995.52	3495.88
995.68	3446.73
995.84	3416.01
996.00	3649.48
996.16	3553.23
996.32	3426.25
996.48	3379.15
996.64	3536.84
996.80	3434.44
996.96	3538.89
997.12	3385.29
997.28	3403.72
997.44	3360.72
997.60	3471.31
997.76	3362.76
997.92	3280.85
998.08	3469.26
998.24	3286.99
998.40	3422.16
998.56	3442.64
998.72	3235.79
998.88	3323.85
999.04	3309.52
999.20	3383.24
999.36	3264.46
999.52	3313.61
999.68	3254.22
999.84	3293.13
1000.00	3317.71
1000.16	3319.76
1000.32	3194.83
1000.48	3262.41
1000.64	3190.74
1000.80	3141.58
1000.95	3229.65
1001.11	3276.75
1001.27	3065.81
1001.43	3141.58
1001.59	3153.87
1001.75	3084.24
1001.91	3207.12
1002.07	3178.45
1002.23	3114.96
1002.39	3114.96
1002.55	3098.58
1002.71	3098.58
1002.87	3121.10
1003.03	3076.05
1003.19	3088.34
1003.34	3180.50
1003.50	3133.39
1003.66	3147.73
1003.82	3067.86
1003.98	3145.68
1004.14	2983.89
1004.30	3053.52
1004.46	2992.08
1004.62	3028.95
1004.78	3012.56
1004.94	2957.27
1005.09	3131.34
1005.25	3067.86
1005.41	2867.16
1005.57	2973.65
1005.73	2983.89
1005.89	2818.00
1006.05	2998.23
1006.21	2891.73
1006.37	2963.41
1006.52	2936.79
1006.68	2807.77
1006.84	3010.51
1007.00	2924.50
1007.16	2887.64
1007.32	2885.59
1007.48	2871.25
1007.64	2879.44
1007.79	2908.12
1007.95	2822.10
1008.11	2901.97
1008.27	2826.20
1008.43	2858.96
1008.59	2844.63
1008.75	2879.44
1008.91	2873.30
1009.06	2867.16
1009.22	2846.68
1009.38	2836.44
1009.54	2824.15
1009.70	2789.33
1009.86	2750.42
1010.01	2789.33
1010.17	2762.71
1010.33	2826.20
1010.49	2680.79
1010.65	2742.23
1010.81	2740.18
1010.96	2762.71
1011.12	2719.70
1011.28	2631.64
1011.44	2777.05
1011.60	2611.16
1011.76	2752.47
1011.91	2781.14
1012.07	2629.59
1012.23	2623.45
1012.39	2549.72
1012.55	2705.37
1012.71	2688.98
1012.86	2688.98
1013.02	2648.02
1013.18	2666.46
1013.34	2617.30
1013.50	2723.80
1013.65	2682.84
1013.81	2502.62
1013.97	2594.78
1014.13	2639.83
1014.29	2639.83
1014.44	2756.57
1014.60	2576.34
1014.76	2568.15
1014.92	2531.29
1015.07	2650.07
1015.23	2580.44
1015.39	2566.10
1015.55	2576.34
1015.71	2478.04
1015.86	2500.57
1016.02	2578.39
1016.18	2457.56
1016.34	2568.15
1016.49	2531.29
1016.65	2445.27
1016.81	2514.91
1016.97	2533.34
1017.12	2424.80
1017.28	2428.89
1017.44	2410.46
1017.60	2459.61
1017.75	2457.56
1017.91	2469.85
1018.07	2480.09
1018.23	2504.67
1018.38	2422.75
1018.54	2387.93
1018.70	2355.16
1018.86	2330.59
1019.01	2408.41
1019.17	2379.74
1019.33	2533.34
1019.49	2435.03
1019.64	2469.85
1019.80	2346.97
1019.96	2445.27
1020.12	2396.12
1020.27	2295.77
1020.43	2351.07
1020.59	2322.40
1020.74	2396.12
1020.90	2467.80
1021.06	2322.40
1021.22	2387.93
1021.37	2322.40
1021.53	2279.39
1021.69	2424.80
1021.84	2164.70
1022.00	2353.12
1022.16	2314.20
1022.31	2217.95
1022.47	2326.49
1022.63	2306.01
1022.79	2211.81
1022.94	2207.71
1023.10	2318.30
1023.26	2289.63
1023.41	2289.63
1023.57	2228.19
1023.73	2234.33
1023.88	2322.40
1024.04	2181.09
1024.20	2232.29
1024.35	2363.36
1024.51	2281.44
1024.67	2250.72
1024.82	2314.20
1024.98	2222.05
1025.14	2258.91
1025.29	2244.57
1025.45	2246.62
1025.61	2187.23
1025.76	2224.09
1025.92	2226.14
1026.08	2217.95
1026.23	2285.53
1026.39	2226.14
1026.55	2195.42
1026.70	2174.94
1026.86	2244.57
1027.02	2226.14
1027.17	2244.57
1027.33	2215.90
1027.48	2236.38
1027.64	2133.98
1027.80	2136.03
1027.95	2207.71
1028.11	2023.39
1028.27	2287.58
1028.42	2207.71
1028.58	2072.54
1028.73	2082.78
1028.89	2031.58
1029.05	2224.09
1029.20	2142.18
>>>>>End Processed Spectral Data<<<<<
