SpectraSuite Data File
++++++++++++++++++++++++++++++++++++
Date: Fri Jun 02 14:51:08 CEST 2017
User: INFO_000
Dark Spectrum Present: No
Reference Spectrum Present: No
Number of Sampled Component Spectra: 1
Spectrometers: USB4H00879
Integration Time (usec): 80000 (USB4H00879)
Spectra Averaged: 1 (USB4H00879)
Boxcar Smoothing: 0 (USB4H00879)
Correct for Electrical Dark: No (USB4H00879)
Strobe/Lamp Enabled: No (USB4H00879)
Correct for Detector Non-linearity: No (USB4H00879)
Correct for Stray Light: No (USB4H00879)
Number of Pixels in Processed Spectrum: 3648
>>>>>Begin Processed Spectral Data<<<<<
345.13	1267.69
345.34	1267.69
345.56	1267.69
345.78	1259.50
345.99	1273.84
346.21	1724.39
346.42	1695.72
346.64	1679.33
346.86	1851.36
347.07	1650.66
347.29	1765.35
347.50	1644.52
347.72	1636.33
347.94	1816.55
348.15	1538.02
348.37	1691.62
348.59	1712.10
348.80	1662.95
349.02	1796.07
349.23	1859.56
349.45	1796.07
349.67	1882.08
349.88	1804.26
350.10	1912.80
350.31	1882.08
350.53	1847.27
350.75	2025.44
350.96	1798.12
351.18	1802.21
351.39	1918.95
351.61	1818.60
351.82	1964.00
352.04	1904.61
352.26	1794.02
352.47	1832.93
352.69	1886.18
352.90	1796.07
353.12	1882.08
353.34	1822.69
353.55	1957.86
353.77	1843.17
353.98	1849.32
354.20	1855.46
354.41	1910.75
354.63	1818.60
354.85	1974.24
355.06	1972.19
355.28	1769.44
355.49	1873.89
355.71	1869.80
355.92	1918.95
356.14	1828.84
356.35	1888.23
356.57	1859.56
356.79	1931.23
357.00	1910.75
357.22	1925.09
357.43	1949.67
357.65	1980.39
357.86	1830.88
358.08	1966.05
358.29	1896.42
358.51	1912.80
358.72	2050.02
358.94	1882.08
359.16	1849.32
359.37	1935.33
359.59	1955.81
359.80	1931.23
360.02	1978.34
360.23	1955.81
360.45	2058.21
360.66	1949.67
360.88	1826.79
361.09	1916.90
361.31	1982.43
361.52	1884.13
361.74	2000.87
361.95	2054.11
362.17	1949.67
362.38	2082.78
362.60	2064.35
362.81	2029.54
363.03	1898.47
363.24	1966.05
363.46	2066.40
363.67	2043.87
363.89	2039.78
364.10	2084.83
364.32	1935.33
364.53	2039.78
364.75	1890.28
364.96	1941.47
365.18	1920.99
365.39	1945.57
365.61	1914.85
365.82	2117.60
366.04	2033.63
366.25	1986.53
366.47	1968.10
366.68	2058.21
366.90	1908.71
367.11	2054.11
367.33	2035.68
367.54	2015.20
367.76	2007.01
367.97	2068.45
368.19	2021.35
368.40	2131.94
368.62	1953.76
368.83	2025.44
369.05	2056.16
369.26	2015.20
369.48	2105.31
369.69	2025.44
369.91	2019.30
370.12	1974.24
370.33	2105.31
370.55	1986.53
370.76	1949.67
370.98	2131.94
371.19	1982.43
371.41	1980.39
371.62	2045.92
371.84	2025.44
372.05	2129.89
372.27	2076.64
372.48	2017.25
372.69	2088.93
372.91	2140.13
373.12	2076.64
373.34	2086.88
373.55	2154.46
373.77	2140.13
373.98	2023.39
374.20	2179.04
374.41	2203.61
374.62	2070.50
374.84	2060.26
375.05	2238.43
375.27	2185.18
375.48	2101.22
375.70	2174.94
375.91	2170.85
376.12	2211.81
376.34	2107.36
376.55	2230.24
376.77	2265.05
376.98	2050.02
377.19	2131.94
377.41	2068.45
377.62	2074.59
377.84	2213.85
378.05	2234.33
378.27	2148.32
378.48	2330.59
378.69	2379.74
378.91	2310.11
379.12	2224.09
379.34	2203.61
379.55	2265.05
379.76	2164.70
379.98	2197.47
380.19	2232.29
380.41	2156.51
380.62	2312.16
380.83	2195.42
381.05	2193.37
381.26	2351.07
381.47	2277.34
381.69	2205.66
381.90	2369.50
382.12	2250.72
382.33	2217.95
382.54	2254.81
382.76	2312.16
382.97	2308.06
383.19	2181.09
383.40	2383.84
383.61	2224.09
383.83	2258.91
384.04	2254.81
384.25	2250.72
384.47	2422.75
384.68	2322.40
384.89	2246.62
385.11	2295.77
385.32	2330.59
385.54	2289.63
385.75	2306.01
385.96	2437.08
386.18	2478.04
386.39	2361.31
386.60	2385.88
386.82	2420.70
387.03	2389.98
387.24	2447.32
387.46	2396.12
387.67	2484.19
387.88	2562.01
388.10	2353.12
388.31	2383.84
388.52	2439.13
388.74	2478.04
388.95	2514.91
389.16	2506.71
389.38	2369.50
389.59	2480.09
389.80	2600.92
390.02	2527.19
390.23	2580.44
390.44	2576.34
390.66	2473.95
390.87	2566.10
391.08	2584.54
391.30	2570.20
391.51	2562.01
391.72	2693.08
391.94	2650.07
392.15	2613.21
392.36	2568.15
392.58	2551.77
392.79	2672.60
393.00	2654.17
393.22	2695.13
393.43	2740.18
393.64	2781.14
393.85	2744.28
394.07	2570.20
394.28	2648.02
394.49	2721.75
394.71	2822.10
394.92	2727.89
395.13	2598.87
395.35	2750.42
395.56	2631.64
395.77	2676.70
395.98	2752.47
396.20	2838.48
396.41	2785.24
396.62	2703.32
396.84	2756.57
397.05	2756.57
397.26	2738.13
397.47	2871.25
397.69	2656.22
397.90	2973.65
398.11	2815.96
398.32	2795.48
398.54	2846.68
398.75	2863.06
398.96	2686.94
399.18	2996.18
399.39	2826.20
399.60	2934.74
399.81	2908.12
400.03	2893.78
400.24	3243.98
400.45	2920.40
400.66	2932.69
400.88	2783.19
401.09	3108.82
401.30	2893.78
401.51	3088.34
401.73	3069.91
401.94	3041.23
402.15	3010.51
402.36	2975.70
402.58	3030.99
402.79	3090.38
403.00	3067.86
403.21	3117.01
403.43	3121.10
403.64	3188.69
403.85	3026.90
404.06	3088.34
404.27	3024.85
404.49	3076.05
404.70	3063.76
404.91	3151.82
405.12	3102.67
405.34	3076.05
405.55	3317.71
405.76	3059.67
405.97	3076.05
406.19	3325.90
406.40	3114.96
406.61	3209.17
406.82	3090.38
407.03	3229.65
407.25	3299.28
407.46	3428.30
407.67	3254.22
407.88	3354.57
408.09	3262.41
408.31	3225.55
408.52	3289.04
408.73	3299.28
408.94	3166.16
409.15	3360.72
409.37	3313.61
409.58	3327.95
409.79	3350.48
410.00	3403.72
410.21	3391.44
410.43	3432.40
410.64	3325.90
410.85	3479.50
411.06	3297.23
411.27	3407.82
411.48	3461.07
411.70	3297.23
411.91	3383.24
412.12	3608.52
412.33	3334.09
412.54	3450.83
412.76	3674.06
412.97	3598.28
413.18	3411.92
413.39	3583.95
413.60	3624.90
413.81	3559.37
414.03	3596.23
414.24	3450.83
414.45	3721.16
414.66	3440.59
414.87	3639.24
415.08	3522.51
415.30	3672.01
415.51	3614.66
415.72	3551.18
415.93	3684.30
416.14	3782.60
416.35	3565.51
416.56	3755.97
416.78	3637.19
416.99	3770.31
417.20	3729.35
417.41	3727.30
417.62	3694.54
417.83	3788.74
418.04	3786.69
418.26	3815.37
418.47	3829.70
418.68	3915.72
418.89	3858.37
419.10	4014.02
419.31	3909.57
419.52	3917.76
419.73	3999.68
419.95	3987.40
420.16	3780.55
420.37	3952.58
420.58	4046.79
420.79	3803.08
421.00	4007.87
421.21	4093.89
421.42	3893.19
421.63	3991.49
421.85	4026.31
422.06	4108.23
422.27	4089.79
422.48	4181.95
422.69	4128.70
422.90	4130.75
423.11	4181.95
423.32	4130.75
423.53	4386.75
423.75	4159.42
423.96	4339.65
424.17	4194.24
424.38	4401.08
424.59	4284.35
424.80	4435.90
425.01	4337.60
425.22	4364.22
425.43	4296.64
425.64	4519.87
425.85	4470.72
426.06	4411.32
426.28	4409.28
426.49	4380.61
426.70	4405.18
426.91	4415.42
427.12	4548.54
427.33	4620.22
427.54	4577.21
427.75	4519.87
427.96	4751.29
428.17	4681.66
428.38	4720.57
428.59	4796.34
428.80	4575.16
429.01	4769.72
429.23	4698.04
429.44	4861.88
429.65	4829.11
429.86	4941.75
430.07	4675.51
430.28	4745.14
430.49	4761.53
430.70	4900.79
430.91	4931.51
431.12	4921.27
431.33	4990.90
431.54	5027.76
431.75	4933.56
431.96	5042.10
432.17	4988.85
432.38	4790.20
432.59	5236.66
432.80	5103.54
433.01	5167.03
433.22	5044.15
433.43	5124.02
433.64	5111.73
433.85	5162.93
434.06	5132.21
434.27	5021.62
434.49	5234.61
434.70	5132.21
434.91	5167.03
435.12	5312.43
435.33	5351.34
435.54	5265.33
435.75	5255.09
435.96	5322.67
436.17	5205.94
436.38	5345.20
436.59	5240.75
436.80	5357.49
437.01	5533.61
437.22	5404.59
437.43	5498.80
437.64	5420.97
437.85	5533.61
438.06	5541.80
438.27	5371.82
438.48	5447.60
438.69	5533.61
438.90	5500.84
439.11	5443.50
439.32	5726.12
439.53	5529.52
439.74	5636.01
439.95	5730.22
440.16	5506.99
440.37	5627.82
440.57	5525.42
440.78	5615.53
440.99	5693.35
441.20	5787.56
441.41	5689.26
441.62	5705.64
441.83	5679.02
442.04	5832.62
442.25	5801.90
442.46	5812.14
442.67	5906.34
442.88	6102.95
443.09	5801.90
443.30	5930.92
443.51	5875.62
443.72	6074.28
443.93	5939.11
444.14	6168.48
444.35	5734.31
444.56	5943.21
444.77	6064.04
444.98	6074.28
445.19	6131.62
445.40	6127.52
445.61	6049.70
445.81	6031.27
446.02	6336.42
446.23	6107.04
446.44	6143.91
446.65	6104.99
446.86	6242.21
447.07	6272.93
447.28	6483.87
447.49	6299.55
447.70	6234.02
447.91	6348.70
448.12	6213.54
448.33	6465.44
448.54	6350.75
448.74	6320.03
448.95	6412.19
449.16	6342.56
449.37	6657.95
449.58	6580.12
449.79	6778.78
450.00	6467.49
450.21	6647.71
450.42	6692.76
450.63	6651.80
450.84	6776.73
451.05	6674.33
451.25	6750.10
451.46	6748.06
451.67	6868.89
451.88	6844.31
452.09	6766.49
452.30	6840.22
452.51	6973.33
452.72	7067.54
452.93	7190.42
453.13	6813.59
453.34	6858.65
453.55	6907.80
453.76	7016.34
453.97	7411.60
454.18	7118.74
454.39	7341.97
454.60	7139.22
454.81	7014.29
455.01	7356.30
455.22	7055.25
455.43	7268.24
455.64	7565.20
455.85	7427.98
456.06	7653.26
456.27	7503.76
456.48	7432.08
456.68	7548.81
456.89	7663.50
457.10	7720.84
457.31	7821.19
457.52	7706.51
457.73	7665.55
457.94	7882.63
458.14	7741.32
458.35	8177.54
458.56	7980.93
458.77	7907.21
458.98	8069.00
459.19	8058.76
459.39	8114.05
459.60	8171.40
459.81	8161.16
460.02	8277.89
460.23	8359.81
460.44	8327.04
460.65	8376.19
460.85	8331.14
461.06	8509.31
461.27	8238.98
461.48	8710.01
461.69	8683.39
461.89	8437.63
462.10	8593.28
462.31	8494.97
462.52	8400.77
462.73	8849.27
462.94	8920.95
463.14	8945.53
463.35	8857.46
463.56	9285.49
463.77	9244.53
463.98	8996.73
464.18	8935.29
464.39	9197.43
464.60	9549.68
464.81	9066.36
465.02	9031.54
465.23	9543.53
465.43	9367.41
465.64	9656.17
465.85	9353.07
466.06	9361.27
466.27	9881.45
466.47	9666.41
466.68	9699.18
466.89	9633.64
467.10	9754.48
467.30	9705.32
467.51	9793.39
467.72	10272.61
467.93	9797.48
468.14	10151.78
468.34	10182.50
468.55	10307.43
468.76	10229.60
468.97	10071.91
469.17	10475.36
469.38	10579.81
469.59	10659.68
469.80	10497.89
470.01	10493.79
470.21	10430.30
470.42	10786.65
470.63	10975.06
470.84	10454.88
471.04	11091.80
471.25	11011.93
471.46	10954.58
471.67	11130.71
471.87	11018.07
472.08	11302.74
472.29	11556.69
472.50	11171.67
472.70	11261.78
472.91	11292.50
473.12	11546.45
473.33	11611.98
473.53	11749.20
473.74	11534.16
473.95	12115.78
474.16	11853.64
474.36	11892.55
474.57	11966.28
474.78	12138.31
474.99	12339.01
475.19	12113.74
475.40	12523.33
475.61	12640.06
475.81	12396.35
476.02	12713.79
476.23	12396.35
476.44	12791.61
476.64	13012.79
476.85	12977.98
477.06	12879.68
477.27	13272.89
477.47	13246.26
477.68	13213.49
477.89	13475.63
478.09	13428.53
478.30	13487.92
478.51	13459.25
478.71	13811.50
478.92	13817.65
479.13	13465.39
479.34	14126.89
479.54	14028.59
479.75	13948.72
479.96	14137.13
480.16	14180.14
480.37	14180.14
480.58	14096.17
480.78	14473.00
480.99	14384.93
481.20	14767.90
481.41	14591.78
481.61	14784.29
481.82	15169.30
482.03	15056.67
482.23	14925.60
482.44	15398.68
482.65	15183.64
482.85	15623.95
483.06	15316.76
483.27	15515.41
483.47	15464.21
483.68	15593.23
483.89	15738.64
484.09	15650.58
484.30	15759.12
484.51	16017.16
484.71	15863.57
484.92	16058.12
485.13	15937.29
485.33	16307.98
485.54	16062.22
485.75	16404.23
485.95	16385.80
486.16	16482.05
486.37	16572.16
486.57	16572.16
486.78	16590.59
486.98	16746.24
487.19	17151.74
487.40	16992.00
487.60	17161.98
487.81	17247.99
488.02	17049.34
488.22	17329.91
488.43	17544.95
488.64	17430.26
488.84	17467.13
489.05	18009.84
489.25	17512.18
489.46	17950.45
489.67	17645.30
489.87	18085.61
490.08	18126.57
490.29	18048.75
490.49	18487.01
490.70	18489.06
490.90	18468.58
491.11	18380.52
491.32	18538.21
491.52	18646.76
491.73	18657.00
491.94	18738.91
492.14	18591.46
492.35	18931.42
492.55	19121.88
492.76	19261.15
492.97	19490.52
493.17	19064.54
493.38	19588.82
493.58	19627.73
493.79	19625.68
494.00	19476.18
494.20	19615.44
494.41	19560.15
494.61	19832.53
494.82	19824.34
495.02	19783.38
495.23	20068.05
495.44	19932.88
495.64	20129.48
495.85	20109.01
496.05	20246.22
496.26	20205.26
496.47	20747.97
496.67	20426.44
496.88	20842.18
497.08	20442.82
497.29	20893.38
497.49	20598.47
497.70	21210.81
497.91	21302.97
498.11	21233.34
498.32	21343.93
498.52	21319.35
498.73	21532.34
498.93	21493.43
499.14	21597.88
499.34	21628.60
499.55	21941.94
499.76	21679.80
499.96	21642.93
500.17	21771.96
500.37	21954.22
500.58	22159.02
500.78	22116.01
500.99	22142.64
501.19	22091.44
501.40	22263.47
501.60	22294.19
501.81	22347.44
502.02	22562.47
502.22	22298.28
502.43	22400.68
502.63	22642.34
502.84	22849.19
503.04	23221.92
503.25	23064.22
503.45	23101.09
503.66	23013.02
503.86	23178.91
504.07	23490.20
504.27	23140.00
504.48	23744.15
504.68	23508.63
504.89	23760.53
505.09	23400.09
505.30	23967.38
505.50	23903.89
505.71	23885.46
505.91	24280.72
506.12	23950.99
506.32	24264.33
506.53	24184.46
506.73	24219.28
506.94	24241.81
507.14	24280.72
507.35	24235.66
507.55	24682.12
507.76	24620.68
507.96	24366.73
508.17	24745.61
508.37	24671.88
508.58	24923.78
508.78	24850.05
508.99	25073.28
509.19	24942.21
509.40	25093.76
509.60	24897.16
509.81	25298.56
510.01	25161.34
510.22	25087.62
510.42	25241.21
510.63	25644.66
510.83	25435.77
511.04	25261.69
511.24	26068.59
511.44	25521.79
511.65	25853.56
511.85	25804.41
512.06	25816.69
512.26	25697.91
512.47	25988.72
512.67	25937.52
512.88	26076.79
513.08	26101.36
513.29	26408.56
513.49	26205.81
513.69	26324.59
513.90	26156.66
514.10	26605.16
514.31	26773.10
514.51	26525.29
514.72	26736.23
514.92	26551.91
515.13	26865.25
515.33	26482.28
515.53	27055.72
515.74	26840.68
515.94	27014.76
516.15	27143.78
516.35	27203.17
516.56	27053.67
516.76	27004.52
516.96	27436.64
517.17	27508.32
517.37	27391.58
517.58	27684.44
517.78	27291.23
517.99	27508.32
518.19	27717.21
518.39	27883.09
518.60	27962.97
518.80	27997.78
519.01	28005.97
519.21	28243.54
519.41	27932.25
519.62	27952.73
519.82	28616.27
520.03	28411.47
520.23	28583.50
520.43	28440.14
520.64	28759.63
520.84	28663.37
521.05	28440.14
521.25	28776.01
521.45	28759.63
521.66	29136.45
521.86	28730.95
522.07	29036.10
522.27	29015.62
522.47	28931.65
522.68	29322.82
522.88	28931.65
523.08	29617.72
523.29	29144.64
523.49	29292.10
523.70	29500.99
523.90	30053.94
524.10	29576.76
524.31	30191.16
524.51	29699.64
524.71	30123.57
524.92	29931.06
525.12	30187.06
525.33	30238.26
525.53	29992.50
525.73	30441.01
525.94	30512.69
526.14	30557.74
526.34	30424.62
526.55	30500.40
526.75	30527.02
526.95	30909.99
527.16	30508.59
527.36	30690.86
527.56	31153.70
527.77	31440.42
527.97	31495.71
528.17	31180.32
528.38	31522.34
528.58	31452.70
528.78	31442.46
528.99	31362.59
529.19	31850.01
529.39	31458.85
529.60	32032.28
529.80	31655.45
530.00	31548.96
530.21	31634.97
530.41	32595.47
530.61	32112.15
530.82	32118.29
531.02	32163.35
531.22	32130.58
531.43	32339.47
531.63	32640.53
531.83	32978.44
532.04	32732.68
532.24	32511.50
532.44	32921.10
532.64	33230.34
532.85	33068.55
533.05	33033.74
533.25	33041.93
533.46	33261.06
533.66	33717.76
533.86	33119.75
534.07	33701.37
534.27	33592.83
534.47	33758.72
534.67	33940.99
534.88	34133.50
535.08	34045.43
535.28	33779.20
535.49	34160.12
535.69	34301.43
535.89	34346.48
536.09	34164.21
536.30	34672.11
536.50	34518.51
536.70	34534.90
536.91	34604.53
537.11	34532.85
537.31	34616.82
537.51	34788.85
537.72	35118.57
537.92	35116.52
538.12	35139.05
538.32	34952.68
538.53	35091.94
538.73	34979.31
538.93	34754.03
539.13	35464.67
539.34	35274.21
539.54	35741.15
539.74	35608.03
539.94	35648.99
540.15	35175.91
540.35	35618.27
540.55	35761.63
540.75	35886.56
540.96	35839.45
541.16	35755.49
541.36	35667.42
541.56	35827.17
541.77	36363.73
541.97	36167.13
542.17	36140.50
542.37	35927.52
542.58	36144.60
542.78	36457.94
542.98	36310.49
543.18	36687.31
543.38	36754.90
543.59	36920.78
543.79	36322.77
543.99	36455.89
544.19	36959.69
544.40	36861.39
544.60	36931.02
544.80	36879.82
545.00	37121.48
545.20	37316.04
545.41	36955.60
545.61	36986.32
545.81	37535.17
546.01	37221.83
546.21	37191.11
546.42	36861.39
546.62	37600.71
546.82	37500.36
547.02	37572.03
547.22	37344.71
547.43	37404.10
547.63	37778.88
547.83	37492.16
548.03	37322.18
548.23	37950.91
548.44	37469.64
548.64	37926.33
548.84	37756.35
549.04	38077.88
549.24	38004.16
549.45	37922.24
549.65	38081.98
549.85	37858.75
550.05	38360.50
550.25	38041.02
550.45	38651.31
550.66	38350.26
550.86	38096.31
551.06	38624.69
551.26	38372.79
551.46	38206.90
551.66	38901.17
551.87	38495.67
552.07	38829.49
552.27	38622.64
552.47	38815.15
552.67	38763.95
552.87	38630.83
553.07	39009.71
553.28	38643.12
553.48	38753.71
553.68	38843.82
553.88	39302.57
554.08	39085.48
554.28	39157.16
554.48	39001.52
554.69	39321.00
554.89	39259.56
555.09	39421.35
555.29	39232.94
555.49	39366.06
555.69	39302.57
555.89	39652.77
556.10	39556.52
556.30	39251.37
556.50	39482.79
556.70	39376.30
556.90	39740.83
557.10	39855.52
557.30	39757.22
557.50	39861.66
557.70	40054.17
557.91	40273.31
558.11	40013.21
558.31	40271.26
558.51	39781.79
558.71	39978.40
558.91	40533.40
559.11	40105.37
559.31	39933.34
559.51	39951.77
559.72	40144.28
559.92	40066.46
560.12	39851.42
560.32	40232.35
560.52	40467.86
560.72	40275.35
560.92	40842.64
561.12	40580.50
561.32	40885.65
561.52	40144.28
561.72	40992.14
561.93	40377.75
562.13	41178.51
562.33	40209.82
562.53	41203.08
562.73	40828.30
562.93	40662.42
563.13	40680.85
563.33	40975.76
563.53	41311.63
563.73	40811.92
563.93	41164.17
564.13	41543.05
564.33	41162.12
564.53	41536.90
564.74	41557.38
564.94	40842.64
565.14	41371.02
565.34	41342.35
565.54	41497.99
565.74	41571.72
565.94	41674.12
566.14	41944.45
566.34	41629.06
566.54	41891.20
566.74	41753.99
566.94	41823.62
567.14	41477.51
567.34	41850.24
567.54	41973.12
567.74	42032.51
567.94	41932.16
568.14	42313.08
568.34	42245.50
568.54	42143.10
568.74	41883.01
568.94	42429.82
569.14	42505.59
569.34	42177.92
569.54	42939.76
569.75	42431.86
569.95	42716.53
570.15	42956.14
570.35	42720.63
570.55	42558.84
570.75	42882.42
570.95	43011.44
571.15	43066.73
571.35	43005.30
571.55	43046.26
571.75	42829.17
571.95	43167.09
572.15	43179.37
572.35	43277.68
572.55	42849.65
572.75	43392.36
572.95	43136.37
573.15	43466.09
573.35	43332.97
573.55	42980.72
573.75	43228.52
573.95	43801.96
574.15	43545.96
574.35	43756.90
574.55	43930.98
574.75	43722.08
574.95	44264.80
575.15	43683.17
575.34	44021.09
575.54	44209.50
575.74	44023.14
575.94	44395.87
576.14	44303.71
576.34	45147.47
576.54	44733.78
576.74	45004.11
576.94	44485.98
577.14	44741.97
577.34	44827.99
577.54	44258.65
577.74	44930.39
577.94	44926.29
578.14	44883.28
578.34	45026.64
578.54	44576.09
578.74	44971.35
578.94	44936.53
579.14	45213.01
579.34	45354.32
579.54	45387.08
579.74	45741.38
579.94	45268.30
580.13	45788.49
580.33	45413.71
580.53	45942.08
580.73	46073.15
580.93	45831.49
581.13	45811.01
581.33	46265.66
581.53	46185.79
581.73	46030.15
581.93	46931.25
582.13	46232.89
582.33	46226.75
582.53	46413.12
582.73	46634.30
582.92	46632.25
583.12	46654.78
583.32	46718.26
583.52	46226.75
583.72	46665.02
583.92	46648.63
584.12	46830.90
584.32	47617.32
584.52	47039.79
584.72	47310.13
584.92	47090.99
585.11	47588.65
585.31	47058.23
585.51	47459.63
585.71	47148.34
585.91	47674.66
586.11	47275.31
586.31	47263.02
586.51	47504.68
586.71	48051.49
586.91	47965.48
587.10	48182.56
587.30	48035.11
587.50	48088.35
587.70	48166.18
587.90	48180.51
588.10	48168.22
588.30	48237.86
588.50	47979.81
588.69	48098.59
588.89	48108.83
589.09	48760.09
589.29	48569.63
589.49	48420.13
589.69	48432.41
589.89	48631.07
590.08	48676.12
590.28	48543.00
590.48	48514.33
590.68	48727.32
590.88	48760.09
591.08	48755.99
591.28	48545.05
591.47	49450.25
591.67	48909.59
591.87	49110.29
592.07	48846.10
592.27	48882.97
592.47	49276.18
592.67	49132.82
592.86	48753.94
593.06	49005.84
593.26	49102.10
593.46	49263.89
593.66	49464.59
593.86	49329.42
594.05	49669.39
594.25	50033.92
594.45	49323.28
594.65	49708.30
594.85	49354.00
595.05	49890.57
595.24	49845.51
595.44	49710.35
595.64	49800.46
595.84	49847.56
596.04	49865.99
596.23	49913.09
596.43	50099.46
596.63	49706.25
596.83	50042.12
597.03	50251.01
597.22	51160.31
597.42	50304.26
597.62	50316.54
597.82	50103.56
598.02	50509.05
598.21	50488.57
598.41	50027.78
598.61	50380.03
598.81	50701.56
599.01	50867.45
599.20	50615.55
599.40	50863.35
599.60	50994.42
599.80	50681.08
600.00	51234.03
600.19	51057.91
600.39	50619.64
600.59	51375.34
600.79	51215.60
600.98	51193.07
601.18	51029.24
601.38	51666.16
601.58	50951.41
601.78	51156.21
601.97	51125.49
602.17	51674.35
602.37	51557.61
602.57	51160.31
602.76	51506.41
602.96	51377.39
603.16	51897.58
603.36	51733.74
603.55	51666.16
603.75	51344.62
603.95	52002.02
604.15	51457.26
604.34	51252.47
604.54	51590.38
604.74	51635.44
604.94	52026.60
605.13	51893.48
605.33	51758.31
605.53	51844.33
605.73	52319.46
605.92	51870.95
606.12	51918.06
606.32	52237.54
606.52	52206.82
606.71	51809.51
606.91	52438.24
607.11	52198.63
607.30	52387.04
607.50	52255.97
607.70	52636.89
607.90	52241.63
608.09	52311.27
608.29	52532.45
608.49	52368.61
608.68	52569.31
608.88	52712.67
609.08	52579.55
609.28	52419.81
609.47	52442.34
609.67	52948.18
609.87	52665.56
610.06	52843.74
610.26	52827.35
610.46	52892.89
610.66	52106.47
610.85	52327.65
611.05	52366.56
611.25	52661.47
611.44	52395.23
611.64	52561.12
611.84	52405.47
612.03	52665.56
612.23	53011.67
612.43	52985.05
612.62	52544.73
612.82	53032.15
613.02	52765.91
613.21	52397.28
613.41	52597.98
613.61	52950.23
613.80	52055.27
614.00	53177.56
614.20	52888.79
614.39	52888.79
614.59	52684.00
614.79	52421.86
614.98	52319.46
615.18	52511.97
615.38	52942.04
615.57	52640.99
615.77	52993.24
615.97	52626.65
616.16	52632.80
616.36	52591.84
616.56	52763.87
616.75	52688.09
616.95	52473.06
617.15	52485.34
617.34	52503.77
617.54	52376.80
617.74	52831.45
617.93	53122.26
618.13	52288.74
618.32	52626.65
618.52	52278.50
618.72	52690.14
618.91	52602.08
619.11	52274.40
619.31	52262.11
619.50	52847.83
619.70	52235.49
619.90	52423.90
620.09	52966.62
620.29	52559.07
620.48	52415.71
620.68	52937.94
620.88	51942.63
621.07	52499.68
621.27	52341.99
621.46	52165.86
621.66	51991.78
621.86	52368.61
622.05	51823.85
622.25	52341.99
622.44	52493.54
622.64	52387.04
622.84	52315.36
623.03	51705.07
623.23	52028.65
623.42	52147.43
623.62	51979.49
623.82	52329.70
624.01	52051.17
624.21	52303.07
624.40	52534.49
624.60	52085.99
624.80	51911.91
624.99	51942.63
625.19	51606.76
625.38	52192.48
625.58	52161.76
625.77	52143.33
625.97	52270.31
626.17	51860.71
626.36	52073.70
626.56	52389.09
626.75	51594.48
626.95	52434.14
627.14	51897.58
627.34	52212.96
627.54	51934.44
627.73	51854.57
627.93	52065.51
628.12	51635.44
628.32	51770.60
628.51	51891.43
628.71	51844.33
628.90	51625.20
629.10	51926.25
629.30	52276.45
629.49	51590.38
629.69	51580.14
629.88	51754.22
630.08	52509.92
630.27	51829.99
630.47	52024.55
630.66	51846.38
630.86	52284.64
631.05	51117.30
631.25	52313.31
631.44	52247.78
631.64	51594.48
631.84	52288.74
632.03	51997.93
632.23	51774.70
632.42	52249.83
632.62	51786.99
632.81	51582.19
633.01	51942.63
633.20	52448.48
633.40	51703.02
633.59	52090.09
633.79	51606.76
633.98	52450.53
634.18	52098.28
634.37	52075.75
634.57	51823.85
634.76	52194.53
634.96	51938.54
635.15	51840.23
635.35	51494.13
635.54	51956.97
635.74	52221.16
635.93	51827.95
636.13	52612.32
636.32	52298.98
636.52	52223.20
636.71	52184.29
636.91	52167.91
637.10	52311.27
637.30	51889.38
637.49	51950.82
637.69	52270.31
637.88	52489.44
638.08	52122.85
638.27	52083.94
638.46	51979.49
638.66	51963.11
638.85	52106.47
639.05	51819.75
639.24	52262.11
639.44	51447.02
639.63	51838.18
639.83	52727.00
640.02	52241.63
640.22	52315.36
640.41	52567.26
640.61	52403.42
640.80	52434.14
640.99	52155.62
641.19	52600.03
641.38	52108.52
641.58	52571.36
641.77	52178.15
641.97	52298.98
642.16	52186.34
642.36	52698.33
642.55	52837.59
642.74	52090.09
642.94	52819.16
643.13	52139.24
643.33	52786.39
643.52	52511.97
643.72	52432.10
643.91	52753.63
644.10	52573.41
644.30	52839.64
644.49	52704.48
644.69	52892.89
644.88	52499.68
645.08	52757.72
645.27	52413.66
645.46	52757.72
645.66	52999.38
645.85	52319.46
646.05	52853.98
646.24	52903.13
646.43	53017.82
646.63	53093.59
646.82	52778.20
647.02	52974.81
647.21	53138.65
647.40	52761.82
647.60	52933.85
647.79	52933.85
647.99	53312.72
648.18	53146.84
648.37	53519.57
648.57	53624.01
648.76	53417.17
648.96	52798.68
649.15	53408.98
649.34	53413.07
649.54	53802.19
649.73	53372.11
649.92	53171.41
650.12	53382.35
650.31	53271.76
650.51	53556.43
650.70	53933.26
650.89	53482.70
651.09	54269.12
651.28	53730.51
651.47	53660.88
651.67	53957.83
651.86	53945.54
652.06	53499.09
652.25	53591.25
652.44	53849.29
652.64	53568.72
652.83	53841.10
653.02	53525.71
653.22	53863.63
653.41	53693.64
653.60	53048.53
653.80	53470.42
653.99	54234.31
654.18	53460.18
654.38	54281.41
654.57	53771.47
654.76	53794.00
654.96	53652.69
655.15	53636.30
655.34	54064.33
655.54	53925.07
655.73	53912.78
655.92	54197.44
656.12	54117.57
656.31	53890.25
656.50	54238.40
656.70	54156.49
656.89	53929.16
657.08	53892.30
657.28	54207.68
657.47	54875.32
657.66	54320.32
657.86	54252.74
658.05	54633.66
658.24	54387.91
658.43	54187.21
658.63	54564.03
658.82	54951.10
659.01	54719.68
659.21	54752.44
659.40	54514.88
659.59	54299.84
659.79	54607.04
659.98	54711.49
660.17	55018.68
660.36	54498.50
660.56	54932.67
660.75	54570.18
660.94	54576.32
661.14	54936.76
661.33	54516.93
661.52	54602.94
661.71	55149.75
661.91	54920.38
662.10	54762.68
662.29	54801.60
662.49	54674.62
662.68	55043.26
662.87	55200.95
663.06	55203.00
663.26	55014.58
663.45	55043.26
663.64	54736.06
663.83	55454.90
664.03	54998.20
664.22	55071.93
664.41	55026.87
664.60	55063.74
664.80	55069.88
664.99	54940.86
665.18	55094.46
665.37	54965.43
665.57	55358.64
665.76	55198.90
665.95	55444.66
666.14	55336.12
666.34	55071.93
666.53	54955.19
666.72	55442.61
666.91	55055.54
667.11	54840.51
667.30	55403.70
667.49	54924.47
667.68	55340.21
667.87	55080.12
668.07	55395.51
668.26	55475.38
668.45	55327.92
668.64	54897.85
668.84	55887.02
669.03	55837.87
669.22	55760.05
669.41	55930.03
669.60	55256.24
669.80	55221.43
669.99	55622.83
670.18	55536.82
670.37	55469.23
670.57	55528.62
670.76	55700.65
670.95	55411.89
671.14	55727.28
671.33	55338.16
671.53	56206.50
671.72	55727.28
671.91	56087.72
672.10	55616.69
672.29	55653.55
672.48	55471.28
672.68	56054.95
672.87	55590.06
673.06	55647.41
673.25	55227.57
673.44	55606.45
673.64	55540.91
673.83	55620.78
674.02	55592.11
674.21	55467.19
674.40	55659.69
674.59	55483.57
674.79	55383.22
674.98	55483.57
675.17	55981.23
675.36	55299.25
675.55	55620.78
675.74	55317.68
675.94	55686.32
676.13	55499.95
676.32	55907.50
676.51	55588.02
676.70	56030.38
676.89	55497.91
677.08	55620.78
677.28	55375.03
677.47	55737.52
677.66	56145.06
677.85	55575.73
678.04	56206.50
678.23	55966.89
678.42	56372.39
678.62	55776.43
678.81	56046.76
679.00	55891.12
679.19	56011.95
679.38	55960.75
679.57	55936.17
679.76	55874.73
679.96	55870.64
680.15	56108.20
680.34	55903.40
680.53	55573.68
680.72	55803.05
680.91	55907.50
681.10	55846.06
681.29	55975.08
681.48	55811.24
681.68	55612.59
681.87	55305.40
682.06	55510.19
682.25	55184.57
682.44	55561.39
682.63	55735.47
682.82	55127.22
683.01	55973.03
683.20	55358.64
683.39	55776.43
683.59	55512.24
683.78	55174.33
683.97	55418.03
684.16	55491.76
684.35	55448.75
684.54	55456.95
684.73	55395.51
684.92	55071.93
685.11	55397.55
685.30	55377.08
685.49	55735.47
685.69	55717.04
685.88	55690.41
686.07	55727.28
686.26	55174.33
686.45	55481.52
686.64	55203.00
686.83	55237.81
687.02	55420.08
687.21	55557.30
687.40	55852.20
687.59	55125.17
687.78	55071.93
687.97	56026.28
688.16	54990.01
688.35	55041.21
688.54	54748.35
688.74	55211.19
688.93	55284.92
689.12	55270.58
689.31	55145.65
689.50	54983.86
689.69	54432.96
689.88	54729.92
690.07	55129.27
690.26	54654.14
690.45	55440.56
690.64	55293.11
690.83	55035.06
691.02	54633.66
691.21	54770.88
691.40	54586.56
691.59	54867.13
691.78	54848.70
691.97	54867.13
692.16	55338.16
692.35	55137.46
692.54	54748.35
692.73	54840.51
692.92	54836.41
693.11	54723.77
693.30	54295.75
693.49	54490.30
693.68	54475.97
693.87	54424.77
694.06	54396.10
694.25	54326.47
694.44	54381.76
694.63	54691.01
694.82	54549.70
695.01	54478.02
695.20	54052.04
695.39	54387.91
695.58	54310.08
695.77	54197.44
695.96	54043.85
696.15	54392.00
696.34	54164.68
696.53	54054.09
696.72	54568.13
696.91	53916.87
697.10	54166.73
697.29	53845.19
697.48	54205.64
697.67	53861.58
697.86	53384.40
698.05	53824.71
698.24	54199.49
698.43	53331.15
698.62	53871.82
698.81	53861.58
699.00	54269.12
699.19	53587.15
699.38	54031.56
699.57	53402.83
699.76	53794.00
699.95	53486.80
700.14	53519.57
700.32	53331.15
700.51	53365.97
700.70	53538.00
700.89	53664.97
701.08	53570.77
701.27	53290.19
701.46	53427.41
701.65	53062.87
701.84	53198.04
702.03	53159.12
702.22	53234.90
702.41	52896.98
702.60	53298.39
702.79	52608.22
702.98	52395.23
703.17	52663.52
703.35	52690.14
703.54	52974.81
703.73	52970.71
703.92	52878.55
704.11	52587.74
704.30	52247.78
704.49	52434.14
704.68	52253.92
704.87	52806.87
705.06	52489.44
705.25	52116.71
705.43	52602.08
705.62	52360.42
705.81	52573.41
706.00	52569.31
706.19	51948.78
706.38	52264.16
706.57	52231.40
706.76	51774.70
706.95	52346.08
707.14	51936.49
707.32	52020.45
707.51	51660.01
707.70	52131.04
707.89	51991.78
708.08	51901.67
708.27	52149.48
708.46	52344.03
708.65	52245.73
708.84	51854.57
709.02	51717.35
709.21	51524.85
709.40	51545.33
709.59	51741.93
709.78	51307.76
709.97	52108.52
710.16	51399.92
710.34	51442.93
710.53	51705.07
710.72	51105.01
710.91	51770.60
711.10	51436.78
711.29	51414.26
711.48	51221.75
711.66	50945.27
711.85	51338.48
712.04	51406.06
712.23	51158.26
712.42	51279.09
712.61	51379.44
712.80	51287.28
712.98	50916.60
713.17	50519.29
713.36	50963.70
713.55	50777.34
713.74	50644.22
713.93	51041.53
714.11	50558.20
714.30	50423.04
714.49	50758.91
714.68	50664.70
714.87	50572.54
715.06	50468.09
715.24	50769.15
715.43	50478.33
715.62	49796.36
715.81	49988.87
716.00	50261.25
716.18	49900.81
716.37	49657.10
716.56	49917.19
716.75	50310.40
716.94	50103.56
717.12	49786.12
717.31	50068.74
717.50	49728.78
717.69	49648.91
717.88	49505.55
718.06	49710.35
718.25	49599.76
718.44	49509.64
718.63	49227.02
718.82	49378.57
719.00	49397.01
719.19	49401.10
719.38	49337.62
719.57	48686.36
719.76	48708.89
719.94	48606.49
720.13	48788.76
720.32	48715.03
720.51	48899.35
720.69	48735.51
720.88	48407.84
721.07	48616.73
721.26	48454.94
721.44	48504.09
721.63	48368.93
721.82	47996.20
722.01	48090.40
722.20	48174.37
722.38	47777.06
722.57	47938.85
722.76	47883.56
722.95	47701.29
723.13	47883.56
723.32	47781.16
723.51	47424.81
723.70	47402.28
723.88	47289.65
724.07	47641.90
724.26	47506.73
724.44	46677.30
724.63	47822.12
724.82	47387.95
725.01	47174.96
725.19	47258.93
725.38	47084.85
725.57	47017.27
725.76	47379.76
725.94	46759.22
726.13	46992.69
726.32	47160.62
726.51	46970.16
726.69	47224.11
726.88	47228.21
727.07	46886.20
727.25	46601.53
727.44	46714.17
727.63	46730.55
727.82	46757.17
728.00	46869.81
728.19	46495.03
728.38	47129.90
728.56	45919.56
728.75	46552.38
728.94	46114.11
729.12	46628.15
729.31	46572.86
729.50	46497.08
729.69	46339.39
729.87	46417.21
730.06	46505.27
730.25	46333.24
730.43	46761.27
730.62	46751.03
730.81	46568.76
730.99	46480.70
731.18	46648.63
731.37	46269.76
731.55	46368.06
731.74	46642.49
731.93	46646.58
732.11	46490.94
732.30	46216.51
732.49	46130.50
732.67	46011.71
732.86	46056.77
733.05	46239.04
733.23	46273.85
733.42	46167.36
733.61	46159.17
733.79	46157.12
733.98	46101.82
734.17	45999.43
734.35	46071.10
734.54	45741.38
734.73	46331.20
734.91	46077.25
735.10	45847.88
735.29	46144.83
735.47	45585.74
735.66	45694.28
735.84	45960.51
736.03	45583.69
736.22	46189.89
736.40	45821.25
736.59	45847.88
736.78	45786.44
736.96	45749.57
737.15	45423.95
737.33	45460.81
737.52	45182.29
737.71	45387.08
737.89	45622.60
738.08	45401.42
738.27	45440.33
738.45	45708.61
738.64	45471.05
738.82	45253.97
739.01	45339.98
739.20	45450.57
739.38	45518.15
739.57	45524.30
739.75	44981.59
739.94	44946.77
740.13	45077.84
740.31	44940.63
740.50	45213.01
740.68	45069.65
740.87	45313.36
741.06	45223.25
741.24	44658.01
741.43	44729.69
741.61	44995.92
741.80	44971.35
741.99	44924.24
742.17	44502.36
742.36	44563.80
742.54	44414.30
742.73	44262.75
742.91	44741.97
743.10	44477.79
743.29	44721.49
743.47	44639.57
743.66	44733.78
743.84	44651.86
744.03	44750.17
744.21	44350.81
744.40	44930.39
744.59	44606.81
744.77	44127.58
744.96	44021.09
745.14	44629.34
745.33	44531.03
745.51	44399.96
745.70	44643.67
745.88	44340.57
746.07	44238.17
746.26	44057.95
746.44	44049.76
746.63	43767.14
746.81	43994.46
747.00	43810.15
747.18	43750.76
747.37	44008.80
747.55	44029.28
747.74	44440.92
747.92	43720.04
748.11	43797.86
748.29	43703.65
748.48	43834.72
748.66	43793.76
748.85	43877.73
749.03	43722.08
749.22	43683.17
749.41	43175.28
749.59	43703.65
749.78	43177.33
749.96	43056.50
750.15	43355.50
750.33	43244.91
750.52	43416.94
750.70	43232.62
750.89	43412.84
751.07	43234.67
751.26	43521.38
751.44	43206.00
751.63	43470.18
751.81	42444.15
752.00	42982.77
752.18	43208.04
752.37	42954.10
752.55	42974.58
752.74	42782.07
752.92	42794.36
753.10	43038.06
753.29	43054.45
753.47	42784.12
753.66	42323.32
753.84	42513.78
754.03	43021.68
754.21	42395.00
754.40	42345.85
754.58	42806.64
754.77	42571.13
754.95	42503.54
755.14	42308.99
755.32	42431.86
755.51	42255.74
755.69	42292.60
755.88	42292.60
756.06	42259.84
756.24	42384.76
756.43	42077.57
756.61	42605.94
756.80	42333.56
756.98	41975.17
757.17	42104.19
757.35	42016.13
757.54	42022.27
757.72	42233.21
757.90	42208.64
758.09	42096.00
758.27	41829.76
758.46	41684.36
758.64	42020.22
758.83	42040.70
759.01	42081.66
759.19	41872.77
759.38	41678.21
759.56	42038.65
759.75	41936.26
759.93	41903.49
760.12	41524.61
760.30	41493.89
760.48	41778.56
760.67	41905.54
760.85	42171.77
761.04	41442.70
761.22	41723.27
761.40	41119.12
761.59	41682.31
761.77	41391.50
761.96	41418.12
762.14	41401.74
762.32	41422.22
762.51	41588.10
762.69	41174.41
762.88	41289.10
763.06	41342.35
763.24	41080.21
763.43	41397.64
763.61	41137.55
763.80	41049.49
763.98	40691.09
764.16	41160.08
764.35	40871.31
764.53	40449.43
764.72	41002.38
764.90	40801.68
765.08	40600.98
765.27	41158.03
765.45	40531.35
765.63	40359.32
765.82	40959.38
766.00	40684.95
766.18	40574.36
766.37	40910.22
766.55	40437.14
766.74	40263.07
766.92	40295.83
767.10	40418.71
767.29	40367.51
767.47	40019.36
767.65	40160.67
767.84	40457.62
768.02	40549.78
768.20	40240.54
768.39	40289.69
768.57	40492.44
768.75	40226.20
768.94	40095.13
769.12	40195.48
769.30	40377.75
769.49	40236.44
769.67	39959.97
769.85	39667.11
770.04	39980.45
770.22	39775.65
770.40	39720.35
770.59	39744.93
770.77	40385.94
770.95	39779.74
771.14	39011.76
771.32	39044.52
771.50	39314.86
771.69	39421.35
771.87	39857.57
772.05	39128.49
772.24	39204.27
772.42	39007.66
772.60	39486.89
772.78	39364.01
772.97	39286.18
773.15	39210.41
773.33	39294.38
773.52	39357.86
773.70	39067.05
773.88	39589.28
774.07	39013.80
774.25	39085.48
774.43	39499.17
774.61	39003.56
774.80	39564.71
774.98	39470.50
775.16	39294.38
775.34	39310.76
775.53	38966.70
775.71	39472.55
775.89	39433.64
776.08	39380.39
776.26	39675.30
776.44	39388.58
776.62	39450.02
776.81	39269.80
776.99	39425.45
777.17	39708.07
777.35	39783.84
777.54	39652.77
777.72	39775.65
777.90	39533.99
778.08	39847.33
778.27	39734.69
778.45	40062.36
778.63	40107.42
778.81	39374.25
779.00	40258.97
779.18	39902.62
779.36	40017.31
779.54	39617.96
779.73	39372.20
779.91	39912.86
780.09	40162.72
780.27	40117.66
780.46	40086.94
780.64	40326.55
780.82	40099.23
781.00	40203.67
781.19	40256.92
781.37	40545.69
781.55	40187.29
781.73	40801.68
781.91	40625.56
782.10	40570.26
782.28	40805.78
782.46	40355.22
782.64	40527.25
782.82	40414.62
783.01	40512.92
783.19	40936.85
783.37	40768.91
783.55	40215.96
783.74	40813.97
783.92	40521.11
784.10	40693.14
784.28	40629.65
784.46	40465.81
784.64	40367.51
784.83	40740.24
785.01	40443.29
785.19	40789.39
785.37	40758.67
785.55	40449.43
785.74	40267.16
785.92	40332.70
786.10	40564.12
786.28	40910.22
786.46	40424.86
786.64	40326.55
786.83	40623.51
787.01	40506.77
787.19	40600.98
787.37	40484.25
787.55	40478.10
787.74	40138.14
787.92	40568.21
788.10	40387.99
788.28	39847.33
788.46	40158.62
788.64	40080.80
788.82	40394.14
789.01	40265.11
789.19	40121.76
789.37	40224.15
789.55	40207.77
789.73	39583.14
789.91	39517.60
790.09	40115.61
790.28	39876.00
790.46	39787.94
790.64	40088.99
790.82	39785.89
791.00	39333.29
791.18	39253.42
791.36	39191.98
791.55	39298.47
791.73	39402.92
791.91	38804.91
792.09	39474.60
792.27	39499.17
792.45	38927.79
792.63	39153.07
792.81	38876.59
793.00	38884.78
793.18	38725.04
793.36	38712.75
793.54	38872.49
793.72	38573.49
793.90	38487.48
794.08	38243.77
794.26	38899.12
794.44	38518.20
794.62	38075.84
794.81	38372.79
794.99	38266.30
795.17	38167.99
795.35	38290.87
795.53	38616.50
795.71	38041.02
795.89	37793.22
796.07	37664.19
796.25	37633.47
796.43	37463.49
796.61	37365.19
796.80	36986.32
796.98	37340.61
797.16	37162.44
797.34	37209.54
797.52	37070.28
797.70	37357.00
797.88	36908.49
798.06	36595.15
798.24	36822.48
798.42	36877.77
798.60	36429.27
798.78	36609.49
798.96	37117.39
799.14	36267.48
799.32	36562.39
799.51	36122.07
799.69	36539.86
799.87	36398.55
800.05	36238.81
800.23	36363.73
800.41	36210.14
800.59	36103.64
800.77	35718.62
800.95	35894.75
801.13	36048.35
801.31	35960.28
801.49	35663.33
801.67	35485.15
801.85	35845.60
802.03	35366.37
802.21	35018.22
802.39	35175.91
802.57	35239.40
802.75	35155.43
802.93	35048.94
803.11	34631.15
803.29	34633.20
803.47	34776.56
803.65	34713.07
803.83	34768.37
804.01	34700.78
804.19	34829.80
804.37	34326.00
804.55	34348.53
804.73	34379.25
804.91	33959.42
805.09	34506.23
805.27	34295.28
805.45	34196.98
805.63	34506.23
805.81	34412.02
805.99	34153.97
806.17	34024.95
806.35	34022.90
806.53	34043.38
806.71	33818.11
806.89	34100.73
807.07	33756.67
807.25	33940.99
807.43	33269.25
807.61	33775.10
807.79	33445.38
807.97	33373.70
808.15	33451.52
808.33	33154.57
808.51	33318.40
808.69	33256.96
808.87	32882.19
809.05	32994.82
809.23	32943.63
809.41	32495.12
809.59	32615.95
809.77	32833.04
809.95	32658.96
810.13	32749.07
810.31	32740.88
810.49	32601.61
810.67	32077.33
810.84	32286.23
811.02	32189.97
811.20	32155.16
811.38	32263.70
811.56	31641.12
811.74	32044.57
811.92	31927.83
812.10	31962.65
812.28	32081.43
812.46	31958.55
812.64	32001.56
812.82	31454.75
813.00	31976.98
813.18	31618.59
813.36	31454.75
813.53	31346.21
813.71	31671.84
813.89	31467.04
814.07	31227.43
814.25	31510.05
814.43	31501.86
814.61	31079.97
814.79	31180.32
814.97	30946.86
815.15	30934.57
815.33	30830.12
815.50	31069.73
815.68	30676.52
815.86	31067.69
816.04	30885.42
816.22	30551.60
816.40	30780.97
816.58	30467.63
816.76	30377.52
816.94	30686.76
817.11	30475.82
817.29	30402.10
817.47	30025.27
817.65	30283.31
817.83	30195.25
818.01	30295.60
818.19	30068.28
818.37	30215.73
818.54	30002.74
818.72	29691.45
818.90	29912.63
819.08	29654.59
819.26	30023.22
819.44	30137.91
819.62	29873.72
819.80	29685.31
819.97	29335.10
820.15	29648.44
820.33	29484.61
820.51	29525.57
820.69	29177.41
820.87	29476.41
821.05	29625.92
821.22	29320.77
821.40	29042.24
821.58	29412.93
821.76	29017.67
821.94	29029.96
822.12	29001.29
822.29	29277.76
822.47	28972.61
822.65	29251.14
822.83	29081.16
823.01	29101.64
823.19	28718.67
823.36	28716.62
823.54	28495.44
823.72	28677.71
823.90	28853.83
824.08	28599.88
824.25	28937.80
824.43	28128.85
824.61	28409.42
824.79	28644.94
824.97	28474.96
825.15	28313.17
825.32	28030.55
825.50	28161.62
825.68	28245.58
825.86	28610.12
826.04	28640.84
826.21	28284.50
826.39	28165.71
826.57	27960.92
826.75	27985.49
826.93	27831.90
827.10	27831.90
827.28	27971.16
827.46	27756.12
827.64	27749.98
827.81	27823.70
827.99	27879.00
828.17	27321.95
828.35	27295.33
828.53	27723.35
828.70	27518.56
828.88	27457.12
829.06	27473.50
829.24	27754.07
829.41	27483.74
829.59	27434.59
829.77	27518.56
829.95	27012.71
830.12	27117.15
830.30	27522.65
830.48	27381.34
830.66	27342.43
830.84	27022.95
831.01	27156.07
831.19	27199.07
831.37	27070.05
831.55	27041.38
831.72	26793.58
831.90	26785.38
832.08	26912.36
832.25	26773.10
832.43	26394.22
832.61	26764.90
832.79	26603.11
832.96	26814.05
833.14	26656.36
833.32	26846.82
833.50	26465.90
833.67	26443.37
833.85	26619.50
834.03	26142.32
834.20	26465.90
834.38	26531.44
834.56	26386.03
834.74	25857.65
834.91	26386.03
835.09	25869.94
835.27	26013.30
835.44	25917.04
835.62	25699.96
835.80	26148.46
835.98	25947.76
836.15	25943.67
836.33	25751.16
836.51	26105.46
836.68	25716.34
836.86	25558.65
837.04	25865.85
837.21	25867.89
837.39	25822.84
837.57	26056.31
837.75	25568.89
837.92	25683.58
838.10	25736.82
838.28	25312.89
838.45	25509.50
838.63	25300.61
838.81	25712.25
838.98	25343.61
839.16	25370.24
839.34	25009.79
839.51	25224.83
839.69	24942.21
839.87	25147.01
840.04	25095.81
840.22	25106.05
840.40	25101.95
840.57	24530.57
840.75	24901.25
840.93	24381.07
841.10	24934.02
841.28	25093.76
841.46	24802.95
841.63	24790.66
841.81	24802.95
841.98	24735.37
842.16	24710.79
842.34	24643.21
842.51	24401.55
842.69	24637.06
842.87	24671.88
843.04	24610.44
843.22	24297.10
843.40	24297.10
843.57	24532.62
843.75	24239.76
843.92	24583.82
844.10	24462.99
844.28	24225.42
844.45	24489.61
844.63	24174.22
844.81	24362.64
844.98	24352.40
845.16	24163.98
845.33	24088.21
845.51	24149.65
845.69	24297.10
845.86	24041.11
846.04	24055.44
846.21	24026.77
846.39	23871.12
846.57	23674.52
846.74	23514.78
846.92	23713.43
847.09	23412.38
847.27	23864.98
847.45	23619.22
847.62	23910.04
847.80	23617.18
847.97	23770.77
848.15	23590.55
848.32	23643.80
848.50	23668.37
848.68	23174.81
848.85	23488.15
849.03	23350.94
849.20	23457.43
849.38	23160.48
849.56	23183.01
849.73	22814.37
849.91	23195.29
850.08	23387.80
850.26	23013.02
850.43	23066.27
850.61	23008.93
850.78	23060.13
850.96	22941.35
851.14	22709.93
851.31	22990.50
851.49	22927.01
851.66	23123.62
851.84	22660.77
852.01	22912.67
852.19	22822.56
852.36	22417.07
852.54	22503.08
852.71	22589.10
852.89	22884.00
853.07	22691.49
853.24	22552.23
853.42	22632.10
853.59	22464.17
853.77	22728.36
853.94	22478.50
854.12	22578.86
854.29	22093.49
854.47	22433.45
854.64	22337.20
854.82	22304.43
854.99	22253.23
855.17	22310.57
855.34	22036.14
855.52	22548.14
855.69	22541.99
855.87	22064.82
856.04	21767.86
856.22	22058.67
856.39	21853.87
856.57	22040.24
856.74	21634.74
856.92	22001.33
857.09	21769.91
857.27	21980.85
857.44	21960.37
857.62	22054.58
857.79	21782.20
857.97	21694.13
858.14	21589.69
858.32	21499.58
858.49	21745.33
858.67	21649.08
858.84	21425.85
859.02	21606.07
859.19	21417.66
859.37	21243.58
859.54	21464.76
859.72	21501.62
859.89	21032.64
860.06	21221.05
860.24	21042.88
860.41	21266.11
860.59	21081.79
860.76	21436.09
860.94	21067.45
861.11	21278.40
861.29	21206.72
861.46	21110.46
861.64	20793.03
861.81	21096.13
861.98	20782.79
862.16	20664.00
862.33	20594.37
862.51	20745.92
862.68	20973.25
862.86	20770.50
863.03	20991.68
863.21	20879.04
863.38	20602.57
863.55	20278.99
863.73	20752.07
863.90	20606.66
864.08	20408.01
864.25	20557.51
864.43	20803.27
864.60	20698.82
864.77	20078.29
864.95	20162.25
865.12	20121.29
865.30	20653.76
865.47	20154.06
865.64	20467.40
865.82	20410.06
865.99	20197.07
866.17	20149.96
866.34	20094.67
866.51	20008.65
866.69	20158.16
866.86	20186.83
867.04	20129.48
867.21	19822.29
867.38	19889.87
867.56	19746.51
867.73	19744.47
867.91	19707.60
868.08	19932.88
868.25	19863.25
868.43	19642.07
868.60	19637.97
868.78	19588.82
868.95	19824.34
869.12	19394.26
869.30	19384.02
869.47	19783.38
869.64	19218.14
869.82	19289.82
869.99	19480.28
870.16	19390.17
870.34	19474.13
870.51	19271.39
870.69	19150.56
870.86	18951.90
871.03	19381.98
871.21	19162.84
871.38	19379.93
871.55	19228.38
871.73	19312.35
871.90	19017.44
872.07	18841.31
872.25	18890.46
872.42	19025.63
872.59	18812.64
872.77	18964.19
872.94	18761.44
873.11	18697.95
873.29	18757.35
873.46	18792.16
873.63	18386.66
873.81	18587.36
873.98	18280.17
874.15	18310.89
874.33	18319.08
874.50	18329.32
874.67	18419.43
874.85	18372.33
875.02	18173.67
875.19	17825.52
875.37	18177.77
875.54	18030.32
875.71	18333.42
875.88	17948.40
876.06	18040.56
876.23	17975.02
876.40	17807.09
876.58	17960.69
876.75	17989.36
876.92	17635.06
877.10	17876.72
877.27	17671.92
877.44	17805.04
877.61	17467.13
877.79	17473.27
877.96	17331.96
878.13	17805.04
878.31	17452.79
878.48	17516.28
878.65	17485.56
878.82	17084.16
879.00	17280.76
879.17	17268.47
879.34	17264.38
879.51	17176.31
879.69	17299.19
879.86	16940.80
880.03	17125.11
880.21	17245.94
880.38	17164.03
880.55	17100.54
880.72	17037.05
880.90	17161.98
881.07	17078.01
881.24	17043.20
881.41	16928.51
881.59	16879.36
881.76	16733.95
881.93	16905.98
882.10	16686.85
882.28	16658.18
882.45	16801.54
882.62	16760.58
882.79	17030.91
882.96	16500.48
883.14	16736.00
883.31	16690.95
883.48	16682.75
883.65	16441.09
883.83	16588.55
884.00	16592.64
884.17	16299.78
884.34	16432.90
884.51	16500.48
884.69	16441.09
884.86	16348.93
885.03	16439.05
885.20	16195.34
885.38	16434.95
885.55	16262.92
885.72	16336.65
885.89	16160.52
886.06	16359.17
886.24	16039.69
886.41	16033.55
886.58	16103.18
886.75	16127.75
886.92	15976.20
887.10	16371.46
887.27	15775.50
887.44	15998.73
887.61	16275.21
887.78	16031.50
887.95	16131.85
888.13	15904.53
888.30	15718.16
888.47	15912.72
888.64	16129.80
888.81	15814.41
888.99	15650.58
889.16	15787.79
889.33	15572.75
889.50	15591.19
889.67	15456.02
889.84	15632.15
890.01	15748.88
890.19	15427.35
890.36	15669.01
890.53	15259.42
890.70	15451.92
890.87	15705.87
891.04	15363.86
891.22	15505.17
891.39	15410.96
891.56	15445.78
891.73	15374.10
891.90	15286.04
892.07	15200.02
892.24	15263.51
892.42	15091.48
892.59	15288.09
892.76	15275.80
892.93	14970.65
893.10	15085.34
893.27	14894.88
893.44	15134.49
893.61	14782.24
893.79	15146.78
893.96	14849.82
894.13	14958.36
894.30	14999.32
894.47	14997.28
894.64	14946.08
894.81	15019.80
894.98	14944.03
895.15	15173.40
895.33	14858.01
895.50	14794.53
895.67	14880.54
895.84	14665.50
896.01	14825.25
896.18	14923.55
896.35	14980.89
896.52	14849.82
896.69	14692.13
896.86	14862.11
897.04	15048.47
897.21	14657.31
897.38	14774.05
897.55	14825.25
897.72	14772.00
897.89	14831.39
898.06	14657.31
898.23	14708.51
898.40	14929.69
898.57	14843.68
898.74	14708.51
898.91	14798.62
899.08	14655.26
899.26	14710.56
899.43	14829.34
899.60	14747.42
899.77	14821.15
899.94	14679.84
900.11	14282.53
900.28	14473.00
900.45	14694.18
900.62	14542.63
900.79	14636.83
900.96	14718.75
901.13	14438.18
901.30	14579.49
901.47	14413.60
901.64	14585.63
901.81	14597.92
901.98	14559.01
902.15	14815.01
902.32	14622.50
902.49	14571.30
902.66	14569.25
902.83	14552.87
903.01	14485.28
903.18	14632.74
903.35	14606.11
903.52	14737.18
903.69	14612.26
903.86	14769.95
904.03	14616.35
904.20	14728.99
904.37	14790.43
904.54	14538.53
904.71	14454.56
904.88	14505.76
905.05	14393.12
905.22	14516.00
905.39	14282.53
905.56	14417.70
905.73	14360.36
905.90	14485.28
906.07	14595.87
906.24	14411.56
906.41	14622.50
906.58	14509.86
906.75	14321.45
906.92	14296.87
907.09	14434.08
907.26	14622.50
907.43	14350.12
907.60	14409.51
907.77	14640.93
907.93	14300.97
908.10	14294.82
908.27	14579.49
908.44	14239.53
908.61	14442.28
908.78	14432.04
908.95	14192.42
909.12	14120.74
909.29	14526.24
909.46	14122.79
909.63	14509.86
909.80	14403.36
909.97	14382.88
910.14	14346.02
910.31	14176.04
910.48	14380.84
910.65	14335.78
910.82	14419.75
910.99	14348.07
911.16	14020.39
911.33	14239.53
911.50	14237.48
911.66	14071.59
911.83	14339.88
912.00	13971.24
912.17	14067.50
912.34	13915.95
912.51	13872.94
912.68	13788.97
912.85	13950.76
913.02	14075.69
913.19	13827.88
913.36	13979.43
913.53	13909.80
913.70	13829.93
913.86	14032.68
914.03	13868.84
914.20	13791.02
914.37	13791.02
914.54	13823.79
914.71	13610.80
914.88	13702.96
915.05	13578.03
915.22	13766.45
915.39	13496.11
915.55	13647.66
915.72	13588.27
915.89	13477.68
916.06	13483.83
916.23	13412.15
916.40	13324.08
916.57	13432.63
916.74	13246.26
916.91	13526.83
917.07	13152.06
917.24	13162.30
917.41	13399.86
917.58	13123.38
917.75	13272.89
917.92	12975.93
918.09	12994.36
918.26	13184.82
918.42	13182.77
918.59	12869.44
918.76	12947.26
918.93	12699.45
919.10	12889.92
919.27	12748.61
919.44	12818.24
919.60	12838.72
919.77	12693.31
919.94	12480.32
920.11	12701.50
920.28	12898.11
920.45	12511.04
920.61	12447.55
920.78	12472.13
920.95	12369.73
921.12	12664.64
921.29	12306.24
921.46	12310.34
921.62	12169.03
921.79	12330.82
921.96	12287.81
922.13	12115.78
922.30	12275.52
922.47	12214.09
922.63	12048.20
922.80	12056.39
922.97	12152.65
923.14	11808.59
923.31	12099.40
923.47	11892.55
923.64	12169.03
923.81	11716.43
923.98	11784.01
924.15	11552.59
924.32	11851.60
924.48	11657.04
924.65	11726.67
924.82	11532.11
924.99	11315.03
925.15	11421.52
925.32	11382.61
925.49	11413.33
925.66	11501.39
925.83	11499.34
925.99	11433.81
926.16	11251.54
926.33	11169.62
926.50	11007.83
926.67	11052.89
926.83	10917.72
927.00	10841.95
927.17	10936.15
927.34	10962.78
927.50	10968.92
927.67	11087.70
927.84	10755.93
928.01	10702.68
928.17	10760.03
928.34	10534.75
928.51	10516.32
928.68	10538.85
928.84	10518.37
929.01	10448.74
929.18	10348.39
929.35	10383.20
929.51	10237.80
929.68	10235.75
929.85	10289.00
930.02	10346.34
930.18	10170.21
930.35	10413.92
930.52	9996.14
930.69	10112.87
930.85	10030.95
931.02	9883.50
931.19	9971.56
931.36	10024.81
931.52	9768.81
931.69	9957.22
931.86	9824.11
932.02	9752.43
932.19	9572.21
932.36	9572.21
932.53	9635.69
932.69	9529.20
932.86	9580.40
933.03	9502.58
933.19	9215.86
933.36	9375.60
933.53	9447.28
933.70	9490.29
933.86	9275.25
934.03	9342.83
934.20	8988.53
934.36	9125.75
934.53	9025.40
934.70	8875.90
934.86	8908.66
935.03	8777.59
935.20	8740.73
935.36	8640.38
935.53	8679.29
935.70	8650.62
935.86	8585.08
936.03	8648.57
936.20	8423.30
936.36	8308.61
936.53	8261.51
936.70	8241.03
936.86	8376.19
937.03	8210.31
937.20	7933.83
937.36	8099.72
937.53	7735.18
937.70	7645.07
937.86	7610.25
938.03	7655.31
938.20	7643.02
938.36	7401.36
938.53	7511.95
938.70	7196.56
938.86	7350.16
939.03	7145.36
939.20	7024.53
939.36	7153.55
939.53	6729.63
939.70	7186.32
939.86	6698.91
940.03	6604.70
940.19	6533.02
940.36	6610.84
940.53	6754.20
940.69	6465.44
940.86	6401.95
941.03	6350.75
941.19	6148.00
941.36	6254.50
941.52	6133.67
941.69	6088.61
941.86	5988.26
942.02	6018.98
942.19	6059.94
942.35	5945.25
942.52	6043.56
942.69	5836.71
942.85	5711.78
943.02	5773.22
943.18	5650.35
943.35	5730.22
943.52	5623.72
943.68	5556.14
943.85	5656.49
944.01	5613.48
944.18	5521.32
944.35	5656.49
944.51	5369.77
944.68	5433.26
944.84	5283.76
945.01	5406.64
945.17	5398.45
945.34	5291.95
945.51	5320.62
945.67	5218.22
945.84	5226.42
946.00	5126.07
946.17	5250.99
946.33	5093.30
946.50	5259.18
946.67	5279.66
946.83	5171.12
947.00	5203.89
947.16	5269.42
947.33	5119.92
947.49	5261.23
947.66	5111.73
947.82	5177.26
947.99	5089.20
948.16	5236.66
948.32	5150.64
948.49	5214.13
948.65	5347.25
948.82	5203.89
948.98	5171.12
949.15	5181.36
949.31	5234.61
949.48	5181.36
949.64	5201.84
949.81	5162.93
949.97	5275.57
950.14	5113.78
950.30	5199.79
950.47	5169.07
950.63	5152.69
950.80	5070.77
950.96	5267.38
951.13	5216.18
951.30	5105.59
951.46	5226.42
951.63	5388.21
951.79	5328.81
951.96	5230.51
952.12	5207.98
952.29	5248.94
952.45	5267.38
952.62	5228.46
952.78	5332.91
952.94	5220.27
953.11	5263.28
953.27	5107.63
953.44	5359.53
953.60	5287.86
953.77	5332.91
953.93	5242.80
954.10	5369.77
954.26	5152.69
954.43	5238.70
954.59	5396.40
954.76	5541.80
954.92	5277.62
955.09	5435.31
955.25	5429.17
955.42	5285.81
955.58	5457.84
955.75	5207.98
955.91	5277.62
956.07	5408.69
956.24	5392.30
956.40	5470.12
956.57	5371.82
956.73	5175.22
956.90	5431.21
957.06	5334.96
957.23	5343.15
957.39	5451.69
957.56	5267.38
957.72	5308.34
957.88	5228.46
958.05	5402.54
958.21	5461.93
958.38	5314.48
958.54	5314.48
958.71	5472.17
958.87	5318.57
959.03	5431.21
959.20	5459.88
959.36	5310.38
959.53	5285.81
959.69	5308.34
959.85	5367.73
960.02	5339.05
960.18	5277.62
960.35	5232.56
960.51	5351.34
960.68	5226.42
960.84	5318.57
961.00	5418.93
961.17	5441.45
961.33	5291.95
961.50	5402.54
961.66	5355.44
961.82	5332.91
961.99	5279.66
962.15	5291.95
962.31	5277.62
962.48	5343.15
962.64	5304.24
962.81	5351.34
962.97	5439.40
963.13	5402.54
963.30	5470.12
963.46	5267.38
963.62	5429.17
963.79	5308.34
963.95	5253.04
964.12	5343.15
964.28	5449.64
964.44	5242.80
964.61	5367.73
964.77	5169.07
964.93	5304.24
965.10	5390.25
965.26	5269.42
965.42	5404.59
965.59	5130.16
965.75	5232.56
965.92	5255.09
966.08	5191.60
966.24	5158.83
966.41	5265.33
966.57	5250.99
966.73	5279.66
966.90	5234.61
967.06	5191.60
967.22	5205.94
967.39	5113.78
967.55	5146.55
967.71	5140.40
967.88	5183.41
968.04	5027.76
968.20	5216.18
968.37	5124.02
968.53	5093.30
968.69	5052.34
968.85	5148.59
969.02	5081.01
969.18	5171.12
969.34	5054.39
969.51	5087.15
969.67	5107.63
969.83	4870.07
970.00	5250.99
970.16	5052.34
970.32	5087.15
970.48	5107.63
970.65	4990.90
970.81	4931.51
970.97	4966.32
971.14	4974.52
971.30	5021.62
971.46	4874.17
971.63	4908.98
971.79	4956.08
971.95	4984.76
972.11	4927.41
972.28	4980.66
972.44	5001.14
972.60	4859.83
972.76	4835.25
972.93	4843.45
973.09	4960.18
973.25	5078.96
973.42	4714.42
973.58	4923.32
973.74	4835.25
973.90	4870.07
974.07	4812.73
974.23	4833.21
974.39	4816.82
974.55	4730.81
974.72	4747.19
974.88	4718.52
975.04	4753.34
975.20	4728.76
975.37	4794.29
975.53	4663.22
975.69	4689.85
975.85	4595.64
976.01	4655.03
976.18	4683.70
976.34	4646.84
976.50	4720.57
976.66	4652.98
976.83	4724.66
976.99	4583.35
977.15	4614.07
977.31	4612.03
977.47	4753.34
977.64	4585.40
977.80	4585.40
977.96	4628.41
978.12	4648.89
978.29	4526.01
978.45	4468.67
978.61	4478.91
978.77	4583.35
978.93	4374.46
979.10	4448.19
979.26	4534.20
979.42	4442.04
979.58	4310.97
979.74	4474.81
979.91	4444.09
980.07	4401.08
980.23	4450.24
980.39	4405.18
980.55	4444.09
980.71	4276.16
980.88	4288.45
981.04	4583.35
981.20	4335.55
981.36	4474.81
981.52	4231.10
981.68	4181.95
981.85	4370.37
982.01	4366.27
982.17	4184.00
982.33	4177.86
982.49	4274.11
982.65	4208.58
982.82	4349.89
982.98	4261.82
983.14	4198.34
983.30	4347.84
983.46	4204.48
983.62	4231.10
983.79	4159.42
983.95	4136.90
984.11	4212.67
984.27	4204.48
984.43	4222.91
984.59	4136.90
984.75	4173.76
984.91	4044.74
985.08	4263.87
985.24	4120.51
985.40	3960.77
985.56	4175.81
985.72	4136.90
985.88	4145.09
986.04	4112.32
986.20	4007.87
986.37	4110.27
986.53	4016.07
986.69	4089.79
986.85	3964.87
987.01	3956.68
987.17	4001.73
987.33	3985.35
987.49	4014.02
987.65	3993.54
987.82	4001.73
987.98	3895.24
988.14	4003.78
988.30	4026.31
988.46	3868.61
988.62	3964.87
988.78	3786.69
988.94	3819.46
989.10	3753.93
989.26	3885.00
989.42	3846.09
989.59	3786.69
989.75	3796.93
989.91	3823.56
990.07	3614.66
990.23	3637.19
990.39	3866.56
990.55	3876.80
990.71	3778.50
990.87	3841.99
991.03	3825.61
991.19	3760.07
991.35	3792.84
991.51	3776.45
991.67	3823.56
991.83	3663.82
992.00	3704.78
992.16	3825.61
992.32	3690.44
992.48	3655.62
992.64	3682.25
992.80	3682.25
992.96	3684.30
993.12	3594.19
993.28	3737.54
993.44	3706.82
993.60	3753.93
993.76	3639.24
993.92	3665.86
994.08	3663.82
994.24	3561.42
994.40	3641.29
994.56	3622.86
994.72	3655.62
994.88	3461.07
995.04	3577.80
995.20	3567.56
995.36	3504.07
995.52	3667.91
995.68	3672.01
995.84	3456.97
996.00	3620.81
996.16	3463.12
996.32	3452.88
996.48	3422.16
996.64	3534.79
996.80	3489.74
996.96	3491.79
997.12	3332.05
997.28	3483.59
997.44	3278.80
997.60	3452.88
997.76	3362.76
997.92	3424.20
998.08	3289.04
998.24	3313.61
998.40	3338.19
998.56	3434.44
998.72	3313.61
998.88	3262.41
999.04	3252.17
999.20	3196.88
999.36	3325.90
999.52	3241.93
999.68	3338.19
999.84	3334.09
1000.00	3348.43
1000.16	3368.91
1000.32	3198.93
1000.48	3293.13
1000.64	3215.31
1000.80	3184.59
1000.95	3213.26
1001.11	3166.16
1001.27	3178.45
1001.43	3160.02
1001.59	3149.78
1001.75	3063.76
1001.91	3258.32
1002.07	3243.98
1002.23	3213.26
1002.39	3170.26
1002.55	3110.86
1002.71	3088.34
1002.87	3084.24
1003.03	2932.69
1003.19	3076.05
1003.34	3248.08
1003.50	3018.71
1003.66	3151.82
1003.82	3131.34
1003.98	3026.90
1004.14	3145.68
1004.30	3067.86
1004.46	2990.03
1004.62	2944.98
1004.78	3053.52
1004.94	3110.86
1005.09	3022.80
1005.25	3051.47
1005.41	2834.39
1005.57	2901.97
1005.73	2940.88
1005.89	2992.08
1006.05	3084.24
1006.21	2983.89
1006.37	2969.55
1006.52	2908.12
1006.68	2834.39
1006.84	3000.27
1007.00	2867.16
1007.16	2930.64
1007.32	2828.24
1007.48	2936.79
1007.64	2975.70
1007.79	2875.35
1007.95	2805.72
1008.11	2957.27
1008.27	2822.10
1008.43	2901.97
1008.59	2901.97
1008.75	2838.48
1008.91	2830.29
1009.06	2785.24
1009.22	2803.67
1009.38	2828.24
1009.54	2840.53
1009.70	2709.46
1009.86	2799.57
1010.01	2914.26
1010.17	2760.66
1010.33	2920.40
1010.49	2805.72
1010.65	2871.25
1010.81	2734.04
1010.96	2701.27
1011.12	2686.94
1011.28	2582.49
1011.44	2660.31
1011.60	2693.08
1011.76	2666.46
1011.91	2834.39
1012.07	2680.79
1012.23	2594.78
1012.39	2703.32
1012.55	2781.14
1012.71	2650.07
1012.86	2641.88
1013.02	2656.22
1013.18	2701.27
1013.34	2607.06
1013.50	2676.70
1013.65	2721.75
1013.81	2541.53
1013.97	2596.82
1014.13	2676.70
1014.29	2572.25
1014.44	2639.83
1014.60	2551.77
1014.76	2621.40
1014.92	2551.77
1015.07	2600.92
1015.23	2602.97
1015.39	2555.86
1015.55	2564.06
1015.71	2535.39
1015.86	2439.13
1016.02	2453.47
1016.18	2469.85
1016.34	2451.42
1016.49	2545.63
1016.65	2473.95
1016.81	2455.51
1016.97	2504.67
1017.12	2590.68
1017.28	2377.69
1017.44	2410.46
1017.60	2514.91
1017.75	2553.82
1017.91	2453.47
1018.07	2475.99
1018.23	2422.75
1018.38	2412.51
1018.54	2404.32
1018.70	2381.79
1018.86	2418.65
1019.01	2334.68
1019.17	2537.43
1019.33	2480.09
1019.49	2437.08
1019.64	2445.27
1019.80	2412.51
1019.96	2459.61
1020.12	2428.89
1020.27	2340.83
1020.43	2308.06
1020.59	2404.32
1020.74	2394.08
1020.90	2363.36
1021.06	2326.49
1021.22	2299.87
1021.37	2338.78
1021.53	2291.68
1021.69	2326.49
1021.84	2242.53
1022.00	2379.74
1022.16	2373.60
1022.31	2232.29
1022.47	2344.92
1022.63	2377.69
1022.79	2146.27
1022.94	2320.35
1023.10	2349.02
1023.26	2306.01
1023.41	2240.48
1023.57	2310.11
1023.73	2338.78
1023.88	2285.53
1024.04	2224.09
1024.20	2228.19
1024.35	2328.54
1024.51	2250.72
1024.67	2222.05
1024.82	2353.12
1024.98	2160.61
1025.14	2185.18
1025.29	2158.56
1025.45	2318.30
1025.61	2205.66
1025.76	2211.81
1025.92	2101.22
1026.08	2308.06
1026.23	2310.11
1026.39	2293.72
1026.55	2211.81
1026.70	2142.18
1026.86	2215.90
1027.02	2181.09
1027.17	2160.61
1027.33	2187.23
1027.48	2156.51
1027.64	2131.94
1027.80	2099.17
1027.95	2138.08
1028.11	2056.16
1028.27	2203.61
1028.42	2152.42
1028.58	2140.13
1028.73	2099.17
1028.89	2123.74
1029.05	2131.94
1029.20	2217.95
>>>>>End Processed Spectral Data<<<<<
