SpectraSuite Data File
++++++++++++++++++++++++++++++++++++
Date: Fri Jun 02 14:51:10 CEST 2017
User: INFO_000
Dark Spectrum Present: No
Reference Spectrum Present: No
Number of Sampled Component Spectra: 1
Spectrometers: USB4H00879
Integration Time (usec): 80000 (USB4H00879)
Spectra Averaged: 1 (USB4H00879)
Boxcar Smoothing: 0 (USB4H00879)
Correct for Electrical Dark: No (USB4H00879)
Strobe/Lamp Enabled: No (USB4H00879)
Correct for Detector Non-linearity: No (USB4H00879)
Correct for Stray Light: No (USB4H00879)
Number of Pixels in Processed Spectrum: 3648
>>>>>Begin Processed Spectral Data<<<<<
345.13	1286.12
345.34	1286.12
345.56	1286.12
345.78	1331.18
345.99	1314.80
346.21	1701.86
346.42	1658.85
346.64	1658.85
346.86	1738.73
347.07	1753.06
347.29	1746.92
347.50	1640.42
347.72	1703.91
347.94	1705.96
348.15	1552.36
348.37	1673.19
348.59	1691.62
348.80	1632.23
349.02	1755.11
349.23	1855.46
349.45	1851.36
349.67	1837.03
349.88	1880.04
350.10	1970.15
350.31	1867.75
350.53	1787.88
350.75	1929.19
350.96	1724.39
351.18	1884.13
351.39	1861.60
351.61	1753.06
351.82	1904.61
352.04	1927.14
352.26	1820.64
352.47	1875.94
352.69	1925.09
352.90	1753.06
353.12	1839.08
353.34	1906.66
353.55	1884.13
353.77	1830.88
353.98	1740.77
354.20	1884.13
354.41	1880.04
354.63	1939.43
354.85	2035.68
355.06	1896.42
355.28	1779.68
355.49	1804.26
355.71	1931.23
355.92	1871.84
356.14	1947.62
356.35	1855.46
356.57	1912.80
356.79	1937.38
357.00	1857.51
357.22	1980.39
357.43	1818.60
357.65	1877.99
357.86	1863.65
358.08	1914.85
358.29	2002.91
358.51	1976.29
358.72	1994.72
358.94	1972.19
359.16	1959.91
359.37	1925.09
359.59	1959.91
359.80	1943.52
360.02	1945.57
360.23	1945.57
360.45	2025.44
360.66	1861.60
360.88	1851.36
361.09	1865.70
361.31	1957.86
361.52	1937.38
361.74	2025.44
361.95	2041.82
362.17	1877.99
362.38	2070.50
362.60	2105.31
362.81	1931.23
363.03	1968.10
363.24	1984.48
363.46	2017.25
363.67	1978.34
363.89	1988.58
364.10	2015.20
364.32	1920.99
364.53	2037.73
364.75	1941.47
364.96	2002.91
365.18	2039.78
365.39	1986.53
365.61	2033.63
365.82	2105.31
366.04	2011.11
366.25	1964.00
366.47	2007.01
366.68	1986.53
366.90	1927.14
367.11	2047.97
367.33	2052.06
367.54	2146.27
367.76	1923.04
367.97	2066.40
368.19	1996.77
368.40	2101.22
368.62	1959.91
368.83	2007.01
369.05	1972.19
369.26	1994.72
369.48	1892.32
369.69	2033.63
369.91	2093.02
370.12	2033.63
370.33	2125.79
370.55	1978.34
370.76	1970.15
370.98	2105.31
371.19	1986.53
371.41	2033.63
371.62	2002.91
371.84	2062.30
372.05	2172.89
372.27	2080.74
372.48	2109.41
372.69	2123.74
372.91	2103.26
373.12	2099.17
373.34	2078.69
373.55	2121.70
373.77	2133.98
373.98	2052.06
374.20	2129.89
374.41	2109.41
374.62	2121.70
374.84	2144.22
375.05	2131.94
375.27	2152.42
375.48	2140.13
375.70	2086.88
375.91	2228.19
376.12	2285.53
376.34	2174.94
376.55	2174.94
376.77	2181.09
376.98	2133.98
377.19	2148.32
377.41	2119.65
377.62	2158.56
377.84	2129.89
378.05	2349.02
378.27	2146.27
378.48	2342.88
378.69	2334.68
378.91	2328.54
379.12	2211.81
379.34	2256.86
379.55	2275.29
379.76	2230.24
379.98	2166.75
380.19	2238.43
380.41	2244.57
380.62	2265.05
380.83	2291.68
381.05	2273.25
381.26	2377.69
381.47	2244.57
381.69	2246.62
381.90	2396.12
382.12	2258.91
382.33	2166.75
382.54	2322.40
382.76	2355.16
382.97	2310.11
383.19	2232.29
383.40	2416.60
383.61	2314.20
383.83	2379.74
384.04	2363.36
384.25	2349.02
384.47	2287.58
384.68	2310.11
384.89	2291.68
385.11	2344.92
385.32	2314.20
385.54	2279.39
385.75	2279.39
385.96	2355.16
386.18	2355.16
386.39	2432.99
386.60	2396.12
386.82	2385.88
387.03	2389.98
387.24	2590.68
387.46	2465.75
387.67	2428.89
387.88	2516.95
388.10	2453.47
388.31	2353.12
388.52	2592.73
388.74	2508.76
388.95	2484.19
389.16	2551.77
389.38	2482.14
389.59	2426.84
389.80	2633.69
390.02	2473.95
390.23	2574.30
390.44	2559.96
390.66	2523.10
390.87	2566.10
391.08	2574.30
391.30	2658.26
391.51	2621.40
391.72	2625.50
391.94	2621.40
392.15	2611.16
392.36	2617.30
392.58	2537.43
392.79	2711.51
393.00	2676.70
393.22	2758.61
393.43	2678.74
393.64	2727.89
393.85	2734.04
394.07	2633.69
394.28	2740.18
394.49	2680.79
394.71	2852.82
394.92	2850.77
395.13	2625.50
395.35	2742.23
395.56	2736.09
395.77	2625.50
395.98	2826.20
396.20	2838.48
396.41	2809.81
396.62	2889.68
396.84	2760.66
397.05	2863.06
397.26	2942.93
397.47	2959.31
397.69	2801.62
397.90	2990.03
398.11	2883.54
398.32	2893.78
398.54	2826.20
398.75	2912.21
398.96	2865.11
399.18	2983.89
399.39	2891.73
399.60	2957.27
399.81	2838.48
400.03	2863.06
400.24	3207.12
400.45	2971.60
400.66	3041.23
400.88	2990.03
401.09	3174.35
401.30	2998.23
401.51	3149.78
401.73	3026.90
401.94	3153.87
402.15	3176.40
402.36	3139.54
402.58	3194.83
402.79	3114.96
403.00	3092.43
403.21	3182.54
403.43	3241.93
403.64	3278.80
403.85	3092.43
404.06	3211.22
404.27	3149.78
404.49	3368.91
404.70	3100.62
404.91	3239.89
405.12	3303.37
405.34	3170.26
405.55	3473.36
405.76	3063.76
405.97	3264.46
406.19	3377.10
406.40	3246.03
406.61	3266.51
406.82	3377.10
407.03	3307.47
407.25	3274.70
407.46	3465.16
407.67	3524.55
407.88	3424.20
408.09	3284.94
408.31	3418.06
408.52	3409.87
408.73	3403.72
408.94	3346.38
409.15	3436.49
409.37	3432.40
409.58	3405.77
409.79	3428.30
410.00	3467.21
410.21	3430.35
410.43	3524.55
410.64	3334.09
410.85	3551.18
411.06	3473.36
411.27	3542.99
411.48	3583.95
411.70	3508.17
411.91	3567.56
412.12	3647.43
412.33	3622.86
412.54	3520.46
412.76	3620.81
412.97	3690.44
413.18	3520.46
413.39	3545.03
413.60	3682.25
413.81	3594.19
414.03	3626.95
414.24	3526.60
414.45	3848.13
414.66	3649.48
414.87	3680.20
415.08	3729.35
415.30	3745.73
415.51	3719.11
415.72	3803.08
415.93	3755.97
416.14	3817.41
416.35	3776.45
416.56	3663.82
416.78	3729.35
416.99	3751.88
417.20	3852.23
417.41	3946.44
417.62	3950.53
417.83	3880.90
418.04	3751.88
418.26	3956.68
418.47	3794.89
418.68	3919.81
418.89	4104.13
419.10	4059.07
419.31	4036.55
419.52	4081.60
419.73	4016.07
419.95	4079.55
420.16	3887.04
420.37	4067.27
420.58	4122.56
420.79	4011.97
421.00	4071.36
421.21	4059.07
421.42	3973.06
421.63	4145.09
421.85	4067.27
422.06	4257.73
422.27	4229.06
422.48	4108.23
422.69	4206.53
422.90	4249.54
423.11	4257.73
423.32	4278.21
423.53	4386.75
423.75	4317.12
423.96	4472.76
424.17	4358.08
424.38	4542.39
424.59	4181.95
424.80	4450.24
425.01	4382.65
425.22	4419.52
425.43	4476.86
425.64	4646.84
425.85	4583.35
426.06	4542.39
426.28	4485.05
426.49	4388.80
426.70	4577.21
426.91	4509.63
427.12	4583.35
427.33	4632.51
427.54	4550.59
427.75	4605.88
427.96	4872.12
428.17	4724.66
428.38	4792.25
428.59	4792.25
428.80	4689.85
429.01	4859.83
429.23	4669.37
429.44	4927.41
429.65	4859.83
429.86	4974.52
430.07	4958.13
430.28	4951.99
430.49	5050.29
430.70	5150.64
430.91	5124.02
431.12	4978.61
431.33	5171.12
431.54	5238.70
431.75	5136.31
431.96	5115.83
432.17	5197.74
432.38	5115.83
432.59	5226.42
432.80	5210.03
433.01	5142.45
433.22	5261.23
433.43	5250.99
433.64	5300.14
433.85	5212.08
434.06	5392.30
434.27	5169.07
434.49	5308.34
434.70	5525.42
434.91	5386.16
435.12	5443.50
435.33	5435.31
435.54	5590.95
435.75	5250.99
435.96	5443.50
436.17	5402.54
436.38	5707.69
436.59	5515.18
436.80	5492.65
437.01	5777.32
437.22	5590.95
437.43	5752.74
437.64	5537.71
437.85	5713.83
438.06	5758.89
438.27	5615.53
438.48	5650.35
438.69	5869.48
438.90	5760.94
439.11	5599.15
439.32	5892.01
439.53	5683.11
439.74	5805.99
439.95	5785.51
440.16	5810.09
440.37	5805.99
440.57	5713.83
440.78	5924.77
440.99	5973.92
441.20	5963.68
441.41	5773.22
441.62	5904.29
441.83	5857.19
442.04	6092.71
442.25	6057.89
442.46	5871.53
442.67	6193.06
442.88	6535.07
443.09	6051.75
443.30	6158.24
443.51	6123.43
443.72	6338.46
443.93	6008.74
444.14	6348.70
444.35	6109.09
444.56	6342.56
444.77	6176.67
444.98	6320.03
445.19	6432.67
445.40	6277.02
445.61	6350.75
445.81	6410.14
446.02	6492.06
446.23	6299.55
446.44	6064.04
446.65	6508.44
446.86	6469.53
447.07	6561.69
447.28	6707.10
447.49	6670.23
447.70	6508.44
447.91	6713.24
448.12	6580.12
448.33	6772.63
448.54	6616.99
448.74	6688.67
448.95	6692.76
449.16	6602.65
449.37	7020.44
449.58	6786.97
449.79	7020.44
450.00	6670.23
450.21	6932.37
450.42	6965.14
450.63	7055.25
450.84	6940.57
451.05	6885.27
451.25	6991.77
451.46	6862.74
451.67	7163.79
451.88	7098.26
452.09	7108.50
452.30	7038.87
452.51	7169.94
452.72	7380.88
452.93	7419.79
453.13	7202.71
453.34	7077.78
453.55	7157.65
453.76	7288.72
453.97	7726.99
454.18	7425.93
454.39	7374.74
454.60	7456.65
454.81	7522.19
455.01	7645.07
455.22	7229.33
455.43	7495.57
455.64	7755.66
455.85	7849.86
456.06	7796.62
456.27	7743.37
456.48	7610.25
456.68	7806.86
456.89	7794.57
457.10	7880.58
457.31	7769.99
457.52	7958.41
457.73	7954.31
457.94	8163.20
458.14	7884.68
458.35	8421.25
458.56	8212.35
458.77	8040.33
458.98	8167.30
459.19	8249.22
459.39	8306.56
459.60	8515.45
459.81	8271.75
460.02	8613.76
460.23	8621.95
460.44	8658.81
460.65	8580.99
460.85	8785.79
461.06	8777.59
461.27	8511.36
461.48	8769.40
461.69	8834.94
461.89	8474.49
462.10	8906.62
462.31	8765.31
462.52	8884.09
462.73	8972.15
462.94	9160.56
463.14	9107.32
463.35	9047.93
463.56	9346.93
463.77	9336.69
463.98	9191.28
464.18	9277.30
464.39	9441.14
464.60	9629.55
464.81	9363.31
465.02	9523.05
465.23	9717.61
465.43	9555.82
465.64	9822.06
465.85	9572.21
466.06	9684.84
466.27	10039.14
466.47	9963.37
466.68	10018.66
466.89	9760.62
467.10	10057.57
467.30	9908.07
467.51	10260.32
467.72	10452.83
467.93	10022.76
468.14	10368.87
468.34	10323.81
468.55	10553.18
468.76	10598.24
468.97	10383.20
469.17	10866.52
469.38	10706.78
469.59	10940.25
469.80	10655.58
470.01	10721.12
470.21	10846.04
470.42	11059.03
470.63	11044.70
470.84	10991.45
471.04	11249.49
471.25	11263.83
471.46	11202.39
471.67	11663.18
471.87	11425.62
472.08	11450.19
472.29	11837.26
472.50	11374.42
472.70	11495.25
472.91	11609.93
473.12	11724.62
473.33	11689.81
473.53	12037.96
473.74	11863.88
473.95	12308.29
474.16	12242.76
474.36	12246.85
474.57	12635.97
474.78	12642.11
474.99	12416.83
475.19	12484.42
475.40	12617.54
475.61	12816.19
475.81	12889.92
476.02	12879.68
476.23	12883.77
476.44	13156.15
476.64	13295.41
476.85	13463.35
477.06	13266.74
477.27	13709.10
477.47	13647.66
477.68	13608.75
477.89	13932.33
478.09	13705.01
478.30	13807.41
478.51	14180.14
478.71	14141.22
478.92	14202.66
479.13	14233.38
479.34	14579.49
479.54	14518.05
479.75	14665.50
479.96	14728.99
480.16	14632.74
480.37	14728.99
480.58	15075.10
480.78	15208.22
480.99	15161.11
481.20	15370.01
481.41	15378.20
481.61	15378.20
481.82	15490.84
482.03	15388.44
482.23	15593.23
482.44	15990.54
482.65	16062.22
482.85	16152.33
483.06	15961.87
483.27	16092.94
483.47	16101.13
483.68	16232.20
483.89	16535.30
484.09	16297.74
484.30	16404.23
484.51	16606.98
484.71	16805.63
484.92	16572.16
485.13	16998.14
485.33	17202.94
485.54	16973.56
485.75	17350.39
485.95	17467.13
486.16	17192.70
486.37	17354.49
486.57	17540.85
486.78	17481.46
486.98	17737.46
487.19	17960.69
487.40	17919.73
487.60	17673.97
487.81	18083.56
488.02	17975.02
488.22	18155.24
488.43	18265.83
488.64	18521.83
488.84	18519.78
489.05	18548.45
489.25	18396.90
489.46	18853.60
489.67	18800.35
489.87	19183.32
490.08	19052.25
490.29	19146.46
490.49	19373.78
490.70	19470.04
490.90	19533.53
491.11	19379.93
491.32	19670.74
491.52	19945.17
491.73	19551.96
491.94	19820.24
492.14	19945.17
492.35	19889.87
492.55	20156.11
492.76	20303.56
492.97	20567.75
493.17	20432.58
493.38	20516.55
493.58	20772.55
493.79	20778.69
494.00	20657.86
494.20	20539.08
494.41	21040.83
494.61	20954.82
494.82	20715.20
495.02	20963.01
495.23	20985.54
495.44	21540.54
495.64	21581.49
495.85	21393.08
496.05	21509.82
496.26	21472.95
496.47	21823.16
496.67	21657.27
496.88	22277.80
497.08	21698.23
497.29	22234.80
497.49	21890.74
497.70	22005.42
497.91	22369.96
498.11	22412.97
498.32	22302.38
498.52	22343.34
498.73	22812.32
498.93	22820.52
499.14	22652.58
499.34	22867.62
499.55	23010.98
499.76	22845.09
499.96	22916.77
500.17	22998.69
500.37	23131.81
500.58	22904.48
500.78	23213.73
500.99	23019.17
501.19	23723.67
501.40	23533.21
501.60	23551.64
501.81	23305.88
502.02	23748.25
502.22	23527.06
502.43	23670.42
502.63	23969.43
502.84	24245.90
503.04	24084.11
503.25	24116.88
503.45	24413.84
503.66	24209.04
503.86	24151.70
504.07	24534.67
504.27	24235.66
504.48	24807.05
504.68	24364.68
504.89	24575.62
505.09	24921.73
505.30	24917.64
505.50	24819.33
505.71	24600.20
505.91	24878.72
506.12	24950.40
506.32	24956.55
506.53	25159.30
506.73	25194.11
506.94	25353.85
507.14	25228.93
507.35	25486.97
507.55	25460.35
507.76	25669.24
507.96	25335.42
508.17	25429.63
508.37	25781.88
508.58	25517.69
508.78	25935.48
508.99	25923.19
509.19	25933.43
509.40	26039.92
509.60	25976.44
509.81	26320.49
510.01	25792.12
510.22	26398.32
510.42	26365.55
510.63	26472.04
510.83	26513.00
511.04	26322.54
511.24	26703.46
511.44	26314.35
511.65	26570.35
511.85	26381.93
512.06	26826.34
512.26	26748.52
512.47	26781.29
512.67	26871.40
512.88	27018.85
513.08	26607.21
513.29	26863.21
513.49	27078.24
513.69	27192.93
513.90	27303.52
514.10	27219.55
514.31	27194.98
514.51	27262.56
514.72	27176.55
514.92	27313.76
515.13	27735.64
515.33	27405.92
515.53	27510.36
515.74	27514.46
515.94	27962.97
516.15	27825.75
516.35	27580.00
516.56	27983.44
516.76	27670.11
516.96	27723.35
517.17	28247.63
517.37	28022.36
517.58	28079.70
517.78	28313.17
517.99	28202.58
518.19	28886.60
518.39	28122.71
518.60	28591.69
518.80	28468.81
519.01	28587.60
519.21	28331.60
519.41	28749.39
519.62	28608.08
519.82	29009.48
520.03	29230.66
520.23	29257.28
520.43	28665.42
520.64	29345.34
520.84	29421.12
521.05	29320.77
521.25	29263.43
521.45	29290.05
521.66	29654.59
521.86	29544.00
522.07	29978.17
522.27	29701.69
522.47	29777.47
522.68	29984.31
522.88	29744.70
523.08	30281.27
523.29	30078.52
523.49	30418.48
523.70	30549.55
523.90	30230.07
524.10	30244.40
524.31	30275.12
524.51	30414.38
524.71	30897.70
524.92	30826.03
525.12	30864.94
525.33	31135.27
525.53	31057.45
525.73	31223.33
525.94	31077.93
526.14	31008.29
526.34	31358.50
526.55	31350.31
526.75	31385.12
526.95	31581.73
527.16	31372.83
527.36	31577.63
527.56	31972.89
527.77	32087.57
527.97	31987.22
528.17	31850.01
528.38	32257.56
528.58	31964.70
528.78	32536.08
528.99	32415.25
529.19	32562.70
529.39	32069.14
529.60	32730.64
529.80	32812.56
530.00	32568.85
530.21	32742.92
530.41	32900.62
530.61	32562.70
530.82	33048.07
531.02	32986.63
531.22	33230.34
531.43	33424.90
531.63	33506.82
531.83	33582.59
532.04	33814.01
532.24	33644.03
532.44	34418.16
532.64	34113.02
532.85	33889.79
533.05	34209.27
533.25	34270.71
533.46	34283.00
533.66	34616.82
533.86	34317.81
534.07	34768.37
534.27	34450.93
534.47	35188.20
534.67	35067.37
534.88	34729.45
535.08	34618.86
535.28	35436.00
535.49	35016.17
535.69	35493.35
535.89	35741.15
536.09	35538.40
536.30	36074.97
536.50	35878.36
536.70	35816.93
536.91	35720.67
537.11	35921.37
537.31	36144.60
537.51	36320.73
537.72	36472.28
537.92	36371.92
538.12	36517.33
538.32	36758.99
538.53	36537.81
538.73	36339.16
538.93	36234.71
539.13	36503.00
539.34	36650.45
539.54	36947.40
539.74	37174.73
539.94	37060.04
540.15	36814.29
540.35	37451.20
540.55	37266.89
540.75	37563.84
540.96	37461.44
541.16	37479.88
541.36	37727.68
541.56	37447.11
541.77	38092.22
541.97	37780.93
542.17	37805.50
542.37	37889.47
542.58	37977.53
542.78	38000.06
542.98	38071.74
543.18	38110.65
543.38	38690.23
543.59	38745.52
543.79	38364.60
543.99	38540.72
544.19	38589.88
544.40	38254.01
544.60	38813.10
544.80	38802.86
545.00	38815.15
545.20	38802.86
545.41	38657.46
545.61	39214.51
545.81	39671.20
546.01	39298.47
546.21	39232.94
546.42	38983.09
546.62	39351.72
546.82	39400.87
547.02	39347.62
547.22	39769.51
547.43	39658.91
547.63	39726.50
547.83	39886.24
548.03	39558.56
548.23	39957.92
548.44	39884.19
548.64	40240.54
548.84	40183.19
549.04	40336.79
549.24	40064.41
549.45	40132.00
549.65	40299.93
549.85	40691.09
550.05	40746.39
550.25	40172.96
550.45	41014.67
550.66	40506.77
550.86	40373.66
551.06	40789.39
551.26	40770.96
551.46	40981.90
551.66	40732.05
551.87	40906.13
552.07	41024.91
552.27	40832.40
552.47	41643.40
552.67	40871.31
552.87	41301.39
553.07	41166.22
553.28	41428.36
553.48	41399.69
553.68	41065.87
553.88	41833.86
554.08	41309.58
554.28	41295.24
554.48	40965.52
554.69	42030.46
554.89	41657.73
555.09	41909.63
555.29	41758.08
555.49	41657.73
555.69	41854.34
555.89	42212.73
556.10	42034.56
556.30	41887.10
556.50	41975.17
556.70	41686.40
556.90	42147.20
557.10	42331.51
557.30	42036.61
557.50	42380.67
557.70	42132.86
557.91	42247.55
558.11	42194.30
558.31	42788.21
558.51	41903.49
558.71	42259.84
558.91	42653.05
559.11	42661.24
559.31	42773.88
559.51	42411.38
559.72	42511.74
559.92	42982.77
560.12	42460.54
560.32	42689.91
560.52	42825.07
560.72	42710.39
560.92	43267.44
561.12	42982.77
561.32	42945.90
561.52	42712.44
561.72	43173.23
561.93	42958.19
562.13	43064.69
562.33	42775.92
562.53	43402.60
562.73	42939.76
562.93	43298.16
563.13	43416.94
563.33	43179.37
563.53	43509.10
563.73	43380.07
563.93	43335.02
564.13	43988.32
564.33	43498.86
564.53	43832.68
564.74	43973.98
564.94	43693.41
565.14	43685.22
565.34	43345.26
565.54	43851.11
565.74	43961.70
565.94	44375.39
566.14	43812.20
566.34	44070.24
566.54	44121.44
566.74	43693.41
566.94	44006.75
567.14	44391.77
567.34	44021.09
567.54	44451.16
567.74	44256.60
567.94	43957.60
568.14	44440.92
568.34	44311.90
568.54	44166.49
568.74	44696.92
568.94	44488.03
569.14	44977.49
569.34	44381.53
569.54	44305.76
569.75	44184.93
569.95	44735.83
570.15	45034.83
570.35	44864.85
570.55	44959.06
570.75	44873.04
570.95	44717.40
571.15	44991.83
571.35	44475.74
571.55	45264.21
571.75	45120.85
571.95	44758.36
572.15	45124.94
572.35	45075.79
572.55	45139.28
572.75	45081.94
572.95	44873.04
573.15	45544.78
573.35	45292.88
573.55	45110.61
573.75	45086.03
573.95	45702.47
574.15	45163.85
574.35	45546.82
574.55	45776.20
574.75	45114.70
574.95	45602.12
575.15	45794.63
575.34	45595.98
575.54	46241.09
575.74	45958.47
575.94	46077.25
576.14	46241.09
576.34	46339.39
576.54	46419.26
576.74	46357.82
576.94	46269.76
577.14	46396.73
577.34	46826.81
577.54	46196.03
577.74	46363.96
577.94	46167.36
578.14	46234.94
578.34	46871.86
578.54	45860.16
578.74	46617.91
578.94	46839.09
579.14	46232.89
579.34	46716.22
579.54	46523.71
579.74	47174.96
579.94	47138.10
580.13	47328.56
580.33	47162.67
580.53	46878.00
580.73	47281.45
580.93	47449.39
581.13	47007.03
581.33	47174.96
581.53	47441.20
581.73	47064.37
581.93	47484.20
582.13	47658.28
582.33	47711.53
582.53	47877.41
582.73	47988.00
582.92	47611.18
583.12	47930.66
583.32	48260.38
583.52	47815.97
583.72	47766.82
583.92	48129.31
584.12	47736.10
584.32	48764.18
584.52	48528.67
584.72	48282.91
584.92	48182.56
585.11	48895.25
585.31	48227.62
585.51	48403.74
585.71	48373.02
585.91	48731.42
586.11	48694.55
586.31	48446.75
586.51	48770.33
586.71	48495.90
586.91	49116.43
587.10	49059.09
587.30	48862.49
587.50	49337.62
587.70	49286.42
587.90	48618.78
588.10	48954.64
588.30	49315.09
588.50	49337.62
588.69	49075.48
588.89	49020.18
589.09	49493.26
589.29	49132.82
589.49	49843.46
589.69	49161.49
589.89	49421.58
590.08	49671.43
590.28	49354.00
590.48	49569.04
590.68	49419.53
590.88	49487.12
591.08	49806.60
591.28	49394.96
591.47	49691.91
591.67	49851.66
591.87	50091.27
592.07	49874.18
592.27	49947.91
592.47	50160.90
592.67	49837.32
592.86	49716.49
593.06	50257.15
593.26	50373.89
593.46	50257.15
593.66	50470.14
593.86	50545.92
594.05	50394.37
594.25	50834.68
594.45	50208.00
594.65	49919.24
594.85	50185.47
595.05	50545.92
595.24	50660.60
595.44	50511.10
595.64	50650.36
595.84	50894.07
596.04	50777.34
596.23	50873.59
596.43	51178.74
596.63	50926.84
596.83	50900.22
597.03	51428.59
597.22	51399.92
597.42	51057.91
597.62	51395.82
597.82	51258.61
598.02	51424.50
598.21	51475.69
598.41	50763.00
598.61	51873.00
598.81	51526.89
599.01	51944.68
599.20	51651.82
599.40	51606.76
599.60	52032.74
599.80	51868.90
600.00	51711.21
600.19	51942.63
600.39	51987.69
600.59	52147.43
600.79	52059.37
600.98	52255.97
601.18	52280.55
601.38	52440.29
601.58	52581.60
601.78	52366.56
601.97	52389.09
602.17	53034.20
602.37	52462.82
602.57	52274.40
602.76	52907.22
602.96	52143.33
603.16	53058.77
603.36	52735.20
603.55	53212.37
603.75	53124.31
603.95	53050.58
604.15	52884.70
604.34	53114.07
604.54	53130.45
604.74	52899.03
604.94	53351.63
605.13	53296.34
605.33	53523.66
605.53	53073.11
605.73	53683.40
605.92	53486.80
606.12	53687.50
606.32	53572.81
606.52	53591.25
606.71	53609.68
606.91	54072.52
607.11	53429.46
607.30	53562.57
607.50	53945.54
607.70	53904.59
607.90	53671.12
608.09	53689.55
608.29	53804.24
608.49	54232.26
608.68	53615.82
608.88	54369.47
609.08	54140.10
609.28	54426.82
609.47	53929.16
609.67	54588.61
609.87	54006.98
610.06	54525.12
610.26	54019.27
610.46	54482.11
610.66	54080.71
610.85	54371.52
611.05	54281.41
611.25	54625.47
611.44	54187.21
611.64	54279.36
611.84	54564.03
612.03	53726.41
612.23	54643.90
612.43	54615.23
612.62	54330.56
612.82	54629.57
613.02	54666.43
613.21	54990.01
613.41	54222.02
613.61	55022.78
613.80	53765.32
614.00	54410.43
614.20	54852.80
614.39	54506.69
614.59	54729.92
614.79	54695.10
614.98	54707.39
615.18	54940.86
615.38	54748.35
615.57	54844.60
615.77	54809.79
615.97	54969.53
616.16	54445.25
616.36	54457.54
616.56	55223.48
616.75	54867.13
616.95	55002.30
617.15	55250.10
617.34	55030.97
617.54	54678.72
617.74	54750.40
617.93	54754.49
618.13	54783.16
618.32	55049.40
618.52	54478.02
618.72	55041.21
618.91	54480.06
619.11	54736.06
619.31	54797.50
619.50	54987.96
619.70	54549.70
619.90	55039.16
620.09	54918.33
620.29	54838.46
620.48	54744.25
620.68	55055.54
620.88	54441.15
621.07	55067.83
621.27	54400.19
621.46	54598.85
621.66	54654.14
621.86	54975.67
622.05	54564.03
622.25	55125.17
622.44	54830.27
622.64	54742.20
622.84	55059.64
623.03	54408.39
623.23	55096.50
623.42	54355.14
623.62	55051.45
623.82	55063.74
624.01	54858.94
624.21	54867.13
624.40	54666.43
624.60	54992.06
624.80	54703.29
624.99	55112.89
625.19	54385.86
625.38	54922.43
625.58	54584.51
625.77	55024.82
625.97	55002.30
626.17	54377.67
626.36	55497.91
626.56	55686.32
626.75	54727.87
626.95	55030.97
627.14	54447.30
627.34	55223.48
627.54	55133.37
627.73	54803.64
627.93	54987.96
628.12	54441.15
628.32	54836.41
628.51	54766.78
628.71	54963.39
628.90	54885.56
629.10	54760.64
629.30	54934.71
629.49	54877.37
629.69	54541.50
629.88	54762.68
630.08	55399.60
630.27	55317.68
630.47	55014.58
630.66	54699.20
630.86	55446.71
631.05	54783.16
631.25	55411.89
631.44	55123.13
631.64	55207.09
631.84	55205.05
632.03	55391.41
632.23	54908.09
632.42	55061.69
632.62	55047.35
632.81	54752.44
633.01	55502.00
633.20	55114.94
633.40	55133.37
633.59	55311.54
633.79	54666.43
633.98	54916.28
634.18	54865.08
634.37	55059.64
634.57	54787.26
634.76	55727.28
634.96	55254.20
635.15	55436.47
635.35	55145.65
635.54	54858.94
635.74	55565.49
635.93	54656.19
636.13	55342.26
636.32	55391.41
636.52	55338.16
636.71	55272.63
636.91	55620.78
637.10	55395.51
637.30	55565.49
637.49	55166.13
637.69	55596.21
637.88	55596.21
638.08	55073.98
638.27	55717.04
638.46	55309.49
638.66	54973.63
638.85	55442.61
639.05	55170.23
639.24	55063.74
639.44	55391.41
639.63	55141.56
639.83	55332.02
640.02	55588.02
640.22	55477.43
640.41	55844.01
640.61	54899.90
640.80	55839.92
640.99	55106.74
641.19	56028.33
641.38	55678.13
641.58	55604.40
641.77	55581.87
641.97	55338.16
642.16	55880.88
642.36	55702.70
642.55	55958.70
642.74	55393.46
642.94	56472.74
643.13	55596.21
643.33	56327.33
643.52	56038.57
643.72	55837.87
643.91	55682.22
644.10	55823.53
644.30	56091.82
644.49	55747.76
644.69	56196.26
644.88	56038.57
645.08	55329.97
645.27	55975.08
645.46	55680.17
645.66	56071.34
645.85	55825.58
646.05	56009.90
646.24	56030.38
646.43	56140.97
646.63	56591.52
646.82	56353.96
647.02	55981.23
647.21	56147.11
647.40	56132.78
647.60	55962.79
647.79	56310.95
647.99	56374.44
648.18	56104.10
648.37	56607.90
648.57	56390.82
648.76	56057.00
648.96	55927.98
649.15	56859.80
649.34	56550.56
649.54	56587.42
649.73	56202.41
649.92	56278.18
650.12	56448.16
650.31	56489.12
650.51	56364.20
650.70	56845.47
650.89	56155.30
651.09	57148.57
651.28	56540.32
651.47	56546.47
651.67	56618.14
651.86	57021.59
652.06	55942.31
652.25	55893.16
652.44	56480.93
652.64	56112.30
652.83	56153.26
653.02	56612.00
653.22	56786.08
653.41	56310.95
653.60	56392.87
653.80	56595.62
653.99	56530.08
654.18	56892.57
654.38	56566.94
654.57	56638.62
654.76	56755.36
654.96	56511.65
655.15	56554.66
655.34	56812.70
655.54	56304.80
655.73	56972.44
655.92	56685.73
656.12	56515.75
656.31	56456.35
656.50	56186.02
656.70	57271.45
656.89	56573.09
657.08	56931.48
657.28	56644.77
657.47	56794.27
657.66	57480.34
657.86	56687.78
658.05	57156.76
658.24	56872.09
658.43	56489.12
658.63	56796.32
658.82	56626.34
659.01	57119.90
659.21	57142.42
659.40	57076.89
659.59	56306.85
659.79	56968.35
659.98	57351.32
660.17	56978.59
660.36	56886.43
660.56	56863.90
660.75	57046.17
660.94	57324.69
661.14	56747.17
661.33	56898.72
661.52	56149.16
661.71	57029.79
661.91	56267.94
662.10	56784.03
662.29	56925.34
662.49	57023.64
662.68	56964.25
662.87	57263.25
663.06	56892.57
663.26	57117.85
663.45	57558.16
663.64	57513.11
663.83	57492.63
664.03	57357.46
664.22	57377.94
664.41	57242.77
664.60	56890.52
664.80	57271.45
664.99	57072.79
665.18	57181.34
665.37	57033.88
665.57	57394.32
665.76	57023.64
665.95	56976.54
666.14	57201.82
666.34	57031.83
666.53	57126.04
666.72	56761.50
666.91	56622.24
667.11	57050.27
667.30	57013.40
667.49	56706.21
667.68	56872.09
667.87	56947.87
668.07	57361.56
668.26	57246.87
668.45	57269.40
668.64	57058.46
668.84	57050.27
669.03	57267.35
669.22	57005.21
669.41	57509.01
669.60	57068.70
669.80	56951.96
669.99	57250.97
670.18	57056.41
670.37	56925.34
670.57	57439.38
670.76	56931.48
670.95	57267.35
671.14	57076.89
671.33	57035.93
671.53	57496.72
671.72	57322.65
671.91	57269.40
672.10	57226.39
672.29	56974.49
672.48	56784.03
672.68	57496.72
672.87	57109.66
673.06	57099.42
673.25	56636.58
673.44	56614.05
673.64	56847.52
673.83	56544.42
674.02	56607.90
674.21	56665.25
674.40	57341.08
674.59	57197.72
674.79	56118.44
674.98	56433.83
675.17	56657.06
675.36	56614.05
675.55	56571.04
675.74	56538.27
675.94	56138.92
676.13	56868.00
676.32	57398.42
676.51	57087.13
676.70	57025.69
676.89	56476.83
677.08	57007.26
677.28	57060.51
677.47	57226.39
677.66	57250.97
677.85	57191.58
678.04	56939.68
678.23	57246.87
678.42	57093.27
678.62	57019.55
678.81	56988.83
679.00	56824.99
679.19	56851.61
679.38	56640.67
679.57	57080.98
679.76	56411.30
679.96	56947.87
680.15	56677.54
680.34	56474.79
680.53	56956.06
680.72	56894.62
680.91	56982.68
681.10	56704.16
681.29	56771.74
681.48	56652.96
681.68	56558.75
681.87	56728.73
682.06	56591.52
682.25	56437.92
682.44	56458.40
682.63	56607.90
682.82	55633.07
683.01	56550.56
683.20	56097.96
683.39	56763.55
683.59	56323.24
683.78	56728.73
683.97	56198.31
684.16	55932.07
684.35	55813.29
684.54	56399.01
684.73	56157.35
684.92	56194.21
685.11	56231.08
685.30	56007.85
685.49	56792.22
685.69	56018.09
685.88	56370.34
686.07	55917.74
686.26	56134.82
686.45	56052.90
686.64	56153.26
686.83	55737.52
687.02	56437.92
687.21	56335.52
687.40	56468.64
687.59	56323.24
687.78	56083.62
687.97	56292.52
688.16	55968.94
688.35	56091.82
688.54	55850.16
688.74	56116.39
688.93	55874.73
689.12	55858.35
689.31	55968.94
689.50	56028.33
689.69	55692.46
689.88	55444.66
690.07	55887.02
690.26	55415.99
690.45	56011.95
690.64	55555.25
690.83	55452.85
691.02	55352.50
691.21	55583.92
691.40	55493.81
691.59	55835.82
691.78	55514.29
691.97	55608.50
692.16	55524.53
692.35	55975.08
692.54	55506.10
692.73	55397.55
692.92	55315.64
693.11	55559.34
693.30	55354.55
693.49	55966.89
693.68	55282.87
693.87	55493.81
694.06	55329.97
694.25	55344.31
694.44	54895.80
694.63	55192.76
694.82	55413.94
695.01	55104.70
695.20	54826.17
695.39	55094.46
695.58	54807.74
695.77	54795.45
695.96	54686.91
696.15	55401.65
696.34	54908.09
696.53	55106.74
696.72	55172.28
696.91	54711.49
697.10	55262.39
697.29	54502.59
697.48	55205.05
697.67	54832.32
697.86	54854.84
698.05	54803.64
698.24	54592.70
698.43	54594.75
698.62	54994.10
698.81	54523.07
699.00	54969.53
699.19	54183.11
699.38	54613.18
699.57	54572.22
699.76	54955.19
699.95	54467.78
700.14	54508.74
700.32	54596.80
700.51	54265.03
700.70	55110.84
700.89	54969.53
701.08	54445.25
701.27	54336.71
701.46	54795.45
701.65	54039.75
701.84	54248.64
702.03	54353.09
702.22	54164.68
702.41	54265.03
702.60	54242.50
702.79	54400.19
702.98	53562.57
703.17	53765.32
703.35	54228.16
703.54	53724.36
703.73	54361.28
703.92	53581.01
704.11	53630.16
704.30	53521.62
704.49	53945.54
704.68	53724.36
704.87	53642.45
705.06	53451.98
705.25	53902.54
705.43	53390.55
705.62	53069.01
705.81	54039.75
706.00	53640.40
706.19	52942.04
706.38	53331.15
706.57	53587.15
706.76	53144.79
706.95	53624.01
707.14	53462.22
707.32	53472.46
707.51	52978.90
707.70	53490.90
707.89	53509.33
708.08	53077.21
708.27	53368.02
708.46	53359.83
708.65	52989.14
708.84	53464.27
709.02	53683.40
709.21	53507.28
709.40	52960.47
709.59	52524.25
709.78	52905.18
709.97	53331.15
710.16	52258.02
710.34	53161.17
710.53	53298.39
710.72	52624.60
710.91	53091.54
711.10	53347.54
711.29	52643.04
711.48	53062.87
711.66	52991.19
711.85	52491.49
712.04	52643.04
712.23	52729.05
712.42	52514.01
712.61	52718.81
712.80	52235.49
712.98	52505.82
713.17	52444.38
713.36	52270.31
713.55	52155.62
713.74	52409.57
713.93	52194.53
714.11	52456.67
714.30	52182.24
714.49	52225.25
714.68	52485.34
714.87	52364.51
715.06	52589.79
715.24	52047.08
715.43	51762.41
715.62	51868.90
715.81	51983.59
716.00	52098.28
716.18	52131.04
716.37	51674.35
716.56	51512.56
716.75	51924.20
716.94	51754.22
717.12	51449.07
717.31	52233.44
717.50	51891.43
717.69	51930.34
717.88	51293.43
718.06	51987.69
718.25	51983.59
718.44	51426.54
718.63	51361.01
718.82	51158.26
719.00	51000.57
719.19	50900.22
719.38	50879.74
719.57	50738.43
719.76	50830.58
719.94	50724.09
720.13	50597.12
720.32	51049.72
720.51	50730.23
720.69	50756.86
720.88	50865.40
721.07	51107.06
721.26	50126.08
721.44	50361.60
721.63	49915.14
721.82	50156.80
722.01	50470.14
722.20	50296.06
722.38	50392.32
722.57	49726.73
722.76	50015.49
722.95	50040.07
723.13	49648.91
723.32	49659.15
723.51	49239.31
723.70	49599.76
723.88	49808.65
724.07	49440.01
724.26	50253.06
724.44	48940.31
724.63	49472.78
724.82	49997.06
725.01	49251.60
725.19	50103.56
725.38	49569.04
725.57	49163.54
725.76	49509.64
725.94	49274.13
726.13	49147.15
726.32	49347.86
726.51	48950.55
726.69	49458.45
726.88	48999.70
727.07	49278.22
727.25	48911.64
727.44	49161.49
727.63	48952.60
727.82	49261.84
728.00	48891.16
728.19	48985.36
728.38	49489.16
728.56	48653.59
728.75	49167.63
728.94	49042.71
729.12	49011.99
729.31	48604.44
729.50	48805.14
729.69	49603.85
729.87	48956.69
730.06	48614.68
730.25	48772.38
730.43	48889.11
730.62	48635.16
730.81	49108.24
730.99	49407.25
731.18	49020.18
731.37	49231.12
731.55	48911.64
731.74	49327.38
731.93	49069.33
732.11	48512.28
732.30	49110.29
732.49	48500.00
732.67	48813.34
732.86	48418.08
733.05	48829.72
733.23	48764.18
733.42	48764.18
733.61	48854.29
733.79	48891.16
733.98	49290.51
734.17	48463.13
734.35	48725.27
734.54	48483.61
734.73	49210.64
734.91	48813.34
735.10	48360.73
735.29	49136.91
735.47	48217.38
735.66	48313.63
735.84	48041.25
736.03	48057.63
736.22	48676.12
736.40	48344.35
736.59	48411.93
736.78	48229.66
736.96	48260.38
737.15	48413.98
737.33	48293.15
737.52	48053.54
737.71	48196.90
737.89	48301.34
738.08	47983.91
738.27	48157.99
738.45	48373.02
738.64	48518.43
738.82	48667.93
739.01	48014.63
739.20	48061.73
739.38	48254.24
739.57	48399.65
739.75	48256.29
739.94	48176.42
740.13	47891.75
740.31	47801.64
740.50	47863.08
740.68	48080.16
740.87	47852.84
741.06	48207.14
741.24	47887.65
741.43	47785.25
741.61	47990.05
741.80	47568.17
741.99	47289.65
742.17	47992.10
742.36	47715.62
742.54	47209.78
742.73	47600.94
742.91	47455.53
743.10	47318.32
743.29	47729.96
743.47	47758.63
743.66	47367.47
743.84	47695.14
744.03	47527.21
744.21	47521.07
744.40	47414.57
744.59	47363.37
744.77	47043.89
744.96	47140.14
745.14	47039.79
745.33	47594.79
745.51	47023.41
745.70	47338.80
745.88	47134.00
746.07	47015.22
746.26	47101.23
746.44	46912.82
746.63	46824.76
746.81	46953.78
747.00	46728.50
747.18	47115.57
747.37	47162.67
747.55	46871.86
747.74	47332.65
747.92	46486.84
748.11	47207.73
748.29	46679.35
748.48	47007.03
748.66	46335.29
748.85	46718.26
749.03	46535.99
749.22	46490.94
749.41	46556.47
749.59	46382.40
749.78	46040.39
749.96	46359.87
750.15	46529.85
750.33	46466.36
750.52	45845.83
750.70	46398.78
750.89	45919.56
751.07	45671.75
751.26	46169.41
751.44	45991.23
751.63	45782.34
751.81	45731.14
752.00	45776.20
752.18	45933.89
752.37	45604.17
752.55	45679.94
752.74	45569.35
752.92	45714.76
753.10	45579.59
753.29	45696.33
753.47	45413.71
753.66	45356.36
753.84	45815.11
754.03	45454.67
754.21	45569.35
754.40	45487.43
754.58	45397.32
754.77	45518.15
754.95	45389.13
755.14	45194.57
755.32	45278.54
755.51	44868.95
755.69	45139.28
755.88	45063.50
756.06	45301.07
756.24	45231.44
756.43	44535.13
756.61	45303.12
756.80	45122.90
756.98	44754.26
757.17	45237.58
757.35	45106.51
757.54	44885.33
757.72	45137.23
757.90	44797.27
758.09	44791.12
758.27	44662.10
758.46	44485.98
758.64	44393.82
758.83	44764.50
759.01	44735.83
759.19	44512.60
759.38	44666.20
759.56	44606.81
759.75	44879.19
759.93	44729.69
760.12	44428.63
760.30	44619.10
760.48	44643.67
760.67	43904.35
760.85	44516.70
761.04	44445.02
761.22	44373.34
761.40	44215.65
761.59	44397.91
761.77	43804.00
761.96	44019.04
762.14	44066.14
762.32	44021.09
762.51	43986.27
762.69	44033.38
762.88	43881.83
763.06	43902.31
763.24	44121.44
763.43	43582.82
763.61	43642.21
763.80	43826.53
763.98	43613.54
764.16	43801.96
764.35	43416.94
764.53	43472.23
764.72	43162.99
764.90	43271.53
765.08	43623.78
765.27	43418.99
765.45	43052.40
765.63	42734.96
765.82	43507.05
766.00	42956.14
766.18	43107.69
766.37	43279.72
766.55	42583.41
766.74	43097.45
766.92	43070.83
767.10	42980.72
767.29	42911.09
767.47	42659.19
767.65	42722.68
767.84	42747.25
768.02	42718.58
768.20	42401.14
768.39	42642.81
768.57	42759.54
768.75	42513.78
768.94	42466.68
769.12	42061.18
769.30	42478.97
769.49	42462.58
769.67	42161.53
769.85	41901.44
770.04	41997.70
770.22	41723.27
770.40	42139.00
770.59	41858.43
770.77	42096.00
770.95	42255.74
771.14	41692.55
771.32	41604.49
771.50	41264.52
771.69	41457.03
771.87	41899.39
772.05	41661.83
772.24	41205.13
772.42	41721.22
772.60	41878.91
772.78	41366.92
772.97	40893.84
773.15	41485.70
773.33	41149.84
773.52	41239.95
773.70	41260.43
773.88	41250.19
774.07	41342.35
774.25	40983.95
774.43	41334.15
774.61	41227.66
774.80	41573.77
774.98	41452.94
775.16	41493.89
775.34	41272.71
775.53	40801.68
775.71	41555.33
775.89	41477.51
776.08	41682.31
776.26	41768.32
776.44	41411.98
776.62	41334.15
776.81	40928.66
776.99	41684.36
777.17	41411.98
777.35	41328.01
777.54	41700.74
777.72	41297.29
777.90	41182.60
778.08	41551.24
778.27	41538.95
778.45	41930.11
778.63	42136.96
778.81	41563.53
779.00	41909.63
779.18	41450.89
779.36	41889.15
779.54	41934.21
779.73	41442.70
779.91	41862.53
780.09	41995.65
780.27	41911.68
780.46	41956.74
780.64	42065.28
780.82	42081.66
781.00	41604.49
781.19	41870.72
781.37	42126.72
781.55	42038.65
781.73	42423.67
781.91	41901.44
782.10	42251.64
782.28	42218.88
782.46	42214.78
782.64	41932.16
782.82	42120.57
783.01	42255.74
783.19	42456.44
783.37	42540.41
783.55	42157.44
783.74	42507.64
783.92	41672.07
784.10	42644.85
784.28	42349.95
784.46	42280.31
784.64	41485.70
784.83	41866.63
785.01	42720.63
785.19	42333.56
785.37	42302.84
785.55	42526.07
785.74	41651.59
785.92	42200.44
786.10	41821.57
786.28	42055.04
786.46	42044.80
786.64	41411.98
786.83	41880.96
787.01	41905.54
787.19	41680.26
787.37	42038.65
787.55	41541.00
787.74	41710.98
787.92	41635.20
788.10	41729.41
788.28	41598.34
788.46	41661.83
788.64	41196.94
788.82	41936.26
789.01	41516.42
789.19	42077.57
789.37	41813.38
789.55	41153.93
789.73	41158.03
789.91	41342.35
790.09	41317.77
790.28	40863.12
790.46	41180.56
790.64	41145.74
790.82	41016.72
791.00	40672.66
791.18	40687.00
791.36	40574.36
791.55	40865.17
791.73	40465.81
791.91	40396.18
792.09	40168.86
792.27	40287.64
792.45	40502.68
792.63	40240.54
792.81	39568.80
793.00	40052.12
793.18	40269.21
793.36	40002.97
793.54	39966.11
793.72	39927.20
793.90	39245.23
794.08	39665.06
794.26	39857.57
794.44	39011.76
794.62	39357.86
794.81	39595.43
794.99	39411.11
795.17	39304.62
795.35	39165.35
795.53	39140.78
795.71	39179.69
795.89	38829.49
796.07	38514.10
796.25	38286.78
796.43	38495.67
796.61	38694.32
796.80	38401.46
796.98	38522.29
797.16	38421.94
797.34	38137.27
797.52	37821.89
797.70	38671.79
797.88	38038.97
798.06	37805.50
798.24	37979.58
798.42	37897.66
798.60	38102.46
798.78	37582.27
798.96	37582.27
799.14	37342.66
799.32	36978.12
799.51	37357.00
799.69	37176.78
799.87	37074.38
800.05	36937.16
800.23	36945.36
800.41	36615.63
800.59	37098.95
800.77	36935.12
800.95	36347.35
801.13	36845.01
801.31	36206.04
801.49	36726.22
801.67	36443.60
801.85	36179.42
802.03	36296.15
802.21	36099.55
802.39	36138.46
802.57	35612.13
802.75	35853.79
802.93	35894.75
803.11	35474.91
803.29	35194.34
803.47	35624.42
803.65	35667.42
803.83	35259.88
804.01	35360.23
804.19	35313.13
804.37	35100.14
804.55	35259.88
804.73	35050.99
804.91	35214.82
805.09	35169.77
805.27	34833.90
805.45	35122.66
805.63	34813.42
805.81	34964.97
805.99	34788.85
806.17	34506.23
806.35	34784.75
806.53	34336.24
806.71	34219.51
806.89	34422.26
807.07	34258.42
807.25	34074.10
807.43	34268.66
807.61	34391.54
807.79	34067.96
807.97	33742.33
808.15	33820.16
808.33	33644.03
808.51	33656.32
808.69	33472.00
808.87	33541.63
809.05	33523.20
809.23	32933.39
809.41	33201.67
809.59	33138.18
809.77	33492.48
809.95	33082.89
810.13	33312.26
810.31	32980.49
810.49	32869.90
810.67	33224.20
810.84	33099.27
811.02	33058.31
811.20	32415.25
811.38	32773.64
811.56	32339.47
811.74	32636.43
811.92	32431.63
812.10	32552.46
812.28	32865.80
812.46	32226.84
812.64	32593.42
812.82	32368.15
813.00	32347.67
813.18	32275.99
813.36	31958.55
813.53	32052.76
813.71	31735.32
813.89	31489.57
814.07	32050.71
814.25	32044.57
814.43	31960.60
814.61	31561.25
814.79	31397.41
814.97	31503.90
815.15	31311.39
815.33	31368.74
815.50	31282.72
815.68	31272.48
815.86	31456.80
816.04	30975.53
816.22	31106.60
816.40	31106.60
816.58	30864.94
816.76	30914.09
816.94	30719.53
817.11	30787.11
817.29	30766.63
817.47	30699.05
817.65	30594.61
817.83	30531.12
818.01	30498.35
818.19	30662.19
818.37	30701.10
818.54	30449.20
818.72	30211.64
818.90	30404.14
819.08	30504.49
819.26	30285.36
819.44	30144.05
819.62	30279.22
819.80	30101.04
819.97	29933.11
820.15	29857.34
820.33	29797.95
820.51	29929.02
820.69	29613.63
820.87	30043.70
821.05	29806.14
821.22	29513.28
821.40	29736.51
821.58	29396.54
821.76	29341.25
821.94	29474.37
822.12	29777.47
822.29	29345.34
822.47	29404.74
822.65	29705.79
822.83	29851.19
823.01	29294.14
823.19	28999.24
823.36	29027.91
823.54	28898.89
823.72	28714.57
823.90	29212.23
824.08	28714.57
824.25	29040.20
824.43	28393.04
824.61	28821.06
824.79	28755.53
824.97	28765.77
825.15	29019.72
825.32	28552.78
825.50	28255.82
825.68	28317.26
825.86	28872.26
826.04	28757.58
826.21	28487.25
826.39	28315.22
826.57	28051.03
826.75	28159.57
826.93	28053.08
827.10	28005.97
827.28	28198.48
827.46	28272.21
827.64	27989.59
827.81	27813.46
827.99	28137.04
828.17	27881.05
828.35	27928.15
828.53	27940.44
828.70	27788.89
828.88	27905.62
829.06	28143.19
829.24	27899.48
829.41	27752.02
829.59	27782.74
829.77	27756.12
829.95	27758.17
830.12	27694.68
830.30	27504.22
830.48	27285.09
830.66	27299.42
830.84	27668.06
831.01	27362.91
831.19	27483.74
831.37	27530.84
831.55	27346.53
831.72	27508.32
831.90	27217.50
832.08	27348.57
832.25	27164.26
832.43	27020.90
832.61	27043.43
832.79	26924.65
832.96	26795.62
833.14	27086.43
833.32	27123.30
833.50	27125.35
833.67	26848.87
833.85	26973.80
834.03	26371.69
834.20	26754.66
834.38	26515.05
834.56	26809.96
834.74	26521.20
834.91	26893.93
835.09	26338.93
835.27	26101.36
835.44	26564.20
835.62	25980.53
835.80	26340.97
835.98	26359.41
836.15	26254.96
836.33	26099.31
836.51	26629.74
836.68	26314.35
836.86	26048.11
837.04	26074.74
837.21	25964.15
837.39	25953.91
837.57	26603.11
837.75	26302.06
837.92	26013.30
838.10	25851.51
838.28	25755.26
838.45	25808.50
838.63	25624.18
838.81	25949.81
838.98	25790.07
839.16	25468.54
839.34	25810.55
839.51	25683.58
839.69	25382.52
839.87	25474.68
840.04	25493.12
840.22	25388.67
840.40	25392.76
840.57	25173.63
840.75	25271.93
840.93	25306.75
841.10	25570.94
841.28	25304.70
841.46	25294.46
841.63	25314.94
841.81	25058.95
841.98	25302.65
842.16	25400.96
842.34	25306.75
842.51	25065.09
842.69	25171.58
842.87	24999.55
843.04	25065.09
843.22	24886.92
843.40	24852.10
843.57	24858.24
843.75	24841.86
843.92	24761.99
844.10	24854.15
844.28	24802.95
844.45	25069.19
844.63	25063.04
844.81	24759.94
844.98	24952.45
845.16	24481.42
845.33	24798.85
845.51	24346.25
845.69	24370.83
845.86	24145.55
846.04	24417.93
846.21	24639.11
846.39	24452.75
846.57	24282.77
846.74	24505.99
846.92	24274.57
847.09	24125.07
847.27	24022.67
847.45	24170.13
847.62	24331.92
847.80	24319.63
847.97	24508.04
848.15	24264.33
848.32	23914.13
848.50	23957.14
848.68	23936.66
848.85	23971.47
849.03	23578.26
849.20	23774.87
849.38	23565.98
849.56	24012.43
849.73	23520.92
849.91	23799.44
850.08	24145.55
850.26	23580.31
850.43	23889.56
850.61	23875.22
850.78	23377.56
850.96	23529.11
851.14	23381.66
851.31	23709.33
851.49	23559.83
851.66	23426.71
851.84	23348.89
852.01	23387.80
852.19	23234.21
852.36	23348.89
852.54	23103.14
852.71	23289.50
852.89	23125.66
853.07	23316.12
853.24	23248.54
853.42	23545.50
853.59	23207.58
853.77	23520.92
853.94	23420.57
854.12	23160.48
854.29	22914.72
854.47	23121.57
854.64	22812.32
854.82	22722.21
854.99	22955.68
855.17	22632.10
855.34	22634.15
855.52	22953.63
855.69	22898.34
855.87	22525.61
856.04	22562.47
856.22	22732.45
856.39	22314.67
856.57	22953.63
856.74	22333.10
856.92	22660.77
857.09	22433.45
857.27	22417.07
857.44	22644.39
857.62	22490.79
857.79	22421.16
857.97	22408.87
858.14	22671.01
858.32	22312.62
858.49	22300.33
858.67	21921.46
858.84	22103.73
859.02	22259.37
859.19	22091.44
859.37	22077.10
859.54	21866.16
859.72	22535.85
859.89	21984.94
860.06	22210.22
860.24	22073.01
860.41	22195.89
860.59	21853.87
860.76	22054.58
860.94	21774.00
861.11	22089.39
861.29	21974.70
861.46	21702.32
861.64	21417.66
861.81	21663.41
861.98	21894.83
862.16	21530.30
862.33	21391.03
862.51	21507.77
862.68	21595.83
862.86	21378.75
863.03	21149.37
863.21	21444.28
863.38	21184.19
863.55	21288.64
863.73	21343.93
863.90	21708.47
864.08	21323.45
864.25	21454.52
864.43	21270.20
864.60	21198.52
864.77	21216.96
864.95	21259.96
865.12	20985.54
865.30	21132.99
865.47	20661.96
865.64	21046.97
865.82	20866.75
865.99	21284.54
866.17	20743.88
866.34	21163.71
866.51	20752.07
866.69	20868.80
866.86	20903.62
867.04	20932.29
867.21	20991.68
867.38	20784.83
867.56	20559.56
867.73	20678.34
867.91	20786.88
868.08	20563.65
868.25	20598.47
868.43	20473.54
868.60	20166.35
868.78	20430.54
868.95	20489.93
869.12	20381.38
869.30	20154.06
869.47	20362.95
869.64	19998.41
869.82	20235.98
869.99	20227.79
870.16	20324.04
870.34	20231.88
870.51	20141.77
870.69	20100.81
870.86	20256.46
871.03	20170.44
871.21	20082.38
871.38	20158.16
871.55	19859.15
871.73	20037.33
871.90	19789.52
872.07	20092.62
872.25	19502.81
872.42	19908.30
872.59	19617.49
872.77	19693.27
872.94	19574.49
873.11	19453.66
873.29	19795.67
873.46	19467.99
873.63	19351.26
873.81	19451.61
873.98	19496.66
874.15	19064.54
874.33	19099.36
874.50	18972.38
874.67	19369.69
874.85	19232.47
875.02	19226.33
875.19	18929.38
875.37	19058.40
875.54	19072.73
875.71	18855.65
875.88	18783.97
876.06	18929.38
876.23	18990.81
876.40	18714.34
876.58	18833.12
876.75	18554.60
876.92	18644.71
877.10	18796.26
877.27	18650.85
877.44	18822.88
877.61	18556.64
877.79	18505.45
877.96	18470.63
878.13	18613.99
878.31	18413.29
878.48	18263.79
878.65	18374.38
878.82	18050.80
879.00	18159.34
879.17	18204.39
879.34	18177.77
879.51	17805.04
879.69	17991.41
879.86	18165.48
880.03	18054.89
880.21	17878.77
880.38	18149.10
880.55	18116.33
880.72	17882.86
880.90	18122.48
881.07	17725.17
881.24	17794.80
881.41	17860.34
881.59	17774.32
881.76	17598.20
881.93	17489.65
882.10	17585.91
882.28	17405.69
882.45	17475.32
882.62	17338.10
882.79	17553.14
882.96	17321.72
883.14	17641.20
883.31	17719.03
883.48	17475.32
883.65	17526.52
883.83	17393.40
884.00	17436.41
884.17	17282.81
884.34	17256.18
884.51	17501.94
884.69	17536.76
884.86	17123.07
885.03	17370.87
885.20	16948.99
885.38	17237.75
885.55	17000.19
885.72	16971.52
885.89	17180.41
886.06	17270.52
886.24	17008.38
886.41	16887.55
886.58	17170.17
886.75	17211.13
886.92	17059.58
887.10	17256.18
887.27	16842.50
887.44	16928.51
887.61	17018.62
887.78	16985.85
887.95	16766.72
888.13	16873.21
888.30	16842.50
888.47	16635.65
888.64	16619.27
888.81	16879.36
888.99	16678.66
889.16	16418.57
889.33	16606.98
889.50	16709.38
889.67	16666.37
889.84	16660.23
890.01	16656.13
890.19	16475.91
890.36	16502.53
890.53	16690.95
890.70	16396.04
890.87	16545.54
891.04	16260.87
891.22	16400.13
891.39	16234.25
891.56	16144.14
891.73	16183.05
891.90	16150.28
892.07	16133.90
892.24	16328.45
892.42	16062.22
892.59	16000.78
892.76	16021.26
892.93	15937.29
893.10	16039.69
893.27	16006.92
893.44	15781.65
893.61	15916.81
893.79	16107.27
893.96	15914.77
894.13	15912.72
894.30	15906.57
894.47	15937.29
894.64	16207.62
894.81	15789.84
894.98	15884.05
895.15	16119.56
895.33	15877.90
895.50	15834.89
895.67	16092.94
895.84	15738.64
896.01	15752.98
896.18	15626.00
896.35	15931.15
896.52	15775.50
896.69	15681.30
896.86	15843.09
897.04	15804.17
897.21	15787.79
897.38	15816.46
897.55	15658.77
897.72	15589.14
897.89	15736.59
898.06	15834.89
898.23	15783.70
898.40	15695.63
898.57	15695.63
898.74	15697.68
898.91	15527.70
899.08	15687.44
899.26	15521.56
899.43	15755.02
899.60	15492.88
899.77	15533.84
899.94	15712.02
900.11	15361.81
900.28	15568.66
900.45	15539.99
900.62	15413.01
900.79	15562.51
900.96	15650.58
901.13	15339.29
901.30	15685.39
901.47	15445.78
901.64	15511.32
901.81	15632.15
901.98	15548.18
902.15	15578.90
902.32	15501.08
902.49	15320.85
902.66	15492.88
902.83	15539.99
903.01	15683.34
903.18	15443.73
903.35	15683.34
903.52	15433.49
903.69	15437.59
903.86	15773.46
904.03	15746.83
904.20	15777.55
904.37	15548.18
904.54	15304.47
904.71	15494.93
904.88	15630.10
905.05	15388.44
905.22	15697.68
905.39	15558.42
905.56	15388.44
905.73	15402.77
905.90	15638.29
906.07	15370.01
906.24	15482.64
906.41	15634.19
906.58	15697.68
906.75	15531.80
906.92	15554.32
907.09	15451.92
907.26	15429.40
907.43	15259.42
907.60	15421.20
907.77	15470.36
907.93	15501.08
908.10	15316.76
908.27	15523.60
908.44	15159.06
908.61	15306.52
908.78	14933.79
908.95	15339.29
909.12	15349.53
909.29	15183.64
909.46	15236.89
909.63	15087.39
909.80	15449.88
909.97	15148.82
910.14	15312.66
910.31	15363.86
910.48	15073.05
910.65	15136.54
910.82	15314.71
910.99	15267.61
911.16	15304.47
911.33	15161.11
911.50	15128.35
911.66	15013.66
911.83	15249.18
912.00	14993.18
912.17	14868.25
912.34	14982.94
912.51	14978.84
912.68	14862.11
912.85	14898.97
913.02	14993.18
913.19	14872.35
913.36	14749.47
913.53	14888.73
913.70	14798.62
913.86	14958.36
914.03	14546.72
914.20	14620.45
914.37	14759.71
914.54	14659.36
914.71	14675.74
914.88	14599.97
915.05	14516.00
915.22	14614.30
915.39	14497.57
915.55	14602.02
915.72	14507.81
915.89	14157.61
916.06	14442.28
916.23	14411.56
916.40	14393.12
916.57	14372.64
916.74	14212.90
916.91	14368.55
917.07	13981.48
917.24	14159.66
917.41	14229.29
917.58	13979.43
917.75	14161.70
917.92	13639.47
918.09	13897.52
918.26	13676.34
918.42	13725.49
918.59	13801.26
918.76	13819.69
918.93	13778.73
919.10	13647.66
919.27	13551.41
919.44	13762.35
919.60	13770.54
919.77	13530.93
919.94	13610.80
920.11	13545.27
920.28	13289.27
920.45	13643.57
920.61	13406.00
920.78	13324.08
920.95	13274.93
921.12	13141.82
921.29	13203.25
921.46	13293.37
921.62	12881.72
921.79	13100.86
921.96	13041.46
922.13	12961.59
922.30	12928.83
922.47	12998.46
922.63	12904.25
922.80	12971.83
922.97	13059.90
923.14	12560.19
923.31	12742.46
923.47	12511.04
923.64	12824.38
923.81	12662.59
923.98	12724.03
924.15	12373.83
924.32	12377.92
924.48	12519.23
924.65	12359.49
924.82	12420.93
924.99	11953.99
925.15	12078.92
925.32	12183.37
925.49	11949.90
925.66	12009.29
925.83	11935.56
925.99	11890.51
926.16	11941.71
926.33	11851.60
926.50	11652.94
926.67	11759.44
926.83	11800.40
927.00	11906.89
927.17	11718.48
927.34	11478.86
927.50	11579.22
927.67	11591.50
927.84	11583.31
928.01	11499.34
928.17	11253.59
928.34	11433.81
928.51	11396.95
928.68	11087.70
928.84	11280.21
929.01	11114.33
929.18	11079.51
929.35	11044.70
929.51	11247.44
929.68	10717.02
929.85	10848.09
930.02	10970.97
930.18	10872.67
930.35	10596.19
930.52	10725.21
930.69	10741.60
930.85	10596.19
931.02	10432.35
931.19	10561.37
931.36	10532.70
931.52	10479.46
931.69	10594.14
931.86	10311.52
932.02	10389.35
932.19	10145.64
932.36	10104.68
932.53	10190.69
932.69	10084.20
932.86	10041.19
933.03	10088.29
933.19	9699.18
933.36	9899.88
933.53	9922.41
933.70	9809.77
933.86	9699.18
934.03	9721.71
934.20	9809.77
934.36	9561.97
934.53	9521.01
934.70	9414.51
934.86	9381.74
935.03	9131.89
935.20	9197.43
935.36	9244.53
935.53	9052.02
935.70	9250.67
935.86	9146.23
936.03	8888.18
936.20	8785.79
936.36	8740.73
936.53	8800.12
936.70	8654.72
936.86	8757.11
937.03	8664.96
937.20	8392.58
937.36	8429.44
937.53	8073.09
937.70	8220.55
937.86	8013.70
938.03	7995.27
938.20	8126.34
938.36	8097.67
938.53	7853.96
938.70	7575.44
938.86	7692.17
939.03	7499.66
939.20	7458.70
939.36	7430.03
939.53	7288.72
939.70	7444.37
939.86	7065.49
940.03	7049.11
940.19	6725.53
940.36	6846.36
940.53	6858.65
940.69	6715.29
940.86	6703.00
941.03	6526.88
941.19	6580.12
941.36	6406.05
941.52	6573.98
941.69	6365.09
941.86	6225.82
942.02	6350.75
942.19	6164.39
942.35	6199.20
942.52	6125.47
942.69	6184.87
942.85	5932.97
943.02	6125.47
943.18	6012.84
943.35	5824.42
943.52	5842.85
943.68	5797.80
943.85	5853.09
944.01	5797.80
944.18	5525.42
944.35	5879.72
944.51	5562.28
944.68	5689.26
944.84	5533.61
945.01	5646.25
945.17	5590.95
945.34	5633.96
945.51	5572.52
945.67	5531.56
945.84	5480.36
946.00	5394.35
946.17	5394.35
946.33	5337.01
946.50	5511.08
946.67	5365.68
946.83	5359.53
947.00	5506.99
947.16	5541.80
947.33	5402.54
947.49	5394.35
947.66	5400.49
947.82	5466.03
947.99	5230.51
948.16	5509.04
948.32	5447.60
948.49	5392.30
948.65	5435.31
948.82	5355.44
948.98	5480.36
949.15	5373.87
949.31	5472.17
949.48	5437.36
949.64	5441.45
949.81	5300.14
949.97	5281.71
950.14	5449.64
950.30	5306.29
950.47	5388.21
950.63	5468.08
950.80	5416.88
950.96	5312.43
951.13	5361.58
951.30	5392.30
951.46	5380.01
951.63	5531.56
951.79	5689.26
951.96	5511.08
952.12	5418.93
952.29	5359.53
952.45	5320.62
952.62	5359.53
952.78	5463.98
952.94	5402.54
953.11	5525.42
953.27	5339.05
953.44	5502.89
953.60	5504.94
953.77	5384.11
953.93	5502.89
954.10	5504.94
954.26	5435.31
954.43	5427.12
954.59	5621.67
954.76	5650.35
954.92	5509.04
955.09	5504.94
955.25	5498.80
955.42	5371.82
955.58	5623.72
955.75	5609.39
955.91	5541.80
956.07	5521.32
956.24	5498.80
956.40	5654.44
956.57	5552.04
956.73	5558.19
956.90	5586.86
957.06	5498.80
957.23	5414.83
957.39	5560.24
957.56	5543.85
957.72	5435.31
957.88	5476.27
958.05	5613.48
958.21	5652.39
958.38	5537.71
958.54	5541.80
958.71	5539.76
958.87	5543.85
959.03	5367.73
959.20	5523.37
959.36	5558.19
959.53	5337.01
959.69	5625.77
959.85	5617.58
960.02	5480.36
960.18	5445.55
960.35	5500.84
960.51	5410.73
960.68	5621.67
960.84	5554.09
961.00	5506.99
961.17	5482.41
961.33	5609.39
961.50	5574.57
961.66	5449.64
961.82	5582.76
961.99	5517.23
962.15	5468.08
962.31	5367.73
962.48	5580.71
962.64	5578.67
962.81	5566.38
962.97	5523.37
963.13	5554.09
963.30	5369.77
963.46	5445.55
963.62	5590.95
963.79	5455.79
963.95	5517.23
964.12	5431.21
964.28	5496.75
964.44	5429.17
964.61	5566.38
964.77	5425.07
964.93	5609.39
965.10	5525.42
965.26	5416.88
965.42	5310.38
965.59	5337.01
965.75	5394.35
965.92	5457.84
966.08	5463.98
966.24	5382.06
966.41	5294.00
966.57	5453.74
966.73	5420.97
966.90	5300.14
967.06	5414.83
967.22	5273.52
967.39	5263.28
967.55	5355.44
967.71	5300.14
967.88	5361.58
968.04	5355.44
968.20	5167.03
968.37	5253.04
968.53	5312.43
968.69	5339.05
968.85	5283.76
969.02	5253.04
969.18	5191.60
969.34	5101.49
969.51	5267.38
969.67	5201.84
969.83	5246.90
970.00	5283.76
970.16	5193.65
970.32	5236.66
970.48	5250.99
970.65	5095.35
970.81	5021.62
970.97	5046.20
971.14	5070.77
971.30	5160.88
971.46	5013.43
971.63	5081.01
971.79	5146.55
971.95	4939.70
972.11	4921.27
972.28	5044.15
972.44	5138.35
972.60	4888.50
972.76	5033.91
972.93	4995.00
973.09	4892.60
973.25	4902.84
973.42	4884.41
973.58	5025.72
973.74	4997.04
973.90	4999.09
974.07	4915.12
974.23	4892.60
974.39	5009.33
974.55	4894.65
974.72	4892.60
974.88	4798.39
975.04	4911.03
975.20	4945.84
975.37	4847.54
975.53	4739.00
975.69	4921.27
975.85	4683.70
976.01	4775.86
976.18	4652.98
976.34	4812.73
976.50	4706.23
976.66	4794.29
976.83	4812.73
976.99	4741.05
977.15	4689.85
977.31	4652.98
977.47	4636.60
977.64	4675.51
977.80	4716.47
977.96	4661.18
978.12	4677.56
978.29	4630.46
978.45	4622.27
978.61	4652.98
978.77	4566.97
978.93	4566.97
979.10	4612.03
979.26	4579.26
979.42	4630.46
979.58	4489.15
979.74	4485.05
979.91	4657.08
980.07	4460.48
980.23	4462.52
980.39	4493.24
980.55	4480.96
980.71	4480.96
980.88	4435.90
981.04	4538.30
981.20	4378.56
981.36	4513.72
981.52	4421.56
981.68	4433.85
981.85	4435.90
982.01	4390.84
982.17	4337.60
982.33	4351.93
982.49	4587.45
982.65	4272.06
982.82	4317.12
982.98	4278.21
983.14	4177.86
983.30	4384.70
983.46	4308.93
983.62	4272.06
983.79	4253.63
983.95	4276.16
984.11	4134.85
984.27	4212.67
984.43	4188.10
984.59	4173.76
984.75	4296.64
984.91	4300.73
985.08	4325.31
985.24	4050.88
985.40	4100.03
985.56	4233.15
985.72	4304.83
985.88	4214.72
986.04	4163.52
986.20	4218.82
986.37	4202.43
986.53	4118.47
986.69	4261.82
986.85	4063.17
987.01	4077.51
987.17	4163.52
987.33	4091.84
987.49	4067.27
987.65	4079.55
987.82	4067.27
987.98	3993.54
988.14	3909.57
988.30	4046.79
988.46	4038.59
988.62	3995.59
988.78	3991.49
988.94	3997.64
989.10	3891.14
989.26	3862.47
989.42	3768.26
989.59	3825.61
989.75	3905.48
989.91	3891.14
990.07	3813.32
990.23	3837.89
990.39	3948.48
990.55	3846.09
990.71	3798.98
990.87	3950.53
991.03	3801.03
991.19	3854.28
991.35	3743.69
991.51	3895.24
991.67	3870.66
991.83	3770.31
992.00	3811.27
992.16	3919.81
992.32	3717.06
992.48	3624.90
992.64	3682.25
992.80	3780.55
992.96	3655.62
993.12	3669.96
993.28	3608.52
993.44	3633.10
993.60	3712.97
993.76	3739.59
993.92	3753.93
994.08	3604.42
994.24	3624.90
994.40	3598.28
994.56	3626.95
994.72	3565.51
994.88	3629.00
995.04	3559.37
995.20	3629.00
995.36	3534.79
995.52	3592.14
995.68	3639.24
995.84	3528.65
996.00	3672.01
996.16	3491.79
996.32	3448.78
996.48	3553.23
996.64	3506.12
996.80	3575.75
996.96	3583.95
997.12	3469.26
997.28	3477.45
997.44	3401.68
997.60	3493.83
997.76	3438.54
997.92	3448.78
998.08	3383.24
998.24	3418.06
998.40	3401.68
998.56	3434.44
998.72	3385.29
998.88	3442.64
999.04	3215.31
999.20	3440.59
999.36	3280.85
999.52	3385.29
999.68	3340.24
999.84	3315.66
1000.00	3375.05
1000.16	3456.97
1000.32	3229.65
1000.48	3411.92
1000.64	3196.88
1000.80	3166.16
1000.95	3172.30
1001.11	3215.31
1001.27	3168.21
1001.43	3284.94
1001.59	3153.87
1001.75	3168.21
1001.91	3203.02
1002.07	3147.73
1002.23	3051.47
1002.39	3133.39
1002.55	3145.68
1002.71	3071.95
1002.87	3155.92
1003.03	3147.73
1003.19	3100.62
1003.34	3123.15
1003.50	3209.17
1003.66	3198.93
1003.82	3196.88
1003.98	3069.91
1004.14	3104.72
1004.30	2987.99
1004.46	2944.98
1004.62	3067.86
1004.78	3035.09
1004.94	3006.42
1005.09	3047.38
1005.25	3071.95
1005.41	3008.47
1005.57	3035.09
1005.73	2994.13
1005.89	2926.55
1006.05	3106.77
1006.21	2981.84
1006.37	2881.49
1006.52	2932.69
1006.68	2899.92
1006.84	2957.27
1007.00	2848.72
1007.16	2883.54
1007.32	2973.65
1007.48	2932.69
1007.64	2887.64
1007.79	2877.40
1007.95	2809.81
1008.11	2895.83
1008.27	2867.16
1008.43	2836.44
1008.59	2893.78
1008.75	2994.13
1008.91	2865.11
1009.06	2791.38
1009.22	2818.00
1009.38	2967.51
1009.54	2861.01
1009.70	2793.43
1009.86	2811.86
1010.01	2818.00
1010.17	2748.37
1010.33	2791.38
1010.49	2811.86
1010.65	2912.21
1010.81	2625.50
1010.96	2797.53
1011.12	2715.61
1011.28	2729.94
1011.44	2731.99
1011.60	2758.61
1011.76	2785.24
1011.91	2725.85
1012.07	2666.46
1012.23	2619.35
1012.39	2602.97
1012.55	2668.50
1012.71	2615.26
1012.86	2707.41
1013.02	2662.36
1013.18	2555.86
1013.34	2672.60
1013.50	2723.80
1013.65	2731.99
1013.81	2590.68
1013.97	2594.78
1014.13	2617.30
1014.29	2602.97
1014.44	2682.84
1014.60	2580.44
1014.76	2525.15
1014.92	2562.01
1015.07	2666.46
1015.23	2566.10
1015.39	2566.10
1015.55	2562.01
1015.71	2553.82
1015.86	2641.88
1016.02	2514.91
1016.18	2527.19
1016.34	2482.14
1016.49	2527.19
1016.65	2519.00
1016.81	2516.95
1016.97	2600.92
1017.12	2512.86
1017.28	2484.19
1017.44	2437.08
1017.60	2512.86
1017.75	2398.17
1017.91	2590.68
1018.07	2475.99
1018.23	2490.33
1018.38	2293.72
1018.54	2449.37
1018.70	2426.84
1018.86	2359.26
1019.01	2457.56
1019.17	2441.18
1019.33	2525.15
1019.49	2410.46
1019.64	2416.60
1019.80	2471.90
1019.96	2432.99
1020.12	2402.27
1020.27	2265.05
1020.43	2297.82
1020.59	2422.75
1020.74	2351.07
1020.90	2396.12
1021.06	2306.01
1021.22	2361.31
1021.37	2254.81
1021.53	2250.72
1021.69	2342.88
1021.84	2254.81
1022.00	2318.30
1022.16	2316.25
1022.31	2379.74
1022.47	2328.54
1022.63	2271.20
1022.79	2287.58
1022.94	2334.68
1023.10	2365.40
1023.26	2316.25
1023.41	2236.38
1023.57	2289.63
1023.73	2277.34
1023.88	2271.20
1024.04	2254.81
1024.20	2273.25
1024.35	2342.88
1024.51	2215.90
1024.67	2211.81
1024.82	2273.25
1024.98	2185.18
1025.14	2217.95
1025.29	2203.61
1025.45	2232.29
1025.61	2125.79
1025.76	2166.75
1025.92	2189.28
1026.08	2248.67
1026.23	2260.96
1026.39	2160.61
1026.55	2162.66
1026.70	2209.76
1026.86	2211.81
1027.02	2131.94
1027.17	2213.85
1027.33	2129.89
1027.48	2232.29
1027.64	2160.61
1027.80	2066.40
1027.95	2265.05
1028.11	2047.97
1028.27	2166.75
1028.42	2220.00
1028.58	2109.41
1028.73	2146.27
1028.89	2086.88
1029.05	2254.81
1029.20	2224.09
>>>>>End Processed Spectral Data<<<<<
