SpectraSuite Data File
++++++++++++++++++++++++++++++++++++
Date: Fri Jun 02 14:51:09 CEST 2017
User: INFO_000
Dark Spectrum Present: No
Reference Spectrum Present: No
Number of Sampled Component Spectra: 1
Spectrometers: USB4H00879
Integration Time (usec): 80000 (USB4H00879)
Spectra Averaged: 1 (USB4H00879)
Boxcar Smoothing: 0 (USB4H00879)
Correct for Electrical Dark: No (USB4H00879)
Strobe/Lamp Enabled: No (USB4H00879)
Correct for Detector Non-linearity: No (USB4H00879)
Correct for Stray Light: No (USB4H00879)
Number of Pixels in Processed Spectrum: 3648
>>>>>Begin Processed Spectral Data<<<<<
345.13	1331.18
345.34	1331.18
345.56	1331.18
345.78	1347.56
345.99	1300.46
346.21	1722.34
346.42	1677.29
346.64	1640.42
346.86	1802.21
347.07	1585.13
347.29	1769.44
347.50	1611.75
347.72	1712.10
347.94	1732.58
348.15	1490.92
348.37	1658.85
348.59	1638.38
348.80	1685.48
349.02	1730.53
349.23	1920.99
349.45	1845.22
349.67	1918.95
349.88	1849.32
350.10	2004.96
350.31	1857.51
350.53	1789.92
350.75	1937.38
350.96	1783.78
351.18	1857.51
351.39	1896.42
351.61	1703.91
351.82	1884.13
352.04	1880.04
352.26	1828.84
352.47	1904.61
352.69	1914.85
352.90	1775.59
353.12	1865.70
353.34	1871.84
353.55	1892.32
353.77	1880.04
353.98	1828.84
354.20	1830.88
354.41	1947.62
354.63	1912.80
354.85	2070.50
355.06	1882.08
355.28	1824.74
355.49	1914.85
355.71	2015.20
355.92	1906.66
356.14	1968.10
356.35	1841.12
356.57	1834.98
356.79	1882.08
357.00	1896.42
357.22	1961.95
357.43	1828.84
357.65	1935.33
357.86	1769.44
358.08	1925.09
358.29	1916.90
358.51	1931.23
358.72	1992.67
358.94	1912.80
359.16	1914.85
359.37	1925.09
359.59	1953.76
359.80	1929.19
360.02	1949.67
360.23	2002.91
360.45	1982.43
360.66	1929.19
360.88	1871.84
361.09	1900.52
361.31	1964.00
361.52	1877.99
361.74	2052.06
361.95	2039.78
362.17	1888.23
362.38	2082.78
362.60	2002.91
362.81	1970.15
363.03	1978.34
363.24	2031.58
363.46	2082.78
363.67	2039.78
363.89	1994.72
364.10	1961.95
364.32	2011.11
364.53	1974.24
364.75	1847.27
364.96	2007.01
365.18	2007.01
365.39	1972.19
365.61	1998.82
365.82	2058.21
366.04	2090.98
366.25	1920.99
366.47	2047.97
366.68	2023.39
366.90	1877.99
367.11	1972.19
367.33	2033.63
367.54	2074.59
367.76	1953.76
367.97	2152.42
368.19	1961.95
368.40	2056.16
368.62	1951.71
368.83	1951.71
369.05	1957.86
369.26	1912.80
369.48	1988.58
369.69	1968.10
369.91	2064.35
370.12	2019.30
370.33	2181.09
370.55	1966.05
370.76	2070.50
370.98	2111.46
371.19	2019.30
371.41	1988.58
371.62	2080.74
371.84	2017.25
372.05	2185.18
372.27	2097.12
372.48	2088.93
372.69	2076.64
372.91	2133.98
373.12	2244.57
373.34	2082.78
373.55	2115.55
373.77	2105.31
373.98	2066.40
374.20	2107.36
374.41	2203.61
374.62	2088.93
374.84	2123.74
375.05	2220.00
375.27	2103.26
375.48	2193.37
375.70	2148.32
375.91	2234.33
376.12	2162.66
376.34	2072.54
376.55	2127.84
376.77	2183.13
376.98	2105.31
377.19	2174.94
377.41	2133.98
377.62	2185.18
377.84	2191.33
378.05	2338.78
378.27	2222.05
378.48	2314.20
378.69	2332.64
378.91	2295.77
379.12	2172.89
379.34	2303.96
379.55	2265.05
379.76	2263.01
379.98	2207.71
380.19	2131.94
380.41	2275.29
380.62	2303.96
380.83	2191.33
381.05	2095.07
381.26	2357.21
381.47	2195.42
381.69	2244.57
381.90	2371.55
382.12	2215.90
382.33	2318.30
382.54	2232.29
382.76	2349.02
382.97	2324.44
383.19	2242.53
383.40	2414.56
383.61	2318.30
383.83	2248.67
384.04	2324.44
384.25	2303.96
384.47	2342.88
384.68	2222.05
384.89	2297.82
385.11	2312.16
385.32	2174.94
385.54	2263.01
385.75	2332.64
385.96	2383.84
386.18	2410.46
386.39	2392.03
386.60	2344.92
386.82	2387.93
387.03	2439.13
387.24	2459.61
387.46	2330.59
387.67	2420.70
387.88	2498.52
388.10	2439.13
388.31	2416.60
388.52	2539.48
388.74	2445.27
388.95	2408.41
389.16	2447.32
389.38	2412.51
389.59	2570.20
389.80	2484.19
390.02	2574.30
390.23	2588.63
390.44	2568.15
390.66	2521.05
390.87	2471.90
391.08	2537.43
391.30	2617.30
391.51	2625.50
391.72	2592.73
391.94	2584.54
392.15	2625.50
392.36	2555.86
392.58	2494.43
392.79	2584.54
393.00	2607.06
393.22	2680.79
393.43	2699.22
393.64	2783.19
393.85	2711.51
394.07	2617.30
394.28	2660.31
394.49	2695.13
394.71	2799.57
394.92	2803.67
395.13	2664.41
395.35	2668.50
395.56	2625.50
395.77	2781.14
395.98	2727.89
396.20	2760.66
396.41	2748.37
396.62	2883.54
396.84	2844.63
397.05	2758.61
397.26	2791.38
397.47	2875.35
397.69	2779.09
397.90	2955.22
398.11	2801.62
398.32	2805.72
398.54	2746.33
398.75	2795.48
398.96	2793.43
399.18	2987.99
399.39	2750.42
399.60	3028.95
399.81	2861.01
400.03	2787.29
400.24	3074.00
400.45	2924.50
400.66	3010.51
400.88	2914.26
401.09	2981.84
401.30	2949.08
401.51	3047.38
401.73	3069.91
401.94	3043.28
402.15	2994.13
402.36	3016.66
402.58	3112.91
402.79	3078.10
403.00	3100.62
403.21	3139.54
403.43	3125.20
403.64	3221.45
403.85	3166.16
404.06	3045.33
404.27	3033.04
404.49	3139.54
404.70	2975.70
404.91	3147.73
405.12	3100.62
405.34	3149.78
405.55	3252.17
405.76	3112.91
405.97	3188.69
406.19	3368.91
406.40	3092.43
406.61	3262.41
406.82	3237.84
407.03	3295.18
407.25	3233.74
407.46	3352.52
407.67	3301.33
407.88	3442.64
408.09	3311.57
408.31	3231.69
408.52	3471.31
408.73	3350.48
408.94	3192.78
409.15	3420.11
409.37	3444.68
409.58	3401.68
409.79	3407.82
410.00	3456.97
410.21	3301.33
410.43	3301.33
410.64	3303.37
410.85	3477.45
411.06	3504.07
411.27	3401.68
411.48	3502.03
411.70	3559.37
411.91	3393.48
412.12	3473.36
412.33	3438.54
412.54	3518.41
412.76	3495.88
412.97	3563.47
413.18	3545.03
413.39	3557.32
413.60	3637.19
413.81	3575.75
414.03	3502.03
414.24	3471.31
414.45	3665.86
414.66	3536.84
414.87	3663.82
415.08	3661.77
415.30	3657.67
415.51	3614.66
415.72	3704.78
415.93	3663.82
416.14	3643.34
416.35	3786.69
416.56	3717.06
416.78	3665.86
416.99	3817.41
417.20	3878.85
417.41	3796.93
417.62	3729.35
417.83	3790.79
418.04	3848.13
418.26	3950.53
418.47	3885.00
418.68	3901.38
418.89	3942.34
419.10	3960.77
419.31	3901.38
419.52	3960.77
419.73	4007.87
419.95	4057.03
420.16	3788.74
420.37	4001.73
420.58	3971.01
420.79	3889.09
421.00	3977.16
421.21	4028.35
421.42	3907.52
421.63	4065.22
421.85	3960.77
422.06	4028.35
422.27	4052.93
422.48	3997.64
422.69	4073.41
422.90	3968.96
423.11	4214.72
423.32	4194.24
423.53	4372.41
423.75	4200.38
423.96	4417.47
424.17	4278.21
424.38	4427.71
424.59	4251.58
424.80	4394.94
425.01	4304.83
425.22	4233.15
425.43	4313.02
425.64	4421.56
425.85	4507.58
426.06	4292.54
426.28	4325.31
426.49	4251.58
426.70	4310.97
426.91	4476.86
427.12	4489.15
427.33	4583.35
427.54	4392.89
427.75	4620.22
427.96	4730.81
428.17	4542.39
428.38	4638.65
428.59	4640.70
428.80	4618.17
429.01	4501.44
429.23	4816.82
429.44	4812.73
429.65	4771.77
429.86	4702.14
430.07	4741.05
430.28	4730.81
430.49	4865.97
430.70	5033.91
430.91	4825.01
431.12	4677.56
431.33	4890.55
431.54	4855.73
431.75	4898.74
431.96	4820.92
432.17	4995.00
432.38	4911.03
432.59	5158.83
432.80	5015.48
433.01	5038.00
433.22	4978.61
433.43	5015.48
433.64	5042.10
433.85	5025.72
434.06	5207.98
434.27	5078.96
434.49	5234.61
434.70	5195.70
434.91	5236.66
435.12	5191.60
435.33	5056.43
435.54	5195.70
435.75	5240.75
435.96	5185.46
436.17	5203.89
436.38	5412.78
436.59	5253.04
436.80	5261.23
437.01	5310.38
437.22	5482.41
437.43	5296.05
437.64	5234.61
437.85	5562.28
438.06	5420.97
438.27	5410.73
438.48	5474.22
438.69	5631.91
438.90	5484.46
439.11	5285.81
439.32	5820.33
439.53	5795.75
439.74	5562.28
439.95	5539.76
440.16	5617.58
440.37	5525.42
440.57	5474.22
440.78	5689.26
440.99	5703.59
441.20	5746.60
441.41	5676.97
441.62	5760.94
441.83	5605.29
442.04	5851.05
442.25	5740.46
442.46	5687.21
442.67	5945.25
442.88	6186.91
443.09	5685.16
443.30	5851.05
443.51	6012.84
443.72	6188.96
443.93	6016.93
444.14	6191.01
444.35	5816.23
444.56	6008.74
444.77	6184.87
444.98	6170.53
445.19	6170.53
445.40	6082.47
445.61	5971.88
445.81	6246.30
446.02	6188.96
446.23	6205.35
446.44	6066.08
446.65	6166.43
446.86	6225.82
447.07	6250.40
447.28	6571.93
447.49	6455.20
447.70	6436.77
447.91	6414.24
448.12	6283.17
448.33	6371.23
448.54	6504.35
448.74	6473.63
448.95	6657.95
449.16	6600.60
449.37	6795.16
449.58	6498.20
449.79	6782.87
450.00	6510.49
450.21	6729.63
450.42	6881.18
450.63	6711.19
450.84	6719.39
451.05	6829.98
451.25	6909.85
451.46	6668.19
451.67	6961.05
451.88	6975.38
452.09	6903.70
452.30	6739.87
452.51	7071.64
452.72	7094.16
452.93	7372.69
453.13	6950.81
453.34	7167.89
453.55	7135.12
453.76	7153.55
453.97	7356.30
454.18	7249.81
454.39	7258.00
454.60	7231.38
454.81	7403.41
455.01	7423.89
455.22	7200.66
455.43	7366.54
455.64	7690.12
455.85	7769.99
456.06	7780.23
456.27	7610.25
456.48	7520.14
456.68	7743.37
456.89	7759.75
457.10	7888.78
457.31	7862.15
457.52	7569.29
457.73	7741.32
457.94	8036.23
458.14	7679.88
458.35	8394.62
458.56	8146.82
458.77	8062.85
458.98	8318.85
459.19	8173.44
459.39	8255.36
459.60	8374.14
459.81	8208.26
460.02	8333.18
460.23	8214.40
460.44	8482.69
460.65	8507.26
460.85	8529.79
461.06	8449.92
461.27	8376.19
461.48	8646.52
461.69	8814.46
461.89	8359.81
462.10	8873.85
462.31	8417.15
462.52	8669.05
462.73	8552.32
462.94	9111.41
463.14	8771.45
463.35	8677.24
463.56	9295.73
463.77	9211.76
463.98	8953.72
464.18	9045.88
464.39	9404.27
464.60	9344.88
464.81	9201.52
465.02	9213.81
465.23	9402.22
465.43	9289.59
465.64	9586.54
465.85	9572.21
466.06	9443.18
466.27	9777.00
466.47	9729.90
466.68	9822.06
466.89	9729.90
467.10	9770.86
467.30	9338.74
467.51	9928.55
467.72	9992.04
467.93	9803.63
468.14	9944.94
468.34	10192.74
468.55	10172.26
468.76	10209.12
468.97	9987.94
469.17	10444.64
469.38	10424.16
469.59	10405.73
469.80	10209.12
470.01	10385.25
470.21	10504.03
470.42	10698.59
470.63	10495.84
470.84	10645.34
471.04	10729.31
471.25	10784.60
471.46	10649.44
471.67	11087.70
471.87	11063.13
472.08	11126.61
472.29	11255.64
472.50	11087.70
472.70	11226.96
472.91	11362.13
473.12	11396.95
473.33	11398.99
473.53	11568.98
473.74	11368.27
473.95	11652.94
474.16	11566.93
474.36	11863.88
474.57	11941.71
474.78	12027.72
474.99	11902.79
475.19	11632.46
475.40	12117.83
475.61	12230.47
475.81	12451.65
476.02	12611.39
476.23	12326.72
476.44	12519.23
476.64	12668.73
476.85	12730.17
477.06	12724.03
477.27	13041.46
477.47	13043.51
477.68	12887.87
477.89	13272.89
478.09	13145.91
478.30	13307.70
478.51	13311.80
478.71	13455.15
478.92	13461.30
479.13	13725.49
479.34	13700.91
479.54	13698.86
479.75	13645.62
479.96	13940.52
480.16	14016.30
480.37	13983.53
480.58	14120.74
480.78	14315.30
480.99	14229.29
481.20	14364.45
481.41	14559.01
481.61	14475.04
481.82	14810.91
482.03	14628.64
482.23	14532.39
482.44	14829.34
482.65	15118.11
482.85	15134.49
483.06	15144.73
483.27	15193.88
483.47	15324.95
483.68	15206.17
483.89	15245.08
484.09	15349.53
484.30	15750.93
484.51	15505.17
484.71	15759.12
484.92	15910.67
485.13	15879.95
485.33	15869.71
485.54	16232.20
485.75	16326.41
485.95	16350.98
486.16	16387.85
486.37	16467.72
486.57	16652.03
486.78	16217.86
486.98	16670.47
487.19	16758.53
487.40	16979.71
487.60	16871.17
487.81	17196.79
488.02	17250.04
488.22	17043.20
488.43	17323.77
488.64	17393.40
488.84	17483.51
489.05	17673.97
489.25	17483.51
489.46	17858.29
489.67	17794.80
489.87	17723.12
490.08	18112.24
490.29	18171.63
490.49	18521.83
490.70	18431.72
490.90	18446.05
491.11	18513.64
491.32	18638.56
491.52	18413.29
491.73	18601.70
491.94	18654.95
492.14	18837.22
492.35	18763.49
492.55	19257.05
492.76	19246.81
492.97	19359.45
493.17	19283.67
493.38	19424.98
493.58	19599.06
493.79	19748.56
494.00	19515.09
494.20	19998.41
494.41	19998.41
494.61	19982.03
494.82	20346.57
495.02	19992.27
495.23	20369.10
495.44	20768.45
495.64	20514.50
495.85	20274.89
496.05	20510.41
496.26	20563.65
496.47	20696.77
496.67	20707.01
496.88	21022.40
497.08	20825.79
497.29	21333.69
497.49	21300.92
497.70	21556.92
497.91	21227.20
498.11	21651.13
498.32	21610.17
498.52	21765.81
498.73	21812.92
498.93	21876.40
499.14	21915.31
499.34	21823.16
499.55	22435.50
499.76	22171.31
499.96	22030.00
500.17	22474.41
500.37	22255.28
500.58	22464.17
500.78	22505.13
500.99	22615.72
501.19	23019.17
501.40	22771.36
501.60	22531.75
501.81	22804.13
502.02	22693.54
502.22	23142.05
502.43	23193.25
502.63	23332.51
502.84	23568.02
503.04	23203.49
503.25	23277.21
503.45	23217.82
503.66	23645.85
503.86	23615.13
504.07	23817.88
504.27	23537.30
504.48	24209.04
504.68	24016.53
504.89	24123.02
505.09	24114.83
505.30	24004.24
505.50	24258.19
505.71	24577.67
505.91	24352.40
506.12	24360.59
506.32	24376.97
506.53	24647.30
506.73	24622.73
506.94	24813.19
507.14	24585.86
507.35	24708.74
507.55	24893.06
507.76	25097.86
507.96	24761.99
508.17	25353.85
508.37	25040.51
508.58	25212.54
508.78	25265.79
508.99	25640.57
509.19	25075.33
509.40	25738.87
509.60	25200.26
509.81	25753.21
510.01	25566.84
510.22	25667.19
510.42	25740.92
510.63	25773.69
510.83	26084.98
511.04	25808.50
511.24	26093.17
511.44	25951.86
511.65	26203.76
511.85	26001.01
512.06	26148.46
512.26	26431.08
512.47	26308.21
512.67	26601.07
512.88	26578.54
513.08	26001.01
513.29	26457.71
513.49	26674.79
513.69	26582.63
513.90	26877.54
514.10	26814.05
514.31	27051.62
514.51	26898.02
514.72	26781.29
514.92	26732.14
515.13	26936.93
515.33	26916.45
515.53	26998.37
515.74	27143.78
515.94	27377.25
516.15	27246.18
516.35	26881.64
516.56	27471.45
516.76	27074.15
516.96	27516.51
517.17	27856.47
517.37	27819.61
517.58	27395.68
517.78	27461.21
517.99	27389.53
518.19	27655.77
518.39	27971.16
518.60	28253.78
518.80	27831.90
519.01	27932.25
519.21	28059.22
519.41	28112.47
519.62	28409.42
519.82	28360.27
520.03	28038.74
520.23	28409.42
520.43	28251.73
520.64	28646.99
520.84	28522.06
521.05	28603.98
521.25	29003.33
521.45	28628.56
521.66	28780.10
521.86	28827.21
522.07	28728.91
522.27	29171.27
522.47	28939.85
522.68	29285.95
522.88	29146.69
523.08	28941.89
523.29	29158.98
523.49	29363.78
523.70	29451.84
523.90	29740.60
524.10	29283.91
524.31	29597.24
524.51	29378.11
524.71	29863.48
524.92	29337.15
525.12	30060.09
525.33	29898.30
525.53	30002.74
525.73	30516.78
525.94	30115.38
526.14	30199.35
526.34	30082.61
526.55	30475.82
526.75	30207.54
526.95	30504.49
527.16	30549.55
527.36	30281.27
527.56	30479.92
527.77	30842.41
527.97	30735.92
528.17	30631.47
528.38	31077.93
528.58	31079.97
528.78	31006.25
528.99	30985.77
529.19	31188.52
529.39	31178.28
529.60	31325.73
529.80	31252.00
530.00	30832.17
530.21	31489.57
530.41	31766.04
530.61	31491.62
530.82	31655.45
531.02	31458.85
531.22	32116.25
531.43	31774.24
531.63	31911.45
531.83	32325.14
532.04	32284.18
532.24	31931.93
532.44	32273.94
532.64	32349.71
532.85	32466.45
533.05	32462.35
533.25	32734.73
533.46	32587.28
533.66	33101.32
533.86	32556.56
534.07	32947.72
534.27	32822.80
534.47	33287.68
534.67	32939.53
534.88	33381.89
535.08	33068.55
535.28	33465.86
535.49	33488.38
535.69	33676.80
535.89	33703.42
536.09	33691.13
536.30	33908.22
536.50	33791.48
536.70	34131.45
536.91	33807.87
537.11	34053.62
537.31	34055.67
537.51	34117.11
537.72	34723.31
537.92	34319.86
538.12	34842.09
538.32	34661.87
538.53	34655.73
538.73	34416.11
538.93	34571.76
539.13	34672.11
539.34	34590.19
539.54	34538.99
539.74	35374.56
539.94	35100.14
540.15	34940.39
540.35	34819.56
540.55	35139.05
540.75	35206.63
540.96	34989.55
541.16	35167.72
541.36	35653.09
541.56	35554.79
541.77	35661.28
541.97	35034.60
542.17	35485.15
542.37	35659.23
542.58	35491.30
542.78	35958.24
542.98	36025.82
543.18	35907.04
543.38	35937.76
543.59	36308.44
543.79	36320.73
543.99	35726.81
544.19	36435.41
544.40	36468.18
544.60	36550.10
544.80	36724.18
545.00	36505.04
545.20	36705.74
545.41	36505.04
545.61	36369.88
545.81	36816.33
546.01	37178.82
546.21	36808.14
546.42	37090.76
546.62	37246.41
546.82	36732.37
547.02	37055.95
547.22	37123.53
547.43	37287.37
547.63	37438.92
547.83	37590.47
548.03	37193.16
548.23	37395.91
548.44	37680.58
548.64	37598.66
548.84	37707.20
549.04	37623.23
549.24	38069.69
549.45	38213.05
549.65	37805.50
549.85	37842.37
550.05	38325.69
550.25	37828.03
550.45	38505.91
550.66	38520.24
550.86	37893.57
551.06	38206.90
551.26	38555.06
551.46	38462.90
551.66	38153.66
551.87	38446.52
552.07	38499.76
552.27	38634.93
552.47	38868.40
552.67	38868.40
552.87	38755.76
553.07	38776.24
553.28	39181.74
553.48	39075.24
553.68	39232.94
553.88	39249.32
554.08	38864.30
554.28	39138.73
554.48	39255.46
554.69	39402.92
554.89	39460.26
555.09	39501.22
555.29	39650.72
555.49	39683.49
555.69	39480.74
555.89	39986.59
556.10	39654.82
556.30	39970.21
556.50	39726.50
556.70	39734.69
556.90	40035.74
557.10	40134.04
557.30	39525.80
557.50	40199.58
557.70	40408.47
557.91	40074.65
558.11	40222.11
558.31	40394.14
558.51	40293.79
558.71	40291.74
558.91	40369.56
559.11	40246.68
559.31	40332.70
559.51	40095.13
559.72	40775.06
559.92	40570.26
560.12	40519.06
560.32	40879.50
560.52	40617.36
560.72	40988.05
560.92	40764.82
561.12	40973.71
561.32	41227.66
561.52	40836.50
561.72	41280.91
561.93	41256.33
562.13	40725.91
562.33	41174.41
562.53	41612.68
562.73	41366.92
562.93	41639.30
563.13	41450.89
563.33	41317.77
563.53	41743.75
563.73	41491.85
563.93	41901.44
564.13	42198.40
564.33	42216.83
564.53	41885.06
564.74	42458.49
564.94	42036.61
565.14	41940.35
565.34	41809.28
565.54	42200.44
565.74	42503.54
565.94	42491.26
566.14	42030.46
566.34	42360.19
566.54	42794.36
566.74	42411.38
566.94	42841.46
567.14	42968.43
567.34	42483.06
567.54	43074.93
567.74	42743.16
567.94	42399.10
568.14	42878.32
568.34	43128.17
568.54	42909.04
568.74	43251.05
568.94	43134.32
569.14	43040.11
569.34	43267.44
569.54	43021.68
569.75	42988.91
569.95	43312.49
570.15	43693.41
570.35	43287.92
570.55	43517.29
570.75	43271.53
570.95	43873.63
571.15	43771.24
571.35	43695.46
571.55	43799.91
571.75	43822.44
571.95	43906.40
572.15	43687.27
572.35	43791.72
572.55	43963.75
572.75	44039.52
572.95	44092.77
573.15	44455.26
573.35	44232.03
573.55	44229.98
573.75	44258.65
573.95	44629.34
574.15	44100.96
574.35	44479.83
574.55	44498.26
574.75	44553.56
574.95	44303.71
575.15	44741.97
575.34	44889.43
575.54	44942.67
575.74	45069.65
575.94	45245.77
576.14	44750.17
576.34	45186.38
576.54	45612.36
576.74	45270.35
576.94	45231.44
577.14	45499.72
577.34	45794.63
577.54	45321.55
577.74	45950.27
577.94	45423.95
578.14	45610.31
578.34	45581.64
578.54	45172.05
578.74	45618.50
578.94	46110.02
579.14	45782.34
579.34	45757.77
579.54	45831.49
579.74	46568.76
579.94	46128.45
580.13	46517.56
580.33	46523.71
580.53	46535.99
580.73	46200.13
580.93	46284.09
581.13	46288.19
581.33	46685.50
581.53	46685.50
581.73	46556.47
581.93	46751.03
582.13	46753.08
582.33	46869.81
582.53	46734.65
582.73	47303.98
582.92	46812.47
583.12	47580.46
583.32	46869.81
583.52	46726.46
583.72	47230.26
583.92	46990.64
584.12	47451.44
584.32	47906.08
584.52	47404.33
584.72	47240.50
584.92	47365.42
585.11	47850.79
585.31	47287.60
585.51	47469.87
585.71	47945.00
585.91	48051.49
586.11	47641.90
586.31	47953.19
586.51	47748.39
586.71	48053.54
586.91	48297.25
587.10	47717.67
587.30	48037.16
587.50	48272.67
587.70	48395.55
587.90	48184.61
588.10	48241.95
588.30	48323.87
588.50	48178.46
588.69	48510.24
588.89	48227.62
589.09	48792.86
589.29	48932.12
589.49	48799.00
589.69	47985.96
589.89	48647.45
590.08	48690.46
590.28	48680.22
590.48	48483.61
590.68	48559.39
590.88	48725.27
591.08	49100.05
591.28	48373.02
591.47	49218.83
591.67	48749.85
591.87	48493.85
592.07	48751.90
592.27	48796.95
592.47	48715.03
592.67	49302.80
592.86	48782.62
593.06	49354.00
593.26	49231.12
593.46	49036.56
593.66	49026.32
593.86	49392.91
594.05	48907.54
594.25	49360.14
594.45	48960.79
594.65	49356.05
594.85	48917.78
595.05	49542.41
595.24	49747.21
595.44	49184.02
595.64	49403.15
595.84	49106.19
596.04	49386.77
596.23	49425.68
596.43	49704.20
596.63	49720.59
596.83	49800.46
597.03	49952.01
597.22	50107.65
597.42	49657.10
597.62	50273.54
597.82	50081.03
598.02	49937.67
598.21	50251.01
598.41	49980.68
598.61	50236.67
598.81	50076.93
599.01	50289.92
599.20	50328.83
599.40	50066.69
599.60	50431.23
599.80	50650.36
600.00	50455.81
600.19	50443.52
600.39	50115.84
600.59	50658.56
600.79	50257.15
600.98	50418.94
601.18	50607.36
601.38	50816.25
601.58	50892.02
601.78	50664.70
601.97	50261.25
602.17	50887.93
602.37	50611.45
602.57	50799.86
602.76	50803.96
602.96	50349.31
603.16	51211.51
603.36	51234.03
603.55	51068.15
603.75	50640.12
603.95	50975.99
604.15	50795.77
604.34	50773.24
604.54	51344.62
604.74	51166.45
604.94	51287.28
605.13	51504.37
605.33	51553.52
605.53	50877.69
605.73	51084.53
605.92	51123.44
606.12	51264.75
606.32	51156.21
606.52	51856.62
606.71	51174.64
606.91	51672.30
607.11	51574.00
607.30	51426.54
607.50	51387.63
607.70	51592.43
607.90	51569.90
608.09	51115.25
608.29	51758.31
608.49	51215.60
608.68	51473.65
608.88	52008.17
609.08	51825.90
609.28	51729.64
609.47	51660.01
609.67	51870.95
609.87	51764.46
610.06	51604.72
610.26	51727.59
610.46	52012.26
610.66	51365.10
610.85	51574.00
611.05	51438.83
611.25	52004.07
611.44	51789.03
611.64	51856.62
611.84	51346.67
612.03	51660.01
612.23	51692.78
612.43	51846.38
612.62	51961.06
612.82	52223.20
613.02	51762.41
613.21	52131.04
613.41	51664.11
613.61	51653.87
613.80	51848.42
614.00	51868.90
614.20	51748.07
614.39	51922.15
614.59	51815.66
614.79	51584.24
614.98	51627.24
615.18	51789.03
615.38	51735.79
615.57	51674.35
615.77	51903.72
615.97	51791.08
616.16	51623.15
616.36	51887.34
616.56	51545.33
616.75	51848.42
616.95	51614.96
617.15	51610.86
617.34	51465.45
617.54	51662.06
617.74	52118.76
617.93	51873.00
618.13	51444.98
618.32	51746.03
618.52	51594.48
618.72	51893.48
618.91	51715.31
619.11	51764.46
619.31	51463.41
619.50	51670.25
619.70	51401.97
619.90	51246.32
620.09	51498.22
620.29	51870.95
620.48	51553.52
620.68	52407.52
620.88	50973.94
621.07	51709.16
621.27	52038.89
621.46	51487.98
621.66	51514.61
621.86	51459.31
622.05	51694.83
622.25	51803.37
622.44	51846.38
622.64	51234.03
622.84	51557.61
623.03	51115.25
623.23	51789.03
623.42	51393.78
623.62	51547.37
623.82	51430.64
624.01	51481.84
624.21	51653.87
624.40	51913.96
624.60	51795.18
624.80	51164.40
624.99	51447.02
625.19	51164.40
625.38	51653.87
625.58	51524.85
625.77	51404.02
625.97	51451.12
626.17	51838.18
626.36	51586.28
626.56	51852.52
626.75	51105.01
626.95	51854.57
627.14	51229.94
627.34	51670.25
627.54	51428.59
627.73	51426.54
627.93	51371.25
628.12	50902.26
628.32	51754.22
628.51	51877.10
628.71	51776.75
628.90	51741.93
629.10	51229.94
629.30	51502.32
629.49	51195.12
629.69	51434.74
629.88	51465.45
630.08	51834.09
630.27	51551.47
630.47	51860.71
630.66	51500.27
630.86	51928.30
631.05	51016.95
631.25	51856.62
631.44	51854.57
631.64	51500.27
631.84	51901.67
632.03	52245.73
632.23	51885.29
632.42	52245.73
632.62	51952.87
632.81	51750.12
633.01	51858.66
633.20	52153.57
633.40	51942.63
633.59	51778.79
633.79	51811.56
633.98	51418.35
634.18	52137.19
634.37	52004.07
634.57	52012.26
634.76	52215.01
634.96	52085.99
635.15	52221.16
635.35	52028.65
635.54	51846.38
635.74	52194.53
635.93	52077.80
636.13	52376.80
636.32	52784.35
636.52	51944.68
636.71	52264.16
636.91	52208.87
637.10	52585.69
637.30	52718.81
637.49	52509.92
637.69	52079.85
637.88	52411.62
638.08	52176.10
638.27	52227.30
638.46	52241.63
638.66	51965.16
638.85	52319.46
639.05	52176.10
639.24	52962.52
639.44	52245.73
639.63	52708.57
639.83	52524.25
640.02	52245.73
640.22	52450.53
640.41	52878.55
640.61	52288.74
640.80	52491.49
640.99	52423.90
641.19	53529.81
641.38	52847.83
641.58	52716.76
641.77	52866.27
641.97	52241.63
642.16	52954.33
642.36	52944.09
642.55	53161.17
642.74	52528.35
642.94	53351.63
643.13	52581.60
643.33	53464.27
643.52	53179.60
643.72	53304.53
643.91	53077.21
644.10	53019.86
644.30	53505.23
644.49	53236.95
644.69	53368.02
644.88	53050.58
645.08	53286.10
645.27	53320.91
645.46	53531.86
645.66	53615.82
645.85	53263.57
646.05	53505.23
646.24	53310.67
646.43	53734.60
646.63	53630.16
646.82	54035.66
647.02	53994.70
647.21	53920.97
647.40	53761.23
647.60	54373.57
647.79	54195.40
647.99	54041.80
648.18	53927.11
648.37	54287.56
648.57	53884.11
648.76	53980.36
648.96	53943.50
649.15	54039.75
649.34	54215.88
649.54	54439.11
649.73	54058.18
649.92	54117.57
650.12	54006.98
650.31	54494.40
650.51	54394.05
650.70	54906.04
650.89	54215.88
651.09	55368.88
651.28	54613.18
651.47	54803.64
651.67	54656.19
651.86	54713.53
652.06	54430.91
652.25	54932.67
652.44	54588.61
652.64	54697.15
652.83	54363.33
653.02	54439.11
653.22	54746.30
653.41	54439.11
653.60	54533.31
653.80	54424.77
653.99	54736.06
654.18	54695.10
654.38	54592.70
654.57	54748.35
654.76	55014.58
654.96	54615.23
655.15	55069.88
655.34	54695.10
655.54	54564.03
655.73	54990.01
655.92	55094.46
656.12	55119.03
656.31	55315.64
656.50	55440.56
656.70	55104.70
656.89	54848.70
657.08	55092.41
657.28	55291.06
657.47	55149.75
657.66	55360.69
657.86	55145.65
658.05	55649.45
658.24	55704.75
658.43	54873.27
658.63	55323.83
658.82	55342.26
659.01	55514.29
659.21	55346.36
659.40	55610.54
659.59	55420.08
659.79	55483.57
659.98	55248.05
660.17	55780.52
660.36	55762.09
660.56	55645.36
660.75	55323.83
660.94	55862.44
661.14	55702.70
661.33	55520.43
661.52	55590.06
661.71	55821.48
661.91	55086.26
662.10	55647.41
662.29	55850.16
662.49	55803.05
662.68	56308.90
662.87	55938.22
663.06	55852.20
663.26	55411.89
663.45	55981.23
663.64	55467.19
663.83	56409.25
664.03	56009.90
664.22	55659.69
664.41	56097.96
664.60	55968.94
664.80	56368.29
664.99	55891.12
665.18	55909.55
665.37	55661.74
665.57	56206.50
665.76	55774.38
665.95	56392.87
666.14	56341.67
666.34	56122.54
666.53	55987.37
666.72	55973.03
666.91	55837.87
667.11	56075.43
667.30	56136.87
667.49	55725.23
667.68	55825.58
667.87	56151.21
668.07	56269.99
668.26	56020.14
668.45	56317.09
668.64	56116.39
668.84	56829.08
669.03	56149.16
669.22	56173.73
669.41	56489.12
669.60	56130.73
669.80	55741.61
669.99	56632.48
670.18	55710.89
670.37	56362.15
670.57	56577.18
670.76	56091.82
670.95	56556.70
671.14	56169.64
671.33	55731.37
671.53	56102.06
671.72	56353.96
671.91	56057.00
672.10	56069.29
672.29	56259.75
672.48	56276.13
672.68	56824.99
672.87	56388.77
673.06	56482.98
673.25	56065.19
673.44	56405.16
673.64	56276.13
673.83	56222.89
674.02	55731.37
674.21	55434.42
674.40	56183.97
674.59	56026.28
674.79	55884.97
674.98	55981.23
675.17	56091.82
675.36	55792.81
675.55	56368.29
675.74	55674.03
675.94	56020.14
676.13	56536.23
676.32	56222.89
676.51	56585.38
676.70	56112.30
676.89	56071.34
677.08	56476.83
677.28	56011.95
677.47	56294.56
677.66	56241.32
677.85	56382.63
678.04	56292.52
678.23	56556.70
678.42	56136.87
678.62	56059.05
678.81	56136.87
679.00	56095.91
679.19	56702.11
679.38	56482.98
679.57	55913.64
679.76	55811.24
679.96	56542.37
680.15	55786.67
680.34	55772.33
680.53	56063.14
680.72	55948.46
680.91	56233.13
681.10	56153.26
681.29	56233.13
681.48	55682.22
681.68	55780.52
681.87	55739.57
682.06	56104.10
682.25	55682.22
682.44	55594.16
682.63	56059.05
682.82	55758.00
683.01	55502.00
683.20	55620.78
683.39	55661.74
683.59	55442.61
683.78	55463.09
683.97	55293.11
684.16	55981.23
684.35	55239.86
684.54	55547.06
684.73	55286.96
684.92	55037.11
685.11	55178.42
685.30	55299.25
685.49	55551.15
685.69	55182.52
685.88	55491.76
686.07	55022.78
686.26	55796.91
686.45	55415.99
686.64	54990.01
686.83	55342.26
687.02	55600.30
687.21	55444.66
687.40	54965.43
687.59	55372.98
687.78	54860.99
687.97	55807.15
688.16	55190.71
688.35	54713.53
688.54	55092.41
688.74	55280.82
688.93	55231.67
689.12	54734.01
689.31	55112.89
689.50	54768.83
689.69	54580.42
689.88	54275.27
690.07	54629.57
690.26	54668.48
690.45	54811.84
690.64	54539.46
690.83	55006.39
691.02	54129.86
691.21	54369.47
691.40	54342.85
691.59	54301.89
691.78	54449.35
691.97	54731.96
692.16	54672.57
692.35	54678.72
692.54	54318.28
692.73	54125.77
692.92	54406.34
693.11	54318.28
693.30	54181.06
693.49	54318.28
693.68	54183.11
693.87	53818.57
694.06	53892.30
694.25	53929.16
694.44	53761.23
694.63	53959.88
694.82	53998.79
695.01	53861.58
695.20	53562.57
695.39	53814.47
695.58	54093.00
695.77	53617.87
695.96	53423.31
696.15	53769.42
696.34	53306.58
696.53	53750.99
696.72	53689.55
696.91	53748.94
697.10	53732.56
697.29	53353.68
697.48	53787.85
697.67	53343.44
697.86	53251.28
698.05	53206.23
698.24	53155.03
698.43	52706.52
698.62	53320.91
698.81	52876.51
699.00	53624.01
699.19	52983.00
699.38	52993.24
699.57	52931.80
699.76	53466.32
699.95	52712.67
700.14	52684.00
700.32	53243.09
700.51	52966.62
700.70	52993.24
700.89	52944.09
701.08	53081.30
701.27	52821.21
701.46	52800.73
701.65	52471.01
701.84	52481.25
702.03	52671.71
702.22	52190.44
702.41	52380.90
702.60	52532.45
702.79	52501.73
702.98	52276.45
703.17	52604.13
703.35	51547.37
703.54	51936.49
703.73	52298.98
703.92	52122.85
704.11	51807.47
704.30	51807.47
704.49	51565.81
704.68	51834.09
704.87	52049.13
705.06	52083.94
705.25	51731.69
705.43	51326.19
705.62	51240.18
705.81	51606.76
706.00	51522.80
706.19	51272.95
706.38	51272.95
706.57	51735.79
706.76	50986.23
706.95	51068.15
707.14	51524.85
707.32	51193.07
707.51	50853.11
707.70	51070.20
707.89	51369.20
708.08	51332.34
708.27	51332.34
708.46	51289.33
708.65	51068.15
708.84	51074.29
709.02	51062.00
709.21	50836.73
709.40	50715.90
709.59	50652.41
709.78	50994.42
709.97	51162.36
710.16	50513.15
710.34	50748.67
710.53	50668.79
710.72	50423.04
710.91	50691.32
711.10	50337.02
711.29	50437.37
711.48	50740.47
711.66	50402.56
711.85	49853.70
712.04	50398.46
712.23	50238.72
712.42	50089.22
712.61	49870.09
712.80	49779.98
712.98	50318.59
713.17	49562.89
713.36	50150.66
713.55	50115.84
713.74	49890.57
713.93	50015.49
714.11	49732.87
714.30	49716.49
714.49	49530.12
714.68	50244.87
714.87	49761.54
715.06	49962.25
715.24	49466.64
715.43	49218.83
715.62	49120.53
715.81	49417.49
716.00	49280.27
716.18	49044.76
716.37	49108.24
716.56	49057.04
716.75	49427.73
716.94	49114.39
717.12	48854.29
717.31	49235.22
717.50	48817.43
717.69	48616.73
717.88	49292.56
718.06	49253.65
718.25	48960.79
718.44	48792.86
718.63	48719.13
718.82	48434.46
719.00	48686.36
719.19	48467.23
719.38	48241.95
719.57	48051.49
719.76	48000.29
719.94	47648.04
720.13	48014.63
720.32	48055.59
720.51	47945.00
720.69	47871.27
720.88	47840.55
721.07	48270.62
721.26	47785.25
721.44	47772.97
721.63	47469.87
721.82	47232.30
722.01	46949.68
722.20	47596.84
722.38	47379.76
722.57	47011.12
722.76	47283.50
722.95	47297.84
723.13	47183.15
723.32	47062.32
723.51	46908.72
723.70	46630.20
723.88	46855.48
724.07	46550.33
724.26	46812.47
724.44	46187.84
724.63	46806.33
724.82	46810.42
725.01	46654.78
725.19	46359.87
725.38	46382.40
725.57	46306.62
725.76	46357.82
725.94	46130.50
726.13	46470.46
726.32	46167.36
726.51	46284.09
726.69	46112.06
726.88	46343.48
727.07	46058.82
727.25	45970.75
727.44	46112.06
727.63	45968.71
727.82	45849.92
728.00	46234.94
728.19	46228.80
728.38	46482.75
728.56	45735.24
728.75	46003.52
728.94	45983.04
729.12	46402.88
729.31	45983.04
729.50	45860.16
729.69	46208.32
729.87	45897.03
730.06	45444.43
730.25	46392.64
730.43	46081.34
730.62	46155.07
730.81	45524.30
730.99	46153.02
731.18	46060.87
731.37	45802.82
731.55	46056.77
731.74	46136.64
731.93	46021.95
732.11	45858.12
732.30	45851.97
732.49	45473.10
732.67	46263.61
732.86	45659.46
733.05	45667.66
733.23	45479.24
733.42	46019.91
733.61	45401.42
733.79	46314.81
733.98	45946.18
734.17	45645.13
734.35	45610.31
734.54	45473.10
734.73	45991.23
734.91	45686.09
735.10	45360.46
735.29	45641.03
735.47	45245.77
735.66	45337.93
735.84	45391.18
736.03	45194.57
736.22	45587.78
736.40	45079.89
736.59	45499.72
736.78	45245.77
736.96	45565.26
737.15	45342.03
737.33	45305.16
737.52	45524.30
737.71	45124.94
737.89	45247.82
738.08	45053.26
738.27	44705.11
738.45	45589.83
738.64	45094.22
738.82	45063.50
739.01	45108.56
739.20	44997.97
739.38	44946.77
739.57	45376.84
739.75	45440.33
739.94	45053.26
740.13	44746.07
740.31	44590.42
740.50	44893.52
740.68	44973.39
740.87	44909.91
741.06	45186.38
741.24	44905.81
741.43	44692.82
741.61	45010.26
741.80	44754.26
741.99	44547.42
742.17	44709.21
742.36	44545.37
742.54	44465.50
742.73	44301.66
742.91	44772.69
743.10	44631.38
743.29	44678.49
743.47	44281.18
743.66	44725.59
743.84	44531.03
744.03	44465.50
744.21	44328.28
744.40	44887.38
744.59	44219.74
744.77	43939.17
744.96	44336.48
745.14	44627.29
745.33	44545.37
745.51	44330.33
745.70	44330.33
745.88	44078.43
746.07	44455.26
746.26	44111.20
746.44	44170.59
746.63	44270.94
746.81	44305.76
747.00	43875.68
747.18	44268.89
747.37	44115.29
747.55	44016.99
747.74	44629.34
747.92	43844.96
748.11	43816.29
748.29	43945.31
748.48	44111.20
748.66	43861.35
748.85	44098.91
749.03	43765.09
749.22	43896.16
749.41	43840.87
749.59	43775.33
749.78	43418.99
749.96	43093.36
750.15	43548.01
750.33	43416.94
750.52	43361.64
750.70	43228.52
750.89	42993.01
751.07	43025.78
751.26	43611.49
751.44	43435.37
751.63	43521.38
751.81	43019.63
752.00	43222.38
752.18	43498.86
752.37	43322.73
752.55	42872.18
752.74	43298.16
752.92	42993.01
753.10	43128.17
753.29	43052.40
753.47	42812.79
753.66	42831.22
753.84	43087.21
754.03	42755.44
754.21	42452.34
754.40	43038.06
754.58	42861.94
754.77	42851.70
754.95	42931.57
755.14	42915.19
755.32	42526.07
755.51	42767.73
755.69	42546.55
755.88	42878.32
756.06	42640.76
756.24	42435.96
756.43	42421.62
756.61	42386.81
756.80	42653.05
756.98	42665.33
757.17	42288.51
757.35	42335.61
757.54	42290.55
757.72	42603.89
757.90	42149.24
758.09	42122.62
758.27	42247.55
758.46	42450.30
758.64	42141.05
758.83	42589.56
759.01	42370.43
759.19	42399.10
759.38	42005.89
759.56	42511.74
759.75	42136.96
759.93	42505.59
760.12	42009.98
760.30	42351.99
760.48	42022.27
760.67	42048.89
760.85	42106.24
761.04	42337.66
761.22	41856.39
761.40	41983.36
761.59	42210.68
761.77	41745.80
761.96	41981.31
762.14	41551.24
762.32	41491.85
762.51	41741.70
762.69	41901.44
762.88	42081.66
763.06	41520.52
763.24	42014.08
763.43	41946.50
763.61	41584.01
763.80	41827.71
763.98	41192.84
764.16	41547.14
764.35	41446.79
764.53	41112.97
764.72	41665.92
764.90	41350.54
765.08	41166.22
765.27	41579.91
765.45	40908.18
765.63	40906.13
765.82	41385.35
766.00	40777.11
766.18	41309.58
766.37	41391.50
766.55	41141.64
766.74	41069.97
766.92	40953.23
767.10	41139.60
767.29	40899.98
767.47	40404.38
767.65	41072.01
767.84	40598.93
768.02	40785.30
768.20	40680.85
768.39	41184.65
768.57	40539.54
768.75	40908.18
768.94	40998.29
769.12	41006.48
769.30	40258.97
769.49	40301.98
769.67	40185.24
769.85	40277.40
770.04	40308.12
770.22	40115.61
770.40	40433.05
770.59	40197.53
770.77	40777.11
770.95	40387.99
771.14	39912.86
771.32	40060.32
771.50	40134.04
771.69	39828.90
771.87	40263.07
772.05	40322.46
772.24	39769.51
772.42	40179.10
772.60	39663.01
772.78	39949.73
772.97	39767.46
773.15	39935.39
773.33	40019.36
773.52	39435.69
773.70	40013.21
773.88	39949.73
774.07	40142.24
774.25	39734.69
774.43	40088.99
774.61	39402.92
774.80	40086.94
774.98	39675.30
775.16	39902.62
775.34	40050.08
775.53	39890.34
775.71	40152.48
775.89	40072.60
776.08	39847.33
776.26	40019.36
776.44	40052.12
776.62	39839.14
776.81	39654.82
776.99	40496.53
777.17	40115.61
777.35	40322.46
777.54	40703.38
777.72	40056.22
777.90	40291.74
778.08	40367.51
778.27	39933.34
778.45	40486.29
778.63	40693.14
778.81	40240.54
779.00	40942.99
779.18	40121.76
779.36	40414.62
779.54	40220.06
779.73	40572.31
779.91	40740.24
780.09	40621.46
780.27	40848.78
780.46	40338.84
780.64	40578.45
780.82	41121.16
781.00	40930.70
781.19	40889.74
781.37	41409.93
781.55	41018.77
781.73	41186.70
781.91	41389.45
782.10	41174.41
782.28	40934.80
782.46	41104.78
782.64	41239.95
782.82	40807.83
783.01	41575.81
783.19	41375.11
783.37	41424.26
783.55	40959.38
783.74	41319.82
783.92	40828.30
784.10	41493.89
784.28	41082.25
784.46	41125.26
784.64	41145.74
784.83	41479.56
785.01	41665.92
785.19	41479.56
785.37	41282.95
785.55	41360.78
785.74	40977.81
785.92	40482.20
786.10	41178.51
786.28	41112.97
786.46	40703.38
786.64	41086.35
786.83	40992.14
787.01	41162.12
787.19	40908.18
787.37	41002.38
787.55	41278.86
787.74	41205.13
787.92	41006.48
788.10	40990.09
788.28	40248.73
788.46	40844.69
788.64	40256.92
788.82	41127.31
789.01	40670.61
789.19	40560.02
789.37	40689.04
789.55	40523.16
789.73	40578.45
789.91	40668.56
790.09	40549.78
790.28	40304.02
790.46	39996.83
790.64	40160.67
790.82	40306.07
791.00	39884.19
791.18	40078.75
791.36	40218.01
791.55	39970.21
791.73	40117.66
791.91	39509.41
792.09	40009.12
792.27	39771.55
792.45	39972.25
792.63	39708.07
792.81	39544.23
793.00	39699.87
793.18	39880.10
793.36	39310.76
793.54	39105.96
793.72	39093.68
793.90	39054.76
794.08	39282.09
794.26	39015.85
794.44	38532.53
794.62	38634.93
794.81	39062.96
794.99	38600.12
795.17	38917.55
795.35	38411.70
795.53	38931.89
795.71	38722.99
795.89	38319.54
796.07	37950.91
796.25	38114.75
796.43	38043.07
796.61	37766.59
796.80	37879.23
796.98	37965.24
797.16	37699.01
797.34	37649.86
797.52	37440.96
797.70	37713.34
797.88	37955.00
798.06	36967.88
798.24	37082.57
798.42	37115.34
798.60	37344.71
798.78	36797.90
798.96	37172.68
799.14	37086.67
799.32	37225.93
799.51	36767.18
799.69	37148.11
799.87	36554.19
800.05	36556.24
800.23	36795.85
800.41	36617.68
800.59	36650.45
800.77	36021.72
800.95	35855.84
801.13	36267.48
801.31	36091.35
801.49	36482.52
801.67	35524.07
801.85	35962.33
802.03	35323.36
802.21	35698.14
802.39	35679.71
802.57	35587.55
802.75	35751.39
802.93	35395.04
803.11	35421.67
803.29	35225.06
803.47	34887.15
803.65	34911.72
803.83	34952.68
804.01	34883.05
804.19	34700.78
804.37	34778.61
804.55	34825.71
804.73	34835.95
804.91	34553.33
805.09	34821.61
805.27	34459.12
805.45	34461.17
805.63	34436.59
805.81	34158.07
805.99	34528.75
806.17	34352.63
806.35	34326.00
806.53	34317.81
806.71	33844.73
806.89	34051.58
807.07	34012.66
807.25	34217.46
807.43	33537.54
807.61	34203.13
807.79	33850.88
807.97	33517.06
808.15	33748.48
808.33	33213.96
808.51	33291.78
808.69	33328.64
808.87	33197.57
809.05	33121.80
809.23	32972.30
809.41	32724.49
809.59	32572.94
809.77	33156.61
809.95	33021.45
810.13	33183.24
810.31	32888.33
810.49	32845.32
810.67	32787.98
810.84	32749.07
811.02	32325.14
811.20	32468.50
811.38	32284.18
811.56	32151.06
811.74	31960.60
811.92	31745.56
812.10	32194.07
812.28	32124.44
812.46	31880.73
812.64	32120.34
812.82	31811.10
813.00	31821.34
813.18	32056.85
813.36	31737.37
813.53	31356.45
813.71	31591.97
813.89	31186.47
814.07	31460.90
814.25	31798.81
814.43	31186.47
814.61	31604.25
814.79	31219.24
814.97	30928.42
815.15	31307.30
815.33	30899.75
815.50	30772.78
815.68	31000.10
815.86	30950.95
816.04	31049.25
816.22	30676.52
816.40	30508.59
816.58	30674.48
816.76	30332.47
816.94	30449.20
817.11	30197.30
817.29	30613.04
817.47	30338.61
817.65	30189.11
817.83	30395.95
818.01	30185.01
818.19	30389.81
818.37	30055.99
818.54	29924.92
818.72	29789.75
818.90	29986.36
819.08	29572.67
819.26	29986.36
819.44	29943.35
819.62	29636.16
819.80	29734.46
819.97	29582.91
820.15	29519.42
820.33	29515.33
820.51	29840.95
820.69	28929.61
820.87	29396.54
821.05	29539.90
821.22	29509.18
821.40	29423.17
821.58	29152.84
821.76	29154.88
821.94	28737.10
822.12	29103.68
822.29	29007.43
822.47	29288.00
822.65	29382.21
822.83	29208.13
823.01	28341.84
823.19	28724.81
823.36	28757.58
823.54	28845.64
823.72	28585.55
823.90	28808.78
824.08	28649.03
824.25	28501.58
824.43	28280.40
824.61	28311.12
824.79	28237.39
824.97	28251.73
825.15	28247.63
825.32	28096.08
825.50	28030.55
825.68	27549.28
825.86	28214.87
826.04	28063.32
826.21	27815.51
826.39	27973.21
826.57	27627.10
826.75	28063.32
826.93	27854.42
827.10	27592.28
827.28	27500.12
827.46	27997.78
827.64	27844.18
827.81	27309.66
827.99	27684.44
828.17	27250.27
828.35	27360.86
828.53	27203.17
828.70	27137.63
828.88	27336.29
829.06	27178.59
829.24	27303.52
829.41	27352.67
829.59	27516.51
829.77	27178.59
829.95	27014.76
830.12	26949.22
830.30	26984.04
830.48	27104.87
830.66	26711.66
830.84	27313.76
831.01	26625.64
831.19	27084.39
831.37	26852.97
831.55	26629.74
831.72	26496.62
831.90	26775.14
832.08	26680.94
832.25	26562.15
832.43	26545.77
832.61	26406.51
832.79	26357.36
832.96	26451.56
833.14	26371.69
833.32	26132.08
833.50	26195.57
833.67	26386.03
833.85	26566.25
834.03	26207.86
834.20	26295.92
834.38	26134.13
834.56	26332.78
834.74	25822.84
834.91	26029.68
835.09	25874.04
835.27	25398.91
835.44	25681.53
835.62	25521.79
835.80	25704.06
835.98	25597.56
836.15	25761.40
836.33	25468.54
836.51	25767.54
836.68	25558.65
836.86	25507.45
837.04	25661.05
837.21	25497.21
837.39	25495.16
837.57	25423.48
837.75	25476.73
837.92	25179.78
838.10	25253.50
838.28	24868.48
838.45	25175.68
838.63	24913.54
838.81	25239.17
838.98	25054.85
839.16	24823.43
839.34	24821.38
839.51	25073.28
839.69	24624.78
839.87	24622.73
840.04	24938.12
840.22	24794.76
840.40	24923.78
840.57	24415.88
840.75	24731.27
840.93	24198.80
841.10	24614.54
841.28	24622.73
841.46	24503.95
841.63	24714.89
841.81	24381.07
841.98	24446.60
842.16	24682.12
842.34	24450.70
842.51	24485.51
842.69	24614.54
842.87	24047.25
843.04	24401.55
843.22	24360.59
843.40	24075.92
843.57	24104.59
843.75	23877.27
843.92	24182.42
844.10	23936.66
844.28	24114.83
844.45	23985.81
844.63	23914.13
844.81	23776.92
844.98	24120.98
845.16	24006.29
845.33	24006.29
845.51	23883.41
845.69	23606.94
845.86	23484.06
846.04	23420.57
846.21	23406.23
846.39	23611.03
846.57	23348.89
846.74	23709.33
846.92	23479.96
847.09	23285.40
847.27	23137.95
847.45	23346.84
847.62	23338.65
847.80	23125.66
847.97	23371.42
848.15	23428.76
848.32	23013.02
848.50	23332.51
848.68	22736.55
848.85	23115.42
849.03	22900.39
849.20	23033.50
849.38	22791.84
849.56	23125.66
849.73	22785.70
849.91	22800.04
850.08	23068.32
850.26	22656.68
850.43	22744.74
850.61	22777.51
850.78	22544.04
850.96	22421.16
851.14	22331.05
851.31	22668.97
851.49	22603.43
851.66	22654.63
851.84	22277.80
852.01	22507.18
852.19	22523.56
852.36	22187.69
852.54	22306.48
852.71	22228.65
852.89	22374.06
853.07	22269.61
853.24	22478.50
853.42	22056.62
853.59	22216.36
853.77	22060.72
853.94	22214.32
854.12	22316.72
854.29	21604.02
854.47	22040.24
854.64	22021.81
854.82	21917.36
854.99	22163.12
855.17	21999.28
855.34	21741.24
855.52	22017.71
855.69	22148.78
855.87	21718.71
856.04	21614.26
856.22	21792.44
856.39	21591.73
856.57	21913.27
856.74	21372.60
856.92	21649.08
857.09	21573.30
857.27	21499.58
857.44	21698.23
857.62	21757.62
857.79	21528.25
857.97	21796.53
858.14	21481.14
858.32	21237.44
858.49	21216.96
858.67	21204.67
858.84	21083.84
859.02	21128.89
859.19	20958.91
859.37	20987.58
859.54	20960.96
859.72	21012.16
859.89	20960.96
860.06	21360.31
860.24	21028.54
860.41	20850.37
860.59	20666.05
860.76	20879.04
860.94	20549.32
861.11	20973.25
861.29	20682.44
861.46	20795.07
861.64	20618.95
861.81	20500.17
861.98	20553.41
862.16	20598.47
862.33	20479.69
862.51	20553.41
862.68	20549.32
862.86	20500.17
863.03	20584.13
863.21	20170.44
863.38	20528.84
863.55	20348.62
863.73	20326.09
863.90	20418.25
864.08	20311.75
864.25	20145.87
864.43	20287.18
864.60	20242.12
864.77	20162.25
864.95	19871.44
865.12	19898.06
865.30	20160.20
865.47	19846.87
865.64	19926.74
865.82	20031.18
865.99	19875.54
866.17	20035.28
866.34	19873.49
866.51	19377.88
866.69	20053.71
866.86	20061.90
867.04	19873.49
867.21	19734.23
867.38	19592.92
867.56	19836.63
867.73	19461.85
867.91	19310.30
868.08	19146.46
868.25	19498.71
868.43	19390.17
868.60	19052.25
868.78	19181.28
868.95	19515.09
869.12	19121.88
869.30	19148.51
869.47	19308.25
869.64	19105.50
869.82	19074.78
869.99	19093.21
870.16	19199.71
870.34	19394.26
870.51	19164.89
870.69	19101.40
870.86	19312.35
871.03	18992.86
871.21	18982.62
871.38	19029.73
871.55	18908.90
871.73	18960.09
871.90	18648.80
872.07	18743.01
872.25	18257.64
872.42	18478.82
872.59	18609.89
872.77	18638.56
872.94	18781.92
873.11	18472.68
873.29	18482.92
873.46	18468.58
873.63	18327.27
873.81	18259.69
873.98	18278.12
874.15	18337.51
874.33	17882.86
874.50	17991.41
874.67	18089.71
874.85	18028.27
875.02	17923.82
875.19	18243.31
875.37	18056.94
875.54	17782.51
875.71	17958.64
875.88	17915.63
876.06	17659.63
876.23	17848.05
876.40	17708.79
876.58	17700.59
876.75	17495.80
876.92	17772.27
877.10	17764.08
877.27	17493.75
877.44	17362.68
877.61	17440.50
877.79	17372.92
877.96	17325.82
878.13	17307.38
878.31	17088.25
878.48	17196.79
878.65	17069.82
878.82	16895.74
879.00	17157.88
879.17	16797.44
879.34	16989.95
879.51	17006.33
879.69	17157.88
879.86	16836.35
880.03	16869.12
880.21	16996.09
880.38	17014.52
880.55	17028.86
880.72	16744.19
880.90	16686.85
881.07	16672.51
881.24	16588.55
881.41	16822.02
881.59	16699.14
881.76	16480.00
881.93	16469.76
882.10	16490.24
882.28	16504.58
882.45	16643.84
882.62	16533.25
882.79	16602.88
882.96	16391.94
883.14	16549.64
883.31	16516.87
883.48	16260.87
883.65	16580.36
883.83	16322.31
884.00	16037.64
884.17	16445.19
884.34	16312.07
884.51	16129.80
884.69	16369.41
884.86	16215.82
885.03	16295.69
885.20	15935.24
885.38	16195.34
885.55	16111.37
885.72	16125.71
885.89	15785.74
886.06	16115.47
886.24	15738.64
886.41	16056.08
886.58	16021.26
886.75	16238.34
886.92	15941.39
887.10	16043.79
887.27	15976.20
887.44	16092.94
887.61	16051.98
887.78	15843.09
887.95	15855.37
888.13	15744.78
888.30	15775.50
888.47	15609.62
888.64	15730.45
888.81	15859.47
888.99	15593.23
889.16	15519.51
889.33	15380.25
889.50	15451.92
889.67	15640.34
889.84	15519.51
890.01	15619.86
890.19	15476.50
890.36	15572.75
890.53	15523.60
890.70	15501.08
890.87	15423.25
891.04	15255.32
891.22	15324.95
891.39	15179.54
891.56	15230.74
891.73	15316.76
891.90	15107.87
892.07	15083.29
892.24	15007.52
892.42	14929.69
892.59	15157.02
892.76	14903.07
892.93	14847.77
893.10	14974.75
893.27	14966.56
893.44	14907.16
893.61	14980.89
893.79	15134.49
893.96	14997.28
894.13	14956.32
894.30	15144.73
894.47	14827.29
894.64	14976.80
894.81	15027.99
894.98	14866.21
895.15	14804.77
895.33	14831.39
895.50	14862.11
895.67	14835.49
895.84	14808.86
896.01	14806.81
896.18	14825.25
896.35	14972.70
896.52	14835.49
896.69	14688.03
896.86	14661.41
897.04	14602.02
897.21	14679.84
897.38	14829.34
897.55	14837.53
897.72	14591.78
897.89	14882.59
898.06	14563.11
898.23	14548.77
898.40	14673.70
898.57	14743.33
898.74	14772.00
898.91	14683.94
899.08	14833.44
899.26	14728.99
899.43	14778.14
899.60	14604.07
899.77	14671.65
899.94	14571.30
900.11	14778.14
900.28	14696.22
900.45	14745.38
900.62	14493.47
900.79	14728.99
900.96	14503.71
901.13	14569.25
901.30	14442.28
901.47	14405.41
901.64	14763.81
901.81	14534.43
901.98	14544.67
902.15	14567.20
902.32	14391.08
902.49	14546.72
902.66	14677.79
902.83	14690.08
903.01	14399.27
903.18	14507.81
903.35	14669.60
903.52	14429.99
903.69	14284.58
903.86	14651.17
904.03	14716.70
904.20	14642.98
904.37	14870.30
904.54	14458.66
904.71	14538.53
904.88	14589.73
905.05	14544.67
905.22	14589.73
905.39	14309.16
905.56	14477.09
905.73	14401.32
905.90	14571.30
906.07	14489.38
906.24	14714.66
906.41	14524.19
906.58	14542.63
906.75	14505.76
906.92	14454.56
907.09	14282.53
907.26	14552.87
907.43	14337.83
907.60	14165.80
907.77	14659.36
907.93	14520.10
908.10	14448.42
908.27	14501.67
908.44	14210.86
908.61	14384.93
908.78	14268.20
908.95	14497.57
909.12	14333.73
909.29	14044.97
909.46	14552.87
909.63	14440.23
909.80	14303.01
909.97	14126.89
910.14	14298.92
910.31	14319.40
910.48	14141.22
910.65	14276.39
910.82	14292.77
910.99	14229.29
911.16	14358.31
911.33	14290.73
911.50	14522.15
911.66	14436.13
911.83	14225.19
912.00	14042.92
912.17	13950.76
912.34	14001.96
912.51	14210.86
912.68	13860.65
912.85	14036.78
913.02	14145.32
913.19	13784.88
913.36	14055.21
913.53	13922.09
913.70	13844.27
913.86	14153.51
914.03	13887.28
914.20	13948.72
914.37	13838.12
914.54	13881.13
914.71	13981.48
914.88	13860.65
915.05	13647.66
915.22	13670.19
915.39	13676.34
915.55	13739.82
915.72	13700.91
915.89	13580.08
916.06	13406.00
916.23	13469.49
916.40	13494.07
916.57	13485.87
916.74	13389.62
916.91	13459.25
917.07	13354.80
917.24	13371.19
917.41	13182.77
917.58	13397.81
917.75	13215.54
917.92	12951.35
918.09	13180.73
918.26	13033.27
918.42	13137.72
918.59	13107.00
918.76	12945.21
918.93	12783.42
919.10	12975.93
919.27	12658.49
919.44	12764.99
919.60	13205.30
919.77	12853.05
919.94	12738.37
920.11	12668.73
920.28	12967.74
920.45	12783.42
920.61	12529.47
920.78	12891.96
920.95	12422.98
921.12	12455.75
921.29	12345.16
921.46	12470.08
921.62	12367.68
921.79	12631.87
921.96	12357.44
922.13	12126.02
922.30	12287.81
922.47	12083.02
922.63	12148.55
922.80	12089.16
922.97	12300.10
923.14	11953.99
923.31	12205.89
923.47	12009.29
923.64	11896.65
923.81	11630.41
923.98	11872.07
924.15	11833.16
924.32	11779.92
924.48	11824.97
924.65	11749.20
924.82	11577.17
924.99	11538.26
925.15	11646.80
925.32	11505.49
925.49	11390.80
925.66	11417.43
925.83	11442.00
925.99	11296.60
926.16	11280.21
926.33	11200.34
926.50	11036.50
926.67	11317.08
926.83	11306.84
927.00	11007.83
927.17	11040.60
927.34	10866.52
927.50	10968.92
927.67	11013.98
927.84	10977.11
928.01	10993.50
928.17	10946.39
928.34	10753.88
928.51	10657.63
928.68	10747.74
928.84	10641.25
929.01	10448.74
929.18	10332.00
929.35	10618.72
929.51	10600.29
929.68	10434.40
929.85	10192.74
930.02	10332.00
930.18	10426.21
930.35	10250.08
930.52	10184.55
930.69	10166.12
930.85	10182.50
931.02	10088.29
931.19	10121.06
931.36	9957.22
931.52	10116.97
931.69	10035.05
931.86	9774.95
932.02	9760.62
932.19	9820.01
932.36	9873.26
932.53	9707.37
932.69	9531.25
932.86	9660.27
933.03	9723.76
933.19	9473.90
933.36	9467.76
933.53	9443.18
933.70	9525.10
933.86	9432.94
934.03	9351.03
934.20	9015.16
934.36	9197.43
934.53	8986.49
934.70	8894.33
934.86	8947.58
935.03	8918.90
935.20	8931.19
935.36	8793.98
935.53	8644.48
935.70	8660.86
935.86	8693.63
936.03	8548.22
936.20	8259.46
936.36	8445.82
936.53	8343.42
936.70	8261.51
936.86	8523.65
937.03	8300.42
937.20	8023.94
937.36	8095.62
937.53	7710.60
937.70	7782.28
937.86	7808.90
938.03	7585.68
938.20	7602.06
938.36	7499.66
938.53	7425.93
938.70	7212.95
938.86	7233.43
939.03	7210.90
939.20	7083.92
939.36	7139.22
939.53	7094.16
939.70	7169.94
939.86	6881.18
940.03	6797.21
940.19	6571.93
940.36	6676.38
940.53	6625.18
940.69	6592.41
940.86	6606.75
941.03	6424.48
941.19	6274.98
941.36	6365.09
941.52	6295.46
941.69	6305.70
941.86	6172.58
942.02	6104.99
942.19	5902.25
942.35	6037.41
942.52	5822.38
942.69	5875.62
942.85	5769.13
943.02	5822.38
943.18	5711.78
943.35	5746.60
943.52	5756.84
943.68	5701.54
943.85	5679.02
944.01	5537.71
944.18	5584.81
944.35	5543.85
944.51	5429.17
944.68	5386.16
944.84	5449.64
945.01	5441.45
945.17	5490.60
945.34	5416.88
945.51	5306.29
945.67	5402.54
945.84	5396.40
946.00	5253.04
946.17	5271.47
946.33	5310.38
946.50	5281.71
946.67	5152.69
946.83	5195.70
947.00	5283.76
947.16	5175.22
947.33	5173.17
947.49	5148.59
947.66	5148.59
947.82	5308.34
947.99	5240.75
948.16	5277.62
948.32	5320.62
948.49	5279.66
948.65	5218.22
948.82	5121.97
948.98	5115.83
949.15	5105.59
949.31	5216.18
949.48	5212.08
949.64	5212.08
949.81	5285.81
949.97	5218.22
950.14	5345.20
950.30	5250.99
950.47	5197.74
950.63	5390.25
950.80	5285.81
950.96	5236.66
951.13	5181.36
951.30	5253.04
951.46	5304.24
951.63	5547.95
951.79	5377.97
951.96	5203.89
952.12	5380.01
952.29	5326.77
952.45	5361.58
952.62	5177.26
952.78	5382.06
952.94	5248.94
953.11	5324.72
953.27	5212.08
953.44	5451.69
953.60	5361.58
953.77	5597.10
953.93	5316.53
954.10	5279.66
954.26	5281.71
954.43	5210.03
954.59	5345.20
954.76	5476.27
954.92	5367.73
955.09	5400.49
955.25	5429.17
955.42	5271.47
955.58	5474.22
955.75	5410.73
955.91	5283.76
956.07	5427.12
956.24	5449.64
956.40	5400.49
956.57	5607.34
956.73	5345.20
956.90	5468.08
957.06	5367.73
957.23	5513.13
957.39	5480.36
957.56	5384.11
957.72	5345.20
957.88	5261.23
958.05	5468.08
958.21	5457.84
958.38	5429.17
958.54	5375.92
958.71	5566.38
958.87	5459.88
959.03	5517.23
959.20	5468.08
959.36	5380.01
959.53	5359.53
959.69	5343.15
959.85	5576.62
960.02	5398.45
960.18	5312.43
960.35	5384.11
960.51	5459.88
960.68	5189.55
960.84	5449.64
961.00	5210.03
961.17	5300.14
961.33	5289.90
961.50	5283.76
961.66	5513.13
961.82	5263.28
961.99	5322.67
962.15	5337.01
962.31	5345.20
962.48	5349.29
962.64	5570.48
962.81	5388.21
962.97	5351.34
963.13	5445.55
963.30	5488.56
963.46	5283.76
963.62	5320.62
963.79	5408.69
963.95	5273.52
964.12	5359.53
964.28	5330.86
964.44	5226.42
964.61	5365.68
964.77	5308.34
964.93	5406.64
965.10	5349.29
965.26	5244.85
965.42	5353.39
965.59	5302.19
965.75	5210.03
965.92	5261.23
966.08	5304.24
966.24	5246.90
966.41	5259.18
966.57	5201.84
966.73	5300.14
966.90	5506.99
967.06	5248.94
967.22	5291.95
967.39	5150.64
967.55	5115.83
967.71	5242.80
967.88	5111.73
968.04	5113.78
968.20	5060.53
968.37	5138.35
968.53	5146.55
968.69	5062.58
968.85	5320.62
969.02	5259.18
969.18	5074.87
969.34	5089.20
969.51	5195.70
969.67	5201.84
969.83	4978.61
970.00	5132.21
970.16	4982.71
970.32	5021.62
970.48	5261.23
970.65	4988.85
970.81	4884.41
970.97	5105.59
971.14	4902.84
971.30	5169.07
971.46	5013.43
971.63	4941.75
971.79	5031.86
971.95	4970.42
972.11	4890.55
972.28	4990.90
972.44	5040.05
972.60	4935.60
972.76	4923.32
972.93	5015.48
973.09	5115.83
973.25	4917.17
973.42	4894.65
973.58	4972.47
973.74	4837.30
973.90	4949.94
974.07	4841.40
974.23	4851.64
974.39	4956.08
974.55	4798.39
974.72	4870.07
974.88	4710.33
975.04	4726.71
975.20	4683.70
975.37	4923.32
975.53	4771.77
975.69	4665.27
975.85	4775.86
976.01	4693.94
976.18	4714.42
976.34	4784.06
976.50	4734.90
976.66	4753.34
976.83	4630.46
976.99	4784.06
977.15	4663.22
977.31	4591.55
977.47	4822.97
977.64	4761.53
977.80	4624.31
977.96	4618.17
978.12	4665.27
978.29	4638.65
978.45	4573.11
978.61	4501.44
978.77	4677.56
978.93	4468.67
979.10	4579.26
979.26	4556.73
979.42	4470.72
979.58	4343.74
979.74	4452.28
979.91	4501.44
980.07	4362.17
980.23	4569.02
980.39	4466.62
980.55	4509.63
980.71	4429.76
980.88	4542.39
981.04	4343.74
981.20	4251.58
981.36	4308.93
981.52	4478.91
981.68	4329.41
981.85	4288.45
982.01	4339.65
982.17	4374.46
982.33	4356.03
982.49	4362.17
982.65	4280.25
982.82	4280.25
982.98	4366.27
983.14	4159.42
983.30	4306.88
983.46	4364.22
983.62	4302.78
983.79	4106.18
983.95	4321.21
984.11	4169.66
984.27	4192.19
984.43	4181.95
984.59	4253.63
984.75	4317.12
984.91	4151.23
985.08	4319.17
985.24	4114.37
985.40	4132.80
985.56	4255.68
985.72	4095.94
985.88	4120.51
986.04	4165.57
986.20	4052.93
986.37	4136.90
986.53	4050.88
986.69	4153.28
986.85	3956.68
987.01	4153.28
987.17	4110.27
987.33	3966.92
987.49	3997.64
987.65	4030.40
987.82	3952.58
987.98	4001.73
988.14	3946.44
988.30	4052.93
988.46	3895.24
988.62	4024.26
988.78	3901.38
988.94	3889.09
989.10	3907.52
989.26	3876.80
989.42	3899.33
989.59	3815.37
989.75	3801.03
989.91	3946.44
990.07	3737.54
990.23	3790.79
990.39	3862.47
990.55	3899.33
990.71	3667.91
990.87	3764.17
991.03	3780.55
991.19	3712.97
991.35	3872.71
991.51	3796.93
991.67	3866.56
991.83	3674.06
992.00	3770.31
992.16	3803.08
992.32	3758.02
992.48	3780.55
992.64	3575.75
992.80	3692.49
992.96	3698.63
993.12	3739.59
993.28	3647.43
993.44	3710.92
993.60	3719.11
993.76	3655.62
993.92	3655.62
994.08	3721.16
994.24	3762.12
994.40	3643.34
994.56	3710.92
994.72	3563.47
994.88	3629.00
995.04	3563.47
995.20	3571.66
995.36	3452.88
995.52	3518.41
995.68	3514.31
995.84	3475.40
996.00	3805.13
996.16	3635.14
996.32	3444.68
996.48	3424.20
996.64	3481.55
996.80	3346.38
996.96	3487.69
997.12	3438.54
997.28	3434.44
997.44	3360.72
997.60	3469.26
997.76	3395.53
997.92	3528.65
998.08	3409.87
998.24	3338.19
998.40	3463.12
998.56	3442.64
998.72	3297.23
998.88	3397.58
999.04	3352.52
999.20	3426.25
999.36	3153.87
999.52	3375.05
999.68	3360.72
999.84	3282.89
1000.00	3368.91
1000.16	3448.78
1000.32	3147.73
1000.48	3340.24
1000.64	3182.54
1000.80	3327.95
1000.95	3194.83
1001.11	3303.37
1001.27	3207.12
1001.43	3229.65
1001.59	3172.30
1001.75	3217.36
1001.91	3241.93
1002.07	3039.19
1002.23	3155.92
1002.39	3123.15
1002.55	3139.54
1002.71	3241.93
1002.87	3262.41
1003.03	3125.20
1003.19	3104.72
1003.34	3205.07
1003.50	3051.47
1003.66	3186.64
1003.82	3102.67
1003.98	3143.63
1004.14	3100.62
1004.30	3119.06
1004.46	3012.56
1004.62	3010.51
1004.78	3071.95
1004.94	3018.71
1005.09	3131.34
1005.25	3030.99
1005.41	2883.54
1005.57	2914.26
1005.73	2951.12
1005.89	3014.61
1006.05	3033.04
1006.21	2938.84
1006.37	2850.77
1006.52	2934.74
1006.68	2967.51
1006.84	3004.37
1007.00	2965.46
1007.16	2871.25
1007.32	2875.35
1007.48	2992.08
1007.64	2840.53
1007.79	2883.54
1007.95	2826.20
1008.11	2990.03
1008.27	2752.47
1008.43	2934.74
1008.59	2912.21
1008.75	2877.40
1008.91	2879.44
1009.06	2885.59
1009.22	2924.50
1009.38	2873.30
1009.54	2818.00
1009.70	2764.76
1009.86	2844.63
1010.01	2826.20
1010.17	2801.62
1010.33	2713.56
1010.49	2674.65
1010.65	2756.57
1010.81	2748.37
1010.96	2668.50
1011.12	2727.89
1011.28	2662.36
1011.44	2795.48
1011.60	2715.61
1011.76	2760.66
1011.91	2807.77
1012.07	2684.89
1012.23	2674.65
1012.39	2582.49
1012.55	2785.24
1012.71	2652.12
1012.86	2537.43
1013.02	2691.03
1013.18	2648.02
1013.34	2633.69
1013.50	2779.09
1013.65	2803.67
1013.81	2551.77
1013.97	2617.30
1014.13	2641.88
1014.29	2623.45
1014.44	2609.11
1014.60	2572.25
1014.76	2621.40
1014.92	2654.17
1015.07	2543.58
1015.23	2611.16
1015.39	2559.96
1015.55	2564.06
1015.71	2654.17
1015.86	2568.15
1016.02	2523.10
1016.18	2512.86
1016.34	2625.50
1016.49	2418.65
1016.65	2519.00
1016.81	2521.05
1016.97	2484.19
1017.12	2529.24
1017.28	2484.19
1017.44	2443.23
1017.60	2424.80
1017.75	2439.13
1017.91	2490.33
1018.07	2469.85
1018.23	2506.71
1018.38	2486.23
1018.54	2465.75
1018.70	2410.46
1018.86	2363.36
1019.01	2359.26
1019.17	2385.88
1019.33	2496.47
1019.49	2467.80
1019.64	2420.70
1019.80	2494.43
1019.96	2441.18
1020.12	2453.47
1020.27	2328.54
1020.43	2383.84
1020.59	2396.12
1020.74	2342.88
1020.90	2375.64
1021.06	2349.02
1021.22	2340.83
1021.37	2351.07
1021.53	2271.20
1021.69	2367.45
1021.84	2308.06
1022.00	2289.63
1022.16	2207.71
1022.31	2248.67
1022.47	2332.64
1022.63	2283.49
1022.79	2306.01
1022.94	2242.53
1023.10	2426.84
1023.26	2181.09
1023.41	2267.10
1023.57	2238.43
1023.73	2312.16
1023.88	2269.15
1024.04	2246.62
1024.20	2234.33
1024.35	2269.15
1024.51	2275.29
1024.67	2301.92
1024.82	2273.25
1024.98	2183.13
1025.14	2289.63
1025.29	2093.02
1025.45	2299.87
1025.61	2176.99
1025.76	2258.91
1025.92	2215.90
1026.08	2140.13
1026.23	2230.24
1026.39	2256.86
1026.55	2265.05
1026.70	2123.74
1026.86	2258.91
1027.02	2240.48
1027.17	2209.76
1027.33	2138.08
1027.48	2158.56
1027.64	2082.78
1027.80	2090.98
1027.95	2217.95
1028.11	2039.78
1028.27	2095.07
1028.42	2232.29
1028.58	2195.42
1028.73	2074.59
1028.89	2117.60
1029.05	2115.55
1029.20	2166.75
>>>>>End Processed Spectral Data<<<<<
