SpectraSuite Data File
++++++++++++++++++++++++++++++++++++
Date: Fri Jun 02 14:51:09 CEST 2017
User: INFO_000
Dark Spectrum Present: No
Reference Spectrum Present: No
Number of Sampled Component Spectra: 1
Spectrometers: USB4H00879
Integration Time (usec): 80000 (USB4H00879)
Spectra Averaged: 1 (USB4H00879)
Boxcar Smoothing: 0 (USB4H00879)
Correct for Electrical Dark: No (USB4H00879)
Strobe/Lamp Enabled: No (USB4H00879)
Correct for Detector Non-linearity: No (USB4H00879)
Correct for Stray Light: No (USB4H00879)
Number of Pixels in Processed Spectrum: 3648
>>>>>Begin Processed Spectral Data<<<<<
345.13	1241.07
345.34	1241.07
345.56	1241.07
345.78	1243.12
345.99	1226.73
346.21	1691.62
346.42	1669.09
346.64	1615.85
346.86	1816.55
347.07	1685.48
347.29	1687.53
347.50	1587.18
347.72	1699.81
347.94	1826.79
348.15	1591.27
348.37	1599.46
348.59	1685.48
348.80	1695.72
349.02	1822.69
349.23	1941.47
349.45	1806.31
349.67	1849.32
349.88	1785.83
350.10	1918.95
350.31	1855.46
350.53	1777.64
350.75	2037.73
350.96	1863.65
351.18	1832.93
351.39	1841.12
351.61	1832.93
351.82	1918.95
352.04	1904.61
352.26	1775.59
352.47	1902.56
352.69	1877.99
352.90	1783.78
353.12	1820.64
353.34	1859.56
353.55	1880.04
353.77	1839.08
353.98	1847.27
354.20	1775.59
354.41	1863.65
354.63	1863.65
354.85	2033.63
355.06	1941.47
355.28	1804.26
355.49	1914.85
355.71	1845.22
355.92	1826.79
356.14	1945.57
356.35	1892.32
356.57	1765.35
356.79	1904.61
357.00	1910.75
357.22	1992.67
357.43	1875.94
357.65	2068.45
357.86	1828.84
358.08	1902.56
358.29	1920.99
358.51	1986.53
358.72	1984.48
358.94	1912.80
359.16	1925.09
359.37	1888.23
359.59	1941.47
359.80	1935.33
360.02	1937.38
360.23	1949.67
360.45	1980.39
360.66	1988.58
360.88	1871.84
361.09	1923.04
361.31	1929.19
361.52	1992.67
361.74	2019.30
361.95	2029.54
362.17	1961.95
362.38	2095.07
362.60	2004.96
362.81	1912.80
363.03	1992.67
363.24	1947.62
363.46	2064.35
363.67	2062.30
363.89	1982.43
364.10	1951.71
364.32	1945.57
364.53	2113.50
364.75	1996.77
364.96	1970.15
365.18	1986.53
365.39	1988.58
365.61	1875.94
365.82	2047.97
366.04	1947.62
366.25	1976.29
366.47	1990.63
366.68	2031.58
366.90	1925.09
367.11	2017.25
367.33	2029.54
367.54	2035.68
367.76	2033.63
367.97	2121.70
368.19	2066.40
368.40	2119.65
368.62	1931.23
368.83	1984.48
369.05	2086.88
369.26	1959.91
369.48	2019.30
369.69	1968.10
369.91	1984.48
370.12	1964.00
370.33	2080.74
370.55	2002.91
370.76	2066.40
370.98	2166.75
371.19	1998.82
371.41	1939.43
371.62	2019.30
371.84	2004.96
372.05	2123.74
372.27	2002.91
372.48	2082.78
372.69	2088.93
372.91	2179.04
373.12	2174.94
373.34	2103.26
373.55	2088.93
373.77	2064.35
373.98	2058.21
374.20	2140.13
374.41	2191.33
374.62	2158.56
374.84	2127.84
375.05	2250.72
375.27	2121.70
375.48	2152.42
375.70	2076.64
375.91	2211.81
376.12	2215.90
376.34	2093.02
376.55	2109.41
376.77	2197.47
376.98	2056.16
377.19	2078.69
377.41	2076.64
377.62	2129.89
377.84	2244.57
378.05	2310.11
378.27	2207.71
378.48	2273.25
378.69	2385.88
378.91	2228.19
379.12	2174.94
379.34	2187.23
379.55	2342.88
379.76	2344.92
379.98	2203.61
380.19	2291.68
380.41	2234.33
380.62	2351.07
380.83	2211.81
381.05	2158.56
381.26	2377.69
381.47	2189.28
381.69	2263.01
381.90	2303.96
382.12	2252.77
382.33	2281.44
382.54	2250.72
382.76	2230.24
382.97	2248.67
383.19	2158.56
383.40	2320.35
383.61	2256.86
383.83	2220.00
384.04	2267.10
384.25	2396.12
384.47	2367.45
384.68	2322.40
384.89	2322.40
385.11	2355.16
385.32	2334.68
385.54	2357.21
385.75	2367.45
385.96	2263.01
386.18	2310.11
386.39	2338.78
386.60	2265.05
386.82	2437.08
387.03	2449.37
387.24	2469.85
387.46	2379.74
387.67	2478.04
387.88	2416.60
388.10	2398.17
388.31	2416.60
388.52	2516.95
388.74	2420.70
388.95	2322.40
389.16	2402.27
389.38	2455.51
389.59	2496.47
389.80	2605.02
390.02	2428.89
390.23	2475.99
390.44	2420.70
390.66	2490.33
390.87	2379.74
391.08	2496.47
391.30	2658.26
391.51	2598.87
391.72	2600.92
391.94	2594.78
392.15	2541.53
392.36	2600.92
392.58	2529.24
392.79	2568.15
393.00	2654.17
393.22	2629.59
393.43	2731.99
393.64	2723.80
393.85	2754.52
394.07	2584.54
394.28	2721.75
394.49	2703.32
394.71	2740.18
394.92	2770.90
395.13	2695.13
395.35	2680.79
395.56	2674.65
395.77	2731.99
395.98	2705.37
396.20	2838.48
396.41	2705.37
396.62	2826.20
396.84	2766.81
397.05	2813.91
397.26	2856.92
397.47	2830.29
397.69	2754.52
397.90	3024.85
398.11	2854.87
398.32	2895.83
398.54	2818.00
398.75	2809.81
398.96	2891.73
399.18	2908.12
399.39	2852.82
399.60	3067.86
399.81	2867.16
400.03	2879.44
400.24	3203.02
400.45	2881.49
400.66	3033.04
400.88	2971.60
401.09	3094.48
401.30	3096.53
401.51	3092.43
401.73	3149.78
401.94	3057.62
402.15	3123.15
402.36	3041.23
402.58	3088.34
402.79	3139.54
403.00	3174.35
403.21	3172.30
403.43	3268.56
403.64	3254.22
403.85	3121.10
404.06	3104.72
404.27	3106.77
404.49	3239.89
404.70	3106.77
404.91	3297.23
405.12	3192.78
405.34	3184.59
405.55	3424.20
405.76	3172.30
405.97	3215.31
406.19	3336.14
406.40	3219.41
406.61	3303.37
406.82	3190.74
407.03	3145.68
407.25	3303.37
407.46	3358.67
407.67	3332.05
407.88	3387.34
408.09	3217.36
408.31	3313.61
408.52	3299.28
408.73	3260.37
408.94	3307.47
409.15	3370.96
409.37	3424.20
409.58	3405.77
409.79	3448.78
410.00	3528.65
410.21	3307.47
410.43	3354.57
410.64	3360.72
410.85	3520.46
411.06	3338.19
411.27	3592.14
411.48	3469.26
411.70	3348.43
411.91	3483.59
412.12	3557.32
412.33	3477.45
412.54	3590.09
412.76	3694.54
412.97	3553.23
413.18	3510.22
413.39	3538.89
413.60	3620.81
413.81	3717.06
414.03	3549.13
414.24	3536.84
414.45	3790.79
414.66	3538.89
414.87	3784.65
415.08	3520.46
415.30	3569.61
415.51	3684.30
415.72	3682.25
415.93	3624.90
416.14	3629.00
416.35	3739.59
416.56	3758.02
416.78	3755.97
416.99	3743.69
417.20	3723.21
417.41	3792.84
417.62	3819.46
417.83	3737.54
418.04	3674.06
418.26	3798.98
418.47	3723.21
418.68	3839.94
418.89	3913.67
419.10	4026.31
419.31	3833.80
419.52	3835.85
419.73	3878.85
419.95	3921.86
420.16	3893.19
420.37	3801.03
420.58	3979.20
420.79	3727.30
421.00	3968.96
421.21	4052.93
421.42	3796.93
421.63	4032.45
421.85	3977.16
422.06	4018.11
422.27	4104.13
422.48	4095.94
422.69	4059.07
422.90	3989.44
423.11	4126.66
423.32	4138.94
423.53	4177.86
423.75	4198.34
423.96	4210.62
424.17	4194.24
424.38	4296.64
424.59	4177.86
424.80	4310.97
425.01	4255.68
425.22	4214.72
425.43	4173.76
425.64	4501.44
425.85	4442.04
426.06	4306.88
426.28	4288.45
426.49	4247.49
426.70	4329.41
426.91	4392.89
427.12	4491.20
427.33	4495.29
427.54	4485.05
427.75	4480.96
427.96	4708.28
428.17	4470.72
428.38	4530.11
428.59	4573.11
428.80	4468.67
429.01	4616.12
429.23	4460.48
429.44	4730.81
429.65	4806.58
429.86	4794.29
430.07	4483.00
430.28	4595.64
430.49	4718.52
430.70	4831.16
430.91	4906.93
431.12	4802.49
431.33	4970.42
431.54	4886.45
431.75	4896.69
431.96	4923.32
432.17	4923.32
432.38	4886.45
432.59	5191.60
432.80	4960.18
433.01	4908.98
433.22	5119.92
433.43	5081.01
433.64	5076.91
433.85	5130.16
434.06	5181.36
434.27	5162.93
434.49	5150.64
434.70	5302.19
434.91	5132.21
435.12	5169.07
435.33	5203.89
435.54	5341.10
435.75	5078.96
435.96	5181.36
436.17	5197.74
436.38	5488.56
436.59	5515.18
436.80	5349.29
437.01	5590.95
437.22	5451.69
437.43	5500.84
437.64	5310.38
437.85	5511.08
438.06	5480.36
438.27	5474.22
438.48	5484.46
438.69	5672.87
438.90	5617.58
439.11	5506.99
439.32	5701.54
439.53	5627.82
439.74	5746.60
439.95	5623.72
440.16	5638.06
440.37	5711.78
440.57	5744.55
440.78	5705.64
440.99	5881.77
441.20	5783.46
441.41	5646.25
441.62	5832.62
441.83	5734.31
442.04	5918.63
442.25	5935.01
442.46	5896.10
442.67	6045.60
442.88	6301.60
443.09	5887.91
443.30	5861.29
443.51	5990.31
443.72	6258.59
443.93	6090.66
444.14	6360.99
444.35	5904.29
444.56	6199.20
444.77	6240.16
444.98	6117.28
445.19	6131.62
445.40	6250.40
445.61	6135.71
445.81	6404.00
446.02	6414.24
446.23	6250.40
446.44	6123.43
446.65	6311.84
446.86	6227.87
447.07	6496.16
447.28	6422.43
447.49	6494.11
447.70	6426.53
447.91	6518.68
448.12	6510.49
448.33	6651.80
448.54	6533.02
448.74	6565.79
448.95	6653.85
449.16	6606.75
449.37	6770.58
449.58	6614.94
449.79	6768.54
450.00	6655.90
450.21	6791.06
450.42	6993.81
450.63	6856.60
450.84	6758.30
451.05	6850.46
451.25	6776.73
451.46	6805.40
451.67	7042.96
451.88	7016.34
452.09	6952.85
452.30	6934.42
452.51	7085.97
452.72	6938.52
452.93	7505.81
453.13	6901.65
453.34	7049.11
453.55	7083.92
453.76	7014.29
453.97	7247.76
454.18	7237.52
454.39	7192.47
454.60	7212.95
454.81	7169.94
455.01	7423.89
455.22	7165.84
455.43	7307.15
455.64	7544.72
455.85	7565.20
456.06	7659.40
456.27	7374.74
456.48	7485.33
456.68	7456.65
456.89	7612.30
457.10	7618.44
457.31	7696.27
457.52	7796.62
457.73	7841.67
457.94	7849.86
458.14	7681.93
458.35	8138.63
458.56	8005.51
458.77	7882.63
458.98	7782.28
459.19	8005.51
459.39	7980.93
459.60	8195.97
459.81	8034.18
460.02	8193.92
460.23	8208.26
460.44	8421.25
460.65	8212.35
460.85	8324.99
461.06	8341.38
461.27	8228.74
461.48	8558.46
461.69	8482.69
461.89	8243.07
462.10	8685.44
462.31	8310.66
462.52	8515.45
462.73	8542.08
462.94	8808.31
463.14	8634.24
463.35	8900.47
463.56	9301.87
463.77	8916.86
463.98	8759.16
464.18	8705.92
464.39	9119.60
464.60	9314.16
464.81	9170.80
465.02	9011.06
465.23	9496.43
465.43	9205.62
465.64	9375.60
465.85	9340.79
466.06	9281.39
466.27	9498.48
466.47	9377.65
466.68	9473.90
466.89	9576.30
467.10	9633.64
467.30	9379.70
467.51	9690.99
467.72	9973.61
467.93	9488.24
468.14	9744.24
468.34	9949.03
468.55	9981.80
468.76	10139.49
468.97	9758.57
469.17	10153.83
469.38	10139.49
469.59	10366.82
469.80	10123.11
470.01	10073.96
470.21	10360.67
470.42	10530.66
470.63	10493.79
470.84	10409.83
471.04	10493.79
471.25	10776.41
471.46	10729.31
471.67	11044.70
471.87	10778.46
472.08	11054.94
472.29	11132.76
472.50	10655.58
472.70	11038.55
472.91	11093.85
473.12	11302.74
473.33	11386.71
473.53	11499.34
473.74	11118.42
473.95	11540.30
474.16	11454.29
474.36	11691.85
474.57	11798.35
474.78	12011.34
474.99	11749.20
475.19	11882.31
475.40	12148.55
475.61	12101.45
475.81	12425.03
476.02	12429.12
476.23	12119.88
476.44	12560.19
476.64	12664.64
476.85	12646.21
477.06	12756.80
477.27	12879.68
477.47	12867.39
477.68	12879.68
477.89	13086.52
478.09	13041.46
478.30	13193.01
478.51	13133.62
478.71	13371.19
478.92	13633.33
479.13	13489.97
479.34	13807.41
479.54	13813.55
479.75	13881.13
479.96	13647.66
480.16	13836.08
480.37	14012.20
480.58	14362.40
480.78	14257.96
480.99	14335.78
481.20	14403.36
481.41	14415.65
481.61	14632.74
481.82	14651.17
482.03	14749.47
482.23	14589.73
482.44	15126.30
482.65	15183.64
482.85	15191.83
483.06	15257.37
483.27	15345.43
483.47	15529.75
483.68	15601.43
483.89	15738.64
484.09	15580.95
484.30	15838.99
484.51	15986.44
484.71	16236.30
484.92	15908.62
485.13	16035.60
485.33	15974.16
485.54	16269.06
485.75	16602.88
485.95	16678.66
486.16	16764.67
486.37	16740.10
486.57	16588.55
486.78	16883.45
486.98	16776.96
487.19	17174.27
487.40	17366.78
487.60	17278.71
487.81	17700.59
488.02	17444.60
488.22	17432.31
488.43	17731.31
488.64	17719.03
488.84	17743.60
489.05	18034.41
489.25	18083.56
489.46	18386.66
489.67	18173.67
489.87	18530.02
490.08	18546.40
490.29	18102.00
490.49	18869.98
490.70	18824.93
490.90	19001.05
491.11	18669.28
491.32	18880.22
491.52	19091.16
491.73	19285.72
491.94	19427.03
492.14	19267.29
492.35	19515.09
492.55	19390.17
492.76	19515.09
492.97	19746.51
493.17	19728.08
493.38	19900.11
493.58	20289.23
493.79	19984.08
494.00	19928.78
494.20	20082.38
494.41	20377.29
494.61	20438.73
494.82	20498.12
495.02	20641.48
495.23	20801.22
495.44	20862.66
495.64	20940.48
495.85	20874.95
496.05	21098.17
496.26	21040.83
496.47	21401.27
496.67	21210.81
496.88	21601.97
497.08	21028.54
497.29	21589.69
497.49	21419.71
497.70	21855.92
497.91	21413.56
498.11	21855.92
498.32	21874.35
498.52	21798.58
498.73	22066.86
498.93	21927.60
499.14	22455.98
499.34	22703.78
499.55	22488.74
499.76	22220.46
499.96	22421.16
500.17	22353.58
500.37	22613.67
500.58	22787.75
500.78	22951.59
500.99	22927.01
501.19	23090.85
501.40	23199.39
501.60	22857.38
501.81	23060.13
502.02	23301.79
502.22	23099.04
502.43	23604.89
502.63	23746.20
502.84	23488.15
503.04	23439.00
503.25	23563.93
503.45	23561.88
503.66	23647.90
503.86	23711.38
504.07	23830.16
504.27	23932.56
504.48	24135.31
504.68	23930.51
504.89	24401.55
505.09	24116.88
505.30	24536.71
505.50	24112.78
505.71	24264.33
505.91	24481.42
506.12	24432.27
506.32	24542.86
506.53	24747.65
506.73	24520.33
506.94	24768.13
507.14	24694.41
507.35	24989.31
507.55	24729.22
507.76	25271.93
507.96	25112.19
508.17	24727.17
508.37	25224.83
508.58	25253.50
508.78	25110.14
508.99	25501.31
509.19	25179.78
509.40	25259.65
509.60	25458.30
509.81	25489.02
510.01	25413.24
510.22	25415.29
510.42	25525.88
510.63	25841.27
510.83	25683.58
511.04	25749.11
511.24	25675.38
511.44	25749.11
511.65	26017.40
511.85	25452.16
512.06	26156.66
512.26	25935.48
512.47	26248.82
512.67	25894.52
512.88	26023.54
513.08	25804.41
513.29	26238.58
513.49	25970.29
513.69	26125.94
513.90	26476.14
514.10	26123.89
514.31	26764.90
514.51	26422.89
514.72	26261.10
514.92	26529.39
515.13	26449.52
515.33	26439.28
515.53	26500.72
515.74	26482.28
515.94	26902.12
516.15	26654.31
516.35	26728.04
516.56	26787.43
516.76	26959.46
516.96	26805.86
517.17	26842.73
517.37	26654.31
517.58	26979.94
517.78	27127.39
517.99	26910.31
518.19	27362.91
518.39	27211.36
518.60	27362.91
518.80	27364.96
519.01	27557.47
519.21	27289.18
519.41	27340.38
519.62	27301.47
519.82	27758.17
520.03	27362.91
520.23	27848.28
520.43	27477.60
520.64	27840.09
520.84	27735.64
521.05	28171.86
521.25	27731.54
521.45	28231.25
521.66	28167.76
521.86	28020.31
522.07	28282.45
522.27	28313.17
522.47	28155.47
522.68	28563.02
522.88	28184.15
523.08	28573.26
523.29	28421.71
523.49	28624.46
523.70	28702.28
523.90	28778.06
524.10	28700.23
524.31	28902.98
524.51	28888.65
524.71	29060.68
524.92	28986.95
525.12	28943.94
525.33	29240.90
525.53	28945.99
525.73	29546.05
525.94	29486.65
526.14	29562.43
526.34	29683.26
526.55	29931.06
526.75	29752.89
526.95	29730.36
527.16	29560.38
527.36	29589.05
527.56	29728.31
527.77	30266.93
527.97	30131.76
528.17	29834.81
528.38	30400.05
528.58	30123.57
528.78	30500.40
528.99	30426.67
529.19	30678.57
529.39	30078.52
529.60	30723.63
529.80	30490.16
530.00	30561.84
530.21	31286.82
530.41	31153.70
530.61	31039.01
530.82	30856.75
531.02	31325.73
531.22	31204.90
531.43	31223.33
531.63	31436.32
531.83	31821.34
532.04	32110.10
532.24	31503.90
532.44	31649.31
532.64	31641.12
532.85	32073.24
533.05	32151.06
533.25	32140.82
533.46	32224.79
533.66	32517.65
533.86	32294.42
534.07	32620.05
534.27	32550.42
534.47	33125.89
534.67	32712.20
534.88	32962.06
535.08	32871.95
535.28	32873.99
535.49	32964.10
535.69	33474.05
535.89	33426.95
536.09	33338.88
536.30	33580.54
536.50	33543.68
536.70	33603.07
536.91	34004.47
537.11	34035.19
537.31	33605.12
537.51	33410.56
537.72	34477.55
537.92	34141.69
538.12	34495.99
538.32	34190.84
538.53	34498.03
538.73	33957.37
538.93	34557.42
539.13	34647.54
539.34	34434.55
539.54	34631.15
539.74	35044.84
539.94	34569.71
540.15	34831.85
540.35	35089.90
540.55	35067.37
540.75	35163.62
540.96	35614.18
541.16	35479.01
541.36	35436.00
541.56	35368.42
541.77	35812.83
541.97	35661.28
542.17	36066.78
542.37	35890.65
542.58	35917.28
542.78	35976.67
542.98	35980.76
543.18	36292.05
543.38	36472.28
543.59	36378.07
543.79	36472.28
543.99	36316.63
544.19	36599.25
544.40	36636.11
544.60	36834.77
544.80	36840.91
545.00	36431.32
545.20	37461.44
545.41	37092.81
545.61	36898.25
545.81	37131.72
546.01	37645.76
546.21	37125.58
546.42	37287.37
546.62	37563.84
546.82	37475.78
547.02	37447.11
547.22	37719.49
547.43	37680.58
547.63	37959.10
547.83	37729.73
548.03	37461.44
548.23	38161.85
548.44	38149.56
548.64	38147.51
548.84	38309.30
549.04	37979.58
549.24	38499.76
549.45	38823.34
549.65	38479.28
549.85	39001.52
550.05	38831.54
550.25	38677.94
550.45	39325.10
550.66	38903.21
550.86	38671.79
551.06	39022.00
551.26	39234.99
551.46	39257.51
551.66	39241.13
551.87	39212.46
552.07	39126.44
552.27	39392.68
552.47	39196.07
552.67	39859.62
552.87	39626.15
553.07	39779.74
553.28	39613.86
553.48	39935.39
553.68	39656.87
553.88	40162.72
554.08	40084.89
554.28	40068.51
554.48	40095.13
554.69	40224.15
554.89	40400.28
555.09	40242.59
555.29	39902.62
555.49	40531.35
555.69	40408.47
555.89	40656.28
556.10	40934.80
556.30	40842.64
556.50	40715.67
556.70	40471.96
556.90	41033.10
557.10	40942.99
557.30	40580.50
557.50	41086.35
557.70	41139.60
557.91	41313.67
558.11	41403.78
558.31	41434.50
558.51	41131.40
558.71	41672.07
558.91	41842.05
559.11	41358.73
559.31	41704.84
559.51	41205.13
559.72	41610.63
559.92	41751.94
560.12	41538.95
560.32	41969.02
560.52	41874.82
560.72	41987.46
560.92	41909.63
561.12	41702.79
561.32	42014.08
561.52	41899.39
561.72	42272.12
561.93	42212.73
562.13	42227.07
562.33	41801.09
562.53	42681.72
562.73	42034.56
562.93	42235.26
563.13	42610.04
563.33	42468.73
563.53	42747.25
563.73	42837.36
563.93	42706.29
564.13	42620.28
564.33	42454.39
564.53	42669.43
564.74	43111.79
564.94	42530.17
565.14	43230.57
565.34	43181.42
565.54	42898.80
565.74	42927.47
565.94	43722.08
566.14	43011.44
566.34	42939.76
566.54	43642.21
566.74	43072.88
566.94	43113.84
567.14	43603.30
567.34	43115.89
567.54	43830.63
567.74	43189.61
567.94	43457.90
568.14	44127.58
568.34	43586.92
568.54	43527.53
568.74	43799.91
568.94	43709.80
569.14	43736.42
569.34	43775.33
569.54	43900.26
569.75	43404.65
569.95	44016.99
570.15	44399.96
570.35	44053.86
570.55	43959.65
570.75	43996.51
570.95	44447.07
571.15	44383.58
571.35	44084.58
571.55	44623.19
571.75	44090.72
571.95	44090.72
572.15	44223.84
572.35	44311.90
572.55	44244.32
572.75	44393.82
572.95	44266.84
573.15	44807.51
573.35	44371.29
573.55	44316.00
573.75	44346.72
573.95	44901.71
574.15	44371.29
574.35	45018.45
574.55	44817.75
574.75	44637.53
574.95	44561.75
575.15	44711.25
575.34	44858.71
575.54	45380.94
575.74	45202.77
575.94	44963.15
576.14	44891.48
576.34	45606.22
576.54	45296.97
576.74	45045.07
576.94	45282.64
577.14	45593.93
577.34	45591.88
577.54	44850.52
577.74	45329.74
577.94	45389.13
578.14	45397.32
578.34	45589.83
578.54	45182.29
578.74	45430.09
578.94	45524.30
579.14	45630.79
579.34	45552.97
579.54	46165.31
579.74	46019.91
579.94	46048.58
580.13	46208.32
580.33	46183.74
580.53	46185.79
580.73	46114.11
580.93	45878.60
581.13	45993.28
581.33	46275.90
581.53	46755.13
581.73	46087.49
581.93	46347.58
582.13	46198.08
582.33	46579.00
582.53	46204.22
582.73	46662.97
582.92	46343.48
583.12	46994.74
583.32	46519.61
583.52	46519.61
583.72	46691.64
583.92	46552.38
584.12	46568.76
584.32	47103.28
584.52	46802.23
584.72	46662.97
584.92	46916.92
585.11	47084.85
585.31	47025.46
585.51	47265.07
585.71	46740.79
585.91	47396.14
586.11	46830.90
586.31	47193.39
586.51	47342.89
586.71	47037.75
586.91	47164.72
587.10	47426.86
587.30	47113.52
587.50	47482.16
587.70	47344.94
587.90	47387.95
588.10	47418.67
588.30	47770.92
588.50	47211.82
588.69	47271.21
588.89	47314.22
589.09	47732.01
589.29	47449.39
589.49	47793.45
589.69	47918.37
589.89	47719.72
590.08	47754.54
590.28	47985.96
590.48	47285.55
590.68	47828.26
590.88	47617.32
591.08	47707.43
591.28	47138.10
591.47	48121.12
591.67	47828.26
591.87	47590.70
592.07	48102.69
592.27	47938.85
592.47	47719.72
592.67	47895.85
592.86	47480.11
593.06	47885.61
593.26	48096.55
593.46	48225.57
593.66	48088.35
593.86	48026.92
594.05	48153.89
594.25	48313.63
594.45	47750.44
594.65	48608.54
594.85	48121.12
595.05	48112.93
595.24	48436.51
595.44	48166.18
595.64	48399.65
595.84	48698.65
596.04	48135.46
596.23	48282.91
596.43	48686.36
596.63	47981.86
596.83	48833.81
597.03	48968.98
597.22	48868.63
597.42	48762.14
597.62	48602.39
597.82	48745.75
598.02	48811.29
598.21	49116.43
598.41	48608.54
598.61	48870.68
598.81	48469.28
599.01	48661.79
599.20	48694.55
599.40	48549.15
599.60	49386.77
599.80	48975.12
600.00	49055.00
600.19	49055.00
600.39	49104.15
600.59	49151.25
600.79	49267.98
600.98	48770.33
601.18	49214.74
601.38	49282.32
601.58	49446.16
601.78	49440.01
601.97	49276.18
602.17	49784.07
602.37	49839.37
602.57	49325.33
602.76	49919.24
602.96	49364.24
603.16	49648.91
603.36	49716.49
603.55	50052.36
603.75	49894.66
603.95	49792.26
604.15	49851.66
604.34	49835.27
604.54	50038.02
604.74	50029.83
604.94	50167.04
605.13	50134.28
605.33	49800.46
605.53	50148.61
605.73	50251.01
605.92	50105.60
606.12	50382.08
606.32	50437.37
606.52	50199.81
606.71	50539.77
606.91	50433.28
607.11	50253.06
607.30	50652.41
607.50	50255.11
607.70	50617.60
607.90	50545.92
608.09	50695.42
608.29	50668.79
608.49	50580.73
608.68	50644.22
608.88	50928.89
609.08	50846.97
609.28	50795.77
609.47	50517.25
609.67	51410.16
609.87	51145.97
610.06	50650.36
610.26	51328.24
610.46	51111.16
610.66	50748.67
610.85	51131.64
611.05	51213.55
611.25	50951.41
611.44	50867.45
611.64	51111.16
611.84	51012.85
612.03	51033.33
612.23	51352.82
612.43	51422.45
612.62	51012.85
612.82	51426.54
613.02	51340.53
613.21	51166.45
613.41	51139.83
613.61	51234.03
613.80	50930.93
614.00	51492.08
614.20	51582.19
614.39	51440.88
614.59	51606.76
614.79	51420.40
614.98	51330.29
615.18	51361.01
615.38	51379.44
615.57	51098.87
615.77	51467.50
615.97	51772.65
616.16	51320.05
616.36	51762.41
616.56	51555.57
616.75	51545.33
616.95	51078.39
617.15	51389.68
617.34	51500.27
617.54	51086.58
617.74	52004.07
617.93	51782.89
618.13	51574.00
618.32	52040.93
618.52	51395.82
618.72	51746.03
618.91	51918.06
619.11	51064.05
619.31	51404.02
619.50	51576.04
619.70	51487.98
619.90	51598.57
620.09	51422.45
620.29	51606.76
620.48	51125.49
620.68	51799.27
620.88	51199.22
621.07	52106.47
621.27	51774.70
621.46	51604.72
621.66	51649.77
621.86	52069.61
622.05	51571.95
622.25	51942.63
622.44	51768.55
622.64	51487.98
622.84	51786.99
623.03	51881.19
623.23	52016.36
623.42	51938.54
623.62	51918.06
623.82	51836.14
624.01	51721.45
624.21	51504.37
624.40	51815.66
624.60	52131.04
624.80	52075.75
624.99	52004.07
625.19	51705.07
625.38	52059.37
625.58	52202.72
625.77	51985.64
625.97	52249.83
626.17	52069.61
626.36	51983.59
626.56	52026.60
626.75	51287.28
626.95	52298.98
627.14	52126.95
627.34	52634.84
627.54	51909.86
627.73	52106.47
627.93	51877.10
628.12	51860.71
628.32	51870.95
628.51	52059.37
628.71	52331.75
628.90	52307.17
629.10	52661.47
629.30	52264.16
629.49	52262.11
629.69	52356.32
629.88	52198.63
630.08	52733.15
630.27	52802.78
630.47	52729.05
630.66	52155.62
630.86	52591.84
631.05	52303.07
631.25	52839.64
631.44	52438.24
631.64	52264.16
631.84	52669.66
632.03	52794.59
632.23	52579.55
632.42	53163.22
632.62	52888.79
632.81	52473.06
633.01	52313.31
633.20	53294.29
633.40	53234.90
633.59	53081.30
633.79	52325.60
633.98	53195.99
634.18	53206.23
634.37	53175.51
634.57	53062.87
634.76	53394.64
634.96	53202.13
635.15	53384.40
635.35	53089.49
635.54	53097.69
635.74	53748.94
635.93	53040.34
636.13	53423.31
636.32	53546.19
636.52	52815.07
636.71	53501.14
636.91	52819.16
637.10	53519.57
637.30	53245.14
637.49	53130.45
637.69	53140.69
637.88	53380.31
638.08	53177.56
638.27	53718.22
638.46	53505.23
638.66	53146.84
638.85	53621.97
639.05	53585.10
639.24	53529.81
639.44	53224.66
639.63	53494.99
639.83	53826.76
640.02	53535.95
640.22	53796.04
640.41	54088.90
640.61	53327.06
640.80	53931.21
640.99	54000.84
641.19	54043.85
641.38	53769.42
641.58	54232.26
641.77	53662.93
641.97	53933.26
642.16	54078.66
642.36	54291.65
642.55	54564.03
642.74	54174.92
642.94	54652.09
643.13	54318.28
643.33	54435.01
643.52	54195.40
643.72	54547.65
643.91	54129.86
644.10	54566.08
644.30	54547.65
644.49	54467.78
644.69	54985.91
644.88	54408.39
645.08	54412.48
645.27	54645.95
645.46	54539.46
645.66	54768.83
645.85	54289.60
646.05	54521.02
646.24	54631.61
646.43	55014.58
646.63	55078.07
646.82	54795.45
647.02	54633.66
647.21	54932.67
647.40	54953.15
647.60	55477.43
647.79	55096.50
647.99	55045.30
648.18	54959.29
648.37	55510.19
648.57	55119.03
648.76	55188.66
648.96	54740.16
649.15	55092.41
649.34	55241.91
649.54	55344.31
649.73	54983.86
649.92	55469.23
650.12	55268.53
650.31	55768.24
650.51	55794.86
650.70	55307.44
650.89	55422.13
651.09	56358.05
651.28	55387.31
651.47	55805.10
651.67	55289.01
651.86	55887.02
652.06	55317.68
652.25	55827.63
652.44	55268.53
652.64	55483.57
652.83	55325.88
653.02	55334.07
653.22	55559.34
653.41	55583.92
653.60	55194.81
653.80	55428.27
653.99	55794.86
654.18	55760.05
654.38	55399.60
654.57	55915.69
654.76	55665.84
654.96	55907.50
655.15	55819.44
655.34	55573.68
655.54	55579.82
655.73	56132.78
655.92	56116.39
656.12	56046.76
656.31	55762.09
656.50	55940.27
656.70	56245.41
656.89	55921.83
657.08	56124.58
657.28	56237.22
657.47	55927.98
657.66	56120.49
657.86	56009.90
658.05	56085.67
658.24	56196.26
658.43	55952.55
658.63	56274.09
658.82	56280.23
659.01	56247.46
659.21	56054.95
659.40	55878.83
659.59	56231.08
659.79	56292.52
659.98	56351.91
660.17	56415.40
660.36	55870.64
660.56	56188.07
660.75	56374.44
660.94	56513.70
661.14	56272.04
661.33	56284.33
661.52	55760.05
661.71	56196.26
661.91	55882.92
662.10	55784.62
662.29	56722.59
662.49	55688.37
662.68	56194.21
662.87	56063.14
663.06	56597.66
663.26	56132.78
663.45	56974.49
663.64	56116.39
663.83	56941.72
664.03	56202.41
664.22	56259.75
664.41	56513.70
664.60	55942.31
664.80	55979.18
664.99	55870.64
665.18	56196.26
665.37	56550.56
665.57	56556.70
665.76	56085.67
665.95	56319.14
666.14	56212.65
666.34	56480.93
666.53	56061.10
666.72	56059.05
666.91	56190.12
667.11	56407.20
667.30	56392.87
667.49	55944.36
667.68	55919.79
667.87	56145.06
668.07	56491.17
668.26	56632.48
668.45	56061.10
668.64	55979.18
668.84	56726.69
669.03	56190.12
669.22	56276.13
669.41	56200.36
669.60	56358.05
669.80	55887.02
669.99	56374.44
670.18	55930.03
670.37	55794.86
670.57	56358.05
670.76	56372.39
670.95	56648.86
671.14	56263.85
671.33	55903.40
671.53	56761.50
671.72	56411.30
671.91	55751.85
672.10	55813.29
672.29	55704.75
672.48	55911.59
672.68	56589.47
672.87	55780.52
673.06	55696.56
673.25	55592.11
673.44	55784.62
673.64	55620.78
673.83	55809.20
674.02	56095.91
674.21	55624.88
674.40	56298.66
674.59	55483.57
674.79	55526.58
674.98	55592.11
675.17	55551.15
675.36	55381.17
675.55	55567.54
675.74	55301.30
675.94	55504.05
676.13	55674.03
676.32	55768.24
676.51	55770.28
676.70	55821.48
676.89	55563.44
677.08	56026.28
677.28	55510.19
677.47	55571.63
677.66	55977.13
677.85	55481.52
678.04	55956.65
678.23	56177.83
678.42	55751.85
678.62	55420.08
678.81	56013.99
679.00	56034.47
679.19	56112.30
679.38	55430.32
679.57	55526.58
679.76	55495.86
679.96	55891.12
680.15	55434.42
680.34	55319.73
680.53	55116.98
680.72	55209.14
680.91	55432.37
681.10	55352.50
681.29	55565.49
681.48	54926.52
681.68	55246.00
681.87	55217.33
682.06	55010.49
682.25	54715.58
682.44	54740.16
682.63	55098.55
682.82	54496.45
683.01	54803.64
683.20	54510.78
683.39	54850.75
683.59	54570.18
683.78	54854.84
683.97	54723.77
684.16	54529.22
684.35	54279.36
684.54	54445.25
684.73	54400.19
684.92	54736.06
685.11	54308.04
685.30	54273.22
685.49	54924.47
685.69	54142.15
685.88	54387.91
686.07	54285.51
686.26	54334.66
686.45	54566.08
686.64	54756.54
686.83	54613.18
687.02	54369.47
687.21	54469.82
687.40	53916.87
687.59	54150.34
687.78	53947.59
687.97	54398.15
688.16	54142.15
688.35	54310.08
688.54	53830.86
688.74	54133.96
688.93	53843.15
689.12	53824.71
689.31	53458.13
689.50	54334.66
689.69	53650.64
689.88	53796.04
690.07	53492.94
690.26	53671.12
690.45	54074.57
690.64	53517.52
690.83	53521.62
691.02	53232.85
691.21	53382.35
691.40	53513.42
691.59	53462.22
691.78	52987.10
691.97	53472.46
692.16	53353.68
692.35	53685.45
692.54	53009.62
692.73	53615.82
692.92	53501.14
693.11	53187.80
693.30	53177.56
693.49	53257.43
693.68	52661.47
693.87	53032.15
694.06	52710.62
694.25	52837.59
694.44	52810.97
694.63	52917.46
694.82	52667.61
695.01	52784.35
695.20	52577.50
695.39	52589.79
695.58	52491.49
695.77	52438.24
695.96	52581.60
696.15	52630.75
696.34	52337.89
696.53	52372.70
696.72	52466.91
696.91	52147.43
697.10	52436.19
697.29	52329.70
697.48	52645.08
697.67	52270.31
697.86	51815.66
698.05	52298.98
698.24	52270.31
698.43	51629.29
698.62	52184.29
698.81	51666.16
699.00	51973.35
699.19	51623.15
699.38	52194.53
699.57	51559.66
699.76	52161.76
699.95	51772.65
700.14	51567.85
700.32	51553.52
700.51	51412.21
700.70	51975.40
700.89	51678.44
701.08	51582.19
701.27	51537.13
701.46	52075.75
701.65	51365.10
701.84	51533.04
702.03	51180.79
702.22	51156.21
702.41	50838.78
702.60	51549.42
702.79	51356.91
702.98	50887.93
703.17	50636.03
703.35	51021.05
703.54	51125.49
703.73	51416.30
703.92	50910.46
704.11	50638.08
704.30	50445.57
704.49	50590.97
704.68	50488.57
704.87	50703.61
705.06	50320.64
705.25	50369.79
705.43	50869.50
705.62	50656.51
705.81	50459.90
706.00	50783.48
706.19	49952.01
706.38	50519.29
706.57	50574.59
706.76	49954.05
706.95	50545.92
707.14	50038.02
707.32	50195.71
707.51	50230.53
707.70	50236.67
707.89	50349.31
708.08	50339.07
708.27	50208.00
708.46	50040.07
708.65	49814.79
708.84	50236.67
709.02	49890.57
709.21	49978.63
709.40	49503.50
709.59	50005.25
709.78	49786.12
709.97	50461.95
710.16	49380.62
710.34	49722.63
710.53	49607.95
710.72	49300.75
710.91	49579.28
711.10	49820.94
711.29	49622.28
711.48	49401.10
711.66	49534.22
711.85	48971.03
712.04	49571.08
712.23	49231.12
712.42	49270.03
712.61	49098.00
712.80	49145.11
712.98	49601.80
713.17	49274.13
713.36	49071.38
713.55	49349.90
713.74	49341.71
713.93	49181.97
714.11	49091.86
714.30	48669.98
714.49	48946.45
714.68	48919.83
714.87	48878.87
715.06	49329.42
715.24	48938.26
715.43	48874.77
715.62	48645.40
715.81	48530.72
716.00	48543.00
716.18	48833.81
716.37	48383.26
716.56	48379.17
716.75	49001.75
716.94	48227.62
717.12	48313.63
717.31	48753.94
717.50	48278.82
717.69	48387.36
717.88	48020.77
718.06	48366.88
718.25	48483.61
718.44	48006.44
718.63	48129.31
718.82	47680.81
719.00	48282.91
719.19	48215.33
719.38	47578.41
719.57	47197.49
719.76	47555.88
719.94	47525.16
720.13	47936.80
720.32	47572.27
720.51	47805.73
720.69	47064.37
720.88	47392.04
721.07	47420.72
721.26	47058.23
721.44	47101.23
721.63	47349.04
721.82	46736.69
722.01	47424.81
722.20	47398.19
722.38	46841.14
722.57	46622.01
722.76	47140.14
722.95	46888.24
723.13	46357.82
723.32	46699.83
723.51	46519.61
723.70	46097.73
723.88	46824.76
724.07	46669.11
724.26	46832.95
724.44	46347.58
724.63	46693.69
724.82	46327.10
725.01	46144.83
725.19	46273.85
725.38	46048.58
725.57	46382.40
725.76	46107.97
725.94	45892.93
726.13	46060.87
726.32	46134.59
726.51	46062.91
726.69	46232.89
726.88	45978.95
727.07	46257.47
727.25	46091.58
727.44	46208.32
727.63	45856.07
727.82	46406.97
728.00	45874.50
728.19	45759.81
728.38	46468.41
728.56	45626.70
728.75	46069.06
728.94	45978.95
729.12	46015.81
729.31	46415.16
729.50	46357.82
729.69	46071.10
729.87	46017.86
730.06	45751.62
730.25	45671.75
730.43	46130.50
730.62	46038.34
730.81	46155.07
730.99	46075.20
731.18	46314.81
731.37	45958.47
731.55	46474.55
731.74	46314.81
731.93	45870.40
732.11	45712.71
732.30	46157.12
732.49	46021.95
732.67	46073.15
732.86	45962.56
733.05	45888.84
733.23	45937.99
733.42	45907.27
733.61	46028.10
733.79	45952.32
733.98	45952.32
734.17	45843.78
734.35	46185.79
734.54	45907.27
734.73	46136.64
734.91	45823.30
735.10	45866.31
735.29	46009.67
735.47	45409.61
735.66	45681.99
735.84	45858.12
736.03	45528.39
736.22	45784.39
736.40	45653.32
736.59	45911.36
736.78	45725.00
736.96	45733.19
737.15	45782.34
737.33	45231.44
737.52	45686.09
737.71	45452.62
737.89	45475.15
738.08	45663.56
738.27	44723.54
738.45	45868.36
738.64	45477.19
738.82	45403.47
739.01	45520.20
739.20	45323.60
739.38	45692.23
739.57	45659.46
739.75	45579.59
739.94	45241.68
740.13	45276.49
740.31	45507.91
740.50	45094.22
740.68	45552.97
740.87	45446.47
741.06	45563.21
741.24	45294.92
741.43	44948.82
741.61	45804.87
741.80	44975.44
741.99	45032.78
742.17	45251.92
742.36	45270.35
742.54	44799.32
742.73	45436.23
742.91	45655.37
743.10	44965.20
743.29	45557.06
743.47	44619.10
743.66	45180.24
743.84	45059.41
744.03	45262.16
744.21	44907.86
744.40	45020.50
744.59	44881.24
744.77	44838.23
744.96	45096.27
745.14	45174.09
745.33	45122.90
745.51	45045.07
745.70	44664.15
745.88	45073.74
746.07	44963.15
746.26	44789.08
746.44	44850.52
746.63	45135.18
746.81	44987.73
747.00	44467.55
747.18	44993.87
747.37	44856.66
747.55	44920.15
747.74	45368.65
747.92	44631.38
748.11	44598.62
748.29	44449.11
748.48	44422.49
748.66	44055.90
748.85	44709.21
749.03	44266.84
749.22	44639.57
749.41	43873.63
749.59	44873.04
749.78	44393.82
749.96	43752.80
750.15	44168.54
750.33	44326.24
750.52	44539.22
750.70	44326.24
750.89	43879.78
751.07	43830.63
751.26	44430.68
751.44	44080.48
751.63	44035.42
751.81	44123.49
752.00	44303.71
752.18	44205.41
752.37	44158.30
752.55	43599.21
752.74	43791.72
752.92	43634.02
753.10	43668.84
753.29	44045.66
753.47	43693.41
753.66	43490.66
753.84	44113.25
754.03	43593.06
754.21	43689.32
754.40	44168.54
754.58	44000.61
754.77	43734.37
754.95	43670.89
755.14	43670.89
755.32	43668.84
755.51	43361.64
755.69	43496.81
755.88	43472.23
756.06	43951.46
756.24	43588.97
756.43	43373.93
756.61	43615.59
756.80	43408.75
756.98	43150.70
757.17	43605.35
757.35	43201.90
757.54	43152.75
757.72	43294.06
757.90	43406.70
758.09	43251.05
758.27	43365.74
758.46	43156.85
758.64	43339.11
758.83	43668.84
759.01	43507.05
759.19	43316.59
759.38	43103.60
759.56	43418.99
759.75	42947.95
759.93	43173.23
760.12	42845.55
760.30	43079.02
760.48	42972.53
760.67	42702.20
760.85	43015.54
761.04	43060.59
761.22	43224.43
761.40	43253.10
761.59	42765.68
761.77	42661.24
761.96	42571.13
762.14	43115.89
762.32	42489.21
762.51	42372.47
762.69	42618.23
762.88	42700.15
763.06	42945.90
763.24	42382.71
763.43	42874.23
763.61	42554.74
763.80	42607.99
763.98	42319.23
764.16	42560.89
764.35	42583.41
764.53	42050.94
764.72	42335.61
764.90	42448.25
765.08	42403.19
765.27	42186.11
765.45	41950.59
765.63	41819.52
765.82	42126.72
766.00	41682.31
766.18	42075.52
766.37	42200.44
766.55	41874.82
766.74	42108.29
766.92	41768.32
767.10	41989.50
767.29	41858.43
767.47	41733.51
767.65	41944.45
767.84	41293.19
768.02	41889.15
768.20	41389.45
768.39	41483.66
768.57	41786.75
768.75	41293.19
768.94	41278.86
769.12	41340.30
769.30	41506.18
769.49	41352.58
769.67	41141.64
769.85	40965.52
770.04	41291.15
770.22	40928.66
770.40	40975.76
770.59	41166.22
770.77	40916.37
770.95	41373.06
771.14	41276.81
771.32	40670.61
771.50	40953.23
771.69	41307.53
771.87	40871.31
772.05	40752.53
772.24	40408.47
772.42	40596.88
772.60	40865.17
772.78	40392.09
772.97	40521.11
773.15	40629.65
773.33	40215.96
773.52	40445.33
773.70	40435.10
773.88	40424.86
774.07	40471.96
774.25	40410.52
774.43	41096.59
774.61	40480.15
774.80	40377.75
774.98	40682.90
775.16	40818.07
775.34	40803.73
775.53	40408.47
775.71	40850.83
775.89	40578.45
776.08	40412.57
776.26	40893.84
776.44	40773.01
776.62	40969.61
776.81	40674.71
776.99	40951.18
777.17	40822.16
777.35	40967.57
777.54	41063.82
777.72	40871.31
777.90	41065.87
778.08	41309.58
778.27	40926.61
778.45	41219.47
778.63	41233.80
778.81	40795.54
779.00	41655.68
779.18	40789.39
779.36	41330.06
779.54	41090.44
779.73	41020.81
779.91	41172.36
780.09	41319.82
780.27	41414.02
780.46	41170.32
780.64	41958.78
780.82	41354.63
781.00	41434.50
781.19	41698.69
781.37	41446.79
781.55	41358.73
781.73	41895.30
781.91	41133.45
782.10	41354.63
782.28	41807.23
782.46	41325.96
782.64	41743.75
782.82	41799.04
783.01	41893.25
783.19	41870.72
783.37	41715.08
783.55	41491.85
783.74	42366.33
783.92	41569.67
784.10	42122.62
784.28	41764.23
784.46	41299.34
784.64	41299.34
784.83	42120.57
785.01	41772.42
785.19	41682.31
785.37	41876.86
785.55	41399.69
785.74	41262.47
785.92	41493.89
786.10	41567.62
786.28	41833.86
786.46	41549.19
786.64	40990.09
786.83	41530.76
787.01	41637.25
787.19	41575.81
787.37	41565.57
787.55	41584.01
787.74	41069.97
787.92	41735.56
788.10	41072.01
788.28	41143.69
788.46	41131.40
788.64	41022.86
788.82	41723.27
789.01	40625.56
789.19	41342.35
789.37	41000.33
789.55	41213.32
789.73	40537.49
789.91	40605.08
790.09	40750.48
790.28	40635.80
790.46	40471.96
790.64	40719.76
790.82	40514.97
791.00	40359.32
791.18	40613.27
791.36	40498.58
791.55	40408.47
791.73	40279.45
791.91	39857.57
792.09	40338.84
792.27	40023.45
792.45	39988.64
792.63	39876.00
792.81	39349.67
793.00	39445.93
793.18	39361.96
793.36	39538.08
793.54	39548.32
793.72	39015.85
793.90	39634.34
794.08	39097.77
794.26	39370.15
794.44	39157.16
794.62	38860.21
794.81	38694.32
794.99	38854.06
795.17	38981.04
795.35	38620.59
795.53	38935.98
795.71	38968.75
795.89	38489.52
796.07	38331.83
796.25	37909.95
796.43	38491.57
796.61	37590.47
796.80	37905.85
796.98	38143.42
797.16	37584.32
797.34	37598.66
797.52	37412.29
797.70	38092.22
797.88	37612.99
798.06	37363.14
798.24	37776.83
798.42	37651.91
798.60	37217.74
798.78	37180.87
798.96	37565.89
799.14	36943.31
799.32	37027.28
799.51	36693.46
799.69	36976.08
799.87	36849.10
800.05	36480.47
800.23	36529.62
800.41	36390.36
800.59	36185.56
800.77	36165.08
800.95	35935.71
801.13	36240.86
801.31	35814.88
801.49	35921.37
801.67	35972.57
801.85	35952.09
802.03	35526.11
802.21	35341.80
802.39	35567.07
802.57	35735.01
802.75	35261.93
802.93	35440.10
803.11	35147.24
803.29	35180.01
803.47	34907.63
803.65	35050.99
803.83	34889.20
804.01	34760.17
804.19	34833.90
804.37	34242.04
804.55	34682.35
804.73	34690.54
804.91	34604.53
805.09	34868.72
805.27	34424.31
805.45	34491.89
805.63	34627.06
805.81	34264.57
805.99	34104.82
806.17	34272.76
806.35	34203.13
806.53	33961.47
806.71	33998.33
806.89	33842.68
807.07	33748.48
807.25	33955.32
807.43	33435.14
807.61	33797.63
807.79	33170.95
807.97	33205.77
808.15	32953.87
808.33	32792.08
808.51	32957.96
808.69	33041.93
808.87	32785.93
809.05	32968.20
809.23	32794.12
809.41	32491.02
809.59	32585.23
809.77	32658.96
809.95	32306.71
810.13	32464.40
810.31	32431.63
810.49	32030.23
810.67	32501.26
810.84	32247.32
811.02	32093.72
811.20	32232.98
811.38	32114.20
811.56	31993.37
811.74	31565.34
811.92	31604.25
812.10	31561.25
812.28	31829.53
812.46	31903.26
812.64	31792.67
812.82	31819.29
813.00	31315.49
813.18	31585.82
813.36	31184.42
813.53	31045.16
813.71	31245.86
813.89	30957.10
814.07	31368.74
814.25	31188.52
814.43	31084.07
814.61	30836.27
814.79	30944.81
814.97	30776.87
815.15	30912.04
815.33	30354.99
815.50	30334.51
815.68	30918.18
815.86	30635.56
816.04	30281.27
816.22	30121.52
816.40	30524.97
816.58	30039.61
816.76	30076.47
816.94	29926.97
817.11	30236.21
817.29	29924.92
817.47	29685.31
817.65	29937.21
817.83	29836.86
818.01	29945.40
818.19	29646.40
818.37	29814.33
818.54	29421.12
818.72	29384.26
818.90	29810.23
819.08	29273.67
819.26	29720.12
819.44	29335.10
819.62	29142.60
819.80	29247.04
819.97	29150.79
820.15	28927.56
820.33	28966.47
820.51	28974.66
820.69	29175.36
820.87	28945.99
821.05	28882.50
821.22	28958.28
821.40	28651.08
821.58	28704.33
821.76	28481.10
821.94	28483.15
822.12	28757.58
822.29	28579.40
822.47	28837.45
822.65	28323.41
822.83	28302.93
823.01	28403.28
823.19	28210.77
823.36	28216.91
823.54	28280.40
823.72	28038.74
823.90	28094.04
824.08	27909.72
824.25	28462.67
824.43	27801.18
824.61	27833.94
824.79	28028.50
824.97	27868.76
825.15	28122.71
825.32	27635.29
825.50	27543.13
825.68	27551.32
825.86	27659.87
826.04	27680.35
826.21	27481.69
826.39	27635.29
826.57	27500.12
826.75	27272.80
826.93	27145.83
827.10	27391.58
827.28	27381.34
827.46	27039.33
827.64	27256.42
827.81	26861.16
827.99	26916.45
828.17	26981.99
828.35	26670.70
828.53	26857.06
828.70	26523.24
828.88	27117.15
829.06	26840.68
829.24	26953.32
829.41	26515.05
829.59	26764.90
829.77	26386.03
829.95	26621.55
830.12	26572.39
830.30	26523.24
830.48	26807.91
830.66	26463.85
830.84	26547.82
831.01	26369.65
831.19	26400.37
831.37	26095.22
831.55	26021.49
831.72	26330.73
831.90	26031.73
832.08	26269.30
832.25	26093.17
832.43	26062.45
832.61	26054.26
832.79	26019.44
832.96	25966.20
833.14	25790.07
833.32	25810.55
833.50	26041.97
833.67	25849.46
833.85	25349.76
834.03	25458.30
834.20	25777.78
834.38	25589.37
834.56	25595.51
834.74	25505.40
834.91	25529.98
835.09	25282.17
835.27	24970.88
835.44	25081.47
835.62	25149.06
835.80	24858.24
835.98	25138.82
836.15	25054.85
836.33	24983.17
836.51	25331.33
836.68	24950.40
836.86	25149.06
837.04	25183.87
837.21	24864.39
837.39	24870.53
837.57	24942.21
837.75	25104.00
837.92	24815.24
838.10	24766.09
838.28	24358.54
838.45	24743.56
838.63	24499.85
838.81	24792.71
838.98	24542.86
839.16	24409.74
839.34	24508.04
839.51	24403.60
839.69	24112.78
839.87	24422.03
840.04	24270.48
840.22	24487.56
840.40	24424.08
840.57	23998.10
840.75	24495.75
840.93	23705.24
841.10	24217.23
841.28	24436.36
841.46	23703.19
841.63	24194.70
841.81	23983.76
841.98	23953.04
842.16	24188.56
842.34	24098.45
842.51	23502.49
842.69	23778.97
842.87	23785.11
843.04	23795.35
843.22	23410.33
843.40	23518.87
843.57	23330.46
843.75	23699.09
843.92	23361.18
844.10	23457.43
844.28	23797.40
844.45	23520.92
844.63	23641.75
844.81	23490.20
844.98	23778.97
845.16	23514.78
845.33	23588.50
845.51	23295.64
845.69	23176.86
845.86	22912.67
846.04	23205.53
846.21	23170.72
846.39	23180.96
846.57	22804.13
846.74	23199.39
846.92	22978.21
847.09	23008.93
847.27	22687.40
847.45	22990.50
847.62	23172.77
847.80	23004.83
847.97	23037.60
848.15	22914.72
848.32	22195.89
848.50	22582.95
848.68	22628.01
848.85	22673.06
849.03	22421.16
849.20	22576.81
849.38	22609.58
849.56	22550.18
849.73	22214.32
849.91	22433.45
850.08	22523.56
850.26	22007.47
850.43	22374.06
850.61	22392.49
850.78	22062.77
850.96	22421.16
851.14	21890.74
851.31	22404.78
851.49	22169.26
851.66	22255.28
851.84	21880.50
852.01	22113.97
852.19	21970.61
852.36	22286.00
852.54	21923.51
852.71	21974.70
852.89	21755.57
853.07	22089.39
853.24	21919.41
853.42	21946.03
853.59	22101.68
853.77	21939.89
853.94	21862.07
854.12	21911.22
854.29	21507.77
854.47	21735.09
854.64	21563.06
854.82	21741.24
854.99	21511.86
855.17	21604.02
855.34	21294.78
855.52	21382.84
855.69	21843.63
855.87	21540.54
856.04	21286.59
856.22	21227.20
856.39	20989.63
856.57	21370.55
856.74	21339.83
856.92	21286.59
857.09	21262.01
857.27	21040.83
857.44	21354.17
857.62	21157.57
857.79	21290.68
857.97	21214.91
858.14	21016.26
858.32	21323.45
858.49	20911.81
858.67	20807.36
858.84	20678.34
859.02	20829.89
859.19	20754.12
859.37	21028.54
859.54	20598.47
859.72	20846.27
859.89	20647.62
860.06	20606.66
860.24	20809.41
860.41	20555.46
860.59	20528.84
860.76	20688.58
860.94	20451.02
861.11	20666.05
861.29	20700.87
861.46	20432.58
861.64	20260.55
861.81	20240.08
861.98	20270.79
862.16	20127.44
862.33	19769.04
862.51	20154.06
862.68	20258.51
862.86	20172.49
863.03	19961.55
863.21	20117.20
863.38	19930.83
863.55	19732.18
863.73	20063.95
863.90	20004.56
864.08	19961.55
864.25	19916.50
864.43	20055.76
864.60	20006.61
864.77	19853.01
864.95	19869.39
865.12	19742.42
865.30	19918.54
865.47	19963.60
865.64	19418.84
865.82	19562.20
865.99	19732.18
866.17	19650.26
866.34	19803.86
866.51	19379.93
866.69	19785.43
866.86	19392.22
867.04	19740.37
867.21	19435.22
867.38	19459.80
867.56	19281.63
867.73	19431.13
867.91	19177.18
868.08	19402.46
868.25	19142.36
868.43	19058.40
868.60	18882.27
868.78	18945.76
868.95	19197.66
869.12	19111.64
869.30	18974.43
869.47	19287.77
869.64	18847.46
869.82	18880.22
869.99	19193.56
870.16	19316.44
870.34	18931.42
870.51	19001.05
870.69	18855.65
870.86	18939.62
871.03	18755.30
871.21	18915.04
871.38	18716.39
871.55	18568.93
871.73	18722.53
871.90	18470.63
872.07	18484.97
872.25	18292.46
872.42	18411.24
872.59	18405.10
872.77	18153.20
872.94	18435.81
873.11	18595.56
873.29	18345.70
873.46	17991.41
873.63	18407.14
873.81	18196.20
873.98	18200.30
874.15	18157.29
874.33	18005.74
874.50	18022.12
874.67	17995.50
874.85	18073.32
875.02	17628.92
875.19	17649.39
875.37	17848.05
875.54	17696.50
875.71	17792.75
875.88	17393.40
876.06	17612.53
876.23	17655.54
876.40	17594.10
876.58	17823.47
876.75	17702.64
876.92	17542.90
877.10	17389.30
877.27	17477.37
877.44	17489.65
877.61	17123.07
877.79	17252.09
877.96	17143.55
878.13	17073.92
878.31	17198.84
878.48	17188.60
878.65	17123.07
878.82	16908.03
879.00	16934.65
879.17	17075.96
879.34	16811.78
879.51	16983.80
879.69	16856.83
879.86	16932.61
880.03	16998.14
880.21	16834.30
880.38	16793.34
880.55	17039.10
880.72	16627.46
880.90	16817.92
881.07	16729.86
881.24	16566.02
881.41	16553.73
881.59	16504.58
881.76	16690.95
881.93	16652.03
882.10	16518.92
882.28	16582.40
882.45	16320.26
882.62	16437.00
882.79	16533.25
882.96	16148.23
883.14	16641.79
883.31	16357.13
883.48	16269.06
883.65	16211.72
883.83	16504.58
884.00	15838.99
884.17	16291.59
884.34	16336.65
884.51	16072.46
884.69	16363.27
884.86	16211.72
885.03	16129.80
885.20	15789.84
885.38	16178.95
885.55	16074.51
885.72	16013.07
885.89	15748.88
886.06	15896.33
886.24	16215.82
886.41	16101.13
886.58	16275.21
886.75	16101.13
886.92	15943.44
887.10	15968.01
887.27	15847.18
887.44	15912.72
887.61	16172.81
887.78	15896.33
887.95	16101.13
888.13	15902.48
888.30	15630.10
888.47	15775.50
888.64	15609.62
888.81	15755.02
888.99	15822.61
889.16	15564.56
889.33	15396.63
889.50	15343.38
889.67	15480.60
889.84	15591.19
890.01	15595.28
890.19	15310.61
890.36	15732.50
890.53	15523.60
890.70	15202.07
890.87	15288.09
891.04	15259.42
891.22	15181.59
891.39	15206.17
891.56	15232.79
891.73	15103.77
891.90	15052.57
892.07	14997.28
892.24	15314.71
892.42	15015.71
892.59	15105.82
892.76	15021.85
892.93	15204.12
893.10	15157.02
893.27	15103.77
893.44	14915.36
893.61	14950.17
893.79	15042.33
893.96	14987.04
894.13	15052.57
894.30	15052.57
894.47	15081.24
894.64	15230.74
894.81	14868.25
894.98	15132.44
895.15	15150.87
895.33	15060.76
895.50	14878.49
895.67	15068.95
895.84	14696.22
896.01	14728.99
896.18	14858.01
896.35	14950.17
896.52	14991.13
896.69	14853.92
896.86	14837.53
897.04	14982.94
897.21	15009.56
897.38	14585.63
897.55	14700.32
897.72	14855.97
897.89	14550.82
898.06	14911.26
898.23	14528.29
898.40	14653.22
898.57	14847.77
898.74	14890.78
898.91	14843.68
899.08	14872.35
899.26	14792.48
899.43	14714.66
899.60	14616.35
899.77	14888.73
899.94	14774.05
900.11	14610.21
900.28	14991.13
900.45	14712.61
900.62	14561.06
900.79	14747.42
900.96	14882.59
901.13	14538.53
901.30	14784.29
901.47	14577.44
901.64	14550.82
901.81	14550.82
901.98	14495.52
902.15	14905.12
902.32	14774.05
902.49	14786.33
902.66	14593.83
902.83	14663.46
903.01	14833.44
903.18	14565.15
903.35	14743.33
903.52	14638.88
903.69	14647.07
903.86	14659.36
904.03	14649.12
904.20	14827.29
904.37	14878.49
904.54	14495.52
904.71	14597.92
904.88	14741.28
905.05	14671.65
905.22	14741.28
905.39	14452.52
905.56	14786.33
905.73	14518.05
905.90	14745.38
906.07	14518.05
906.24	14661.41
906.41	14425.89
906.58	14810.91
906.75	14657.31
906.92	14440.23
907.09	14495.52
907.26	14573.35
907.43	14599.97
907.60	14651.17
907.77	14685.98
907.93	14540.58
908.10	14479.14
908.27	14536.48
908.44	14307.11
908.61	14456.61
908.78	14536.48
908.95	14343.97
909.12	14464.80
909.29	14538.53
909.46	14659.36
909.63	14733.09
909.80	14677.79
909.97	14575.39
910.14	14421.80
910.31	14493.47
910.48	14554.91
910.65	14378.79
910.82	14348.07
910.99	14649.12
911.16	14233.38
911.33	14386.98
911.50	14370.60
911.66	14364.45
911.83	14456.61
912.00	14454.56
912.17	14022.44
912.34	14159.66
912.51	14122.79
912.68	14253.86
912.85	14014.25
913.02	14399.27
913.19	14217.00
913.36	13965.10
913.53	14071.59
913.70	13967.15
913.86	13965.10
914.03	13831.98
914.20	14059.31
914.37	13954.86
914.54	14030.63
914.71	13975.34
914.88	13924.14
915.05	13999.91
915.22	14020.39
915.39	13942.57
915.55	13850.41
915.72	13758.25
915.89	13885.23
916.06	13616.94
916.23	13764.40
916.40	13748.01
916.57	13686.58
916.74	13586.22
916.91	13653.81
917.07	13279.03
917.24	13522.74
917.41	13430.58
917.58	13354.80
917.75	13412.15
917.92	13074.23
918.09	13457.20
918.26	13395.76
918.42	13434.68
918.59	13154.10
918.76	13193.01
918.93	13098.81
919.10	13166.39
919.27	13088.57
919.44	13215.54
919.60	13225.78
919.77	12939.07
919.94	12898.11
920.11	12795.71
920.28	13035.32
920.45	12894.01
920.61	12734.27
920.78	12867.39
920.95	12791.61
921.12	12783.42
921.29	12646.21
921.46	12588.86
921.62	12437.31
921.79	12545.86
921.96	12580.67
922.13	12556.10
922.30	12400.45
922.47	12461.89
922.63	12281.67
922.80	12265.28
922.97	12115.78
923.14	12138.31
923.31	12132.17
923.47	12158.79
923.64	12201.80
923.81	11908.94
923.98	11761.48
924.15	11915.08
924.32	11978.57
924.48	12093.26
924.65	12156.74
924.82	11784.01
924.99	11663.18
925.15	11573.07
925.32	11771.72
925.49	11501.39
925.66	11636.56
925.83	11638.61
925.99	11421.52
926.16	11646.80
926.33	11663.18
926.50	11210.58
926.67	11398.99
926.83	11315.03
927.00	11339.60
927.17	11216.72
927.34	11130.71
927.50	11128.66
927.67	11013.98
927.84	10907.48
928.01	10977.11
928.17	10874.71
928.34	10889.05
928.51	10717.02
928.68	10921.82
928.84	10874.71
929.01	10641.25
929.18	10567.52
929.35	10467.17
929.51	10796.89
929.68	10370.91
929.85	10442.59
930.02	10501.98
930.18	10461.02
930.35	10364.77
930.52	10317.67
930.69	10276.71
930.85	10227.56
931.02	10145.64
931.19	10112.87
931.36	10137.45
931.52	10194.79
931.69	10039.14
931.86	9901.93
932.02	9983.85
932.19	9936.74
932.36	9957.22
932.53	9824.11
932.69	9645.93
932.86	9912.17
933.03	9795.43
933.19	9643.88
933.36	9600.88
933.53	9615.21
933.70	9502.58
933.86	9529.20
934.03	9568.11
934.20	9432.94
934.36	9408.37
934.53	9195.38
934.70	8996.73
934.86	9242.48
935.03	9121.65
935.20	8910.71
935.36	9123.70
935.53	8804.22
935.70	8816.51
935.86	8699.77
936.03	8556.41
936.20	8433.54
936.36	8521.60
936.53	8470.40
936.70	8419.20
936.86	8617.85
937.03	8243.07
937.20	8152.96
937.36	8161.16
937.53	7878.54
937.70	7915.40
937.86	7884.68
938.03	7825.29
938.20	7819.14
938.36	7761.80
938.53	7692.17
938.70	7501.71
938.86	7538.57
939.03	7249.81
939.20	7380.88
939.36	7126.93
939.53	7161.75
939.70	7393.17
939.86	6875.03
940.03	6938.52
940.19	6786.97
940.36	6696.86
940.53	6827.93
940.69	6635.42
940.86	6647.71
941.03	6410.14
941.19	6344.61
941.36	6377.37
941.52	6350.75
941.69	6262.69
941.86	6236.06
942.02	6139.81
942.19	6123.43
942.35	6117.28
942.52	6041.51
942.69	6045.60
942.85	5828.52
943.02	5951.40
943.18	5932.97
943.35	5785.51
943.52	5820.33
943.68	5631.91
943.85	5832.62
944.01	5603.24
944.18	5623.72
944.35	5636.01
944.51	5627.82
944.68	5498.80
944.84	5337.01
945.01	5509.04
945.17	5572.52
945.34	5406.64
945.51	5461.93
945.67	5445.55
945.84	5304.24
946.00	5222.32
946.17	5300.14
946.33	5304.24
946.50	5388.21
946.67	5253.04
946.83	5263.28
947.00	5365.68
947.16	5291.95
947.33	5351.34
947.49	5486.51
947.66	5197.74
947.82	5246.90
947.99	5193.65
948.16	5410.73
948.32	5271.47
948.49	5371.82
948.65	5250.99
948.82	5361.58
948.98	5240.75
949.15	5158.83
949.31	5238.70
949.48	5308.34
949.64	5343.15
949.81	5312.43
949.97	5324.72
950.14	5310.38
950.30	5148.59
950.47	5312.43
950.63	5263.28
950.80	5328.81
950.96	5455.79
951.13	5302.19
951.30	5296.05
951.46	5289.90
951.63	5406.64
951.79	5279.66
951.96	5500.84
952.12	5498.80
952.29	5459.88
952.45	5398.45
952.62	5322.67
952.78	5420.97
952.94	5441.45
953.11	5431.21
953.27	5300.14
953.44	5515.18
953.60	5369.77
953.77	5490.60
953.93	5466.03
954.10	5320.62
954.26	5410.73
954.43	5441.45
954.59	5578.67
954.76	5570.48
954.92	5529.52
955.09	5435.31
955.25	5443.50
955.42	5474.22
955.58	5492.65
955.75	5410.73
955.91	5388.21
956.07	5324.72
956.24	5496.75
956.40	5443.50
956.57	5517.23
956.73	5476.27
956.90	5466.03
957.06	5414.83
957.23	5439.40
957.39	5521.32
957.56	5570.48
957.72	5476.27
957.88	5486.51
958.05	5529.52
958.21	5621.67
958.38	5523.37
958.54	5488.56
958.71	5619.63
958.87	5472.17
959.03	5431.21
959.20	5509.04
959.36	5371.82
959.53	5457.84
959.69	5470.12
959.85	5582.76
960.02	5277.62
960.18	5414.83
960.35	5461.93
960.51	5513.13
960.68	5398.45
960.84	5476.27
961.00	5511.08
961.17	5476.27
961.33	5449.64
961.50	5519.28
961.66	5427.12
961.82	5380.01
961.99	5398.45
962.15	5500.84
962.31	5423.02
962.48	5486.51
962.64	5633.96
962.81	5343.15
962.97	5455.79
963.13	5484.46
963.30	5451.69
963.46	5298.10
963.62	5455.79
963.79	5441.45
963.95	5599.15
964.12	5242.80
964.28	5377.97
964.44	5359.53
964.61	5554.09
964.77	5367.73
964.93	5488.56
965.10	5261.23
965.26	5312.43
965.42	5408.69
965.59	5351.34
965.75	5318.57
965.92	5449.64
966.08	5373.87
966.24	5324.72
966.41	5318.57
966.57	5418.93
966.73	5400.49
966.90	5316.53
967.06	5326.77
967.22	5195.70
967.39	5152.69
967.55	5224.37
967.71	5257.14
967.88	5287.86
968.04	5115.83
968.20	5222.32
968.37	5164.98
968.53	5156.79
968.69	5255.09
968.85	5359.53
969.02	5244.85
969.18	5285.81
969.34	5201.84
969.51	5142.45
969.67	5199.79
969.83	5085.11
970.00	5175.22
970.16	5195.70
970.32	5185.46
970.48	5308.34
970.65	5089.20
970.81	5044.15
970.97	5121.97
971.14	4956.08
971.30	5040.05
971.46	5027.76
971.63	5107.63
971.79	5132.21
971.95	5148.59
972.11	4882.36
972.28	5078.96
972.44	5185.46
972.60	4943.80
972.76	5132.21
972.93	4902.84
973.09	4988.85
973.25	5015.48
973.42	4990.90
973.58	4943.80
973.74	4937.65
973.90	4861.88
974.07	4917.17
974.23	4810.68
974.39	4894.65
974.55	4880.31
974.72	4964.28
974.88	4718.52
975.04	4812.73
975.20	4736.95
975.37	4861.88
975.53	4747.19
975.69	4769.72
975.85	4710.33
976.01	4816.82
976.18	4513.72
976.34	4716.47
976.50	4829.11
976.66	4765.62
976.83	4814.77
976.99	4710.33
977.15	4861.88
977.31	4634.55
977.47	4816.82
977.64	4747.19
977.80	4745.14
977.96	4636.60
978.12	4661.18
978.29	4589.50
978.45	4528.06
978.61	4589.50
978.77	4734.90
978.93	4440.00
979.10	4679.61
979.26	4505.53
979.42	4507.58
979.58	4489.15
979.74	4560.83
979.91	4544.44
980.07	4581.31
980.23	4558.78
980.39	4493.24
980.55	4388.80
980.71	4476.86
980.88	4405.18
981.04	4442.04
981.20	4394.94
981.36	4460.48
981.52	4401.08
981.68	4464.57
981.85	4435.90
982.01	4413.37
982.17	4468.67
982.33	4452.28
982.49	4495.29
982.65	4358.08
982.82	4437.95
982.98	4370.37
983.14	4288.45
983.30	4300.73
983.46	4327.36
983.62	4421.56
983.79	4231.10
983.95	4284.35
984.11	4181.95
984.27	4259.78
984.43	4306.88
984.59	4319.17
984.75	4216.77
984.91	4173.76
985.08	4313.02
985.24	4124.61
985.40	4089.79
985.56	4140.99
985.72	4390.84
985.88	4179.90
986.04	4063.17
986.20	4136.90
986.37	4114.37
986.53	4124.61
986.69	4095.94
986.85	4120.51
987.01	4059.07
987.17	4038.59
987.33	4024.26
987.49	4057.03
987.65	4212.67
987.82	4032.45
987.98	3950.53
988.14	4149.18
988.30	3944.39
988.46	3911.62
988.62	3928.00
988.78	3915.72
988.94	3966.92
989.10	4034.50
989.26	3835.85
989.42	3809.22
989.59	3778.50
989.75	3844.04
989.91	3876.80
990.07	3712.97
990.23	3813.32
990.39	3958.72
990.55	3940.29
990.71	3678.15
990.87	3932.10
991.03	3915.72
991.19	3696.58
991.35	3786.69
991.51	3794.89
991.67	3913.67
991.83	3737.54
992.00	3821.51
992.16	3712.97
992.32	3749.83
992.48	3751.88
992.64	3645.38
992.80	3747.78
992.96	3749.83
993.12	3727.30
993.28	3674.06
993.44	3682.25
993.60	3592.14
993.76	3729.35
993.92	3751.88
994.08	3612.62
994.24	3585.99
994.40	3661.77
994.56	3600.33
994.72	3581.90
994.88	3579.85
995.04	3665.86
995.20	3540.94
995.36	3463.12
995.52	3645.38
995.68	3551.18
995.84	3579.85
996.00	3633.10
996.16	3381.20
996.32	3360.72
996.48	3483.59
996.64	3577.80
996.80	3428.30
996.96	3430.35
997.12	3397.58
997.28	3373.00
997.44	3346.38
997.60	3407.82
997.76	3401.68
997.92	3434.44
998.08	3385.29
998.24	3342.28
998.40	3387.34
998.56	3444.68
998.72	3332.05
998.88	3301.33
999.04	3317.71
999.20	3358.67
999.36	3356.62
999.52	3524.55
999.68	3282.89
999.84	3504.07
1000.00	3221.45
1000.16	3299.28
1000.32	3299.28
1000.48	3375.05
1000.64	3239.89
1000.80	3280.85
1000.95	3176.40
1001.11	3239.89
1001.27	3170.26
1001.43	3354.57
1001.59	3139.54
1001.75	3088.34
1001.91	3149.78
1002.07	3186.64
1002.23	3104.72
1002.39	3008.47
1002.55	3164.11
1002.71	3071.95
1002.87	3026.90
1003.03	3106.77
1003.19	3100.62
1003.34	3133.39
1003.50	3123.15
1003.66	3190.74
1003.82	3213.26
1003.98	3100.62
1004.14	3096.53
1004.30	3008.47
1004.46	3047.38
1004.62	3008.47
1004.78	3092.43
1004.94	3112.91
1005.09	3114.96
1005.25	3026.90
1005.41	3074.00
1005.57	2930.64
1005.73	3022.80
1005.89	3053.52
1006.05	2994.13
1006.21	2928.60
1006.37	2861.01
1006.52	2926.55
1006.68	2824.15
1006.84	3030.99
1007.00	2852.82
1007.16	2983.89
1007.32	3012.56
1007.48	2877.40
1007.64	2918.36
1007.79	2934.74
1007.95	2813.91
1008.11	2957.27
1008.27	2858.96
1008.43	2908.12
1008.59	2822.10
1008.75	3018.71
1008.91	2895.83
1009.06	2842.58
1009.22	2838.48
1009.38	2842.58
1009.54	2729.94
1009.70	2795.48
1009.86	2838.48
1010.01	2789.33
1010.17	2779.09
1010.33	2826.20
1010.49	2895.83
1010.65	2768.85
1010.81	2648.02
1010.96	2781.14
1011.12	2766.81
1011.28	2602.97
1011.44	2758.61
1011.60	2650.07
1011.76	2740.18
1011.91	2785.24
1012.07	2605.02
1012.23	2596.82
1012.39	2562.01
1012.55	2602.97
1012.71	2668.50
1012.86	2576.34
1013.02	2609.11
1013.18	2586.58
1013.34	2588.63
1013.50	2641.88
1013.65	2629.59
1013.81	2551.77
1013.97	2557.91
1014.13	2588.63
1014.29	2580.44
1014.44	2693.08
1014.60	2566.10
1014.76	2633.69
1014.92	2537.43
1015.07	2588.63
1015.23	2598.87
1015.39	2480.09
1015.55	2549.72
1015.71	2516.95
1015.86	2525.15
1016.02	2527.19
1016.18	2551.77
1016.34	2533.34
1016.49	2607.06
1016.65	2539.48
1016.81	2428.89
1016.97	2533.34
1017.12	2559.96
1017.28	2482.14
1017.44	2486.23
1017.60	2484.19
1017.75	2406.36
1017.91	2449.37
1018.07	2459.61
1018.23	2500.57
1018.38	2336.73
1018.54	2338.78
1018.70	2449.37
1018.86	2346.97
1019.01	2461.66
1019.17	2519.00
1019.33	2424.80
1019.49	2346.97
1019.64	2400.22
1019.80	2418.65
1019.96	2426.84
1020.12	2336.73
1020.27	2383.84
1020.43	2365.40
1020.59	2418.65
1020.74	2310.11
1020.90	2392.03
1021.06	2361.31
1021.22	2414.56
1021.37	2389.98
1021.53	2369.50
1021.69	2443.23
1021.84	2271.20
1022.00	2316.25
1022.16	2359.26
1022.31	2363.36
1022.47	2387.93
1022.63	2330.59
1022.79	2193.37
1022.94	2281.44
1023.10	2420.70
1023.26	2279.39
1023.41	2265.05
1023.57	2172.89
1023.73	2209.76
1023.88	2205.66
1024.04	2107.36
1024.20	2150.37
1024.35	2283.49
1024.51	2291.68
1024.67	2109.41
1024.82	2322.40
1024.98	2201.57
1025.14	2258.91
1025.29	2207.71
1025.45	2254.81
1025.61	2199.52
1025.76	2154.46
1025.92	2181.09
1026.08	2224.09
1026.23	2179.04
1026.39	2312.16
1026.55	2220.00
1026.70	2131.94
1026.86	2142.18
1027.02	2254.81
1027.17	2211.81
1027.33	2164.70
1027.48	2232.29
1027.64	2185.18
1027.80	2133.98
1027.95	2166.75
1028.11	2136.03
1028.27	2238.43
1028.42	2146.27
1028.58	2088.93
1028.73	2045.92
1028.89	2033.63
1029.05	2179.04
1029.20	2117.60
>>>>>End Processed Spectral Data<<<<<
