SpectraSuite Data File
++++++++++++++++++++++++++++++++++++
Date: Fri Jun 02 14:51:12 CEST 2017
User: INFO_000
Dark Spectrum Present: No
Reference Spectrum Present: No
Number of Sampled Component Spectra: 1
Spectrometers: USB4H00879
Integration Time (usec): 80000 (USB4H00879)
Spectra Averaged: 1 (USB4H00879)
Boxcar Smoothing: 0 (USB4H00879)
Correct for Electrical Dark: No (USB4H00879)
Strobe/Lamp Enabled: No (USB4H00879)
Correct for Detector Non-linearity: No (USB4H00879)
Correct for Stray Light: No (USB4H00879)
Number of Pixels in Processed Spectrum: 3648
>>>>>Begin Processed Spectral Data<<<<<
345.13	1318.89
345.34	1318.89
345.56	1318.89
345.78	1325.04
345.99	1257.45
346.21	1662.95
346.42	1753.06
346.64	1705.96
346.86	1824.74
347.07	1667.05
347.29	1671.14
347.50	1601.51
347.72	1691.62
347.94	1718.25
348.15	1578.98
348.37	1533.93
348.59	1738.73
348.80	1697.77
349.02	1748.97
349.23	1937.38
349.45	1869.80
349.67	1843.17
349.88	1845.22
350.10	1925.09
350.31	1896.42
350.53	1806.31
350.75	1902.56
350.96	1765.35
351.18	1900.52
351.39	1884.13
351.61	1765.35
351.82	1918.95
352.04	1937.38
352.26	1869.80
352.47	1873.89
352.69	1845.22
352.90	1765.35
353.12	1857.51
353.34	1736.68
353.55	1873.89
353.77	1912.80
353.98	1896.42
354.20	1796.07
354.41	1877.99
354.63	1931.23
354.85	2000.87
355.06	1834.98
355.28	1804.26
355.49	1884.13
355.71	1875.94
355.92	1877.99
356.14	1976.29
356.35	1781.73
356.57	1834.98
356.79	1898.47
357.00	1847.27
357.22	1937.38
357.43	1910.75
357.65	1984.48
357.86	1877.99
358.08	1894.37
358.29	1912.80
358.51	2039.78
358.72	1929.19
358.94	1931.23
359.16	1871.84
359.37	1980.39
359.59	2035.68
359.80	1976.29
360.02	1935.33
360.23	1966.05
360.45	1961.95
360.66	1925.09
360.88	1863.65
361.09	1892.32
361.31	2004.96
361.52	1990.63
361.74	1984.48
361.95	2064.35
362.17	2035.68
362.38	2099.17
362.60	1978.34
362.81	2009.06
363.03	1916.90
363.24	1966.05
363.46	2027.49
363.67	1923.04
363.89	2011.11
364.10	1959.91
364.32	1968.10
364.53	2023.39
364.75	1931.23
364.96	2039.78
365.18	1955.81
365.39	1996.77
365.61	1910.75
365.82	2070.50
366.04	1968.10
366.25	1974.24
366.47	2056.16
366.68	2015.20
366.90	1994.72
367.11	2007.01
367.33	2142.18
367.54	2076.64
367.76	2013.15
367.97	2099.17
368.19	1972.19
368.40	2027.49
368.62	1984.48
368.83	1970.15
369.05	2105.31
369.26	1920.99
369.48	2007.01
369.69	1996.77
369.91	2004.96
370.12	2119.65
370.33	2111.46
370.55	2043.87
370.76	2021.35
370.98	2109.41
371.19	1980.39
371.41	2027.49
371.62	2050.02
371.84	2033.63
372.05	2191.33
372.27	2047.97
372.48	2088.93
372.69	2070.50
372.91	2107.36
373.12	2191.33
373.34	2133.98
373.55	2058.21
373.77	2248.67
373.98	1978.34
374.20	2158.56
374.41	2211.81
374.62	2136.03
374.84	2140.13
375.05	2152.42
375.27	2162.66
375.48	2209.76
375.70	2142.18
375.91	2154.46
376.12	2371.55
376.34	2066.40
376.55	2189.28
376.77	2193.37
376.98	2101.22
377.19	2060.26
377.41	2183.13
377.62	2250.72
377.84	2252.77
378.05	2289.63
378.27	2215.90
378.48	2332.64
378.69	2375.64
378.91	2338.78
379.12	2170.85
379.34	2217.95
379.55	2306.01
379.76	2232.29
379.98	2224.09
380.19	2240.48
380.41	2213.85
380.62	2320.35
380.83	2133.98
381.05	2142.18
381.26	2351.07
381.47	2250.72
381.69	2330.59
381.90	2353.12
382.12	2326.49
382.33	2301.92
382.54	2336.73
382.76	2246.62
382.97	2338.78
383.19	2244.57
383.40	2367.45
383.61	2269.15
383.83	2310.11
384.04	2295.77
384.25	2351.07
384.47	2435.03
384.68	2371.55
384.89	2328.54
385.11	2365.40
385.32	2365.40
385.54	2406.36
385.75	2400.22
385.96	2402.27
386.18	2363.36
386.39	2332.64
386.60	2375.64
386.82	2430.94
387.03	2379.74
387.24	2512.86
387.46	2465.75
387.67	2463.71
387.88	2437.08
388.10	2387.93
388.31	2551.77
388.52	2576.34
388.74	2543.58
388.95	2549.72
389.16	2473.95
389.38	2551.77
389.59	2645.98
389.80	2574.30
390.02	2590.68
390.23	2605.02
390.44	2572.25
390.66	2531.29
390.87	2430.94
391.08	2590.68
391.30	2672.60
391.51	2584.54
391.72	2670.55
391.94	2633.69
392.15	2674.65
392.36	2568.15
392.58	2443.23
392.79	2566.10
393.00	2756.57
393.22	2746.33
393.43	2768.85
393.64	2715.61
393.85	2787.29
394.07	2645.98
394.28	2686.94
394.49	2705.37
394.71	2686.94
394.92	2869.20
395.13	2721.75
395.35	2713.56
395.56	2715.61
395.77	2805.72
395.98	2770.90
396.20	2871.25
396.41	2854.87
396.62	2885.59
396.84	2822.10
397.05	2826.20
397.26	2932.69
397.47	2920.40
397.69	2799.57
397.90	3051.47
398.11	2822.10
398.32	2848.72
398.54	2891.73
398.75	2899.92
398.96	2842.58
399.18	2981.84
399.39	2910.16
399.60	2947.03
399.81	2957.27
400.03	2910.16
400.24	3272.65
400.45	2965.46
400.66	2965.46
400.88	3010.51
401.09	3147.73
401.30	3000.27
401.51	3127.25
401.73	3063.76
401.94	3141.58
402.15	3125.20
402.36	3037.14
402.58	3213.26
402.79	3194.83
403.00	3172.30
403.21	3250.13
403.43	3221.45
403.64	3403.72
403.85	3000.27
404.06	3078.10
404.27	3000.27
404.49	3137.49
404.70	3203.02
404.91	3233.74
405.12	3211.22
405.34	3260.37
405.55	3370.96
405.76	3182.54
405.97	3270.61
406.19	3297.23
406.40	3272.65
406.61	3276.75
406.82	3327.95
407.03	3373.00
407.25	3330.00
407.46	3422.16
407.67	3327.95
407.88	3491.79
408.09	3301.33
408.31	3338.19
408.52	3366.86
408.73	3254.22
408.94	3317.71
409.15	3420.11
409.37	3358.67
409.58	3579.85
409.79	3459.02
410.00	3452.88
410.21	3383.24
410.43	3391.44
410.64	3461.07
410.85	3485.64
411.06	3456.97
411.27	3493.83
411.48	3657.67
411.70	3508.17
411.91	3590.09
412.12	3602.38
412.33	3532.75
412.54	3579.85
412.76	3618.76
412.97	3637.19
413.18	3588.04
413.39	3667.91
413.60	3684.30
413.81	3717.06
414.03	3612.62
414.24	3581.90
414.45	3749.83
414.66	3624.90
414.87	3702.73
415.08	3729.35
415.30	3516.36
415.51	3796.93
415.72	3663.82
415.93	3647.43
416.14	3696.58
416.35	3829.70
416.56	3649.48
416.78	3788.74
416.99	3852.23
417.20	3868.61
417.41	3921.86
417.62	3850.18
417.83	3885.00
418.04	3858.37
418.26	3911.62
418.47	3862.47
418.68	3985.35
418.89	3887.04
419.10	3983.30
419.31	3841.99
419.52	4009.92
419.73	3919.81
419.95	4030.40
420.16	3938.24
420.37	3921.86
420.58	4079.55
420.79	4011.97
421.00	4054.98
421.21	4159.42
421.42	3997.64
421.63	4085.70
421.85	3991.49
422.06	4171.71
422.27	4188.10
422.48	4038.59
422.69	4245.44
422.90	4077.51
423.11	4255.68
423.32	4319.17
423.53	4321.21
423.75	4247.49
423.96	4292.54
424.17	4286.40
424.38	4519.87
424.59	4450.24
424.80	4560.83
425.01	4394.94
425.22	4278.21
425.43	4394.94
425.64	4616.12
425.85	4509.63
426.06	4480.96
426.28	4472.76
426.49	4454.33
426.70	4532.15
426.91	4550.59
427.12	4616.12
427.33	4556.73
427.54	4499.39
427.75	4683.70
427.96	4663.22
428.17	4687.80
428.38	4765.62
428.59	4751.29
428.80	4673.46
429.01	4730.81
429.23	4769.72
429.44	4896.69
429.65	5015.48
429.86	4933.56
430.07	4804.53
430.28	4833.21
430.49	5044.15
430.70	5138.35
430.91	5044.15
431.12	4886.45
431.33	4980.66
431.54	5158.83
431.75	5013.43
431.96	5140.40
432.17	5033.91
432.38	5148.59
432.59	5357.49
432.80	5173.17
433.01	5369.77
433.22	5193.65
433.43	5205.94
433.64	5255.09
433.85	5271.47
434.06	5224.37
434.27	5142.45
434.49	5361.58
434.70	5590.95
434.91	5394.35
435.12	5300.14
435.33	5449.64
435.54	5408.69
435.75	5181.36
435.96	5457.84
436.17	5365.68
436.38	5459.88
436.59	5414.83
436.80	5498.80
437.01	5744.55
437.22	5699.50
437.43	5533.61
437.64	5408.69
437.85	5762.98
438.06	5654.44
438.27	5638.06
438.48	5599.15
438.69	5873.57
438.90	5711.78
439.11	5654.44
439.32	5746.60
439.53	5650.35
439.74	5701.54
439.95	5939.11
440.16	5912.49
440.37	5842.85
440.57	5879.72
440.78	5822.38
440.99	5822.38
441.20	5883.81
441.41	5935.01
441.62	5873.57
441.83	5762.98
442.04	6037.41
442.25	6113.19
442.46	6010.79
442.67	6061.99
442.88	6520.73
443.09	6012.84
443.30	6010.79
443.51	6053.80
443.72	6320.03
443.93	6148.00
444.14	6473.63
444.35	6045.60
444.56	6346.66
444.77	6137.76
444.98	6141.86
445.19	6401.95
445.40	6301.60
445.61	6274.98
445.81	6436.77
446.02	6410.14
446.23	6287.26
446.44	6201.25
446.65	6420.38
446.86	6455.20
447.07	6315.94
447.28	6664.09
447.49	6750.10
447.70	6473.63
447.91	6659.99
448.12	6635.42
448.33	6754.20
448.54	6778.78
448.74	6553.50
448.95	6735.77
449.16	6621.08
449.37	6897.56
449.58	6647.71
449.79	6924.18
450.00	6737.82
450.21	6872.98
450.42	6993.81
450.63	6979.48
450.84	6922.13
451.05	6772.63
451.25	6915.99
451.46	6987.67
451.67	7061.40
451.88	7126.93
452.09	7171.99
452.30	7067.54
452.51	6977.43
452.72	7178.13
452.93	7540.62
453.13	7067.54
453.34	7178.13
453.55	7262.10
453.76	7303.06
453.97	7743.37
454.18	7337.87
454.39	7489.42
454.60	7327.63
454.81	7430.03
455.01	7497.61
455.22	7370.64
455.43	7530.38
455.64	7813.00
455.85	7964.55
456.06	7823.24
456.27	7833.48
456.48	7714.70
456.68	7649.16
456.89	7933.83
457.10	7956.36
457.31	7892.87
457.52	7915.40
457.73	7974.79
457.94	8200.07
458.14	7880.58
458.35	8392.58
458.56	8093.57
458.77	7937.93
458.98	8230.79
459.19	8222.59
459.39	8277.89
459.60	8388.48
459.81	8224.64
460.02	8484.73
460.23	8339.33
460.44	8470.40
460.65	8712.06
460.85	8558.46
461.06	8869.75
461.27	8466.30
461.48	8933.24
461.69	8759.16
461.89	8814.46
462.10	8986.49
462.31	8591.23
462.52	8761.21
462.73	8769.40
462.94	9037.69
463.14	8966.01
463.35	9037.69
463.56	9310.07
463.77	9492.34
463.98	9256.82
464.18	9211.76
464.39	9561.97
464.60	9588.59
464.81	9496.43
465.02	9381.74
465.23	9690.99
465.43	9627.50
465.64	9772.91
465.85	9598.83
466.06	9578.35
466.27	10014.57
466.47	9989.99
466.68	9951.08
466.89	9738.09
467.10	10211.17
467.30	9928.55
467.51	10100.58
467.72	10235.75
467.93	9969.51
468.14	10346.34
468.34	10309.47
468.55	10518.37
468.76	10469.22
468.97	10280.80
469.17	10534.75
469.38	10698.59
469.59	10841.95
469.80	10604.38
470.01	10682.20
470.21	10694.49
470.42	11065.18
470.63	11059.03
470.84	10846.04
471.04	11183.96
471.25	11233.11
471.46	11089.75
471.67	11528.02
471.87	11292.50
472.08	11392.85
472.29	11720.53
472.50	11491.15
472.70	11448.15
472.91	11616.08
473.12	11597.65
473.33	11798.35
473.53	12058.44
473.74	11974.47
473.95	12134.21
474.16	12455.75
474.36	12308.29
474.57	12445.51
474.78	12431.17
474.99	12687.17
475.19	12425.03
475.40	12408.64
475.61	12730.17
475.81	12877.63
476.02	13199.16
476.23	12828.48
476.44	13203.25
476.64	13240.12
476.85	13432.63
477.06	13408.05
477.27	13698.86
477.47	13559.60
477.68	13469.49
477.89	13870.89
478.09	13647.66
478.30	13723.44
478.51	13817.65
478.71	14208.81
478.92	14284.58
479.13	14278.44
479.34	14511.91
479.54	14083.88
479.75	14386.98
479.96	14573.35
480.16	14640.93
480.37	14896.92
480.58	14636.83
480.78	15001.37
480.99	14984.99
481.20	15214.36
481.41	15320.85
481.61	15322.90
481.82	15537.94
482.03	15546.13
482.23	15357.72
482.44	15673.10
482.65	15830.80
482.85	15675.15
483.06	15845.13
483.27	15728.40
483.47	16172.81
483.68	15968.01
483.89	16570.12
484.09	16312.07
484.30	16297.74
484.51	16776.96
484.71	16996.09
484.92	16566.02
485.13	16889.60
485.33	16957.18
485.54	17006.33
485.75	17256.18
485.95	17311.48
486.16	17327.86
486.37	17463.03
486.57	17235.70
486.78	17340.15
486.98	17886.96
487.19	17645.30
487.40	17934.06
487.60	17796.85
487.81	18075.37
488.02	17889.01
488.22	18239.21
488.43	18349.80
488.64	18568.93
488.84	18427.62
489.05	18593.51
489.25	18439.91
489.46	18783.97
489.67	18755.30
489.87	18800.35
490.08	19070.68
490.29	18738.91
490.49	19183.32
490.70	19502.81
490.90	19449.56
491.11	19187.42
491.32	19549.91
491.52	19500.76
491.73	19791.57
491.94	19787.47
492.14	19590.87
492.35	20154.06
492.55	19908.30
492.76	20117.20
492.97	20190.92
493.17	20016.85
493.38	20276.94
493.58	20336.33
493.79	20369.10
494.00	20446.92
494.20	20750.02
494.41	21198.52
494.61	20782.79
494.82	21077.69
495.02	20854.47
495.23	21348.03
495.44	21262.01
495.64	21487.29
495.85	21388.99
496.05	21305.02
496.26	21450.42
496.47	21728.95
496.67	21370.55
496.88	22060.72
497.08	21470.90
497.29	22306.48
497.49	21780.15
497.70	22124.21
497.91	22394.54
498.11	22349.48
498.32	22292.14
498.52	22417.07
498.73	22781.60
498.93	22673.06
499.14	22494.89
499.34	22707.88
499.55	22855.33
499.76	22810.28
499.96	22875.81
500.17	23008.93
500.37	23332.51
500.58	23117.47
500.78	23250.59
500.99	23301.79
501.19	23674.52
501.40	23279.26
501.60	23101.09
501.81	23578.26
502.02	23754.39
502.22	23432.86
502.43	23942.80
502.63	24018.58
502.84	24149.65
503.04	23961.23
503.25	24037.01
503.45	24198.80
503.66	24311.44
503.86	24034.96
504.07	24282.77
504.27	24223.37
504.48	24647.30
504.68	24477.32
504.89	24792.71
505.09	24575.62
505.30	24680.07
505.50	24813.19
505.71	24968.84
505.91	25013.89
506.12	24979.07
506.32	24974.98
506.53	25253.50
506.73	25163.39
506.94	25181.82
507.14	25237.12
507.35	25243.26
507.55	25308.80
507.76	25816.69
507.96	25470.59
508.17	25525.88
508.37	25812.60
508.58	25910.90
508.78	25726.58
508.99	25878.13
509.19	26017.40
509.40	25984.63
509.60	25962.10
509.81	26103.41
510.01	25814.65
510.22	25984.63
510.42	25986.68
510.63	26396.27
510.83	26586.73
511.04	26390.13
511.24	26476.14
511.44	26365.55
511.65	26576.49
511.85	26584.68
512.06	26496.62
512.26	26363.50
512.47	26721.90
512.67	26754.66
512.88	26570.35
513.08	26488.43
513.29	26728.04
513.49	26887.78
513.69	26812.01
513.90	27197.02
514.10	27496.03
514.31	27373.15
514.51	27121.25
514.72	27141.73
514.92	27418.21
515.13	27090.53
515.33	27647.58
515.53	27770.46
515.74	27739.74
515.94	27696.73
516.15	27739.74
516.35	27170.40
516.56	27879.00
516.76	27614.81
516.96	27780.70
517.17	28173.91
517.37	27887.19
517.58	28038.74
517.78	27938.39
517.99	28212.82
518.19	28495.44
518.39	28229.20
518.60	28671.56
518.80	28397.13
519.01	28399.18
519.21	28616.27
519.41	28493.39
519.62	28571.21
519.82	28958.28
520.03	28812.87
520.23	28802.63
520.43	28784.20
520.64	29115.97
520.84	29437.50
521.05	29331.01
521.25	29466.17
521.45	29324.86
521.66	29558.33
521.86	29621.82
522.07	29464.13
522.27	29711.93
522.47	29503.04
522.68	30277.17
522.88	29810.23
523.08	30019.13
523.29	29947.45
523.49	29953.59
523.70	30137.91
523.90	30357.04
524.10	30197.30
524.31	30334.51
524.51	30314.03
524.71	30905.90
524.92	30735.92
525.12	30494.25
525.33	30580.27
525.53	30975.53
525.73	31039.01
525.94	31043.11
526.14	30967.34
526.34	31116.84
526.55	31168.04
526.75	31149.60
526.95	31778.33
527.16	31487.52
527.36	31467.04
527.56	31385.12
527.77	32011.80
527.97	32058.90
528.17	31667.74
528.38	31776.28
528.58	32173.59
528.78	32247.32
528.99	32243.22
529.19	32433.68
529.39	32108.05
529.60	32597.52
529.80	32626.19
530.00	32497.17
530.21	33011.21
530.41	32712.20
530.61	32718.35
530.82	32933.39
531.02	33076.74
531.22	33295.88
531.43	33138.18
531.63	33195.53
531.83	33826.30
532.04	33992.19
532.24	33453.57
532.44	33971.71
532.64	33916.41
532.85	34129.40
533.05	33875.45
533.25	33981.95
533.46	34133.50
533.66	34215.41
533.86	34317.81
534.07	35057.13
534.27	34618.86
534.47	34756.08
534.67	35061.22
534.88	34401.78
535.08	34653.68
535.28	35161.58
535.49	35087.85
535.69	35354.08
535.89	35370.47
536.09	35567.07
536.30	35671.52
536.50	35425.76
536.70	35741.15
536.91	36077.02
537.11	35782.11
537.31	36109.78
537.51	36062.68
537.72	36406.74
537.92	36156.89
538.12	36890.06
538.32	36423.12
538.53	36668.88
538.73	36146.65
538.93	36462.04
539.13	36621.78
539.34	36748.75
539.54	36681.17
539.74	37174.73
539.94	36777.42
540.15	37254.60
540.35	37256.65
540.55	36818.38
540.75	37025.23
540.96	37391.81
541.16	37369.29
541.36	37252.55
541.56	37508.55
541.77	37795.26
541.97	37586.37
542.17	37696.96
542.37	37529.03
542.58	37721.54
542.78	37643.71
542.98	37664.19
543.18	38376.89
543.38	38669.75
543.59	38364.60
543.79	38258.10
543.99	38411.70
544.19	38172.09
544.40	38280.63
544.60	39118.25
544.80	38751.66
545.00	38753.71
545.20	39099.82
545.41	38804.91
545.61	38974.89
545.81	39368.10
546.01	38960.56
546.21	39277.99
546.42	39243.18
546.62	39286.18
546.82	39153.07
547.02	39554.47
547.22	39855.52
547.43	39732.64
547.63	39984.54
547.83	39699.87
548.03	39177.64
548.23	39900.58
548.44	39925.15
548.64	40002.97
548.84	40031.65
549.04	39925.15
549.24	40273.31
549.45	40240.54
549.65	40086.94
549.85	40064.41
550.05	40254.87
550.25	40252.83
550.45	41106.83
550.66	40144.28
550.86	40086.94
551.06	40723.86
551.26	40678.80
551.46	40514.97
551.66	40619.41
551.87	40627.60
552.07	40779.15
552.27	41022.86
552.47	41119.12
552.67	41145.74
552.87	41063.82
553.07	41137.55
553.28	41170.32
553.48	40766.87
553.68	41258.38
553.88	41383.30
554.08	41612.68
554.28	41393.54
554.48	41438.60
554.69	41682.31
554.89	41254.28
555.09	41774.47
555.29	41258.38
555.49	41491.85
555.69	41438.60
555.89	41624.96
556.10	41774.47
556.30	41915.78
556.50	42096.00
556.70	41911.68
556.90	42184.06
557.10	42145.15
557.30	41518.47
557.50	42255.74
557.70	42300.79
557.91	41944.45
558.11	42444.15
558.31	42466.68
558.51	42376.57
558.71	42415.48
558.91	42270.08
559.11	42384.76
559.31	42415.48
559.51	42612.09
559.72	42397.05
559.92	42706.29
560.12	42132.86
560.32	42521.98
560.52	42151.29
560.72	42327.42
560.92	42835.31
561.12	42364.28
561.32	43197.80
561.52	42341.75
561.72	42960.24
561.93	42659.19
562.13	43124.08
562.33	42931.57
562.53	43257.20
562.73	43007.34
562.93	43531.62
563.13	43398.51
563.33	43232.62
563.53	43400.55
563.73	42956.14
563.93	43666.79
564.13	43769.19
564.33	43629.93
564.53	43363.69
564.74	43662.69
564.94	43066.73
565.14	43638.12
565.34	43296.11
565.54	43916.64
565.74	43687.27
565.94	43785.57
566.14	43883.87
566.34	43531.62
566.54	43996.51
566.74	43285.87
566.94	44039.52
567.14	44111.20
567.34	43527.53
567.54	44096.86
567.74	44060.00
567.94	43986.27
568.14	44498.26
568.34	44705.11
568.54	44655.96
568.74	44244.32
568.94	44461.40
569.14	44655.96
569.34	44457.31
569.54	44539.22
569.75	44139.87
569.95	44424.54
570.15	44717.40
570.35	44655.96
570.55	44698.97
570.75	44359.00
570.95	44873.04
571.15	44692.82
571.35	44602.71
571.55	44993.87
571.75	44961.11
571.95	45038.93
572.15	44866.90
572.35	45282.64
572.55	44940.63
572.75	45253.97
572.95	44907.86
573.15	45278.54
573.35	45104.46
573.55	44887.38
573.75	45266.25
573.95	45507.91
574.15	45170.00
574.35	45540.68
574.55	45501.77
574.75	45471.05
574.95	45550.92
575.15	45548.87
575.34	45772.10
575.54	46056.77
575.74	46015.81
575.94	45753.67
576.14	45622.60
576.34	46300.48
576.54	46085.44
576.74	46030.15
576.94	46359.87
577.14	46028.10
577.34	46490.94
577.54	45905.22
577.74	46224.70
577.94	46230.85
578.14	46462.27
578.34	47199.54
578.54	45800.77
578.74	46212.41
578.94	46564.67
579.14	46284.09
579.34	46581.05
579.54	46490.94
579.74	46937.40
579.94	46579.00
580.13	47025.46
580.33	47076.66
580.53	47355.18
580.73	46867.76
580.93	46867.76
581.13	46925.11
581.33	47346.99
581.53	47287.60
581.73	47521.07
581.93	47416.62
582.13	47627.56
582.33	47199.54
582.53	47439.15
582.73	47375.66
582.92	47725.86
583.12	47791.40
583.32	47426.86
583.52	47498.54
583.72	47732.01
583.92	47742.25
584.12	47764.78
584.32	48618.78
584.52	47897.89
584.72	48008.48
584.92	48270.62
585.11	48956.69
585.31	47971.62
585.51	48182.56
585.71	48215.33
585.91	48467.23
586.11	48418.08
586.31	48610.59
586.51	48393.50
586.71	48528.67
586.91	48805.14
587.10	48456.99
587.30	48885.01
587.50	48588.06
587.70	49073.43
587.90	48811.29
588.10	48979.22
588.30	48993.56
588.50	49265.94
588.69	49167.63
588.89	49286.42
589.09	49255.70
589.29	49380.62
589.49	49751.30
589.69	48948.50
589.89	49538.32
590.08	49290.51
590.28	49650.95
590.48	49696.01
590.68	49382.67
590.88	49292.56
591.08	49087.76
591.28	49126.67
591.47	49972.49
591.67	49753.35
591.87	49816.84
592.07	49984.77
592.27	49906.95
592.47	49677.58
592.67	49589.52
592.86	49587.47
593.06	49972.49
593.26	50046.21
593.46	49978.63
593.66	50197.76
593.86	49706.25
594.05	50359.55
594.25	50545.92
594.45	50474.24
594.65	50631.93
594.85	50271.49
595.05	50502.91
595.24	50601.21
595.44	50541.82
595.64	50558.20
595.84	50717.95
596.04	50310.40
596.23	50662.65
596.43	50617.60
596.63	51262.71
596.83	50812.15
597.03	51283.19
597.22	51299.57
597.42	51092.72
597.62	51158.26
597.82	51049.72
598.02	51500.27
598.21	51594.48
598.41	50789.62
598.61	51342.58
598.81	51012.85
599.01	51426.54
599.20	51905.77
599.40	51545.33
599.60	51369.20
599.80	51600.62
600.00	51932.39
600.19	51883.24
600.39	51391.73
600.59	51889.38
600.79	52315.36
600.98	52090.09
601.18	51692.78
601.38	52180.20
601.58	51897.58
601.78	52135.14
601.97	52116.71
602.17	52159.72
602.37	52446.43
602.57	52294.88
602.76	52309.22
602.96	52178.15
603.16	52929.75
603.36	52688.09
603.55	52925.66
603.75	52624.60
603.95	52839.64
604.15	52817.11
604.34	52952.28
604.54	53087.45
604.74	52946.14
604.94	52933.85
605.13	53458.13
605.33	53683.40
605.53	52892.89
605.73	53648.59
605.92	53794.00
606.12	53861.58
606.32	53654.73
606.52	53466.32
606.71	53648.59
606.91	53570.77
607.11	53411.02
607.30	53794.00
607.50	53656.78
607.70	53853.39
607.90	53468.37
608.09	54064.33
608.29	53888.20
608.49	53810.38
608.68	54058.18
608.88	54015.18
609.08	54170.82
609.28	54146.25
609.47	53794.00
609.67	54424.77
609.87	54158.53
610.06	54217.92
610.26	54211.78
610.46	54355.14
610.66	53910.73
610.85	54494.40
611.05	54246.60
611.25	54398.15
611.44	54228.16
611.64	54543.55
611.84	54287.56
612.03	54109.38
612.23	54813.88
612.43	54797.50
612.62	54199.49
612.82	54670.53
613.02	54473.92
613.21	54473.92
613.41	54273.22
613.61	54617.28
613.80	53871.82
614.00	54277.32
614.20	54394.05
614.39	54828.22
614.59	54146.25
614.79	54621.37
614.98	54590.66
615.18	54621.37
615.38	54947.00
615.57	54580.42
615.77	54740.16
615.97	54629.57
616.16	54371.52
616.36	54666.43
616.56	54834.36
616.75	54760.64
616.95	54074.57
617.15	54529.22
617.34	54932.67
617.54	54269.12
617.74	55033.02
617.93	54860.99
618.13	54471.87
618.32	54504.64
618.52	54650.05
618.72	54574.27
618.91	54824.12
619.11	54703.29
619.31	54762.68
619.50	54387.91
619.70	54113.48
619.90	54918.33
620.09	55043.26
620.29	54826.17
620.48	54850.75
620.68	55264.44
620.88	54250.69
621.07	54686.91
621.27	55071.93
621.46	54367.43
621.66	54717.63
621.86	54617.28
622.05	54707.39
622.25	54838.46
622.44	54392.00
622.64	54684.86
622.84	54645.95
623.03	54609.09
623.23	54580.42
623.42	54916.28
623.62	54656.19
623.82	54764.73
624.01	54688.96
624.21	54873.27
624.40	54844.60
624.60	54889.66
624.80	54473.92
624.99	54684.86
625.19	54461.63
625.38	54381.76
625.58	54842.56
625.77	54942.91
625.97	54994.10
626.17	54500.54
626.36	54731.96
626.56	54973.63
626.75	54375.62
626.95	54994.10
627.14	54596.80
627.34	55256.24
627.54	54662.33
627.73	54836.41
627.93	54777.02
628.12	54322.37
628.32	55151.80
628.51	54822.08
628.71	54486.21
628.90	54332.61
629.10	54623.42
629.30	54891.71
629.49	54906.04
629.69	54707.39
629.88	54256.84
630.08	55612.59
630.27	54750.40
630.47	54887.61
630.66	54994.10
630.86	54637.76
631.05	54330.56
631.25	55276.72
631.44	55057.59
631.64	54844.60
631.84	55039.16
632.03	54990.01
632.23	54842.56
632.42	55186.61
632.62	54838.46
632.81	54807.74
633.01	54895.80
633.20	55090.36
633.40	55180.47
633.59	54875.32
633.79	55268.53
633.98	54998.20
634.18	55272.63
634.37	55235.77
634.57	55233.72
634.76	55227.57
634.96	55377.08
635.15	55014.58
635.35	55012.54
635.54	54949.05
635.74	55260.34
635.93	54879.42
636.13	55278.77
636.32	55420.08
636.52	54990.01
636.71	55000.25
636.91	55321.78
637.10	55506.10
637.30	54887.61
637.49	54869.18
637.69	55157.94
637.88	55311.54
638.08	54971.58
638.27	55522.48
638.46	55491.76
638.66	55008.44
638.85	55200.95
639.05	55264.44
639.24	55663.79
639.44	55098.55
639.63	55073.98
639.83	55899.31
640.02	55164.09
640.22	55319.73
640.41	55835.82
640.61	54947.00
640.80	55614.64
640.99	55557.30
641.19	55858.35
641.38	55198.90
641.58	55600.30
641.77	55485.62
641.97	55256.24
642.16	55755.95
642.36	55721.13
642.55	56405.16
642.74	55344.31
642.94	56181.93
643.13	55633.07
643.33	55809.20
643.52	55760.05
643.72	55983.27
643.91	55487.67
644.10	55555.25
644.30	55698.61
644.49	55723.18
644.69	55909.55
644.88	55815.34
645.08	55354.55
645.27	55905.45
645.46	55721.13
645.66	55956.65
645.85	55561.39
646.05	56028.33
646.24	56018.09
646.43	55731.37
646.63	56030.38
646.82	56515.75
647.02	56521.89
647.21	56038.57
647.40	56071.34
647.60	56300.71
647.79	55825.58
647.99	55889.07
648.18	56030.38
648.37	56442.02
648.57	56202.41
648.76	56663.20
648.96	55948.46
649.15	56439.97
649.34	56683.68
649.54	56284.33
649.73	55852.20
649.92	56525.99
650.12	55999.66
650.31	56523.94
650.51	56300.71
650.70	56550.56
650.89	55923.88
651.09	56915.10
651.28	56298.66
651.47	56472.74
651.67	56693.92
651.86	56620.19
652.06	56153.26
652.25	56421.54
652.44	56372.39
652.64	56605.86
652.83	56024.23
653.02	56032.42
653.22	56409.25
653.41	56366.24
653.60	56439.97
653.80	56100.01
653.99	56751.26
654.18	56571.04
654.38	56442.02
654.57	56736.93
654.76	56659.10
654.96	56415.40
655.15	56579.23
655.34	56741.02
655.54	56136.87
655.73	56585.38
655.92	56669.34
656.12	56931.48
656.31	57062.55
656.50	56485.03
656.70	56530.08
656.89	56695.97
657.08	56630.43
657.28	56646.82
657.47	56691.87
657.66	56777.89
657.86	56814.75
658.05	56399.01
658.24	56759.45
658.43	56374.44
658.63	56931.48
658.82	56796.32
659.01	56777.89
659.21	56759.45
659.40	56935.58
659.59	56566.94
659.79	57078.94
659.98	56775.84
660.17	56921.24
660.36	56734.88
660.56	56868.00
660.75	57115.80
660.94	57447.57
661.14	56673.44
661.33	56859.80
661.52	56386.72
661.71	57105.56
661.91	56679.58
662.10	56685.73
662.29	56743.07
662.49	56878.24
662.68	56915.10
662.87	57283.73
663.06	56919.20
663.26	56745.12
663.45	57210.01
663.64	57326.74
663.83	57201.82
664.03	56685.73
664.22	56695.97
664.41	57248.92
664.60	56689.82
664.80	56788.13
664.99	56925.34
665.18	56736.93
665.37	57212.06
665.57	57263.25
665.76	56902.81
665.95	57316.50
666.14	56843.42
666.34	56925.34
666.53	56810.65
666.72	56880.28
666.91	56933.53
667.11	56775.84
667.30	56489.12
667.49	56300.71
667.68	56552.61
667.87	56788.13
668.07	57060.51
668.26	56736.93
668.45	56974.49
668.64	56765.60
668.84	57656.46
669.03	56951.96
669.22	57238.68
669.41	57396.37
669.60	56915.10
669.80	57054.36
669.99	57322.65
670.18	57072.79
670.37	56718.49
670.57	57826.45
670.76	56833.18
670.95	57246.87
671.14	57234.58
671.33	56663.20
671.53	57320.60
671.72	57019.55
671.91	57064.60
672.10	56786.08
672.29	56906.91
672.48	57169.05
672.68	57429.14
672.87	56691.87
673.06	56747.17
673.25	57050.27
673.44	56618.14
673.64	57050.27
673.83	56493.22
674.02	56777.89
674.21	56573.09
674.40	56681.63
674.59	56378.53
674.79	56665.25
674.98	56523.94
675.17	56923.29
675.36	56468.64
675.55	57093.27
675.74	56464.55
675.94	56771.74
676.13	56165.54
676.32	56857.76
676.51	56896.67
676.70	56575.14
676.89	56587.42
677.08	56695.97
677.28	56773.79
677.47	57232.53
677.66	56870.04
677.85	56614.05
678.04	56446.11
678.23	56738.97
678.42	56898.72
678.62	56906.91
678.81	56956.06
679.00	56464.55
679.19	57070.75
679.38	56521.89
679.57	56734.88
679.76	56603.81
679.96	56865.95
680.15	56769.69
680.34	56607.90
680.53	56583.33
680.72	56517.79
680.91	56923.29
681.10	56478.88
681.29	56767.65
681.48	56478.88
681.68	56315.04
681.87	56251.56
682.06	56743.07
682.25	55975.08
682.44	56083.62
682.63	56614.05
682.82	56409.25
683.01	56140.97
683.20	56124.58
683.39	56251.56
683.59	55952.55
683.78	56206.50
683.97	56079.53
684.16	55913.64
684.35	55905.45
684.54	55850.16
684.73	55844.01
684.92	55801.00
685.11	55991.47
685.30	56030.38
685.49	56267.94
685.69	56202.41
685.88	56145.06
686.07	56050.86
686.26	55850.16
686.45	56493.22
686.64	56218.79
686.83	56124.58
687.02	55878.83
687.21	56089.77
687.40	56200.36
687.59	56249.51
687.78	55905.45
687.97	56310.95
688.16	56030.38
688.35	55970.99
688.54	55891.12
688.74	55938.22
688.93	55852.20
689.12	55954.60
689.31	56171.69
689.50	55985.32
689.69	55786.67
689.88	55092.41
690.07	55768.24
690.26	55235.77
690.45	55921.83
690.64	55391.41
690.83	55815.34
691.02	55289.01
691.21	55678.13
691.40	55647.41
691.59	55409.84
691.78	55358.64
691.97	55813.29
692.16	55258.29
692.35	55862.44
692.54	55624.88
692.73	55477.43
692.92	55389.36
693.11	55297.20
693.30	54953.15
693.49	55536.82
693.68	55471.28
693.87	54887.61
694.06	55000.25
694.25	54992.06
694.44	55067.83
694.63	55510.19
694.82	55227.57
695.01	55760.05
695.20	55231.67
695.39	55137.46
695.58	54922.43
695.77	54893.75
695.96	54680.77
696.15	54885.56
696.34	54770.88
696.53	55231.67
696.72	55145.65
696.91	54400.19
697.10	55047.35
697.29	54760.64
697.48	55004.34
697.67	54879.42
697.86	54490.30
698.05	54613.18
698.24	55133.37
698.43	54176.97
698.62	54887.61
698.81	54629.57
699.00	54959.29
699.19	54404.29
699.38	54940.86
699.57	54107.33
699.76	54744.25
699.95	54449.35
700.14	54604.99
700.32	54471.87
700.51	54338.75
700.70	54568.13
700.89	54744.25
701.08	54449.35
701.27	54164.68
701.46	54709.44
701.65	53957.83
701.84	53884.11
702.03	54312.13
702.22	54047.94
702.41	54078.66
702.60	54119.62
702.79	53998.79
702.98	54344.90
703.17	53771.47
703.35	53562.57
703.54	53847.24
703.73	54158.53
703.92	53718.22
704.11	53828.81
704.30	53775.56
704.49	53533.90
704.68	53882.06
704.87	53671.12
705.06	54015.18
705.25	53447.89
705.43	53763.28
705.62	53753.04
705.81	53583.05
706.00	53451.98
706.19	52935.90
706.38	53042.39
706.57	53794.00
706.76	53492.94
706.95	53253.33
707.14	52886.74
707.32	53204.18
707.51	52548.83
707.70	52927.70
707.89	53318.87
708.08	53150.93
708.27	53408.98
708.46	53527.76
708.65	53181.65
708.84	53443.79
709.02	52833.50
709.21	53060.82
709.40	53093.59
709.59	53236.95
709.78	52774.11
709.97	53206.23
710.16	52804.83
710.34	53040.34
710.53	52798.68
710.72	52577.50
710.91	52841.69
711.10	52622.56
711.29	52872.41
711.48	53044.44
711.66	52587.74
711.85	52696.28
712.04	52847.83
712.23	52475.10
712.42	52606.17
712.61	52438.24
712.80	52483.30
712.98	52415.71
713.17	52341.99
713.36	52501.73
713.55	52405.47
713.74	52028.65
713.93	52303.07
714.11	52350.18
714.30	51995.88
714.49	52237.54
714.68	51885.29
714.87	52129.00
715.06	52172.00
715.24	51649.77
715.43	51873.00
715.62	51999.97
715.81	51475.69
716.00	52141.28
716.18	51756.27
716.37	51754.22
716.56	51807.47
716.75	51707.12
716.94	51244.27
717.12	51209.46
717.31	51809.51
717.50	51442.93
717.69	51555.57
717.88	51162.36
718.06	51709.16
718.25	51582.19
718.44	51000.57
718.63	51199.22
718.82	50763.00
719.00	51234.03
719.19	50924.79
719.38	50877.69
719.57	50722.04
719.76	51254.51
719.94	50423.04
720.13	50607.36
720.32	50744.57
720.51	50623.74
720.69	50429.18
720.88	50726.14
721.07	50832.63
721.26	50279.68
721.44	50167.04
721.63	50183.43
721.82	50001.16
722.01	50302.21
722.20	50476.29
722.38	49724.68
722.57	49456.40
722.76	50013.44
722.95	50048.26
723.13	49610.00
723.32	49976.58
723.51	49784.07
723.70	49646.86
723.88	49640.71
724.07	49249.55
724.26	49714.44
724.44	48899.35
724.63	49386.77
724.82	49499.40
725.01	49257.74
725.19	49519.88
725.38	49337.62
725.57	48964.88
725.76	49534.22
725.94	49022.23
726.13	49454.35
726.32	49315.09
726.51	49290.51
726.69	49741.06
726.88	49071.38
727.07	49407.25
727.25	49061.14
727.44	49009.94
727.63	48819.48
727.82	49028.37
728.00	49200.40
728.19	48753.94
728.38	48897.30
728.56	48618.78
728.75	48944.41
728.94	48465.18
729.12	49239.31
729.31	49005.84
729.50	49095.95
729.69	49173.78
729.87	48936.21
730.06	48919.83
730.25	48866.58
730.43	49190.16
730.62	48168.22
730.81	48571.67
730.99	48842.01
731.18	48790.81
731.37	48749.85
731.55	48866.58
731.74	49028.37
731.93	49067.28
732.11	48968.98
732.30	48805.14
732.49	48301.34
732.67	49018.13
732.86	48715.03
733.05	48854.29
733.23	48930.07
733.42	48735.51
733.61	48366.88
733.79	48596.25
733.98	48622.87
734.17	48479.52
734.35	48592.15
734.54	48669.98
734.73	48919.83
734.91	48626.97
735.10	48469.28
735.29	48655.64
735.47	48436.51
735.66	48426.27
735.84	48551.20
736.03	48379.17
736.22	48518.43
736.40	48495.90
736.59	48309.53
736.78	47877.41
736.96	48129.31
737.15	47981.86
737.33	48088.35
737.52	47981.86
737.71	48229.66
737.89	48356.64
738.08	47375.66
738.27	47932.71
738.45	48528.67
738.64	47969.57
738.82	47994.15
739.01	48100.64
739.20	48223.52
739.38	48004.39
739.57	48387.36
739.75	47854.89
739.94	47881.51
740.13	47750.44
740.31	47867.17
740.50	47461.68
740.68	48051.49
740.87	47887.65
741.06	47924.52
741.24	47516.97
741.43	47193.39
741.61	47678.76
741.80	47324.46
741.99	47303.98
742.17	47260.97
742.36	47576.36
742.54	47078.71
742.73	47215.92
742.91	47516.97
743.10	47076.66
743.29	47373.61
743.47	47578.41
743.66	47045.94
743.84	47500.59
744.03	47480.11
744.21	47340.85
744.40	47592.75
744.59	47115.57
744.77	46955.83
744.96	47127.86
745.14	47168.82
745.33	47320.37
745.51	46898.48
745.70	47250.74
745.88	47222.06
746.07	46642.49
746.26	46755.13
746.44	46742.84
746.63	46953.78
746.81	47183.15
747.00	46484.79
747.18	46613.82
747.37	46658.87
747.55	46753.08
747.74	47142.19
747.92	46333.24
748.11	46366.01
748.29	46830.90
748.48	46560.57
748.66	46200.13
748.85	46120.26
749.03	46208.32
749.22	45974.85
749.41	46294.33
749.59	46169.41
749.78	46298.43
749.96	45745.48
750.15	46353.72
750.33	45911.36
750.52	45792.58
750.70	46366.01
750.89	45651.27
751.07	45688.13
751.26	45935.94
751.44	45743.43
751.63	45710.66
751.81	45737.29
752.00	45743.43
752.18	45962.56
752.37	45770.05
752.55	45638.98
752.74	45749.57
752.92	45929.80
753.10	45872.45
753.29	45505.87
753.47	45387.08
753.66	45303.12
753.84	45624.65
754.03	45546.82
754.21	44897.62
754.40	45444.43
754.58	45395.28
754.77	45106.51
754.95	45075.79
755.14	44893.52
755.32	45104.46
755.51	44926.29
755.69	44737.88
755.88	44860.76
756.06	44881.24
756.24	45063.50
756.43	44856.66
756.61	44916.05
756.80	44684.63
756.98	44422.49
757.17	44858.71
757.35	44754.26
757.54	45016.40
757.72	44899.67
757.90	44975.44
758.09	44569.94
758.27	44713.30
758.46	44455.26
758.64	44658.01
758.83	45004.11
759.01	44477.79
759.19	44594.52
759.38	44217.69
759.56	44604.76
759.75	44361.05
759.93	44275.04
760.12	44324.19
760.30	44383.58
760.48	43957.60
760.67	44756.31
760.85	44340.57
761.04	44291.42
761.22	44283.23
761.40	44389.72
761.59	44086.62
761.77	43814.24
761.96	43777.38
762.14	43988.32
762.32	43703.65
762.51	43793.76
762.69	43830.63
762.88	43709.80
763.06	43853.15
763.24	43871.59
763.43	43908.45
763.61	43652.45
763.80	43371.88
763.98	43560.30
764.16	43617.64
764.35	43814.24
764.53	43310.44
764.72	43517.29
764.90	43416.94
765.08	43210.09
765.27	43138.41
765.45	42976.62
765.63	42542.45
765.82	43642.21
766.00	42591.61
766.18	42712.44
766.37	42964.34
766.55	43099.50
766.74	43296.11
766.92	43103.60
767.10	42743.16
767.29	42845.55
767.47	42239.36
767.65	42800.50
767.84	42157.44
768.02	42626.42
768.20	42200.44
768.39	42462.58
768.57	42411.38
768.75	42462.58
768.94	42304.89
769.12	42335.61
769.30	41858.43
769.49	41977.22
769.67	41944.45
769.85	41649.54
770.04	42028.41
770.22	41686.40
770.40	41928.06
770.59	42220.92
770.77	42034.56
770.95	41987.46
771.14	41778.56
771.32	41110.92
771.50	41100.68
771.69	41418.12
771.87	41438.60
772.05	41557.38
772.24	40816.02
772.42	41166.22
772.60	41389.45
772.78	41260.43
772.97	40899.98
773.15	41407.88
773.33	41198.99
773.52	41053.58
773.70	41061.77
773.88	41680.26
774.07	40902.03
774.25	41366.92
774.43	41444.74
774.61	41395.59
774.80	41485.70
774.98	40981.90
775.16	41241.99
775.34	40947.09
775.53	41080.21
775.71	41428.36
775.89	41096.59
776.08	40988.05
776.26	41332.11
776.44	41399.69
776.62	41663.88
776.81	41031.05
776.99	41158.03
777.17	41340.30
777.35	41588.10
777.54	41463.18
777.72	41235.85
777.90	41188.75
778.08	41563.53
778.27	41678.21
778.45	41983.36
778.63	41643.40
778.81	41207.18
779.00	41913.73
779.18	41512.33
779.36	41657.73
779.54	41491.85
779.73	41809.28
779.91	41710.98
780.09	41774.47
780.27	41655.68
780.46	41921.92
780.64	42077.57
780.82	41616.77
781.00	41807.23
781.19	41983.36
781.37	42345.85
781.55	42163.58
781.73	42411.38
781.91	42157.44
782.10	42157.44
782.28	42288.51
782.46	42167.68
782.64	42517.88
782.82	41948.54
783.01	41792.90
783.19	42456.44
783.37	42204.54
783.55	41821.57
783.74	42546.55
783.92	41790.85
784.10	42460.54
784.28	42171.77
784.46	41985.41
784.64	42030.46
784.83	42315.13
785.01	42200.44
785.19	42290.55
785.37	42143.10
785.55	42194.30
785.74	41741.70
785.92	41536.90
786.10	41735.56
786.28	41983.36
786.46	41606.53
786.64	41528.71
786.83	42096.00
787.01	42229.12
787.19	41821.57
787.37	41885.06
787.55	41680.26
787.74	41862.53
787.92	41579.91
788.10	41487.75
788.28	41248.14
788.46	41391.50
788.64	41389.45
788.82	41702.79
789.01	41553.29
789.19	41371.02
789.37	41319.82
789.55	41280.91
789.73	40826.26
789.91	41182.60
790.09	41022.86
790.28	40537.49
790.46	40760.72
790.64	41323.91
790.82	41026.96
791.00	40588.69
791.18	40478.10
791.36	40824.21
791.55	40471.96
791.73	40385.94
791.91	40334.74
792.09	40326.55
792.27	40347.03
792.45	40435.10
792.63	39869.86
792.81	39837.09
793.00	40437.14
793.18	39945.63
793.36	40015.26
793.54	39495.08
793.72	39359.91
793.90	39597.48
794.08	39337.38
794.26	39601.57
794.44	39005.61
794.62	39075.24
794.81	39570.85
794.99	39400.87
795.17	39140.78
795.35	39230.89
795.53	39187.88
795.71	39024.04
795.89	38766.00
796.07	38800.82
796.25	38462.90
796.43	38362.55
796.61	37971.39
796.80	38430.13
796.98	38720.95
797.16	38434.23
797.34	38448.57
797.52	38151.61
797.70	38364.60
797.88	38053.31
798.06	37686.72
798.24	37537.22
798.42	37641.67
798.60	37379.53
798.78	37938.62
798.96	37692.86
799.14	37344.71
799.32	37600.71
799.51	37088.71
799.69	37483.97
799.87	37389.77
800.05	36771.28
800.23	36961.74
800.41	36445.65
800.59	37148.11
800.77	36767.18
800.95	36529.62
801.13	36707.79
801.31	36230.62
801.49	36345.30
801.67	36513.23
801.85	36423.12
802.03	35831.26
802.21	35939.80
802.39	35577.31
802.57	35788.25
802.75	35769.82
802.93	35618.27
803.11	35710.43
803.29	35331.56
803.47	35528.16
803.65	35440.10
803.83	35532.26
804.01	35384.80
804.19	35046.89
804.37	35239.40
804.55	34944.49
804.73	35358.18
804.91	34919.92
805.09	35010.03
805.27	34737.65
805.45	35139.05
805.63	35288.55
805.81	34584.05
805.99	34950.63
806.17	34809.32
806.35	34764.27
806.53	34436.59
806.71	34252.28
806.89	34156.02
807.07	34022.90
807.25	34803.18
807.43	33828.35
807.61	34057.72
807.79	34192.89
807.97	33906.17
808.15	33744.38
808.33	33670.65
808.51	33631.74
808.69	34082.30
808.87	33279.49
809.05	33261.06
809.23	33310.21
809.41	32730.64
809.59	32968.20
809.77	32947.72
809.95	32814.60
810.13	32837.13
810.31	33046.02
810.49	32960.01
810.67	32890.38
810.84	33203.72
811.02	33111.56
811.20	32198.16
811.38	32597.52
811.56	32306.71
811.74	32167.45
811.92	32316.95
812.10	32382.48
812.28	32710.16
812.46	32349.71
812.64	32347.67
812.82	32282.13
813.00	32331.28
813.18	31972.89
813.36	31843.87
813.53	31874.59
813.71	31921.69
813.89	32063.00
814.07	31741.47
814.25	31987.22
814.43	31546.91
814.61	31505.95
814.79	31393.31
814.97	31565.34
815.15	31401.50
815.33	30920.23
815.50	31188.52
815.68	31467.04
815.86	31391.26
816.04	30987.82
816.22	30889.51
816.40	30846.51
816.58	30985.77
816.76	31051.30
816.94	30637.61
817.11	30819.88
817.29	30463.54
817.47	30289.46
817.65	30537.26
817.83	30877.22
818.01	30152.24
818.19	30594.61
818.37	30262.83
818.54	30373.42
818.72	29920.82
818.90	30266.93
819.08	30109.24
819.26	29904.44
819.44	29867.58
819.62	29920.82
819.80	30035.51
819.97	30148.15
820.15	29726.27
820.33	29310.53
820.51	29861.43
820.69	29435.45
820.87	29566.52
821.05	29705.79
821.22	29222.47
821.40	29883.96
821.58	29355.58
821.76	29361.73
821.94	29619.77
822.12	29455.93
822.29	29447.74
822.47	29048.39
822.65	29568.57
822.83	29517.37
823.01	29226.56
823.19	29244.99
823.36	28835.40
823.54	29206.08
823.72	28700.23
823.90	28827.21
824.08	28520.01
824.25	29064.77
824.43	28735.05
824.61	28749.39
824.79	28870.22
824.97	28235.35
825.15	28755.53
825.32	28511.82
825.50	28300.88
825.68	28733.00
825.86	28626.51
826.04	28735.05
826.21	28507.72
826.39	28331.60
826.57	28339.79
826.75	28073.56
826.93	28319.31
827.10	27932.25
827.28	28214.87
827.46	28296.78
827.64	27889.24
827.81	27954.77
827.99	28147.28
828.17	27508.32
828.35	27743.83
828.53	27702.87
828.70	27844.18
828.88	27633.24
829.06	27520.60
829.24	27848.28
829.41	27461.21
829.59	27672.15
829.77	27569.76
829.95	27532.89
830.12	27608.67
830.30	27436.64
830.48	27448.93
830.66	27389.53
830.84	27514.46
831.01	27104.87
831.19	27450.97
831.37	27297.38
831.55	27256.42
831.72	27065.96
831.90	27039.33
832.08	27186.79
832.25	26728.04
832.43	27106.91
832.61	26711.66
832.79	26926.69
832.96	26803.82
833.14	26971.75
833.32	26822.25
833.50	27180.64
833.67	26807.91
833.85	26930.79
834.03	26361.45
834.20	26713.70
834.38	26392.17
834.56	26588.78
834.74	26521.20
834.91	26639.98
835.09	26721.90
835.27	25882.23
835.44	26263.15
835.62	25943.67
835.80	26173.04
835.98	26318.45
836.15	26420.84
836.33	26254.96
836.51	26338.93
836.68	26166.90
836.86	26130.03
837.04	26316.40
837.21	25937.52
837.39	26164.85
837.57	26289.77
837.75	26289.77
837.92	25863.80
838.10	26050.16
838.28	25878.13
838.45	25667.19
838.63	25826.93
838.81	25839.22
838.98	25620.09
839.16	25484.92
839.34	25781.88
839.51	25685.62
839.69	25579.13
839.87	25415.29
840.04	25259.65
840.22	25489.02
840.40	25382.52
840.57	25112.19
840.75	25484.92
840.93	24825.48
841.10	25556.60
841.28	25575.03
841.46	25173.63
841.63	25089.67
841.81	25480.83
841.98	25165.44
842.16	25120.38
842.34	25265.79
842.51	24946.31
842.69	25017.99
842.87	24827.53
843.04	25083.52
843.22	24766.09
843.40	24671.88
843.57	24721.03
843.75	24991.36
843.92	24575.62
844.10	24577.67
844.28	24770.18
844.45	24718.98
844.63	24913.54
844.81	24567.43
844.98	24495.75
845.16	24579.72
845.33	24473.23
845.51	24338.06
845.69	24751.75
845.86	24503.95
846.04	24473.23
846.21	24180.37
846.39	24237.71
846.57	24024.72
846.74	24301.20
846.92	24129.17
847.09	24432.27
847.27	24026.77
847.45	24143.50
847.62	24299.15
847.80	24284.81
847.97	23950.99
848.15	23895.70
848.32	24188.56
848.50	24092.30
848.68	23850.64
848.85	23957.14
849.03	23695.00
849.20	23981.71
849.38	23797.40
849.56	23709.33
849.73	23180.96
849.91	23852.69
850.08	24032.91
850.26	23545.50
850.43	23750.29
850.61	23613.08
850.78	22980.26
850.96	23658.14
851.14	23269.02
851.31	23553.69
851.49	23484.06
851.66	23228.06
851.84	23322.27
852.01	23307.93
852.19	23416.47
852.36	23068.32
852.54	23074.46
852.71	23068.32
852.89	23172.77
853.07	23240.35
853.24	23031.46
853.42	23215.77
853.59	22791.84
853.77	23199.39
853.94	22967.97
854.12	23348.89
854.29	22722.21
854.47	23090.85
854.64	22814.37
854.82	22730.41
854.99	22986.40
855.17	22587.05
855.34	22695.59
855.52	22898.34
855.69	22941.35
855.87	22763.17
856.04	22587.05
856.22	22601.38
856.39	22118.06
856.57	22603.43
856.74	22437.55
856.92	22554.28
857.09	22378.15
857.27	22269.61
857.44	22419.11
857.62	22576.81
857.79	22544.04
857.97	22333.10
858.14	22351.53
858.32	22353.58
858.49	22279.85
858.67	22281.90
858.84	22091.44
859.02	22507.18
859.19	21919.41
859.37	21980.85
859.54	22142.64
859.72	22077.10
859.89	22337.20
860.06	22212.27
860.24	21995.18
860.41	21968.56
860.59	22023.86
860.76	21972.66
860.94	21440.18
861.11	21991.09
861.29	21997.23
861.46	21626.55
861.64	21466.81
861.81	21761.72
861.98	21726.90
862.16	21290.68
862.33	21071.55
862.51	21411.51
862.68	21407.42
862.86	21477.05
863.03	21497.53
863.21	21360.31
863.38	21407.42
863.55	21286.59
863.73	21276.35
863.90	21395.13
864.08	21294.78
864.25	21178.04
864.43	21354.17
864.60	21155.52
864.77	21247.68
864.95	20977.34
865.12	20754.12
865.30	21214.91
865.47	20893.38
865.64	20915.90
865.82	21161.66
865.99	20938.43
866.17	20719.30
866.34	21003.97
866.51	20868.80
866.69	20893.38
866.86	20760.26
867.04	20891.33
867.21	20799.17
867.38	20500.17
867.56	20481.74
867.73	20453.06
867.91	20467.40
868.08	20432.58
868.25	20190.92
868.43	20383.43
868.60	20336.33
868.78	20254.41
868.95	20653.76
869.12	20223.69
869.30	20307.66
869.47	20020.94
869.64	20203.21
869.82	20086.48
869.99	19930.83
870.16	20498.12
870.34	19939.02
870.51	20276.94
870.69	20106.96
870.86	20256.46
871.03	20195.02
871.21	19775.19
871.38	20131.53
871.55	19861.20
871.73	19830.48
871.90	19719.89
872.07	19562.20
872.25	19449.56
872.42	19805.91
872.59	19590.87
872.77	19562.20
872.94	19791.57
873.11	19664.60
873.29	19576.53
873.46	19603.16
873.63	19412.70
873.81	19574.49
873.98	19146.46
874.15	19255.00
874.33	19117.79
874.50	19046.11
874.67	19257.05
874.85	19103.45
875.02	19250.91
875.19	18890.46
875.37	18921.18
875.54	18824.93
875.71	18714.34
875.88	18673.38
876.06	18947.81
876.23	18648.80
876.40	18757.35
876.58	18863.84
876.75	18503.40
876.92	18620.13
877.10	18716.39
877.27	18669.28
877.44	18575.08
877.61	18435.81
877.79	18220.78
877.96	18392.81
878.13	18362.09
878.31	18110.19
878.48	18024.17
878.65	18253.55
878.82	18190.06
879.00	18210.54
879.17	18171.63
879.34	18208.49
879.51	18267.88
879.69	17823.47
879.86	18165.48
880.03	17911.53
880.21	17903.34
880.38	17848.05
880.55	17848.05
880.72	18075.37
880.90	18054.89
881.07	17475.32
881.24	17600.24
881.41	17950.45
881.59	17653.49
881.76	17635.06
881.93	17444.60
882.10	17671.92
882.28	17526.52
882.45	17712.88
882.62	17514.23
882.79	17827.57
882.96	17147.64
883.14	17327.86
883.31	17567.48
883.48	17377.01
883.65	17348.34
883.83	17424.12
884.00	17348.34
884.17	17311.48
884.34	17352.44
884.51	17153.79
884.69	17245.94
884.86	17116.92
885.03	17225.47
885.20	17094.40
885.38	17141.50
885.55	17377.01
885.72	17200.89
885.89	17129.21
886.06	17129.21
886.24	17059.58
886.41	16928.51
886.58	17176.31
886.75	17403.64
886.92	16936.70
887.10	17164.03
887.27	16854.78
887.44	17049.34
887.61	16987.90
887.78	17108.73
887.95	17035.00
888.13	16942.85
888.30	16633.60
888.47	16506.63
888.64	16793.34
888.81	16885.50
888.99	16611.07
889.16	16551.68
889.33	16457.48
889.50	16410.37
889.67	16756.48
889.84	16267.02
890.01	16432.90
890.19	16293.64
890.36	16457.48
890.53	16277.26
890.70	16127.75
890.87	16353.03
891.04	16142.09
891.22	16393.99
891.39	16082.70
891.56	16174.86
891.73	16250.63
891.90	16045.84
892.07	15980.30
892.24	15961.87
892.42	15937.29
892.59	16037.64
892.76	16006.92
892.93	16056.08
893.10	15847.18
893.27	15935.24
893.44	16008.97
893.61	15927.05
893.79	15781.65
893.96	16043.79
894.13	15978.25
894.30	15761.17
894.47	15658.77
894.64	16273.16
894.81	15724.30
894.98	15699.73
895.15	16027.40
895.33	15925.00
895.50	15752.98
895.67	15761.17
895.84	15865.61
896.01	15666.96
896.18	15687.44
896.35	15894.29
896.52	15687.44
896.69	15660.82
896.86	15947.53
897.04	15906.57
897.21	15687.44
897.38	15599.38
897.55	15675.15
897.72	15929.10
897.89	15783.70
898.06	15374.10
898.23	15449.88
898.40	15642.39
898.57	15744.78
898.74	15826.70
898.91	15355.67
899.08	15601.43
899.26	15568.66
899.43	15496.98
899.60	15458.07
899.77	15435.54
899.94	15413.01
900.11	15494.93
900.28	15439.64
900.45	15410.96
900.62	15404.82
900.79	15585.04
900.96	15488.79
901.13	15460.12
901.30	15478.55
901.47	15595.28
901.64	15306.52
901.81	15611.67
901.98	15159.06
902.15	15613.71
902.32	15341.33
902.49	15306.52
902.66	15570.71
902.83	15630.10
903.01	15453.97
903.18	15441.68
903.35	15503.12
903.52	15515.41
903.69	15566.61
903.86	15634.19
904.03	15140.63
904.20	15847.18
904.37	15513.36
904.54	15390.49
904.71	15447.83
904.88	15558.42
905.05	15200.02
905.22	15349.53
905.39	15349.53
905.56	15507.22
905.73	15281.94
905.90	15427.35
906.07	15470.36
906.24	15462.16
906.41	15359.77
906.58	15546.13
906.75	15533.84
906.92	15476.50
907.09	15320.85
907.26	15492.88
907.43	15269.66
907.60	15275.80
907.77	15421.20
907.93	15507.22
908.10	15228.70
908.27	15478.55
908.44	15159.06
908.61	15394.58
908.78	15347.48
908.95	15470.36
909.12	15277.85
909.29	15357.72
909.46	15312.66
909.63	15206.17
909.80	15243.03
909.97	15433.49
910.14	15101.72
910.31	15232.79
910.48	15126.30
910.65	15228.70
910.82	15025.95
910.99	15290.13
911.16	15177.50
911.33	15216.41
911.50	15048.47
911.66	14855.97
911.83	15437.59
912.00	14827.29
912.17	14962.46
912.34	15046.43
912.51	14974.75
912.68	14714.66
912.85	14888.73
913.02	14919.45
913.19	14872.35
913.36	14655.26
913.53	15202.07
913.70	14690.08
913.86	14841.63
914.03	14815.01
914.20	14759.71
914.37	14831.39
914.54	14458.66
914.71	14708.51
914.88	14812.96
915.05	14235.43
915.22	14673.70
915.39	14681.89
915.55	14458.66
915.72	14528.29
915.89	14507.81
916.06	14288.68
916.23	14171.94
916.40	14325.54
916.57	14374.69
916.74	14165.80
916.91	14253.86
917.07	14130.98
917.24	13823.79
917.41	13881.13
917.58	14114.60
917.75	13858.60
917.92	13756.21
918.09	13831.98
918.26	14051.11
918.42	13743.92
918.59	13809.45
918.76	13883.18
918.93	13578.03
919.10	13571.89
919.27	13575.98
919.44	13600.56
919.60	13514.55
919.77	13410.10
919.94	13479.73
920.11	13616.94
920.28	13434.68
920.45	13379.38
920.61	13252.41
920.78	13223.73
920.95	13340.47
921.12	13147.96
921.29	13094.71
921.46	13215.54
921.62	13023.03
921.79	13307.70
921.96	12945.21
922.13	13000.51
922.30	12932.92
922.47	12734.27
922.63	12846.91
922.80	12879.68
922.97	12826.43
923.14	12494.66
923.31	12910.40
923.47	12525.38
923.64	12771.13
923.81	12502.85
923.98	12422.98
924.15	12322.63
924.32	12322.63
924.48	12324.68
924.65	12283.72
924.82	12181.32
924.99	11984.71
925.15	12181.32
925.32	12134.21
925.49	11923.27
925.66	12027.72
925.83	11984.71
925.99	12001.10
926.16	11962.19
926.33	11718.48
926.50	11648.85
926.67	11806.54
926.83	11648.85
927.00	11851.60
927.17	11489.10
927.34	11517.78
927.50	11601.74
927.67	11544.40
927.84	11392.85
928.01	11542.35
928.17	11329.36
928.34	11212.63
928.51	11093.85
928.68	11239.25
928.84	11380.56
929.01	11069.27
929.18	10989.40
929.35	10866.52
929.51	10944.34
929.68	10794.84
929.85	10753.88
930.02	10899.29
930.18	10704.73
930.35	10723.16
930.52	10850.14
930.69	10733.40
930.85	10663.77
931.02	10362.72
931.19	10389.35
931.36	10454.88
931.52	10565.47
931.69	10256.23
931.86	10311.52
932.02	10346.34
932.19	10272.61
932.36	10176.36
932.53	10323.81
932.69	10000.23
932.86	10223.46
933.03	10172.26
933.19	9969.51
933.36	9914.22
933.53	10127.21
933.70	9865.07
933.86	9701.23
934.03	9729.90
934.20	9502.58
934.36	9701.23
934.53	9457.52
934.70	9402.22
934.86	9480.05
935.03	9156.47
935.20	9064.31
935.36	9222.00
935.53	9195.38
935.70	8974.20
935.86	8931.19
936.03	8945.53
936.20	8753.02
936.36	8740.73
936.53	8734.59
936.70	8580.99
936.86	8793.98
937.03	8497.02
937.20	8271.75
937.36	8454.02
937.53	8234.88
937.70	8155.01
937.86	7780.23
938.03	7946.12
938.20	8064.90
938.36	8001.41
938.53	7858.06
938.70	7597.96
938.86	7606.16
939.03	7538.57
939.20	7344.02
939.36	7497.61
939.53	7423.89
939.70	7380.88
939.86	7049.11
940.03	7049.11
940.19	6924.18
940.36	6928.28
940.53	6928.28
940.69	6913.94
940.86	6821.78
941.03	6670.23
941.19	6596.51
941.36	6383.52
941.52	6557.60
941.69	6332.32
941.86	6348.70
942.02	6387.61
942.19	6244.26
942.35	6107.04
942.52	6092.71
942.69	6053.80
942.85	6113.19
943.02	5883.81
943.18	6084.52
943.35	6012.84
943.52	5967.78
943.68	5930.92
943.85	5851.05
944.01	5795.75
944.18	5676.97
944.35	5668.78
944.51	5611.43
944.68	5607.34
944.84	5517.23
945.01	5490.60
945.17	5466.03
945.34	5689.26
945.51	5453.74
945.67	5488.56
945.84	5492.65
946.00	5541.80
946.17	5357.49
946.33	5224.37
946.50	5382.06
946.67	5382.06
946.83	5412.78
947.00	5398.45
947.16	5304.24
947.33	5382.06
947.49	5377.97
947.66	5398.45
947.82	5496.75
947.99	5291.95
948.16	5406.64
948.32	5357.49
948.49	5343.15
948.65	5337.01
948.82	5386.16
948.98	5461.93
949.15	5283.76
949.31	5453.74
949.48	5320.62
949.64	5494.70
949.81	5294.00
949.97	5347.25
950.14	5445.55
950.30	5271.47
950.47	5486.51
950.63	5365.68
950.80	5427.12
950.96	5408.69
951.13	5320.62
951.30	5453.74
951.46	5363.63
951.63	5554.09
951.79	5408.69
951.96	5466.03
952.12	5410.73
952.29	5437.36
952.45	5373.87
952.62	5298.10
952.78	5545.90
952.94	5517.23
953.11	5439.40
953.27	5214.13
953.44	5441.45
953.60	5566.38
953.77	5418.93
953.93	5373.87
954.10	5562.28
954.26	5441.45
954.43	5244.85
954.59	5654.44
954.76	5693.35
954.92	5603.24
955.09	5636.01
955.25	5529.52
955.42	5447.60
955.58	5568.43
955.75	5457.84
955.91	5435.31
956.07	5627.82
956.24	5474.22
956.40	5607.34
956.57	5715.88
956.73	5461.93
956.90	5500.84
957.06	5474.22
957.23	5433.26
957.39	5369.77
957.56	5480.36
957.72	5472.17
957.88	5443.50
958.05	5576.62
958.21	5687.21
958.38	5617.58
958.54	5431.21
958.71	5664.68
958.87	5623.72
959.03	5445.55
959.20	5486.51
959.36	5476.27
959.53	5550.00
959.69	5506.99
959.85	5533.61
960.02	5494.70
960.18	5607.34
960.35	5629.87
960.51	5697.45
960.68	5513.13
960.84	5633.96
961.00	5521.32
961.17	5367.73
961.33	5593.00
961.50	5504.94
961.66	5664.68
961.82	5429.17
961.99	5611.43
962.15	5515.18
962.31	5566.38
962.48	5496.75
962.64	5466.03
962.81	5384.11
962.97	5427.12
963.13	5504.94
963.30	5535.66
963.46	5435.31
963.62	5492.65
963.79	5373.87
963.95	5525.42
964.12	5562.28
964.28	5480.36
964.44	5470.12
964.61	5439.40
964.77	5490.60
964.93	5474.22
965.10	5599.15
965.26	5349.29
965.42	5425.07
965.59	5316.53
965.75	5433.26
965.92	5400.49
966.08	5302.19
966.24	5433.26
966.41	5195.70
966.57	5369.77
966.73	5441.45
966.90	5375.92
967.06	5298.10
967.22	5386.16
967.39	5289.90
967.55	5162.93
967.71	5337.01
967.88	5332.91
968.04	5253.04
968.20	5222.32
968.37	5183.41
968.53	5287.86
968.69	5195.70
968.85	5328.81
969.02	5273.52
969.18	5359.53
969.34	5207.98
969.51	5132.21
969.67	5181.36
969.83	5156.79
970.00	5234.61
970.16	5265.33
970.32	5177.26
970.48	5312.43
970.65	5201.84
970.81	5119.92
970.97	5105.59
971.14	4919.22
971.30	5238.70
971.46	5027.76
971.63	5087.15
971.79	5033.91
971.95	4964.28
972.11	4974.52
972.28	5076.91
972.44	5015.48
972.60	4939.70
972.76	4992.95
972.93	5021.62
973.09	5093.30
973.25	5007.28
973.42	4943.80
973.58	4976.56
973.74	4986.80
973.90	5109.68
974.07	5009.33
974.23	5056.43
974.39	4968.37
974.55	5035.96
974.72	4992.95
974.88	4786.10
975.04	4806.58
975.20	4896.69
975.37	4870.07
975.53	4831.16
975.69	4863.93
975.85	4845.49
976.01	4759.48
976.18	4683.70
976.34	4732.86
976.50	4859.83
976.66	4857.78
976.83	4745.14
976.99	4673.46
977.15	4769.72
977.31	4644.79
977.47	4749.24
977.64	4759.48
977.80	4644.79
977.96	4739.00
978.12	4689.85
978.29	4650.94
978.45	4593.59
978.61	4460.48
978.77	4677.56
978.93	4655.03
979.10	4501.44
979.26	4575.16
979.42	4640.70
979.58	4458.43
979.74	4575.16
979.91	4550.59
980.07	4442.04
980.23	4505.53
980.39	4405.18
980.55	4380.61
980.71	4442.04
980.88	4505.53
981.04	4483.00
981.20	4339.65
981.36	4458.43
981.52	4411.32
981.68	4478.91
981.85	4483.00
982.01	4505.53
982.17	4480.96
982.33	4462.52
982.49	4433.85
982.65	4241.34
982.82	4392.89
982.98	4521.92
983.14	4200.38
983.30	4386.75
983.46	4413.37
983.62	4261.82
983.79	4196.29
983.95	4276.16
984.11	4181.95
984.27	4247.49
984.43	4235.20
984.59	4310.97
984.75	4270.01
984.91	4214.72
985.08	4331.45
985.24	4100.03
985.40	4169.66
985.56	4165.57
985.72	4304.83
985.88	4255.68
986.04	4102.08
986.20	4153.28
986.37	4122.56
986.53	4175.81
986.69	4122.56
986.85	4097.99
987.01	4057.03
987.17	4145.09
987.33	4042.69
987.49	4020.16
987.65	4140.99
987.82	4007.87
987.98	3985.35
988.14	4022.21
988.30	3934.15
988.46	3977.16
988.62	3975.11
988.78	3985.35
988.94	3928.00
989.10	3913.67
989.26	3821.51
989.42	3940.29
989.59	3813.32
989.75	3839.94
989.91	3968.96
990.07	3686.34
990.23	3811.27
990.39	3835.85
990.55	3862.47
990.71	3801.03
990.87	3764.17
991.03	3852.23
991.19	3704.78
991.35	3770.31
991.51	3735.50
991.67	3805.13
991.83	3848.13
992.00	3823.56
992.16	3813.32
992.32	3715.02
992.48	3788.74
992.64	3690.44
992.80	3762.12
992.96	3801.03
993.12	3735.50
993.28	3811.27
993.44	3809.22
993.60	3686.34
993.76	3723.21
993.92	3616.71
994.08	3739.59
994.24	3612.62
994.40	3704.78
994.56	3639.24
994.72	3573.71
994.88	3614.66
995.04	3573.71
995.20	3624.90
995.36	3559.37
995.52	3655.62
995.68	3575.75
995.84	3465.16
996.00	3667.91
996.16	3508.17
996.32	3489.74
996.48	3454.92
996.64	3549.13
996.80	3416.01
996.96	3506.12
997.12	3407.82
997.28	3518.41
997.44	3336.14
997.60	3506.12
997.76	3524.55
997.92	3424.20
998.08	3436.49
998.24	3286.99
998.40	3475.40
998.56	3413.96
998.72	3295.18
998.88	3311.57
999.04	3481.55
999.20	3379.15
999.36	3209.17
999.52	3504.07
999.68	3282.89
999.84	3330.00
1000.00	3481.55
1000.16	3395.53
1000.32	3315.66
1000.48	3375.05
1000.64	3239.89
1000.80	3203.02
1000.95	3233.74
1001.11	3299.28
1001.27	3110.86
1001.43	3209.17
1001.59	3133.39
1001.75	3219.41
1001.91	3256.27
1002.07	3192.78
1002.23	3190.74
1002.39	3182.54
1002.55	3192.78
1002.71	3117.01
1002.87	3108.82
1003.03	3043.28
1003.19	3125.20
1003.34	3231.69
1003.50	3149.78
1003.66	3133.39
1003.82	3127.25
1003.98	2951.12
1004.14	3106.77
1004.30	3067.86
1004.46	3022.80
1004.62	3082.19
1004.78	3049.43
1004.94	3086.29
1005.09	3108.82
1005.25	3028.95
1005.41	3008.47
1005.57	2936.79
1005.73	3033.04
1005.89	2904.02
1006.05	3063.76
1006.21	3022.80
1006.37	2740.18
1006.52	2861.01
1006.68	2928.60
1006.84	3051.47
1007.00	2928.60
1007.16	3010.51
1007.32	2813.91
1007.48	2947.03
1007.64	2953.17
1007.79	2891.73
1007.95	2850.77
1008.11	2904.02
1008.27	2832.34
1008.43	2883.54
1008.59	2869.20
1008.75	2951.12
1008.91	2918.36
1009.06	2795.48
1009.22	2861.01
1009.38	2865.11
1009.54	2834.39
1009.70	2801.62
1009.86	2805.72
1010.01	2785.24
1010.17	2709.46
1010.33	2813.91
1010.49	2852.82
1010.65	2795.48
1010.81	2754.52
1010.96	2799.57
1011.12	2645.98
1011.28	2656.22
1011.44	2731.99
1011.60	2752.47
1011.76	2772.95
1011.91	2858.96
1012.07	2672.60
1012.23	2625.50
1012.39	2525.15
1012.55	2701.27
1012.71	2656.22
1012.86	2711.51
1013.02	2668.50
1013.18	2615.26
1013.34	2662.36
1013.50	2674.65
1013.65	2754.52
1013.81	2609.11
1013.97	2621.40
1014.13	2654.17
1014.29	2613.21
1014.44	2766.81
1014.60	2615.26
1014.76	2623.45
1014.92	2611.16
1015.07	2633.69
1015.23	2615.26
1015.39	2516.95
1015.55	2553.82
1015.71	2582.49
1015.86	2527.19
1016.02	2555.86
1016.18	2457.56
1016.34	2535.39
1016.49	2533.34
1016.65	2633.69
1016.81	2490.33
1016.97	2506.71
1017.12	2551.77
1017.28	2420.70
1017.44	2512.86
1017.60	2467.80
1017.75	2488.28
1017.91	2385.88
1018.07	2435.03
1018.23	2430.94
1018.38	2514.91
1018.54	2486.23
1018.70	2404.32
1018.86	2312.16
1019.01	2478.04
1019.17	2500.57
1019.33	2516.95
1019.49	2428.89
1019.64	2398.17
1019.80	2346.97
1019.96	2385.88
1020.12	2459.61
1020.27	2396.12
1020.43	2367.45
1020.59	2344.92
1020.74	2310.11
1020.90	2451.42
1021.06	2363.36
1021.22	2326.49
1021.37	2412.51
1021.53	2406.36
1021.69	2369.50
1021.84	2342.88
1022.00	2326.49
1022.16	2287.58
1022.31	2330.59
1022.47	2389.98
1022.63	2369.50
1022.79	2220.00
1022.94	2226.14
1023.10	2346.97
1023.26	2287.58
1023.41	2189.28
1023.57	2289.63
1023.73	2332.64
1023.88	2332.64
1024.04	2252.77
1024.20	2217.95
1024.35	2258.91
1024.51	2328.54
1024.67	2197.47
1024.82	2355.16
1024.98	2101.22
1025.14	2183.13
1025.29	2224.09
1025.45	2246.62
1025.61	2166.75
1025.76	2228.19
1025.92	2220.00
1026.08	2209.76
1026.23	2293.72
1026.39	2232.29
1026.55	2154.46
1026.70	2185.18
1026.86	2189.28
1027.02	2306.01
1027.17	2205.66
1027.33	2199.52
1027.48	2217.95
1027.64	2144.22
1027.80	2191.33
1027.95	2211.81
1028.11	2043.87
1028.27	2111.46
1028.42	2224.09
1028.58	2119.65
1028.73	2113.50
1028.89	2166.75
1029.05	2189.28
1029.20	2150.37
>>>>>End Processed Spectral Data<<<<<
