SpectraSuite Data File
++++++++++++++++++++++++++++++++++++
Date: Fri Jun 02 14:51:07 CEST 2017
User: INFO_000
Dark Spectrum Present: No
Reference Spectrum Present: No
Number of Sampled Component Spectra: 1
Spectrometers: USB4H00879
Integration Time (usec): 80000 (USB4H00879)
Spectra Averaged: 1 (USB4H00879)
Boxcar Smoothing: 0 (USB4H00879)
Correct for Electrical Dark: No (USB4H00879)
Strobe/Lamp Enabled: No (USB4H00879)
Correct for Detector Non-linearity: No (USB4H00879)
Correct for Stray Light: No (USB4H00879)
Number of Pixels in Processed Spectrum: 3648
>>>>>Begin Processed Spectral Data<<<<<
345.13	1216.49
345.34	1216.49
345.56	1216.49
345.78	1269.74
345.99	1318.89
346.21	1689.57
346.42	1669.09
346.64	1624.04
346.86	1779.68
347.07	1658.85
347.29	1681.38
347.50	1701.86
347.72	1687.53
347.94	1697.77
348.15	1566.70
348.37	1634.28
348.59	1771.49
348.80	1609.70
349.02	1773.54
349.23	1806.31
349.45	1732.58
349.67	1869.80
349.88	1802.21
350.10	1978.34
350.31	1865.70
350.53	1777.64
350.75	1988.58
350.96	1689.57
351.18	1857.51
351.39	1771.49
351.61	1781.73
351.82	1847.27
352.04	1869.80
352.26	1751.01
352.47	1902.56
352.69	1935.33
352.90	1714.15
353.12	1845.22
353.34	1853.41
353.55	1904.61
353.77	1857.51
353.98	1767.40
354.20	1843.17
354.41	1925.09
354.63	1949.67
354.85	1984.48
355.06	1906.66
355.28	1804.26
355.49	1937.38
355.71	1894.37
355.92	1880.04
356.14	1929.19
356.35	1871.84
356.57	1890.28
356.79	1916.90
357.00	1861.60
357.22	1916.90
357.43	1865.70
357.65	1966.05
357.86	1814.50
358.08	1845.22
358.29	1902.56
358.51	1990.63
358.72	1945.57
358.94	1939.43
359.16	1871.84
359.37	1923.04
359.59	1929.19
359.80	2019.30
360.02	1925.09
360.23	1822.69
360.45	1935.33
360.66	1949.67
360.88	1884.13
361.09	1978.34
361.31	1957.86
361.52	1855.46
361.74	2031.58
361.95	2074.59
362.17	1853.41
362.38	2058.21
362.60	2050.02
362.81	1951.71
363.03	1927.14
363.24	1994.72
363.46	2031.58
363.67	2029.54
363.89	2025.44
364.10	1990.63
364.32	1941.47
364.53	2011.11
364.75	1894.37
364.96	1943.52
365.18	2078.69
365.39	1918.95
365.61	1892.32
365.82	2140.13
366.04	2000.87
366.25	1998.82
366.47	2074.59
366.68	2037.73
366.90	1914.85
367.11	2152.42
367.33	2123.74
367.54	2113.50
367.76	2013.15
367.97	2058.21
368.19	2056.16
368.40	2099.17
368.62	1982.43
368.83	2009.06
369.05	2041.82
369.26	1978.34
369.48	2015.20
369.69	2054.11
369.91	2084.83
370.12	1964.00
370.33	2007.01
370.55	1900.52
370.76	1968.10
370.98	2109.41
371.19	2070.50
371.41	2041.82
371.62	2090.98
371.84	1923.04
372.05	2179.04
372.27	2074.59
372.48	2029.54
372.69	2052.06
372.91	2162.66
373.12	2148.32
373.34	2052.06
373.55	2068.45
373.77	2195.42
373.98	2058.21
374.20	2121.70
374.41	2267.10
374.62	2117.60
374.84	2222.05
375.05	2176.99
375.27	2148.32
375.48	2162.66
375.70	2146.27
375.91	2263.01
376.12	2236.38
376.34	2084.83
376.55	2187.23
376.77	2195.42
376.98	2015.20
377.19	2123.74
377.41	2080.74
377.62	2170.85
377.84	2226.14
378.05	2310.11
378.27	2203.61
378.48	2238.43
378.69	2355.16
378.91	2265.05
379.12	2275.29
379.34	2185.18
379.55	2322.40
379.76	2324.44
379.98	2230.24
380.19	2244.57
380.41	2244.57
380.62	2279.39
380.83	2232.29
381.05	2142.18
381.26	2445.27
381.47	2213.85
381.69	2279.39
381.90	2332.64
382.12	2250.72
382.33	2217.95
382.54	2195.42
382.76	2240.48
382.97	2265.05
383.19	2273.25
383.40	2322.40
383.61	2236.38
383.83	2289.63
384.04	2336.73
384.25	2318.30
384.47	2406.36
384.68	2297.82
384.89	2289.63
385.11	2275.29
385.32	2289.63
385.54	2334.68
385.75	2220.00
385.96	2387.93
386.18	2342.88
386.39	2342.88
386.60	2291.68
386.82	2371.55
387.03	2355.16
387.24	2467.80
387.46	2412.51
387.67	2404.32
387.88	2418.65
388.10	2387.93
388.31	2478.04
388.52	2467.80
388.74	2527.19
388.95	2420.70
389.16	2478.04
389.38	2453.47
389.59	2490.33
389.80	2580.44
390.02	2455.51
390.23	2570.20
390.44	2590.68
390.66	2412.51
390.87	2432.99
391.08	2543.58
391.30	2523.10
391.51	2654.17
391.72	2609.11
391.94	2613.21
392.15	2572.25
392.36	2535.39
392.58	2576.34
392.79	2498.52
393.00	2631.64
393.22	2650.07
393.43	2699.22
393.64	2801.62
393.85	2721.75
394.07	2566.10
394.28	2631.64
394.49	2756.57
394.71	2658.26
394.92	2777.05
395.13	2748.37
395.35	2596.82
395.56	2645.98
395.77	2678.74
395.98	2727.89
396.20	2711.51
396.41	2805.72
396.62	2789.33
396.84	2908.12
397.05	2760.66
397.26	2844.63
397.47	2910.16
397.69	2654.17
397.90	2971.60
398.11	2850.77
398.32	2809.81
398.54	2752.47
398.75	2818.00
398.96	2811.86
399.18	2951.12
399.39	2801.62
399.60	2899.92
399.81	2871.25
400.03	2930.64
400.24	3106.77
400.45	2801.62
400.66	3026.90
400.88	2977.75
401.09	3160.02
401.30	3014.61
401.51	3016.66
401.73	3055.57
401.94	3022.80
402.15	2987.99
402.36	3088.34
402.58	3145.68
402.79	3024.85
403.00	2973.65
403.21	3141.58
403.43	3125.20
403.64	3227.60
403.85	3131.34
404.06	3170.26
404.27	3014.61
404.49	3168.21
404.70	3039.19
404.91	3239.89
405.12	3170.26
405.34	3252.17
405.55	3317.71
405.76	3106.77
405.97	3182.54
406.19	3360.72
406.40	3117.01
406.61	3207.12
406.82	3258.32
407.03	3196.88
407.25	3229.65
407.46	3262.41
407.67	3321.81
407.88	3403.72
408.09	3321.81
408.31	3268.56
408.52	3246.03
408.73	3313.61
408.94	3239.89
409.15	3354.57
409.37	3411.92
409.58	3424.20
409.79	3483.59
410.00	3459.02
410.21	3452.88
410.43	3481.55
410.64	3370.96
410.85	3538.89
411.06	3338.19
411.27	3463.12
411.48	3506.12
411.70	3534.79
411.91	3565.51
412.12	3696.58
412.33	3536.84
412.54	3561.42
412.76	3616.71
412.97	3553.23
413.18	3506.12
413.39	3637.19
413.60	3545.03
413.81	3606.47
414.03	3512.27
414.24	3598.28
414.45	3794.89
414.66	3522.51
414.87	3723.21
415.08	3643.34
415.30	3741.64
415.51	3676.10
415.72	3678.15
415.93	3688.39
416.14	3770.31
416.35	3796.93
416.56	3741.64
416.78	3764.17
416.99	3829.70
417.20	3704.78
417.41	3741.64
417.62	3776.45
417.83	3776.45
418.04	3721.16
418.26	3837.89
418.47	3831.75
418.68	3934.15
418.89	4048.83
419.10	4005.83
419.31	3856.33
419.52	4018.11
419.73	3964.87
419.95	4077.51
420.16	3768.26
420.37	4014.02
420.58	4042.69
420.79	3829.70
421.00	3993.54
421.21	4050.88
421.42	3946.44
421.63	3934.15
421.85	3981.25
422.06	4087.75
422.27	4028.35
422.48	4134.85
422.69	4079.55
422.90	4153.28
423.11	4095.94
423.32	4253.63
423.53	4319.17
423.75	4192.19
423.96	4202.43
424.17	4265.92
424.38	4374.46
424.59	4151.23
424.80	4343.74
425.01	4296.64
425.22	4319.17
425.43	4298.69
425.64	4523.96
425.85	4495.29
426.06	4403.13
426.28	4458.43
426.49	4218.82
426.70	4435.90
426.91	4485.05
427.12	4435.90
427.33	4435.90
427.54	4468.67
427.75	4689.85
427.96	4607.93
428.17	4704.18
428.38	4665.27
428.59	4673.46
428.80	4587.45
429.01	4591.55
429.23	4583.35
429.44	4825.01
429.65	4763.58
429.86	4775.86
430.07	4784.06
430.28	4695.99
430.49	4902.84
430.70	4845.49
430.91	4888.50
431.12	4837.30
431.33	4888.50
431.54	5066.67
431.75	4921.27
431.96	4865.97
432.17	4939.70
432.38	4857.78
432.59	5185.46
432.80	5101.49
433.01	5099.44
433.22	5085.11
433.43	5193.65
433.64	5119.92
433.85	5015.48
434.06	5175.22
434.27	4935.60
434.49	5113.78
434.70	5156.79
434.91	5152.69
435.12	5152.69
435.33	5242.80
435.54	5287.86
435.75	4976.56
435.96	5152.69
436.17	5328.81
436.38	5476.27
436.59	5433.26
436.80	5343.15
437.01	5482.41
437.22	5562.28
437.43	5334.96
437.64	5199.79
437.85	5506.99
438.06	5605.29
438.27	5506.99
438.48	5394.35
438.69	5607.34
438.90	5554.09
439.11	5633.96
439.32	5685.16
439.53	5590.95
439.74	5724.07
439.95	5730.22
440.16	5693.35
440.37	5679.02
440.57	5570.48
440.78	5773.22
440.99	5734.31
441.20	5902.25
441.41	5693.35
441.62	5863.33
441.83	5650.35
442.04	5906.34
442.25	5867.43
442.46	5840.81
442.67	5918.63
442.88	6307.74
443.09	5808.04
443.30	5900.20
443.51	6074.28
443.72	6231.97
443.93	6027.17
444.14	6188.96
444.35	6014.88
444.56	6025.12
444.77	6154.15
444.98	6078.37
445.19	6156.19
445.40	6156.19
445.61	6156.19
445.81	6360.99
446.02	6426.53
446.23	6354.85
446.44	6317.98
446.65	6432.67
446.86	6381.47
447.07	6573.98
447.28	6721.43
447.49	6451.10
447.70	6459.29
447.91	6401.95
448.12	6404.00
448.33	6629.27
448.54	6705.05
448.74	6588.32
448.95	6789.02
449.16	6598.56
449.37	6815.64
449.58	6524.83
449.79	6799.26
450.00	6664.09
450.21	6795.16
450.42	7024.53
450.63	6977.43
450.84	6885.27
451.05	6799.26
451.25	6856.60
451.46	6688.67
451.67	7114.64
451.88	7077.78
452.09	7045.01
452.30	7083.92
452.51	6926.23
452.72	7073.68
452.93	7350.16
453.13	7106.45
453.34	6956.95
453.55	7233.43
453.76	7102.36
453.97	7532.43
454.18	7227.28
454.39	7448.46
454.60	7397.26
454.81	7430.03
455.01	7475.09
455.22	7309.20
455.43	7446.41
455.64	7640.97
455.85	7794.57
456.06	7866.25
456.27	7706.51
456.48	7761.80
456.68	7595.92
456.89	7810.95
457.10	7761.80
457.31	7753.61
457.52	7792.52
457.73	7737.23
457.94	8144.77
458.14	7810.95
458.35	8247.17
458.56	8017.80
458.77	8023.94
458.98	8159.11
459.19	8044.42
459.39	8296.32
459.60	8411.01
459.81	8175.49
460.02	8269.70
460.23	8372.10
460.44	8515.45
460.65	8490.88
460.85	8423.30
461.06	8501.12
461.27	8386.43
461.48	8773.50
461.69	8757.11
461.89	8437.63
462.10	8695.68
462.31	8544.13
462.52	8738.68
462.73	8683.39
462.94	8869.75
463.14	8726.39
463.35	8714.11
463.56	9117.56
463.77	9013.11
463.98	8757.11
464.18	9039.73
464.39	9109.36
464.60	9172.85
464.81	9269.11
465.02	9201.52
465.23	9346.93
465.43	9189.24
465.64	9539.44
465.85	9453.42
466.06	9377.65
466.27	9572.21
466.47	9480.05
466.68	9713.52
466.89	9299.83
467.10	9645.93
467.30	9547.63
467.51	9684.84
467.72	9623.41
467.93	9758.57
468.14	9729.90
468.34	9924.46
468.55	10045.29
468.76	9875.31
468.97	9914.22
469.17	10268.52
469.38	10254.18
469.59	10309.47
469.80	10202.98
470.01	10348.39
470.21	10526.56
470.42	10540.90
470.63	10526.56
470.84	10506.08
471.04	10800.99
471.25	10831.71
471.46	10606.43
471.67	10698.59
471.87	10907.48
472.08	10905.43
472.29	11136.85
472.50	10782.56
472.70	10909.53
472.91	11282.26
473.12	11317.08
473.33	11282.26
473.53	11454.29
473.74	11216.72
473.95	11534.16
474.16	11609.93
474.36	11640.65
474.57	11652.94
474.78	12011.34
474.99	11900.75
475.19	11935.56
475.40	12392.26
475.61	12205.89
475.81	12257.09
476.02	12515.14
476.23	12277.57
476.44	12482.37
476.64	12750.65
476.85	12898.11
477.06	12771.13
477.27	12863.29
477.47	13010.75
477.68	12855.10
477.89	13350.71
478.09	13039.42
478.30	13127.48
478.51	13213.49
478.71	13322.04
478.92	13532.98
479.13	13475.63
479.34	13698.86
479.54	13647.66
479.75	13852.46
479.96	13690.67
480.16	14053.16
480.37	14163.75
480.58	14182.18
480.78	14464.80
480.99	14434.08
481.20	14761.76
481.41	14628.64
481.61	14731.04
481.82	14939.93
482.03	14855.97
482.23	14939.93
482.44	15142.68
482.65	15417.11
482.85	15484.69
483.06	15370.01
483.27	15402.77
483.47	15441.68
483.68	15408.92
483.89	15920.91
484.09	15871.76
484.30	16025.36
484.51	15900.43
484.71	16150.28
484.92	16164.62
485.13	16430.85
485.33	16586.50
485.54	16353.03
485.75	16596.74
485.95	16619.27
486.16	16813.82
486.37	17213.18
486.57	16830.21
486.78	17067.77
486.98	17106.68
487.19	17254.14
487.40	17481.46
487.60	17399.54
487.81	17510.13
488.02	17661.68
488.22	17712.88
488.43	17774.32
488.64	17772.27
488.84	18106.09
489.05	18134.76
489.25	18081.52
489.46	18548.45
489.67	18388.71
489.87	18489.06
490.08	18671.33
490.29	18446.05
490.49	18837.22
490.70	18915.04
490.90	19218.14
491.11	19111.64
491.32	19257.05
491.52	19330.78
491.73	19142.36
491.94	19570.39
492.14	19484.37
492.35	19453.66
492.55	19949.26
492.76	19746.51
492.97	19691.22
493.17	19871.44
493.38	20029.13
493.58	20319.95
493.79	20299.47
494.00	20147.92
494.20	20436.68
494.41	20580.04
494.61	20731.59
494.82	20645.57
495.02	20639.43
495.23	20885.19
495.44	20815.55
495.64	20879.04
495.85	20917.95
496.05	21282.49
496.26	21274.30
496.47	21681.85
496.67	21325.50
496.88	21743.28
497.08	21329.59
497.29	21898.93
497.49	21808.82
497.70	22093.49
497.91	21919.41
498.11	22087.34
498.32	22159.02
498.52	21995.18
498.73	22726.31
498.93	22339.24
499.14	22697.64
499.34	22619.81
499.55	22990.50
499.76	22623.91
499.96	22662.82
500.17	22795.94
500.37	22937.25
500.58	23039.65
500.78	22963.87
500.99	23172.77
501.19	22939.30
501.40	23338.65
501.60	23103.14
501.81	23426.71
502.02	23309.98
502.22	23092.90
502.43	23651.99
502.63	23684.76
502.84	23682.71
503.04	23473.82
503.25	23432.86
503.45	23938.71
503.66	23811.73
503.86	23740.05
504.07	24030.87
504.27	23940.75
504.48	24293.01
504.68	23895.70
504.89	24387.21
505.09	24376.97
505.30	24217.23
505.50	24522.38
505.71	24546.95
505.91	24718.98
506.12	24497.80
506.32	24594.06
506.53	24768.13
506.73	24837.76
506.94	24882.82
507.14	24731.27
507.35	24774.28
507.55	24817.29
507.76	25167.49
507.96	24907.40
508.17	25034.37
508.37	25040.51
508.58	25118.34
508.78	25392.76
508.99	25513.59
509.19	25663.10
509.40	25370.24
509.60	25368.19
509.81	25497.21
510.01	25472.64
510.22	25411.20
510.42	25470.59
510.63	25812.60
510.83	25630.33
511.04	25601.66
511.24	25898.61
511.44	25468.54
511.65	25972.34
511.85	25855.61
512.06	26017.40
512.26	25876.09
512.47	25994.87
512.67	25925.24
512.88	25931.38
513.08	25851.51
513.29	26211.95
513.49	26334.83
513.69	26242.67
513.90	26046.07
514.10	26513.00
514.31	26265.20
514.51	26214.00
514.72	26117.75
514.92	26211.95
515.13	26445.42
515.33	26672.74
515.53	26629.74
515.74	26379.89
515.94	26906.21
516.15	26621.55
516.35	26754.66
516.56	26936.93
516.76	26654.31
516.96	26674.79
517.17	26908.26
517.37	26803.82
517.58	26783.34
517.78	26887.78
517.99	26975.84
518.19	27272.80
518.39	27115.11
518.60	27217.50
518.80	27319.90
519.01	27344.48
519.21	27299.42
519.41	27436.64
519.62	27285.09
519.82	27283.04
520.03	27739.74
520.23	27315.81
520.43	27334.24
520.64	28186.19
520.84	27829.85
521.05	27879.00
521.25	27952.73
521.45	28122.71
521.66	27811.42
521.86	28210.77
522.07	28272.21
522.27	27928.15
522.47	28116.56
522.68	28337.74
522.88	28159.57
523.08	28409.42
523.29	28126.80
523.49	28702.28
523.70	28446.29
523.90	28620.36
524.10	28616.27
524.31	28560.97
524.51	28452.43
524.71	29275.71
524.92	29232.71
525.12	29457.98
525.33	29062.72
525.53	29290.05
525.73	29945.40
525.94	29271.62
526.14	29158.98
526.34	29845.05
526.55	29527.61
526.75	29648.44
526.95	30283.31
527.16	29849.14
527.36	29822.52
527.56	29914.68
527.77	30232.11
527.97	30461.49
528.17	30135.86
528.38	30344.75
528.58	30285.36
528.78	30647.85
528.99	30303.79
529.19	30768.68
529.39	30479.92
529.60	31133.22
529.80	30905.90
530.00	30838.31
530.21	31147.56
530.41	31053.35
530.61	31178.28
530.82	31147.56
531.02	31225.38
531.22	31692.32
531.43	31727.13
531.63	31807.00
531.83	31938.07
532.04	32183.83
532.24	31893.02
532.44	32038.42
532.64	32468.50
532.85	32278.04
533.05	32325.14
533.25	32534.03
533.46	32386.58
533.66	32667.15
533.86	32857.61
534.07	32779.79
534.27	32960.01
534.47	33234.44
534.67	33484.29
534.88	33179.14
535.08	33238.53
535.28	33318.40
535.49	33469.95
535.69	33875.45
535.89	33590.78
536.09	33914.36
536.30	34119.16
536.50	33840.64
536.70	34024.95
536.91	34332.15
537.11	34502.13
537.31	34412.02
537.51	34622.96
537.72	34684.40
537.92	35081.70
538.12	35128.81
538.32	34881.00
538.53	35042.79
538.73	35020.27
538.93	35200.49
539.13	35268.07
539.34	34926.06
539.54	35399.14
539.74	36074.97
539.94	35304.93
540.15	35694.05
540.35	36083.16
540.55	35872.22
540.75	35829.21
540.96	35710.43
541.16	36109.78
541.36	36046.30
541.56	36218.33
541.77	36023.77
541.97	36890.06
542.17	36552.15
542.37	36609.49
542.58	36851.15
542.78	36834.77
542.98	36885.97
543.18	36869.58
543.38	37225.93
543.59	37017.04
543.79	37287.37
543.99	37154.25
544.19	37526.98
544.40	37561.79
544.60	38028.73
544.80	37715.39
545.00	37625.28
545.20	37696.96
545.41	37967.29
545.61	38049.21
545.81	38010.30
546.01	38081.98
546.21	37922.24
546.42	38094.27
546.62	38542.77
546.82	38106.55
547.02	38647.22
547.22	38520.24
547.43	38553.01
547.63	38786.48
547.83	38931.89
548.03	38397.37
548.23	38827.44
548.44	39153.07
548.64	39380.39
548.84	38907.31
549.04	39065.00
549.24	39429.54
549.45	39849.38
549.65	39263.66
549.85	39132.59
550.05	39796.13
550.25	39845.28
550.45	39896.48
550.66	40070.56
550.86	39738.79
551.06	40166.81
551.26	39863.71
551.46	40062.36
551.66	40261.02
551.87	40199.58
552.07	40492.44
552.27	40158.62
552.47	40289.69
552.67	40443.29
552.87	40293.79
553.07	40629.65
553.28	40785.30
553.48	40979.85
553.68	40492.44
553.88	41328.01
554.08	40719.76
554.28	40738.19
554.48	40805.78
554.69	41215.37
554.89	41043.34
555.09	41178.51
555.29	41010.57
555.49	41321.87
555.69	41125.26
555.89	41473.42
556.10	41434.50
556.30	41100.68
556.50	41440.65
556.70	41317.77
556.90	41768.32
557.10	41405.83
557.30	41491.85
557.50	41393.54
557.70	41633.16
557.91	42182.01
558.11	41788.80
558.31	41995.65
558.51	42165.63
558.71	41833.86
558.91	41995.65
559.11	42014.08
559.31	42052.99
559.51	41524.61
559.72	42247.55
559.92	42380.67
560.12	41837.95
560.32	42040.70
560.52	42087.81
560.72	42474.87
560.92	42481.02
561.12	42747.25
561.32	43021.68
561.52	42155.39
561.72	42548.60
561.93	42055.04
562.13	42745.20
562.33	42046.85
562.53	43128.17
562.73	42741.11
562.93	42648.95
563.13	42925.42
563.33	42298.75
563.53	43042.16
563.73	42517.88
563.93	42737.01
564.13	42952.05
564.33	42966.38
564.53	42943.86
564.74	43472.23
564.94	42931.57
565.14	43406.70
565.34	42659.19
565.54	42751.35
565.74	43443.56
565.94	43531.62
566.14	43484.52
566.34	42855.79
566.54	43918.69
566.74	43394.41
566.94	43138.41
567.14	43707.75
567.34	42782.07
567.54	43310.44
567.74	43459.94
567.94	43335.02
568.14	43488.62
568.34	43808.10
568.54	43824.48
568.74	43404.65
568.94	43029.87
569.14	43890.02
569.34	43287.92
569.54	43902.31
569.75	43466.09
569.95	43758.95
570.15	44178.78
570.35	44088.67
570.55	43736.42
570.75	43380.07
570.95	44043.62
571.15	44305.76
571.35	43795.81
571.55	44084.58
571.75	43969.89
571.95	44012.90
572.15	43664.74
572.35	44193.12
572.55	43887.97
572.75	43840.87
572.95	44062.05
573.15	44520.79
573.35	43916.64
573.55	43881.83
573.75	44045.66
573.95	43941.22
574.15	43795.81
574.35	44404.06
574.55	44156.25
574.75	44215.65
574.95	44191.07
575.15	44488.03
575.34	44483.93
575.54	44674.39
575.74	44350.81
575.94	44488.03
576.14	44303.71
576.34	44666.20
576.54	44477.79
576.74	44729.69
576.94	44432.73
577.14	44825.94
577.34	44893.52
577.54	44615.00
577.74	44873.04
577.94	44830.04
578.14	45016.40
578.34	45040.98
578.54	44369.24
578.74	44422.49
578.94	45190.48
579.14	44582.23
579.34	44967.25
579.54	45030.74
579.74	45038.93
579.94	45049.17
580.13	44942.67
580.33	44963.15
580.53	45249.87
580.73	45501.77
580.93	45114.70
581.13	45225.29
581.33	45714.76
581.53	45436.23
581.73	45499.72
581.93	45253.97
582.13	45452.62
582.33	45581.64
582.53	45491.53
582.73	45532.49
582.92	45397.32
583.12	45757.77
583.32	45659.46
583.52	45462.86
583.72	45864.26
583.92	45720.90
584.12	45821.25
584.32	46214.46
584.52	45661.51
584.72	45925.70
584.92	46024.00
585.11	46353.72
585.31	46097.73
585.51	45972.80
585.71	45770.05
585.91	46202.18
586.11	46468.41
586.31	45905.22
586.51	45782.34
586.71	45976.90
586.91	46603.58
587.10	46155.07
587.30	46583.10
587.50	46576.95
587.70	46540.09
587.90	46525.75
588.10	46372.16
588.30	46912.82
588.50	46781.75
588.69	46916.92
588.89	46226.75
589.09	46812.47
589.29	47056.18
589.49	46800.18
589.69	46409.02
589.89	47238.45
590.08	46701.88
590.28	46736.69
590.48	46701.88
590.68	46654.78
590.88	47117.62
591.08	46884.15
591.28	46734.65
591.47	47125.81
591.67	47113.52
591.87	47400.24
592.07	46808.37
592.27	46986.55
592.47	46734.65
592.67	47299.89
592.86	46980.40
593.06	47660.33
593.26	46970.16
593.46	47197.49
593.66	47551.79
593.86	47287.60
594.05	47588.65
594.25	48168.22
594.45	47723.82
594.65	47619.37
594.85	47686.95
595.05	48149.79
595.24	47832.36
595.44	47928.61
595.64	47734.06
595.84	47621.42
596.04	47953.19
596.23	47959.33
596.43	48110.88
596.63	47662.38
596.83	47887.65
597.03	48203.04
597.22	48641.31
597.42	47762.73
597.62	48954.64
597.82	48422.17
598.02	48413.98
598.21	49065.24
598.41	48461.08
598.61	48352.54
598.81	48780.57
599.01	49042.71
599.20	48502.04
599.40	48938.26
599.60	49198.35
599.80	49278.22
600.00	48880.92
600.19	49231.12
600.39	48932.12
600.59	49466.64
600.79	49284.37
600.98	48938.26
601.18	49650.95
601.38	49544.46
601.58	49730.83
601.78	49655.05
601.97	49743.11
602.17	49777.93
602.37	49607.95
602.57	49538.32
602.76	49906.95
602.96	49788.17
603.16	49792.26
603.36	49849.61
603.55	50212.10
603.75	50402.56
603.95	50234.63
604.15	50029.83
604.34	50267.39
604.54	50550.01
604.74	50967.80
604.94	50404.61
605.13	50486.53
605.33	50730.23
605.53	50425.09
605.73	50484.48
605.92	50838.78
606.12	51150.07
606.32	50980.09
606.52	51008.76
606.71	51465.45
606.91	51084.53
607.11	50861.30
607.30	51246.32
607.50	51412.21
607.70	51115.25
607.90	51371.25
608.09	51291.38
608.29	51600.62
608.49	51655.92
608.68	51303.67
608.88	51709.16
609.08	51530.99
609.28	51666.16
609.47	51786.99
609.67	51903.72
609.87	51508.46
610.06	52024.55
610.26	51893.48
610.46	52260.07
610.66	52172.00
610.85	52126.95
611.05	52135.14
611.25	52016.36
611.44	51635.44
611.64	52485.34
611.84	52313.31
612.03	52174.05
612.23	52255.97
612.43	52724.96
612.62	52337.89
612.82	52874.46
613.02	52673.76
613.21	52952.28
613.41	52538.59
613.61	52784.35
613.80	52446.43
614.00	52583.65
614.20	52606.17
614.39	52614.37
614.59	52622.56
614.79	53122.26
614.98	52681.95
615.18	52980.95
615.38	53054.68
615.57	52806.87
615.77	52933.85
615.97	53228.76
616.16	52995.29
616.36	52919.51
616.56	52985.05
616.75	53374.16
616.95	52684.00
617.15	53124.31
617.34	53433.55
617.54	53044.44
617.74	53499.09
617.93	53370.07
618.13	52935.90
618.32	53408.98
618.52	53210.32
618.72	53069.01
618.91	53408.98
619.11	53286.10
619.31	53460.18
619.50	53226.71
619.70	53325.01
619.90	53664.97
620.09	53351.63
620.29	53531.86
620.48	53736.65
620.68	54125.77
620.88	52983.00
621.07	53513.42
621.27	53748.94
621.46	53304.53
621.66	53581.01
621.86	53849.29
622.05	53331.15
622.25	53980.36
622.44	53619.92
622.64	54109.38
622.84	54054.09
623.03	53724.36
623.23	53443.79
623.42	53490.90
623.62	53925.07
623.82	54301.89
624.01	53773.52
624.21	54224.07
624.40	53746.89
624.60	54052.04
624.80	53681.36
624.99	53699.79
625.19	53529.81
625.38	54254.79
625.58	53945.54
625.77	53771.47
625.97	54025.42
626.17	53679.31
626.36	54318.28
626.56	54301.89
626.75	53982.41
626.95	53986.50
627.14	54080.71
627.34	54664.38
627.54	54031.56
627.73	54041.80
627.93	53828.81
628.12	54072.52
628.32	54383.81
628.51	54187.21
628.71	54371.52
628.90	54146.25
629.10	54193.35
629.30	54244.55
629.49	54316.23
629.69	53642.45
629.88	53847.24
630.08	54133.96
630.27	54541.50
630.47	54484.16
630.66	53937.35
630.86	54781.12
631.05	53847.24
631.25	54459.58
631.44	54308.04
631.64	54111.43
631.84	54437.06
632.03	54957.24
632.23	54228.16
632.42	54781.12
632.62	54504.64
632.81	54623.42
633.01	54652.09
633.20	54625.47
633.40	55090.36
633.59	54787.26
633.79	54017.22
633.98	54654.14
634.18	54893.75
634.37	54654.14
634.57	54981.82
634.76	55049.40
634.96	54615.23
635.15	54584.51
635.35	54371.52
635.54	54541.50
635.74	55219.38
635.93	54547.65
636.13	54916.28
636.32	54994.10
636.52	54346.95
636.71	54830.27
636.91	54895.80
637.10	55246.00
637.30	54877.37
637.49	54897.85
637.69	55033.02
637.88	55205.05
638.08	54731.96
638.27	55141.56
638.46	55086.26
638.66	54324.42
638.85	55147.70
639.05	54754.49
639.24	55190.71
639.44	54449.35
639.63	54555.84
639.83	55342.26
640.02	55008.44
640.22	54836.41
640.41	55262.39
640.61	54983.86
640.80	54817.98
640.99	54832.32
641.19	55002.30
641.38	54662.33
641.58	54695.10
641.77	55239.86
641.97	54914.23
642.16	54525.12
642.36	55143.61
642.55	55735.47
642.74	54998.20
642.94	55168.18
643.13	54387.91
643.33	55274.68
643.52	55276.72
643.72	55358.64
643.91	55129.27
644.10	55286.96
644.30	55203.00
644.49	54740.16
644.69	55225.53
644.88	55139.51
645.08	54916.28
645.27	54981.82
645.46	54844.60
645.66	55053.50
645.85	55139.51
646.05	55340.21
646.24	55327.92
646.43	55329.97
646.63	55327.92
646.82	55088.31
647.02	55452.85
647.21	55575.73
647.40	55510.19
647.60	55418.03
647.79	55598.26
647.99	55768.24
648.18	54840.51
648.37	55729.33
648.57	55692.46
648.76	55628.98
648.96	55225.53
649.15	55303.35
649.34	55882.92
649.54	55198.90
649.73	55129.27
649.92	55534.77
650.12	55493.81
650.31	55729.33
650.51	55448.75
650.70	55594.16
650.89	55821.48
651.09	55768.24
651.28	55272.63
651.47	55717.04
651.67	55420.08
651.86	55729.33
652.06	54848.70
652.25	55350.45
652.44	55071.93
652.64	54682.81
652.83	54891.71
653.02	55002.30
653.22	55164.09
653.41	55514.29
653.60	54883.51
653.80	55205.05
653.99	55344.31
654.18	55305.40
654.38	55016.63
654.57	55235.77
654.76	55538.86
654.96	54850.75
655.15	55104.70
655.34	54664.38
655.54	54764.73
655.73	55485.62
655.92	55323.83
656.12	55409.84
656.31	55297.20
656.50	55270.58
656.70	55090.36
656.89	55325.88
657.08	55626.93
657.28	55082.17
657.47	55071.93
657.66	55209.14
657.86	54975.67
658.05	55039.16
658.24	55004.34
658.43	55131.32
658.63	55235.77
658.82	55260.34
659.01	55086.26
659.21	55174.33
659.40	54998.20
659.59	55203.00
659.79	54924.47
659.98	55344.31
660.17	54996.15
660.36	54762.68
660.56	55219.38
660.75	55014.58
660.94	55014.58
661.14	55207.09
661.33	55059.64
661.52	54422.72
661.71	54858.94
661.91	54484.16
662.10	54346.95
662.29	55092.41
662.49	54740.16
662.68	54682.81
662.87	54875.32
663.06	54633.66
663.26	54244.55
663.45	54822.08
663.64	54449.35
663.83	55000.25
664.03	54969.53
664.22	54727.87
664.41	55071.93
664.60	54392.00
664.80	54430.91
664.99	54443.20
665.18	54609.09
665.37	54756.54
665.57	54801.60
665.76	54600.89
665.95	54551.74
666.14	54686.91
666.34	54461.63
666.53	54099.14
666.72	54547.65
666.91	54291.65
667.11	54336.71
667.30	54514.88
667.49	54516.93
667.68	54383.81
667.87	54502.59
668.07	54498.50
668.26	54631.61
668.45	54228.16
668.64	54088.90
668.84	55004.34
669.03	54807.74
669.22	54609.09
669.41	54428.87
669.60	54136.01
669.80	54385.86
669.99	54230.21
670.18	54314.18
670.37	54447.30
670.57	54484.16
670.76	54226.12
670.95	54424.77
671.14	54344.90
671.33	54097.09
671.53	54136.01
671.72	54187.21
671.91	54310.08
672.10	54316.23
672.29	54312.13
672.48	54361.28
672.68	54443.20
672.87	53781.71
673.06	54074.57
673.25	53884.11
673.44	53929.16
673.64	54060.23
673.83	53982.41
674.02	53814.47
674.21	53744.84
674.40	53646.54
674.59	53695.69
674.79	53400.79
674.98	53695.69
675.17	53830.86
675.36	53486.80
675.55	53583.05
675.74	53654.73
675.94	53619.92
676.13	53875.91
676.32	53900.49
676.51	54064.33
676.70	53906.63
676.89	53900.49
677.08	53863.63
677.28	53548.24
677.47	54021.32
677.66	53564.62
677.85	53556.43
678.04	54058.18
678.23	54035.66
678.42	53912.78
678.62	53746.89
678.81	53374.16
679.00	53814.47
679.19	54496.45
679.38	53572.81
679.57	53490.90
679.76	53744.84
679.96	53859.53
680.15	53626.06
680.34	53259.48
680.53	53634.25
680.72	54002.89
680.91	53515.47
681.10	53538.00
681.29	53333.20
681.48	53288.15
681.68	53552.33
681.87	53296.34
682.06	53112.02
682.25	53273.81
682.44	53204.18
682.63	53081.30
682.82	53112.02
683.01	53269.72
683.20	52589.79
683.39	52962.52
683.59	52849.88
683.78	52835.55
683.97	52915.42
684.16	53247.19
684.35	52442.34
684.54	53007.58
684.73	52579.55
684.92	53097.69
685.11	53038.29
685.30	52847.83
685.49	52837.59
685.69	53163.22
685.88	52548.83
686.07	53130.45
686.26	52964.57
686.45	53077.21
686.64	52925.66
686.83	52710.62
687.02	52679.90
687.21	53286.10
687.40	52950.23
687.59	52866.27
687.78	53001.43
687.97	52833.50
688.16	53040.34
688.35	52088.04
688.54	52514.01
688.74	52782.30
688.93	52544.73
689.12	52802.78
689.31	52849.88
689.50	52894.94
689.69	52530.40
689.88	51756.27
690.07	53054.68
690.26	52671.71
690.45	53118.17
690.64	52143.33
690.83	52651.23
691.02	52042.98
691.21	52694.24
691.40	52411.62
691.59	52546.78
691.78	52399.33
691.97	52608.22
692.16	52161.76
692.35	52542.69
692.54	52335.84
692.73	52370.66
692.92	52530.40
693.11	52909.27
693.30	52225.25
693.49	52593.89
693.68	52460.77
693.87	52552.93
694.06	52233.44
694.25	52624.60
694.44	51875.05
694.63	52436.19
694.82	52413.66
695.01	52129.00
695.20	52204.77
695.39	52296.93
695.58	52483.30
695.77	52047.08
695.96	52149.48
696.15	52344.03
696.34	52241.63
696.53	52100.32
696.72	52356.32
696.91	52311.27
697.10	52327.65
697.29	52016.36
697.48	52251.87
697.67	51600.62
697.86	52024.55
698.05	52180.20
698.24	52352.23
698.43	51391.73
698.62	52337.89
698.81	52223.20
699.00	52378.85
699.19	51535.09
699.38	52348.13
699.57	51557.61
699.76	52362.46
699.95	51672.30
700.14	51395.82
700.32	51621.10
700.51	51690.73
700.70	52339.94
700.89	52178.15
701.08	51940.58
701.27	51913.96
701.46	52157.67
701.65	51115.25
701.84	52085.99
702.03	51684.59
702.22	51426.54
702.41	51856.62
702.60	51852.52
702.79	52020.45
702.98	51576.04
703.17	51778.79
703.35	51739.88
703.54	52026.60
703.73	51647.72
703.92	51367.15
704.11	51893.48
704.30	51682.54
704.49	51361.01
704.68	51158.26
704.87	51647.72
705.06	51487.98
705.25	51408.11
705.43	51627.24
705.62	51686.64
705.81	51508.46
706.00	51375.34
706.19	51418.35
706.38	51578.09
706.57	51258.61
706.76	51528.94
706.95	51430.64
707.14	51231.99
707.32	51025.14
707.51	51201.27
707.70	50902.26
707.89	51504.37
708.08	51524.85
708.27	51180.79
708.46	51748.07
708.65	51299.57
708.84	51672.30
709.02	51236.08
709.21	51021.05
709.40	51735.79
709.59	51227.89
709.78	50877.69
709.97	51080.44
710.16	51164.40
710.34	50789.62
710.53	51344.62
710.72	51279.09
710.91	50838.78
711.10	50939.13
711.29	51272.95
711.48	51256.56
711.66	51397.87
711.85	50646.27
712.04	51193.07
712.23	51066.10
712.42	51383.54
712.61	51031.29
712.80	51094.77
712.98	50953.46
713.17	50451.71
713.36	50914.55
713.55	50724.09
713.74	50795.77
713.93	51010.81
714.11	50607.36
714.30	50615.55
714.49	50590.97
714.68	51004.66
714.87	51311.86
715.06	51109.11
715.24	50894.07
715.43	50814.20
715.62	50476.29
715.81	50373.89
716.00	50861.30
716.18	50455.81
716.37	50474.24
716.56	50138.37
716.75	50812.15
716.94	50582.78
717.12	50386.18
717.31	50484.48
717.50	50787.58
717.69	50017.54
717.88	50218.24
718.06	50238.72
718.25	50613.50
718.44	50330.88
718.63	50658.56
718.82	49448.21
719.00	50124.04
719.19	50197.76
719.38	50093.32
719.57	49790.22
719.76	49648.91
719.94	49653.00
720.13	49650.95
720.32	50109.70
720.51	49880.33
720.69	49818.89
720.88	49763.59
721.07	49321.23
721.26	49466.64
721.44	49673.48
721.63	49231.12
721.82	49116.43
722.01	49241.36
722.20	49693.96
722.38	49308.94
722.57	48751.90
722.76	49057.04
722.95	49575.18
723.13	48829.72
723.32	48715.03
723.51	48487.71
723.70	48956.69
723.88	49007.89
724.07	48897.30
724.26	48794.90
724.44	48768.28
724.63	49292.56
724.82	48872.73
725.01	48702.74
725.19	48956.69
725.38	48655.64
725.57	48887.06
725.76	49075.48
725.94	48631.07
726.13	48633.11
726.32	48923.93
726.51	48774.42
726.69	48692.50
726.88	48563.48
727.07	48690.46
727.25	48669.98
727.44	48739.61
727.63	48403.74
727.82	48031.01
728.00	48432.41
728.19	48346.40
728.38	48880.92
728.56	48217.38
728.75	48416.03
728.94	48076.07
729.12	48551.20
729.31	48545.05
729.50	48563.48
729.69	48383.26
729.87	48604.44
730.06	48225.57
730.25	48344.35
730.43	48895.25
730.62	48366.88
730.81	48573.72
730.99	48596.25
731.18	48432.41
731.37	48469.28
731.55	48770.33
731.74	48350.49
731.93	48481.56
732.11	48205.09
732.30	48481.56
732.49	48354.59
732.67	48495.90
732.86	48426.27
733.05	48643.35
733.23	48112.93
733.42	48375.07
733.61	48299.30
733.79	47957.28
733.98	48553.24
734.17	48325.92
734.35	48411.93
734.54	48497.95
734.73	48600.35
734.91	48471.32
735.10	48268.58
735.29	48469.28
735.47	47820.07
735.66	48489.76
735.84	48266.53
736.03	48241.95
736.22	48166.18
736.40	48051.49
736.59	48407.84
736.78	47924.52
736.96	47727.91
737.15	47719.72
737.33	47945.00
737.52	47979.81
737.71	47580.46
737.89	47449.39
738.08	47437.10
738.27	47955.24
738.45	48100.64
738.64	47615.27
738.82	47727.91
739.01	47689.00
739.20	47684.90
739.38	47500.59
739.57	47906.08
739.75	47596.84
739.94	47519.02
740.13	47662.38
740.31	47498.54
740.50	47486.25
740.68	47426.86
740.87	47650.09
741.06	47510.83
741.24	47396.14
741.43	47375.66
741.61	47945.00
741.80	47222.06
741.99	47103.28
742.17	47035.70
742.36	46982.45
742.54	46892.34
742.73	47248.69
742.91	47416.62
743.10	47263.02
743.29	47514.92
743.47	47142.19
743.66	46925.11
743.84	47306.03
744.03	47027.51
744.21	46585.15
744.40	47013.17
744.59	46613.82
744.77	46738.74
744.96	46890.29
745.14	46957.88
745.33	47045.94
745.51	46869.81
745.70	46830.90
745.88	46771.51
746.07	46798.13
746.26	46599.48
746.44	46316.86
746.63	46329.15
746.81	46904.63
747.00	46466.36
747.18	46480.70
747.37	46566.71
747.55	46662.97
747.74	47009.07
747.92	46298.43
748.11	46439.74
748.29	46089.54
748.48	46417.21
748.66	46138.69
748.85	45679.94
749.03	46150.98
749.22	45811.01
749.41	45780.29
749.59	46128.45
749.78	45804.87
749.96	45509.96
750.15	45997.38
750.33	45987.14
750.52	45593.93
750.70	45534.54
750.89	45315.40
751.07	44922.19
751.26	45309.26
751.44	45368.65
751.63	45430.09
751.81	45233.49
752.00	45417.80
752.18	45495.63
752.37	45348.17
752.55	45010.26
752.74	45159.76
752.92	45157.71
753.10	44551.51
753.29	45053.26
753.47	44842.32
753.66	44752.21
753.84	45086.03
754.03	44834.13
754.21	44741.97
754.40	44940.63
754.58	44832.08
754.77	44862.80
754.95	44754.26
755.14	44295.52
755.32	44467.55
755.51	44569.94
755.69	44459.35
755.88	44668.25
756.06	44617.05
756.24	44238.17
756.43	44143.97
756.61	44389.72
756.80	44389.72
756.98	43998.56
757.17	44223.84
757.35	44313.95
757.54	44127.58
757.72	44064.10
757.90	43851.11
758.09	43816.29
758.27	43939.17
758.46	43705.70
758.64	44031.33
758.83	43877.73
759.01	44023.14
759.19	43740.52
759.38	43666.79
759.56	43584.87
759.75	43648.36
759.93	43505.00
760.12	43218.28
760.30	43474.28
760.48	43304.30
760.67	43081.07
760.85	43357.55
761.04	43203.95
761.22	43316.59
761.40	42863.99
761.59	42829.17
761.77	42876.27
761.96	43111.79
762.14	42866.03
762.32	42558.84
762.51	42575.22
762.69	42741.11
762.88	42622.33
763.06	42634.61
763.24	42892.66
763.43	42663.28
763.61	42714.48
763.80	42470.78
763.98	42274.17
764.16	42571.13
764.35	42458.49
764.53	42012.03
764.72	42327.42
764.90	42239.36
765.08	41872.77
765.27	41895.30
765.45	41909.63
765.63	41604.49
765.82	41878.91
766.00	41774.47
766.18	41911.68
766.37	42085.76
766.55	41805.19
766.74	41866.63
766.92	41891.20
767.10	41549.19
767.29	41745.80
767.47	41321.87
767.65	41567.62
767.84	41203.08
768.02	41452.94
768.20	41020.81
768.39	41399.69
768.57	40983.95
768.75	41031.05
768.94	40912.27
769.12	41297.29
769.30	40703.38
769.49	40519.06
769.67	40752.53
769.85	40576.40
770.04	40447.38
770.22	40547.73
770.40	40654.23
770.59	40637.84
770.77	40787.35
770.95	40695.19
771.14	40103.32
771.32	40181.15
771.50	39951.77
771.69	39937.44
771.87	40230.30
772.05	40074.65
772.24	39888.29
772.42	40068.51
772.60	39814.56
772.78	39615.91
772.97	39292.33
773.15	39673.25
773.33	39499.17
773.52	39579.04
773.70	39591.33
773.88	39859.62
774.07	39318.95
774.25	39794.08
774.43	39511.46
774.61	39624.10
774.80	39712.16
774.98	39525.80
775.16	39976.35
775.34	39624.10
775.53	39716.26
775.71	39984.54
775.89	39779.74
776.08	39894.43
776.26	39841.18
776.44	40142.24
776.62	39734.69
776.81	39292.33
776.99	39841.18
777.17	39280.04
777.35	39366.06
777.54	39718.31
777.72	39509.41
777.90	39943.58
778.08	39832.99
778.27	39779.74
778.45	40132.00
778.63	40111.52
778.81	39269.80
779.00	40084.89
779.18	39642.53
779.36	40109.47
779.54	39540.13
779.73	39589.28
779.91	40121.76
780.09	39972.25
780.27	40136.09
780.46	40154.52
780.64	39617.96
780.82	39560.61
781.00	40148.38
781.19	40387.99
781.37	40103.32
781.55	40152.48
781.73	40222.11
781.91	39976.35
782.10	40127.90
782.28	40041.88
782.46	40218.01
782.64	40553.88
782.82	40107.42
783.01	40226.20
783.19	40179.10
783.37	40340.89
783.55	40199.58
783.74	40527.25
783.92	40185.24
784.10	40230.30
784.28	40312.22
784.46	40211.87
784.64	39789.98
784.83	40244.63
785.01	40400.28
785.19	39953.82
785.37	40578.45
785.55	40025.50
785.74	39804.32
785.92	39472.55
786.10	40035.74
786.28	39785.89
786.46	39712.16
786.64	39364.01
786.83	39591.33
787.01	39921.05
787.19	39613.86
787.37	39706.02
787.55	39255.46
787.74	39228.84
787.92	39640.48
788.10	39429.54
788.28	39277.99
788.46	39361.96
788.64	38944.17
788.82	39609.76
789.01	39050.67
789.19	39413.16
789.37	39429.54
789.55	39359.91
789.73	38643.12
789.91	38563.25
790.09	38976.94
790.28	38729.14
790.46	38606.26
790.64	38866.35
790.82	38811.06
791.00	38663.60
791.18	38280.63
791.36	38434.23
791.55	38272.44
791.73	38366.65
791.91	38165.95
792.09	38163.90
792.27	38133.18
792.45	38118.84
792.63	37924.29
792.81	37850.56
793.00	37606.85
793.18	37969.34
793.36	37361.09
793.54	37516.74
793.72	37541.32
793.90	37281.22
794.08	37447.11
794.26	37410.25
794.44	37041.61
794.62	36873.68
794.81	37103.05
794.99	36808.14
795.17	36773.33
795.35	36539.86
795.53	37144.01
795.71	37055.95
795.89	36261.33
796.07	36095.45
796.25	36421.08
796.43	36193.75
796.61	35800.54
796.80	36052.44
796.98	36212.18
797.16	35866.08
797.34	35759.58
797.52	35753.44
797.70	36203.99
797.88	35778.01
798.06	35778.01
798.24	35536.35
798.42	35517.92
798.60	35272.17
798.78	35352.04
798.96	35530.21
799.14	35458.53
799.32	35202.53
799.51	34960.87
799.69	35155.43
799.87	34930.16
800.05	34651.63
800.23	34833.90
800.41	34409.97
800.59	34727.41
800.77	34637.30
800.95	34149.88
801.13	34594.29
801.31	33789.44
801.49	34375.16
801.67	34336.24
801.85	34039.29
802.03	33908.22
802.21	33572.35
802.39	33750.52
802.57	33695.23
802.75	33934.84
802.93	33467.91
803.11	33543.68
803.29	33453.57
803.47	33570.30
803.65	33369.60
803.83	33148.42
804.01	33334.79
804.19	33068.55
804.37	32540.18
804.55	32787.98
804.73	32753.16
804.91	33015.30
805.09	33011.21
805.27	33019.40
805.45	32917.00
805.63	32652.81
805.81	32775.69
805.99	32751.12
806.17	32544.27
806.35	32372.24
806.53	32144.92
806.71	32183.83
806.89	32259.60
807.07	32144.92
807.25	31933.98
807.43	31925.78
807.61	32099.86
807.79	31958.55
807.97	31669.79
808.15	31831.58
808.33	31512.10
808.51	31665.69
808.69	31880.73
808.87	31151.65
809.05	31292.96
809.23	31366.69
809.41	31106.60
809.59	31464.99
809.77	31497.76
809.95	31055.40
810.13	31299.11
810.31	30993.96
810.49	31032.87
810.67	31163.94
810.84	30959.14
811.02	31176.23
811.20	30285.36
811.38	30809.64
811.56	30357.04
811.74	30299.70
811.92	30545.45
812.10	30258.74
812.28	30711.34
812.46	30715.44
812.64	30352.94
812.82	30142.00
813.00	30627.37
813.18	29976.12
813.36	30217.78
813.53	29982.26
813.71	30088.76
813.89	29654.59
814.07	29935.16
814.25	29863.48
814.43	29646.40
814.61	29759.03
814.79	29658.68
814.97	29908.54
815.15	29931.06
815.33	29103.68
815.50	29322.82
815.68	29285.95
815.86	29650.49
816.04	29302.34
816.22	29027.91
816.40	29142.60
816.58	29179.46
816.76	29017.67
816.94	28952.13
817.11	28986.95
817.29	28886.60
817.47	28587.60
817.65	28526.16
817.83	28792.39
818.01	28497.49
818.19	28454.48
818.37	28853.83
818.54	28603.98
818.72	28796.49
818.90	28524.11
819.08	28769.86
819.26	28659.27
819.44	28163.67
819.62	28434.00
819.80	28356.18
819.97	28513.87
820.15	28341.84
820.33	28116.56
820.51	28018.26
820.69	27807.32
820.87	28184.15
821.05	28327.50
821.22	27942.49
821.40	27846.23
821.58	27874.90
821.76	28130.90
821.94	27711.07
822.12	27637.34
822.29	28110.42
822.47	27631.19
822.65	27854.42
822.83	27813.46
823.01	27745.88
823.19	27645.53
823.36	27240.03
823.54	27481.69
823.72	27244.13
823.90	27262.56
824.08	27240.03
824.25	27577.95
824.43	27178.59
824.61	27201.12
824.79	27569.76
824.97	27479.64
825.15	27620.95
825.32	27295.33
825.50	26771.05
825.68	26895.97
825.86	27442.78
826.04	27188.83
826.21	27033.19
826.39	27233.89
826.57	26885.73
826.75	26740.33
826.93	26822.25
827.10	26652.27
827.28	26977.89
827.46	27068.00
827.64	26687.08
827.81	26635.88
827.99	26535.53
828.17	26455.66
828.35	26609.26
828.53	26605.16
828.70	26275.44
828.88	26459.76
829.06	26369.65
829.24	26480.24
829.41	26343.02
829.59	26254.96
829.77	26275.44
829.95	25925.24
830.12	26404.46
830.30	26132.08
830.48	26373.74
830.66	26226.29
830.84	26089.07
831.01	26103.41
831.19	26136.18
831.37	26031.73
831.55	26023.54
831.72	25933.43
831.90	26117.75
832.08	26103.41
832.25	25624.18
832.43	25765.49
832.61	25923.19
832.79	25560.70
832.96	25644.66
833.14	25390.72
833.32	25640.57
833.50	25667.19
833.67	25683.58
833.85	25656.95
834.03	25398.91
834.20	25529.98
834.38	25882.23
834.56	25720.44
834.74	25529.98
834.91	25489.02
835.09	25575.03
835.27	25181.82
835.44	25380.48
835.62	25085.57
835.80	24944.26
835.98	25304.70
836.15	25030.27
836.33	25405.05
836.51	25237.12
836.68	25044.61
836.86	25142.91
837.04	25421.44
837.21	24917.64
837.39	25079.43
837.57	25476.73
837.75	25126.53
837.92	24954.50
838.10	24977.03
838.28	24538.76
838.45	24977.03
838.63	24970.88
838.81	25104.00
838.98	24981.12
839.16	24489.61
839.34	24389.26
839.51	24712.84
839.69	24462.99
839.87	24458.89
840.04	24460.94
840.22	24823.43
840.40	24309.39
840.57	24063.63
840.75	24534.67
840.93	24159.89
841.10	24581.77
841.28	24792.71
841.46	24385.16
841.63	24241.81
841.81	24274.57
841.98	24120.98
842.16	24432.27
842.34	24245.90
842.51	23907.99
842.69	24333.96
842.87	24020.63
843.04	24278.67
843.22	24231.57
843.40	24186.51
843.57	23807.64
843.75	24137.36
843.92	23942.80
844.10	23977.62
844.28	23856.79
844.45	24184.46
844.63	23811.73
844.81	23809.68
844.98	24213.13
845.16	23795.35
845.33	23813.78
845.51	23801.49
845.69	23514.78
845.86	23658.14
846.04	23443.10
846.21	23674.52
846.39	23729.81
846.57	23479.96
846.74	23647.90
846.92	23733.91
847.09	23539.35
847.27	23375.52
847.45	23484.06
847.62	23570.07
847.80	23307.93
847.97	23457.43
848.15	23305.88
848.32	23346.84
848.50	23217.82
848.68	23287.45
848.85	23469.72
849.03	23180.96
849.20	23096.99
849.38	23117.47
849.56	23205.53
849.73	23045.79
849.91	23142.05
850.08	23492.25
850.26	22802.08
850.43	22814.37
850.61	23275.16
850.78	22847.14
850.96	22654.63
851.14	22812.32
851.31	22607.53
851.49	22781.60
851.66	22884.00
851.84	22722.21
852.01	22795.94
852.19	22525.61
852.36	22732.45
852.54	22591.14
852.71	22730.41
852.89	22472.36
853.07	22759.08
853.24	22771.36
853.42	22484.65
853.59	22484.65
853.77	22576.81
853.94	22763.17
854.12	22853.28
854.29	22494.89
854.47	22691.49
854.64	22263.47
854.82	22466.22
854.99	22490.79
855.17	22234.80
855.34	22564.52
855.52	21960.37
855.69	22322.86
855.87	22255.28
856.04	22406.83
856.22	22271.66
856.39	22245.04
856.57	22212.27
856.74	22064.82
856.92	22298.28
857.09	22013.62
857.27	21905.07
857.44	22253.23
857.62	21984.94
857.79	22146.73
857.97	21919.41
858.14	22376.11
858.32	21968.56
858.49	22240.94
858.67	21737.14
858.84	22030.00
859.02	21669.56
859.19	21845.68
859.37	21636.79
859.54	21755.57
859.72	21817.01
859.89	21640.89
860.06	21728.95
860.24	21550.78
860.41	21872.31
860.59	21583.54
860.76	21794.48
860.94	21419.71
861.11	21485.24
861.29	21622.45
861.46	21391.03
861.64	21167.80
861.81	21489.34
861.98	21391.03
862.16	21376.70
862.33	21266.11
862.51	21280.44
862.68	21210.81
862.86	21409.47
863.03	21319.35
863.21	20874.95
863.38	21065.41
863.55	21014.21
863.73	21176.00
863.90	21143.23
864.08	20885.19
864.25	20981.44
864.43	20909.76
864.60	20833.99
864.77	20733.64
864.95	21010.11
865.12	20762.31
865.30	21071.55
865.47	20530.89
865.64	20573.89
865.82	20747.97
865.99	20850.37
866.17	20795.07
866.34	20719.30
866.51	20498.12
866.69	20866.75
866.86	20532.93
867.04	20831.94
867.21	20790.98
867.38	20332.23
867.56	20094.67
867.73	20096.72
867.91	20278.99
868.08	20305.61
868.25	20321.99
868.43	20221.64
868.60	20168.40
868.78	20184.78
868.95	20397.77
869.12	20258.51
869.30	20061.90
869.47	20035.28
869.64	19693.27
869.82	20020.94
869.99	20004.56
870.16	20264.65
870.34	19984.08
870.51	20268.75
870.69	19771.09
870.86	19867.34
871.03	19783.38
871.21	19771.09
871.38	20115.15
871.55	19726.04
871.73	19832.53
871.90	19719.89
872.07	19318.49
872.25	19554.01
872.42	19316.44
872.59	19515.09
872.77	19599.06
872.94	19500.76
873.11	19300.06
873.29	19797.71
873.46	19261.15
873.63	19343.06
873.81	19025.63
873.98	19238.62
874.15	19121.88
874.33	18992.86
874.50	18974.43
874.67	19033.82
874.85	18908.90
875.02	18951.90
875.19	18616.04
875.37	18855.65
875.54	18609.89
875.71	18573.03
875.88	18755.30
876.06	18603.75
876.23	18667.24
876.40	18564.84
876.58	18611.94
876.75	18581.22
876.92	18392.81
877.10	18593.51
877.27	18390.76
877.44	18304.74
877.61	18165.48
877.79	18484.97
877.96	18228.97
878.13	18165.48
878.31	18376.42
878.48	18294.50
878.65	17921.77
878.82	17964.78
879.00	17942.25
879.17	18104.04
879.34	17977.07
879.51	17809.14
879.69	17995.50
879.86	17723.12
880.03	17751.79
880.21	17723.12
880.38	17819.38
880.55	17975.02
880.72	18015.98
880.90	17759.98
881.07	17725.17
881.24	17657.59
881.41	17817.33
881.59	17929.97
881.76	17708.79
881.93	17473.27
882.10	17415.93
882.28	17428.21
882.45	17530.61
882.62	17399.54
882.79	17424.12
882.96	17143.55
883.14	17526.52
883.31	17424.12
883.48	17268.47
883.65	17518.32
883.83	17379.06
884.00	17131.26
884.17	17000.19
884.34	17448.69
884.51	16994.04
884.69	17379.06
884.86	17221.37
885.03	17164.03
885.20	16881.41
885.38	17086.20
885.55	17135.35
885.72	16996.09
885.89	16826.11
886.06	16871.17
886.24	16846.59
886.41	16932.61
886.58	17116.92
886.75	17086.20
886.92	16815.87
887.10	16998.14
887.27	16637.70
887.44	16815.87
887.61	17112.83
887.78	16994.04
887.95	16854.78
888.13	16623.36
888.30	16672.51
888.47	16692.99
888.64	16649.99
888.81	16875.26
888.99	16725.76
889.16	16480.00
889.33	16582.40
889.50	16506.63
889.67	16615.17
889.84	16277.26
890.01	16377.61
890.19	16740.10
890.36	16224.01
890.53	16359.17
890.70	16301.83
890.87	16287.50
891.04	16371.46
891.22	16189.19
891.39	16090.89
891.56	16119.56
891.73	15933.20
891.90	15908.62
892.07	16137.99
892.24	16041.74
892.42	16037.64
892.59	16097.03
892.76	16078.60
892.93	16000.78
893.10	15808.27
893.27	15597.33
893.44	15701.78
893.61	15695.63
893.79	16039.69
893.96	15875.85
894.13	15808.27
894.30	15812.37
894.47	15857.42
894.64	15941.39
894.81	15656.72
894.98	15836.94
895.15	15978.25
895.33	15736.59
895.50	15732.50
895.67	15849.23
895.84	15701.78
896.01	15626.00
896.18	15488.79
896.35	15712.02
896.52	15669.01
896.69	15740.69
896.86	15552.27
897.04	15755.02
897.21	15714.06
897.38	15544.08
897.55	15427.35
897.72	15716.11
897.89	15402.77
898.06	15542.03
898.23	15525.65
898.40	15304.47
898.57	15460.12
898.74	15550.23
898.91	15544.08
899.08	15542.03
899.26	15542.03
899.43	15431.44
899.60	15578.90
899.77	15429.40
899.94	15331.09
900.11	15351.57
900.28	15566.61
900.45	15408.92
900.62	15318.81
900.79	15415.06
900.96	15482.64
901.13	15662.86
901.30	15212.31
901.47	15406.87
901.64	15501.08
901.81	15486.74
901.98	15462.16
902.15	15179.54
902.32	15505.17
902.49	15472.40
902.66	15662.86
902.83	15335.19
903.01	15077.15
903.18	15337.24
903.35	15443.73
903.52	15011.61
903.69	15300.37
903.86	15642.39
904.03	15163.16
904.20	15216.41
904.37	15472.40
904.54	15103.77
904.71	15288.09
904.88	15126.30
905.05	15064.86
905.22	15382.29
905.39	15408.92
905.56	15406.87
905.73	15189.78
905.90	15232.79
906.07	15197.98
906.24	15068.95
906.41	15263.51
906.58	15310.61
906.75	15154.97
906.92	15103.77
907.09	15200.02
907.26	15335.19
907.43	15220.50
907.60	15007.52
907.77	15091.48
907.93	15152.92
908.10	15011.61
908.27	15185.69
908.44	14903.07
908.61	15044.38
908.78	15197.98
908.95	15056.67
909.12	15208.22
909.29	15095.58
909.46	14997.28
909.63	15247.13
909.80	15105.82
909.97	15234.84
910.14	15064.86
910.31	15212.31
910.48	14909.21
910.65	14937.88
910.82	14968.60
910.99	14823.20
911.16	14735.14
911.33	14747.42
911.50	14878.49
911.66	14663.46
911.83	14677.79
912.00	14786.33
912.17	14681.89
912.34	14907.16
912.51	14747.42
912.68	14401.32
912.85	14444.32
913.02	14655.26
913.19	14569.25
913.36	14749.47
913.53	14778.14
913.70	14565.15
913.86	14647.07
914.03	14405.41
914.20	14503.71
914.37	14516.00
914.54	14444.32
914.71	14403.36
914.88	14362.40
915.05	14520.10
915.22	14196.52
915.39	14452.52
915.55	14309.16
915.72	14395.17
915.89	14337.83
916.06	14008.11
916.23	13868.84
916.40	14085.93
916.57	13872.94
916.74	13989.67
916.91	13946.67
917.07	13846.32
917.24	13717.29
917.41	13768.49
917.58	13795.12
917.75	13428.53
917.92	13459.25
918.09	13705.01
918.26	13580.08
918.42	13567.79
918.59	13590.32
918.76	13541.17
918.93	13483.83
919.10	13342.52
919.27	13487.92
919.44	13496.11
919.60	13111.10
919.77	13420.34
919.94	13012.79
920.11	13158.20
920.28	13035.32
920.45	13049.66
920.61	12848.96
920.78	12896.06
920.95	12939.07
921.12	13102.90
921.29	12668.73
921.46	12558.14
921.62	12650.30
921.79	12799.80
921.96	12799.80
922.13	12711.74
922.30	12631.87
922.47	12480.32
922.63	12304.20
922.80	12584.77
922.97	12357.44
923.14	12072.78
923.31	12496.71
923.47	12281.67
923.64	12515.14
923.81	12412.74
923.98	11888.46
924.15	12103.50
924.32	12146.50
924.48	12156.74
924.65	12027.72
924.82	11980.62
924.99	11818.83
925.15	11700.05
925.32	11900.75
925.49	11646.80
925.66	11741.00
925.83	11743.05
925.99	11788.11
926.16	11585.36
926.33	11654.99
926.50	11429.71
926.67	11693.90
926.83	11464.53
927.00	11267.92
927.17	11241.30
927.34	11190.10
927.50	11020.12
927.67	11106.13
927.84	11067.22
928.01	10921.82
928.17	10979.16
928.34	10913.63
928.51	10882.91
928.68	10600.29
928.84	10968.92
929.01	10553.18
929.18	10653.53
929.35	10542.94
929.51	10555.23
929.68	10487.65
929.85	10432.35
930.02	10391.39
930.18	10526.56
930.35	10401.63
930.52	10397.54
930.69	10215.27
930.85	10254.18
931.02	10104.68
931.19	10211.17
931.36	10106.73
931.52	10045.29
931.69	10102.63
931.86	10035.05
932.02	9906.02
932.19	9789.29
932.36	9879.40
932.53	9695.08
932.69	9695.08
932.86	9815.91
933.03	9666.41
933.19	9588.59
933.36	9465.71
933.53	9662.32
933.70	9455.47
933.86	9537.39
934.03	9398.13
934.20	9160.56
934.36	9527.15
934.53	9131.89
934.70	8974.20
934.86	9176.95
935.03	8785.79
935.20	9039.73
935.36	8959.86
935.53	8841.08
935.70	8847.22
935.86	8806.27
936.03	8437.63
936.20	8433.54
936.36	8343.42
936.53	8257.41
936.70	8353.66
936.86	8419.20
937.03	8181.64
937.20	8066.95
937.36	8212.35
937.53	7915.40
937.70	7899.02
937.86	7794.57
938.03	7794.57
938.20	7769.99
938.36	7464.85
938.53	7688.07
938.70	7298.96
938.86	7462.80
939.03	7081.88
939.20	7270.29
939.36	7151.51
939.53	7022.48
939.70	7339.92
939.86	6860.70
940.03	6789.02
940.19	6676.38
940.36	6739.87
940.53	6602.65
940.69	6578.08
940.86	6447.01
941.03	6510.49
941.19	6246.30
941.36	6332.32
941.52	6270.88
941.69	6111.14
941.86	6174.63
942.02	6115.23
942.19	6035.36
942.35	6064.04
942.52	5863.33
942.69	5930.92
942.85	5877.67
943.02	5840.81
943.18	5697.45
943.35	5689.26
943.52	5625.77
943.68	5640.11
943.85	5642.15
944.01	5525.42
944.18	5484.46
944.35	5521.32
944.51	5392.30
944.68	5205.94
944.84	5394.35
945.01	5263.28
945.17	5371.82
945.34	5345.20
945.51	5363.63
945.67	5187.50
945.84	5355.44
946.00	5205.94
946.17	5218.22
946.33	5363.63
946.50	5230.51
946.67	5212.08
946.83	5271.47
947.00	5257.14
947.16	5261.23
947.33	5162.93
947.49	5146.55
947.66	5038.00
947.82	5197.74
947.99	5177.26
948.16	5185.46
948.32	5158.83
948.49	5210.03
948.65	5291.95
948.82	5117.87
948.98	5076.91
949.15	5136.31
949.31	5214.13
949.48	5212.08
949.64	5216.18
949.81	5210.03
949.97	5066.67
950.14	5310.38
950.30	5232.56
950.47	5265.33
950.63	5081.01
950.80	5066.67
950.96	5242.80
951.13	5224.37
951.30	5181.36
951.46	5250.99
951.63	5345.20
951.79	5152.69
951.96	5314.48
952.12	5337.01
952.29	5283.76
952.45	5246.90
952.62	5287.86
952.78	5316.53
952.94	5224.37
953.11	5259.18
953.27	5121.97
953.44	5308.34
953.60	5283.76
953.77	5191.60
953.93	5451.69
954.10	5238.70
954.26	5244.85
954.43	5201.84
954.59	5353.39
954.76	5189.55
954.92	5302.19
955.09	5250.99
955.25	5242.80
955.42	5146.55
955.58	5377.97
955.75	5302.19
955.91	5341.10
956.07	5359.53
956.24	5322.67
956.40	5287.86
956.57	5373.87
956.73	5271.47
956.90	5314.48
957.06	5255.09
957.23	5326.77
957.39	5236.66
957.56	5435.31
957.72	5294.00
957.88	5291.95
958.05	5386.16
958.21	5537.71
958.38	5228.46
958.54	5337.01
958.71	5349.29
958.87	5132.21
959.03	5308.34
959.20	5294.00
959.36	5205.94
959.53	5365.68
959.69	5226.42
959.85	5308.34
960.02	5171.12
960.18	5357.49
960.35	5203.89
960.51	5351.34
960.68	5259.18
960.84	5267.38
961.00	5199.79
961.17	5197.74
961.33	5365.68
961.50	5353.39
961.66	5345.20
961.82	5113.78
961.99	5359.53
962.15	5181.36
962.31	5171.12
962.48	5195.70
962.64	5277.62
962.81	5203.89
962.97	5261.23
963.13	5193.65
963.30	5250.99
963.46	5185.46
963.62	5384.11
963.79	5277.62
963.95	5291.95
964.12	5095.35
964.28	5281.71
964.44	5160.88
964.61	5150.64
964.77	5218.22
964.93	5210.03
965.10	5234.61
965.26	5154.74
965.42	5259.18
965.59	5171.12
965.75	5099.44
965.92	5193.65
966.08	5152.69
966.24	5185.46
966.41	5226.42
966.57	5140.40
966.73	5056.43
966.90	5232.56
967.06	5124.02
967.22	4984.76
967.39	5124.02
967.55	4999.09
967.71	5085.11
967.88	5050.29
968.04	4943.80
968.20	5003.19
968.37	4990.90
968.53	4882.36
968.69	4999.09
968.85	5130.16
969.02	5103.54
969.18	4870.07
969.34	4851.64
969.51	5060.53
969.67	5038.00
969.83	4884.41
970.00	4839.35
970.16	4954.04
970.32	4890.55
970.48	5078.96
970.65	4902.84
970.81	4884.41
970.97	4970.42
971.14	4767.67
971.30	5052.34
971.46	4868.02
971.63	4878.26
971.79	4892.60
971.95	4884.41
972.11	4745.14
972.28	4790.20
972.44	4882.36
972.60	4720.57
972.76	4835.25
972.93	4714.42
973.09	4796.34
973.25	4782.01
973.42	4792.25
973.58	4792.25
973.74	4802.49
973.90	4831.16
974.07	4777.91
974.23	4587.45
974.39	4624.31
974.55	4648.89
974.72	4612.03
974.88	4530.11
975.04	4698.04
975.20	4640.70
975.37	4724.66
975.53	4579.26
975.69	4724.66
975.85	4603.83
976.01	4558.78
976.18	4614.07
976.34	4628.41
976.50	4700.09
976.66	4655.03
976.83	4640.70
976.99	4599.74
977.15	4534.20
977.31	4417.47
977.47	4618.17
977.64	4501.44
977.80	4450.24
977.96	4435.90
978.12	4511.68
978.29	4376.51
978.45	4253.63
978.61	4358.08
978.77	4460.48
978.93	4415.42
979.10	4499.39
979.26	4456.38
979.42	4360.13
979.58	4220.86
979.74	4360.13
979.91	4327.36
980.07	4435.90
980.23	4245.44
980.39	4382.65
980.55	4321.21
980.71	4313.02
980.88	4270.01
981.04	4315.07
981.20	4243.39
981.36	4235.20
981.52	4214.72
981.68	4140.99
981.85	4272.06
982.01	4253.63
982.17	4212.67
982.33	4243.39
982.49	4241.34
982.65	4157.38
982.82	4184.00
982.98	4132.80
983.14	4149.18
983.30	4190.14
983.46	4212.67
983.62	4040.64
983.79	4147.14
983.95	4108.23
984.11	3944.39
984.27	4016.07
984.43	4030.40
984.59	4034.50
984.75	4126.66
984.91	4069.31
985.08	4038.59
985.24	3977.16
985.40	3895.24
985.56	4009.92
985.72	4042.69
985.88	4052.93
986.04	3977.16
986.20	3897.28
986.37	3891.14
986.53	3923.91
986.69	3897.28
986.85	3772.36
987.01	3950.53
987.17	3911.62
987.33	3899.33
987.49	3796.93
987.65	3882.95
987.82	3831.75
987.98	3717.06
988.14	3821.51
988.30	3856.33
988.46	3803.08
988.62	3858.37
988.78	3891.14
988.94	3737.54
989.10	3876.80
989.26	3770.31
989.42	3778.50
989.59	3688.39
989.75	3655.62
989.91	3780.55
990.07	3659.72
990.23	3657.67
990.39	3674.06
990.55	3909.57
990.71	3708.87
990.87	3639.24
991.03	3678.15
991.19	3635.14
991.35	3657.67
991.51	3737.54
991.67	3731.40
991.83	3665.86
992.00	3684.30
992.16	3725.26
992.32	3731.40
992.48	3622.86
992.64	3452.88
992.80	3655.62
992.96	3495.88
993.12	3534.79
993.28	3551.18
993.44	3469.26
993.60	3547.08
993.76	3598.28
993.92	3682.25
994.08	3637.19
994.24	3569.61
994.40	3475.40
994.56	3620.81
994.72	3370.96
994.88	3405.77
995.04	3526.60
995.20	3473.36
995.36	3344.33
995.52	3409.87
995.68	3514.31
995.84	3321.81
996.00	3547.08
996.16	3366.86
996.32	3366.86
996.48	3489.74
996.64	3461.07
996.80	3436.49
996.96	3354.57
997.12	3254.22
997.28	3362.76
997.44	3323.85
997.60	3248.08
997.76	3366.86
997.92	3330.00
998.08	3330.00
998.24	3119.06
998.40	3264.46
998.56	3401.68
998.72	3151.82
998.88	3194.83
999.04	3391.44
999.20	3356.62
999.36	3172.30
999.52	3332.05
999.68	3336.14
999.84	3207.12
1000.00	3231.69
1000.16	3293.13
1000.32	3121.10
1000.48	3327.95
1000.64	3246.03
1000.80	3241.93
1000.95	3098.58
1001.11	3250.13
1001.27	3100.62
1001.43	3196.88
1001.59	3112.91
1001.75	3047.38
1001.91	3119.06
1002.07	3112.91
1002.23	3065.81
1002.39	3100.62
1002.55	3008.47
1002.71	3065.81
1002.87	3047.38
1003.03	2969.55
1003.19	2953.17
1003.34	3090.38
1003.50	2969.55
1003.66	3055.57
1003.82	3063.76
1003.98	2936.79
1004.14	2957.27
1004.30	3010.51
1004.46	2951.12
1004.62	2877.40
1004.78	2920.40
1004.94	2908.12
1005.09	2998.23
1005.25	3012.56
1005.41	2959.31
1005.57	2961.36
1005.73	2877.40
1005.89	2901.97
1006.05	2906.07
1006.21	2959.31
1006.37	2826.20
1006.52	2815.96
1006.68	2824.15
1006.84	2971.60
1007.00	2924.50
1007.16	2912.21
1007.32	2891.73
1007.48	2867.16
1007.64	2934.74
1007.79	2795.48
1007.95	2756.57
1008.11	2904.02
1008.27	2811.86
1008.43	2811.86
1008.59	2709.46
1008.75	2881.49
1008.91	2826.20
1009.06	2717.65
1009.22	2721.75
1009.38	2811.86
1009.54	2793.43
1009.70	2729.94
1009.86	2832.34
1010.01	2797.53
1010.17	2707.41
1010.33	2869.20
1010.49	2707.41
1010.65	2854.87
1010.81	2713.56
1010.96	2688.98
1011.12	2656.22
1011.28	2607.06
1011.44	2736.09
1011.60	2605.02
1011.76	2633.69
1011.91	2686.94
1012.07	2621.40
1012.23	2584.54
1012.39	2539.48
1012.55	2625.50
1012.71	2621.40
1012.86	2541.53
1013.02	2598.87
1013.18	2531.29
1013.34	2639.83
1013.50	2650.07
1013.65	2615.26
1013.81	2586.58
1013.97	2478.04
1014.13	2588.63
1014.29	2623.45
1014.44	2574.30
1014.60	2551.77
1014.76	2559.96
1014.92	2602.97
1015.07	2578.39
1015.23	2514.91
1015.39	2467.80
1015.55	2451.42
1015.71	2553.82
1015.86	2486.23
1016.02	2480.09
1016.18	2482.14
1016.34	2473.95
1016.49	2490.33
1016.65	2523.10
1016.81	2459.61
1016.97	2445.27
1017.12	2605.02
1017.28	2342.88
1017.44	2244.57
1017.60	2377.69
1017.75	2496.47
1017.91	2453.47
1018.07	2459.61
1018.23	2475.99
1018.38	2312.16
1018.54	2389.98
1018.70	2457.56
1018.86	2379.74
1019.01	2277.34
1019.17	2342.88
1019.33	2441.18
1019.49	2398.17
1019.64	2385.88
1019.80	2353.12
1019.96	2342.88
1020.12	2400.22
1020.27	2293.72
1020.43	2355.16
1020.59	2357.21
1020.74	2402.27
1020.90	2406.36
1021.06	2303.96
1021.22	2365.40
1021.37	2297.82
1021.53	2273.25
1021.69	2312.16
1021.84	2244.57
1022.00	2314.20
1022.16	2310.11
1022.31	2238.43
1022.47	2394.08
1022.63	2394.08
1022.79	2213.85
1022.94	2306.01
1023.10	2363.36
1023.26	2299.87
1023.41	2291.68
1023.57	2316.25
1023.73	2240.48
1023.88	2326.49
1024.04	2158.56
1024.20	2156.51
1024.35	2179.04
1024.51	2326.49
1024.67	2277.34
1024.82	2281.44
1024.98	2115.55
1025.14	2258.91
1025.29	2174.94
1025.45	2220.00
1025.61	2148.32
1025.76	2148.32
1025.92	2213.85
1026.08	2240.48
1026.23	2265.05
1026.39	2205.66
1026.55	2082.78
1026.70	2109.41
1026.86	2176.99
1027.02	2215.90
1027.17	2205.66
1027.33	2189.28
1027.48	2080.74
1027.64	2138.08
1027.80	2107.36
1027.95	2136.03
1028.11	2007.01
1028.27	2117.60
1028.42	2189.28
1028.58	2107.36
1028.73	2101.22
1028.89	2045.92
1029.05	2191.33
1029.20	2183.13
>>>>>End Processed Spectral Data<<<<<
