SpectraSuite Data File
++++++++++++++++++++++++++++++++++++
Date: Fri Jun 02 14:51:11 CEST 2017
User: INFO_000
Dark Spectrum Present: No
Reference Spectrum Present: No
Number of Sampled Component Spectra: 1
Spectrometers: USB4H00879
Integration Time (usec): 80000 (USB4H00879)
Spectra Averaged: 1 (USB4H00879)
Boxcar Smoothing: 0 (USB4H00879)
Correct for Electrical Dark: No (USB4H00879)
Strobe/Lamp Enabled: No (USB4H00879)
Correct for Detector Non-linearity: No (USB4H00879)
Correct for Stray Light: No (USB4H00879)
Number of Pixels in Processed Spectrum: 3648
>>>>>Begin Processed Spectral Data<<<<<
345.13	1329.13
345.34	1329.13
345.56	1329.13
345.78	1290.22
345.99	1275.88
346.21	1716.20
346.42	1728.49
346.64	1632.23
346.86	1759.21
347.07	1632.23
347.29	1687.53
347.50	1519.59
347.72	1753.06
347.94	1806.31
348.15	1554.41
348.37	1636.33
348.59	1802.21
348.80	1630.18
349.02	1806.31
349.23	1855.46
349.45	1798.12
349.67	1869.80
349.88	1734.63
350.10	2015.20
350.31	1984.48
350.53	1781.73
350.75	1912.80
350.96	1765.35
351.18	1849.32
351.39	1787.88
351.61	1777.64
351.82	1853.41
352.04	1916.90
352.26	1773.54
352.47	1904.61
352.69	1931.23
352.90	1796.07
353.12	1867.75
353.34	1861.60
353.55	1867.75
353.77	1855.46
353.98	1871.84
354.20	1927.14
354.41	1933.28
354.63	1984.48
354.85	1990.63
355.06	1828.84
355.28	1757.16
355.49	1923.04
355.71	1929.19
355.92	1890.28
356.14	1959.91
356.35	1884.13
356.57	1834.98
356.79	1847.27
357.00	1861.60
357.22	2013.15
357.43	1886.18
357.65	1955.81
357.86	1777.64
358.08	1882.08
358.29	1986.53
358.51	1996.77
358.72	1939.43
358.94	1855.46
359.16	1992.67
359.37	1980.39
359.59	1959.91
359.80	1986.53
360.02	1929.19
360.23	1982.43
360.45	1937.38
360.66	1964.00
360.88	1832.93
361.09	1990.63
361.31	2086.88
361.52	1947.62
361.74	2074.59
361.95	2064.35
362.17	1978.34
362.38	2043.87
362.60	2031.58
362.81	2011.11
363.03	1925.09
363.24	2017.25
363.46	2023.39
363.67	2004.96
363.89	2009.06
364.10	1974.24
364.32	1972.19
364.53	2097.12
364.75	1873.89
364.96	1990.63
365.18	1976.29
365.39	1953.76
365.61	2017.25
365.82	2101.22
366.04	1998.82
366.25	1888.23
366.47	2068.45
366.68	2035.68
366.90	1980.39
367.11	2084.83
367.33	2068.45
367.54	1994.72
367.76	1990.63
367.97	2121.70
368.19	1968.10
368.40	2019.30
368.62	1970.15
368.83	1994.72
369.05	2082.78
369.26	2068.45
369.48	1996.77
369.69	2037.73
369.91	2070.50
370.12	1998.82
370.33	2123.74
370.55	2013.15
370.76	2025.44
370.98	2047.97
371.19	2041.82
371.41	2099.17
371.62	2017.25
371.84	2027.49
372.05	2129.89
372.27	2050.02
372.48	2119.65
372.69	2129.89
372.91	2191.33
373.12	2199.52
373.34	2070.50
373.55	2129.89
373.77	2074.59
373.98	2133.98
374.20	2172.89
374.41	2187.23
374.62	2179.04
374.84	2162.66
375.05	2199.52
375.27	2121.70
375.48	2154.46
375.70	2146.27
375.91	2148.32
376.12	2250.72
376.34	2179.04
376.55	2162.66
376.77	2211.81
376.98	2166.75
377.19	2142.18
377.41	2211.81
377.62	2170.85
377.84	2226.14
378.05	2277.34
378.27	2203.61
378.48	2246.62
378.69	2283.49
378.91	2363.36
379.12	2213.85
379.34	2183.13
379.55	2324.44
379.76	2320.35
379.98	2220.00
380.19	2256.86
380.41	2220.00
380.62	2314.20
380.83	2314.20
381.05	2222.05
381.26	2455.51
381.47	2269.15
381.69	2273.25
381.90	2353.12
382.12	2297.82
382.33	2297.82
382.54	2283.49
382.76	2318.30
382.97	2383.84
383.19	2281.44
383.40	2281.44
383.61	2349.02
383.83	2213.85
384.04	2338.78
384.25	2379.74
384.47	2451.42
384.68	2336.73
384.89	2291.68
385.11	2230.24
385.32	2340.83
385.54	2383.84
385.75	2342.88
385.96	2418.65
386.18	2336.73
386.39	2394.08
386.60	2377.69
386.82	2473.95
387.03	2394.08
387.24	2484.19
387.46	2418.65
387.67	2459.61
387.88	2541.53
388.10	2355.16
388.31	2426.84
388.52	2498.52
388.74	2424.80
388.95	2469.85
389.16	2531.29
389.38	2467.80
389.59	2549.72
389.80	2512.86
390.02	2582.49
390.23	2568.15
390.44	2535.39
390.66	2609.11
390.87	2422.75
391.08	2576.34
391.30	2715.61
391.51	2637.78
391.72	2582.49
391.94	2664.41
392.15	2559.96
392.36	2619.35
392.58	2572.25
392.79	2717.65
393.00	2607.06
393.22	2738.13
393.43	2748.37
393.64	2734.04
393.85	2797.53
394.07	2709.46
394.28	2756.57
394.49	2777.05
394.71	2762.71
394.92	2822.10
395.13	2729.94
395.35	2676.70
395.56	2740.18
395.77	2803.67
395.98	2764.76
396.20	2766.81
396.41	2863.06
396.62	2871.25
396.84	2793.43
397.05	2772.95
397.26	2928.60
397.47	2985.94
397.69	2826.20
397.90	3012.56
398.11	2990.03
398.32	2836.44
398.54	2863.06
398.75	2840.53
398.96	2934.74
399.18	3092.43
399.39	2899.92
399.60	3008.47
399.81	2938.84
400.03	2928.60
400.24	3223.50
400.45	2969.55
400.66	3014.61
400.88	3028.95
401.09	3258.32
401.30	2985.94
401.51	3067.86
401.73	3127.25
401.94	3114.96
402.15	3164.11
402.36	3149.78
402.58	3174.35
402.79	3033.04
403.00	3219.41
403.21	3182.54
403.43	3123.15
403.64	3233.74
403.85	3096.53
404.06	3182.54
404.27	3065.81
404.49	3237.84
404.70	3002.32
404.91	3215.31
405.12	3145.68
405.34	3153.87
405.55	3510.22
405.76	3119.06
405.97	3198.93
406.19	3416.01
406.40	3301.33
406.61	3334.09
406.82	3317.71
407.03	3258.32
407.25	3180.50
407.46	3405.77
407.67	3336.14
407.88	3452.88
408.09	3354.57
408.31	3317.71
408.52	3323.85
408.73	3235.79
408.94	3325.90
409.15	3514.31
409.37	3456.97
409.58	3461.07
409.79	3559.37
410.00	3379.15
410.21	3364.81
410.43	3430.35
410.64	3338.19
410.85	3532.75
411.06	3452.88
411.27	3631.05
411.48	3602.38
411.70	3639.24
411.91	3549.13
412.12	3571.66
412.33	3532.75
412.54	3469.26
412.76	3657.67
412.97	3563.47
413.18	3596.23
413.39	3590.09
413.60	3590.09
413.81	3661.77
414.03	3536.84
414.24	3678.15
414.45	3788.74
414.66	3559.37
414.87	3790.79
415.08	3530.70
415.30	3637.19
415.51	3661.77
415.72	3729.35
415.93	3758.02
416.14	3856.33
416.35	3803.08
416.56	3846.09
416.78	3772.36
416.99	3749.83
417.20	3872.71
417.41	3784.65
417.62	3934.15
417.83	3907.52
418.04	3786.69
418.26	3917.76
418.47	3827.65
418.68	4011.97
418.89	3964.87
419.10	4128.70
419.31	3979.20
419.52	3960.77
419.73	3964.87
419.95	3995.59
420.16	4022.21
420.37	4040.64
420.58	4057.03
420.79	3915.72
421.00	4050.88
421.21	4073.41
421.42	4046.79
421.63	4124.61
421.85	4089.79
422.06	4186.05
422.27	4206.53
422.48	4102.08
422.69	4261.82
422.90	4196.29
423.11	4202.43
423.32	4378.56
423.53	4507.58
423.75	4253.63
423.96	4421.56
424.17	4290.49
424.38	4540.35
424.59	4308.93
424.80	4396.99
425.01	4407.23
425.22	4390.84
425.43	4384.70
425.64	4521.92
425.85	4620.22
426.06	4589.50
426.28	4558.78
426.49	4487.10
426.70	4483.00
426.91	4538.30
427.12	4681.66
427.33	4685.75
427.54	4546.49
427.75	4749.24
427.96	4724.66
428.17	4812.73
428.38	4767.67
428.59	4755.38
428.80	4747.19
429.01	4876.21
429.23	4900.79
429.44	4851.64
429.65	4925.36
429.86	4810.68
430.07	4767.67
430.28	4827.06
430.49	5031.86
430.70	5074.87
430.91	4919.22
431.12	4980.66
431.33	5150.64
431.54	5121.97
431.75	5038.00
431.96	4980.66
432.17	5103.54
432.38	5058.48
432.59	5302.19
432.80	5386.16
433.01	5234.61
433.22	5320.62
433.43	5255.09
433.64	5242.80
433.85	5144.50
434.06	5435.31
434.27	5279.66
434.49	5240.75
434.70	5478.32
434.91	5449.64
435.12	5459.88
435.33	5441.45
435.54	5521.32
435.75	5242.80
435.96	5373.87
436.17	5238.70
436.38	5603.24
436.59	5621.67
436.80	5345.20
437.01	5822.38
437.22	5758.89
437.43	5666.73
437.64	5443.50
437.85	5670.83
438.06	5816.23
438.27	5580.71
438.48	5633.96
438.69	5871.53
438.90	5707.69
439.11	5623.72
439.32	5783.46
439.53	5826.47
439.74	5746.60
439.95	5722.02
440.16	5732.26
440.37	5875.62
440.57	5769.13
440.78	5951.40
440.99	5783.46
441.20	5914.53
441.41	5664.68
441.62	5990.31
441.83	5775.27
442.04	6057.89
442.25	5986.21
442.46	5943.21
442.67	6133.67
442.88	6487.96
443.09	5799.85
443.30	6023.08
443.51	6264.74
443.72	6350.75
443.93	6156.19
444.14	6358.94
444.35	6121.38
444.56	6176.67
444.77	6256.54
444.98	6320.03
445.19	6252.45
445.40	6385.57
445.61	6340.51
445.81	6399.90
446.02	6451.10
446.23	6516.64
446.44	6240.16
446.65	6518.68
446.86	6600.60
447.07	6514.59
447.28	6684.57
447.49	6592.41
447.70	6518.68
447.91	6576.03
448.12	6619.04
448.33	6879.13
448.54	6789.02
448.74	6522.78
448.95	6754.20
449.16	6748.06
449.37	6881.18
449.58	6705.05
449.79	6977.43
450.00	6719.39
450.21	6766.49
450.42	6909.85
450.63	6940.57
450.84	6932.37
451.05	6963.09
451.25	6932.37
451.46	6975.38
451.67	7210.90
451.88	7196.56
452.09	7118.74
452.30	7114.64
452.51	7102.36
452.72	7276.43
452.93	7470.99
453.13	7159.70
453.34	7143.32
453.55	7378.83
453.76	7315.34
453.97	7620.49
454.18	7442.32
454.39	7522.19
454.60	7278.48
454.81	7522.19
455.01	7700.36
455.22	7520.14
455.43	7563.15
455.64	7841.67
455.85	7767.95
456.06	7745.42
456.27	7702.41
456.48	7741.32
456.68	7681.93
456.89	7710.60
457.10	8034.18
457.31	7882.63
457.52	7935.88
457.73	7974.79
457.94	8198.02
458.14	7931.78
458.35	8318.85
458.56	8238.98
458.77	8044.42
458.98	8294.27
459.19	8286.08
459.39	8228.74
459.60	8423.30
459.81	8370.05
460.02	8601.47
460.23	8505.21
460.44	8767.35
460.65	8683.39
460.85	8605.56
461.06	8642.43
461.27	8509.31
461.48	8683.39
461.69	8961.91
461.89	8499.07
462.10	8863.61
462.31	8750.97
462.52	8759.16
462.73	8916.86
462.94	9011.06
463.14	9043.83
463.35	9031.54
463.56	9512.81
463.77	9254.77
463.98	9105.27
464.18	9340.79
464.39	9502.58
464.60	9693.04
464.81	9510.77
465.02	9396.08
465.23	9744.24
465.43	9631.60
465.64	9781.10
465.85	9820.01
466.06	9707.37
466.27	10020.71
466.47	9985.90
466.68	9975.66
466.89	10024.81
467.10	10026.86
467.30	9785.19
467.51	9979.75
467.72	10291.04
467.93	9891.69
468.14	10334.05
468.34	10411.87
468.55	10327.91
468.76	10514.27
468.97	10192.74
469.17	10561.37
469.38	10878.81
469.59	10866.52
469.80	10569.57
470.01	10676.06
470.21	10831.71
470.42	11007.83
470.63	11106.13
470.84	10880.86
471.04	11196.25
471.25	11278.16
471.46	11292.50
471.67	11487.06
471.87	11411.28
472.08	11532.11
472.29	11593.55
472.50	11317.08
472.70	11605.84
472.91	11724.62
473.12	11867.98
473.33	11906.89
473.53	12171.08
473.74	11736.91
473.95	12244.81
474.16	12306.24
474.36	12291.91
474.57	12482.37
474.78	12443.46
474.99	12363.59
475.19	12228.42
475.40	12668.73
475.61	12834.62
475.81	12932.92
476.02	12967.74
476.23	13098.81
476.44	13211.45
476.64	13387.57
476.85	13371.19
477.06	13233.97
477.27	13547.31
477.47	13641.52
477.68	13733.68
477.89	13786.93
478.09	13702.96
478.30	13834.03
478.51	14081.83
478.71	14016.30
478.92	14278.44
479.13	14155.56
479.34	14329.64
479.54	14612.26
479.75	14624.54
479.96	14464.80
480.16	14563.11
480.37	14726.94
480.58	14628.64
480.78	15206.17
480.99	15005.47
481.20	15372.05
481.41	15288.09
481.61	15458.07
481.82	15443.73
482.03	15511.32
482.23	15685.39
482.44	16008.97
482.65	16078.60
482.85	15818.51
483.06	15900.43
483.27	16097.03
483.47	16125.71
483.68	16176.91
483.89	16285.45
484.09	16277.26
484.30	16557.83
484.51	16662.27
484.71	16869.12
484.92	16629.51
485.13	16748.29
485.33	17016.57
485.54	17047.29
485.75	17164.03
485.95	17319.67
486.16	17403.64
486.37	17600.24
486.57	17510.13
486.78	17626.87
486.98	17614.58
487.19	17536.76
487.40	18114.28
487.60	17936.11
487.81	18208.49
488.02	17897.20
488.22	17911.53
488.43	18423.53
488.64	18224.87
488.84	18636.52
489.05	18570.98
489.25	18409.19
489.46	18759.39
489.67	18847.46
489.87	18986.72
490.08	19013.34
490.29	18943.71
490.49	19592.92
490.70	19400.41
490.90	19322.59
491.11	19261.15
491.32	19633.88
491.52	19619.54
491.73	19662.55
491.94	19771.09
492.14	19769.04
492.35	19896.02
492.55	19990.22
492.76	20319.95
492.97	20145.87
493.17	20231.88
493.38	20477.64
493.58	20487.88
493.79	20645.57
494.00	20573.89
494.20	20776.64
494.41	20991.68
494.61	20901.57
494.82	21231.29
495.02	21028.54
495.23	21216.96
495.44	21335.74
495.64	21262.01
495.85	21468.86
496.05	21569.21
496.26	21624.50
496.47	21616.31
496.67	21544.63
496.88	21948.08
497.08	21888.69
497.29	21862.07
497.49	21874.35
497.70	22036.14
497.91	22400.68
498.11	22632.10
498.32	22269.61
498.52	22564.52
498.73	22677.16
498.93	22116.01
499.14	22656.68
499.34	22744.74
499.55	23019.17
499.76	22765.22
499.96	22843.04
500.17	22734.50
500.37	23107.23
500.58	22820.52
500.78	23148.19
500.99	23039.65
501.19	23533.21
501.40	23453.34
501.60	23621.27
501.81	23660.18
502.02	23670.42
502.22	23695.00
502.43	23836.31
502.63	23850.64
502.84	23955.09
503.04	24372.88
503.25	24213.13
503.45	23897.75
503.66	24501.90
503.86	24172.18
504.07	24637.06
504.27	24233.61
504.48	24428.17
504.68	24692.36
504.89	24764.04
505.09	24753.80
505.30	24690.31
505.50	24483.47
505.71	24780.42
505.91	25239.17
506.12	25194.11
506.32	25159.30
506.53	25050.75
506.73	25489.02
506.94	25292.41
507.14	25233.02
507.35	25183.87
507.55	25407.10
507.76	25648.76
507.96	25400.96
508.17	25523.83
508.37	25480.83
508.58	25589.37
508.78	25810.55
508.99	25974.39
509.19	26099.31
509.40	26001.01
509.60	25593.47
509.81	25970.29
510.01	26005.11
510.22	26052.21
510.42	26095.22
510.63	26453.61
510.83	26257.01
511.04	26158.70
511.24	26328.69
511.44	26375.79
511.65	26510.96
511.85	26599.02
512.06	26736.23
512.26	26723.94
512.47	26852.97
512.67	26580.59
512.88	26988.13
513.08	26738.28
513.29	27045.48
513.49	27004.52
513.69	27168.35
513.90	27293.28
514.10	26957.41
514.31	27106.91
514.51	27313.76
514.72	27354.72
514.92	27549.28
515.13	27332.19
515.33	27410.01
515.53	27489.88
515.74	27764.31
515.94	27563.61
516.15	27758.17
516.35	27463.26
516.56	27858.52
516.76	27575.90
516.96	28114.52
517.17	28304.98
517.37	28165.71
517.58	27969.11
517.78	28259.92
517.99	28169.81
518.19	28501.58
518.39	28522.06
518.60	28831.30
518.80	28493.39
519.01	28890.70
519.21	28636.75
519.41	28565.07
519.62	28577.36
519.82	28776.01
520.03	28960.33
520.23	29130.31
520.43	29032.00
520.64	29333.06
520.84	29570.62
521.05	29130.31
521.25	29304.38
521.45	29427.26
521.66	29644.35
521.86	29371.97
522.07	29699.64
522.27	29394.50
522.47	29554.24
522.68	29869.62
522.88	29789.75
523.08	30076.47
523.29	30170.68
523.49	30209.59
523.70	30567.98
523.90	30303.79
524.10	30334.51
524.31	30893.61
524.51	30357.04
524.71	30916.14
524.92	30524.97
525.12	30961.19
525.33	30764.59
525.53	30930.47
525.73	31073.83
525.94	31178.28
526.14	31180.32
526.34	31190.56
526.55	31292.96
526.75	31452.70
526.95	31553.05
527.16	31288.87
527.36	31854.11
527.56	31931.93
527.77	32046.62
527.97	32278.04
528.17	31743.52
528.38	32108.05
528.58	32294.42
528.78	32468.50
528.99	32415.25
529.19	32335.38
529.39	32249.36
529.60	32415.25
529.80	32368.15
530.00	32785.93
530.21	33222.15
530.41	32912.91
530.61	32814.60
530.82	33023.50
531.02	33168.90
531.22	33134.09
531.43	33156.61
531.63	33535.49
531.83	33859.07
532.04	34100.73
532.24	33353.22
532.44	33854.97
532.64	33850.88
532.85	33986.04
533.05	34180.60
533.25	34180.60
533.46	34473.46
533.66	34633.20
533.86	34422.26
534.07	34780.65
534.27	34326.00
534.47	34811.37
534.67	35376.61
534.88	34778.61
535.08	34991.59
535.28	34862.57
535.49	35313.13
535.69	35415.52
535.89	35464.67
536.09	35581.41
536.30	35870.17
536.50	35646.94
536.70	35925.47
536.91	35880.41
537.11	35892.70
537.31	35757.53
537.51	35915.23
537.72	36230.62
537.92	36419.03
538.12	36775.37
538.32	36519.38
538.53	36732.37
538.73	36431.32
538.93	36689.36
539.13	36847.05
539.34	36871.63
539.54	36750.80
539.74	36767.18
539.94	36627.92
540.15	37064.14
540.35	37402.05
540.55	36984.27
540.75	37266.89
540.96	37344.71
541.16	37420.48
541.36	37219.78
541.56	37656.00
541.77	37823.93
541.97	37713.34
542.17	38016.44
542.37	37522.88
542.58	37879.23
542.78	37529.03
542.98	38161.85
543.18	38139.32
543.38	38675.89
543.59	38544.82
543.79	38157.75
543.99	38364.60
544.19	38862.26
544.40	38432.18
544.60	38780.34
544.80	39122.35
545.00	38761.90
545.20	39202.22
545.41	38704.56
545.61	38596.02
545.81	39103.92
546.01	39009.71
546.21	39257.51
546.42	39155.11
546.62	39239.08
546.82	38944.17
547.02	39318.95
547.22	39490.98
547.43	39699.87
547.63	39728.55
547.83	40029.60
548.03	39699.87
548.23	40080.80
548.44	40336.79
548.64	39714.21
548.84	39873.95
549.04	39929.25
549.24	40025.50
549.45	40594.84
549.65	40121.76
549.85	40306.07
550.05	40371.61
550.25	40154.52
550.45	40543.64
550.66	40629.65
550.86	40201.63
551.06	40930.70
551.26	40670.61
551.46	40797.59
551.66	40517.01
551.87	40754.58
552.07	40871.31
552.27	40482.20
552.47	40930.70
552.67	41371.02
552.87	41031.05
553.07	41424.26
553.28	41395.59
553.48	41014.67
553.68	41164.17
553.88	41608.58
554.08	41366.92
554.28	41606.53
554.48	41328.01
554.69	41743.75
554.89	41624.96
555.09	41545.09
555.29	41407.88
555.49	41616.77
555.69	41653.64
555.89	42149.24
556.10	42044.80
556.30	41747.84
556.50	41827.71
556.70	41821.57
556.90	42163.58
557.10	42335.61
557.30	41684.36
557.50	42595.70
557.70	41938.30
557.91	42542.45
558.11	42249.60
558.31	42372.47
558.51	42044.80
558.71	42607.99
558.91	42507.64
559.11	42493.30
559.31	42104.19
559.51	42521.98
559.72	42290.55
559.92	42882.42
560.12	42354.04
560.32	42812.79
560.52	42382.71
560.72	42718.58
560.92	42845.55
561.12	43097.45
561.32	43144.56
561.52	42759.54
561.72	43306.35
561.93	42775.92
562.13	42900.85
562.33	42956.14
562.53	43689.32
562.73	42788.21
562.93	43007.34
563.13	43580.78
563.33	43359.59
563.53	43142.51
563.73	43140.46
563.93	43535.72
564.13	43636.07
564.33	43603.30
564.53	43380.07
564.74	43621.73
564.94	43631.97
565.14	43185.52
565.34	43400.55
565.54	43629.93
565.74	43806.05
565.94	44189.02
566.14	43654.50
566.34	43769.19
566.54	44498.26
566.74	43486.57
566.94	43820.39
567.14	44467.55
567.34	43818.34
567.54	43918.69
567.74	43521.38
567.94	44420.44
568.14	44201.31
568.34	44342.62
568.54	44496.22
568.74	44537.18
568.94	44045.66
569.14	44571.99
569.34	44557.66
569.54	44619.10
569.75	44223.84
569.95	44508.50
570.15	44957.01
570.35	44682.58
570.55	44660.05
570.75	44653.91
570.95	44459.35
571.15	44817.75
571.35	44662.10
571.55	45092.18
571.75	44641.62
571.95	44901.71
572.15	44825.94
572.35	45372.75
572.55	45249.87
572.75	45157.71
572.95	45354.32
573.15	45370.70
573.35	45153.62
573.55	45161.81
573.75	45288.78
573.95	45503.82
574.15	45268.30
574.35	45374.80
574.55	45544.78
574.75	45604.17
574.95	45747.53
575.15	45606.22
575.34	46013.76
575.54	45907.27
575.74	45788.49
575.94	46009.67
576.14	46026.05
576.34	46005.57
576.54	46155.07
576.74	46177.60
576.94	46144.83
577.14	46585.15
577.34	46310.72
577.54	45811.01
577.74	46552.38
577.94	46280.00
578.14	46562.62
578.34	46531.90
578.54	45976.90
578.74	46277.95
578.94	46746.93
579.14	46691.64
579.34	46712.12
579.54	46675.26
579.74	47136.05
579.94	47074.61
580.13	47086.90
580.33	47326.51
580.53	46767.41
580.73	47371.57
580.93	47224.11
581.13	47273.26
581.33	47430.96
581.53	47750.44
581.73	47359.28
581.93	47617.32
582.13	47357.23
582.33	47359.28
582.53	47467.82
582.73	47471.92
582.92	47660.33
583.12	48278.82
583.32	47727.91
583.52	47650.09
583.72	48200.99
583.92	47424.81
584.12	48184.61
584.32	48524.57
584.52	47994.15
584.72	47916.32
584.92	47818.02
585.11	48241.95
585.31	48266.53
585.51	48837.91
585.71	48061.73
585.91	48938.26
586.11	48635.16
586.31	48639.26
586.51	48923.93
586.71	48524.57
586.91	48819.48
587.10	48495.90
587.30	48960.79
587.50	48854.29
587.70	48960.79
587.90	48846.10
588.10	48850.20
588.30	48866.58
588.50	49216.78
588.69	49059.09
588.89	48680.22
589.09	49630.47
589.29	49186.07
589.49	49767.69
589.69	49153.30
589.89	49437.97
590.08	49315.09
590.28	49585.42
590.48	49583.37
590.68	49562.89
590.88	49583.37
591.08	49540.36
591.28	49173.78
591.47	49915.14
591.67	49822.98
591.87	49687.82
592.07	49829.13
592.27	49747.21
592.47	49610.00
592.67	49820.94
592.86	50021.64
593.06	50208.00
593.26	50269.44
593.46	50269.44
593.66	50334.98
593.86	50078.98
594.05	50533.63
594.25	50599.16
594.45	49956.10
594.65	50423.04
594.85	50011.40
595.05	50521.34
595.24	50611.45
595.44	50889.98
595.64	50742.52
595.84	50312.45
596.04	50930.93
596.23	50928.89
596.43	50906.36
596.63	50844.92
596.83	51035.38
597.03	51234.03
597.22	51586.28
597.42	50965.75
597.62	51291.38
597.82	51434.74
598.02	51379.44
598.21	51766.51
598.41	50930.93
598.61	51322.10
598.81	51268.85
599.01	51856.62
599.20	51401.97
599.40	51395.82
599.60	51619.05
599.80	51512.56
600.00	51715.31
600.19	51959.02
600.39	51533.04
600.59	51977.45
600.79	51901.67
600.98	51995.88
601.18	52094.18
601.38	52284.64
601.58	52532.45
601.78	52311.27
601.97	52319.46
602.17	52843.74
602.37	52532.45
602.57	52270.31
602.76	52759.77
602.96	52446.43
603.16	52571.36
603.36	52788.44
603.55	53093.59
603.75	52827.35
603.95	53558.48
604.15	53003.48
604.34	52925.66
604.54	52972.76
604.74	53103.83
604.94	53159.12
605.13	53253.33
605.33	53497.04
605.53	53357.78
605.73	53759.18
605.92	53316.82
606.12	53722.32
606.32	53816.52
606.52	53802.19
606.71	53697.74
606.91	53484.75
607.11	53243.09
607.30	53681.36
607.50	53392.59
607.70	53695.69
607.90	53839.05
608.09	53544.14
608.29	53990.60
608.49	53617.87
608.68	53976.26
608.88	54162.63
609.08	53609.68
609.28	53765.32
609.47	53884.11
609.67	54068.42
609.87	54054.09
610.06	54379.71
610.26	54291.65
610.46	54006.98
610.66	53832.91
610.85	53892.30
611.05	53861.58
611.25	54271.17
611.44	54488.26
611.64	54766.78
611.84	54041.80
612.03	54152.39
612.23	54652.09
612.43	54355.14
612.62	54119.62
612.82	54789.31
613.02	54334.66
613.21	54803.64
613.41	54348.99
613.61	54828.22
613.80	54158.53
614.00	54531.26
614.20	54449.35
614.39	54269.12
614.59	54854.84
614.79	54410.43
614.98	54695.10
615.18	54582.46
615.38	55049.40
615.57	54656.19
615.77	54678.72
615.97	55108.79
616.16	54277.32
616.36	54428.87
616.56	55088.31
616.75	55006.39
616.95	54932.67
617.15	54891.71
617.34	54910.14
617.54	54994.10
617.74	55125.17
617.93	54729.92
618.13	54686.91
618.32	54785.21
618.52	54543.55
618.72	54838.46
618.91	54643.90
619.11	54285.51
619.31	54670.53
619.50	54965.43
619.70	54508.74
619.90	54721.72
620.09	54568.13
620.29	54938.81
620.48	54944.95
620.68	55092.41
620.88	54365.38
621.07	54994.10
621.27	54617.28
621.46	54693.05
621.66	54899.90
621.86	54709.44
622.05	55010.49
622.25	55194.81
622.44	54564.03
622.64	54658.24
622.84	55137.46
623.03	54947.00
623.23	54932.67
623.42	54342.85
623.62	54709.44
623.82	55254.20
624.01	54903.99
624.21	55325.88
624.40	54938.81
624.60	54576.32
624.80	54518.98
624.99	54670.53
625.19	54394.05
625.38	54879.42
625.58	54840.51
625.77	54957.24
625.97	54928.57
626.17	54400.19
626.36	54604.99
626.56	54551.74
626.75	54457.54
626.95	55114.94
627.14	54607.04
627.34	54914.23
627.54	54678.72
627.73	54918.33
627.93	54867.13
628.12	54740.16
628.32	54678.72
628.51	54990.01
628.71	54668.48
628.90	54713.53
629.10	54396.10
629.30	54846.65
629.49	54891.71
629.69	54748.35
629.88	54949.05
630.08	54871.23
630.27	55305.40
630.47	55112.89
630.66	54537.41
630.86	54957.24
631.05	54670.53
631.25	55456.95
631.44	55291.06
631.64	54740.16
631.84	55002.30
632.03	55579.82
632.23	55252.15
632.42	55090.36
632.62	54865.08
632.81	54801.60
633.01	54916.28
633.20	55317.68
633.40	55112.89
633.59	54990.01
633.79	55020.73
633.98	55090.36
634.18	55620.78
634.37	55415.99
634.57	54992.06
634.76	55350.45
634.96	55170.23
635.15	55747.76
635.35	55055.54
635.54	54541.50
635.74	55209.14
635.93	54940.86
636.13	55733.42
636.32	55442.61
636.52	54826.17
636.71	55522.48
636.91	55116.98
637.10	55268.53
637.30	55141.56
637.49	55250.10
637.69	55596.21
637.88	55489.71
638.08	54799.55
638.27	55366.84
638.46	55076.02
638.66	54940.86
638.85	55420.08
639.05	55813.29
639.24	55506.10
639.44	55198.90
639.63	55424.18
639.83	55633.07
640.02	55592.11
640.22	55479.47
640.41	55725.23
640.61	55168.18
640.80	55491.76
640.99	55047.35
641.19	56226.98
641.38	55190.71
641.58	55577.78
641.77	55751.85
641.97	55760.05
642.16	55522.48
642.36	55538.86
642.55	55801.00
642.74	55372.98
642.94	56261.80
643.13	55581.87
643.33	55551.15
643.52	56272.04
643.72	55895.21
643.91	55645.36
644.10	55608.50
644.30	56286.37
644.49	55633.07
644.69	56347.81
644.88	56480.93
645.08	55739.57
645.27	55528.62
645.46	55682.22
645.66	55729.33
645.85	55327.92
646.05	55985.32
646.24	56251.56
646.43	55827.63
646.63	55907.50
646.82	56360.10
647.02	56202.41
647.21	56272.04
647.40	55856.30
647.60	56378.53
647.79	56327.33
647.99	56069.29
648.18	56104.10
648.37	56888.48
648.57	56493.22
648.76	56186.02
648.96	56003.75
649.15	56530.08
649.34	56040.62
649.54	56237.22
649.73	56145.06
649.92	56904.86
650.12	56374.44
650.31	56339.62
650.51	56364.20
650.70	56585.38
650.89	56499.36
651.09	57091.22
651.28	56882.33
651.47	56603.81
651.67	56231.08
651.86	56708.25
652.06	55876.78
652.25	56331.43
652.44	56286.37
652.64	56884.38
652.83	56491.17
653.02	56183.97
653.22	56908.96
653.41	56280.23
653.60	56478.88
653.80	56423.59
653.99	56861.85
654.18	56552.61
654.38	56493.22
654.57	56392.87
654.76	56614.05
654.96	56548.51
655.15	56706.21
655.34	56800.41
655.54	56157.35
655.73	56431.78
655.92	56814.75
656.12	56439.97
656.31	57105.56
656.50	56591.52
656.70	56675.49
656.89	56951.96
657.08	57070.75
657.28	56462.50
657.47	56882.33
657.66	56853.66
657.86	56622.24
658.05	56874.14
658.24	57021.59
658.43	56347.81
658.63	57076.89
658.82	56874.14
659.01	56908.96
659.21	56759.45
659.40	57033.88
659.59	56186.02
659.79	57160.86
659.98	56886.43
660.17	56749.21
660.36	56843.42
660.56	57013.40
660.75	57099.42
660.94	56886.43
661.14	57025.69
661.33	56749.21
661.52	56499.36
661.71	57373.84
661.91	57048.22
662.10	56804.51
662.29	57025.69
662.49	57089.18
662.68	56970.39
662.87	57414.80
663.06	56937.63
663.26	56882.33
663.45	57691.28
663.64	57300.12
663.83	57345.17
664.03	57263.25
664.22	57322.65
664.41	56841.37
664.60	56779.93
664.80	57400.47
664.99	56769.69
665.18	57674.90
665.37	56960.15
665.57	57666.70
665.76	56702.11
665.95	57037.98
666.14	56779.93
666.34	57210.01
666.53	56908.96
666.72	57035.93
666.91	56958.11
667.11	56603.81
667.30	56843.42
667.49	56863.90
667.68	57115.80
667.87	56886.43
668.07	57080.98
668.26	56968.35
668.45	57212.06
668.64	57130.14
668.84	57488.53
669.03	57205.91
669.22	56915.10
669.41	57359.51
669.60	57222.29
669.80	56896.67
669.99	57439.38
670.18	56759.45
670.37	57113.75
670.57	56943.77
670.76	57080.98
670.95	56966.30
671.14	57066.65
671.33	56843.42
671.53	57504.91
671.72	57183.38
671.91	56931.48
672.10	56845.47
672.29	57080.98
672.48	56728.73
672.68	57285.78
672.87	57040.03
673.06	56732.83
673.25	56863.90
673.44	56562.85
673.64	56769.69
673.83	56886.43
674.02	56448.16
674.21	56655.01
674.40	56620.19
674.59	56548.51
674.79	56419.49
674.98	56358.05
675.17	56882.33
675.36	56353.96
675.55	56689.82
675.74	56435.87
675.94	56612.00
676.13	56802.46
676.32	56655.01
676.51	57420.95
676.70	56970.39
676.89	56734.88
677.08	57138.33
677.28	56620.19
677.47	56868.00
677.66	57242.77
677.85	56784.03
678.04	56599.71
678.23	57046.17
678.42	56784.03
678.62	56376.48
678.81	57195.67
679.00	56509.60
679.19	57431.19
679.38	56820.89
679.57	56702.11
679.76	57007.26
679.96	57250.97
680.15	56898.72
680.34	57011.35
680.53	56325.28
680.72	57154.71
680.91	56849.56
681.10	56622.24
681.29	56550.56
681.48	57078.94
681.68	56296.61
681.87	56579.23
682.06	56501.41
682.25	56229.03
682.44	56839.32
682.63	56929.44
682.82	56233.13
683.01	56337.57
683.20	56030.38
683.39	56808.61
683.59	56075.43
683.78	56091.82
683.97	56140.97
684.16	56282.28
684.35	56016.04
684.54	56075.43
684.73	56480.93
684.92	55598.26
685.11	56038.57
685.30	55710.89
685.49	56296.61
685.69	56480.93
685.88	56214.69
686.07	55927.98
686.26	56087.72
686.45	56382.63
686.64	55807.15
686.83	55868.59
687.02	56407.20
687.21	56306.85
687.40	55805.10
687.59	56034.47
687.78	55911.59
687.97	56310.95
688.16	55753.90
688.35	55618.74
688.54	55839.92
688.74	56110.25
688.93	55774.38
689.12	55778.48
689.31	55751.85
689.50	56044.71
689.69	55514.29
689.88	55084.22
690.07	55751.85
690.26	55655.60
690.45	56138.92
690.64	55542.96
690.83	55450.80
691.02	55243.96
691.21	55282.87
691.40	55506.10
691.59	55479.47
691.78	55708.85
691.97	56181.93
692.16	55334.07
692.35	55506.10
692.54	55393.46
692.73	55813.29
692.92	55006.39
693.11	55301.30
693.30	55520.43
693.49	55375.03
693.68	55264.44
693.87	55211.19
694.06	55116.98
694.25	54949.05
694.44	54967.48
694.63	55219.38
694.82	55145.65
695.01	55133.37
695.20	55037.11
695.39	55098.55
695.58	55129.27
695.77	54797.50
695.96	54623.42
696.15	55055.54
696.34	55065.78
696.53	54903.99
696.72	55614.64
696.91	54922.43
697.10	55129.27
697.29	54625.47
697.48	55426.23
697.67	54611.13
697.86	54625.47
698.05	54822.08
698.24	54928.57
698.43	54465.73
698.62	55135.41
698.81	54473.92
699.00	55129.27
699.19	54213.83
699.38	54858.94
699.57	53888.20
699.76	54985.91
699.95	54437.06
700.14	54301.89
700.32	54443.20
700.51	54572.22
700.70	54721.72
700.89	54478.02
701.08	54742.20
701.27	53916.87
701.46	54688.96
701.65	53671.12
701.84	53912.78
702.03	54576.32
702.22	54142.15
702.41	54441.15
702.60	54355.14
702.79	54353.09
702.98	53937.35
703.17	54197.44
703.35	53925.07
703.54	53640.40
703.73	54342.85
703.92	53939.40
704.11	53734.60
704.30	53880.01
704.49	53642.45
704.68	53699.79
704.87	53716.17
705.06	53939.40
705.25	53456.08
705.43	53542.10
705.62	53499.09
705.81	53337.30
706.00	53638.35
706.19	52954.33
706.38	53583.05
706.57	53558.48
706.76	53394.64
706.95	53290.19
707.14	53193.94
707.32	53734.60
707.51	52913.37
707.70	53370.07
707.89	53273.81
708.08	53093.59
708.27	53402.83
708.46	53400.79
708.65	53241.04
708.84	53081.30
709.02	53120.21
709.21	53007.58
709.40	53509.33
709.59	53228.76
709.78	52454.62
709.97	53138.65
710.16	52552.93
710.34	53140.69
710.53	53044.44
710.72	52765.91
710.91	52737.24
711.10	52540.64
711.29	52696.28
711.48	52579.55
711.66	52563.17
711.85	52284.64
712.04	52591.84
712.23	52839.64
712.42	52554.97
712.61	52606.17
712.80	52239.59
712.98	52602.08
713.17	52169.96
713.36	52538.59
713.55	52552.93
713.74	52491.49
713.93	52792.54
714.11	52387.04
714.30	52022.50
714.49	51877.10
714.68	52554.97
714.87	52425.95
715.06	52325.60
715.24	52235.49
715.43	51875.05
715.62	51596.52
715.81	51774.70
716.00	52124.90
716.18	51592.43
716.37	51371.25
716.56	51516.65
716.75	51741.93
716.94	51543.28
717.12	51713.26
717.31	52131.04
717.50	51928.30
717.69	51725.55
717.88	51541.23
718.06	51717.35
718.25	51946.73
718.44	51336.43
718.63	51287.28
718.82	51258.61
719.00	51033.33
719.19	51248.37
719.38	51156.21
719.57	50865.40
719.76	50459.90
719.94	50840.82
720.13	50990.33
720.32	50599.16
720.51	50750.71
720.69	50527.48
720.88	50779.39
721.07	50355.46
721.26	50601.21
721.44	50656.51
721.63	50070.79
721.82	49890.57
722.01	49894.66
722.20	50091.27
722.38	50160.90
722.57	49616.14
722.76	50185.47
722.95	49980.68
723.13	49599.76
723.32	49896.71
723.51	49401.10
723.70	49763.59
723.88	49507.60
724.07	49724.68
724.26	49620.23
724.44	48956.69
724.63	49775.88
724.82	50013.44
725.01	49386.77
725.19	49566.99
725.38	49562.89
725.57	49224.98
725.76	49478.92
725.94	49159.44
726.13	49184.02
726.32	49091.86
726.51	48968.98
726.69	49378.57
726.88	49009.94
727.07	48887.06
727.25	49104.15
727.44	49394.96
727.63	48889.11
727.82	49102.10
728.00	49149.20
728.19	48465.18
728.38	49124.63
728.56	48944.41
728.75	49059.09
728.94	48997.65
729.12	49190.16
729.31	48586.01
729.50	49028.37
729.69	49466.64
729.87	49089.81
730.06	48958.74
730.25	48905.49
730.43	49306.90
730.62	48198.94
730.81	49259.79
730.99	49130.77
731.18	49095.95
731.37	48772.38
731.55	49161.49
731.74	48981.27
731.93	49034.52
732.11	48506.14
732.30	49196.31
732.49	48637.21
732.67	48606.49
732.86	48362.78
733.05	49122.58
733.23	48510.24
733.42	49038.61
733.61	48192.80
733.79	48985.36
733.98	49059.09
734.17	49032.47
734.35	48518.43
734.54	48471.32
734.73	49009.94
734.91	48502.04
735.10	48747.80
735.29	48772.38
735.47	48282.91
735.66	48735.51
735.84	48835.86
736.03	48381.21
736.22	48715.03
736.40	48483.61
736.59	48348.45
736.78	48289.06
736.96	48074.02
737.15	47877.41
737.33	48393.50
737.52	48252.19
737.71	48172.32
737.89	48108.83
738.08	47977.76
738.27	48041.25
738.45	48133.41
738.64	48323.87
738.82	48217.38
739.01	47742.25
739.20	48018.72
739.38	48184.61
739.57	48172.32
739.75	47838.50
739.94	48317.73
740.13	48018.72
740.31	47484.20
740.50	47795.49
740.68	48092.45
740.87	47813.93
741.06	47834.41
741.24	47654.18
741.43	47363.37
741.61	47527.21
741.80	47781.16
741.99	47527.21
742.17	47740.20
742.36	47990.05
742.54	47662.38
742.73	47549.74
742.91	48063.78
743.10	47418.67
743.29	47496.49
743.47	47418.67
743.66	47506.73
743.84	47306.03
744.03	47588.65
744.21	47256.88
744.40	47562.03
744.59	46933.30
744.77	47310.13
744.96	46921.01
745.14	47344.94
745.33	47164.72
745.51	47203.63
745.70	47338.80
745.88	46867.76
746.07	47414.57
746.26	46677.30
746.44	46976.31
746.63	46937.40
746.81	47289.65
747.00	47052.08
747.18	46871.86
747.37	46609.72
747.55	46918.96
747.74	46847.29
747.92	46466.36
748.11	46736.69
748.29	46576.95
748.48	46579.00
748.66	46542.14
748.85	46144.83
749.03	46519.61
749.22	46417.21
749.41	46370.11
749.59	46208.32
749.78	45894.98
749.96	46142.78
750.15	46404.92
750.33	46552.38
750.52	46320.96
750.70	46404.92
750.89	46089.54
751.07	45745.48
751.26	46138.69
751.44	45899.08
751.63	45983.04
751.81	45843.78
752.00	45548.87
752.18	45907.27
752.37	45962.56
752.55	45350.22
752.74	45737.29
752.92	45686.09
753.10	45548.87
753.29	45489.48
753.47	45737.29
753.66	45251.92
753.84	45696.33
754.03	45182.29
754.21	45057.36
754.40	45352.27
754.58	45485.39
754.77	45178.19
754.95	45256.01
755.14	45405.52
755.32	45393.23
755.51	44922.19
755.69	44932.43
755.88	44881.24
756.06	45280.59
756.24	45122.90
756.43	44803.41
756.61	44834.13
756.80	45126.99
756.98	45079.89
757.17	44930.39
757.35	44825.94
757.54	44619.10
757.72	44789.08
757.90	44787.03
758.09	44426.59
758.27	44684.63
758.46	44871.00
758.64	44338.52
758.83	44504.41
759.01	44498.26
759.19	44406.11
759.38	44512.60
759.56	44373.34
759.75	44584.28
759.93	44313.95
760.12	44526.94
760.30	44189.02
760.48	44326.24
760.67	44004.70
760.85	44543.32
761.04	44260.70
761.22	44557.66
761.40	44412.25
761.59	43896.16
761.77	43806.05
761.96	43681.13
762.14	43959.65
762.32	43713.89
762.51	43836.77
762.69	43783.52
762.88	43617.64
763.06	43820.39
763.24	43507.05
763.43	43916.64
763.61	43660.65
763.80	43406.70
763.98	43449.70
764.16	43322.73
764.35	42937.71
764.53	43269.48
764.72	43318.64
764.90	43365.74
765.08	43642.21
765.27	43439.47
765.45	42857.84
765.63	43119.98
765.82	43533.67
766.00	42806.64
766.18	42706.29
766.37	43418.99
766.55	43079.02
766.74	42906.99
766.92	42894.71
767.10	42730.87
767.29	42614.13
767.47	42202.49
767.65	43269.48
767.84	42331.51
768.02	42960.24
768.20	42259.84
768.39	42485.11
768.57	42440.06
768.75	42515.83
768.94	42425.72
769.12	42343.80
769.30	42126.72
769.49	42237.31
769.67	41796.99
769.85	41835.91
770.04	41923.97
770.22	42009.98
770.40	41739.65
770.59	41854.34
770.77	42177.92
770.95	42069.37
771.14	41620.87
771.32	41264.52
771.50	41526.66
771.69	41534.85
771.87	41848.19
772.05	41495.94
772.24	41250.19
772.42	41434.50
772.60	41530.76
772.78	41145.74
772.97	40885.65
773.15	41465.22
773.33	41098.64
773.52	41203.08
773.70	41074.06
773.88	41282.95
774.07	40994.19
774.25	41100.68
774.43	41090.44
774.61	41702.79
774.80	41098.64
774.98	41117.07
775.16	41244.04
775.34	41434.50
775.53	41434.50
775.71	41401.74
775.89	41366.92
776.08	41100.68
776.26	41522.57
776.44	41549.19
776.62	41315.72
776.81	40949.14
776.99	41487.75
777.17	41403.78
777.35	41522.57
777.54	41473.42
777.72	41192.84
777.90	41463.18
778.08	41704.84
778.27	41192.84
778.45	41811.33
778.63	42276.22
778.81	41235.85
779.00	42165.63
779.18	41901.44
779.36	41923.97
779.54	41495.94
779.73	41538.95
779.91	41954.69
780.09	41624.96
780.27	41825.67
780.46	42165.63
780.64	42163.58
780.82	41969.02
781.00	41833.86
781.19	42341.75
781.37	41975.17
781.55	41907.58
781.73	42220.92
781.91	41706.88
782.10	41975.17
782.28	41723.27
782.46	42282.36
782.64	42202.49
782.82	41954.69
783.01	42290.55
783.19	42270.08
783.37	41993.60
783.55	42128.77
783.74	42452.34
783.92	42108.29
784.10	42331.51
784.28	42235.26
784.46	41860.48
784.64	42136.96
784.83	42384.76
785.01	42532.22
785.19	42362.23
785.37	42255.74
785.55	42251.64
785.74	41878.91
785.92	41876.86
786.10	42161.53
786.28	42005.89
786.46	41727.36
786.64	41477.51
786.83	42028.41
787.01	41989.50
787.19	41913.73
787.37	41930.11
787.55	41770.37
787.74	41981.31
787.92	41434.50
788.10	41465.22
788.28	41385.35
788.46	41420.17
788.64	41426.31
788.82	41917.82
789.01	41528.71
789.19	41901.44
789.37	41033.10
789.55	41371.02
789.73	41358.73
789.91	41225.61
790.09	41301.39
790.28	40992.14
790.46	40779.15
790.64	41145.74
790.82	41010.57
791.00	41084.30
791.18	40531.35
791.36	40859.02
791.55	41172.36
791.73	40211.87
791.91	40338.84
792.09	40115.61
792.27	40269.21
792.45	40160.67
792.63	40447.38
792.81	40271.26
793.00	39751.07
793.18	40191.39
793.36	39632.29
793.54	39923.10
793.72	39591.33
793.90	39781.79
794.08	39857.57
794.26	39658.91
794.44	39509.41
794.62	39167.40
794.81	39439.78
794.99	39169.45
795.17	39402.92
795.35	38786.48
795.53	39452.07
795.71	39065.00
795.89	38751.66
796.07	38806.96
796.25	38593.97
796.43	38270.39
796.61	38346.17
796.80	38274.49
796.98	38585.78
797.16	38045.12
797.34	38071.74
797.52	38038.97
797.70	38223.29
797.88	37881.28
798.06	37623.23
798.24	37776.83
798.42	37832.13
798.60	38000.06
798.78	37512.64
798.96	37526.98
799.14	37516.74
799.32	37811.65
799.51	37111.24
799.69	37313.99
799.87	37375.43
800.05	36599.25
800.23	37043.66
800.41	37021.13
800.59	36742.61
800.77	36437.46
800.95	36404.69
801.13	36691.41
801.31	36548.05
801.49	36560.34
801.67	36158.94
801.85	36412.88
802.03	36087.26
802.21	35829.21
802.39	36107.74
802.57	35769.82
802.75	35864.03
802.93	36058.59
803.11	35829.21
803.29	35493.35
803.47	35788.25
803.65	35362.28
803.83	35515.87
804.01	35390.95
804.19	34981.35
804.37	34829.80
804.55	35112.42
804.73	34995.69
804.91	34782.70
805.09	35030.51
805.27	34831.85
805.45	34977.26
805.63	35067.37
805.81	35057.13
805.99	34893.29
806.17	34588.14
806.35	34618.86
806.53	34659.82
806.71	34166.26
806.89	34395.64
807.07	34080.25
807.25	34264.57
807.43	34293.24
807.61	34403.83
807.79	33932.79
807.97	33420.80
808.15	33775.10
808.33	33340.93
808.51	33662.46
808.69	33670.65
808.87	33322.50
809.05	32755.21
809.23	33396.23
809.41	33134.09
809.59	33082.89
809.77	33281.54
809.95	33191.43
810.13	33447.43
810.31	32960.01
810.49	32869.90
810.67	32871.95
810.84	32695.82
811.02	32841.23
811.20	32562.70
811.38	32671.25
811.56	32247.32
811.74	32673.29
811.92	32749.07
812.10	32398.87
812.28	32540.18
812.46	32529.94
812.64	32523.79
812.82	32237.08
813.00	32261.65
813.18	31751.71
813.36	31979.03
813.53	31694.36
813.71	31927.83
813.89	31725.08
814.07	31968.79
814.25	31974.94
814.43	31585.82
814.61	31630.88
814.79	31661.60
814.97	31428.13
815.15	31202.85
815.33	31307.30
815.50	31096.36
815.68	31417.89
815.86	31176.23
816.04	31213.09
816.22	31036.97
816.40	31139.36
816.58	30869.03
816.76	30590.51
816.94	30840.36
817.11	30897.70
817.29	30666.28
817.47	30363.18
817.65	30305.84
817.83	30662.19
818.01	30725.68
818.19	30361.14
818.37	30504.49
818.54	30160.44
818.72	30379.57
818.90	30688.81
819.08	30123.57
819.26	30139.96
819.44	30029.37
819.62	29951.54
819.80	30248.50
819.97	30053.94
820.15	30197.30
820.33	29660.73
820.51	30002.74
820.69	29648.44
820.87	29601.34
821.05	29609.53
821.22	29296.19
821.40	29414.98
821.58	29230.66
821.76	29244.99
821.94	29589.05
822.12	29658.68
822.29	29408.83
822.47	29273.67
822.65	29568.57
822.83	29177.41
823.01	29195.84
823.19	29384.26
823.36	28866.12
823.54	29189.70
823.72	28853.83
823.90	28831.30
824.08	28468.81
824.25	28825.16
824.43	28956.23
824.61	28534.35
824.79	28669.51
824.97	28268.11
825.15	28677.71
825.32	28780.10
825.50	28386.89
825.68	28702.28
825.86	28665.42
826.04	28417.61
826.21	28335.70
826.39	28616.27
826.57	28223.06
826.75	28010.07
826.93	28098.13
827.10	28055.12
827.28	28063.32
827.46	28264.02
827.64	28079.70
827.81	27565.66
827.99	27899.48
828.17	27995.73
828.35	27737.69
828.53	28018.26
828.70	27620.95
828.88	27711.07
829.06	27854.42
829.24	28126.80
829.41	27602.52
829.59	27829.85
829.77	28163.67
829.95	27678.30
830.12	27324.00
830.30	27276.90
830.48	27508.32
830.66	27285.09
830.84	27534.94
831.01	27117.15
831.19	27285.09
831.37	27319.90
831.55	26963.56
831.72	27043.43
831.90	27051.62
832.08	27313.76
832.25	27289.18
832.43	27465.31
832.61	26863.21
832.79	27014.76
832.96	27053.67
833.14	26984.04
833.32	27094.63
833.50	26988.13
833.67	26990.18
833.85	26758.76
834.03	26547.82
834.20	26789.48
834.38	26988.13
834.56	26947.17
834.74	26289.77
834.91	26705.51
835.09	26496.62
835.27	26125.94
835.44	26351.21
835.62	26027.63
835.80	26064.50
835.98	26412.65
836.15	26406.51
836.33	26308.21
836.51	26179.18
836.68	26136.18
836.86	26140.27
837.04	26209.90
837.21	26234.48
837.39	26158.70
837.57	26330.73
837.75	26150.51
837.92	25677.43
838.10	25798.26
838.28	25599.61
838.45	25736.82
838.63	25501.31
838.81	25818.74
838.98	25593.47
839.16	25734.78
839.34	25747.06
839.51	25591.42
839.69	25257.60
839.87	25218.69
840.04	25634.42
840.22	25564.79
840.40	25300.61
840.57	25392.76
840.75	25265.79
840.93	25097.86
841.10	25378.43
841.28	25628.28
841.46	25065.09
841.63	25550.46
841.81	25267.84
841.98	25136.77
842.16	25065.09
842.34	25288.32
842.51	24991.36
842.69	25280.13
842.87	25210.50
843.04	25140.86
843.22	24247.95
843.40	24766.09
843.57	24276.62
843.75	24802.95
843.92	24757.89
844.10	24897.16
844.28	24649.35
844.45	24800.90
844.63	24647.30
844.81	24704.65
844.98	24589.96
845.16	24702.60
845.33	24628.87
845.51	24534.67
845.69	24665.74
845.86	24479.37
846.04	24348.30
846.21	24551.05
846.39	24241.81
846.57	24276.62
846.74	24350.35
846.92	24010.39
847.09	24350.35
847.27	24004.24
847.45	24448.65
847.62	24090.26
847.80	24002.19
847.97	23873.17
848.15	24159.89
848.32	23858.84
848.50	24082.06
848.68	23469.72
848.85	23781.01
849.03	23735.96
849.20	23967.38
849.38	23621.27
849.56	23920.28
849.73	23613.08
849.91	23645.85
850.08	24022.67
850.26	23621.27
850.43	23707.29
850.61	23723.67
850.78	23326.36
850.96	23430.81
851.14	23254.69
851.31	23439.00
851.49	23555.74
851.66	23639.70
851.84	23248.54
852.01	23551.64
852.19	23285.40
852.36	23246.49
852.54	23045.79
852.71	23127.71
852.89	23183.01
853.07	23135.90
853.24	23187.10
853.42	23209.63
853.59	23064.22
853.77	23420.57
853.94	23293.60
854.12	23142.05
854.29	22769.32
854.47	23156.38
854.64	22939.30
854.82	22759.08
854.99	22836.90
855.17	23000.74
855.34	22709.93
855.52	22793.89
855.69	22865.57
855.87	22519.46
856.04	22615.72
856.22	22709.93
856.39	22541.99
856.57	22697.64
856.74	22404.78
856.92	22687.40
857.09	22453.93
857.27	22509.22
857.44	22501.03
857.62	22585.00
857.79	22558.38
857.97	22662.82
858.14	22435.50
858.32	22189.74
858.49	22068.91
858.67	22177.45
858.84	22197.93
859.02	22355.63
859.19	22240.94
859.37	22050.48
859.54	21802.68
859.72	22296.24
859.89	22040.24
860.06	22087.34
860.24	22025.90
860.41	21943.99
860.59	21733.04
860.76	21606.07
860.94	22058.67
861.11	22134.45
861.29	21735.09
861.46	21962.42
861.64	21577.40
861.81	21937.84
861.98	21538.49
862.16	21395.13
862.33	21249.72
862.51	21356.22
862.68	21905.07
862.86	21370.55
863.03	21821.11
863.21	21446.33
863.38	21763.76
863.55	21456.57
863.73	21434.04
863.90	21644.98
864.08	21145.28
864.25	21393.08
864.43	21341.88
864.60	21046.97
864.77	21069.50
864.95	21429.94
865.12	20932.29
865.30	21165.76
865.47	20899.52
865.64	21032.64
865.82	20879.04
865.99	21188.28
866.17	20741.83
866.34	21053.12
866.51	20819.65
866.69	20915.90
866.86	20891.33
867.04	20805.31
867.21	20885.19
867.38	20684.48
867.56	20778.69
867.73	20797.12
867.91	20328.14
868.08	20801.22
868.25	20432.58
868.43	20344.52
868.60	20307.66
868.78	20426.44
868.95	20391.62
869.12	20328.14
869.30	20086.48
869.47	20270.79
869.64	19973.84
869.82	20086.48
869.99	19965.65
870.16	20508.36
870.34	20270.79
870.51	20362.95
870.69	20197.07
870.86	20088.53
871.03	20102.86
871.21	20049.61
871.38	20195.02
871.55	19736.27
871.73	19723.99
871.90	19783.38
872.07	19885.78
872.25	19445.46
872.42	19836.63
872.59	19650.26
872.77	19777.23
872.94	19597.01
873.11	19457.75
873.29	19723.99
873.46	19461.85
873.63	19439.32
873.81	19492.57
873.98	19166.94
874.15	19265.24
874.33	19007.20
874.50	18915.04
874.67	19134.17
874.85	19062.49
875.02	19044.06
875.19	19001.05
875.37	18917.09
875.54	18835.17
875.71	18912.99
875.88	18712.29
876.06	18788.07
876.23	18855.65
876.40	18622.18
876.58	18441.96
876.75	18910.94
876.92	18280.17
877.10	18663.14
877.27	18677.48
877.44	18562.79
877.61	18429.67
877.79	18263.79
877.96	18450.15
878.13	18347.75
878.31	18448.10
878.48	18149.10
878.65	18112.24
878.82	17946.35
879.00	18110.19
879.17	18048.75
879.34	18265.83
879.51	18013.93
879.69	18024.17
879.86	17921.77
880.03	17972.97
880.21	17952.49
880.38	18081.52
880.55	17735.41
880.72	17874.67
880.90	17733.36
881.07	17901.29
881.24	17866.48
881.41	17995.50
881.59	17594.10
881.76	17641.20
881.93	17770.22
882.10	17659.63
882.28	17448.69
882.45	17790.70
882.62	17544.95
882.79	17620.72
882.96	17391.35
883.14	17618.68
883.31	17553.14
883.48	17207.03
883.65	17379.06
883.83	17493.75
884.00	17542.90
884.17	17544.95
884.34	17686.26
884.51	17436.41
884.69	17055.48
884.86	16969.47
885.03	17192.70
885.20	17004.28
885.38	17454.84
885.55	17094.40
885.72	16787.20
885.89	16944.89
886.06	16895.74
886.24	17137.40
886.41	16707.33
886.58	17219.32
886.75	17055.48
886.92	17057.53
887.10	17006.33
887.27	16621.31
887.44	16877.31
887.61	16959.23
887.78	17135.35
887.95	16961.28
888.13	16883.45
888.30	16781.06
888.47	16699.14
888.64	16842.50
888.81	16619.27
888.99	16697.09
889.16	16539.40
889.33	16508.68
889.50	16434.95
889.67	16506.63
889.84	16617.22
890.01	16641.79
890.19	16310.02
890.36	16563.97
890.53	16285.45
890.70	16209.67
890.87	16488.20
891.04	16365.32
891.22	16484.10
891.39	16353.03
891.56	16178.95
891.73	16131.85
891.90	16144.14
892.07	15931.15
892.24	15963.92
892.42	16027.40
892.59	16181.00
892.76	16090.89
892.93	16049.93
893.10	15775.50
893.27	15855.37
893.44	15728.40
893.61	15879.95
893.79	15779.60
893.96	16049.93
894.13	15922.96
894.30	15838.99
894.47	15822.61
894.64	15978.25
894.81	15988.49
894.98	15896.33
895.15	16023.31
895.33	15800.08
895.50	15890.19
895.67	16051.98
895.84	15669.01
896.01	15679.25
896.18	15699.73
896.35	15892.24
896.52	15507.22
896.69	15513.36
896.86	15824.65
897.04	15691.54
897.21	15677.20
897.38	15679.25
897.55	15660.82
897.72	15617.81
897.89	15572.75
898.06	15582.99
898.23	15757.07
898.40	15576.85
898.57	15843.09
898.74	15687.44
898.91	15507.22
899.08	15777.55
899.26	15482.64
899.43	15761.17
899.60	15337.24
899.77	15511.32
899.94	15482.64
900.11	15519.51
900.28	15712.02
900.45	15466.26
900.62	15329.05
900.79	15697.68
900.96	15613.71
901.13	15515.41
901.30	15714.06
901.47	15410.96
901.64	15585.04
901.81	15603.47
901.98	15591.19
902.15	15619.86
902.32	15515.41
902.49	15529.75
902.66	15644.43
902.83	15664.91
903.01	15370.01
903.18	15673.10
903.35	15482.64
903.52	15748.88
903.69	15488.79
903.86	15640.34
904.03	15574.80
904.20	15421.20
904.37	15791.89
904.54	15509.27
904.71	15290.13
904.88	15331.09
905.05	15417.11
905.22	15435.54
905.39	15494.93
905.56	15480.60
905.73	15388.44
905.90	15394.58
906.07	15552.27
906.24	15628.05
906.41	15316.76
906.58	15114.01
906.75	15458.07
906.92	15421.20
907.09	15351.57
907.26	15466.26
907.43	15273.75
907.60	15539.99
907.77	15480.60
907.93	15476.50
908.10	15327.00
908.27	15591.19
908.44	15089.43
908.61	15109.91
908.78	15306.52
908.95	15322.90
909.12	15263.51
909.29	15101.72
909.46	15257.37
909.63	15511.32
909.80	15400.72
909.97	15556.37
910.14	15161.11
910.31	15251.22
910.48	15226.65
910.65	15195.93
910.82	15175.45
910.99	15030.04
911.16	15085.34
911.33	15142.68
911.50	15157.02
911.66	14829.34
911.83	15206.17
912.00	14915.36
912.17	14827.29
912.34	14759.71
912.51	14915.36
912.68	14776.09
912.85	14849.82
913.02	14991.13
913.19	14767.90
913.36	14784.29
913.53	14671.65
913.70	14585.63
913.86	14935.84
914.03	14657.31
914.20	14829.34
914.37	14632.74
914.54	14712.61
914.71	14595.87
914.88	14432.04
915.05	14473.00
915.22	14651.17
915.39	14483.24
915.55	14769.95
915.72	14616.35
915.89	14458.66
916.06	14260.01
916.23	14513.95
916.40	14366.50
916.57	14303.01
916.74	14208.81
916.91	14110.50
917.07	14112.55
917.24	14098.22
917.41	14319.40
917.58	14321.45
917.75	13866.80
917.92	13827.88
918.09	13801.26
918.26	13854.51
918.42	13752.11
918.59	13801.26
918.76	13692.72
918.93	13637.42
919.10	13582.13
919.27	13477.68
919.44	13705.01
919.60	13676.34
919.77	13477.68
919.94	13664.05
920.11	13631.28
920.28	13594.42
920.45	13444.91
920.61	13338.42
920.78	13412.15
920.95	13000.51
921.12	13299.51
921.29	13209.40
921.46	13221.69
921.62	12992.31
921.79	12984.12
921.96	12998.46
922.13	13104.95
922.30	12590.91
922.47	12867.39
922.63	12881.72
922.80	12869.44
922.97	12799.80
923.14	12531.52
923.31	12795.71
923.47	12625.73
923.64	12873.53
923.81	12486.47
923.98	12408.64
924.15	12379.97
924.32	12439.36
924.48	12644.16
924.65	12339.01
924.82	12224.33
924.99	12162.89
925.15	12093.26
925.32	12259.14
925.49	12040.01
925.66	12095.30
925.83	12015.43
925.99	11906.89
926.16	11970.38
926.33	11910.99
926.50	11644.75
926.67	12128.07
926.83	11773.77
927.00	11677.52
927.17	11568.98
927.34	11525.97
927.50	11450.19
927.67	11630.41
927.84	11468.62
928.01	11335.51
928.17	11327.32
928.34	11155.29
928.51	11267.92
928.68	11269.97
928.84	11296.60
929.01	11026.26
929.18	11286.36
929.35	10999.64
929.51	11136.85
929.68	10985.30
929.85	10631.01
930.02	10778.46
930.18	10803.04
930.35	10741.60
930.52	10768.22
930.69	10821.47
930.85	10612.57
931.02	10692.44
931.19	10528.61
931.36	10518.37
931.52	10579.81
931.69	10565.47
931.86	10391.39
932.02	10282.85
932.19	10428.26
932.36	10076.01
932.53	10037.09
932.69	10024.81
932.86	10450.78
933.03	9830.25
933.19	9779.05
933.36	9873.26
933.53	10018.66
933.70	9846.63
933.86	9916.26
934.03	9887.59
934.20	9512.81
934.36	9838.44
934.53	9439.09
934.70	9428.85
934.86	9437.04
935.03	9213.81
935.20	9144.18
935.36	9336.69
935.53	9084.79
935.70	9097.08
935.86	9217.91
936.03	8720.25
936.20	8687.48
936.36	8982.39
936.53	8955.77
936.70	8761.21
936.86	8701.82
937.03	8537.98
937.20	8494.97
937.36	8460.16
937.53	8169.35
937.70	8085.38
937.86	7958.41
938.03	7993.22
938.20	8122.24
938.36	7837.58
938.53	7769.99
938.70	7567.24
938.86	7643.02
939.03	7645.07
939.20	7487.37
939.36	7403.41
939.53	7317.39
939.70	7409.55
939.86	7219.09
940.03	6979.48
940.19	7038.87
940.36	6999.96
940.53	6844.31
940.69	6592.41
940.86	6743.96
941.03	6623.13
941.19	6389.66
941.36	6438.81
941.52	6598.56
941.69	6309.79
941.86	6287.26
942.02	6274.98
942.19	6320.03
942.35	6203.30
942.52	6111.14
942.69	6088.61
942.85	5861.29
943.02	5892.01
943.18	6006.69
943.35	5992.36
943.52	5767.08
943.68	5756.84
943.85	5871.53
944.01	5582.76
944.18	5826.47
944.35	5803.94
944.51	5441.45
944.68	5500.84
944.84	5609.39
945.01	5562.28
945.17	5470.12
945.34	5566.38
945.51	5539.76
945.67	5531.56
945.84	5574.57
946.00	5326.77
946.17	5316.53
946.33	5277.62
946.50	5488.56
946.67	5427.12
946.83	5470.12
947.00	5547.95
947.16	5375.92
947.33	5380.01
947.49	5222.32
947.66	5300.14
947.82	5451.69
947.99	5343.15
948.16	5390.25
948.32	5447.60
948.49	5328.81
948.65	5322.67
948.82	5373.87
948.98	5359.53
949.15	5222.32
949.31	5310.38
949.48	5357.49
949.64	5302.19
949.81	5423.02
949.97	5164.98
950.14	5490.60
950.30	5402.54
950.47	5515.18
950.63	5599.15
950.80	5261.23
950.96	5474.22
951.13	5441.45
951.30	5433.26
951.46	5302.19
951.63	5480.36
951.79	5441.45
951.96	5511.08
952.12	5531.56
952.29	5347.25
952.45	5515.18
952.62	5445.55
952.78	5476.27
952.94	5400.49
953.11	5371.82
953.27	5423.02
953.44	5492.65
953.60	5435.31
953.77	5525.42
953.93	5568.43
954.10	5429.17
954.26	5525.42
954.43	5423.02
954.59	5523.37
954.76	5611.43
954.92	5478.32
955.09	5496.75
955.25	5371.82
955.42	5463.98
955.58	5683.11
955.75	5662.63
955.91	5423.02
956.07	5547.95
956.24	5533.61
956.40	5554.09
956.57	5705.64
956.73	5558.19
956.90	5646.25
957.06	5527.47
957.23	5425.07
957.39	5412.78
957.56	5509.04
957.72	5398.45
957.88	5451.69
958.05	5650.35
958.21	5662.63
958.38	5554.09
958.54	5562.28
958.71	5769.13
958.87	5447.60
959.03	5627.82
959.20	5562.28
959.36	5482.41
959.53	5509.04
959.69	5449.64
959.85	5423.02
960.02	5482.41
960.18	5554.09
960.35	5545.90
960.51	5547.95
960.68	5451.69
960.84	5615.53
961.00	5476.27
961.17	5463.98
961.33	5433.26
961.50	5423.02
961.66	5566.38
961.82	5500.84
961.99	5611.43
962.15	5423.02
962.31	5515.18
962.48	5527.47
962.64	5621.67
962.81	5650.35
962.97	5484.46
963.13	5605.29
963.30	5541.80
963.46	5377.97
963.62	5523.37
963.79	5459.88
963.95	5447.60
964.12	5478.32
964.28	5490.60
964.44	5345.20
964.61	5427.12
964.77	5476.27
964.93	5552.04
965.10	5439.40
965.26	5345.20
965.42	5435.31
965.59	5482.41
965.75	5285.81
965.92	5478.32
966.08	5337.01
966.24	5310.38
966.41	5363.63
966.57	5281.71
966.73	5398.45
966.90	5398.45
967.06	5369.77
967.22	5279.66
967.39	5273.52
967.55	5267.38
967.71	5283.76
967.88	5222.32
968.04	5332.91
968.20	5236.66
968.37	5261.23
968.53	5218.22
968.69	5279.66
968.85	5253.04
969.02	5359.53
969.18	5203.89
969.34	5242.80
969.51	5250.99
969.67	5212.08
969.83	5050.29
970.00	5199.79
970.16	5261.23
970.32	5146.55
970.48	5191.60
970.65	5142.45
970.81	4986.80
970.97	5210.03
971.14	5089.20
971.30	5228.46
971.46	5035.96
971.63	5115.83
971.79	5091.25
971.95	4995.00
972.11	4986.80
972.28	5074.87
972.44	5126.07
972.60	5056.43
972.76	5050.29
972.93	4960.18
973.09	4949.94
973.25	5085.11
973.42	4937.65
973.58	4974.52
973.74	4937.65
973.90	4990.90
974.07	5035.96
974.23	4956.08
974.39	4892.60
974.55	4771.77
974.72	4833.21
974.88	4743.10
975.04	5058.48
975.20	4865.97
975.37	4816.82
975.53	4763.58
975.69	4706.23
975.85	4765.62
976.01	4796.34
976.18	4841.40
976.34	4861.88
976.50	4847.54
976.66	4802.49
976.83	4845.49
976.99	4792.25
977.15	4747.19
977.31	4511.68
977.47	4818.87
977.64	4763.58
977.80	4675.51
977.96	4710.33
978.12	4790.20
978.29	4636.60
978.45	4427.71
978.61	4638.65
978.77	4687.80
978.93	4546.49
979.10	4669.37
979.26	4685.75
979.42	4550.59
979.58	4495.29
979.74	4556.73
979.91	4503.48
980.07	4556.73
980.23	4511.68
980.39	4286.40
980.55	4427.71
980.71	4431.80
980.88	4444.09
981.04	4458.43
981.20	4458.43
981.36	4493.24
981.52	4419.52
981.68	4396.99
981.85	4493.24
982.01	4505.53
982.17	4306.88
982.33	4403.13
982.49	4652.98
982.65	4364.22
982.82	4300.73
982.98	4394.94
983.14	4231.10
983.30	4495.29
983.46	4476.86
983.62	4317.12
983.79	4284.35
983.95	4265.92
984.11	4220.86
984.27	4323.26
984.43	4251.58
984.59	4239.30
984.75	4306.88
984.91	4100.03
985.08	4192.19
985.24	4120.51
985.40	4118.47
985.56	4321.21
985.72	4159.42
985.88	4102.08
986.04	4200.38
986.20	3962.82
986.37	4255.68
986.53	4048.83
986.69	4061.12
986.85	4097.99
987.01	4165.57
987.17	4165.57
987.33	4124.61
987.49	4034.50
987.65	4095.94
987.82	4136.90
987.98	3909.57
988.14	3942.34
988.30	4020.16
988.46	3932.10
988.62	4069.31
988.78	3880.90
988.94	3925.96
989.10	3887.04
989.26	3690.44
989.42	3911.62
989.59	3823.56
989.75	3815.37
989.91	3831.75
990.07	3725.26
990.23	3782.60
990.39	3825.61
990.55	3758.02
990.71	3895.24
990.87	3811.27
991.03	3917.76
991.19	3766.21
991.35	3790.79
991.51	3760.07
991.67	3825.61
991.83	3731.40
992.00	3801.03
992.16	3813.32
992.32	3764.17
992.48	3696.58
992.64	3676.10
992.80	3747.78
992.96	3690.44
993.12	3747.78
993.28	3751.88
993.44	3801.03
993.60	3747.78
993.76	3719.11
993.92	3780.55
994.08	3551.18
994.24	3653.58
994.40	3620.81
994.56	3647.43
994.72	3551.18
994.88	3577.80
995.04	3645.38
995.20	3565.51
995.36	3545.03
995.52	3590.09
995.68	3499.98
995.84	3436.49
996.00	3725.26
996.16	3432.40
996.32	3463.12
996.48	3559.37
996.64	3516.36
996.80	3532.75
996.96	3493.83
997.12	3438.54
997.28	3395.53
997.44	3448.78
997.60	3395.53
997.76	3506.12
997.92	3411.92
998.08	3436.49
998.24	3286.99
998.40	3485.64
998.56	3475.40
998.72	3368.91
998.88	3243.98
999.04	3354.57
999.20	3375.05
999.36	3246.03
999.52	3485.64
999.68	3389.39
999.84	3403.72
1000.00	3383.24
1000.16	3323.85
1000.32	3262.41
1000.48	3395.53
1000.64	3303.37
1000.80	3137.49
1000.95	3225.55
1001.11	3164.11
1001.27	3182.54
1001.43	3303.37
1001.59	3104.72
1001.75	3213.26
1001.91	3147.73
1002.07	3108.82
1002.23	3147.73
1002.39	3194.83
1002.55	3186.64
1002.71	3080.14
1002.87	3172.30
1003.03	3135.44
1003.19	3067.86
1003.34	3231.69
1003.50	3133.39
1003.66	3309.52
1003.82	3221.45
1003.98	3094.48
1004.14	3123.15
1004.30	3018.71
1004.46	3078.10
1004.62	3092.43
1004.78	3043.28
1004.94	3168.21
1005.09	3168.21
1005.25	3094.48
1005.41	2957.27
1005.57	2981.84
1005.73	3084.24
1005.89	3049.43
1006.05	2949.08
1006.21	3014.61
1006.37	2969.55
1006.52	2955.22
1006.68	2842.58
1006.84	3022.80
1007.00	2957.27
1007.16	2992.08
1007.32	2926.55
1007.48	2879.44
1007.64	3008.47
1007.79	2920.40
1007.95	2906.07
1008.11	2912.21
1008.27	2797.53
1008.43	2887.64
1008.59	2809.81
1008.75	2949.08
1008.91	2844.63
1009.06	2910.16
1009.22	2906.07
1009.38	2781.14
1009.54	2871.25
1009.70	2764.76
1009.86	2826.20
1010.01	2844.63
1010.17	2746.33
1010.33	2852.82
1010.49	2777.05
1010.65	2877.40
1010.81	2670.55
1010.96	2723.80
1011.12	2762.71
1011.28	2699.22
1011.44	2695.13
1011.60	2674.65
1011.76	2715.61
1011.91	2670.55
1012.07	2615.26
1012.23	2643.93
1012.39	2748.37
1012.55	2707.41
1012.71	2670.55
1012.86	2674.65
1013.02	2635.74
1013.18	2664.41
1013.34	2564.06
1013.50	2650.07
1013.65	2682.84
1013.81	2641.88
1013.97	2496.47
1014.13	2660.31
1014.29	2566.10
1014.44	2654.17
1014.60	2590.68
1014.76	2555.86
1014.92	2539.48
1015.07	2648.02
1015.23	2578.39
1015.39	2494.43
1015.55	2473.95
1015.71	2519.00
1015.86	2639.83
1016.02	2459.61
1016.18	2461.66
1016.34	2562.01
1016.49	2465.75
1016.65	2654.17
1016.81	2484.19
1016.97	2459.61
1017.12	2553.82
1017.28	2361.31
1017.44	2441.18
1017.60	2451.42
1017.75	2482.14
1017.91	2469.85
1018.07	2580.44
1018.23	2486.23
1018.38	2469.85
1018.54	2387.93
1018.70	2443.23
1018.86	2410.46
1019.01	2389.98
1019.17	2557.91
1019.33	2531.29
1019.49	2371.55
1019.64	2387.93
1019.80	2385.88
1019.96	2502.62
1020.12	2502.62
1020.27	2367.45
1020.43	2410.46
1020.59	2328.54
1020.74	2336.73
1020.90	2449.37
1021.06	2346.97
1021.22	2355.16
1021.37	2404.32
1021.53	2256.86
1021.69	2457.56
1021.84	2199.52
1022.00	2328.54
1022.16	2346.97
1022.31	2310.11
1022.47	2426.84
1022.63	2293.72
1022.79	2211.81
1022.94	2367.45
1023.10	2365.40
1023.26	2312.16
1023.41	2330.59
1023.57	2293.72
1023.73	2285.53
1023.88	2283.49
1024.04	2381.79
1024.20	2299.87
1024.35	2299.87
1024.51	2269.15
1024.67	2242.53
1024.82	2279.39
1024.98	2168.80
1025.14	2271.20
1025.29	2187.23
1025.45	2312.16
1025.61	2199.52
1025.76	2127.84
1025.92	2193.37
1026.08	2211.81
1026.23	2297.82
1026.39	2226.14
1026.55	2195.42
1026.70	2121.70
1026.86	2199.52
1027.02	2195.42
1027.17	2174.94
1027.33	2189.28
1027.48	2148.32
1027.64	2103.26
1027.80	2107.36
1027.95	2185.18
1028.11	2099.17
1028.27	2150.37
1028.42	2207.71
1028.58	2160.61
1028.73	2121.70
1028.89	2082.78
1029.05	2252.77
1029.20	2125.79
>>>>>End Processed Spectral Data<<<<<
