SpectraSuite Data File
++++++++++++++++++++++++++++++++++++
Date: Fri Jun 02 14:51:12 CEST 2017
User: INFO_000
Dark Spectrum Present: No
Reference Spectrum Present: No
Number of Sampled Component Spectra: 1
Spectrometers: USB4H00879
Integration Time (usec): 80000 (USB4H00879)
Spectra Averaged: 1 (USB4H00879)
Boxcar Smoothing: 0 (USB4H00879)
Correct for Electrical Dark: No (USB4H00879)
Strobe/Lamp Enabled: No (USB4H00879)
Correct for Detector Non-linearity: No (USB4H00879)
Correct for Stray Light: No (USB4H00879)
Number of Pixels in Processed Spectrum: 3648
>>>>>Begin Processed Spectral Data<<<<<
345.13	1282.03
345.34	1282.03
345.56	1282.03
345.78	1239.02
345.99	1282.03
346.21	1724.39
346.42	1732.58
346.64	1624.04
346.86	1863.65
347.07	1667.05
347.29	1720.29
347.50	1650.66
347.72	1624.04
347.94	1748.97
348.15	1601.51
348.37	1605.61
348.59	1722.34
348.80	1691.62
349.02	1769.44
349.23	1861.60
349.45	1808.36
349.67	1843.17
349.88	1777.64
350.10	1970.15
350.31	1886.18
350.53	1728.49
350.75	1943.52
350.96	1769.44
351.18	1812.45
351.39	1884.13
351.61	1851.36
351.82	1902.56
352.04	1916.90
352.26	1837.03
352.47	1886.18
352.69	1929.19
352.90	1720.29
353.12	1720.29
353.34	1818.60
353.55	1968.10
353.77	1886.18
353.98	1908.71
354.20	1806.31
354.41	1900.52
354.63	1906.66
354.85	1970.15
355.06	1933.28
355.28	1781.73
355.49	1896.42
355.71	1947.62
355.92	1822.69
356.14	1988.58
356.35	1818.60
356.57	1781.73
356.79	1845.22
357.00	1785.83
357.22	1955.81
357.43	1794.02
357.65	1978.34
357.86	1832.93
358.08	1882.08
358.29	1906.66
358.51	1959.91
358.72	1994.72
358.94	1970.15
359.16	1968.10
359.37	1904.61
359.59	1961.95
359.80	2017.25
360.02	1984.48
360.23	1951.71
360.45	1992.67
360.66	1875.94
360.88	1898.47
361.09	1992.67
361.31	1912.80
361.52	1822.69
361.74	2082.78
361.95	2166.75
362.17	1843.17
362.38	2109.41
362.60	1980.39
362.81	1918.95
363.03	1959.91
363.24	1974.24
363.46	2031.58
363.67	2017.25
363.89	1988.58
364.10	2056.16
364.32	2000.87
364.53	2035.68
364.75	1863.65
364.96	1980.39
365.18	1996.77
365.39	1994.72
365.61	1937.38
365.82	2109.41
366.04	1945.57
366.25	1998.82
366.47	2002.91
366.68	2007.01
366.90	1953.76
367.11	2109.41
367.33	2070.50
367.54	2066.40
367.76	2023.39
367.97	2088.93
368.19	2017.25
368.40	2095.07
368.62	1976.29
368.83	2019.30
369.05	2072.54
369.26	2056.16
369.48	2007.01
369.69	2035.68
369.91	2060.26
370.12	2000.87
370.33	2127.84
370.55	1959.91
370.76	1984.48
370.98	2082.78
371.19	1961.95
371.41	2060.26
371.62	2086.88
371.84	1968.10
372.05	2195.42
372.27	2095.07
372.48	2066.40
372.69	2080.74
372.91	2172.89
373.12	2154.46
373.34	2090.98
373.55	2117.60
373.77	2174.94
373.98	2109.41
374.20	2154.46
374.41	2256.86
374.62	2103.26
374.84	2076.64
375.05	2164.70
375.27	2131.94
375.48	2256.86
375.70	2226.14
375.91	2189.28
376.12	2248.67
376.34	2215.90
376.55	2146.27
376.77	2097.12
376.98	2152.42
377.19	2150.37
377.41	2222.05
377.62	2215.90
377.84	2209.76
378.05	2357.21
378.27	2183.13
378.48	2232.29
378.69	2322.40
378.91	2385.88
379.12	2265.05
379.34	2258.91
379.55	2254.81
379.76	2267.10
379.98	2254.81
380.19	2369.50
380.41	2285.53
380.62	2297.82
380.83	2269.15
381.05	2224.09
381.26	2326.49
381.47	2256.86
381.69	2265.05
381.90	2338.78
382.12	2334.68
382.33	2240.48
382.54	2203.61
382.76	2273.25
382.97	2322.40
383.19	2283.49
383.40	2312.16
383.61	2299.87
383.83	2369.50
384.04	2267.10
384.25	2396.12
384.47	2367.45
384.68	2379.74
384.89	2240.48
385.11	2328.54
385.32	2355.16
385.54	2357.21
385.75	2408.41
385.96	2344.92
386.18	2361.31
386.39	2351.07
386.60	2351.07
386.82	2447.32
387.03	2379.74
387.24	2445.27
387.46	2441.18
387.67	2402.27
387.88	2453.47
388.10	2480.09
388.31	2406.36
388.52	2480.09
388.74	2463.71
388.95	2541.53
389.16	2396.12
389.38	2377.69
389.59	2623.45
389.80	2580.44
390.02	2531.29
390.23	2664.41
390.44	2500.57
390.66	2543.58
390.87	2447.32
391.08	2564.06
391.30	2727.89
391.51	2637.78
391.72	2592.73
391.94	2584.54
392.15	2631.64
392.36	2619.35
392.58	2576.34
392.79	2688.98
393.00	2660.31
393.22	2746.33
393.43	2678.74
393.64	2793.43
393.85	2711.51
394.07	2594.78
394.28	2715.61
394.49	2641.88
394.71	2738.13
394.92	2801.62
395.13	2627.54
395.35	2682.84
395.56	2707.41
395.77	2781.14
395.98	2869.20
396.20	2854.87
396.41	2846.68
396.62	2809.81
396.84	2768.85
397.05	2836.44
397.26	2815.96
397.47	2875.35
397.69	2797.53
397.90	2932.69
398.11	2869.20
398.32	2875.35
398.54	2846.68
398.75	2830.29
398.96	2949.08
399.18	3117.01
399.39	2891.73
399.60	2881.49
399.81	2901.97
400.03	2836.44
400.24	3135.44
400.45	2953.17
400.66	2975.70
400.88	2875.35
401.09	3117.01
401.30	3074.00
401.51	3100.62
401.73	2959.31
401.94	3133.39
402.15	3131.34
402.36	3151.82
402.58	3094.48
402.79	3190.74
403.00	3129.30
403.21	3141.58
403.43	3135.44
403.64	3260.37
403.85	3110.86
404.06	3178.45
404.27	3026.90
404.49	3164.11
404.70	3241.93
404.91	3231.69
405.12	3203.02
405.34	3205.07
405.55	3262.41
405.76	3225.55
405.97	3233.74
406.19	3346.38
406.40	3229.65
406.61	3395.53
406.82	3262.41
407.03	3264.46
407.25	3370.96
407.46	3448.78
407.67	3293.13
407.88	3422.16
408.09	3442.64
408.31	3303.37
408.52	3416.01
408.73	3385.29
408.94	3321.81
409.15	3319.76
409.37	3502.03
409.58	3504.07
409.79	3442.64
410.00	3538.89
410.21	3489.74
410.43	3461.07
410.64	3364.81
410.85	3598.28
411.06	3422.16
411.27	3667.91
411.48	3680.20
411.70	3530.70
411.91	3715.02
412.12	3667.91
412.33	3637.19
412.54	3653.58
412.76	3555.27
412.97	3598.28
413.18	3545.03
413.39	3585.99
413.60	3680.20
413.81	3657.67
414.03	3655.62
414.24	3573.71
414.45	3811.27
414.66	3575.75
414.87	3774.41
415.08	3686.34
415.30	3760.07
415.51	3727.30
415.72	3729.35
415.93	3727.30
416.14	3700.68
416.35	3848.13
416.56	3755.97
416.78	3768.26
416.99	3876.80
417.20	3829.70
417.41	3833.80
417.62	3841.99
417.83	3952.58
418.04	3809.22
418.26	3913.67
418.47	3995.59
418.68	3964.87
418.89	3966.92
419.10	4192.19
419.31	3960.77
419.52	4020.16
419.73	3923.91
419.95	3989.44
420.16	3968.96
420.37	4071.36
420.58	3952.58
420.79	3866.56
421.00	4014.02
421.21	4009.92
421.42	4089.79
421.63	4016.07
421.85	4075.46
422.06	4065.22
422.27	4118.47
422.48	4087.75
422.69	4300.73
422.90	4245.44
423.11	4147.14
423.32	4259.78
423.53	4296.64
423.75	4327.36
423.96	4403.13
424.17	4444.09
424.38	4499.39
424.59	4452.28
424.80	4468.67
425.01	4448.19
425.22	4390.84
425.43	4286.40
425.64	4597.69
425.85	4460.48
426.06	4483.00
426.28	4489.15
426.49	4429.76
426.70	4384.70
426.91	4542.39
427.12	4634.55
427.33	4523.96
427.54	4655.03
427.75	4714.42
427.96	4841.40
428.17	4835.25
428.38	4818.87
428.59	4790.20
428.80	4722.62
429.01	4739.00
429.23	4900.79
429.44	5146.55
429.65	4882.36
429.86	5005.24
430.07	4695.99
430.28	4845.49
430.49	4982.71
430.70	4964.28
430.91	5109.68
431.12	4906.93
431.33	5171.12
431.54	5083.06
431.75	5191.60
431.96	5005.24
432.17	4997.04
432.38	5009.33
432.59	5285.81
432.80	5056.43
433.01	5179.31
433.22	5265.33
433.43	5388.21
433.64	5193.65
433.85	5160.88
434.06	5285.81
434.27	5232.56
434.49	5316.53
434.70	5482.41
434.91	5461.93
435.12	5439.40
435.33	5416.88
435.54	5324.72
435.75	5214.13
435.96	5414.83
436.17	5392.30
436.38	5515.18
436.59	5435.31
436.80	5423.02
437.01	5787.56
437.22	5738.41
437.43	5529.52
437.64	5410.73
437.85	5799.85
438.06	5701.54
438.27	5619.63
438.48	5633.96
438.69	5797.80
438.90	5805.99
439.11	5531.56
439.32	5889.96
439.53	5703.59
439.74	5752.74
439.95	5795.75
440.16	5803.94
440.37	5877.67
440.57	5636.01
440.78	5990.31
440.99	5955.49
441.20	5918.63
441.41	5892.01
441.62	5965.73
441.83	5849.00
442.04	5926.82
442.25	5889.96
442.46	5906.34
442.67	6057.89
442.88	6535.07
443.09	5885.86
443.30	6076.32
443.51	6098.85
443.72	6449.05
443.93	6162.34
444.14	6188.96
444.35	5975.97
444.56	6283.17
444.77	6215.59
444.98	6393.76
445.19	6418.33
445.40	6412.19
445.61	6406.05
445.81	6381.47
446.02	6449.05
446.23	6451.10
446.44	6211.49
446.65	6389.66
446.86	6367.13
447.07	6471.58
447.28	6578.08
447.49	6580.12
447.70	6614.94
447.91	6590.36
448.12	6537.12
448.33	6666.14
448.54	6688.67
448.74	6739.87
448.95	6844.31
449.16	6512.54
449.37	6823.83
449.58	6793.11
449.79	6948.76
450.00	6768.54
450.21	6922.13
450.42	6864.79
450.63	6985.62
450.84	6844.31
451.05	7016.34
451.25	6954.90
451.46	6770.58
451.67	7147.41
451.88	7241.62
452.09	7122.84
452.30	7124.88
452.51	7071.64
452.72	7192.47
452.93	7395.22
453.13	7108.50
453.34	7194.51
453.55	7268.24
453.76	7217.04
453.97	7550.86
454.18	7360.40
454.39	7387.02
454.60	7497.61
454.81	7384.98
455.01	7589.77
455.22	7317.39
455.43	7661.45
455.64	7792.52
455.85	7737.23
456.06	7862.15
456.27	7753.61
456.48	7573.39
456.68	7800.71
456.89	7827.34
457.10	8042.37
457.31	7882.63
457.52	7968.65
457.73	7839.62
457.94	8185.73
458.14	7991.17
458.35	8318.85
458.56	8015.75
458.77	8128.39
458.98	8208.26
459.19	8112.00
459.39	8245.12
459.60	8396.67
459.81	8279.94
460.02	8597.37
460.23	8460.16
460.44	8720.25
460.65	8554.37
460.85	8490.88
461.06	8576.89
461.27	8519.55
461.48	8748.92
461.69	8900.47
461.89	8632.19
462.10	8900.47
462.31	8695.68
462.52	8873.85
462.73	8796.03
462.94	9074.55
463.14	9019.25
463.35	8923.00
463.56	9584.49
463.77	9215.86
463.98	9039.73
464.18	9086.84
464.39	9379.70
464.60	9471.86
464.81	9353.07
465.02	9467.76
465.23	9709.42
465.43	9465.71
465.64	9514.86
465.85	9826.15
466.06	9215.86
466.27	9953.13
466.47	9903.98
466.68	10067.81
466.89	9838.44
467.10	9973.61
467.30	9781.10
467.51	10119.01
467.72	10411.87
467.93	10004.33
468.14	10370.91
468.34	10334.05
468.55	10477.41
468.76	10477.41
468.97	10397.54
469.17	10538.85
469.38	10788.70
469.59	10805.08
469.80	10497.89
470.01	10889.05
470.21	10891.10
470.42	11130.71
470.63	11061.08
470.84	10954.58
471.04	11257.68
471.25	11161.43
471.46	11157.33
471.67	11304.79
471.87	11415.38
472.08	11429.71
472.29	11564.88
472.50	11300.69
472.70	11482.96
472.91	11626.32
473.12	11931.47
473.33	12019.53
473.53	12103.50
473.74	11900.75
473.95	12052.30
474.16	12203.85
474.36	12142.41
474.57	12304.20
474.78	12525.38
474.99	12336.96
475.19	12396.35
475.40	12767.04
475.61	12781.37
475.81	12947.26
476.02	13166.39
476.23	12904.25
476.44	13186.87
476.64	13350.71
476.85	13356.85
477.06	13281.08
477.27	13553.46
477.47	13793.07
477.68	13821.74
477.89	13887.28
478.09	13680.43
478.30	13850.41
478.51	14004.01
478.71	14176.04
478.92	14004.01
479.13	14401.32
479.34	14305.06
479.54	14159.66
479.75	14384.93
479.96	14567.20
480.16	14616.35
480.37	14743.33
480.58	14987.04
480.78	15007.52
480.99	14915.36
481.20	15027.99
481.41	15333.14
481.61	15423.25
481.82	15415.06
482.03	15349.53
482.23	15435.54
482.44	15863.57
482.65	15953.68
482.85	15976.20
483.06	15998.73
483.27	15965.96
483.47	16023.31
483.68	16183.05
483.89	16367.37
484.09	16248.58
484.30	16342.79
484.51	16822.02
484.71	16692.99
484.92	16609.03
485.13	16953.09
485.33	17035.00
485.54	16910.08
485.75	17147.64
485.95	17149.69
486.16	17147.64
486.37	17354.49
486.57	17293.05
486.78	17542.90
486.98	17686.26
487.19	17915.63
487.40	17776.37
487.60	18106.09
487.81	18360.04
488.02	17706.74
488.22	17977.07
488.43	18134.76
488.64	18321.13
488.84	18386.66
489.05	18591.46
489.25	18294.50
489.46	18837.22
489.67	18798.31
489.87	18777.83
490.08	18966.24
490.29	19181.28
490.49	19295.96
490.70	19273.43
490.90	19447.51
491.11	19187.42
491.32	19670.74
491.52	19343.06
491.73	19418.84
491.94	19822.29
492.14	19676.88
492.35	19918.54
492.55	19701.46
492.76	19934.93
492.97	20164.30
493.17	20281.03
493.38	20465.35
493.58	20526.79
493.79	20405.96
494.00	20606.66
494.20	20627.14
494.41	20987.58
494.61	20731.59
494.82	20934.34
495.02	20952.77
495.23	21253.82
495.44	21012.16
495.64	21274.30
495.85	21530.30
496.05	21577.40
496.26	21509.82
496.47	21843.63
496.67	21581.49
496.88	21771.96
497.08	21860.02
497.29	22191.79
497.49	21907.12
497.70	21800.63
497.91	22179.50
498.11	22189.74
498.32	22453.93
498.52	22576.81
498.73	22681.25
498.93	22447.79
499.14	23125.66
499.34	22806.18
499.55	22994.59
499.76	22527.66
499.96	22781.60
500.17	23088.80
500.37	22998.69
500.58	23133.86
500.78	23260.83
500.99	23174.81
501.19	23529.11
501.40	23346.84
501.60	23305.88
501.81	23555.74
502.02	23654.04
502.22	23723.67
502.43	23936.66
502.63	23850.64
502.84	24133.26
503.04	24098.45
503.25	24266.38
503.45	24082.06
503.66	24487.56
503.86	23946.90
504.07	24422.03
504.27	24018.58
504.48	24651.40
504.68	24526.47
504.89	24729.22
505.09	24626.82
505.30	24667.78
505.50	24741.51
505.71	24856.20
505.91	24886.92
506.12	24983.17
506.32	24848.00
506.53	25028.23
506.73	25257.60
506.94	25243.26
507.14	25409.15
507.35	25542.27
507.55	25392.76
507.76	25411.20
507.96	25116.29
508.17	25478.78
508.37	25890.42
508.58	26046.07
508.78	25648.76
508.99	25962.10
509.19	25708.15
509.40	25595.51
509.60	25636.47
509.81	25992.82
510.01	25808.50
510.22	26070.64
510.42	25781.88
510.63	26351.21
510.83	26119.79
511.04	26099.31
511.24	26633.83
511.44	26564.20
511.65	26545.77
511.85	26601.07
512.06	26736.23
512.26	26564.20
512.47	26781.29
512.67	27053.67
512.88	26754.66
513.08	26592.87
513.29	26807.91
513.49	26967.65
513.69	26916.45
513.90	27256.42
514.10	27094.63
514.31	27180.64
514.51	27336.29
514.72	26986.08
514.92	27229.79
515.13	27670.11
515.33	27285.09
515.53	27682.39
515.74	27455.07
515.94	28012.12
516.15	28036.69
516.35	27313.76
516.56	27608.67
516.76	27827.80
516.96	28030.55
517.17	28147.28
517.37	27991.64
517.58	27717.21
517.78	28243.54
517.99	28163.67
518.19	28327.50
518.39	28390.99
518.60	28530.25
518.80	28524.11
519.01	28530.25
519.21	28802.63
519.41	28571.21
519.62	28618.32
519.82	28960.33
520.03	28710.47
520.23	28853.83
520.43	29050.44
520.64	29378.11
520.84	29089.35
521.05	29353.54
521.25	29490.75
521.45	29644.35
521.66	29527.61
521.86	29333.06
522.07	29486.65
522.27	29431.36
522.47	29564.48
522.68	29681.21
522.88	29894.20
523.08	29963.83
523.29	29980.21
523.49	29945.40
523.70	30082.61
523.90	30250.55
524.10	30357.04
524.31	30445.10
524.51	30395.95
524.71	31012.39
524.92	30086.71
525.12	30467.63
525.33	30545.45
525.53	30893.61
525.73	31108.65
525.94	31196.71
526.14	30899.75
526.34	31264.29
526.55	31249.96
526.75	31274.53
526.95	31735.32
527.16	31311.39
527.36	31508.00
527.56	31616.54
527.77	31931.93
527.97	31677.98
528.17	31671.84
528.38	32087.57
528.58	32060.95
528.78	32429.59
528.99	32310.80
529.19	32663.05
529.39	31919.64
529.60	32605.71
529.80	32812.56
530.00	32343.57
530.21	32708.11
530.41	33115.65
530.61	32472.59
530.82	33027.59
531.02	32898.57
531.22	33410.56
531.43	32867.85
531.63	33584.64
531.83	33390.08
532.04	33840.64
532.24	33512.96
532.44	34039.29
532.64	33900.03
532.85	34000.38
533.05	33842.68
533.25	34031.10
533.46	34268.66
533.66	34301.43
533.86	34239.99
534.07	34524.66
534.27	34602.48
534.47	34891.24
534.67	34665.97
534.88	34749.93
535.08	34942.44
535.28	35356.13
535.49	35147.24
535.69	35220.97
535.89	35083.75
536.09	35413.48
536.30	35446.24
536.50	35825.12
536.70	35843.55
536.91	35917.28
537.11	35882.46
537.31	35923.42
537.51	35861.98
537.72	36181.46
537.92	36552.15
538.12	36677.07
538.32	36275.67
538.53	36177.37
538.73	36402.64
538.93	36476.37
539.13	36431.32
539.34	36539.86
539.54	36537.81
539.74	36818.38
539.94	36947.40
540.15	36713.94
540.35	37295.56
540.55	36984.27
540.75	37270.98
540.96	37346.76
541.16	37017.04
541.36	37631.43
541.56	37903.81
541.77	37823.93
541.97	37592.51
542.17	37868.99
542.37	37912.00
542.58	37946.81
542.78	37813.70
542.98	37940.67
543.18	37897.66
543.38	38432.18
543.59	38374.84
543.79	38405.56
543.99	38428.09
544.19	38614.45
544.40	38460.85
544.60	39167.40
544.80	38421.94
545.00	38657.46
545.20	38987.18
545.41	38772.14
545.61	38882.73
545.81	39245.23
546.01	38993.32
546.21	39140.78
546.42	39226.79
546.62	39245.23
546.82	39128.49
547.02	39155.11
547.22	39327.14
547.43	39396.77
547.63	39808.42
547.83	39566.76
548.03	39216.55
548.23	39599.52
548.44	39757.22
548.64	39943.58
548.84	39935.39
549.04	39650.72
549.24	40031.65
549.45	40600.98
549.65	39902.62
549.85	40199.58
550.05	40281.50
550.25	40261.02
550.45	40312.22
550.66	40431.00
550.86	40461.72
551.06	40471.96
551.26	40627.60
551.46	40777.11
551.66	40707.47
551.87	40779.15
552.07	40973.71
552.27	41260.43
552.47	40707.47
552.67	40721.81
552.87	40793.49
553.07	40957.33
553.28	41377.16
553.48	41006.48
553.68	41332.11
553.88	41391.50
554.08	41158.03
554.28	41563.53
554.48	41196.94
554.69	41584.01
554.89	41305.48
555.09	41555.33
555.29	41696.64
555.49	41934.21
555.69	41573.77
555.89	41428.36
556.10	41612.68
556.30	41467.27
556.50	41809.28
556.70	42024.32
556.90	42124.67
557.10	42098.05
557.30	41866.63
557.50	42308.99
557.70	42435.96
557.91	42507.64
558.11	42298.75
558.31	42550.65
558.51	42143.10
558.71	42149.24
558.91	42581.37
559.11	42382.71
559.31	42397.05
559.51	42511.74
559.72	42417.53
559.92	42311.03
560.12	42599.80
560.32	42673.52
560.52	42345.85
560.72	42579.32
560.92	42741.11
561.12	42935.66
561.32	43345.26
561.52	42749.30
561.72	42947.95
561.93	42419.58
562.13	42593.65
562.33	42857.84
562.53	43543.91
562.73	43070.83
562.93	42939.76
563.13	43246.96
563.33	42937.71
563.53	43466.09
563.73	43005.30
563.93	43529.58
564.13	43879.78
564.33	43611.49
564.53	43464.04
564.74	43451.75
564.94	43560.30
565.14	43904.35
565.34	43173.23
565.54	44025.18
565.74	43349.35
565.94	44193.12
566.14	43464.04
566.34	43578.73
566.54	43941.22
566.74	43961.70
566.94	43883.87
567.14	44365.15
567.34	44066.14
567.54	43769.19
567.74	43773.28
567.94	43910.50
568.14	44004.70
568.34	44086.62
568.54	44512.60
568.74	43949.41
568.94	44336.48
569.14	44504.41
569.34	44385.63
569.54	44805.46
569.75	44488.03
569.95	44625.24
570.15	44873.04
570.35	44680.53
570.55	44277.08
570.75	44453.21
570.95	44842.32
571.15	44453.21
571.35	44660.05
571.55	44983.63
571.75	45067.60
571.95	45210.96
572.15	44877.14
572.35	45073.74
572.55	44899.67
572.75	44918.10
572.95	45270.35
573.15	45141.33
573.35	44965.20
573.55	45630.79
573.75	45251.92
573.95	45385.04
574.15	45387.08
574.35	45479.24
574.55	45360.46
574.75	45143.38
574.95	45479.24
575.15	45135.18
575.34	45692.23
575.54	45751.62
575.74	45843.78
575.94	45696.33
576.14	45473.10
576.34	46292.29
576.54	46198.08
576.74	46136.64
576.94	45813.06
577.14	45958.47
577.34	46636.34
577.54	46261.57
577.74	46343.48
577.94	46568.76
578.14	46202.18
578.34	46519.61
578.54	46034.24
578.74	46497.08
578.94	46378.30
579.14	46355.77
579.34	46398.78
579.54	46628.15
579.74	46972.21
579.94	46556.47
580.13	46413.12
580.33	46822.71
580.53	46890.29
580.73	47056.18
580.93	47191.34
581.13	46789.94
581.33	47297.84
581.53	47439.15
581.73	47142.19
581.93	47158.58
582.13	47621.42
582.33	47277.36
582.53	47320.37
582.73	47256.88
582.92	47815.97
583.12	48141.60
583.32	47742.25
583.52	47775.02
583.72	47924.52
583.92	47695.14
584.12	47797.54
584.32	48809.24
584.52	47996.20
584.72	48092.45
584.92	48325.92
585.11	48588.06
585.31	47885.61
585.51	48569.63
585.71	47879.46
585.91	48225.57
586.11	48280.86
586.31	48354.59
586.51	48207.14
586.71	48803.10
586.91	48968.98
587.10	48723.22
587.30	48614.68
587.50	48821.53
587.70	48934.17
587.90	48762.14
588.10	48936.21
588.30	49243.41
588.50	48690.46
588.69	49169.68
588.89	48942.36
589.09	49104.15
589.29	48954.64
589.49	49480.97
589.69	49401.10
589.89	49556.75
590.08	49429.77
590.28	49403.15
590.48	48913.69
590.68	49423.63
590.88	49351.95
591.08	49427.73
591.28	49104.15
591.47	49788.17
591.67	49927.43
591.87	49550.60
592.07	49833.22
592.27	49706.25
592.47	50025.73
592.67	49681.67
592.86	49673.48
593.06	50205.95
593.26	50330.88
593.46	50115.84
593.66	49896.71
593.86	50050.31
594.05	50095.36
594.25	50369.79
594.45	50138.37
594.65	50136.32
594.85	50214.15
595.05	50453.76
595.24	50445.57
595.44	50242.82
595.64	50836.73
595.84	50638.08
596.04	50453.76
596.23	50414.85
596.43	51059.96
596.63	50660.60
596.83	50885.88
597.03	50715.90
597.22	51039.48
597.42	50961.65
597.62	51162.36
597.82	50922.74
598.02	51383.54
598.21	51371.25
598.41	51166.45
598.61	51420.40
598.81	51363.06
599.01	51688.68
599.20	51760.36
599.40	50980.09
599.60	51555.57
599.80	51723.50
600.00	51395.82
600.19	52120.80
600.39	51565.81
600.59	52151.52
600.79	52473.06
600.98	52008.17
601.18	52270.31
601.38	52200.68
601.58	52403.42
601.78	52141.28
601.97	51928.30
602.17	52776.15
602.37	52393.18
602.57	52384.99
602.76	52606.17
602.96	52761.82
603.16	53034.20
603.36	52827.35
603.55	52917.46
603.75	52626.65
603.95	53124.31
604.15	52851.93
604.34	52507.87
604.54	52964.57
604.74	53353.68
604.94	53040.34
605.13	53181.65
605.33	52892.89
605.53	53320.91
605.73	53464.27
605.92	53220.56
606.12	53394.64
606.32	53998.79
606.52	53376.21
606.71	53691.60
606.91	53535.95
607.11	53499.09
607.30	53523.66
607.50	53286.10
607.70	53943.50
607.90	53691.60
608.09	53339.35
608.29	54109.38
608.49	53634.25
608.68	53974.22
608.88	53912.78
609.08	53673.16
609.28	54009.03
609.47	53900.49
609.67	54494.40
609.87	53486.80
610.06	54412.48
610.26	54076.61
610.46	54138.05
610.66	53761.23
610.85	54578.37
611.05	54080.71
611.25	54641.85
611.44	54109.38
611.64	54314.18
611.84	53990.60
612.03	54056.14
612.23	54367.43
612.43	54377.67
612.62	54136.01
612.82	54727.87
613.02	54559.94
613.21	54740.16
613.41	54340.80
613.61	54408.39
613.80	54293.70
614.00	54404.29
614.20	54443.20
614.39	54512.83
614.59	54994.10
614.79	54834.36
614.98	54346.95
615.18	54383.81
615.38	54793.40
615.57	54572.22
615.77	54525.12
615.97	54873.27
616.16	54545.60
616.36	55088.31
616.56	55170.23
616.75	54877.37
616.95	53933.26
617.15	54719.68
617.34	54830.27
617.54	55069.88
617.74	54996.15
617.93	54715.58
618.13	54639.81
618.32	54797.50
618.52	54850.75
618.72	54924.47
618.91	54420.67
619.11	54860.99
619.31	54797.50
619.50	54199.49
619.70	54351.04
619.90	55080.12
620.09	55139.51
620.29	54901.95
620.48	55018.68
620.68	54736.06
620.88	54439.11
621.07	54932.67
621.27	54973.63
621.46	54316.23
621.66	54475.97
621.86	54811.84
622.05	54467.78
622.25	54981.82
622.44	54838.46
622.64	54664.38
622.84	54811.84
623.03	54660.29
623.23	54650.05
623.42	54262.98
623.62	54572.22
623.82	54695.10
624.01	54879.42
624.21	54779.07
624.40	54672.57
624.60	54545.60
624.80	54453.44
624.99	54725.82
625.19	54518.98
625.38	54762.68
625.58	54727.87
625.77	54695.10
625.97	54656.19
626.17	54222.02
626.36	54719.68
626.56	54613.18
626.75	54359.23
626.95	55153.85
627.14	54492.35
627.34	55612.59
627.54	54731.96
627.73	55090.36
627.93	55078.07
628.12	54459.58
628.32	54903.99
628.51	54686.91
628.71	54850.75
628.90	54869.18
629.10	54691.01
629.30	54445.25
629.49	54858.94
629.69	54494.40
629.88	54588.61
630.08	55129.27
630.27	55127.22
630.47	54539.46
630.66	54785.21
630.86	54746.30
631.05	53908.68
631.25	54858.94
631.44	54734.01
631.64	54951.10
631.84	54901.95
632.03	55266.48
632.23	54736.06
632.42	55442.61
632.62	55456.95
632.81	54846.65
633.01	54938.81
633.20	54973.63
633.40	55579.82
633.59	55047.35
633.79	54936.76
633.98	54903.99
634.18	55248.05
634.37	55276.72
634.57	54944.95
634.76	55530.67
634.96	55121.08
635.15	55485.62
635.35	54832.32
635.54	55071.93
635.74	55452.85
635.93	55157.94
636.13	55424.18
636.32	55385.27
636.52	54793.40
636.71	55037.11
636.91	55143.61
637.10	55424.18
637.30	55215.29
637.49	55200.95
637.69	54768.83
637.88	55491.76
638.08	54674.62
638.27	55581.87
638.46	55147.70
638.66	54805.69
638.85	54973.63
639.05	55098.55
639.24	55401.65
639.44	55098.55
639.63	55405.75
639.83	55663.79
640.02	55145.65
640.22	55432.37
640.41	55708.85
640.61	55229.62
640.80	55749.81
640.99	55051.45
641.19	55872.68
641.38	55456.95
641.58	55170.23
641.77	55592.11
641.97	55415.99
642.16	55577.78
642.36	55407.79
642.55	56054.95
642.74	55151.80
642.94	55960.75
643.13	55588.02
643.33	56052.90
643.52	55549.10
643.72	55913.64
643.91	56018.09
644.10	55932.07
644.30	55731.37
644.49	55514.29
644.69	55536.82
644.88	55741.61
645.08	55526.58
645.27	55862.44
645.46	55561.39
645.66	55989.42
645.85	55794.86
646.05	56251.56
646.24	56087.72
646.43	55778.48
646.63	56444.07
646.82	56231.08
647.02	55688.37
647.21	55964.84
647.40	56046.76
647.60	56220.84
647.79	56513.70
647.99	56413.35
648.18	55948.46
648.37	56472.74
648.57	56218.79
648.76	56044.71
648.96	56095.91
649.15	56693.92
649.34	56075.43
649.54	56403.11
649.73	55680.17
649.92	56523.94
650.12	55864.49
650.31	56442.02
650.51	56503.46
650.70	56765.60
650.89	56556.70
651.09	56833.18
651.28	56636.58
651.47	56704.16
651.67	56136.87
651.86	56906.91
652.06	56095.91
652.25	56622.24
652.44	56106.15
652.64	56437.92
652.83	56421.54
653.02	56452.26
653.22	56638.62
653.41	56173.73
653.60	56304.80
653.80	56489.12
653.99	56509.60
654.18	56222.89
654.38	56487.07
654.57	56849.56
654.76	56372.39
654.96	56267.94
655.15	56956.06
655.34	56364.20
655.54	56343.72
655.73	56738.97
655.92	56618.14
656.12	56347.81
656.31	56775.84
656.50	56349.86
656.70	57021.59
656.89	56337.57
657.08	56949.92
657.28	56835.23
657.47	56741.02
657.66	56861.85
657.86	56558.75
658.05	56454.31
658.24	56773.79
658.43	56525.99
658.63	56665.25
658.82	56908.96
659.01	56822.94
659.21	56997.02
659.40	57322.65
659.59	56603.81
659.79	57234.58
659.98	56712.35
660.17	57332.89
660.36	57017.50
660.56	56954.01
660.75	56675.49
660.94	57146.52
661.14	56616.10
661.33	56673.44
661.52	56231.08
661.71	57183.38
661.91	56579.23
662.10	56605.86
662.29	56716.45
662.49	56681.63
662.68	56614.05
662.87	56857.76
663.06	57005.21
663.26	56552.61
663.45	57040.03
663.64	57015.45
663.83	57425.04
664.03	56917.15
664.22	56808.61
664.41	57472.15
664.60	56628.38
664.80	56833.18
664.99	57097.37
665.18	56968.35
665.37	56784.03
665.57	57070.75
665.76	57052.31
665.95	57054.36
666.14	56626.34
666.34	56802.46
666.53	56964.25
666.72	56423.59
666.91	56841.37
667.11	56888.48
667.30	56538.27
667.49	56792.22
667.68	56796.32
667.87	56681.63
668.07	57228.44
668.26	56962.20
668.45	57552.02
668.64	56612.00
668.84	57334.93
669.03	57033.88
669.22	57111.70
669.41	56687.78
669.60	57343.12
669.80	56792.22
669.99	56853.66
670.18	56534.18
670.37	56788.13
670.57	57406.61
670.76	57085.08
670.95	57179.29
671.14	56861.85
671.33	56409.25
671.53	57222.29
671.72	56861.85
671.91	56646.82
672.10	56978.59
672.29	57234.58
672.48	56923.29
672.68	57212.06
672.87	56710.30
673.06	56966.30
673.25	56837.28
673.44	56792.22
673.64	56677.54
673.83	56824.99
674.02	56487.07
674.21	56468.64
674.40	56671.39
674.59	56491.17
674.79	56556.70
674.98	56745.12
675.17	56720.54
675.36	56411.30
675.55	56898.72
675.74	56407.20
675.94	56786.08
676.13	56595.62
676.32	56620.19
676.51	57289.88
676.70	56919.20
676.89	56186.02
677.08	57144.47
677.28	56669.34
677.47	56757.41
677.66	56784.03
677.85	56624.29
678.04	56941.72
678.23	57435.28
678.42	56870.04
678.62	56951.96
678.81	56743.07
679.00	57066.65
679.19	57291.93
679.38	57054.36
679.57	56540.32
679.76	56620.19
679.96	56890.52
680.15	57037.98
680.34	56773.79
680.53	56571.04
680.72	57040.03
680.91	57007.26
681.10	56302.76
681.29	56724.64
681.48	56792.22
681.68	56685.73
681.87	56642.72
682.06	56583.33
682.25	56192.17
682.44	56540.32
682.63	56579.23
682.82	56046.76
683.01	56497.31
683.20	56243.37
683.39	56204.45
683.59	55952.55
683.78	56087.72
683.97	56296.61
684.16	56345.76
684.35	56093.86
684.54	55811.24
684.73	55991.47
684.92	56196.26
685.11	55565.49
685.30	56016.04
685.49	56257.70
685.69	55985.32
685.88	55772.33
686.07	55540.91
686.26	55983.27
686.45	56194.21
686.64	56370.34
686.83	56059.05
687.02	56087.72
687.21	56186.02
687.40	56048.81
687.59	55893.16
687.78	55766.19
687.97	56138.92
688.16	55719.09
688.35	55934.12
688.54	55708.85
688.74	55784.62
688.93	55714.99
689.12	55981.23
689.31	55934.12
689.50	55846.06
689.69	55440.56
689.88	55391.41
690.07	55551.15
690.26	55071.93
690.45	55745.71
690.64	55522.48
690.83	55409.84
691.02	55561.39
691.21	55639.22
691.40	55549.10
691.59	55399.60
691.78	55493.81
691.97	55923.88
692.16	55688.37
692.35	55393.46
692.54	55665.84
692.73	55268.53
692.92	55309.49
693.11	55088.31
693.30	55411.89
693.49	54973.63
693.68	55246.00
693.87	55067.83
694.06	54879.42
694.25	54918.33
694.44	54840.51
694.63	55194.81
694.82	55305.40
695.01	55116.98
695.20	54990.01
695.39	55110.84
695.58	55065.78
695.77	54496.45
695.96	54564.03
696.15	55186.61
696.34	54551.74
696.53	54918.33
696.72	54828.22
696.91	54893.75
697.10	55145.65
697.29	54645.95
697.48	55065.78
697.67	54279.36
697.86	54191.30
698.05	54881.47
698.24	55006.39
698.43	54408.39
698.62	54627.52
698.81	54308.04
699.00	54641.85
699.19	53943.50
699.38	54830.27
699.57	54310.08
699.76	55045.30
699.95	54287.56
700.14	54506.69
700.32	54138.05
700.51	54760.64
700.70	54500.54
700.89	54236.36
701.08	54305.99
701.27	54303.94
701.46	54336.71
701.65	53998.79
701.84	53968.07
702.03	54508.74
702.22	53789.90
702.41	53843.15
702.60	54398.15
702.79	54125.77
702.98	53773.52
703.17	53669.07
703.35	53998.79
703.54	53935.30
703.73	54031.56
703.92	53558.48
704.11	54383.81
704.30	53628.11
704.49	53388.50
704.68	53220.56
704.87	53732.56
705.06	53568.72
705.25	53648.59
705.43	53181.65
705.62	53806.28
705.81	53374.16
706.00	53230.80
706.19	53370.07
706.38	53472.46
706.57	53490.90
706.76	53355.73
706.95	53425.36
707.14	52847.83
707.32	53343.44
707.51	52964.57
707.70	52970.71
707.89	52894.94
708.08	53157.08
708.27	53333.20
708.46	53535.95
708.65	52931.80
708.84	53337.30
709.02	53296.34
709.21	53587.15
709.40	53173.46
709.59	53355.73
709.78	53038.29
709.97	53064.92
710.16	52819.16
710.34	52845.79
710.53	52851.93
710.72	52753.63
710.91	52997.34
711.10	52706.52
711.29	52602.08
711.48	52821.21
711.66	52952.28
711.85	52432.10
712.04	52679.90
712.23	52372.70
712.42	52507.87
712.61	52323.55
712.80	52516.06
712.98	52501.73
713.17	52454.62
713.36	52352.23
713.55	52182.24
713.74	52210.92
713.93	52528.35
714.11	52311.27
714.30	51885.29
714.49	52258.02
714.68	52526.30
714.87	52389.09
715.06	52331.75
715.24	51737.83
715.43	51954.92
715.62	51887.34
715.81	51754.22
716.00	51899.62
716.18	51625.20
716.37	51729.64
716.56	51582.19
716.75	52249.83
716.94	51295.47
717.12	50961.65
717.31	51250.42
717.50	51866.86
717.69	51469.55
717.88	51430.64
718.06	51287.28
718.25	51584.24
718.44	50947.32
718.63	51195.12
718.82	51166.45
719.00	51158.26
719.19	51115.25
719.38	50900.22
719.57	50795.77
719.76	50529.53
719.94	50218.24
720.13	50656.51
720.32	50857.21
720.51	50674.94
720.69	50322.69
720.88	50742.52
721.07	50525.44
721.26	50009.35
721.44	50398.46
721.63	50187.52
721.82	50214.15
722.01	50160.90
722.20	50195.71
722.38	49673.48
722.57	49642.76
722.76	50322.69
722.95	49673.48
723.13	49945.86
723.32	49818.89
723.51	49550.60
723.70	49466.64
723.88	49892.61
724.07	49634.57
724.26	49935.62
724.44	48928.02
724.63	49726.73
724.82	49370.38
725.01	49505.55
725.19	49399.05
725.38	49087.76
725.57	49329.42
725.76	49767.69
725.94	49075.48
726.13	49169.68
726.32	49075.48
726.51	48919.83
726.69	49773.83
726.88	49679.63
727.07	49302.80
727.25	49388.81
727.44	49075.48
727.63	48944.41
727.82	49206.55
728.00	48932.12
728.19	49177.87
728.38	48966.93
728.56	48514.33
728.75	49231.12
728.94	49061.14
729.12	48991.51
729.31	49124.63
729.50	48543.00
729.69	48968.98
729.87	49106.19
730.06	48723.22
730.25	48839.96
730.43	48719.13
730.62	48796.95
730.81	48925.97
730.99	48805.14
731.18	48850.20
731.37	48950.55
731.55	49073.43
731.74	48676.12
731.93	49089.81
732.11	48633.11
732.30	48878.87
732.49	48684.31
732.67	48809.24
732.86	48618.78
733.05	48919.83
733.23	48303.39
733.42	48340.25
733.61	48454.94
733.79	48602.39
733.98	49149.20
734.17	48340.25
734.35	49034.52
734.54	48424.22
734.73	48575.77
734.91	48358.69
735.10	48162.08
735.29	49052.95
735.47	48280.86
735.66	48553.24
735.84	48186.66
736.03	48422.17
736.22	48987.41
736.40	48239.90
736.59	48493.85
736.78	48649.50
736.96	48252.19
737.15	48682.27
737.33	48049.44
737.52	48340.25
737.71	48117.03
737.89	48059.68
738.08	47740.20
738.27	47828.26
738.45	48641.31
738.64	48350.49
738.82	47678.76
739.01	48020.77
739.20	48147.75
739.38	47959.33
739.57	48106.79
739.75	48424.22
739.94	47973.67
740.13	47455.53
740.31	47656.23
740.50	47813.93
740.68	47787.30
740.87	48002.34
741.06	47756.58
741.24	47656.23
741.43	47568.17
741.61	47594.79
741.80	47584.55
741.99	47510.83
742.17	47191.34
742.36	47539.50
742.54	47541.55
742.73	47596.84
742.91	47242.54
743.10	47764.78
743.29	47940.90
743.47	47412.52
743.66	47439.15
743.84	47256.88
744.03	47392.04
744.21	46873.91
744.40	47514.92
744.59	47207.73
744.77	46943.54
744.96	47093.04
745.14	47248.69
745.33	47277.36
745.51	47328.56
745.70	47230.26
745.88	46523.71
746.07	46904.63
746.26	46769.46
746.44	47111.47
746.63	46871.86
746.81	47228.21
747.00	46703.93
747.18	46730.55
747.37	46990.64
747.55	46355.77
747.74	47076.66
747.92	46855.48
748.11	46337.34
748.29	46820.66
748.48	46871.86
748.66	46775.61
748.85	46624.06
749.03	47078.71
749.22	46703.93
749.41	46441.79
749.59	45940.04
749.78	46144.83
749.96	46007.62
750.15	45612.36
750.33	46478.65
750.52	46132.54
750.70	46480.70
750.89	45720.90
751.07	45927.75
751.26	46265.66
751.44	46146.88
751.63	45862.21
751.81	45550.92
752.00	45579.59
752.18	46114.11
752.37	45626.70
752.55	45522.25
752.74	45489.48
752.92	45532.49
753.10	45557.06
753.29	45708.61
753.47	45552.97
753.66	45446.47
753.84	45548.87
754.03	45385.04
754.21	45178.19
754.40	45331.79
754.58	45747.53
754.77	45344.08
754.95	45004.11
755.14	45180.24
755.32	45280.59
755.51	44907.86
755.69	45100.37
755.88	44875.09
756.06	45129.04
756.24	44301.66
756.43	44983.63
756.61	44989.78
756.80	44825.94
756.98	44789.08
757.17	44453.21
757.35	44977.49
757.54	44522.84
757.72	45020.50
757.90	44393.82
758.09	44629.34
758.27	44447.07
758.46	44254.56
758.64	44666.20
758.83	44795.22
759.01	44668.25
759.19	44410.20
759.38	44664.15
759.56	44684.63
759.75	44361.05
759.93	44778.84
760.12	44279.13
760.30	44215.65
760.48	43853.15
760.67	44365.15
760.85	44033.38
761.04	44172.64
761.22	44291.42
761.40	44203.36
761.59	43672.93
761.77	43822.44
761.96	44004.70
762.14	44000.61
762.32	43857.25
762.51	43660.65
762.69	43890.02
762.88	44027.23
763.06	43898.21
763.24	43806.05
763.43	43818.34
763.61	43877.73
763.80	43748.71
763.98	43099.50
764.16	43500.90
764.35	43261.29
764.53	42933.62
764.72	43414.89
764.90	43101.55
765.08	42839.41
765.27	43330.92
765.45	43058.54
765.63	42401.14
765.82	43021.68
766.00	42405.24
766.18	42851.70
766.37	43513.19
766.55	42706.29
766.74	42851.70
766.92	42859.89
767.10	42845.55
767.29	42712.44
767.47	42237.31
767.65	42886.51
767.84	42286.46
768.02	42245.50
768.20	42229.12
768.39	42734.96
768.57	42560.89
768.75	42220.92
768.94	42392.95
769.12	42327.42
769.30	42116.48
769.49	42507.64
769.67	41973.12
769.85	41784.71
770.04	42073.47
770.22	41821.57
770.40	41848.19
770.59	41917.82
770.77	42085.76
770.95	42022.27
771.14	41100.68
771.32	41631.11
771.50	41344.39
771.69	41483.66
771.87	41870.72
772.05	41377.16
772.24	41108.88
772.42	41444.74
772.60	41178.51
772.78	40949.14
772.97	40942.99
773.15	41590.15
773.33	41215.37
773.52	41377.16
773.70	41311.63
773.88	41305.48
774.07	40680.85
774.25	41475.46
774.43	41627.01
774.61	41100.68
774.80	41203.08
774.98	41051.53
775.16	41262.47
775.34	41227.66
775.53	40963.47
775.71	41360.78
775.89	41319.82
776.08	41252.23
776.26	41317.77
776.44	41168.27
776.62	41917.82
776.81	41342.35
776.99	41407.88
777.17	41250.19
777.35	41569.67
777.54	41760.13
777.72	41125.26
777.90	41352.58
778.08	41239.95
778.27	41166.22
778.45	41768.32
778.63	41604.49
778.81	41422.22
779.00	42321.27
779.18	41776.51
779.36	41858.43
779.54	41594.25
779.73	41463.18
779.91	42220.92
780.09	41840.00
780.27	41907.58
780.46	42014.08
780.64	42124.67
780.82	41674.12
781.00	41907.58
781.19	42034.56
781.37	41790.85
781.55	42001.79
781.73	42337.66
781.91	41811.33
782.10	42055.04
782.28	42005.89
782.46	41928.06
782.64	42528.12
782.82	42022.27
783.01	42247.55
783.19	42218.88
783.37	42431.86
783.55	42071.42
783.74	42257.79
783.92	42067.33
784.10	42505.59
784.28	41874.82
784.46	41612.68
784.64	42050.94
784.83	41897.34
785.01	42538.36
785.19	42212.73
785.37	42235.26
785.55	42251.64
785.74	41645.44
785.92	41524.61
786.10	42194.30
786.28	42106.24
786.46	41825.67
786.64	41766.27
786.83	42093.95
787.01	42063.23
787.19	41600.39
787.37	42096.00
787.55	41667.97
787.74	41170.32
787.92	41870.72
788.10	41637.25
788.28	41620.87
788.46	41704.84
788.64	41069.97
788.82	41840.00
789.01	41645.44
789.19	41686.40
789.37	41471.37
789.55	41538.95
789.73	41186.70
789.91	40957.33
790.09	41151.88
790.28	40619.41
790.46	40338.84
790.64	41336.20
790.82	40848.78
791.00	40545.69
791.18	40375.70
791.36	40752.53
791.55	40693.14
791.73	40557.97
791.91	40013.21
792.09	40625.56
792.27	40025.50
792.45	40736.15
792.63	40175.00
792.81	39796.13
793.00	39941.53
793.18	39830.94
793.36	39937.44
793.54	39472.55
793.72	39783.84
793.90	39706.02
794.08	39409.06
794.26	39761.31
794.44	39339.43
794.62	39083.44
794.81	39171.50
794.99	38987.18
795.17	39073.20
795.35	39364.01
795.53	39380.39
795.71	38987.18
795.89	38471.09
796.07	38690.23
796.25	38499.76
796.43	38462.90
796.61	38327.74
796.80	38155.71
796.98	38258.10
797.16	38370.74
797.34	37801.41
797.52	37967.29
797.70	38204.86
797.88	37719.49
798.06	37744.06
798.24	37746.11
798.42	37555.65
798.60	37653.95
798.78	37402.05
798.96	37463.49
799.14	37348.81
799.32	37748.16
799.51	37002.70
799.69	37172.68
799.87	37023.18
800.05	36982.22
800.23	37219.78
800.41	36928.97
800.59	36503.00
800.77	36804.05
800.95	36355.54
801.13	36543.95
801.31	36128.22
801.49	36533.71
801.67	36457.94
801.85	36302.29
802.03	36081.11
802.21	36087.26
802.39	35974.62
802.57	36333.01
802.75	35692.00
802.93	35972.57
803.11	35878.36
803.29	35417.57
803.47	35528.16
803.65	35485.15
803.83	35274.21
804.01	35206.63
804.19	35188.20
804.37	34964.97
804.55	35075.56
804.73	35059.18
804.91	35010.03
805.09	35089.90
805.27	34694.64
805.45	34819.56
805.63	34743.79
805.81	34741.74
805.99	35038.70
806.17	34934.25
806.35	34369.01
806.53	34057.72
806.71	34502.13
806.89	34311.67
807.07	34113.02
807.25	34076.15
807.43	34209.27
807.61	34215.41
807.79	34106.87
807.97	33519.10
808.15	33625.60
808.33	33797.63
808.51	33406.47
808.69	33443.33
808.87	33334.79
809.05	33156.61
809.23	33193.48
809.41	32949.77
809.59	33179.14
809.77	33220.10
809.95	32687.63
810.13	33304.07
810.31	32876.04
810.49	32966.15
810.67	33025.54
810.84	32603.66
811.02	32902.67
811.20	32435.73
811.38	32638.48
811.56	32431.63
811.74	32157.21
811.92	32470.54
812.10	32349.71
812.28	32611.85
812.46	32390.67
812.64	32273.94
812.82	32103.96
813.00	32077.33
813.18	32108.05
813.36	31915.54
813.53	31862.30
813.71	31766.04
813.89	31735.32
814.07	32028.18
814.25	31571.49
814.43	31567.39
814.61	31899.16
814.79	31551.01
814.97	31669.79
815.15	31471.14
815.33	31114.79
815.50	31383.07
815.68	31209.00
815.86	31589.92
816.04	30924.33
816.22	30697.00
816.40	30862.89
816.58	30701.10
816.76	30840.36
816.94	30586.41
817.11	30729.77
817.29	30600.75
817.47	30537.26
817.65	30350.90
817.83	30516.78
818.01	30385.71
818.19	30787.11
818.37	30230.07
818.54	30152.24
818.72	29845.05
818.90	30424.62
819.08	30004.79
819.26	29937.21
819.44	30264.88
819.62	30080.56
819.80	30142.00
819.97	30117.43
820.15	29783.61
820.33	29443.65
820.51	29824.57
820.69	29595.20
820.87	29572.67
821.05	30213.68
821.22	29529.66
821.40	29331.01
821.58	29263.43
821.76	29666.88
821.94	29562.43
822.12	29439.55
822.29	29693.50
822.47	29185.60
822.65	29668.92
822.83	29169.22
823.01	29382.21
823.19	28804.68
823.36	29009.48
823.54	28986.95
823.72	28923.46
823.90	28610.12
824.08	28460.62
824.25	29034.05
824.43	28833.35
824.61	28849.74
824.79	28845.64
824.97	28610.12
825.15	28524.11
825.32	28683.85
825.50	28274.26
825.68	28507.72
825.86	28612.17
826.04	28763.72
826.21	28542.54
826.39	28606.03
826.57	28292.69
826.75	28124.75
826.93	28114.52
827.10	28063.32
827.28	28204.63
827.46	28440.14
827.64	27930.20
827.81	27835.99
827.99	28196.43
828.17	27958.87
828.35	27709.02
828.53	27549.28
828.70	27764.31
828.88	27639.39
829.06	28069.46
829.24	28167.76
829.41	27586.14
829.59	27897.43
829.77	27823.70
829.95	27670.11
830.12	27295.33
830.30	27383.39
830.48	27430.49
830.66	27450.97
830.84	27528.80
831.01	27393.63
831.19	27221.60
831.37	27313.76
831.55	27053.67
831.72	27276.90
831.90	27117.15
832.08	27231.84
832.25	27156.07
832.43	27108.96
832.61	26830.44
832.79	26881.64
832.96	26861.16
833.14	27033.19
833.32	26570.35
833.50	26971.75
833.67	26678.89
833.85	26769.00
834.03	26351.21
834.20	26594.92
834.38	26709.61
834.56	26789.48
834.74	26599.02
834.91	26400.37
835.09	26506.86
835.27	26312.30
835.44	26338.93
835.62	25943.67
835.80	26156.66
835.98	26394.22
836.15	26330.73
836.33	26240.62
836.51	26207.86
836.68	25867.89
836.86	26379.89
837.04	26228.34
837.21	26470.00
837.39	26259.06
837.57	25988.72
837.75	26168.94
837.92	25659.00
838.10	25659.00
838.28	25892.47
838.45	25863.80
838.63	25593.47
838.81	25554.55
838.98	25585.27
839.16	25552.51
839.34	25663.10
839.51	25513.59
839.69	25316.99
839.87	25486.97
840.04	25087.62
840.22	25536.12
840.40	25491.07
840.57	25302.65
840.75	25321.09
840.93	25278.08
841.10	25267.84
841.28	25273.98
841.46	25108.10
841.63	25161.34
841.81	25349.76
841.98	24817.29
842.16	25333.37
842.34	25308.80
842.51	24841.86
842.69	25147.01
842.87	24886.92
843.04	24870.53
843.22	24721.03
843.40	24626.82
843.57	24354.44
843.75	24714.89
843.92	24792.71
844.10	24626.82
844.28	24749.70
844.45	24641.16
844.63	24702.60
844.81	24751.75
844.98	24872.58
845.16	24530.57
845.33	24852.10
845.51	24510.09
845.69	24473.23
845.86	24229.52
846.04	24297.10
846.21	24225.42
846.39	24430.22
846.57	24004.24
846.74	24331.92
846.92	24303.25
847.09	24120.98
847.27	24051.34
847.45	24360.59
847.62	24209.04
847.80	24565.39
847.97	24127.12
848.15	24030.87
848.32	23770.77
848.50	23682.71
848.68	23576.22
848.85	23701.14
849.03	23432.86
849.20	23783.06
849.38	23936.66
849.56	23690.90
849.73	23355.04
849.91	23705.24
850.08	23754.39
850.26	23486.11
850.43	23619.22
850.61	23645.85
850.78	23174.81
850.96	23396.00
851.14	23436.95
851.31	23465.63
851.49	23223.97
851.66	23830.16
851.84	23469.72
852.01	23283.36
852.19	23279.26
852.36	23223.97
852.54	23115.42
852.71	23236.25
852.89	23361.18
853.07	23094.94
853.24	23221.92
853.42	23051.94
853.59	23103.14
853.77	23176.86
853.94	23203.49
854.12	23023.26
854.29	22963.87
854.47	23127.71
854.64	23047.84
854.82	22795.94
854.99	22836.90
855.17	22793.89
855.34	23004.83
855.52	22677.16
855.69	22937.25
855.87	22224.56
856.04	22468.27
856.22	22767.27
856.39	22458.03
856.57	22320.81
856.74	22484.65
856.92	22681.25
857.09	22369.96
857.27	22238.89
857.44	22617.77
857.62	22589.10
857.79	22316.72
857.97	22599.34
858.14	22382.25
858.32	22316.72
858.49	22179.50
858.67	22216.36
858.84	22259.37
859.02	22189.74
859.19	22187.69
859.37	22144.69
859.54	21984.94
859.72	22095.53
859.89	22267.56
860.06	21989.04
860.24	22048.43
860.41	22271.66
860.59	21712.56
860.76	22052.53
860.94	21593.78
861.11	21878.45
861.29	21923.51
861.46	21561.02
861.64	21599.93
861.81	21726.90
861.98	21728.95
862.16	21536.44
862.33	21448.38
862.51	21452.47
862.68	21843.63
862.86	21583.54
863.03	21536.44
863.21	21612.21
863.38	21583.54
863.55	21327.55
863.73	21151.42
863.90	21378.75
864.08	21278.40
864.25	21075.65
864.43	21182.14
864.60	21360.31
864.77	21290.68
864.95	20965.06
865.12	21167.80
865.30	21251.77
865.47	21081.79
865.64	21151.42
865.82	21092.03
865.99	21225.15
866.17	20903.62
866.34	20815.55
866.51	20446.92
866.69	20928.19
866.86	20803.27
867.04	20989.63
867.21	20596.42
867.38	20537.03
867.56	20473.54
867.73	20522.69
867.91	20461.26
868.08	20274.89
868.25	20641.48
868.43	20301.51
868.60	20281.03
868.78	20182.73
868.95	20354.76
869.12	20319.95
869.30	20190.92
869.47	20219.60
869.64	20090.57
869.82	20324.04
869.99	19928.78
870.16	20037.33
870.34	20133.58
870.51	20133.58
870.69	19904.21
870.86	20049.61
871.03	20066.00
871.21	20192.97
871.38	20066.00
871.55	19984.08
871.73	19826.39
871.90	19547.86
872.07	19631.83
872.25	19551.96
872.42	19504.85
872.59	19703.51
872.77	19488.47
872.94	19601.11
873.11	19480.28
873.29	19812.05
873.46	19482.33
873.63	19412.70
873.81	19562.20
873.98	19175.13
874.15	19007.20
874.33	19187.42
874.50	18966.24
874.67	19189.47
874.85	19070.68
875.02	18996.96
875.19	19044.06
875.37	18804.45
875.54	18743.01
875.71	19027.68
875.88	18976.48
876.06	18771.68
876.23	18964.19
876.40	18763.49
876.58	18745.06
876.75	18405.10
876.92	18562.79
877.10	18575.08
877.27	18476.77
877.44	18691.81
877.61	18271.98
877.79	18384.62
877.96	18403.05
878.13	18290.41
878.31	18044.65
878.48	18384.62
878.65	18286.31
878.82	18155.24
879.00	18286.31
879.17	18120.43
879.34	18188.01
879.51	17938.16
879.69	17952.49
879.86	18020.08
880.03	18034.41
880.21	18005.74
880.38	17870.58
880.55	18243.31
880.72	17827.57
880.90	17903.34
881.07	17690.35
881.24	17911.53
881.41	17776.37
881.59	17919.73
881.76	17606.39
881.93	17934.06
882.10	17348.34
882.28	17528.56
882.45	17704.69
882.62	17557.24
882.79	17489.65
882.96	17483.51
883.14	17538.80
883.31	17553.14
883.48	17585.91
883.65	17585.91
883.83	17491.70
884.00	17370.87
884.17	17252.09
884.34	17350.39
884.51	17075.96
884.69	17153.79
884.86	17202.94
885.03	17147.64
885.20	17114.87
885.38	17235.70
885.55	17137.40
885.72	17223.42
885.89	17141.50
886.06	16955.13
886.24	16824.06
886.41	16989.95
886.58	17170.17
886.75	17112.83
886.92	16717.57
887.10	17112.83
887.27	16826.11
887.44	16803.58
887.61	17219.32
887.78	16944.89
887.95	16985.85
888.13	16719.62
888.30	16703.23
888.47	16824.06
888.64	16889.60
888.81	16559.88
888.99	16779.01
889.16	16549.64
889.33	16520.96
889.50	16656.13
889.67	16625.41
889.84	16334.60
890.01	16338.69
890.19	16303.88
890.36	16332.55
890.53	16455.43
890.70	16234.25
890.87	16297.74
891.04	16109.32
891.22	16254.73
891.39	16181.00
891.56	16051.98
891.73	16213.77
891.90	16193.29
892.07	15949.58
892.24	16109.32
892.42	15814.41
892.59	15865.61
892.76	15922.96
892.93	16070.41
893.10	16133.90
893.27	15908.62
893.44	15896.33
893.61	15841.04
893.79	16176.91
893.96	15949.58
894.13	15838.99
894.30	15998.73
894.47	16027.40
894.64	15879.95
894.81	15931.15
894.98	15961.87
895.15	15904.53
895.33	15871.76
895.50	16090.89
895.67	15675.15
895.84	15843.09
896.01	15539.99
896.18	15666.96
896.35	16043.79
896.52	15902.48
896.69	15634.19
896.86	15697.68
897.04	15795.98
897.21	15474.45
897.38	15599.38
897.55	15671.06
897.72	15732.50
897.89	15587.09
898.06	15636.24
898.23	15699.73
898.40	15621.91
898.57	15734.54
898.74	15666.96
898.91	15492.88
899.08	15437.59
899.26	15599.38
899.43	15576.85
899.60	15449.88
899.77	15537.94
899.94	15550.23
900.11	15406.87
900.28	15701.78
900.45	15400.72
900.62	15685.39
900.79	15609.62
900.96	15265.56
901.13	15619.86
901.30	15396.63
901.47	15388.44
901.64	15535.89
901.81	15445.78
901.98	15212.31
902.15	15787.79
902.32	15355.67
902.49	15609.62
902.66	15503.12
902.83	15703.82
903.01	15722.26
903.18	15503.12
903.35	15593.23
903.52	15527.70
903.69	15779.60
903.86	15505.17
904.03	15372.05
904.20	15560.47
904.37	15599.38
904.54	15558.42
904.71	15474.45
904.88	15550.23
905.05	15480.60
905.22	15515.41
905.39	15359.77
905.56	15509.27
905.73	15185.69
905.90	15277.85
906.07	15396.63
906.24	15537.94
906.41	15488.79
906.58	15464.21
906.75	15363.86
906.92	15380.25
907.09	15531.80
907.26	15398.68
907.43	15222.55
907.60	15374.10
907.77	15343.38
907.93	15683.34
908.10	15195.93
908.27	15519.51
908.44	15157.02
908.61	15367.96
908.78	15372.05
908.95	15292.18
909.12	15253.27
909.29	15271.70
909.46	15130.39
909.63	15474.45
909.80	15533.84
909.97	15367.96
910.14	15378.20
910.31	15124.25
910.48	15294.23
910.65	15333.14
910.82	15177.50
910.99	15236.89
911.16	15056.67
911.33	15019.80
911.50	15150.87
911.66	14835.49
911.83	15120.15
912.00	14995.23
912.17	14919.45
912.34	15075.10
912.51	14937.88
912.68	14731.04
912.85	14835.49
913.02	14759.71
913.19	14907.16
913.36	14761.76
913.53	14692.13
913.70	14745.38
913.86	14843.68
914.03	14761.76
914.20	14710.56
914.37	14970.65
914.54	14591.78
914.71	14628.64
914.88	14626.59
915.05	14616.35
915.22	14493.47
915.39	14708.51
915.55	14663.46
915.72	14489.38
915.89	14329.64
916.06	14276.39
916.23	14384.93
916.40	14296.87
916.57	14214.95
916.74	14407.46
916.91	14094.12
917.07	13791.02
917.24	13971.24
917.41	14016.30
917.58	13809.45
917.75	13879.08
917.92	13735.73
918.09	13807.41
918.26	13928.24
918.42	13846.32
918.59	13768.49
918.76	13711.15
918.93	13690.67
919.10	13674.29
919.27	13711.15
919.44	13813.55
919.60	13643.57
919.77	13637.42
919.94	13451.06
920.11	13397.81
920.28	13588.27
920.45	13260.60
920.61	12975.93
920.78	13195.06
920.95	13346.61
921.12	13096.76
921.29	13197.11
921.46	13338.42
921.62	12986.17
921.79	13104.95
921.96	13131.58
922.13	13041.46
922.30	12857.15
922.47	12721.98
922.63	12777.28
922.80	12693.31
922.97	12521.28
923.14	12388.16
923.31	12662.59
923.47	12459.84
923.64	12799.80
923.81	12668.73
923.98	12478.27
924.15	12181.32
924.32	12443.46
924.48	12404.55
924.65	12568.38
924.82	12302.15
924.99	12283.72
925.15	12205.89
925.32	12369.73
925.49	11749.20
925.66	11882.31
925.83	11999.05
925.99	11947.85
926.16	11931.47
926.33	11771.72
926.50	11695.95
926.67	11880.27
926.83	11650.89
927.00	11550.54
927.17	11458.39
927.34	11476.82
927.50	11396.95
927.67	11607.89
927.84	11427.67
928.01	11407.19
928.17	11155.29
928.34	11208.53
928.51	11157.33
928.68	11226.96
928.84	11194.20
929.01	10946.39
929.18	10899.29
929.35	11005.78
929.51	10913.63
929.68	10833.75
929.85	10657.63
930.02	10694.49
930.18	10749.79
930.35	10745.69
930.52	10536.80
930.69	10553.18
930.85	10768.22
931.02	10452.83
931.19	10434.40
931.36	10389.35
931.52	10506.08
931.69	10407.78
931.86	10383.20
932.02	10334.05
932.19	10125.16
932.36	10135.40
932.53	10172.26
932.69	10241.89
932.86	10051.43
933.03	10190.69
933.19	9822.06
933.36	9875.31
933.53	9971.56
933.70	9666.41
933.86	9813.87
934.03	9699.18
934.20	9758.57
934.36	9496.43
934.53	9330.55
934.70	9408.37
934.86	9291.63
935.03	9203.57
935.20	9246.58
935.36	9262.96
935.53	9092.98
935.70	9305.97
935.86	9179.00
936.03	8916.86
936.20	8736.63
936.36	8765.31
936.53	8765.31
936.70	8707.96
936.86	8712.06
937.03	8478.59
937.20	8439.68
937.36	8269.70
937.53	8144.77
937.70	8116.10
937.86	8073.09
938.03	8023.94
938.20	8208.26
938.36	7919.50
938.53	7847.82
938.70	7557.00
938.86	7589.77
939.03	7491.47
939.20	7518.09
939.36	7413.65
939.53	7409.55
939.70	7421.84
939.86	7104.40
940.03	6995.86
940.19	6936.47
940.36	6864.79
940.53	6897.56
940.69	6692.76
940.86	6760.34
941.03	6557.60
941.19	6506.40
941.36	6510.49
941.52	6438.81
941.69	6363.04
941.86	6369.18
942.02	6174.63
942.19	6229.92
942.35	6348.70
942.52	6234.02
942.69	6141.86
942.85	5883.81
943.02	5984.16
943.18	6004.64
943.35	5875.62
943.52	5844.90
943.68	5808.04
943.85	5877.67
944.01	5584.81
944.18	5676.97
944.35	5855.14
944.51	5662.63
944.68	5664.68
944.84	5672.87
945.01	5484.46
945.17	5576.62
945.34	5578.67
945.51	5498.80
945.67	5527.47
945.84	5515.18
946.00	5369.77
946.17	5371.82
946.33	5367.73
946.50	5431.21
946.67	5416.88
946.83	5412.78
947.00	5494.70
947.16	5380.01
947.33	5425.07
947.49	5277.62
947.66	5269.42
947.82	5386.16
947.99	5427.12
948.16	5373.87
948.32	5386.16
948.49	5431.21
948.65	5527.47
948.82	5324.72
948.98	5341.10
949.15	5113.78
949.31	5287.86
949.48	5402.54
949.64	5232.56
949.81	5316.53
949.97	5380.01
950.14	5451.69
950.30	5113.78
950.47	5541.80
950.63	5355.44
950.80	5371.82
950.96	5369.77
951.13	5400.49
951.30	5488.56
951.46	5457.84
951.63	5402.54
951.79	5406.64
951.96	5427.12
952.12	5451.69
952.29	5498.80
952.45	5449.64
952.62	5375.92
952.78	5625.77
952.94	5406.64
953.11	5433.26
953.27	5367.73
953.44	5566.38
953.60	5351.34
953.77	5580.71
953.93	5513.13
954.10	5500.84
954.26	5451.69
954.43	5457.84
954.59	5576.62
954.76	5613.48
954.92	5552.04
955.09	5590.95
955.25	5607.34
955.42	5461.93
955.58	5529.52
955.75	5490.60
955.91	5410.73
956.07	5394.35
956.24	5564.33
956.40	5474.22
956.57	5584.81
956.73	5425.07
956.90	5599.15
957.06	5517.23
957.23	5566.38
957.39	5287.86
957.56	5541.80
957.72	5492.65
957.88	5566.38
958.05	5619.63
958.21	5537.71
958.38	5394.35
958.54	5541.80
958.71	5744.55
958.87	5431.21
959.03	5533.61
959.20	5488.56
959.36	5560.24
959.53	5558.19
959.69	5351.34
959.85	5562.28
960.02	5310.38
960.18	5595.05
960.35	5476.27
960.51	5697.45
960.68	5527.47
960.84	5521.32
961.00	5470.12
961.17	5470.12
961.33	5420.97
961.50	5423.02
961.66	5474.22
961.82	5535.66
961.99	5611.43
962.15	5443.50
962.31	5400.49
962.48	5406.64
962.64	5603.24
962.81	5353.39
962.97	5472.17
963.13	5623.72
963.30	5646.25
963.46	5377.97
963.62	5455.79
963.79	5554.09
963.95	5433.26
964.12	5410.73
964.28	5470.12
964.44	5459.88
964.61	5339.05
964.77	5396.40
964.93	5617.58
965.10	5359.53
965.26	5412.78
965.42	5304.24
965.59	5294.00
965.75	5423.02
965.92	5394.35
966.08	5328.81
966.24	5390.25
966.41	5224.37
966.57	5226.42
966.73	5398.45
966.90	5240.75
967.06	5302.19
967.22	5191.60
967.39	5328.81
967.55	5148.59
967.71	5431.21
967.88	5248.94
968.04	5289.90
968.20	5162.93
968.37	5169.07
968.53	5130.16
968.69	5156.79
968.85	5345.20
969.02	5324.72
969.18	5330.86
969.34	5306.29
969.51	5263.28
969.67	5218.22
969.83	5105.59
970.00	5296.05
970.16	5154.74
970.32	5023.67
970.48	5156.79
970.65	4976.56
970.81	5119.92
970.97	5001.14
971.14	5072.82
971.30	5277.62
971.46	5046.20
971.63	5007.28
971.79	5199.79
971.95	5040.05
972.11	5035.96
972.28	5066.67
972.44	5085.11
972.60	4949.94
972.76	5201.84
972.93	4853.69
973.09	4902.84
973.25	5095.35
973.42	4992.95
973.58	5017.52
973.74	5029.81
973.90	4988.85
974.07	4919.22
974.23	4972.47
974.39	4919.22
974.55	4861.88
974.72	4788.15
974.88	4786.10
975.04	4927.41
975.20	4829.11
975.37	4900.79
975.53	4829.11
975.69	4845.49
975.85	4761.53
976.01	4872.12
976.18	4763.58
976.34	4794.29
976.50	4743.10
976.66	4902.84
976.83	4683.70
976.99	4757.43
977.15	4710.33
977.31	4593.59
977.47	4800.44
977.64	4691.90
977.80	4644.79
977.96	4743.10
978.12	4593.59
978.29	4601.79
978.45	4517.82
978.61	4822.97
978.77	4634.55
978.93	4569.02
979.10	4585.40
979.26	4468.67
979.42	4544.44
979.58	4609.98
979.74	4431.80
979.91	4491.20
980.07	4523.96
980.23	4460.48
980.39	4538.30
980.55	4427.71
980.71	4505.53
980.88	4444.09
981.04	4362.17
981.20	4501.44
981.36	4448.19
981.52	4462.52
981.68	4274.11
981.85	4528.06
982.01	4376.51
982.17	4364.22
982.33	4403.13
982.49	4405.18
982.65	4304.83
982.82	4360.13
982.98	4284.35
983.14	4265.92
983.30	4399.04
983.46	4458.43
983.62	4433.85
983.79	4171.71
983.95	4247.49
984.11	4173.76
984.27	4319.17
984.43	4317.12
984.59	4272.06
984.75	4292.54
984.91	4126.66
985.08	4310.97
985.24	4036.55
985.40	4132.80
985.56	4089.79
985.72	4210.62
985.88	4245.44
986.04	4192.19
986.20	4059.07
986.37	4054.98
986.53	3979.20
986.69	4184.00
986.85	3983.30
987.01	4087.75
987.17	4202.43
987.33	4030.40
987.49	3966.92
987.65	4097.99
987.82	4048.83
987.98	3917.76
988.14	3923.91
988.30	4040.64
988.46	4116.42
988.62	3948.48
988.78	3985.35
988.94	3788.74
989.10	3940.29
989.26	3911.62
989.42	3889.09
989.59	3940.29
989.75	3880.90
989.91	3909.57
990.07	3686.34
990.23	3717.06
990.39	3874.76
990.55	3874.76
990.71	3805.13
990.87	3792.84
991.03	3751.88
991.19	3798.98
991.35	3776.45
991.51	3897.28
991.67	3958.72
991.83	3745.73
992.00	3770.31
992.16	3805.13
992.32	3715.02
992.48	3837.89
992.64	3620.81
992.80	3657.67
992.96	3731.40
993.12	3755.97
993.28	3758.02
993.44	3690.44
993.60	3622.86
993.76	3674.06
993.92	3635.14
994.08	3585.99
994.24	3702.73
994.40	3631.05
994.56	3647.43
994.72	3608.52
994.88	3508.17
995.04	3551.18
995.20	3506.12
995.36	3565.51
995.52	3542.99
995.68	3567.56
995.84	3495.88
996.00	3680.20
996.16	3512.27
996.32	3495.88
996.48	3616.71
996.64	3542.99
996.80	3508.17
996.96	3456.97
997.12	3508.17
997.28	3366.86
997.44	3487.69
997.60	3407.82
997.76	3438.54
997.92	3428.30
998.08	3440.59
998.24	3311.57
998.40	3389.39
998.56	3411.92
998.72	3317.71
998.88	3391.44
999.04	3284.94
999.20	3346.38
999.36	3276.75
999.52	3375.05
999.68	3360.72
999.84	3440.59
1000.00	3356.62
1000.16	3364.81
1000.32	3215.31
1000.48	3377.10
1000.64	3264.46
1000.80	3174.35
1000.95	3221.45
1001.11	3395.53
1001.27	3092.43
1001.43	3139.54
1001.59	3102.67
1001.75	3106.77
1001.91	3141.58
1002.07	3209.17
1002.23	3151.82
1002.39	3231.69
1002.55	3157.97
1002.71	3143.63
1002.87	3020.75
1003.03	3078.10
1003.19	3141.58
1003.34	3219.41
1003.50	3123.15
1003.66	3180.50
1003.82	3186.64
1003.98	3010.51
1004.14	3174.35
1004.30	3141.58
1004.46	2990.03
1004.62	2985.94
1004.78	3108.82
1004.94	3071.95
1005.09	2994.13
1005.25	2996.18
1005.41	2947.03
1005.57	3010.51
1005.73	2996.18
1005.89	2936.79
1006.05	3039.19
1006.21	3051.47
1006.37	2920.40
1006.52	2936.79
1006.68	2879.44
1006.84	2963.41
1007.00	3033.04
1007.16	2973.65
1007.32	2863.06
1007.48	2938.84
1007.64	2904.02
1007.79	2865.11
1007.95	2846.68
1008.11	2940.88
1008.27	3000.27
1008.43	2871.25
1008.59	2944.98
1008.75	2961.36
1008.91	2807.77
1009.06	2785.24
1009.22	2791.38
1009.38	2842.58
1009.54	2809.81
1009.70	2803.67
1009.86	2820.05
1010.01	2873.30
1010.17	2721.75
1010.33	2846.68
1010.49	2865.11
1010.65	2887.64
1010.81	2764.76
1010.96	2740.18
1011.12	2719.70
1011.28	2705.37
1011.44	2828.24
1011.60	2760.66
1011.76	2643.93
1011.91	2772.95
1012.07	2654.17
1012.23	2656.22
1012.39	2666.46
1012.55	2723.80
1012.71	2629.59
1012.86	2680.79
1013.02	2674.65
1013.18	2592.73
1013.34	2633.69
1013.50	2623.45
1013.65	2648.02
1013.81	2570.20
1013.97	2574.30
1014.13	2666.46
1014.29	2623.45
1014.44	2641.88
1014.60	2580.44
1014.76	2598.87
1014.92	2570.20
1015.07	2525.15
1015.23	2510.81
1015.39	2494.43
1015.55	2586.58
1015.71	2645.98
1015.86	2475.99
1016.02	2428.89
1016.18	2463.71
1016.34	2529.24
1016.49	2562.01
1016.65	2519.00
1016.81	2572.25
1016.97	2553.82
1017.12	2619.35
1017.28	2426.84
1017.44	2346.97
1017.60	2437.08
1017.75	2428.89
1017.91	2498.52
1018.07	2441.18
1018.23	2543.58
1018.38	2455.51
1018.54	2396.12
1018.70	2525.15
1018.86	2492.38
1019.01	2316.25
1019.17	2385.88
1019.33	2508.76
1019.49	2416.60
1019.64	2435.03
1019.80	2377.69
1019.96	2398.17
1020.12	2445.27
1020.27	2359.26
1020.43	2492.38
1020.59	2346.97
1020.74	2475.99
1020.90	2428.89
1021.06	2287.58
1021.22	2306.01
1021.37	2375.64
1021.53	2310.11
1021.69	2267.10
1021.84	2326.49
1022.00	2340.83
1022.16	2256.86
1022.31	2351.07
1022.47	2336.73
1022.63	2289.63
1022.79	2254.81
1022.94	2279.39
1023.10	2365.40
1023.26	2318.30
1023.41	2267.10
1023.57	2248.67
1023.73	2258.91
1023.88	2267.10
1024.04	2238.43
1024.20	2234.33
1024.35	2306.01
1024.51	2179.04
1024.67	2224.09
1024.82	2303.96
1024.98	2150.37
1025.14	2158.56
1025.29	2213.85
1025.45	2271.20
1025.61	2211.81
1025.76	2140.13
1025.92	2209.76
1026.08	2205.66
1026.23	2224.09
1026.39	2330.59
1026.55	2095.07
1026.70	2158.56
1026.86	2207.71
1027.02	2170.85
1027.17	2209.76
1027.33	2213.85
1027.48	2156.51
1027.64	2109.41
1027.80	2117.60
1027.95	2248.67
1028.11	2113.50
1028.27	2150.37
1028.42	2142.18
1028.58	2131.94
1028.73	2045.92
1028.89	2019.30
1029.05	2232.29
1029.20	2129.89
>>>>>End Processed Spectral Data<<<<<
