SpectraSuite Data File
++++++++++++++++++++++++++++++++++++
Date: Fri Jun 02 14:51:08 CEST 2017
User: INFO_000
Dark Spectrum Present: No
Reference Spectrum Present: No
Number of Sampled Component Spectra: 1
Spectrometers: USB4H00879
Integration Time (usec): 80000 (USB4H00879)
Spectra Averaged: 1 (USB4H00879)
Boxcar Smoothing: 0 (USB4H00879)
Correct for Electrical Dark: No (USB4H00879)
Strobe/Lamp Enabled: No (USB4H00879)
Correct for Detector Non-linearity: No (USB4H00879)
Correct for Stray Light: No (USB4H00879)
Number of Pixels in Processed Spectrum: 3648
>>>>>Begin Processed Spectral Data<<<<<
345.13	1273.84
345.34	1273.84
345.56	1273.84
345.78	1288.17
345.99	1298.41
346.21	1734.63
346.42	1695.72
346.64	1660.90
346.86	1810.40
347.07	1720.29
347.29	1705.96
347.50	1632.23
347.72	1638.38
347.94	1812.45
348.15	1554.41
348.37	1652.71
348.59	1697.77
348.80	1650.66
349.02	1759.21
349.23	1828.84
349.45	1777.64
349.67	1861.60
349.88	1857.51
350.10	1923.04
350.31	1761.25
350.53	1908.71
350.75	1974.24
350.96	1818.60
351.18	1843.17
351.39	1875.94
351.61	1771.49
351.82	1951.71
352.04	1929.19
352.26	1832.93
352.47	1951.71
352.69	1914.85
352.90	1767.40
353.12	1834.98
353.34	1843.17
353.55	1955.81
353.77	1912.80
353.98	1877.99
354.20	1808.36
354.41	1941.47
354.63	1925.09
354.85	2054.11
355.06	1945.57
355.28	1843.17
355.49	1931.23
355.71	1904.61
355.92	1910.75
356.14	1935.33
356.35	1888.23
356.57	1853.41
356.79	1886.18
357.00	1837.03
357.22	1925.09
357.43	1880.04
357.65	1982.43
357.86	1884.13
358.08	1925.09
358.29	1927.14
358.51	1951.71
358.72	1910.75
358.94	1912.80
359.16	1896.42
359.37	1912.80
359.59	2015.20
359.80	1974.24
360.02	1988.58
360.23	1947.62
360.45	1982.43
360.66	1888.23
360.88	1877.99
361.09	1935.33
361.31	2025.44
361.52	2002.91
361.74	1998.82
361.95	2060.26
362.17	1945.57
362.38	2037.73
362.60	2021.35
362.81	2000.87
363.03	1867.75
363.24	1904.61
363.46	1953.76
363.67	1992.67
363.89	1896.42
364.10	2000.87
364.32	1955.81
364.53	1986.53
364.75	1916.90
364.96	2007.01
365.18	1908.71
365.39	2000.87
365.61	1939.43
365.82	2121.70
366.04	1992.67
366.25	1943.52
366.47	2004.96
366.68	2000.87
366.90	1945.57
367.11	1970.15
367.33	2076.64
367.54	2007.01
367.76	1953.76
367.97	2082.78
368.19	1978.34
368.40	2017.25
368.62	1992.67
368.83	1894.37
369.05	2043.87
369.26	1945.57
369.48	1916.90
369.69	1951.71
369.91	2033.63
370.12	2011.11
370.33	2082.78
370.55	2007.01
370.76	2019.30
370.98	2111.46
371.19	2025.44
371.41	1980.39
371.62	2066.40
371.84	1984.48
372.05	2113.50
372.27	2105.31
372.48	2050.02
372.69	2095.07
372.91	2009.06
373.12	2131.94
373.34	2056.16
373.55	2162.66
373.77	2140.13
373.98	1994.72
374.20	2228.19
374.41	2285.53
374.62	2123.74
374.84	2226.14
375.05	2183.13
375.27	2115.55
375.48	2176.99
375.70	2133.98
375.91	2244.57
376.12	2285.53
376.34	2193.37
376.55	2226.14
376.77	2152.42
376.98	2133.98
377.19	2095.07
377.41	2060.26
377.62	2131.94
377.84	2232.29
378.05	2301.92
378.27	2131.94
378.48	2164.70
378.69	2346.97
378.91	2197.47
379.12	2209.76
379.34	2232.29
379.55	2320.35
379.76	2207.71
379.98	2217.95
380.19	2293.72
380.41	2215.90
380.62	2205.66
380.83	2252.77
381.05	2197.47
381.26	2353.12
381.47	2236.38
381.69	2213.85
381.90	2473.95
382.12	2295.77
382.33	2269.15
382.54	2303.96
382.76	2234.33
382.97	2299.87
383.19	2183.13
383.40	2297.82
383.61	2281.44
383.83	2170.85
384.04	2181.09
384.25	2289.63
384.47	2373.60
384.68	2371.55
384.89	2312.16
385.11	2277.34
385.32	2328.54
385.54	2285.53
385.75	2346.97
385.96	2379.74
386.18	2303.96
386.39	2400.22
386.60	2410.46
386.82	2306.01
387.03	2353.12
387.24	2441.18
387.46	2394.08
387.67	2502.62
387.88	2459.61
388.10	2437.08
388.31	2496.47
388.52	2430.94
388.74	2521.05
388.95	2400.22
389.16	2412.51
389.38	2488.28
389.59	2557.91
389.80	2412.51
390.02	2447.32
390.23	2533.34
390.44	2504.67
390.66	2490.33
390.87	2449.37
391.08	2523.10
391.30	2697.17
391.51	2598.87
391.72	2590.68
391.94	2592.73
392.15	2602.97
392.36	2570.20
392.58	2492.38
392.79	2619.35
393.00	2592.73
393.22	2619.35
393.43	2715.61
393.64	2674.65
393.85	2668.50
394.07	2588.63
394.28	2650.07
394.49	2703.32
394.71	2592.73
394.92	2738.13
395.13	2758.61
395.35	2719.70
395.56	2744.28
395.77	2715.61
395.98	2713.56
396.20	2727.89
396.41	2795.48
396.62	2840.53
396.84	2840.53
397.05	2740.18
397.26	2742.23
397.47	2897.88
397.69	2705.37
397.90	3084.24
398.11	2869.20
398.32	2734.04
398.54	2809.81
398.75	2852.82
398.96	2897.88
399.18	3002.32
399.39	2869.20
399.60	2957.27
399.81	2877.40
400.03	2867.16
400.24	3248.08
400.45	2889.68
400.66	2981.84
400.88	2893.78
401.09	3100.62
401.30	3055.57
401.51	3043.28
401.73	3020.75
401.94	3147.73
402.15	3024.85
402.36	3098.58
402.58	3055.57
402.79	3102.67
403.00	3149.78
403.21	3160.02
403.43	3170.26
403.64	3237.84
403.85	3092.43
404.06	3082.19
404.27	2990.03
404.49	3186.64
404.70	3139.54
404.91	3229.65
405.12	3266.51
405.34	3219.41
405.55	3286.99
405.76	3096.53
405.97	3076.05
406.19	3307.47
406.40	3227.60
406.61	3264.46
406.82	3299.28
407.03	3221.45
407.25	3235.79
407.46	3397.58
407.67	3393.48
407.88	3385.29
408.09	3321.81
408.31	3192.78
408.52	3338.19
408.73	3401.68
408.94	3282.89
409.15	3409.87
409.37	3428.30
409.58	3403.72
409.79	3391.44
410.00	3561.42
410.21	3327.95
410.43	3325.90
410.64	3401.68
410.85	3514.31
411.06	3481.55
411.27	3420.11
411.48	3536.84
411.70	3401.68
411.91	3442.64
412.12	3452.88
412.33	3581.90
412.54	3491.79
412.76	3624.90
412.97	3571.66
413.18	3516.36
413.39	3579.85
413.60	3608.52
413.81	3528.65
414.03	3481.55
414.24	3563.47
414.45	3782.60
414.66	3467.21
414.87	3620.81
415.08	3641.29
415.30	3563.47
415.51	3637.19
415.72	3667.91
415.93	3618.76
416.14	3622.86
416.35	3721.16
416.56	3768.26
416.78	3751.88
416.99	3801.03
417.20	3674.06
417.41	3741.64
417.62	3813.32
417.83	3841.99
418.04	3735.50
418.26	3772.36
418.47	3868.61
418.68	3823.56
418.89	3852.23
419.10	3905.48
419.31	3829.70
419.52	3835.85
419.73	3807.17
419.95	4075.46
420.16	3829.70
420.37	3870.66
420.58	3954.63
420.79	3729.35
421.00	3901.38
421.21	3999.68
421.42	3870.66
421.63	4149.18
421.85	3981.25
422.06	4065.22
422.27	3977.16
422.48	4026.31
422.69	4003.78
422.90	3979.20
423.11	4130.75
423.32	4159.42
423.53	4190.14
423.75	4128.70
423.96	4286.40
424.17	4337.60
424.38	4247.49
424.59	4227.01
424.80	4310.97
425.01	4157.38
425.22	4204.48
425.43	4147.14
425.64	4425.66
425.85	4487.10
426.06	4442.04
426.28	4372.41
426.49	4190.14
426.70	4353.98
426.91	4444.09
427.12	4509.63
427.33	4417.47
427.54	4401.08
427.75	4540.35
427.96	4577.21
428.17	4583.35
428.38	4519.87
428.59	4612.03
428.80	4612.03
429.01	4552.63
429.23	4577.21
429.44	4708.28
429.65	4736.95
429.86	4773.82
430.07	4556.73
430.28	4714.42
430.49	4655.03
430.70	4949.94
430.91	4992.95
431.12	4857.78
431.33	4956.08
431.54	4911.03
431.75	4947.89
431.96	4954.04
432.17	4915.12
432.38	5009.33
432.59	5138.35
432.80	5015.48
433.01	5146.55
433.22	5199.79
433.43	5150.64
433.64	5083.06
433.85	5201.84
434.06	5236.66
434.27	5234.61
434.49	5259.18
434.70	5435.31
434.91	5410.73
435.12	5423.02
435.33	5255.09
435.54	5324.72
435.75	5210.03
435.96	5257.14
436.17	5246.90
436.38	5431.21
436.59	5547.95
436.80	5306.29
437.01	5560.24
437.22	5687.21
437.43	5357.49
437.64	5371.82
437.85	5603.24
438.06	5631.91
438.27	5443.50
438.48	5607.34
438.69	5697.45
438.90	5693.35
439.11	5500.84
439.32	5689.26
439.53	5711.78
439.74	5642.15
439.95	5693.35
440.16	5846.95
440.37	5728.17
440.57	5695.40
440.78	5758.89
440.99	5793.70
441.20	5787.56
441.41	5701.54
441.62	5820.33
441.83	5672.87
442.04	5894.05
442.25	5955.49
442.46	5906.34
442.67	5898.15
442.88	6170.53
443.09	6092.71
443.30	5861.29
443.51	6152.10
443.72	6223.78
443.93	5949.35
444.14	6307.74
444.35	6059.94
444.56	6225.82
444.77	6250.40
444.98	6076.32
445.19	6260.64
445.40	6293.41
445.61	6244.26
445.81	6293.41
446.02	6336.42
446.23	6295.46
446.44	6123.43
446.65	6420.38
446.86	6358.94
447.07	6547.36
447.28	6614.94
447.49	6651.80
447.70	6350.75
447.91	6627.23
448.12	6483.87
448.33	6559.64
448.54	6641.56
448.74	6498.20
448.95	6549.40
449.16	6737.82
449.37	6926.23
449.58	6672.28
449.79	6764.44
450.00	6549.40
450.21	6754.20
450.42	6782.87
450.63	6864.79
450.84	6885.27
451.05	6709.15
451.25	6907.80
451.46	6827.93
451.67	6879.13
451.88	7141.27
452.09	7077.78
452.30	6885.27
452.51	7012.24
452.72	7026.58
452.93	7088.02
453.13	6995.86
453.34	7188.37
453.55	7133.08
453.76	7147.41
453.97	7376.78
454.18	7081.88
454.39	7298.96
454.60	7126.93
454.81	7231.38
455.01	7440.27
455.22	7247.76
455.43	7466.89
455.64	7618.44
455.85	7477.13
456.06	7704.46
456.27	7518.09
456.48	7417.74
456.68	7577.48
456.89	7643.02
457.10	7456.65
457.31	7645.07
457.52	7528.33
457.73	7716.75
457.94	7870.34
458.14	7647.12
458.35	8042.37
458.56	7942.02
458.77	7790.47
458.98	8054.66
459.19	8060.80
459.39	8069.00
459.60	8275.84
459.81	7968.65
460.02	8238.98
460.23	8089.48
460.44	8314.75
460.65	8236.93
460.85	8429.44
461.06	8294.27
461.27	8118.15
461.48	8429.44
461.69	8525.69
461.89	8243.07
462.10	8630.14
462.31	8251.27
462.52	8392.58
462.73	8486.78
462.94	8667.00
463.14	8789.88
463.35	8607.61
463.56	8984.44
463.77	8804.22
463.98	8718.20
464.18	8632.19
464.39	9179.00
464.60	9095.03
464.81	8953.72
465.02	9084.79
465.23	9457.52
465.43	8974.20
465.64	9353.07
465.85	9191.28
466.06	9179.00
466.27	9445.23
466.47	9564.01
466.68	9451.38
466.89	9441.14
467.10	9736.04
467.30	9486.19
467.51	9588.59
467.72	9838.44
467.93	9695.08
468.14	9734.00
468.34	10067.81
468.55	10014.57
468.76	9965.42
468.97	9908.07
469.17	10266.47
469.38	10119.01
469.59	10256.23
469.80	10041.19
470.01	10262.37
470.21	10366.82
470.42	10370.91
470.63	10559.33
470.84	10403.68
471.04	10764.12
471.25	10653.53
471.46	10692.44
471.67	10905.43
471.87	10798.94
472.08	11124.57
472.29	10833.75
472.50	10633.05
472.70	11022.17
472.91	11024.22
473.12	11413.33
473.33	11409.23
473.53	11558.74
473.74	11140.95
473.95	11548.50
474.16	11779.92
474.36	11837.26
474.57	11827.02
474.78	12113.74
474.99	12097.35
475.19	11992.90
475.40	12144.45
475.61	12312.39
475.81	12535.62
476.02	12713.79
476.23	12431.17
476.44	12695.36
476.64	12740.41
476.85	12941.11
477.06	12916.54
477.27	13129.53
477.47	12992.31
477.68	13094.71
477.89	13467.44
478.09	13426.48
478.30	13567.79
478.51	13496.11
478.71	13705.01
478.92	13668.14
479.13	13711.15
479.34	13907.76
479.54	13901.61
479.75	14008.11
479.96	14413.60
480.16	14159.66
480.37	14280.49
480.58	14432.04
480.78	14671.65
480.99	14462.76
481.20	14784.29
481.41	14802.72
481.61	14849.82
481.82	15128.35
482.03	15128.35
482.23	14952.22
482.44	15245.08
482.65	15478.55
482.85	15490.84
483.06	15576.85
483.27	15544.08
483.47	15716.11
483.68	15793.94
483.89	15722.26
484.09	15968.01
484.30	16097.03
484.51	16221.96
484.71	16318.22
484.92	16379.65
485.13	16576.26
485.33	16506.63
485.54	16617.22
485.75	16744.19
485.95	16533.25
486.16	17127.16
486.37	16994.04
486.57	16969.47
486.78	17090.30
486.98	17299.19
487.19	17334.01
487.40	17641.20
487.60	17524.47
487.81	17778.42
488.02	17817.33
488.22	17676.02
488.43	18233.07
488.64	18058.99
488.84	18259.69
489.05	18374.38
489.25	18091.76
489.46	18495.21
489.67	18347.75
489.87	18620.13
490.08	18714.34
490.29	19029.73
490.49	19105.50
490.70	18642.66
490.90	19220.19
491.11	19099.36
491.32	19187.42
491.52	19369.69
491.73	19449.56
491.94	19455.70
492.14	19451.61
492.35	19588.82
492.55	19580.63
492.76	19844.82
492.97	20174.54
493.17	20195.02
493.38	20231.88
493.58	20203.21
493.79	20260.55
494.00	20217.55
494.20	20324.04
494.41	20373.19
494.61	20664.00
494.82	20651.72
495.02	20801.22
495.23	20627.14
495.44	20932.29
495.64	20971.20
495.85	21077.69
496.05	21472.95
496.26	21233.34
496.47	21329.59
496.67	21434.04
496.88	21489.34
497.08	21081.79
497.29	21395.13
497.49	21411.51
497.70	21778.10
497.91	21522.10
498.11	21989.04
498.32	21837.49
498.52	22064.82
498.73	21915.31
498.93	22048.43
499.14	22179.50
499.34	22255.28
499.55	22404.78
499.76	22331.05
499.96	22566.57
500.17	22535.85
500.37	22771.36
500.58	22689.45
500.78	22738.60
500.99	22648.49
501.19	22802.08
501.40	22595.24
501.60	22857.38
501.81	22922.91
502.02	22908.58
502.22	22947.49
502.43	23105.18
502.63	23201.44
502.84	23215.77
503.04	23076.51
503.25	23391.90
503.45	23365.28
503.66	23578.26
503.86	23332.51
504.07	23875.22
504.27	23414.43
504.48	24014.48
504.68	23682.71
504.89	24254.09
505.09	23848.60
505.30	23582.36
505.50	23920.28
505.71	24239.76
505.91	23889.56
506.12	24030.87
506.32	24104.59
506.53	24008.34
506.73	24424.08
506.94	24419.98
507.14	24301.20
507.35	24344.20
507.55	24225.42
507.76	24319.63
507.96	24450.70
508.17	24534.67
508.37	24460.94
508.58	24696.46
508.78	25038.47
508.99	24737.41
509.19	24882.82
509.40	24911.49
509.60	24942.21
509.81	24862.34
510.01	25052.80
510.22	24880.77
510.42	25032.32
510.63	25132.67
510.83	25089.67
511.04	25220.74
511.24	25106.05
511.44	25073.28
511.65	25106.05
511.85	25220.74
512.06	25489.02
512.26	25345.66
512.47	25558.65
512.67	25405.05
512.88	25515.64
513.08	25046.66
513.29	25734.78
513.49	25517.69
513.69	25595.51
513.90	25519.74
514.10	25720.44
514.31	25681.53
514.51	26009.20
514.72	25710.20
514.92	26046.07
515.13	25958.00
515.33	26101.36
515.53	26148.46
515.74	26082.93
515.94	26220.14
516.15	26007.16
516.35	26162.80
516.56	26316.40
516.76	26416.75
516.96	26449.52
517.17	26529.39
517.37	26476.14
517.58	26801.77
517.78	26357.36
517.99	26662.51
518.19	27102.82
518.39	27018.85
518.60	26838.63
518.80	26865.25
519.01	26855.01
519.21	27031.14
519.41	26984.04
519.62	27006.56
519.82	26990.18
520.03	27254.37
520.23	27154.02
520.43	27010.66
520.64	27582.04
520.84	27608.67
521.05	27477.60
521.25	27950.68
521.45	27549.28
521.66	27715.16
521.86	27825.75
522.07	27835.99
522.27	27713.11
522.47	28016.21
522.68	28255.82
522.88	28145.23
523.08	28618.32
523.29	28282.45
523.49	28393.04
523.70	28509.77
523.90	28706.38
524.10	28948.04
524.31	28706.38
524.51	28601.93
524.71	29380.16
524.92	28966.47
525.12	29005.38
525.33	29230.66
525.53	29232.71
525.73	29449.79
525.94	29603.39
526.14	29394.50
526.34	29793.85
526.55	29595.20
526.75	29513.28
526.95	30099.00
527.16	29709.88
527.36	30254.64
527.56	30344.75
527.77	30735.92
527.97	30430.77
528.17	30408.24
528.38	30524.97
528.58	30457.39
528.78	30588.46
528.99	30731.82
529.19	31088.17
529.39	30641.71
529.60	31258.15
529.80	30897.70
530.00	31133.22
530.21	31335.97
530.41	31454.75
530.61	31628.83
530.82	31432.22
531.02	31723.04
531.22	31917.59
531.43	31923.74
531.63	32054.81
531.83	32415.25
532.04	32314.90
532.24	31981.08
532.44	32595.47
532.64	32437.78
532.85	32626.19
533.05	32792.08
533.25	32810.51
533.46	32634.38
533.66	33146.37
533.86	33299.97
534.07	33320.45
534.27	33109.51
534.47	33615.36
534.67	33410.56
534.88	33631.74
535.08	33691.13
535.28	33871.36
535.49	34149.88
535.69	34455.03
535.89	34307.57
536.09	34278.90
536.30	34342.39
536.50	34477.55
536.70	34713.07
536.91	34448.88
537.11	34639.34
537.31	34934.25
537.51	34840.04
537.72	35319.27
537.92	35522.02
538.12	35272.17
538.32	35253.73
538.53	35706.34
538.73	35395.04
538.93	35393.00
539.13	35683.81
539.34	36111.83
539.54	35485.15
539.74	36206.04
539.94	35614.18
540.15	35814.88
540.35	36392.40
540.55	36337.11
540.75	36271.57
540.96	36156.89
541.16	36627.92
541.36	36560.34
541.56	36797.90
541.77	37094.86
541.97	36443.60
542.17	37111.24
542.37	37107.15
542.58	37428.68
542.78	37141.96
542.98	37320.13
543.18	37357.00
543.38	37502.40
543.59	37729.73
543.79	37969.34
543.99	37434.82
544.19	37295.56
544.40	37637.57
544.60	38059.45
544.80	37756.35
545.00	38092.22
545.20	38213.05
545.41	38127.03
545.61	38380.98
545.81	38254.01
546.01	38608.31
546.21	38692.27
546.42	38360.50
546.62	39015.85
546.82	38854.06
547.02	38550.96
547.22	38751.66
547.43	38858.16
547.63	38806.96
547.83	39114.16
548.03	38868.40
548.23	39333.29
548.44	39288.23
548.64	39329.19
548.84	39452.07
549.04	39495.08
549.24	39632.29
549.45	39894.43
549.65	39435.69
549.85	39583.14
550.05	40056.22
550.25	39654.82
550.45	40238.49
550.66	40101.28
550.86	39605.67
551.06	39951.77
551.26	40299.93
551.46	39826.85
551.66	40175.00
551.87	40211.87
552.07	39978.40
552.27	39943.58
552.47	40402.33
552.67	40422.81
552.87	40543.64
553.07	40445.33
553.28	40408.47
553.48	40525.21
553.68	40576.40
553.88	40842.64
554.08	41033.10
554.28	40789.39
554.48	41065.87
554.69	40795.54
554.89	40701.33
555.09	41104.78
555.29	40906.13
555.49	41004.43
555.69	40856.98
555.89	40953.23
556.10	41080.21
556.30	41237.90
556.50	41497.99
556.70	41002.38
556.90	41514.37
557.10	41676.16
557.30	41258.38
557.50	41553.29
557.70	41346.44
557.91	41866.63
558.11	41602.44
558.31	41778.56
558.51	41645.44
558.71	41811.33
558.91	41969.02
559.11	41375.11
559.31	41778.56
559.51	41190.80
559.72	41760.13
559.92	41956.74
560.12	41538.95
560.32	41999.74
560.52	41368.97
560.72	41815.43
560.92	41950.59
561.12	41858.43
561.32	42200.44
561.52	41837.95
561.72	42044.80
561.93	41766.27
562.13	41618.82
562.33	41706.88
562.53	42227.07
562.73	42210.68
562.93	41930.11
563.13	42339.71
563.33	41776.51
563.53	42505.59
563.73	41944.45
563.93	41878.91
564.13	42683.76
564.33	42333.56
564.53	42354.04
564.74	42524.02
564.94	42274.17
565.14	42087.81
565.34	42048.89
565.54	42143.10
565.74	42454.39
565.94	42489.21
566.14	42747.25
566.34	41880.96
566.54	42427.77
566.74	42028.41
566.94	42329.47
567.14	42567.03
567.34	42562.93
567.54	42628.47
567.74	42458.49
567.94	42628.47
568.14	43171.18
568.34	42605.94
568.54	42538.36
568.74	42837.36
568.94	42722.68
569.14	43158.89
569.34	42562.93
569.54	43091.31
569.75	42554.74
569.95	42886.51
570.15	43124.08
570.35	42636.66
570.55	42438.01
570.75	43013.49
570.95	43113.84
571.15	42845.55
571.35	43017.58
571.55	43142.51
571.75	43054.45
571.95	43412.84
572.15	42988.91
572.35	43259.24
572.55	42616.18
572.75	43451.75
572.95	43197.80
573.15	43173.23
573.35	43189.61
573.55	43052.40
573.75	43064.69
573.95	43173.23
574.15	43042.16
574.35	42923.38
574.55	43437.42
574.75	42950.00
574.95	43658.60
575.15	43179.37
575.34	43390.31
575.54	43586.92
575.74	43541.86
575.94	43668.84
576.14	43359.59
576.34	43945.31
576.54	44062.05
576.74	44062.05
576.94	44002.66
577.14	43621.73
577.34	43887.97
577.54	43625.83
577.74	43941.22
577.94	43982.18
578.14	44023.14
578.34	44182.88
578.54	43457.90
578.74	44010.85
578.94	43947.36
579.14	43752.80
579.34	43902.31
579.54	43672.93
579.74	44571.99
579.94	44068.19
580.13	44293.47
580.33	44223.84
580.53	44320.09
580.73	44827.99
580.93	44445.02
581.13	44438.87
581.33	44754.26
581.53	44658.01
581.73	44352.86
581.93	44483.93
582.13	44905.81
582.33	44848.47
582.53	44836.18
582.73	44879.19
582.92	44737.88
583.12	45233.49
583.32	45190.48
583.52	44746.07
583.72	45258.06
583.92	44866.90
584.12	45014.35
584.32	45219.15
584.52	45356.36
584.72	45260.11
584.92	44963.15
585.11	45460.81
585.31	45542.73
585.51	45415.76
585.71	45342.03
585.91	45837.64
586.11	45329.74
586.31	45741.38
586.51	45622.60
586.71	45663.56
586.91	46013.76
587.10	45684.04
587.30	45765.96
587.50	45962.56
587.70	45825.35
587.90	46013.76
588.10	46048.58
588.30	46132.54
588.50	46320.96
588.69	46253.37
588.89	46169.41
589.09	46730.55
589.29	46331.20
589.49	46837.05
589.69	46312.77
589.89	46626.10
590.08	46937.40
590.28	46636.34
590.48	46509.37
590.68	46675.26
590.88	46622.01
591.08	47004.98
591.28	46386.49
591.47	46953.78
591.67	47187.25
591.87	47322.41
592.07	47009.07
592.27	47547.69
592.47	46765.37
592.67	46933.30
592.86	46859.57
593.06	47406.38
593.26	47306.03
593.46	47422.76
593.66	47400.24
593.86	47865.13
594.05	47580.46
594.25	47727.91
594.45	47027.51
594.65	47457.58
594.85	47234.35
595.05	48272.67
595.24	48086.31
595.44	47799.59
595.64	48035.11
595.84	48348.45
596.04	48088.35
596.23	47906.08
596.43	48342.30
596.63	48395.55
596.83	48145.70
597.03	48579.87
597.22	48702.74
597.42	48749.85
597.62	48579.87
597.82	48635.16
598.02	48893.21
598.21	49233.17
598.41	48733.46
598.61	48715.03
598.81	48925.97
599.01	49442.06
599.20	49100.05
599.40	49024.28
599.60	49405.20
599.80	49284.37
600.00	49048.85
600.19	49519.88
600.39	49108.24
600.59	49745.16
600.79	49730.83
600.98	49229.07
601.18	50076.93
601.38	49751.30
601.58	49548.56
601.78	50251.01
601.97	49796.36
602.17	50836.73
602.37	50134.28
602.57	50068.74
602.76	50504.96
602.96	49919.24
603.16	50857.21
603.36	50769.15
603.55	50896.12
603.75	50494.72
603.95	50793.72
604.15	50806.01
604.34	50758.91
604.54	51096.82
604.74	51164.40
604.94	51201.27
605.13	51215.60
605.33	51549.42
605.53	51143.92
605.73	51772.65
605.92	51234.03
606.12	51033.33
606.32	51844.33
606.52	51504.37
606.71	51399.92
606.91	52106.47
607.11	51879.14
607.30	52081.89
607.50	52055.27
607.70	52327.65
607.90	52131.04
608.09	52094.18
608.29	52139.24
608.49	52092.13
608.68	52051.17
608.88	52184.29
609.08	52239.59
609.28	52337.89
609.47	52542.69
609.67	52538.59
609.87	52464.86
610.06	52829.40
610.26	52954.33
610.46	53157.08
610.66	52638.94
610.85	52821.21
611.05	52933.85
611.25	52993.24
611.44	52706.52
611.64	52937.94
611.84	52704.48
612.03	53019.86
612.23	53007.58
612.43	53556.43
612.62	52970.71
612.82	53363.92
613.02	53134.55
613.21	53503.18
613.41	53222.61
613.61	53290.19
613.80	53038.29
614.00	53556.43
614.20	53097.69
614.39	53361.87
614.59	53982.41
614.79	53302.48
614.98	53218.52
615.18	53296.34
615.38	53605.58
615.57	53474.51
615.77	53851.34
615.97	53724.36
616.16	53435.60
616.36	53458.13
616.56	53871.82
616.75	53949.64
616.95	53578.96
617.15	53712.08
617.34	53603.53
617.54	53869.77
617.74	53914.83
617.93	53691.60
618.13	53413.07
618.32	54240.45
618.52	53746.89
618.72	53908.68
618.91	54043.85
619.11	53669.07
619.31	53814.47
619.50	53703.88
619.70	53664.97
619.90	54111.43
620.09	53857.48
620.29	54140.10
620.48	53550.29
620.68	54219.97
620.88	53337.30
621.07	53912.78
621.27	53957.83
621.46	53882.06
621.66	53978.31
621.86	54269.12
622.05	53986.50
622.25	54189.25
622.44	54295.75
622.64	53822.67
622.84	54400.19
623.03	53951.69
623.23	54471.87
623.42	54293.70
623.62	54553.79
623.82	54318.28
624.01	54455.49
624.21	54117.57
624.40	54328.52
624.60	54123.72
624.80	54072.52
624.99	54226.12
625.19	53626.06
625.38	54359.23
625.58	54322.37
625.77	54463.68
625.97	54475.97
626.17	54166.73
626.36	54498.50
626.56	54826.17
626.75	53470.42
626.95	54564.03
627.14	54099.14
627.34	54500.54
627.54	54363.33
627.73	54262.98
627.93	54408.39
628.12	54023.37
628.32	54643.90
628.51	54262.98
628.71	54312.13
628.90	53974.22
629.10	54273.22
629.30	54222.02
629.49	53689.55
629.69	54215.88
629.88	54248.64
630.08	54392.00
630.27	54254.79
630.47	53988.55
630.66	54127.81
630.86	54258.88
631.05	54041.80
631.25	54312.13
631.44	54099.14
631.64	54361.28
631.84	54105.29
632.03	54918.33
632.23	53916.87
632.42	54164.68
632.62	54033.61
632.81	54123.72
633.01	54215.88
633.20	54584.51
633.40	54531.26
633.59	54471.87
633.79	53832.91
633.98	54211.78
634.18	54371.52
634.37	54592.70
634.57	54355.14
634.76	54346.95
634.96	54195.40
635.15	54375.62
635.35	54342.85
635.54	54162.63
635.74	54412.48
635.93	54029.51
636.13	54486.21
636.32	54455.49
636.52	54162.63
636.71	54207.68
636.91	54492.35
637.10	54482.11
637.30	54262.98
637.49	54527.17
637.69	54340.80
637.88	54787.26
638.08	53982.41
638.27	54353.09
638.46	54129.86
638.66	53968.07
638.85	54400.19
639.05	54344.90
639.24	54305.99
639.44	54066.38
639.63	54465.73
639.83	54269.12
640.02	54107.33
640.22	54318.28
640.41	54478.02
640.61	53730.51
640.80	54435.01
640.99	54006.98
641.19	54770.88
641.38	54414.53
641.58	53873.87
641.77	54074.57
641.97	53718.22
642.16	54230.21
642.36	55033.02
642.55	54658.24
642.74	54170.82
642.94	54385.86
643.13	53955.78
643.33	54197.44
643.52	54367.43
643.72	54686.91
643.91	54285.51
644.10	54731.96
644.30	54482.11
644.49	53945.54
644.69	54574.27
644.88	54408.39
645.08	54334.66
645.27	54060.23
645.46	53898.44
645.66	54222.02
645.85	54273.22
646.05	54166.73
646.24	53992.65
646.43	54121.67
646.63	54490.30
646.82	54793.40
647.02	54316.23
647.21	54588.61
647.40	54267.08
647.60	54170.82
647.79	54322.37
647.99	54383.81
648.18	54097.09
648.37	54672.57
648.57	54414.53
648.76	54375.62
648.96	54209.73
649.15	54437.06
649.34	54914.23
649.54	54662.33
649.73	53970.12
649.92	54031.56
650.12	53982.41
650.31	54445.25
650.51	54557.89
650.70	54686.91
650.89	54338.75
651.09	54809.79
651.28	54777.02
651.47	54269.12
651.67	54250.69
651.86	54951.10
652.06	54232.26
652.25	54351.04
652.44	54432.96
652.64	54254.79
652.83	53765.32
653.02	54113.48
653.22	53859.53
653.41	54176.97
653.60	53423.31
653.80	54088.90
653.99	54527.17
654.18	54312.13
654.38	54269.12
654.57	54404.29
654.76	54066.38
654.96	53691.60
655.15	54269.12
655.34	54193.35
655.54	53906.63
655.73	54058.18
655.92	54125.77
656.12	54011.08
656.31	54273.22
656.50	53882.06
656.70	54226.12
656.89	54136.01
657.08	53867.72
657.28	54095.05
657.47	53632.21
657.66	54174.92
657.86	54004.94
658.05	54113.48
658.24	54234.31
658.43	53888.20
658.63	54205.64
658.82	54142.15
659.01	54064.33
659.21	54168.77
659.40	54166.73
659.59	53581.01
659.79	54015.18
659.98	54107.33
660.17	53888.20
660.36	53972.17
660.56	54076.61
660.75	53968.07
660.94	54088.90
661.14	53939.40
661.33	53687.50
661.52	53322.96
661.71	54301.89
661.91	53556.43
662.10	53449.94
662.29	53798.09
662.49	53943.50
662.68	53765.32
662.87	54031.56
663.06	53910.73
663.26	53671.12
663.45	54174.92
663.64	53810.38
663.83	54183.11
664.03	53693.64
664.22	53763.28
664.41	54080.71
664.60	53576.91
664.80	53652.69
664.99	53851.34
665.18	54049.99
665.37	53923.02
665.57	53730.51
665.76	54219.97
665.95	53851.34
666.14	53427.41
666.34	53630.16
666.53	53521.62
666.72	53877.96
666.91	53470.42
667.11	53400.79
667.30	53542.10
667.49	54084.81
667.68	53652.69
667.87	53581.01
668.07	54201.54
668.26	53667.02
668.45	53742.80
668.64	53621.97
668.84	54617.28
669.03	54023.37
669.22	53499.09
669.41	53822.67
669.60	53970.12
669.80	53822.67
669.99	54129.86
670.18	53687.50
670.37	53812.43
670.57	54117.57
670.76	53677.26
670.95	53802.19
671.14	53714.12
671.33	53556.43
671.53	53886.15
671.72	53548.24
671.91	53060.82
672.10	53337.30
672.29	53144.79
672.48	53724.36
672.68	53886.15
672.87	53611.73
673.06	53425.36
673.25	53236.95
673.44	53206.23
673.64	53290.19
673.83	53583.05
674.02	53021.91
674.21	53042.39
674.40	53677.26
674.59	53591.25
674.79	53263.57
674.98	53122.26
675.17	53245.14
675.36	52751.58
675.55	53503.18
675.74	52845.79
675.94	52651.23
676.13	53116.12
676.32	53376.21
676.51	53658.83
676.70	53769.42
676.89	53478.61
677.08	53488.85
677.28	53085.40
677.47	54113.48
677.66	53656.78
677.85	53306.58
678.04	53664.97
678.23	53497.04
678.42	53554.38
678.62	53368.02
678.81	53484.75
679.00	53449.94
679.19	54027.46
679.38	53396.69
679.57	53673.16
679.76	53787.85
679.96	54068.42
680.15	53265.62
680.34	53191.89
680.53	53077.21
680.72	53886.15
680.91	53417.17
681.10	53601.49
681.29	53386.45
681.48	53087.45
681.68	53206.23
681.87	53101.78
682.06	53638.35
682.25	52763.87
682.44	53476.56
682.63	53017.82
682.82	53200.08
683.01	53632.21
683.20	53032.15
683.39	53378.26
683.59	53144.79
683.78	53494.99
683.97	53075.16
684.16	52917.46
684.35	52745.44
684.54	53003.48
684.73	52923.61
684.92	53155.03
685.11	53097.69
685.30	52948.18
685.49	53251.28
685.69	52813.02
685.88	53126.36
686.07	53009.62
686.26	52659.42
686.45	53120.21
686.64	53304.53
686.83	53030.10
687.02	52894.94
687.21	53314.77
687.40	52944.09
687.59	53079.25
687.78	53105.88
687.97	53652.69
688.16	52669.66
688.35	53138.65
688.54	53069.01
688.74	52960.47
688.93	53142.74
689.12	52851.93
689.31	53105.88
689.50	53189.84
689.69	53101.78
689.88	52452.58
690.07	53138.65
690.26	52667.61
690.45	53394.64
690.64	53146.84
690.83	53175.51
691.02	52911.32
691.21	52782.30
691.40	52651.23
691.59	53093.59
691.78	52808.92
691.97	52905.18
692.16	52923.61
692.35	53058.77
692.54	53179.60
692.73	52815.07
692.92	53228.76
693.11	52929.75
693.30	52823.26
693.49	52710.62
693.68	52862.17
693.87	53224.66
694.06	52831.45
694.25	52630.75
694.44	52632.80
694.63	52921.56
694.82	52765.91
695.01	52622.56
695.20	52530.40
695.39	52845.79
695.58	52751.58
695.77	52376.80
695.96	52778.20
696.15	52778.20
696.34	52720.86
696.53	53107.93
696.72	53191.89
696.91	52696.28
697.10	52782.30
697.29	52552.93
697.48	52675.80
697.67	52749.53
697.86	52266.21
698.05	52454.62
698.24	52657.37
698.43	52477.15
698.62	52999.38
698.81	52059.37
699.00	52661.47
699.19	52262.11
699.38	52722.91
699.57	52595.93
699.76	52919.51
699.95	52763.87
700.14	52735.20
700.32	52360.42
700.51	52622.56
700.70	52712.67
700.89	52737.24
701.08	52640.99
701.27	52649.18
701.46	52395.23
701.65	51655.92
701.84	52376.80
702.03	52761.82
702.22	52421.86
702.41	52149.48
702.60	52475.10
702.79	52358.37
702.98	52489.44
703.17	51922.15
703.35	52335.84
703.54	52487.39
703.73	52700.38
703.92	52354.27
704.11	52311.27
704.30	52337.89
704.49	52118.76
704.68	52215.01
704.87	52155.62
705.06	52008.17
705.25	51911.91
705.43	51647.72
705.62	52303.07
705.81	51778.79
706.00	52188.39
706.19	51864.81
706.38	51897.58
706.57	51887.34
706.76	51875.05
706.95	51940.58
707.14	51879.14
707.32	52169.96
707.51	51868.90
707.70	51905.77
707.89	51815.66
708.08	52186.34
708.27	51993.83
708.46	51877.10
708.65	52053.22
708.84	51893.48
709.02	51811.56
709.21	51485.93
709.40	51868.90
709.59	51803.37
709.78	51975.40
709.97	52032.74
710.16	51643.63
710.34	51490.03
710.53	51559.66
710.72	51633.39
710.91	52102.37
711.10	51533.04
711.29	51819.75
711.48	51670.25
711.66	51760.36
711.85	51635.44
712.04	51510.51
712.23	51733.74
712.42	51592.43
712.61	51635.44
712.80	51610.86
712.98	51827.95
713.17	51447.02
713.36	51451.12
713.55	51252.47
713.74	51387.63
713.93	51625.20
714.11	51270.90
714.30	51246.32
714.49	51565.81
714.68	51342.58
714.87	51502.32
715.06	51649.77
715.24	51199.22
715.43	51195.12
715.62	51109.11
715.81	51268.85
716.00	51111.16
716.18	50947.32
716.37	51070.20
716.56	50898.17
716.75	51262.71
716.94	50881.78
717.12	50525.44
717.31	51059.96
717.50	50935.03
717.69	50535.68
717.88	50754.81
718.06	51289.33
718.25	51410.16
718.44	50033.92
718.63	50777.34
718.82	50562.30
719.00	50322.69
719.19	50652.41
719.38	50306.30
719.57	49847.56
719.76	50246.91
719.94	49646.86
720.13	50183.43
720.32	50431.23
720.51	50050.31
720.69	50320.64
720.88	50310.40
721.07	50142.47
721.26	49575.18
721.44	49857.80
721.63	49771.78
721.82	49616.14
722.01	50001.16
722.20	49739.02
722.38	49526.03
722.57	49435.92
722.76	49487.12
722.95	49435.92
723.13	49691.91
723.32	49431.82
723.51	48878.87
723.70	49108.24
723.88	49489.16
724.07	48823.58
724.26	49333.52
724.44	48139.55
724.63	49141.01
724.82	49106.19
725.01	48784.66
725.19	49157.39
725.38	48917.78
725.57	48577.82
725.76	48936.21
725.94	48491.80
726.13	48954.64
726.32	48694.55
726.51	48479.52
726.69	49071.38
726.88	48866.58
727.07	48844.05
727.25	48493.85
727.44	48891.16
727.63	48669.98
727.82	48315.68
728.00	48289.06
728.19	48700.70
728.38	48907.54
728.56	48352.54
728.75	48680.22
728.94	48211.23
729.12	48307.49
729.31	48497.95
729.50	48129.31
729.69	48440.60
729.87	48702.74
730.06	48411.93
730.25	48440.60
730.43	49087.76
730.62	48188.70
730.81	48616.73
730.99	48440.60
731.18	48530.72
731.37	48442.65
731.55	48344.35
731.74	48543.00
731.93	48651.55
732.11	48440.60
732.30	48373.02
732.49	48407.84
732.67	48377.12
732.86	48338.21
733.05	48549.15
733.23	48129.31
733.42	48387.36
733.61	48295.20
733.79	48024.87
733.98	48352.54
734.17	48182.56
734.35	48207.14
734.54	48293.15
734.73	48565.53
734.91	47842.60
735.10	47785.25
735.29	48534.81
735.47	47488.30
735.66	47996.20
735.84	48223.52
736.03	47998.24
736.22	48176.42
736.40	47357.23
736.59	48211.23
736.78	47787.30
736.96	47852.84
737.15	47496.49
737.33	47736.10
737.52	47740.20
737.71	47635.75
737.89	47068.47
738.08	47533.35
738.27	47189.30
738.45	47865.13
738.64	47961.38
738.82	47478.06
739.01	47488.30
739.20	47365.42
739.38	47324.46
739.57	47658.28
739.75	47322.41
739.94	47510.83
740.13	47326.51
740.31	47258.93
740.50	47039.79
740.68	47142.19
740.87	46808.37
741.06	47621.42
741.24	47334.70
741.43	46769.46
741.61	47170.86
741.80	46427.45
741.99	46781.75
742.17	46886.20
742.36	47064.37
742.54	46660.92
742.73	46724.41
742.91	46822.71
743.10	46359.87
743.29	46757.17
743.47	46746.93
743.66	46257.47
743.84	46546.23
744.03	46660.92
744.21	46556.47
744.40	47047.99
744.59	46101.82
744.77	45987.14
744.96	46261.57
745.14	46372.16
745.33	46492.99
745.51	46382.40
745.70	46390.59
745.88	46110.02
746.07	46220.61
746.26	45884.74
746.44	46300.48
746.63	46284.09
746.81	46310.72
747.00	45768.01
747.18	45909.32
747.37	46058.82
747.55	46126.40
747.74	46462.27
747.92	45479.24
748.11	45600.07
748.29	45514.06
748.48	45577.54
748.66	45423.95
748.85	45729.09
749.03	45284.68
749.22	45245.77
749.41	45419.85
749.59	45671.75
749.78	45348.17
749.96	44731.73
750.15	44838.23
750.33	45188.43
750.52	45106.51
750.70	44973.39
750.89	44823.89
751.07	45092.18
751.26	44590.42
751.44	45092.18
751.63	45065.55
751.81	44641.62
752.00	44705.11
752.18	44705.11
752.37	44578.14
752.55	44594.52
752.74	44297.56
752.92	44221.79
753.10	44285.28
753.29	44172.64
753.47	44344.67
753.66	44256.60
753.84	44045.66
754.03	44268.89
754.21	43973.98
754.40	44016.99
754.58	44221.79
754.77	44189.02
754.95	43480.42
755.14	43738.47
755.32	43740.52
755.51	43609.45
755.69	43634.02
755.88	43767.14
756.06	44014.94
756.24	43849.06
756.43	43539.82
756.61	43824.48
756.80	43666.79
756.98	43206.00
757.17	43386.22
757.35	43459.94
757.54	43591.01
757.72	43529.58
757.90	43070.83
758.09	43275.63
758.27	43212.14
758.46	42519.93
758.64	43064.69
758.83	43138.41
759.01	42866.03
759.19	43005.30
759.38	43167.09
759.56	43277.68
759.75	43130.22
759.93	42986.86
760.12	42802.55
760.30	42677.62
760.48	42581.37
760.67	43068.78
760.85	42906.99
761.04	43029.87
761.22	42399.10
761.40	42704.24
761.59	42222.97
761.77	42110.33
761.96	41989.50
762.14	42100.09
762.32	42345.85
762.51	42255.74
762.69	42096.00
762.88	41905.54
763.06	41844.10
763.24	41995.65
763.43	41895.30
763.61	41874.82
763.80	41745.80
763.98	41706.88
764.16	41532.81
764.35	41256.33
764.53	41319.82
764.72	41581.96
764.90	41522.57
765.08	41401.74
765.27	41397.64
765.45	41119.12
765.63	41178.51
765.82	41665.92
766.00	40949.14
766.18	41194.89
766.37	40963.47
766.55	41227.66
766.74	41041.29
766.92	40646.04
767.10	40822.16
767.29	40533.40
767.47	40379.80
767.65	40990.09
767.84	40494.49
768.02	40883.60
768.20	40560.02
768.39	40424.86
768.57	40377.75
768.75	40547.73
768.94	40435.10
769.12	40469.91
769.30	40222.11
769.49	40506.77
769.67	40377.75
769.85	39257.51
770.04	40254.87
770.22	39648.68
770.40	39587.24
770.59	39837.09
770.77	40406.42
770.95	39749.03
771.14	39640.48
771.32	39370.15
771.50	39245.23
771.69	39648.68
771.87	39544.23
772.05	39466.41
772.24	39089.58
772.42	39144.87
772.60	39079.34
772.78	38841.78
772.97	38909.36
773.15	39277.99
773.33	39142.83
773.52	39144.87
773.70	38737.33
773.88	39339.43
774.07	38690.23
774.25	38983.09
774.43	39386.54
774.61	38972.85
774.80	39011.76
774.98	39161.26
775.16	39087.53
775.34	39155.11
775.53	39265.70
775.71	39368.10
775.89	39132.59
776.08	38800.82
776.26	39232.94
776.44	38950.32
776.62	39138.73
776.81	38897.07
776.99	39294.38
777.17	39302.57
777.35	39296.42
777.54	39560.61
777.72	39220.65
777.90	39067.05
778.08	39345.58
778.27	39118.25
778.45	39341.48
778.63	39345.58
778.81	39105.96
779.00	39642.53
779.18	39040.43
779.36	39472.55
779.54	39228.84
779.73	39191.98
779.91	39464.36
780.09	38991.28
780.27	39294.38
780.46	39249.32
780.64	39658.91
780.82	39490.98
781.00	39267.75
781.19	40048.03
781.37	39464.36
781.55	39837.09
781.73	39689.63
781.91	39880.10
782.10	39409.06
782.28	39706.02
782.46	39517.60
782.64	39667.11
782.82	39196.07
783.01	39855.52
783.19	39540.13
783.37	39712.16
783.55	39714.21
783.74	39712.16
783.92	39734.69
784.10	39474.60
784.28	39654.82
784.46	39394.73
784.64	39433.64
784.83	39540.13
785.01	39533.99
785.19	39554.47
785.37	39726.50
785.55	39722.40
785.74	39296.42
785.92	39595.43
786.10	39464.36
786.28	39228.84
786.46	39556.52
786.64	38862.26
786.83	39529.89
787.01	39386.54
787.19	39404.97
787.37	39183.79
787.55	39331.24
787.74	38978.99
787.92	39151.02
788.10	38835.63
788.28	38587.83
788.46	39013.80
788.64	38729.14
788.82	38972.85
789.01	38999.47
789.19	38866.35
789.37	38843.82
789.55	39017.90
789.73	38405.56
789.91	38458.81
790.09	38237.62
790.28	38452.66
790.46	38045.12
790.64	38542.77
790.82	38516.15
791.00	38180.28
791.18	38002.11
791.36	38077.88
791.55	38331.83
791.73	37920.19
791.91	37623.23
792.09	37889.47
792.27	37418.44
792.45	37979.58
792.63	37895.61
792.81	37668.29
793.00	37426.63
793.18	37332.42
793.36	37340.61
793.54	36976.08
793.72	37256.65
793.90	37346.76
794.08	37088.71
794.26	37418.44
794.44	36904.40
794.62	36842.96
794.81	36871.63
794.99	36441.56
795.17	36775.37
795.35	36316.63
795.53	36353.49
795.71	36775.37
795.89	36363.73
796.07	35950.04
796.25	36199.90
796.43	36322.77
796.61	36050.39
796.80	35601.89
796.98	35825.12
797.16	35659.23
797.34	35927.52
797.52	35552.74
797.70	36017.63
797.88	35452.39
798.06	34979.31
798.24	35220.97
798.42	35540.45
798.60	35169.77
798.78	34756.08
798.96	35476.96
799.14	35120.62
799.32	35268.07
799.51	34760.17
799.69	35397.09
799.87	34545.14
800.05	34596.34
800.23	34954.73
800.41	34502.13
800.59	34461.17
800.77	34567.66
800.95	34215.41
801.13	34508.27
801.31	34149.88
801.49	34305.52
801.67	34063.86
801.85	33912.31
802.03	34059.77
802.21	33644.03
802.39	33318.40
802.57	33553.92
802.75	33418.75
802.93	33738.24
803.11	33400.32
803.29	33308.16
803.47	33103.37
803.65	33392.13
803.83	33263.11
804.01	33125.89
804.19	33187.33
804.37	33043.98
804.55	33248.77
804.73	33080.84
804.91	32792.08
805.09	32755.21
805.27	32822.80
805.45	32851.47
805.63	32755.21
805.81	32689.68
805.99	32599.57
806.17	32933.39
806.35	32392.72
806.53	32448.02
806.71	32316.95
806.89	32235.03
807.07	31847.96
807.25	32030.23
807.43	32071.19
807.61	32167.45
807.79	31870.49
807.97	31733.28
808.15	31950.36
808.33	31741.47
808.51	31911.45
808.69	31823.39
808.87	31401.50
809.05	31477.28
809.23	31610.40
809.41	31049.25
809.59	31254.05
809.77	31585.82
809.95	30938.66
810.13	31145.51
810.31	31174.18
810.49	30916.14
810.67	31159.84
810.84	31024.68
811.02	30983.72
811.20	30535.21
811.38	30959.14
811.56	30459.44
811.74	30993.96
811.92	30598.70
812.10	30721.58
812.28	30760.49
812.46	30533.17
812.64	30303.79
812.82	30324.27
813.00	30297.65
813.18	30430.77
813.36	30389.81
813.53	30113.33
813.71	29806.14
813.89	30232.11
814.07	29814.33
814.25	30481.97
814.43	29890.10
814.61	29908.54
814.79	30043.70
814.97	29967.93
815.15	29740.60
815.33	29507.13
815.50	29396.54
815.68	29503.04
815.86	29799.99
816.04	29077.06
816.22	29308.48
816.40	29226.56
816.58	29587.00
816.76	29017.67
816.94	29085.25
817.11	29148.74
817.29	29003.33
817.47	29007.43
817.65	29195.84
817.83	29380.16
818.01	28945.99
818.19	28945.99
818.37	29011.53
818.54	28632.65
818.72	28898.89
818.90	28765.77
819.08	28593.74
819.26	28792.39
819.44	28716.62
819.62	28571.21
819.80	28575.31
819.97	28515.92
820.15	28405.33
820.33	28497.49
820.51	28204.63
820.69	28153.43
820.87	28614.22
821.05	28366.42
821.22	28198.48
821.40	28251.73
821.58	28282.45
821.76	27981.40
821.94	28276.30
822.12	28364.37
822.29	28036.69
822.47	27969.11
822.65	28057.17
822.83	27813.46
823.01	27709.02
823.19	27868.76
823.36	27688.54
823.54	27577.95
823.72	27596.38
823.90	28100.18
824.08	27410.01
824.25	27461.21
824.43	27430.49
824.61	27559.52
824.79	27543.13
824.97	27340.38
825.15	27532.89
825.32	27764.31
825.50	27197.02
825.68	26916.45
825.86	27625.05
826.04	27227.74
826.21	27371.10
826.39	27258.46
826.57	26918.50
826.75	27086.43
826.93	27172.45
827.10	27022.95
827.28	26955.36
827.46	27129.44
827.64	26990.18
827.81	26498.67
827.99	27033.19
828.17	26742.38
828.35	26629.74
828.53	26527.34
828.70	26652.27
828.88	26740.33
829.06	26566.25
829.24	26863.21
829.41	26588.78
829.59	26900.07
829.77	26367.60
829.95	26470.00
830.12	26367.60
830.30	26199.66
830.48	26457.71
830.66	26406.51
830.84	26465.90
831.01	26504.81
831.19	26420.84
831.37	26056.31
831.55	26369.65
831.72	26375.79
831.90	26377.84
832.08	26257.01
832.25	26289.77
832.43	26093.17
832.61	25890.42
832.79	25976.44
832.96	25775.73
833.14	25933.43
833.32	26070.64
833.50	26216.05
833.67	26031.73
833.85	26125.94
834.03	25685.62
834.20	25593.47
834.38	25910.90
834.56	25933.43
834.74	25947.76
834.91	25906.80
835.09	25648.76
835.27	25579.13
835.44	25738.87
835.62	25030.27
835.80	25185.92
835.98	25400.96
836.15	25704.06
836.33	25466.49
836.51	25745.02
836.68	25448.06
836.86	25337.47
837.04	25394.81
837.21	25286.27
837.39	25327.23
837.57	25558.65
837.75	25474.68
837.92	25073.28
838.10	24942.21
838.28	24888.96
838.45	25257.60
838.63	25177.73
838.81	25175.68
838.98	24680.07
839.16	24731.27
839.34	24989.31
839.51	24680.07
839.69	24780.42
839.87	24833.67
840.04	24839.81
840.22	24825.48
840.40	24555.15
840.57	24641.16
840.75	24360.59
840.93	24344.20
841.10	24835.72
841.28	24917.64
841.46	24692.36
841.63	24788.61
841.81	24899.20
841.98	24751.75
842.16	24624.78
842.34	24704.65
842.51	24184.46
842.69	24563.34
842.87	24526.47
843.04	24438.41
843.22	24301.20
843.40	24112.78
843.57	24315.53
843.75	24174.22
843.92	24462.99
844.10	24391.31
844.28	24333.96
844.45	24362.64
844.63	24383.12
844.81	24368.78
844.98	24237.71
845.16	24221.33
845.33	24055.44
845.51	24010.39
845.69	23912.08
845.86	23991.95
846.04	23953.04
846.21	23905.94
846.39	23991.95
846.57	23565.98
846.74	23690.90
846.92	23967.38
847.09	23668.37
847.27	23578.26
847.45	23789.20
847.62	23674.52
847.80	23543.45
847.97	23873.17
848.15	23752.34
848.32	23506.59
848.50	23568.02
848.68	23240.35
848.85	23350.94
849.03	23269.02
849.20	23535.26
849.38	23586.46
849.56	23365.28
849.73	23178.91
849.91	23021.22
850.08	23527.06
850.26	23430.81
850.43	23230.11
850.61	23144.09
850.78	22967.97
850.96	23191.20
851.14	22722.21
851.31	23266.97
851.49	23070.37
851.66	23084.70
851.84	23160.48
852.01	23260.83
852.19	22906.53
852.36	22832.80
852.54	22884.00
852.71	22888.10
852.89	22867.62
853.07	22877.86
853.24	22910.63
853.42	22802.08
853.59	22656.68
853.77	22898.34
853.94	22894.24
854.12	23051.94
854.29	22505.13
854.47	22797.99
854.64	22728.36
854.82	22818.47
854.99	22544.04
855.17	22423.21
855.34	22587.05
855.52	22277.80
855.69	22927.01
855.87	22277.80
856.04	22400.68
856.22	22363.82
856.39	22107.82
856.57	22433.45
856.74	22179.50
856.92	22353.58
857.09	22335.15
857.27	22150.83
857.44	22322.86
857.62	22476.46
857.79	22417.07
857.97	22187.69
858.14	21892.79
858.32	22257.32
858.49	22220.46
858.67	21976.75
858.84	21706.42
859.02	22183.60
859.19	22099.63
859.37	21841.59
859.54	21620.41
859.72	22073.01
859.89	21755.57
860.06	21984.94
860.24	21653.17
860.41	21835.44
860.59	21960.37
860.76	21745.33
860.94	21784.24
861.11	21747.38
861.29	21434.04
861.46	21470.90
861.64	21219.00
861.81	21515.96
861.98	21282.49
862.16	21511.86
862.33	21290.68
862.51	21546.68
862.68	21417.66
862.86	21284.54
863.03	21286.59
863.21	21311.16
863.38	21141.18
863.55	21153.47
863.73	21284.54
863.90	21278.40
864.08	21204.67
864.25	20907.71
864.43	21114.56
864.60	20940.48
864.77	21071.55
864.95	20817.60
865.12	20729.54
865.30	20999.87
865.47	20799.17
865.64	20741.83
865.82	20956.86
865.99	20983.49
866.17	20733.64
866.34	20932.29
866.51	20577.99
866.69	20702.92
866.86	20516.55
867.04	20418.25
867.21	20543.17
867.38	20182.73
867.56	20616.90
867.73	20547.27
867.91	20340.43
868.08	20217.55
868.25	20469.45
868.43	20375.24
868.60	20246.22
868.78	20434.63
868.95	20328.14
869.12	20448.97
869.30	20162.25
869.47	20418.25
869.64	20051.66
869.82	20014.80
869.99	20207.31
870.16	20354.76
870.34	20059.85
870.51	19988.18
870.69	19664.60
870.86	19932.88
871.03	20025.04
871.21	19715.80
871.38	19799.76
871.55	19789.52
871.73	19379.93
871.90	19592.92
872.07	19470.04
872.25	19523.29
872.42	19422.94
872.59	19721.94
872.77	19287.77
872.94	19472.09
873.11	19523.29
873.29	19537.62
873.46	19238.62
873.63	19228.38
873.81	19318.49
873.98	19205.85
874.15	19175.13
874.33	18808.54
874.50	19113.69
874.67	19220.19
874.85	19162.84
875.02	18898.66
875.19	18953.95
875.37	18581.22
875.54	18849.50
875.71	19052.25
875.88	18816.74
876.06	18984.67
876.23	18550.50
876.40	18511.59
876.58	18513.64
876.75	18712.29
876.92	18534.12
877.10	18509.54
877.27	18419.43
877.44	18491.11
877.61	18056.94
877.79	18452.20
877.96	18237.16
878.13	18435.81
878.31	18183.91
878.48	18198.25
878.65	18245.35
878.82	17938.16
879.00	18157.29
879.17	18026.22
879.34	18061.04
879.51	17841.90
879.69	17665.78
879.86	17696.50
880.03	17899.25
880.21	17866.48
880.38	17774.32
880.55	17954.54
880.72	17743.60
880.90	17940.21
881.07	17549.04
881.24	17786.61
881.41	17735.41
881.59	17483.51
881.76	17413.88
881.93	17616.63
882.10	17506.04
882.28	17307.38
882.45	17821.42
882.62	17284.86
882.79	17555.19
882.96	16959.23
883.14	17211.13
883.31	17489.65
883.48	17360.63
883.65	17178.36
883.83	17293.05
884.00	17272.57
884.17	17329.91
884.34	17272.57
884.51	17145.59
884.69	17071.87
884.86	17151.74
885.03	17176.31
885.20	16828.16
885.38	17135.35
885.55	16895.74
885.72	16848.64
885.89	16754.43
886.06	16799.49
886.24	16963.33
886.41	16852.73
886.58	16826.11
886.75	16768.77
886.92	16637.70
887.10	16996.09
887.27	16748.29
887.44	16772.86
887.61	16727.81
887.78	16967.42
887.95	17118.97
888.13	16772.86
888.30	16654.08
888.47	16342.79
888.64	16590.59
888.81	16520.96
888.99	16287.50
889.16	16277.26
889.33	16273.16
889.50	16340.74
889.67	16527.11
889.84	15994.64
890.01	16566.02
890.19	16158.47
890.36	16426.76
890.53	15988.49
890.70	16037.64
890.87	16086.79
891.04	16355.08
891.22	16092.94
891.39	16082.70
891.56	15832.85
891.73	16058.12
891.90	15980.30
892.07	15908.62
892.24	15804.17
892.42	15757.07
892.59	15765.26
892.76	15697.68
892.93	15685.39
893.10	15656.72
893.27	15773.46
893.44	15380.25
893.61	15675.15
893.79	15664.91
893.96	15681.30
894.13	15769.36
894.30	15617.81
894.47	15421.20
894.64	15986.44
894.81	15886.09
894.98	15634.19
895.15	15640.34
895.33	15669.01
895.50	15609.62
895.67	15535.89
895.84	15531.80
896.01	15582.99
896.18	15279.89
896.35	15644.43
896.52	15453.97
896.69	15429.40
896.86	15503.12
897.04	15382.29
897.21	15466.26
897.38	15349.53
897.55	15476.50
897.72	15337.24
897.89	15257.37
898.06	15533.84
898.23	15273.75
898.40	15304.47
898.57	15669.01
898.74	15304.47
898.91	15286.04
899.08	15277.85
899.26	15240.98
899.43	15171.35
899.60	15200.02
899.77	15533.84
899.94	15458.07
900.11	15159.06
900.28	15251.22
900.45	15120.15
900.62	15257.37
900.79	15396.63
900.96	15263.51
901.13	15224.60
901.30	15052.57
901.47	14956.32
901.64	15150.87
901.81	15189.78
901.98	15175.45
902.15	15488.79
902.32	15116.06
902.49	15003.42
902.66	15118.11
902.83	15152.92
903.01	15128.35
903.18	15175.45
903.35	15171.35
903.52	15107.87
903.69	15216.41
903.86	15146.78
904.03	15208.22
904.20	15314.71
904.37	15359.77
904.54	15103.77
904.71	15138.58
904.88	15159.06
905.05	15167.26
905.22	15103.77
905.39	15042.33
905.56	14950.17
905.73	14874.40
905.90	14946.08
906.07	15077.15
906.24	15089.43
906.41	15148.82
906.58	15003.42
906.75	15089.43
906.92	15036.19
907.09	14806.81
907.26	14966.56
907.43	15007.52
907.60	14966.56
907.77	15109.91
907.93	15023.90
908.10	15152.92
908.27	14984.99
908.44	14692.13
908.61	14925.60
908.78	14692.13
908.95	14909.21
909.12	14839.58
909.29	14837.53
909.46	14927.64
909.63	15019.80
909.80	14960.41
909.97	14886.68
910.14	15091.48
910.31	14853.92
910.48	14753.57
910.65	14964.51
910.82	14649.12
910.99	14724.90
911.16	14765.85
911.33	14815.01
911.50	14483.24
911.66	14511.91
911.83	14614.30
912.00	14507.81
912.17	14434.08
912.34	14389.03
912.51	14413.60
912.68	14315.30
912.85	14630.69
913.02	14661.41
913.19	14143.27
913.36	14591.78
913.53	14413.60
913.70	14333.73
913.86	14432.04
914.03	14503.71
914.20	14169.90
914.37	14241.57
914.54	14149.42
914.71	14202.66
914.88	14120.74
915.05	14223.14
915.22	14092.07
915.39	14253.86
915.55	14110.50
915.72	14147.37
915.89	14055.21
916.06	14008.11
916.23	14237.48
916.40	13666.10
916.57	13549.36
916.74	13707.05
916.91	13641.52
917.07	13657.90
917.24	13641.52
917.41	13535.03
917.58	13479.73
917.75	13487.92
917.92	13324.08
918.09	13369.14
918.26	13358.90
918.42	13268.79
918.59	13365.04
918.76	13104.95
918.93	13195.06
919.10	13297.46
919.27	13096.76
919.44	13274.93
919.60	13342.52
919.77	13131.58
919.94	12953.40
920.11	13033.27
920.28	12922.68
920.45	12996.41
920.61	12859.20
920.78	12736.32
920.95	12756.80
921.12	12848.96
921.29	12541.76
921.46	12762.94
921.62	12511.04
921.79	12523.33
921.96	12603.20
922.13	12379.97
922.30	12427.07
922.47	12111.69
922.63	12463.94
922.80	12422.98
922.97	12181.32
923.14	12054.34
923.31	12203.85
923.47	11978.57
923.64	12181.32
923.81	11999.05
923.98	11919.18
924.15	11988.81
924.32	11913.03
924.48	11859.79
924.65	12140.36
924.82	11669.33
924.99	11802.44
925.15	11577.17
925.32	11974.47
925.49	11439.95
925.66	11626.32
925.83	11548.50
925.99	11394.90
926.16	11450.19
926.33	11292.50
926.50	11206.48
926.67	11427.67
926.83	11351.89
927.00	11061.08
927.17	11120.47
927.34	11007.83
927.50	10981.21
927.67	11186.01
927.84	10825.56
928.01	10778.46
928.17	10569.57
928.34	10915.67
928.51	10731.36
928.68	10796.89
928.84	10729.31
929.01	10549.09
929.18	10569.57
929.35	10442.59
929.51	10526.56
929.68	10258.28
929.85	10403.68
930.02	10219.36
930.18	10487.65
930.35	10489.70
930.52	10223.46
930.69	10358.63
930.85	10202.98
931.02	10084.20
931.19	10098.53
931.36	9932.65
931.52	9903.98
931.69	9983.85
931.86	9799.53
932.02	9965.42
932.19	9803.63
932.36	9693.04
932.53	9734.00
932.69	9613.17
932.86	9588.59
933.03	9506.67
933.19	9469.81
933.36	9582.45
933.53	9645.93
933.70	9312.11
933.86	9281.39
934.03	9375.60
934.20	9246.58
934.36	9289.59
934.53	8996.73
934.70	8851.32
934.86	9041.78
935.03	8728.44
935.20	8710.01
935.36	8777.59
935.53	8843.13
935.70	8744.83
935.86	8662.91
936.03	8374.14
936.20	8435.58
936.36	8386.43
936.53	8333.18
936.70	8312.71
936.86	8351.62
937.03	8335.23
937.20	8097.67
937.36	7970.69
937.53	7757.71
937.70	7726.99
937.86	7694.22
938.03	7712.65
938.20	7640.97
938.36	7370.64
938.53	7430.03
938.70	7352.21
938.86	7309.20
939.03	7196.56
939.20	6999.96
939.36	6907.80
939.53	7059.35
939.70	7006.10
939.86	6756.25
940.03	6672.28
940.19	6516.64
940.36	6492.06
940.53	6635.42
940.69	6530.97
940.86	6500.25
941.03	6258.59
941.19	6152.10
941.36	6182.82
941.52	6139.81
941.69	6137.76
941.86	6107.04
942.02	6008.74
942.19	5945.25
942.35	6000.55
942.52	5818.28
942.69	5943.21
942.85	5863.33
943.02	5767.08
943.18	5640.11
943.35	5746.60
943.52	5603.24
943.68	5611.43
943.85	5435.31
944.01	5443.50
944.18	5433.26
944.35	5572.52
944.51	5322.67
944.68	5318.57
944.84	5332.91
945.01	5224.37
945.17	5248.94
945.34	5261.23
945.51	5275.57
945.67	5298.10
945.84	5236.66
946.00	5197.74
946.17	5242.80
946.33	5107.63
946.50	5302.19
946.67	5234.61
946.83	5089.20
947.00	5156.79
947.16	5097.39
947.33	5179.31
947.49	5177.26
947.66	5046.20
947.82	5185.46
947.99	5171.12
948.16	5232.56
948.32	5160.88
948.49	5222.32
948.65	5109.68
948.82	5162.93
948.98	5173.17
949.15	5117.87
949.31	5191.60
949.48	5058.48
949.64	5023.67
949.81	5175.22
949.97	5140.40
950.14	5171.12
950.30	5111.73
950.47	5173.17
950.63	5121.97
950.80	5158.83
950.96	5103.54
951.13	5152.69
951.30	5193.65
951.46	5185.46
951.63	5250.99
951.79	5164.98
951.96	5253.04
952.12	5119.92
952.29	5300.14
952.45	5136.31
952.62	5193.65
952.78	5199.79
952.94	5312.43
953.11	5255.09
953.27	5152.69
953.44	5402.54
953.60	5140.40
953.77	5187.50
953.93	5169.07
954.10	5238.70
954.26	5318.57
954.43	5220.27
954.59	5369.77
954.76	5277.62
954.92	5171.12
955.09	5279.66
955.25	5279.66
955.42	5232.56
955.58	5359.53
955.75	5332.91
955.91	5273.52
956.07	5320.62
956.24	5302.19
956.40	5269.42
956.57	5242.80
956.73	5140.40
956.90	5369.77
957.06	5162.93
957.23	5306.29
957.39	5345.20
957.56	5238.70
957.72	5173.17
957.88	5132.21
958.05	5359.53
958.21	5400.49
958.38	5197.74
958.54	5279.66
958.71	5470.12
958.87	5234.61
959.03	5193.65
959.20	5337.01
959.36	5169.07
959.53	5324.72
959.69	5373.87
959.85	5212.08
960.02	5240.75
960.18	5302.19
960.35	5253.04
960.51	5394.35
960.68	5199.79
960.84	5255.09
961.00	5246.90
961.17	5162.93
961.33	5230.51
961.50	5089.20
961.66	5332.91
961.82	5187.50
961.99	5191.60
962.15	5257.14
962.31	5175.22
962.48	5205.94
962.64	5259.18
962.81	5296.05
962.97	5279.66
963.13	5228.46
963.30	5312.43
963.46	5113.78
963.62	5205.94
963.79	5253.04
963.95	5130.16
964.12	5091.25
964.28	5271.47
964.44	5183.41
964.61	5175.22
964.77	5136.31
964.93	5304.24
965.10	5154.74
965.26	5201.84
965.42	5146.55
965.59	5136.31
965.75	5154.74
965.92	5312.43
966.08	4935.60
966.24	5011.38
966.41	5085.11
966.57	5156.79
966.73	5144.50
966.90	5218.22
967.06	5130.16
967.22	5056.43
967.39	5050.29
967.55	4892.60
967.71	4995.00
967.88	4990.90
968.04	4923.32
968.20	5050.29
968.37	4868.02
968.53	4943.80
968.69	5015.48
968.85	5050.29
969.02	4978.61
969.18	5134.26
969.34	4960.18
969.51	5046.20
969.67	5091.25
969.83	4822.97
970.00	5025.72
970.16	4878.26
970.32	4919.22
970.48	4960.18
970.65	4972.47
970.81	4831.16
970.97	4855.73
971.14	4794.29
971.30	4845.49
971.46	4853.69
971.63	4853.69
971.79	5015.48
971.95	4888.50
972.11	4769.72
972.28	4833.21
972.44	4857.78
972.60	4636.60
972.76	4747.19
972.93	4739.00
973.09	4790.20
973.25	4902.84
973.42	4757.43
973.58	4755.38
973.74	4726.71
973.90	4792.25
974.07	4558.78
974.23	4689.85
974.39	4736.95
974.55	4728.76
974.72	4644.79
974.88	4546.49
975.04	4667.32
975.20	4634.55
975.37	4587.45
975.53	4732.86
975.69	4661.18
975.85	4681.66
976.01	4546.49
976.18	4495.29
976.34	4573.11
976.50	4616.12
976.66	4552.63
976.83	4507.58
976.99	4487.10
977.15	4546.49
977.31	4409.28
977.47	4573.11
977.64	4491.20
977.80	4458.43
977.96	4464.57
978.12	4425.66
978.29	4288.45
978.45	4413.37
978.61	4392.89
978.77	4542.39
978.93	4460.48
979.10	4409.28
979.26	4294.59
979.42	4374.46
979.58	4259.78
979.74	4294.59
979.91	4308.93
980.07	4202.43
980.23	4343.74
980.39	4267.97
980.55	4302.78
980.71	4339.65
980.88	4259.78
981.04	4259.78
981.20	4278.21
981.36	4274.11
981.52	4165.57
981.68	4210.62
981.85	4235.20
982.01	4255.68
982.17	4116.42
982.33	4050.88
982.49	4253.63
982.65	4192.19
982.82	4247.49
982.98	4153.28
983.14	4071.36
983.30	4138.94
983.46	4126.66
983.62	4153.28
983.79	4030.40
983.95	4134.85
984.11	3964.87
984.27	4165.57
984.43	4097.99
984.59	4136.90
984.75	4222.91
984.91	4018.11
985.08	4050.88
985.24	3915.72
985.40	3989.44
985.56	4059.07
985.72	4005.83
985.88	4022.21
986.04	3952.58
986.20	3891.14
986.37	4063.17
986.53	3962.82
986.69	3934.15
986.85	3950.53
987.01	3809.22
987.17	3891.14
987.33	3913.67
987.49	3844.04
987.65	3940.29
987.82	3839.94
987.98	3805.13
988.14	3932.10
988.30	3868.61
988.46	3731.40
988.62	3770.31
988.78	3807.17
988.94	3803.08
989.10	3647.43
989.26	3706.82
989.42	3749.83
989.59	3686.34
989.75	3696.58
989.91	3739.59
990.07	3737.54
990.23	3776.45
990.39	3735.50
990.55	3633.10
990.71	3602.38
990.87	3602.38
991.03	3735.50
991.19	3518.41
991.35	3545.03
991.51	3659.72
991.67	3626.95
991.83	3678.15
992.00	3721.16
992.16	3669.96
992.32	3610.57
992.48	3672.01
992.64	3522.51
992.80	3565.51
992.96	3610.57
993.12	3614.66
993.28	3588.04
993.44	3545.03
993.60	3688.39
993.76	3581.90
993.92	3452.88
994.08	3561.42
994.24	3688.39
994.40	3461.07
994.56	3485.64
994.72	3403.72
994.88	3442.64
995.04	3407.82
995.20	3463.12
995.36	3411.92
995.52	3434.44
995.68	3325.90
995.84	3385.29
996.00	3473.36
996.16	3379.15
996.32	3416.01
996.48	3379.15
996.64	3524.55
996.80	3422.16
996.96	3444.68
997.12	3362.76
997.28	3354.57
997.44	3330.00
997.60	3405.77
997.76	3319.76
997.92	3381.20
998.08	3338.19
998.24	3289.04
998.40	3301.33
998.56	3317.71
998.72	3286.99
998.88	3194.83
999.04	3190.74
999.20	3313.61
999.36	3153.87
999.52	3379.15
999.68	3186.64
999.84	3315.66
1000.00	3205.07
1000.16	3221.45
1000.32	3147.73
1000.48	3358.67
1000.64	3153.87
1000.80	3114.96
1000.95	3053.52
1001.11	3155.92
1001.27	3194.83
1001.43	3106.77
1001.59	3041.23
1001.75	3176.40
1001.91	3131.34
1002.07	3076.05
1002.23	3059.67
1002.39	3137.49
1002.55	3131.34
1002.71	3057.62
1002.87	2942.93
1003.03	3043.28
1003.19	3035.09
1003.34	3051.47
1003.50	3082.19
1003.66	3084.24
1003.82	3112.91
1003.98	3024.85
1004.14	3059.67
1004.30	2994.13
1004.46	2975.70
1004.62	2901.97
1004.78	3006.42
1004.94	3035.09
1005.09	3041.23
1005.25	2965.46
1005.41	2885.59
1005.57	2856.92
1005.73	2979.79
1005.89	2850.77
1006.05	3010.51
1006.21	3010.51
1006.37	2805.72
1006.52	2887.64
1006.68	2822.10
1006.84	2918.36
1007.00	2875.35
1007.16	2858.96
1007.32	2801.62
1007.48	2928.60
1007.64	2801.62
1007.79	2750.42
1007.95	2842.58
1008.11	2965.46
1008.27	2691.03
1008.43	2936.79
1008.59	2729.94
1008.75	2906.07
1008.91	2830.29
1009.06	2678.74
1009.22	2836.44
1009.38	2766.81
1009.54	2766.81
1009.70	2754.52
1009.86	2803.67
1010.01	2899.92
1010.17	2721.75
1010.33	2693.08
1010.49	2670.55
1010.65	2781.14
1010.81	2684.89
1010.96	2688.98
1011.12	2633.69
1011.28	2590.68
1011.44	2756.57
1011.60	2656.22
1011.76	2596.82
1011.91	2746.33
1012.07	2607.06
1012.23	2615.26
1012.39	2602.97
1012.55	2664.41
1012.71	2621.40
1012.86	2582.49
1013.02	2648.02
1013.18	2609.11
1013.34	2572.25
1013.50	2658.26
1013.65	2641.88
1013.81	2652.12
1013.97	2504.67
1014.13	2576.34
1014.29	2494.43
1014.44	2643.93
1014.60	2559.96
1014.76	2453.47
1014.92	2504.67
1015.07	2502.62
1015.23	2617.30
1015.39	2443.23
1015.55	2529.24
1015.71	2551.77
1015.86	2504.67
1016.02	2488.28
1016.18	2418.65
1016.34	2514.91
1016.49	2486.23
1016.65	2623.45
1016.81	2486.23
1016.97	2475.99
1017.12	2527.19
1017.28	2363.36
1017.44	2367.45
1017.60	2406.36
1017.75	2357.21
1017.91	2402.27
1018.07	2482.14
1018.23	2461.66
1018.38	2375.64
1018.54	2355.16
1018.70	2424.80
1018.86	2404.32
1019.01	2400.22
1019.17	2418.65
1019.33	2488.28
1019.49	2396.12
1019.64	2398.17
1019.80	2451.42
1019.96	2357.21
1020.12	2340.83
1020.27	2312.16
1020.43	2404.32
1020.59	2326.49
1020.74	2320.35
1020.90	2379.74
1021.06	2299.87
1021.22	2322.40
1021.37	2306.01
1021.53	2254.81
1021.69	2357.21
1021.84	2279.39
1022.00	2308.06
1022.16	2299.87
1022.31	2287.58
1022.47	2316.25
1022.63	2256.86
1022.79	2220.00
1022.94	2291.68
1023.10	2406.36
1023.26	2197.47
1023.41	2240.48
1023.57	2271.20
1023.73	2363.36
1023.88	2252.77
1024.04	2228.19
1024.20	2271.20
1024.35	2250.72
1024.51	2322.40
1024.67	2291.68
1024.82	2248.67
1024.98	2217.95
1025.14	2185.18
1025.29	2119.65
1025.45	2209.76
1025.61	2156.51
1025.76	2240.48
1025.92	2224.09
1026.08	2242.53
1026.23	2162.66
1026.39	2201.57
1026.55	2222.05
1026.70	2195.42
1026.86	2162.66
1027.02	2244.57
1027.17	2256.86
1027.33	2203.61
1027.48	2142.18
1027.64	2138.08
1027.80	2041.82
1027.95	2166.75
1028.11	1976.29
1028.27	2119.65
1028.42	2050.02
1028.58	2072.54
1028.73	2095.07
1028.89	2088.93
1029.05	2191.33
1029.20	2088.93
>>>>>End Processed Spectral Data<<<<<
