SpectraSuite Data File
++++++++++++++++++++++++++++++++++++
Date: Fri Jun 02 14:51:10 CEST 2017
User: INFO_000
Dark Spectrum Present: No
Reference Spectrum Present: No
Number of Sampled Component Spectra: 1
Spectrometers: USB4H00879
Integration Time (usec): 80000 (USB4H00879)
Spectra Averaged: 1 (USB4H00879)
Boxcar Smoothing: 0 (USB4H00879)
Correct for Electrical Dark: No (USB4H00879)
Strobe/Lamp Enabled: No (USB4H00879)
Correct for Detector Non-linearity: No (USB4H00879)
Correct for Stray Light: No (USB4H00879)
Number of Pixels in Processed Spectrum: 3648
>>>>>Begin Processed Spectral Data<<<<<
345.13	1259.50
345.34	1259.50
345.56	1259.50
345.78	1277.93
345.99	1294.32
346.21	1738.73
346.42	1699.81
346.64	1626.09
346.86	1871.84
347.07	1699.81
347.29	1728.49
347.50	1552.36
347.72	1681.38
347.94	1728.49
348.15	1523.69
348.37	1679.33
348.59	1753.06
348.80	1685.48
349.02	1771.49
349.23	1775.59
349.45	1783.78
349.67	1830.88
349.88	1777.64
350.10	1896.42
350.31	1904.61
350.53	1781.73
350.75	1943.52
350.96	1783.78
351.18	1851.36
351.39	1873.89
351.61	1859.56
351.82	1904.61
352.04	1877.99
352.26	1748.97
352.47	1931.23
352.69	1920.99
352.90	1800.16
353.12	1826.79
353.34	1785.83
353.55	1925.09
353.77	1951.71
353.98	1843.17
354.20	1798.12
354.41	1904.61
354.63	1912.80
354.85	2007.01
355.06	1943.52
355.28	1869.80
355.49	1834.98
355.71	1843.17
355.92	1902.56
356.14	1896.42
356.35	1892.32
356.57	1877.99
356.79	1955.81
357.00	1853.41
357.22	1918.95
357.43	1882.08
357.65	1943.52
357.86	1839.08
358.08	1920.99
358.29	1902.56
358.51	2066.40
358.72	2031.58
358.94	1896.42
359.16	1894.37
359.37	1925.09
359.59	1871.84
359.80	1951.71
360.02	1900.52
360.23	1955.81
360.45	1929.19
360.66	1951.71
360.88	1859.56
361.09	1984.48
361.31	1992.67
361.52	1964.00
361.74	2090.98
361.95	2047.97
362.17	1884.13
362.38	2088.93
362.60	2025.44
362.81	1986.53
363.03	1886.18
363.24	1992.67
363.46	2072.54
363.67	1970.15
363.89	1990.63
364.10	2052.06
364.32	1918.95
364.53	2004.96
364.75	1937.38
364.96	2086.88
365.18	1953.76
365.39	1894.37
365.61	1988.58
365.82	2109.41
366.04	2033.63
366.25	1908.71
366.47	2043.87
366.68	2031.58
366.90	1957.86
367.11	2047.97
367.33	2066.40
367.54	2045.92
367.76	1976.29
367.97	2119.65
368.19	2029.54
368.40	1972.19
368.62	1968.10
368.83	1955.81
369.05	2107.36
369.26	1966.05
369.48	2000.87
369.69	2023.39
369.91	2070.50
370.12	2017.25
370.33	2090.98
370.55	2019.30
370.76	1994.72
370.98	2076.64
371.19	1980.39
371.41	1978.34
371.62	2029.54
371.84	2009.06
372.05	2140.13
372.27	2113.50
372.48	2107.36
372.69	2025.44
372.91	2107.36
373.12	2136.03
373.34	2113.50
373.55	2158.56
373.77	2121.70
373.98	2093.02
374.20	2162.66
374.41	2222.05
374.62	2164.70
374.84	2133.98
375.05	2168.80
375.27	2150.37
375.48	2203.61
375.70	2099.17
375.91	2170.85
376.12	2228.19
376.34	2138.08
376.55	2176.99
376.77	2148.32
376.98	2193.37
377.19	2158.56
377.41	2113.50
377.62	2213.85
377.84	2258.91
378.05	2277.34
378.27	2168.80
378.48	2314.20
378.69	2349.02
378.91	2191.33
379.12	2295.77
379.34	2252.77
379.55	2236.38
379.76	2213.85
379.98	2195.42
380.19	2211.81
380.41	2328.54
380.62	2297.82
380.83	2252.77
381.05	2162.66
381.26	2297.82
381.47	2205.66
381.69	2267.10
381.90	2400.22
382.12	2273.25
382.33	2246.62
382.54	2215.90
382.76	2301.92
382.97	2308.06
383.19	2213.85
383.40	2293.72
383.61	2287.58
383.83	2164.70
384.04	2224.09
384.25	2342.88
384.47	2369.50
384.68	2301.92
384.89	2189.28
385.11	2203.61
385.32	2250.72
385.54	2357.21
385.75	2338.78
385.96	2394.08
386.18	2398.17
386.39	2318.30
386.60	2334.68
386.82	2328.54
387.03	2402.27
387.24	2373.60
387.46	2359.26
387.67	2435.03
387.88	2512.86
388.10	2330.59
388.31	2428.89
388.52	2523.10
388.74	2437.08
388.95	2471.90
389.16	2496.47
389.38	2463.71
389.59	2537.43
389.80	2553.82
390.02	2480.09
390.23	2678.74
390.44	2467.80
390.66	2498.52
390.87	2490.33
391.08	2588.63
391.30	2549.72
391.51	2498.52
391.72	2682.84
391.94	2568.15
392.15	2559.96
392.36	2555.86
392.58	2535.39
392.79	2553.82
393.00	2598.87
393.22	2633.69
393.43	2654.17
393.64	2764.76
393.85	2727.89
394.07	2592.73
394.28	2705.37
394.49	2672.60
394.71	2738.13
394.92	2750.42
395.13	2639.83
395.35	2676.70
395.56	2719.70
395.77	2779.09
395.98	2731.99
396.20	2777.05
396.41	2805.72
396.62	2910.16
396.84	2727.89
397.05	2822.10
397.26	2707.41
397.47	2893.78
397.69	2748.37
397.90	2920.40
398.11	2815.96
398.32	2830.29
398.54	2887.64
398.75	2797.53
398.96	2830.29
399.18	2957.27
399.39	2918.36
399.60	2932.69
399.81	2854.87
400.03	2873.30
400.24	3205.07
400.45	2764.76
400.66	2936.79
400.88	3057.62
401.09	3231.69
401.30	3008.47
401.51	3119.06
401.73	2926.55
401.94	3114.96
402.15	3043.28
402.36	3121.10
402.58	3049.43
402.79	3125.20
403.00	3110.86
403.21	3096.53
403.43	3227.60
403.64	3248.08
403.85	3155.92
404.06	3065.81
404.27	3018.71
404.49	3084.24
404.70	3055.57
404.91	3278.80
405.12	3180.50
405.34	3121.10
405.55	3313.61
405.76	3129.30
405.97	3198.93
406.19	3239.89
406.40	3119.06
406.61	3297.23
406.82	3071.95
407.03	3260.37
407.25	3387.34
407.46	3362.76
407.67	3422.16
407.88	3370.96
408.09	3301.33
408.31	3248.08
408.52	3444.68
408.73	3289.04
408.94	3332.05
409.15	3432.40
409.37	3362.76
409.58	3411.92
409.79	3467.21
410.00	3459.02
410.21	3413.96
410.43	3381.20
410.64	3358.67
410.85	3391.44
411.06	3600.33
411.27	3436.49
411.48	3579.85
411.70	3497.93
411.91	3493.83
412.12	3602.38
412.33	3569.61
412.54	3524.55
412.76	3563.47
412.97	3653.58
413.18	3454.92
413.39	3368.91
413.60	3604.42
413.81	3653.58
414.03	3518.41
414.24	3465.16
414.45	3633.10
414.66	3459.02
414.87	3637.19
415.08	3647.43
415.30	3620.81
415.51	3743.69
415.72	3610.57
415.93	3618.76
416.14	3735.50
416.35	3796.93
416.56	3620.81
416.78	3710.92
416.99	3731.40
417.20	3620.81
417.41	3755.97
417.62	3629.00
417.83	3790.79
418.04	3794.89
418.26	3876.80
418.47	3772.36
418.68	3870.66
418.89	3786.69
419.10	4196.29
419.31	3831.75
419.52	3944.39
419.73	3854.28
419.95	4120.51
420.16	3819.46
420.37	3844.04
420.58	3946.44
420.79	3811.27
421.00	3889.09
421.21	3985.35
421.42	3874.76
421.63	3940.29
421.85	3950.53
422.06	4030.40
422.27	4155.33
422.48	4028.35
422.69	4138.94
422.90	4046.79
423.11	4100.03
423.32	4044.74
423.53	4204.48
423.75	4108.23
423.96	4210.62
424.17	4161.47
424.38	4278.21
424.59	4128.70
424.80	4401.08
425.01	4202.43
425.22	4181.95
425.43	4419.52
425.64	4509.63
425.85	4440.00
426.06	4284.35
426.28	4329.41
426.49	4331.45
426.70	4306.88
426.91	4345.79
427.12	4485.05
427.33	4476.86
427.54	4427.71
427.75	4472.76
427.96	4556.73
428.17	4534.20
428.38	4601.79
428.59	4718.52
428.80	4511.68
429.01	4683.70
429.23	4589.50
429.44	4816.82
429.65	4724.66
429.86	4722.62
430.07	4587.45
430.28	4509.63
430.49	4820.92
430.70	4814.77
430.91	4974.52
431.12	4732.86
431.33	4898.74
431.54	4851.64
431.75	4925.36
431.96	5031.86
432.17	4853.69
432.38	4931.51
432.59	5164.98
432.80	5017.52
433.01	5130.16
433.22	5179.31
433.43	4988.85
433.64	5064.63
433.85	4915.12
434.06	5087.15
434.27	5119.92
434.49	5259.18
434.70	5263.28
434.91	5318.57
435.12	5072.82
435.33	5302.19
435.54	5152.69
435.75	5107.63
435.96	5197.74
436.17	5226.42
436.38	5459.88
436.59	5363.63
436.80	5177.26
437.01	5509.04
437.22	5545.90
437.43	5418.93
437.64	5259.18
437.85	5506.99
438.06	5617.58
438.27	5533.61
438.48	5541.80
438.69	5697.45
438.90	5597.10
439.11	5578.67
439.32	5654.44
439.53	5736.36
439.74	5740.46
439.95	5699.50
440.16	5701.54
440.37	5605.29
440.57	5601.19
440.78	5810.09
440.99	5844.90
441.20	5769.13
441.41	5625.77
441.62	5820.33
441.83	5550.00
442.04	6006.69
442.25	5767.08
442.46	5881.77
442.67	5928.87
442.88	6334.37
443.09	5797.80
443.30	5971.88
443.51	6070.18
443.72	6211.49
443.93	6035.36
444.14	6113.19
444.35	5937.06
444.56	6203.30
444.77	6119.33
444.98	6143.91
445.19	6225.82
445.40	6225.82
445.61	6080.42
445.81	6354.85
446.02	6500.25
446.23	6322.08
446.44	6086.56
446.65	6381.47
446.86	6223.78
447.07	6522.78
447.28	6475.68
447.49	6510.49
447.70	6379.42
447.91	6481.82
448.12	6590.36
448.33	6533.02
448.54	6565.79
448.74	6430.62
448.95	6686.62
449.16	6643.61
449.37	6959.00
449.58	6547.36
449.79	6926.23
450.00	6678.43
450.21	6641.56
450.42	6907.80
450.63	6901.65
450.84	6760.34
451.05	6905.75
451.25	6774.68
451.46	6754.20
451.67	6944.66
451.88	7108.50
452.09	6918.04
452.30	6877.08
452.51	6940.57
452.72	7034.77
452.93	7262.10
453.13	6963.09
453.34	7139.22
453.55	7180.18
453.76	7221.14
453.97	7427.98
454.18	7047.06
454.39	7206.80
454.60	7233.43
454.81	7460.75
455.01	7364.50
455.22	7153.55
455.43	7284.62
455.64	7597.96
455.85	7747.47
456.06	7745.42
456.27	7528.33
456.48	7602.06
456.68	7602.06
456.89	7726.99
457.10	7679.88
457.31	7788.43
457.52	7745.42
457.73	7802.76
457.94	7892.87
458.14	7686.03
458.35	8265.60
458.56	8017.80
458.77	8040.33
458.98	8146.82
459.19	7917.45
459.39	8071.04
459.60	8275.84
459.81	8218.50
460.02	8214.40
460.23	8238.98
460.44	8345.47
460.65	8411.01
460.85	8462.21
461.06	8480.64
461.27	8214.40
461.48	8572.80
461.69	8595.32
461.89	8382.34
462.10	8535.93
462.31	8492.93
462.52	8540.03
462.73	8490.88
462.94	8728.44
463.14	8632.19
463.35	8763.26
463.56	9154.42
463.77	9033.59
463.98	8740.73
464.18	8920.95
464.39	9068.41
464.60	9211.76
464.81	9021.30
465.02	9017.21
465.23	9279.35
465.43	9248.63
465.64	9342.83
465.85	9416.56
466.06	9125.75
466.27	9521.01
466.47	9471.86
466.68	9578.35
466.89	9506.67
467.10	9693.04
467.30	9359.22
467.51	9850.73
467.72	10028.90
467.93	9473.90
468.14	9803.63
468.34	10092.39
468.55	9926.50
468.76	9985.90
468.97	9893.74
469.17	10127.21
469.38	10258.28
469.59	10364.77
469.80	10108.77
470.01	10254.18
470.21	10260.32
470.42	10522.46
470.63	10549.09
470.84	10372.96
471.04	10682.20
471.25	10800.99
471.46	10555.23
471.67	10946.39
471.87	10755.93
472.08	10975.06
472.29	11259.73
472.50	10643.29
472.70	10823.51
472.91	10981.21
473.12	11431.76
473.33	11214.68
473.53	11200.34
473.74	11183.96
473.95	11519.82
474.16	11712.33
474.36	11685.71
474.57	11814.73
474.78	11874.12
474.99	11693.90
475.19	11732.81
475.40	12126.02
475.61	12175.17
475.81	12248.90
476.02	12425.03
476.23	12070.73
476.44	12379.97
476.64	12592.96
476.85	12748.61
477.06	12695.36
477.27	12967.74
477.47	13018.94
477.68	13041.46
477.89	12934.97
478.09	13150.01
478.30	13307.70
478.51	13283.13
478.71	13367.09
478.92	13340.47
479.13	13528.88
479.34	13557.55
479.54	13752.11
479.75	13717.29
479.96	13760.30
480.16	13918.00
480.37	13911.85
480.58	14171.94
480.78	14184.23
480.99	14268.20
481.20	14493.47
481.41	14569.25
481.61	14634.78
481.82	14577.44
482.03	14649.12
482.23	14583.59
482.44	15021.85
482.65	14987.04
482.85	15269.66
483.06	15259.42
483.27	15206.17
483.47	15177.50
483.68	15339.29
483.89	15380.25
484.09	15576.85
484.30	15736.59
484.51	16035.60
484.71	16000.78
484.92	16017.16
485.13	16033.55
485.33	16082.70
485.54	16072.46
485.75	16557.83
485.95	16547.59
486.16	16439.05
486.37	16719.62
486.57	16477.96
486.78	16604.93
486.98	16744.19
487.19	16828.16
487.40	16869.12
487.60	17256.18
487.81	17385.21
488.02	17151.74
488.22	17362.68
488.43	17712.88
488.64	17557.24
488.84	17522.42
489.05	17925.87
489.25	17604.34
489.46	18130.67
489.67	17934.06
489.87	18220.78
490.08	18267.88
490.29	18040.56
490.49	18636.52
490.70	18861.79
490.90	18566.88
491.11	18427.62
491.32	18935.52
491.52	19259.10
491.73	18921.18
491.94	19070.68
492.14	19355.35
492.35	19377.88
492.55	19498.71
492.76	19302.11
492.97	20037.33
493.17	19644.12
493.38	19795.67
493.58	20135.63
493.79	20031.18
494.00	19992.27
494.20	20178.64
494.41	20317.90
494.61	20549.32
494.82	20358.86
495.02	20539.08
495.23	20401.86
495.44	20530.89
495.64	20926.14
495.85	20702.92
496.05	21100.22
496.26	21241.53
496.47	21382.84
496.67	20713.16
496.88	21587.64
497.08	21147.33
497.29	21409.47
497.49	21384.89
497.70	21886.64
497.91	21628.60
498.11	21765.81
498.32	22017.71
498.52	22224.56
498.73	22576.81
498.93	22331.05
499.14	22372.01
499.34	22484.65
499.55	22378.15
499.76	22458.03
499.96	22697.64
500.17	22570.66
500.37	22724.26
500.58	22535.85
500.78	22718.12
500.99	22836.90
501.19	23195.29
501.40	23023.26
501.60	23051.94
501.81	23301.79
502.02	23160.48
502.22	23178.91
502.43	23357.08
502.63	23467.67
502.84	23297.69
503.04	23494.30
503.25	23568.02
503.45	23686.81
503.66	23873.17
503.86	23787.16
504.07	23983.76
504.27	23955.09
504.48	24092.30
504.68	23686.81
504.89	24471.18
505.09	24225.42
505.30	24383.12
505.50	24336.01
505.71	24231.57
505.91	24784.52
506.12	24864.39
506.32	24428.17
506.53	24764.04
506.73	24919.68
506.94	24991.36
507.14	24950.40
507.35	24948.36
507.55	25267.84
507.76	24987.27
507.96	24964.74
508.17	25142.91
508.37	25368.19
508.58	25169.54
508.78	25310.85
508.99	25419.39
509.19	25300.61
509.40	25437.82
509.60	25484.92
509.81	25575.03
510.01	25636.47
510.22	25644.66
510.42	25548.41
510.63	25783.93
510.83	25769.59
511.04	26091.12
511.24	26089.07
511.44	25910.90
511.65	26117.75
511.85	26183.28
512.06	26621.55
512.26	26054.26
512.47	26101.36
512.67	25935.48
512.88	26369.65
513.08	26144.37
513.29	26525.29
513.49	26453.61
513.69	26271.34
513.90	26388.08
514.10	26762.86
514.31	26672.74
514.51	26748.52
514.72	26801.77
514.92	26599.02
515.13	26793.58
515.33	26795.62
515.53	26619.50
515.74	26838.63
515.94	27025.00
516.15	26730.09
516.35	26646.12
516.56	26883.69
516.76	26883.69
516.96	27033.19
517.17	27377.25
517.37	27311.71
517.58	27149.92
517.78	27502.17
517.99	27051.62
518.19	27582.04
518.39	27717.21
518.60	27864.66
518.80	27715.16
519.01	27833.94
519.21	27354.72
519.41	27606.62
519.62	27629.15
519.82	28223.06
520.03	28026.45
520.23	27842.14
520.43	27565.66
520.64	28075.60
520.84	28399.18
521.05	28071.51
521.25	28376.66
521.45	27866.71
521.66	28421.71
521.86	28401.23
522.07	28409.42
522.27	28329.55
522.47	28409.42
522.68	28935.75
522.88	28468.81
523.08	28626.51
523.29	28794.44
523.49	28679.75
523.70	28960.33
523.90	29142.60
524.10	28859.98
524.31	29079.11
524.51	28759.63
524.71	29388.35
524.92	29120.07
525.12	29378.11
525.33	29417.02
525.53	29437.50
525.73	29656.64
525.94	29730.36
526.14	29529.66
526.34	29666.88
526.55	29799.99
526.75	29771.32
526.95	29814.33
527.16	29984.31
527.36	29926.97
527.56	30166.58
527.77	30045.75
527.97	30264.88
528.17	30256.69
528.38	30559.79
528.58	30398.00
528.78	30645.80
528.99	30471.73
529.19	30959.14
529.39	30496.30
529.60	30860.84
529.80	30834.22
530.00	30697.00
530.21	31002.15
530.41	31065.64
530.61	31338.02
530.82	31020.58
531.02	31198.76
531.22	31366.69
531.43	31188.52
531.63	31587.87
531.83	31673.88
532.04	31577.63
532.24	31561.25
532.44	31718.94
532.64	31729.18
532.85	32136.73
533.05	32015.90
533.25	32300.56
533.46	31954.46
533.66	32618.00
533.86	32431.63
534.07	32278.04
534.27	32378.39
534.47	32579.09
534.67	32540.18
534.88	32579.09
535.08	32822.80
535.28	33308.16
535.49	33093.13
535.69	33195.53
535.89	33166.85
536.09	33410.56
536.30	33535.49
536.50	33428.99
536.70	33394.18
536.91	33527.30
537.11	33648.13
537.31	34043.38
537.51	33734.14
537.72	34412.02
537.92	34022.90
538.12	34166.26
538.32	33988.09
538.53	34108.92
538.73	34387.44
538.93	34309.62
539.13	34661.87
539.34	34315.76
539.54	34213.37
539.74	34547.18
539.94	34735.60
540.15	34842.09
540.35	34891.24
540.55	34952.68
540.75	35077.61
540.96	35137.00
541.16	34930.16
541.36	35327.46
541.56	35476.96
541.77	35603.94
541.97	35405.28
542.17	35751.39
542.37	35624.42
542.58	35956.19
542.78	35900.89
542.98	35841.50
543.18	36052.44
543.38	35962.33
543.59	36214.23
543.79	36226.52
543.99	36548.05
544.19	36427.22
544.40	36306.39
544.60	36734.42
544.80	36410.84
545.00	36574.67
545.20	36752.85
545.41	37074.38
545.61	36304.34
545.81	37141.96
546.01	37230.02
546.21	36937.16
546.42	37057.99
546.62	37354.95
546.82	36939.21
547.02	37445.06
547.22	37596.61
547.43	37377.48
547.63	37635.52
547.83	37967.29
548.03	37844.41
548.23	38026.68
548.44	37633.47
548.64	37979.58
548.84	37799.36
549.04	38088.12
549.24	38045.12
549.45	38167.99
549.65	38012.35
549.85	38204.86
550.05	38546.87
550.25	38434.23
550.45	38788.53
550.66	38602.16
550.86	38272.44
551.06	38776.24
551.26	38589.88
551.46	38852.02
551.66	39366.06
551.87	38757.81
552.07	39304.62
552.27	38917.55
552.47	39228.84
552.67	39392.68
552.87	39007.66
553.07	39908.77
553.28	39904.67
553.48	39650.72
553.68	39624.10
553.88	39718.31
554.08	39927.20
554.28	39974.30
554.48	39595.43
554.69	40054.17
554.89	39720.35
555.09	39923.10
555.29	39832.99
555.49	40242.59
555.69	40392.09
555.89	40424.86
556.10	40682.90
556.30	40564.12
556.50	40519.06
556.70	40474.01
556.90	40514.97
557.10	40986.00
557.30	40482.20
557.50	40723.86
557.70	41106.83
557.91	41049.49
558.11	40998.29
558.31	40854.93
558.51	40727.95
558.71	41104.78
558.91	41301.39
559.11	40981.90
559.31	41145.74
559.51	41258.38
559.72	41213.32
559.92	41547.14
560.12	41391.50
560.32	41717.12
560.52	41420.17
560.72	41674.12
560.92	41682.31
561.12	41833.86
561.32	42134.91
561.52	41713.03
561.72	42392.95
561.93	41751.94
562.13	41985.41
562.33	41368.97
562.53	42855.79
562.73	41819.52
562.93	41940.35
563.13	42247.55
563.33	42489.21
563.53	42456.44
563.73	41960.83
563.93	42403.19
564.13	42925.42
564.33	42300.79
564.53	42304.89
564.74	42466.68
564.94	42374.52
565.14	42712.44
565.34	42218.88
565.54	42927.47
565.74	42861.94
565.94	43095.41
566.14	42823.03
566.34	42718.58
566.54	43505.00
566.74	42906.99
566.94	43056.50
567.14	43740.52
567.34	43201.90
567.54	43222.38
567.74	43126.13
567.94	43124.08
568.14	43908.45
568.34	43560.30
568.54	43283.82
568.74	43779.43
568.94	43033.97
569.14	43918.69
569.34	43877.73
569.54	43646.31
569.75	43285.87
569.95	44082.53
570.15	44115.29
570.35	43965.79
570.55	43548.01
570.75	43885.92
570.95	44180.83
571.15	44189.02
571.35	44016.99
571.55	44211.55
571.75	44252.51
571.95	44062.05
572.15	44320.09
572.35	44543.32
572.55	44072.29
572.75	44563.80
572.95	44885.33
573.15	44340.57
573.35	44580.18
573.55	44213.60
573.75	44705.11
573.95	44645.72
574.15	44635.48
574.35	44860.76
574.55	44524.89
574.75	44655.96
574.95	45137.23
575.15	44741.97
575.34	45061.46
575.54	45194.57
575.74	45325.64
575.94	45342.03
576.14	44979.54
576.34	45266.25
576.54	45270.35
576.74	45315.40
576.94	45530.44
577.14	45178.19
577.34	45817.16
577.54	45385.04
577.74	45534.54
577.94	45407.56
578.14	45626.70
578.34	45903.17
578.54	45024.59
578.74	45649.22
578.94	45964.61
579.14	45589.83
579.34	45589.83
579.54	45890.88
579.74	46562.62
579.94	46064.96
580.13	46460.22
580.33	46103.87
580.53	46392.64
580.73	46046.53
580.93	46169.41
581.13	46644.54
581.33	46669.11
581.53	46689.59
581.73	46865.72
581.93	46755.13
582.13	46431.55
582.33	46916.92
582.53	46241.09
582.73	46923.06
582.92	46751.03
583.12	47185.20
583.32	46996.79
583.52	46941.49
583.72	47111.47
583.92	46644.54
584.12	46673.21
584.32	47396.14
584.52	47111.47
584.72	47123.76
584.92	46824.76
585.11	47564.07
585.31	47236.40
585.51	46871.86
585.71	46824.76
585.91	47236.40
586.11	46855.48
586.31	47134.00
586.51	47211.82
586.71	47691.05
586.91	47711.53
587.10	47785.25
587.30	46984.50
587.50	47639.85
587.70	47084.85
587.90	47619.37
588.10	47793.45
588.30	47813.93
588.50	47584.55
588.69	47779.11
588.89	47582.51
589.09	47629.61
589.29	48157.99
589.49	48078.11
589.69	47207.73
589.89	48323.87
590.08	47553.83
590.28	47881.51
590.48	48076.07
590.68	47725.86
590.88	48004.39
591.08	47883.56
591.28	47637.80
591.47	47922.47
591.67	48362.78
591.87	47844.65
592.07	48407.84
592.27	48016.68
592.47	48178.46
592.67	48559.39
592.86	48053.54
593.06	48020.77
593.26	48444.70
593.46	48573.72
593.66	48571.67
593.86	48502.04
594.05	48774.42
594.25	48758.04
594.45	48401.69
594.65	48153.89
594.85	48102.69
595.05	48276.77
595.24	48616.73
595.44	48731.42
595.64	48661.79
595.84	48383.26
596.04	48807.19
596.23	48751.90
596.43	48696.60
596.63	48389.41
596.83	48399.65
597.03	48944.41
597.22	49298.70
597.42	48481.56
597.62	49192.21
597.82	48803.10
598.02	49069.33
598.21	49665.29
598.41	48971.03
598.61	49118.48
598.81	49245.46
599.01	49403.15
599.20	49102.10
599.40	49009.94
599.60	49220.88
599.80	49460.49
600.00	49485.07
600.19	49610.00
600.39	49300.75
600.59	49675.53
600.79	49538.32
600.98	49329.42
601.18	49511.69
601.38	49718.54
601.58	49882.37
601.78	50038.02
601.97	49878.28
602.17	50232.58
602.37	50302.21
602.57	49954.05
602.76	50197.76
602.96	49454.35
603.16	49925.38
603.36	49909.00
603.55	50390.27
603.75	49700.11
603.95	50420.99
604.15	50197.76
604.34	50050.31
604.54	50212.10
604.74	50345.22
604.94	50101.51
605.13	50423.04
605.33	50404.61
605.53	50380.03
605.73	50461.95
605.92	50218.24
606.12	50728.19
606.32	50691.32
606.52	50652.41
606.71	50822.39
606.91	50707.71
607.11	50631.93
607.30	50959.61
607.50	50894.07
607.70	50908.41
607.90	51041.53
608.09	50959.61
608.29	50779.39
608.49	51074.29
608.68	50593.02
608.88	51000.57
609.08	50668.79
609.28	50963.70
609.47	50779.39
609.67	51348.72
609.87	51037.43
610.06	51426.54
610.26	50863.35
610.46	51318.00
610.66	50769.15
610.85	51168.50
611.05	51006.71
611.25	51279.09
611.44	51062.00
611.64	51051.76
611.84	51301.62
612.03	50664.70
612.23	51012.85
612.43	51303.67
612.62	51223.79
612.82	51252.47
613.02	51430.64
613.21	50953.46
613.41	51174.64
613.61	51518.70
613.80	50730.23
614.00	51053.81
614.20	51285.23
614.39	51465.45
614.59	51340.53
614.79	51254.51
614.98	51180.79
615.18	51490.03
615.38	51049.72
615.57	51086.58
615.77	51348.72
615.97	51367.15
616.16	51653.87
616.36	51262.71
616.56	51494.13
616.75	51549.42
616.95	51438.83
617.15	51254.51
617.34	51588.33
617.54	51053.81
617.74	51795.18
617.93	51461.36
618.13	50830.58
618.32	51752.17
618.52	51277.04
618.72	51569.90
618.91	51604.72
619.11	51639.53
619.31	51440.88
619.50	51379.44
619.70	51383.54
619.90	51457.26
620.09	51825.90
620.29	51385.58
620.48	51102.96
620.68	52016.36
620.88	51297.52
621.07	51586.28
621.27	51543.28
621.46	51143.92
621.66	51369.20
621.86	51344.62
622.05	51262.71
622.25	51684.59
622.44	52090.09
622.64	51303.67
622.84	51416.30
623.03	51158.26
623.23	51387.63
623.42	51592.43
623.62	51508.46
623.82	51823.85
624.01	51451.12
624.21	51981.54
624.40	51653.87
624.60	51440.88
624.80	51571.95
624.99	51643.63
625.19	51477.74
625.38	51664.11
625.58	51922.15
625.77	51664.11
625.97	51379.44
626.17	51541.23
626.36	51700.97
626.56	52065.51
626.75	51373.30
626.95	52286.69
627.14	51926.25
627.34	51870.95
627.54	51565.81
627.73	51621.10
627.93	51959.02
628.12	51469.55
628.32	51973.35
628.51	51946.73
628.71	51606.76
628.90	51729.64
629.10	51848.42
629.30	51928.30
629.49	51983.59
629.69	52321.51
629.88	51684.59
630.08	52403.42
630.27	51942.63
630.47	52454.62
630.66	52247.78
630.86	52045.03
631.05	51907.82
631.25	52405.47
631.44	52118.76
631.64	52196.58
631.84	52249.83
632.03	52612.32
632.23	51952.87
632.42	52438.24
632.62	52356.32
632.81	51985.64
633.01	52309.22
633.20	52708.57
633.40	52565.21
633.59	53001.43
633.79	52339.94
633.98	52567.26
634.18	52643.04
634.37	52761.82
634.57	52331.75
634.76	52565.21
634.96	52823.26
635.15	53097.69
635.35	52651.23
635.54	52714.72
635.74	52507.87
635.93	52337.89
636.13	52720.86
636.32	53345.49
636.52	52626.65
636.71	52425.95
636.91	52827.35
637.10	53206.23
637.30	52839.64
637.49	53206.23
637.69	52983.00
637.88	53390.55
638.08	52737.24
638.27	53138.65
638.46	53167.32
638.66	52983.00
638.85	52753.63
639.05	53306.58
639.24	53425.36
639.44	53187.80
639.63	53349.59
639.83	53441.74
640.02	53617.87
640.22	53355.73
640.41	53736.65
640.61	53232.85
640.80	53548.24
640.99	53187.80
641.19	54109.38
641.38	53449.94
641.58	53601.49
641.77	53476.56
641.97	53626.06
642.16	53494.99
642.36	53800.14
642.55	54258.88
642.74	53658.83
642.94	53925.07
643.13	53720.27
643.33	54174.92
643.52	53982.41
643.72	54090.95
643.91	54076.61
644.10	54111.43
644.30	54676.67
644.49	53957.83
644.69	54256.84
644.88	54058.18
645.08	54240.45
645.27	54285.51
645.46	53896.39
645.66	54564.03
645.85	53949.64
646.05	54502.59
646.24	54142.15
646.43	53880.01
646.63	54629.57
646.82	54977.72
647.02	54578.37
647.21	54260.93
647.40	54502.59
647.60	54713.53
647.79	54975.67
647.99	54865.08
648.18	54912.19
648.37	55313.59
648.57	54912.19
648.76	54451.39
648.96	54400.19
649.15	54891.71
649.34	55088.31
649.54	54768.83
649.73	54918.33
649.92	54971.58
650.12	54979.77
650.31	55334.07
650.51	55346.36
650.70	55729.33
650.89	55276.72
651.09	55805.10
651.28	55108.79
651.47	55243.96
651.67	55010.49
651.86	55647.41
652.06	54985.91
652.25	55538.86
652.44	55309.49
652.64	54973.63
652.83	55082.17
653.02	55407.79
653.22	55479.47
653.41	55381.17
653.60	55303.35
653.80	55528.62
653.99	55145.65
654.18	55755.95
654.38	55332.02
654.57	55813.29
654.76	55481.52
654.96	55786.67
655.15	55512.24
655.34	55596.21
655.54	55684.27
655.73	55278.77
655.92	55559.34
656.12	56042.66
656.31	55856.30
656.50	55747.76
656.70	55940.27
656.89	55702.70
657.08	56052.90
657.28	55657.65
657.47	55444.66
657.66	55614.64
657.86	56161.45
658.05	55714.99
658.24	56302.76
658.43	55643.31
658.63	56091.82
658.82	56478.88
659.01	56050.86
659.21	56276.13
659.40	56470.69
659.59	55719.09
659.79	56063.14
659.98	56169.64
660.17	56360.10
660.36	56284.33
660.56	55829.68
660.75	56067.24
660.94	56120.49
661.14	56020.14
661.33	55981.23
661.52	56075.43
661.71	56310.95
661.91	56284.33
662.10	55760.05
662.29	56048.81
662.49	56231.08
662.68	56407.20
662.87	56485.03
663.06	56237.22
663.26	56030.38
663.45	56454.31
663.64	55893.16
663.83	56544.42
664.03	56751.26
664.22	56302.76
664.41	56226.98
664.60	56149.16
664.80	56229.03
664.99	56235.17
665.18	56464.55
665.37	56394.92
665.57	56485.03
665.76	56149.16
665.95	56433.83
666.14	56446.11
666.34	56423.59
666.53	56048.81
666.72	56077.48
666.91	56218.79
667.11	55958.70
667.30	56194.21
667.49	56022.19
667.68	56110.25
667.87	55682.22
668.07	56634.53
668.26	55919.79
668.45	56198.31
668.64	56136.87
668.84	56824.99
669.03	56431.78
669.22	56769.69
669.41	56358.05
669.60	56386.72
669.80	56104.10
669.99	56122.54
670.18	56505.51
670.37	56343.72
670.57	56663.20
670.76	56177.83
670.95	56681.63
671.14	56450.21
671.33	56478.88
671.53	56562.85
671.72	56329.38
671.91	56497.31
672.10	56360.10
672.29	56302.76
672.48	56042.66
672.68	56401.06
672.87	56390.82
673.06	55854.25
673.25	56134.82
673.44	55768.24
673.64	55940.27
673.83	56071.34
674.02	55801.00
674.21	55772.33
674.40	56196.26
674.59	55784.62
674.79	55731.37
674.98	56087.72
675.17	56603.81
675.36	55747.76
675.55	55956.65
675.74	55776.43
675.94	55911.59
676.13	56394.92
676.32	55798.96
676.51	56030.38
676.70	55938.22
676.89	55680.17
677.08	56126.63
677.28	55370.93
677.47	56274.09
677.66	56073.38
677.85	55614.64
678.04	55776.43
678.23	56300.71
678.42	55819.44
678.62	55319.73
678.81	56138.92
679.00	55686.32
679.19	56194.21
679.38	55674.03
679.57	55608.50
679.76	55780.52
679.96	55923.88
680.15	55590.06
680.34	55723.18
680.53	55846.06
680.72	55653.55
680.91	55993.51
681.10	55483.57
681.29	55702.70
681.48	55555.25
681.68	55440.56
681.87	55198.90
682.06	55190.71
682.25	55211.19
682.44	55471.28
682.63	55526.58
682.82	54609.09
683.01	54981.82
683.20	55084.22
683.39	55362.74
683.59	54539.46
683.78	54910.14
683.97	54629.57
684.16	54932.67
684.35	54686.91
684.54	54305.99
684.73	54908.09
684.92	54633.66
685.11	54711.49
685.30	54906.04
685.49	55067.83
685.69	54750.40
685.88	54598.85
686.07	54764.73
686.26	54359.23
686.45	54691.01
686.64	54731.96
686.83	54568.13
687.02	54525.12
687.21	54813.88
687.40	54637.76
687.59	54359.23
687.78	54478.02
687.97	55110.84
688.16	54129.86
688.35	54013.13
688.54	54295.75
688.74	54357.19
688.93	53890.25
689.12	53914.83
689.31	53875.91
689.50	54207.68
689.69	53830.86
689.88	53712.08
690.07	54219.97
690.26	53859.53
690.45	54201.54
690.64	53904.59
690.83	53558.48
691.02	53789.90
691.21	53177.56
691.40	53558.48
691.59	53728.46
691.78	53605.58
691.97	53652.69
692.16	53720.27
692.35	53800.14
692.54	53503.18
692.73	53400.79
692.92	53415.12
693.11	53533.90
693.30	53075.16
693.49	53515.47
693.68	53343.44
693.87	53327.06
694.06	52989.14
694.25	53075.16
694.44	53206.23
694.63	53374.16
694.82	53191.89
695.01	52729.05
695.20	52999.38
695.39	52696.28
695.58	52831.45
695.77	52696.28
695.96	53005.53
696.15	52841.69
696.34	52276.45
696.53	52583.65
696.72	52704.48
696.91	52751.58
697.10	52638.94
697.29	52479.20
697.48	52985.05
697.67	52462.82
697.86	52403.42
698.05	52262.11
698.24	52780.25
698.43	52055.27
698.62	52655.32
698.81	51741.93
699.00	52835.55
699.19	51954.92
699.38	52595.93
699.57	51991.78
699.76	52489.44
699.95	51727.59
700.14	52192.48
700.32	51913.96
700.51	52102.37
700.70	52120.80
700.89	52038.89
701.08	52077.80
701.27	51817.71
701.46	52137.19
701.65	51487.98
701.84	51576.04
702.03	52010.21
702.22	51451.12
702.41	51543.28
702.60	51754.22
702.79	51197.17
702.98	51094.77
703.17	51494.13
703.35	51459.31
703.54	51422.45
703.73	51563.76
703.92	51059.96
704.11	51242.23
704.30	50664.70
704.49	50935.03
704.68	50918.65
704.87	50824.44
705.06	50734.33
705.25	50738.43
705.43	50638.08
705.62	50763.00
705.81	50955.51
706.00	50849.02
706.19	50586.88
706.38	50550.01
706.57	50539.77
706.76	50253.06
706.95	50294.02
707.14	50599.16
707.32	50574.59
707.51	50119.94
707.70	50394.37
707.89	50224.39
708.08	50593.02
708.27	50509.05
708.46	50615.55
708.65	50353.41
708.84	50341.12
709.02	50322.69
709.21	50087.17
709.40	49825.03
709.59	49870.09
709.78	49548.56
709.97	50267.39
710.16	50001.16
710.34	49911.05
710.53	50369.79
710.72	49341.71
710.91	49542.41
711.10	49698.06
711.29	50111.75
711.48	50029.83
711.66	49552.65
711.85	49378.57
712.04	49999.11
712.23	49550.60
712.42	49544.46
712.61	49280.27
712.80	49310.99
712.98	49870.09
713.17	49358.09
713.36	49214.74
713.55	49313.04
713.74	49214.74
713.93	49239.31
714.11	49110.29
714.30	49212.69
714.49	48856.34
714.68	49517.84
714.87	49257.74
715.06	49345.81
715.24	48772.38
715.43	48944.41
715.62	48518.43
715.81	48526.62
716.00	49007.89
716.18	48866.58
716.37	48596.25
716.56	48215.33
716.75	48831.77
716.94	48710.94
717.12	48356.64
717.31	48616.73
717.50	48487.71
717.69	48428.32
717.88	48127.27
718.06	48274.72
718.25	48635.16
718.44	48348.45
718.63	48194.85
718.82	48010.53
719.00	48145.70
719.19	48413.98
719.38	47801.64
719.57	47521.07
719.76	47633.71
719.94	47439.15
720.13	47385.90
720.32	47592.75
720.51	47777.06
720.69	47295.79
720.88	47539.50
721.07	47373.61
721.26	46931.25
721.44	47443.24
721.63	47361.33
721.82	47220.02
722.01	46871.86
722.20	47181.10
722.38	46781.75
722.57	46871.86
722.76	47013.17
722.95	46757.17
723.13	46261.57
723.32	46361.92
723.51	46484.79
723.70	46462.27
723.88	46597.43
724.07	46327.10
724.26	46613.82
724.44	46005.57
724.63	46404.92
724.82	46783.80
725.01	46462.27
725.19	46185.79
725.38	45858.12
725.57	46103.87
725.76	46247.23
725.94	46124.35
726.13	46021.95
726.32	46400.83
726.51	45794.63
726.69	46189.89
726.88	45913.41
727.07	46038.34
727.25	45989.19
727.44	46292.29
727.63	45901.12
727.82	46200.13
728.00	45894.98
728.19	45725.00
728.38	46357.82
728.56	45493.58
728.75	46214.46
728.94	46024.00
729.12	46036.29
729.31	45663.56
729.50	45790.53
729.69	45948.23
729.87	46077.25
730.06	46071.10
730.25	45722.95
730.43	46167.36
730.62	45663.56
730.81	45894.98
730.99	45944.13
731.18	45542.73
731.37	46175.55
731.55	46200.13
731.74	46216.51
731.93	45860.16
732.11	45712.71
732.30	45808.96
732.49	46224.70
732.67	45768.01
732.86	45544.78
733.05	45645.13
733.23	45696.33
733.42	45688.13
733.61	45643.08
733.79	45497.67
733.98	46140.74
734.17	45575.50
734.35	45571.40
734.54	45591.88
734.73	45909.32
734.91	45929.80
735.10	45311.31
735.29	45989.19
735.47	45376.84
735.66	45679.94
735.84	45610.31
736.03	45729.09
736.22	45935.94
736.40	45323.60
736.59	45538.63
736.78	45884.74
736.96	45176.14
737.15	45131.09
737.33	45196.62
737.52	45159.76
737.71	45262.16
737.89	45188.43
738.08	44762.45
738.27	45356.36
738.45	45837.64
738.64	45471.05
738.82	45331.79
739.01	45391.18
739.20	45100.37
739.38	45045.07
739.57	45806.92
739.75	45651.27
739.94	45108.56
740.13	45217.10
740.31	44907.86
740.50	45182.29
740.68	45098.32
740.87	45129.04
741.06	45532.49
741.24	44692.82
741.43	44893.52
741.61	45442.38
741.80	44750.17
741.99	44856.66
742.17	45129.04
742.36	45221.20
742.54	45108.56
742.73	44778.84
742.91	44889.43
743.10	44688.73
743.29	44678.49
743.47	45260.11
743.66	44365.15
743.84	44805.46
744.03	44690.77
744.21	44410.20
744.40	45196.62
744.59	44664.15
744.77	44254.56
744.96	44868.95
745.14	44557.66
745.33	44758.36
745.51	44590.42
745.70	44834.13
745.88	45016.40
746.07	44852.56
746.26	44242.27
746.44	44215.65
746.63	44483.93
746.81	44973.39
747.00	44160.35
747.18	44713.30
747.37	44406.11
747.55	44463.45
747.74	44868.95
747.92	44008.80
748.11	44727.64
748.29	44262.75
748.48	44668.25
748.66	44291.42
748.85	44289.37
749.03	44313.95
749.22	44225.89
749.41	44004.70
749.59	44111.20
749.78	44086.62
749.96	43629.93
750.15	44117.34
750.33	44232.03
750.52	44381.53
750.70	43951.46
750.89	43994.46
751.07	43992.42
751.26	44051.81
751.44	43787.62
751.63	43883.87
751.81	43423.08
752.00	44123.49
752.18	44139.87
752.37	43666.79
752.55	43597.16
752.74	43492.71
752.92	43642.21
753.10	43429.23
753.29	44168.54
753.47	43335.02
753.66	43093.36
753.84	44084.58
754.03	43255.15
754.21	43461.99
754.40	43572.58
754.58	43660.65
754.77	43576.68
754.95	43136.37
755.14	43271.53
755.32	43234.67
755.51	43193.71
755.69	43308.40
755.88	43369.83
756.06	43111.79
756.24	43216.24
756.43	42902.90
756.61	42906.99
756.80	42884.47
756.98	43040.11
757.17	43099.50
757.35	43441.51
757.54	42849.65
757.72	43097.45
757.90	43019.63
758.09	42915.19
758.27	43324.78
758.46	42763.64
758.64	42722.68
758.83	42632.57
759.01	43027.82
759.19	43519.34
759.38	42904.95
759.56	43238.76
759.75	43193.71
759.93	42974.58
760.12	42747.25
760.30	42941.81
760.48	42777.97
760.67	42751.35
760.85	43206.00
761.04	42960.24
761.22	42710.39
761.40	42552.69
761.59	42943.86
761.77	42304.89
761.96	42790.26
762.14	42460.54
762.32	42485.11
762.51	42214.78
762.69	42530.17
762.88	42503.54
763.06	42421.62
763.24	42583.41
763.43	42384.76
763.61	42376.57
763.80	42200.44
763.98	42272.12
764.16	41776.51
764.35	41880.96
764.53	41729.41
764.72	41850.24
764.90	42147.20
765.08	42280.31
765.27	42022.27
765.45	41616.77
765.63	41436.55
765.82	41811.33
766.00	41698.69
766.18	41766.27
766.37	42001.79
766.55	42014.08
766.74	41874.82
766.92	41686.40
767.10	41213.32
767.29	41782.66
767.47	41067.92
767.65	41584.01
767.84	41489.80
768.02	41571.72
768.20	41153.93
768.39	41811.33
768.57	41653.64
768.75	41629.06
768.94	41483.66
769.12	41461.13
769.30	40977.81
769.49	41258.38
769.67	40961.42
769.85	40619.41
770.04	41100.68
770.22	41215.37
770.40	40899.98
770.59	40611.22
770.77	41008.53
770.95	40908.18
771.14	40570.26
771.32	40490.39
771.50	40363.42
771.69	40803.73
771.87	40856.98
772.05	40631.70
772.24	40269.21
772.42	40517.01
772.60	40396.18
772.78	40560.02
772.97	40342.94
773.15	40242.59
773.33	40246.68
773.52	40172.96
773.70	40279.45
773.88	40754.58
774.07	40433.05
774.25	40433.05
774.43	40678.80
774.61	40369.56
774.80	40486.29
774.98	40336.79
775.16	40392.09
775.34	40615.32
775.53	40400.28
775.71	40963.47
775.89	40639.89
776.08	40406.42
776.26	40332.70
776.44	40736.15
776.62	40261.02
776.81	40490.39
776.99	41022.86
777.17	40656.28
777.35	40441.24
777.54	40949.14
777.72	40555.93
777.90	40508.82
778.08	41203.08
778.27	40990.09
778.45	41096.59
778.63	41002.38
778.81	40762.77
779.00	41323.91
779.18	40850.83
779.36	41190.80
779.54	40807.83
779.73	41112.97
779.91	41389.45
780.09	41252.23
780.27	41031.05
780.46	41395.59
780.64	41487.75
780.82	41289.10
781.00	40988.05
781.19	41313.67
781.37	41389.45
781.55	41575.81
781.73	41549.19
781.91	41387.40
782.10	41543.05
782.28	41379.21
782.46	41682.31
782.64	41989.50
782.82	41194.89
783.01	41639.30
783.19	41305.48
783.37	41872.77
783.55	41577.86
783.74	41766.27
783.92	41506.18
784.10	41991.55
784.28	41686.40
784.46	41155.98
784.64	41321.87
784.83	41399.69
785.01	42186.11
785.19	41745.80
785.37	42077.57
785.55	41584.01
785.74	41241.99
785.92	41555.33
786.10	41440.65
786.28	41543.05
786.46	41321.87
786.64	41231.75
786.83	41657.73
787.01	41624.96
787.19	41424.26
787.37	41397.64
787.55	41162.12
787.74	41153.93
787.92	41309.58
788.10	41031.05
788.28	40969.61
788.46	41297.29
788.64	40811.92
788.82	41500.04
789.01	41102.73
789.19	41069.97
789.37	40951.18
789.55	41016.72
789.73	40594.84
789.91	40916.37
790.09	40877.46
790.28	40609.17
790.46	40582.55
790.64	40510.87
790.82	40568.21
791.00	40365.46
791.18	40183.19
791.36	40103.32
791.55	40148.38
791.73	40197.53
791.91	39656.87
792.09	40265.11
792.27	40156.57
792.45	40183.19
792.63	40050.08
792.81	39720.35
793.00	39822.75
793.18	39175.59
793.36	39437.73
793.54	39593.38
793.72	39587.24
793.90	39386.54
794.08	39019.95
794.26	39189.93
794.44	38847.92
794.62	39175.59
794.81	38849.97
794.99	38858.16
795.17	38839.73
795.35	38688.18
795.53	39101.87
795.71	39062.96
795.89	38274.49
796.07	38360.50
796.25	37973.44
796.43	38276.54
796.61	38032.83
796.80	38270.39
796.98	37991.87
797.16	37787.07
797.34	37674.43
797.52	37778.88
797.70	37832.13
797.88	37676.48
798.06	37277.13
798.24	37905.85
798.42	37395.91
798.60	37252.55
798.78	37074.38
798.96	37340.61
799.14	37311.94
799.32	36910.54
799.51	36845.01
799.69	37078.47
799.87	36998.60
800.05	36498.90
800.23	36871.63
800.41	36206.04
800.59	36349.40
800.77	36394.45
800.95	36503.00
801.13	36363.73
801.31	36333.01
801.49	36341.21
801.67	35886.56
801.85	35708.38
802.03	35534.31
802.21	35388.90
802.39	35446.24
802.57	35298.79
802.75	35395.04
802.93	35483.11
803.11	35212.77
803.29	35223.01
803.47	35149.29
803.65	34954.73
803.83	35141.10
804.01	35165.67
804.19	34688.49
804.37	34737.65
804.55	34440.69
804.73	34510.32
804.91	34477.55
805.09	34532.85
805.27	34135.54
805.45	34391.54
805.63	34338.29
805.81	34108.92
805.99	34244.09
806.17	34385.40
806.35	33908.22
806.53	33871.36
806.71	33983.99
806.89	33801.72
807.07	33826.30
807.25	33932.79
807.43	33660.41
807.61	33846.78
807.79	33580.54
807.97	33404.42
808.15	33572.35
808.33	33222.15
808.51	33254.92
808.69	32984.58
808.87	32869.90
809.05	32699.92
809.23	32853.51
809.41	32757.26
809.59	32781.84
809.77	32622.09
809.95	32744.97
810.13	32796.17
810.31	32493.07
810.49	32429.59
810.67	32384.53
810.84	32476.69
811.02	32284.18
811.20	31874.59
811.38	32347.67
811.56	31921.69
811.74	31852.06
811.92	31804.95
812.10	32063.00
812.28	31841.82
812.46	31673.88
812.64	31628.83
812.82	31471.14
813.00	31637.02
813.18	31600.16
813.36	31378.98
813.53	31039.01
813.71	31559.20
813.89	31133.22
814.07	31464.99
814.25	31131.17
814.43	31280.67
814.61	31479.33
814.79	30891.56
814.97	30891.56
815.15	31118.89
815.33	30711.34
815.50	30254.64
815.68	30715.44
815.86	31061.54
816.04	30639.66
816.22	30365.23
816.40	30551.60
816.58	30481.97
816.76	30410.29
816.94	30305.84
817.11	30115.38
817.29	30012.98
817.47	29918.78
817.65	30000.69
817.83	30168.63
818.01	29873.72
818.19	29926.97
818.37	29840.95
818.54	29503.04
818.72	29345.34
818.90	29527.61
819.08	29759.03
819.26	29402.69
819.44	29165.12
819.62	29443.65
819.80	29486.65
819.97	29503.04
820.15	29138.50
820.33	29283.91
820.51	29269.57
820.69	28587.60
820.87	28868.17
821.05	29103.68
821.22	28948.04
821.40	28956.23
821.58	28880.46
821.76	28948.04
821.94	28968.52
822.12	28749.39
822.29	28753.48
822.47	28866.12
822.65	28468.81
822.83	28466.77
823.01	28452.43
823.19	28624.46
823.36	28106.32
823.54	28194.39
823.72	27981.40
823.90	28376.66
824.08	27704.92
824.25	27973.21
824.43	28167.76
824.61	27913.81
824.79	27952.73
824.97	27879.00
825.15	28229.20
825.32	27702.87
825.50	27645.53
825.68	27541.08
825.86	27700.83
826.04	27971.16
826.21	27551.32
826.39	27471.45
826.57	27764.31
826.75	27813.46
826.93	27176.55
827.10	27280.99
827.28	27500.12
827.46	27514.46
827.64	27190.88
827.81	27037.28
827.99	27313.76
828.17	27072.10
828.35	27008.61
828.53	26945.12
828.70	27027.04
828.88	26787.43
829.06	26932.84
829.24	26908.26
829.41	26687.08
829.59	27389.53
829.77	26652.27
829.95	26586.73
830.12	26498.67
830.30	26605.16
830.48	26826.34
830.66	26596.97
830.84	26533.48
831.01	26158.70
831.19	26723.94
831.37	26445.42
831.55	26334.83
831.72	26578.54
831.90	26484.33
832.08	26402.41
832.25	25962.10
832.43	26115.70
832.61	26263.15
832.79	25929.33
832.96	25908.85
833.14	25996.92
833.32	26115.70
833.50	25941.62
833.67	25943.67
833.85	26011.25
834.03	25411.20
834.20	25921.14
834.38	25902.71
834.56	25839.22
834.74	25255.55
834.91	25775.73
835.09	25691.77
835.27	25304.70
835.44	25280.13
835.62	25073.28
835.80	25472.64
835.98	25302.65
836.15	25044.61
836.33	25167.49
836.51	25552.51
836.68	25007.75
836.86	25126.53
837.04	25104.00
837.21	25480.83
837.39	25310.85
837.57	25038.47
837.75	25149.06
837.92	24809.09
838.10	25134.72
838.28	24692.36
838.45	24751.75
838.63	24682.12
838.81	24733.32
838.98	24874.63
839.16	24561.29
839.34	24446.60
839.51	24600.20
839.69	24622.73
839.87	24422.03
840.04	24190.61
840.22	24602.25
840.40	24100.50
840.57	24168.08
840.75	24311.44
840.93	24163.98
841.10	24133.26
841.28	24419.98
841.46	24086.16
841.63	24077.97
841.81	24063.63
841.98	24063.63
842.16	24145.55
842.34	24186.51
842.51	23897.75
842.69	23774.87
842.87	23727.77
843.04	23852.69
843.22	23668.37
843.40	23662.23
843.57	23647.90
843.75	23828.12
843.92	23821.97
844.10	23664.28
844.28	23555.74
844.45	23582.36
844.63	23623.32
844.81	23322.27
844.98	23740.05
845.16	23473.82
845.33	23436.95
845.51	23359.13
845.69	23320.22
845.86	23137.95
846.04	22886.05
846.21	23371.42
846.39	23002.78
846.57	23017.12
846.74	23172.77
846.92	23207.58
847.09	22935.20
847.27	22916.77
847.45	22931.11
847.62	22982.31
847.80	22918.82
847.97	22847.14
848.15	22814.37
848.32	22707.88
848.50	22970.02
848.68	22562.47
848.85	22814.37
849.03	22367.91
849.20	22638.25
849.38	22765.22
849.56	22714.02
849.73	22406.83
849.91	22220.46
850.08	22597.29
850.26	22251.18
850.43	22355.63
850.61	22470.31
850.78	22156.97
850.96	22316.72
851.14	21937.84
851.31	22329.00
851.49	22015.66
851.66	22232.75
851.84	21921.46
852.01	22269.61
852.19	22161.07
852.36	22009.52
852.54	21683.89
852.71	21810.87
852.89	21700.28
853.07	21966.51
853.24	22263.47
853.42	21847.73
853.59	21989.04
853.77	21925.55
853.94	21929.65
854.12	22044.34
854.29	21515.96
854.47	21925.55
854.64	21812.92
854.82	21561.02
854.99	21753.52
855.17	21802.68
855.34	21427.90
855.52	21733.04
855.69	21485.24
855.87	21876.40
856.04	21477.05
856.22	21538.49
856.39	21208.76
856.57	21352.12
856.74	21214.91
856.92	21243.58
857.09	20993.73
857.27	21018.30
857.44	20870.85
857.62	21294.78
857.79	21063.36
857.97	20997.82
858.14	21262.01
858.32	21165.76
858.49	20973.25
858.67	20899.52
858.84	21063.36
859.02	20928.19
859.19	20870.85
859.37	20815.55
859.54	20700.87
859.72	21067.45
859.89	20905.66
860.06	20960.96
860.24	20864.71
860.41	20764.36
860.59	20612.81
860.76	20633.29
860.94	20500.17
861.11	20641.48
861.29	20606.66
861.46	20479.69
861.64	20436.68
861.81	20350.67
861.98	20229.84
862.16	20135.63
862.33	20188.88
862.51	20129.48
862.68	20631.24
862.86	20203.21
863.03	20080.33
863.21	20176.59
863.38	20192.97
863.55	20233.93
863.73	20123.34
863.90	19853.01
864.08	20090.57
864.25	20258.51
864.43	20195.02
864.60	19850.96
864.77	19939.02
864.95	19934.93
865.12	19846.87
865.30	19810.00
865.47	19658.45
865.64	19930.83
865.82	19738.32
865.99	19887.82
866.17	19597.01
866.34	19586.77
866.51	19513.05
866.69	19480.28
866.86	19656.40
867.04	19414.74
867.21	19363.54
867.38	19412.70
867.56	19216.09
867.73	19381.98
867.91	19220.19
868.08	19123.93
868.25	19179.23
868.43	18933.47
868.60	18999.01
868.78	19042.01
868.95	19402.46
869.12	19052.25
869.30	19091.16
869.47	19013.34
869.64	18779.87
869.82	18843.36
869.99	18855.65
870.16	19324.63
870.34	19195.61
870.51	18894.56
870.69	18951.90
870.86	18880.22
871.03	18882.27
871.21	18573.03
871.38	18763.49
871.55	18822.88
871.73	18583.27
871.90	18517.73
872.07	18513.64
872.25	18388.71
872.42	18579.17
872.59	18368.23
872.77	18708.19
872.94	18489.06
873.11	18489.06
873.29	18411.24
873.46	18157.29
873.63	18218.73
873.81	18169.58
873.98	17829.62
874.15	18077.42
874.33	17936.11
874.50	17749.75
874.67	17968.88
874.85	17784.56
875.02	17547.00
875.19	17673.97
875.37	17661.68
875.54	17665.78
875.71	17856.24
875.88	17585.91
876.06	17606.39
876.23	17571.57
876.40	17561.33
876.58	17622.77
876.75	17712.88
876.92	17354.49
877.10	17280.76
877.27	17325.82
877.44	17551.09
877.61	17366.78
877.79	17297.14
877.96	17317.62
878.13	17172.22
878.31	16901.89
878.48	17084.16
878.65	17112.83
878.82	16844.54
879.00	16965.37
879.17	17041.15
879.34	16959.23
879.51	17233.66
879.69	16752.38
879.86	16854.78
880.03	16729.86
880.21	16807.68
880.38	16791.30
880.55	16826.11
880.72	16717.57
880.90	16746.24
881.07	16762.62
881.24	16496.39
881.41	16768.77
881.59	16529.16
881.76	16537.35
881.93	16688.90
882.10	16287.50
882.28	16420.61
882.45	16713.47
882.62	16432.90
882.79	16692.99
882.96	16121.61
883.14	16463.62
883.31	16598.79
883.48	16484.10
883.65	16453.38
883.83	16330.50
884.00	16125.71
884.17	16174.86
884.34	16348.93
884.51	16168.71
884.69	16158.47
884.86	16217.86
885.03	16105.23
885.20	16045.84
885.38	16000.78
885.55	16051.98
885.72	16162.57
885.89	15949.58
886.06	16224.01
886.24	15945.48
886.41	16017.16
886.58	16156.43
886.75	16183.05
886.92	16056.08
887.10	15933.20
887.27	15720.21
887.44	16121.61
887.61	16097.03
887.78	16197.38
887.95	16060.17
888.13	15929.10
888.30	15529.75
888.47	15566.61
888.64	15771.41
888.81	15828.75
888.99	15642.39
889.16	15587.09
889.33	15398.68
889.50	15572.75
889.67	15355.67
889.84	15458.07
890.01	15384.34
890.19	15453.97
890.36	15445.78
890.53	15353.62
890.70	15165.21
890.87	15413.01
891.04	15202.07
891.22	15253.27
891.39	15212.31
891.56	15202.07
891.73	15286.04
891.90	15232.79
892.07	15023.90
892.24	15081.24
892.42	15136.54
892.59	15177.50
892.76	14812.96
892.93	14991.13
893.10	14982.94
893.27	14788.38
893.44	14794.53
893.61	14819.10
893.79	15056.67
893.96	15085.34
894.13	14894.88
894.30	14982.94
894.47	15124.25
894.64	14931.74
894.81	14855.97
894.98	14888.73
895.15	15081.24
895.33	14845.73
895.50	14880.54
895.67	14917.40
895.84	14894.88
896.01	14759.71
896.18	14800.67
896.35	15048.47
896.52	14851.87
896.69	14774.05
896.86	14839.58
897.04	14700.32
897.21	14683.94
897.38	14690.08
897.55	14831.39
897.72	14792.48
897.89	14919.45
898.06	14726.94
898.23	14618.40
898.40	14933.79
898.57	14944.03
898.74	14892.83
898.91	14640.93
899.08	14749.47
899.26	14663.46
899.43	14612.26
899.60	14728.99
899.77	14618.40
899.94	14563.11
900.11	14561.06
900.28	14477.09
900.45	14339.88
900.62	14565.15
900.79	14563.11
900.96	14739.23
901.13	14628.64
901.30	14892.83
901.47	14530.34
901.64	14690.08
901.81	14722.85
901.98	14436.13
902.15	14905.12
902.32	14898.97
902.49	14714.66
902.66	14503.71
902.83	14563.11
903.01	14520.10
903.18	14765.85
903.35	14737.18
903.52	14688.03
903.69	14819.10
903.86	14655.26
904.03	14788.38
904.20	14772.00
904.37	14612.26
904.54	14710.56
904.71	14454.56
904.88	14509.86
905.05	14503.71
905.22	14700.32
905.39	14591.78
905.56	14872.35
905.73	14559.01
905.90	14630.69
906.07	14763.81
906.24	14706.46
906.41	14716.70
906.58	14513.95
906.75	14397.22
906.92	14239.53
907.09	14612.26
907.26	14546.72
907.43	14481.19
907.60	14522.15
907.77	14602.02
907.93	14696.22
908.10	14507.81
908.27	14679.84
908.44	14690.08
908.61	14399.27
908.78	14423.84
908.95	14462.76
909.12	14552.87
909.29	14616.35
909.46	14364.45
909.63	14561.06
909.80	14460.71
909.97	14552.87
910.14	14540.58
910.31	14368.55
910.48	14524.19
910.65	14513.95
910.82	14358.31
910.99	14475.04
911.16	14442.28
911.33	14198.57
911.50	14190.38
911.66	14253.86
911.83	14540.58
912.00	14229.29
912.17	14057.26
912.34	14356.26
912.51	14135.08
912.68	14085.93
912.85	14067.50
913.02	14251.81
913.19	14151.46
913.36	14110.50
913.53	14155.56
913.70	13756.21
913.86	14083.88
914.03	14184.23
914.20	13942.57
914.37	13893.42
914.54	13942.57
914.71	13897.52
914.88	13936.43
915.05	13956.91
915.22	13739.82
915.39	14014.25
915.55	13811.50
915.72	13967.15
915.89	13803.31
916.06	13682.48
916.23	13641.52
916.40	13694.77
916.57	13506.35
916.74	13512.50
916.91	13643.57
917.07	13307.70
917.24	13520.69
917.41	13438.77
917.58	13229.88
917.75	13270.84
917.92	13059.90
918.09	13221.69
918.26	13012.79
918.42	13207.35
918.59	13264.69
918.76	13303.60
918.93	12894.01
919.10	13031.23
919.27	13063.99
919.44	13049.66
919.60	12937.02
919.77	13027.13
919.94	12834.62
920.11	12988.22
920.28	12879.68
920.45	12808.00
920.61	12556.10
920.78	12670.78
920.95	12648.26
921.12	12730.17
921.29	12676.93
921.46	12470.08
921.62	12435.27
921.79	12613.44
921.96	12445.51
922.13	12322.63
922.30	12619.58
922.47	12326.72
922.63	12218.18
922.80	12420.93
922.97	12023.62
923.14	12042.06
923.31	12001.10
923.47	12048.20
923.64	12341.06
923.81	11896.65
923.98	12162.89
924.15	11767.63
924.32	11908.94
924.48	11882.31
924.65	11773.77
924.82	11800.40
924.99	11652.94
925.15	11654.99
925.32	11577.17
925.49	11460.43
925.66	11456.34
925.83	11374.42
925.99	11487.06
926.16	11433.81
926.33	11487.06
926.50	11351.89
926.67	11374.42
926.83	11380.56
927.00	11067.22
927.17	11192.15
927.34	10999.64
927.50	11034.46
927.67	11355.99
927.84	11063.13
928.01	10997.59
928.17	10942.30
928.34	10807.13
928.51	10776.41
928.68	10741.60
928.84	10669.92
929.01	10694.49
929.18	10501.98
929.35	10542.94
929.51	10590.05
929.68	10639.20
929.85	10473.31
930.02	10485.60
930.18	10489.70
930.35	10401.63
930.52	10276.71
930.69	10231.65
930.85	10344.29
931.02	10299.23
931.19	10223.46
931.36	10135.40
931.52	10162.02
931.69	9967.46
931.86	9969.51
932.02	10063.72
932.19	9860.97
932.36	9793.39
932.53	9946.98
932.69	9705.32
932.86	9944.94
933.03	9787.24
933.19	9496.43
933.36	9566.06
933.53	9457.52
933.70	9391.98
933.86	9521.01
934.03	9533.29
934.20	9467.76
934.36	9375.60
934.53	9295.73
934.70	9072.50
934.86	9219.96
935.03	8908.66
935.20	8712.06
935.36	8796.03
935.53	8695.68
935.70	8658.81
935.86	8738.68
936.03	8619.90
936.20	8587.13
936.36	8449.92
936.53	8210.31
936.70	8454.02
936.86	8374.14
937.03	8368.00
937.20	8079.24
937.36	8136.58
937.53	8105.86
937.70	7870.34
937.86	7917.45
938.03	7892.87
938.20	7827.34
938.36	7704.46
938.53	7524.24
938.70	7323.54
938.86	7554.96
939.03	7423.89
939.20	7309.20
939.36	7161.75
939.53	7194.51
939.70	7266.19
939.86	6936.47
940.03	6793.11
940.19	6713.24
940.36	6823.83
940.53	6678.43
940.69	6387.61
940.86	6713.24
941.03	6549.40
941.19	6358.94
941.36	6332.32
941.52	6223.78
941.69	6176.67
941.86	6096.80
942.02	6098.85
942.19	6125.47
942.35	6059.94
942.52	6016.93
942.69	5822.38
942.85	5969.83
943.02	5830.57
943.18	5814.18
943.35	5779.37
943.52	5695.40
943.68	5685.16
943.85	5789.61
944.01	5509.04
944.18	5531.56
944.35	5693.35
944.51	5384.11
944.68	5384.11
944.84	5511.08
945.01	5408.69
945.17	5498.80
945.34	5443.50
945.51	5474.22
945.67	5304.24
945.84	5427.12
946.00	5283.76
946.17	5382.06
946.33	5345.20
946.50	5470.12
946.67	5363.63
946.83	5447.60
947.00	5400.49
947.16	5308.34
947.33	5169.07
947.49	5189.55
947.66	5236.66
947.82	5296.05
947.99	5369.77
948.16	5310.38
948.32	5207.98
948.49	5259.18
948.65	5314.48
948.82	5296.05
948.98	5246.90
949.15	5205.94
949.31	5273.52
949.48	5253.04
949.64	5318.57
949.81	5259.18
949.97	5128.11
950.14	5291.95
950.30	5179.31
950.47	5445.55
950.63	5287.86
950.80	5343.15
950.96	5332.91
951.13	5394.35
951.30	5363.63
951.46	5410.73
951.63	5453.74
951.79	5439.40
951.96	5453.74
952.12	5361.58
952.29	5271.47
952.45	5324.72
952.62	5291.95
952.78	5373.87
952.94	5291.95
953.11	5369.77
953.27	5328.81
953.44	5550.00
953.60	5427.12
953.77	5394.35
953.93	5369.77
954.10	5486.51
954.26	5425.07
954.43	5396.40
954.59	5449.64
954.76	5509.04
954.92	5423.02
955.09	5490.60
955.25	5492.65
955.42	5652.39
955.58	5498.80
955.75	5556.14
955.91	5466.03
956.07	5482.41
956.24	5461.93
956.40	5470.12
956.57	5552.04
956.73	5353.39
956.90	5431.21
957.06	5369.77
957.23	5363.63
957.39	5388.21
957.56	5418.93
957.72	5279.66
957.88	5474.22
958.05	5504.94
958.21	5582.76
958.38	5533.61
958.54	5488.56
958.71	5607.34
958.87	5410.73
959.03	5337.01
959.20	5451.69
959.36	5361.58
959.53	5547.95
959.69	5308.34
959.85	5582.76
960.02	5375.92
960.18	5367.73
960.35	5593.00
960.51	5429.17
960.68	5451.69
960.84	5365.68
961.00	5506.99
961.17	5330.86
961.33	5511.08
961.50	5431.21
961.66	5472.17
961.82	5476.27
961.99	5521.32
962.15	5414.83
962.31	5398.45
962.48	5521.32
962.64	5550.00
962.81	5490.60
962.97	5412.78
963.13	5529.52
963.30	5328.81
963.46	5328.81
963.62	5365.68
963.79	5500.84
963.95	5425.07
964.12	5222.32
964.28	5373.87
964.44	5357.49
964.61	5523.37
964.77	5337.01
964.93	5531.56
965.10	5490.60
965.26	5283.76
965.42	5267.38
965.59	5402.54
965.75	5289.90
965.92	5509.04
966.08	5466.03
966.24	5212.08
966.41	5250.99
966.57	5373.87
966.73	5304.24
966.90	5285.81
967.06	5314.48
967.22	5226.42
967.39	5244.85
967.55	5265.33
967.71	5167.03
967.88	5232.56
968.04	5193.65
968.20	5291.95
968.37	5171.12
968.53	5050.29
968.69	5189.55
968.85	5228.46
969.02	5160.88
969.18	5142.45
969.34	5068.72
969.51	5173.17
969.67	5072.82
969.83	5066.67
970.00	5205.94
970.16	5132.21
970.32	5158.83
970.48	5302.19
970.65	5130.16
970.81	5148.59
970.97	5097.39
971.14	4992.95
971.30	5058.48
971.46	5105.59
971.63	5017.52
971.79	5156.79
971.95	5152.69
972.11	4908.98
972.28	4954.04
972.44	5011.38
972.60	5044.15
972.76	4968.37
972.93	4970.42
973.09	5054.39
973.25	5033.91
973.42	4968.37
973.58	4958.13
973.74	5038.00
973.90	4843.45
974.07	4763.58
974.23	4949.94
974.39	4792.25
974.55	5052.34
974.72	4816.82
974.88	4763.58
975.04	4833.21
975.20	4833.21
975.37	4845.49
975.53	4671.42
975.69	4759.48
975.85	4734.90
976.01	4757.43
976.18	4773.82
976.34	4716.47
976.50	4847.54
976.66	4880.31
976.83	4720.57
976.99	4751.29
977.15	4788.15
977.31	4591.55
977.47	4763.58
977.64	4622.27
977.80	4593.59
977.96	4761.53
978.12	4698.04
978.29	4599.74
978.45	4503.48
978.61	4505.53
978.77	4700.09
978.93	4446.14
979.10	4577.21
979.26	4630.46
979.42	4573.11
979.58	4446.14
979.74	4476.86
979.91	4550.59
980.07	4450.24
980.23	4548.54
980.39	4493.24
980.55	4532.15
980.71	4499.39
980.88	4345.79
981.04	4509.63
981.20	4497.34
981.36	4362.17
981.52	4390.84
981.68	4341.69
981.85	4452.28
982.01	4476.86
982.17	4308.93
982.33	4425.66
982.49	4505.53
982.65	4306.88
982.82	4433.85
982.98	4265.92
983.14	4276.16
983.30	4401.08
983.46	4333.50
983.62	4323.26
983.79	4280.25
983.95	4202.43
984.11	4239.30
984.27	4239.30
984.43	4220.86
984.59	4245.44
984.75	4208.58
984.91	4313.02
985.08	4286.40
985.24	4163.52
985.40	4181.95
985.56	4198.34
985.72	4227.01
985.88	4175.81
986.04	4093.89
986.20	4007.87
986.37	4130.75
986.53	4089.79
986.69	4122.56
986.85	4030.40
987.01	4102.08
987.17	4091.84
987.33	3971.01
987.49	3917.76
987.65	4057.03
987.82	4040.64
987.98	3913.67
988.14	4097.99
988.30	4040.64
988.46	3831.75
988.62	3893.19
988.78	3915.72
988.94	3880.90
989.10	3882.95
989.26	3856.33
989.42	3915.72
989.59	3878.85
989.75	3874.76
989.91	3999.68
990.07	3721.16
990.23	3858.37
990.39	3825.61
990.55	3768.26
990.71	3723.21
990.87	3784.65
991.03	3776.45
991.19	3657.67
991.35	3776.45
991.51	3739.59
991.67	3878.85
991.83	3760.07
992.00	3772.36
992.16	3852.23
992.32	3805.13
992.48	3755.97
992.64	3606.47
992.80	3633.10
992.96	3755.97
993.12	3717.06
993.28	3694.54
993.44	3633.10
993.60	3633.10
993.76	3647.43
993.92	3743.69
994.08	3581.90
994.24	3721.16
994.40	3575.75
994.56	3590.09
994.72	3647.43
994.88	3534.79
995.04	3598.28
995.20	3524.55
995.36	3467.21
995.52	3585.99
995.68	3534.79
995.84	3504.07
996.00	3672.01
996.16	3471.31
996.32	3352.52
996.48	3643.34
996.64	3592.14
996.80	3485.64
996.96	3606.47
997.12	3420.11
997.28	3463.12
997.44	3407.82
997.60	3518.41
997.76	3332.05
997.92	3442.64
998.08	3454.92
998.24	3340.24
998.40	3399.63
998.56	3282.89
998.72	3317.71
998.88	3344.33
999.04	3309.52
999.20	3366.86
999.36	3313.61
999.52	3461.07
999.68	3375.05
999.84	3379.15
1000.00	3305.42
1000.16	3315.66
1000.32	3305.42
1000.48	3428.30
1000.64	3323.85
1000.80	3284.94
1000.95	3278.80
1001.11	3301.33
1001.27	3153.87
1001.43	3227.60
1001.59	3147.73
1001.75	3108.82
1001.91	3190.74
1002.07	3190.74
1002.23	3143.63
1002.39	3092.43
1002.55	3215.31
1002.71	3096.53
1002.87	3106.77
1003.03	3125.20
1003.19	2969.55
1003.34	3213.26
1003.50	3088.34
1003.66	3200.98
1003.82	3186.64
1003.98	3082.19
1004.14	3133.39
1004.30	3010.51
1004.46	3100.62
1004.62	3071.95
1004.78	3106.77
1004.94	2977.75
1005.09	3053.52
1005.25	3043.28
1005.41	3041.23
1005.57	3028.95
1005.73	3033.04
1005.89	3022.80
1006.05	3035.09
1006.21	2987.99
1006.37	2969.55
1006.52	2949.08
1006.68	2861.01
1006.84	2967.51
1007.00	2885.59
1007.16	2990.03
1007.32	2977.75
1007.48	2877.40
1007.64	2861.01
1007.79	2846.68
1007.95	2785.24
1008.11	2904.02
1008.27	2838.48
1008.43	2949.08
1008.59	2813.91
1008.75	2883.54
1008.91	2865.11
1009.06	2746.33
1009.22	2811.86
1009.38	2729.94
1009.54	2809.81
1009.70	2850.77
1009.86	2832.34
1010.01	2869.20
1010.17	2723.80
1010.33	2893.78
1010.49	2846.68
1010.65	2836.44
1010.81	2676.70
1010.96	2674.65
1011.12	2777.05
1011.28	2605.02
1011.44	2775.00
1011.60	2688.98
1011.76	2680.79
1011.91	2748.37
1012.07	2691.03
1012.23	2645.98
1012.39	2529.24
1012.55	2691.03
1012.71	2654.17
1012.86	2625.50
1013.02	2717.65
1013.18	2629.59
1013.34	2678.74
1013.50	2699.22
1013.65	2709.46
1013.81	2629.59
1013.97	2654.17
1014.13	2607.06
1014.29	2566.10
1014.44	2754.52
1014.60	2598.87
1014.76	2598.87
1014.92	2527.19
1015.07	2660.31
1015.23	2650.07
1015.39	2471.90
1015.55	2502.62
1015.71	2449.37
1015.86	2494.43
1016.02	2549.72
1016.18	2504.67
1016.34	2541.53
1016.49	2488.28
1016.65	2613.21
1016.81	2480.09
1016.97	2506.71
1017.12	2562.01
1017.28	2377.69
1017.44	2357.21
1017.60	2508.76
1017.75	2467.80
1017.91	2443.23
1018.07	2461.66
1018.23	2478.04
1018.38	2443.23
1018.54	2432.99
1018.70	2480.09
1018.86	2375.64
1019.01	2367.45
1019.17	2398.17
1019.33	2455.51
1019.49	2447.32
1019.64	2394.08
1019.80	2510.81
1019.96	2459.61
1020.12	2377.69
1020.27	2414.56
1020.43	2494.43
1020.59	2340.83
1020.74	2420.70
1020.90	2414.56
1021.06	2254.81
1021.22	2404.32
1021.37	2328.54
1021.53	2383.84
1021.69	2349.02
1021.84	2306.01
1022.00	2287.58
1022.16	2396.12
1022.31	2371.55
1022.47	2314.20
1022.63	2273.25
1022.79	2220.00
1022.94	2359.26
1023.10	2353.12
1023.26	2287.58
1023.41	2344.92
1023.57	2312.16
1023.73	2402.27
1023.88	2291.68
1024.04	2209.76
1024.20	2207.71
1024.35	2318.30
1024.51	2279.39
1024.67	2230.24
1024.82	2306.01
1024.98	2193.37
1025.14	2265.05
1025.29	2150.37
1025.45	2191.33
1025.61	2176.99
1025.76	2179.04
1025.92	2256.86
1026.08	2185.18
1026.23	2203.61
1026.39	2306.01
1026.55	2133.98
1026.70	2174.94
1026.86	2129.89
1027.02	2181.09
1027.17	2162.66
1027.33	2152.42
1027.48	2174.94
1027.64	2191.33
1027.80	2123.74
1027.95	2148.32
1028.11	2084.83
1028.27	2105.31
1028.42	2187.23
1028.58	2093.02
1028.73	2146.27
1028.89	1996.77
1029.05	2199.52
1029.20	2117.60
>>>>>End Processed Spectral Data<<<<<
