SpectraSuite Data File
++++++++++++++++++++++++++++++++++++
Date: Fri Jun 02 14:51:11 CEST 2017
User: INFO_000
Dark Spectrum Present: No
Reference Spectrum Present: No
Number of Sampled Component Spectra: 1
Spectrometers: USB4H00879
Integration Time (usec): 80000 (USB4H00879)
Spectra Averaged: 1 (USB4H00879)
Boxcar Smoothing: 0 (USB4H00879)
Correct for Electrical Dark: No (USB4H00879)
Strobe/Lamp Enabled: No (USB4H00879)
Correct for Detector Non-linearity: No (USB4H00879)
Correct for Stray Light: No (USB4H00879)
Number of Pixels in Processed Spectrum: 3648
>>>>>Begin Processed Spectral Data<<<<<
345.13	1298.41
345.34	1298.41
345.56	1298.41
345.78	1312.75
345.99	1259.50
346.21	1767.40
346.42	1624.04
346.64	1607.66
346.86	1769.44
347.07	1699.81
347.29	1697.77
347.50	1636.33
347.72	1679.33
347.94	1765.35
348.15	1603.56
348.37	1593.32
348.59	1714.15
348.80	1685.48
349.02	1812.45
349.23	1890.28
349.45	1845.22
349.67	1886.18
349.88	1787.88
350.10	2007.01
350.31	1830.88
350.53	1814.50
350.75	2000.87
350.96	1826.79
351.18	1822.69
351.39	1771.49
351.61	1740.77
351.82	1834.98
352.04	1851.36
352.26	1808.36
352.47	1945.57
352.69	1869.80
352.90	1697.77
353.12	1839.08
353.34	1863.65
353.55	1935.33
353.77	1898.47
353.98	1880.04
354.20	1847.27
354.41	1933.28
354.63	1892.32
354.85	2074.59
355.06	1920.99
355.28	1800.16
355.49	1912.80
355.71	1839.08
355.92	1853.41
356.14	1875.94
356.35	1824.74
356.57	1880.04
356.79	1945.57
357.00	1916.90
357.22	1935.33
357.43	1869.80
357.65	1955.81
357.86	1847.27
358.08	1949.67
358.29	1953.76
358.51	2054.11
358.72	1986.53
358.94	1927.14
359.16	1882.08
359.37	1920.99
359.59	1877.99
359.80	1978.34
360.02	1918.95
360.23	2011.11
360.45	2011.11
360.66	1937.38
360.88	1863.65
361.09	1966.05
361.31	2009.06
361.52	2054.11
361.74	2052.06
361.95	2017.25
362.17	1898.47
362.38	2064.35
362.60	2050.02
362.81	1982.43
363.03	1964.00
363.24	1982.43
363.46	2111.46
363.67	2009.06
363.89	1945.57
364.10	1982.43
364.32	1945.57
364.53	2058.21
364.75	1873.89
364.96	2033.63
365.18	1949.67
365.39	1984.48
365.61	1937.38
365.82	2131.94
366.04	2002.91
366.25	1945.57
366.47	2047.97
366.68	2056.16
366.90	1925.09
367.11	2076.64
367.33	2084.83
367.54	2152.42
367.76	1986.53
367.97	2117.60
368.19	2066.40
368.40	2082.78
368.62	1900.52
368.83	1970.15
369.05	2041.82
369.26	2002.91
369.48	2033.63
369.69	2009.06
369.91	2074.59
370.12	2025.44
370.33	2197.47
370.55	1918.95
370.76	1994.72
370.98	2107.36
371.19	1966.05
371.41	1968.10
371.62	2117.60
371.84	2123.74
372.05	2156.51
372.27	2017.25
372.48	2025.44
372.69	2146.27
372.91	2230.24
373.12	2199.52
373.34	2099.17
373.55	2129.89
373.77	2123.74
373.98	2113.50
374.20	2158.56
374.41	2246.62
374.62	2181.09
374.84	2113.50
375.05	2131.94
375.27	2238.43
375.48	2271.20
375.70	2115.55
375.91	2207.71
376.12	2217.95
376.34	2162.66
376.55	2146.27
376.77	2263.01
376.98	2017.25
377.19	2164.70
377.41	2220.00
377.62	2197.47
377.84	2232.29
378.05	2318.30
378.27	2138.08
378.48	2295.77
378.69	2404.32
378.91	2254.81
379.12	2338.78
379.34	2168.80
379.55	2248.67
379.76	2244.57
379.98	2207.71
380.19	2248.67
380.41	2367.45
380.62	2281.44
380.83	2213.85
381.05	2205.66
381.26	2349.02
381.47	2205.66
381.69	2295.77
381.90	2406.36
382.12	2346.97
382.33	2283.49
382.54	2265.05
382.76	2275.29
382.97	2285.53
383.19	2332.64
383.40	2375.64
383.61	2322.40
383.83	2228.19
384.04	2281.44
384.25	2387.93
384.47	2463.71
384.68	2299.87
384.89	2299.87
385.11	2359.26
385.32	2365.40
385.54	2346.97
385.75	2379.74
385.96	2365.40
386.18	2406.36
386.39	2392.03
386.60	2351.07
386.82	2359.26
387.03	2328.54
387.24	2492.38
387.46	2416.60
387.67	2512.86
387.88	2486.23
388.10	2490.33
388.31	2478.04
388.52	2504.67
388.74	2598.87
388.95	2502.62
389.16	2445.27
389.38	2580.44
389.59	2562.01
389.80	2572.25
390.02	2568.15
390.23	2510.81
390.44	2549.72
390.66	2584.54
390.87	2539.48
391.08	2555.86
391.30	2586.58
391.51	2541.53
391.72	2639.83
391.94	2607.06
392.15	2668.50
392.36	2541.53
392.58	2678.74
392.79	2613.21
393.00	2541.53
393.22	2719.70
393.43	2662.36
393.64	2705.37
393.85	2717.65
394.07	2660.31
394.28	2740.18
394.49	2832.34
394.71	2707.41
394.92	2795.48
395.13	2764.76
395.35	2766.81
395.56	2775.00
395.77	2594.78
395.98	2801.62
396.20	2887.64
396.41	2830.29
396.62	2875.35
396.84	2793.43
397.05	2793.43
397.26	2818.00
397.47	2983.89
397.69	2772.95
397.90	3043.28
398.11	2863.06
398.32	2842.58
398.54	2926.55
398.75	2936.79
398.96	2869.20
399.18	3006.42
399.39	2863.06
399.60	2985.94
399.81	2861.01
400.03	3006.42
400.24	3248.08
400.45	2926.55
400.66	3018.71
400.88	2977.75
401.09	3119.06
401.30	2985.94
401.51	3106.77
401.73	3108.82
401.94	3098.58
402.15	3112.91
402.36	3014.61
402.58	3063.76
402.79	3219.41
403.00	3049.43
403.21	3217.36
403.43	3188.69
403.64	3237.84
403.85	3166.16
404.06	3243.98
404.27	3030.99
404.49	3133.39
404.70	3084.24
404.91	3248.08
405.12	3133.39
405.34	3272.65
405.55	3358.67
405.76	3129.30
405.97	3123.15
406.19	3436.49
406.40	3268.56
406.61	3268.56
406.82	3332.05
407.03	3270.61
407.25	3227.60
407.46	3407.82
407.67	3270.61
407.88	3477.45
408.09	3403.72
408.31	3354.57
408.52	3366.86
408.73	3327.95
408.94	3272.65
409.15	3465.16
409.37	3436.49
409.58	3542.99
409.79	3342.28
410.00	3583.95
410.21	3383.24
410.43	3422.16
410.64	3383.24
410.85	3585.99
411.06	3436.49
411.27	3596.23
411.48	3571.66
411.70	3631.05
411.91	3618.76
412.12	3561.42
412.33	3530.70
412.54	3493.83
412.76	3712.97
412.97	3690.44
413.18	3557.32
413.39	3651.53
413.60	3669.96
413.81	3608.52
414.03	3665.86
414.24	3540.94
414.45	3760.07
414.66	3610.57
414.87	3598.28
415.08	3772.36
415.30	3706.82
415.51	3768.26
415.72	3678.15
415.93	3727.30
416.14	3751.88
416.35	3690.44
416.56	3735.50
416.78	3776.45
416.99	3739.59
417.20	3682.25
417.41	3866.56
417.62	3774.41
417.83	3938.24
418.04	3956.68
418.26	3952.58
418.47	3885.00
418.68	3942.34
418.89	3950.53
419.10	4073.41
419.31	4120.51
419.52	4140.99
419.73	3899.33
419.95	4042.69
420.16	3909.57
420.37	4061.12
420.58	3979.20
420.79	3796.93
421.00	3997.64
421.21	4181.95
421.42	3919.81
421.63	4132.80
421.85	4151.23
422.06	4145.09
422.27	4165.57
422.48	4214.72
422.69	4120.51
422.90	4220.86
423.11	4165.57
423.32	4220.86
423.53	4407.23
423.75	4351.93
423.96	4472.76
424.17	4399.04
424.38	4603.83
424.59	4437.95
424.80	4462.52
425.01	4241.34
425.22	4382.65
425.43	4399.04
425.64	4605.88
425.85	4556.73
426.06	4579.26
426.28	4566.97
426.49	4442.04
426.70	4530.11
426.91	4618.17
427.12	4646.84
427.33	4665.27
427.54	4575.16
427.75	4716.47
427.96	4689.85
428.17	4599.74
428.38	4792.25
428.59	4851.64
428.80	4704.18
429.01	4829.11
429.23	4878.26
429.44	4827.06
429.65	4894.65
429.86	4923.32
430.07	4800.44
430.28	4919.22
430.49	4890.55
430.70	5152.69
430.91	5140.40
431.12	5033.91
431.33	5113.78
431.54	5152.69
431.75	5128.11
431.96	5091.25
432.17	5144.50
432.38	5091.25
432.59	5320.62
432.80	5162.93
433.01	5195.70
433.22	5388.21
433.43	5345.20
433.64	5222.32
433.85	5320.62
434.06	5357.49
434.27	5207.98
434.49	5285.81
434.70	5367.73
434.91	5459.88
435.12	5320.62
435.33	5414.83
435.54	5455.79
435.75	5347.25
435.96	5439.40
436.17	5347.25
436.38	5539.76
436.59	5529.52
436.80	5547.95
437.01	5650.35
437.22	5779.37
437.43	5728.17
437.64	5468.08
437.85	5656.49
438.06	5726.12
438.27	5662.63
438.48	5648.30
438.69	5771.18
438.90	5703.59
439.11	5498.80
439.32	5930.92
439.53	5691.31
439.74	5885.86
439.95	5762.98
440.16	5789.61
440.37	5838.76
440.57	5791.66
440.78	6104.99
440.99	6016.93
441.20	5959.59
441.41	5830.57
441.62	5935.01
441.83	5834.66
442.04	6045.60
442.25	5945.25
442.46	5990.31
442.67	6053.80
442.88	6332.32
443.09	5894.05
443.30	6223.78
443.51	6074.28
443.72	6383.52
443.93	6182.82
444.14	6557.60
444.35	6057.89
444.56	6211.49
444.77	6176.67
444.98	6420.38
445.19	6277.02
445.40	6340.51
445.61	6358.94
445.81	6389.66
446.02	6537.12
446.23	6418.33
446.44	6209.44
446.65	6502.30
446.86	6410.14
447.07	6520.73
447.28	6629.27
447.49	6647.71
447.70	6508.44
447.91	6690.71
448.12	6541.21
448.33	6807.45
448.54	6629.27
448.74	6604.70
448.95	6799.26
449.16	6512.54
449.37	7057.30
449.58	6823.83
449.79	6938.52
450.00	6676.38
450.21	7018.39
450.42	7122.84
450.63	7049.11
450.84	6743.96
451.05	6875.03
451.25	7024.53
451.46	6858.65
451.67	7227.28
451.88	7135.12
452.09	7133.08
452.30	6930.33
452.51	7118.74
452.72	7174.03
452.93	7573.39
453.13	7104.40
453.34	7036.82
453.55	7212.95
453.76	7243.67
453.97	7442.32
454.18	7313.30
454.39	7456.65
454.60	7440.27
454.81	7391.12
455.01	7716.75
455.22	7305.10
455.43	7497.61
455.64	7843.72
455.85	7976.84
456.06	7929.74
456.27	7761.80
456.48	7595.92
456.68	7679.88
456.89	7821.19
457.10	7884.68
457.31	7974.79
457.52	7856.01
457.73	8083.33
457.94	8259.46
458.14	7929.74
458.35	8318.85
458.56	8116.10
458.77	8028.04
458.98	8458.11
459.19	8146.82
459.39	8329.09
459.60	8398.72
459.81	8398.72
460.02	8595.32
460.23	8394.62
460.44	8572.80
460.65	8585.08
460.85	8580.99
461.06	8867.70
461.27	8421.25
461.48	8972.15
461.69	8941.43
461.89	8630.14
462.10	8836.99
462.31	8611.71
462.52	8808.31
462.73	8826.75
462.94	9146.23
463.14	9113.46
463.35	9006.97
463.56	9332.59
463.77	9367.41
463.98	9052.02
464.18	9256.82
464.39	9396.08
464.60	9426.80
464.81	9490.29
465.02	9437.04
465.23	9752.43
465.43	9666.41
465.64	9785.19
465.85	9713.52
466.06	9541.49
466.27	9854.83
466.47	9867.11
466.68	9953.13
466.89	9889.64
467.10	10254.18
467.30	9932.65
467.51	10096.49
467.72	10321.76
467.93	9887.59
468.14	10307.43
468.34	10350.43
468.55	10544.99
468.76	10465.12
468.97	10415.97
469.17	10684.25
469.38	10628.96
469.59	10876.76
469.80	10719.07
470.01	10776.41
470.21	10698.59
470.42	10999.64
470.63	11151.19
470.84	11122.52
471.04	11175.77
471.25	11243.35
471.46	11155.29
471.67	11497.30
471.87	11472.72
472.08	11396.95
472.29	11646.80
472.50	11511.63
472.70	11507.54
472.91	11638.61
473.12	11833.16
473.33	12011.34
473.53	12197.70
473.74	11810.64
473.95	12320.58
474.16	12156.74
474.36	12248.90
474.57	12443.46
474.78	12656.45
474.99	12363.59
475.19	12443.46
475.40	12732.22
475.61	12808.00
475.81	12943.16
476.02	13205.30
476.23	12875.58
476.44	13102.90
476.64	13541.17
476.85	13307.70
477.06	13420.34
477.27	13580.08
477.47	13696.82
477.68	13494.07
477.89	13625.14
478.09	14079.79
478.30	13975.34
478.51	14063.40
478.71	14075.69
478.92	14389.03
479.13	14128.94
479.34	14516.00
479.54	14333.73
479.75	14352.16
479.96	14630.69
480.16	14794.53
480.37	14804.77
480.58	14825.25
480.78	15003.42
480.99	15089.43
481.20	14962.46
481.41	15234.84
481.61	15748.88
481.82	15189.78
482.03	15451.92
482.23	15470.36
482.44	15513.36
482.65	16031.50
482.85	16133.90
483.06	15990.54
483.27	16250.63
483.47	15851.28
483.68	16043.79
483.89	16494.34
484.09	16340.74
484.30	16310.02
484.51	16656.13
484.71	16822.02
484.92	16342.79
485.13	17008.38
485.33	17086.20
485.54	17100.54
485.75	17225.47
485.95	17237.75
486.16	17217.27
486.37	17430.26
486.57	17567.48
486.78	17678.07
486.98	17549.04
487.19	17526.52
487.40	17995.50
487.60	17809.14
487.81	18118.38
488.02	17774.32
488.22	18161.39
488.43	18056.94
488.64	18245.35
488.84	18484.97
489.05	18546.40
489.25	18638.56
489.46	18906.85
489.67	18546.40
489.87	18863.84
490.08	18892.51
490.29	18912.99
490.49	19764.95
490.70	19427.03
490.90	19224.28
491.11	19429.08
491.32	19349.21
491.52	19678.93
491.73	19580.63
491.94	19910.35
492.14	19828.43
492.35	20182.73
492.55	20274.89
492.76	20156.11
492.97	20567.75
493.17	20461.26
493.38	20471.50
493.58	20575.94
493.79	20645.57
494.00	20559.56
494.20	20682.44
494.41	21169.85
494.61	20936.38
494.82	21139.13
495.02	21001.92
495.23	21188.28
495.44	21239.48
495.64	21651.13
495.85	21245.63
496.05	21569.21
496.26	21448.38
496.47	21659.32
496.67	21671.61
496.88	21817.01
497.08	21731.00
497.29	21802.68
497.49	21749.43
497.70	22318.76
497.91	22281.90
498.11	22101.68
498.32	22183.60
498.52	22539.94
498.73	22601.38
498.93	22847.14
499.14	22531.75
499.34	22587.05
499.55	23117.47
499.76	22568.62
499.96	22892.19
500.17	22947.49
500.37	23119.52
500.58	23049.89
500.78	23242.40
500.99	23166.62
501.19	23305.88
501.40	23529.11
501.60	23369.37
501.81	23735.96
502.02	23570.07
502.22	23529.11
502.43	23791.25
502.63	23926.42
502.84	23762.58
503.04	23942.80
503.25	23891.60
503.45	24137.36
503.66	24454.79
503.86	24034.96
504.07	24743.56
504.27	24104.59
504.48	24802.95
504.68	24311.44
504.89	24596.10
505.09	24708.74
505.30	24829.57
505.50	24649.35
505.71	24952.45
505.91	25009.79
506.12	24841.86
506.32	25204.35
506.53	24882.82
506.73	25296.51
506.94	25284.22
507.14	25214.59
507.35	25575.03
507.55	25392.76
507.76	25589.37
507.96	25544.31
508.17	25591.42
508.37	25546.36
508.58	25521.79
508.78	25843.32
508.99	25708.15
509.19	26164.85
509.40	25939.57
509.60	25992.82
509.81	26033.78
510.01	25992.82
510.22	25828.98
510.42	26273.39
510.63	26328.69
510.83	26560.11
511.04	26300.01
511.24	26889.83
511.44	26406.51
511.65	26740.33
511.85	26601.07
512.06	26699.37
512.26	26865.25
512.47	26721.90
512.67	26713.70
512.88	27086.43
513.08	26680.94
513.29	27020.90
513.49	27121.25
513.69	26820.20
513.90	26863.21
514.10	26791.53
514.31	27493.98
514.51	27481.69
514.72	27536.99
514.92	27358.81
515.13	27319.90
515.33	27231.84
515.53	27536.99
515.74	27520.60
515.94	27471.45
516.15	27651.67
516.35	27715.16
516.56	28106.32
516.76	27698.78
516.96	27666.01
517.17	28059.22
517.37	27926.10
517.58	27969.11
517.78	28307.02
517.99	28325.46
518.19	28259.92
518.39	28517.96
518.60	28407.37
518.80	28395.09
519.01	28497.49
519.21	28517.96
519.41	28767.82
519.62	28554.83
519.82	29005.38
520.03	28624.46
520.23	28929.61
520.43	28847.69
520.64	29175.36
520.84	29515.33
521.05	29025.86
521.25	29195.84
521.45	29509.18
521.66	29521.47
521.86	29488.70
522.07	29511.23
522.27	29638.20
522.47	29761.08
522.68	30121.52
522.88	29990.45
523.08	30213.68
523.29	30248.50
523.49	30348.85
523.70	30240.31
523.90	30311.99
524.10	30365.23
524.31	30522.93
524.51	30195.25
524.71	30909.99
524.92	30754.35
525.12	30817.83
525.33	30643.76
525.53	30852.65
525.73	31086.12
525.94	30932.52
526.14	31034.92
526.34	31110.69
526.55	31288.87
526.75	31297.06
526.95	31831.58
527.16	31573.53
527.36	31684.12
527.56	31673.88
527.77	31819.29
527.97	31827.48
528.17	32063.00
528.38	31976.98
528.58	32210.45
528.78	32409.11
528.99	32370.19
529.19	32382.48
529.39	32208.40
529.60	32540.18
529.80	32804.36
530.00	32372.24
530.21	32884.23
530.41	32960.01
530.61	32996.87
530.82	32724.49
531.02	33054.22
531.22	32853.51
531.43	32996.87
531.63	33416.71
531.83	33893.88
532.04	33859.07
532.24	33256.96
532.44	33572.35
532.64	33857.02
532.85	34012.66
533.05	33793.53
533.25	34162.17
533.46	34088.44
533.66	34782.70
533.86	33965.56
534.07	34956.78
534.27	34321.91
534.47	34751.98
534.67	35116.52
534.88	34506.23
535.08	35087.85
535.28	34971.11
535.49	34983.40
535.69	35325.41
535.89	35276.26
536.09	35210.73
536.30	35773.92
536.50	35339.75
536.70	35513.83
536.91	35800.54
537.11	35720.67
537.31	36062.68
537.51	35702.24
537.72	36193.75
537.92	36144.60
538.12	36863.44
538.32	36077.02
538.53	36853.20
538.73	36603.35
538.93	36654.54
539.13	36533.71
539.34	36885.97
539.54	36763.09
539.74	36896.20
539.94	36632.02
540.15	36922.83
540.35	37334.47
540.55	37178.82
540.75	37322.18
540.96	37283.27
541.16	37440.96
541.36	37627.33
541.56	37649.86
541.77	37922.24
541.97	37854.65
542.17	37909.95
542.37	37725.63
542.58	38135.23
542.78	37770.69
542.98	38239.67
543.18	37932.48
543.38	38518.20
543.59	38606.26
543.79	38405.56
543.99	38426.04
544.19	38368.69
544.40	38555.06
544.60	38694.32
544.80	38747.57
545.00	38759.86
545.20	39003.56
545.41	38763.95
545.61	38931.89
545.81	39505.32
546.01	39454.12
546.21	39114.16
546.42	39204.27
546.62	39929.25
546.82	39376.30
547.02	39638.44
547.22	39802.27
547.43	39318.95
547.63	39521.70
547.83	39822.75
548.03	39181.74
548.23	39943.58
548.44	39845.28
548.64	39775.65
548.84	40193.43
549.04	39839.14
549.24	40175.00
549.45	40525.21
549.65	40199.58
549.85	40220.06
550.05	40543.64
550.25	40023.45
550.45	40721.81
550.66	40117.66
550.86	40408.47
551.06	40891.79
551.26	40920.46
551.46	40748.43
551.66	40758.67
551.87	40578.45
552.07	41076.11
552.27	41045.39
552.47	41000.33
552.67	41022.86
552.87	40899.98
553.07	41137.55
553.28	41049.49
553.48	41432.46
553.68	41186.70
553.88	41575.81
554.08	41155.98
554.28	41260.43
554.48	41538.95
554.69	41465.22
554.89	41440.65
555.09	41274.76
555.29	41385.35
555.49	41618.82
555.69	41538.95
555.89	41723.27
556.10	42128.77
556.30	41653.64
556.50	41745.80
556.70	41627.01
556.90	42222.97
557.10	42118.53
557.30	41817.47
557.50	42288.51
557.70	42444.15
557.91	42777.97
558.11	41956.74
558.31	42323.32
558.51	42167.68
558.71	42702.20
558.91	42720.63
559.11	42225.02
559.31	42153.34
559.51	42210.68
559.72	42335.61
559.92	42456.44
560.12	42530.17
560.32	42851.70
560.52	42483.06
560.72	42894.71
560.92	42702.20
561.12	42634.61
561.32	42886.51
561.52	42517.88
561.72	43160.94
561.93	43119.98
562.13	42978.67
562.33	42849.65
562.53	43851.11
562.73	42950.00
562.93	43128.17
563.13	43433.32
563.33	43001.20
563.53	43181.42
563.73	42906.99
563.93	43527.53
564.13	44029.28
564.33	43353.45
564.53	43300.20
564.74	43697.51
564.94	43222.38
565.14	43529.58
565.34	43228.52
565.54	43414.89
565.74	43693.41
565.94	44154.21
566.14	43801.96
566.34	43808.10
566.54	44111.20
566.74	43847.01
566.94	43986.27
567.14	44488.03
567.34	43832.68
567.54	43808.10
567.74	44021.09
567.94	44047.71
568.14	44440.92
568.34	44522.84
568.54	44547.42
568.74	44559.70
568.94	44252.51
569.14	44494.17
569.34	44485.98
569.54	44574.04
569.75	44066.14
569.95	44387.67
570.15	44823.89
570.35	44393.82
570.55	44979.54
570.75	44862.80
570.95	44684.63
571.15	44766.55
571.35	45172.05
571.55	45204.81
571.75	44957.01
571.95	44840.28
572.15	44983.63
572.35	45053.26
572.55	45094.22
572.75	45192.53
572.95	44897.62
573.15	45303.12
573.35	45473.10
573.55	45100.37
573.75	45315.40
573.95	45471.05
574.15	44981.59
574.35	45561.16
574.55	45538.63
574.75	44930.39
574.95	45477.19
575.15	45679.94
575.34	45761.86
575.54	45686.09
575.74	46028.10
575.94	45823.30
576.14	45561.16
576.34	46216.51
576.54	46394.68
576.74	46292.29
576.94	46181.70
577.14	46318.91
577.34	46378.30
577.54	45995.33
577.74	46148.93
577.94	46331.20
578.14	46435.64
578.34	46535.99
578.54	46273.85
578.74	46470.46
578.94	46945.59
579.14	46519.61
579.34	46667.06
579.54	46673.21
579.74	47080.75
579.94	46931.25
580.13	47316.27
580.33	47035.70
580.53	46773.56
580.73	47437.10
580.93	47314.22
581.13	47295.79
581.33	46990.64
581.53	47670.57
581.73	47076.66
581.93	47471.92
582.13	47338.80
582.33	47660.33
582.53	47469.87
582.73	47492.40
582.92	47486.25
583.12	47988.00
583.32	47811.88
583.52	47496.49
583.72	48076.07
583.92	47600.94
584.12	47568.17
584.32	48284.96
584.52	48035.11
584.72	47996.20
584.92	48299.30
585.11	48461.08
585.31	48391.45
585.51	48416.03
585.71	47985.96
585.91	48725.27
586.11	47955.24
586.31	48407.84
586.51	48229.66
586.71	48522.52
586.91	49116.43
587.10	48915.73
587.30	48985.36
587.50	48686.36
587.70	48887.06
587.90	49069.33
588.10	49134.87
588.30	49100.05
588.50	49073.43
588.69	49161.49
588.89	49179.92
589.09	49206.55
589.29	49229.07
589.49	49702.15
589.69	48989.46
589.89	49237.26
590.08	49333.52
590.28	49653.00
590.48	49493.26
590.68	49542.41
590.88	49184.02
591.08	49724.68
591.28	48913.69
591.47	49990.92
591.67	49863.94
591.87	49708.30
592.07	50261.25
592.27	49513.74
592.47	49968.39
592.67	49937.67
592.86	49837.32
593.06	50525.44
593.26	50197.76
593.46	50132.23
593.66	50160.90
593.86	50408.70
594.05	50406.65
594.25	50251.01
594.45	50029.83
594.65	50617.60
594.85	49726.73
595.05	50590.97
595.24	50822.39
595.44	50740.47
595.64	50650.36
595.84	50480.38
596.04	50615.55
596.23	50902.26
596.43	51107.06
596.63	50654.46
596.83	50617.60
597.03	51066.10
597.22	51385.58
597.42	50926.84
597.62	51262.71
597.82	51164.40
598.02	51250.42
598.21	51289.33
598.41	50760.95
598.61	51524.85
598.81	51608.81
599.01	51324.14
599.20	51700.97
599.40	51504.37
599.60	51565.81
599.80	51838.18
600.00	51854.57
600.19	51852.52
600.39	51266.80
600.59	52104.42
600.79	52237.54
600.98	52008.17
601.18	52223.20
601.38	52266.21
601.58	52126.95
601.78	52110.56
601.97	52249.83
602.17	52671.71
602.37	52567.26
602.57	52315.36
602.76	52663.52
602.96	52483.30
603.16	52679.90
603.36	52491.49
603.55	53069.01
603.75	52813.02
603.95	52964.57
604.15	52810.97
604.34	52794.59
604.54	53173.46
604.74	53046.49
604.94	53286.10
605.13	53232.85
605.33	53003.48
605.53	53023.96
605.73	53372.11
605.92	53363.92
606.12	53347.54
606.32	53507.28
606.52	53478.61
606.71	53431.50
606.91	53863.63
607.11	53220.56
607.30	53986.50
607.50	53472.46
607.70	53388.50
607.90	53796.04
608.09	53736.65
608.29	53703.88
608.49	53849.29
608.68	53834.95
608.88	54219.97
609.08	53560.53
609.28	53884.11
609.47	53834.95
609.67	54416.58
609.87	54015.18
610.06	54686.91
610.26	54082.76
610.46	54424.77
610.66	54197.44
610.85	54199.49
611.05	54219.97
611.25	54308.04
611.44	54217.92
611.64	54533.31
611.84	54111.43
612.03	54025.42
612.23	54314.18
612.43	54500.54
612.62	53918.92
612.82	54572.22
613.02	54355.14
613.21	54691.01
613.41	54211.78
613.61	54629.57
613.80	54146.25
614.00	54596.80
614.20	54854.84
614.39	54453.44
614.59	54926.52
614.79	54408.39
614.98	54301.89
615.18	54703.29
615.38	54787.26
615.57	54267.08
615.77	54813.88
615.97	54598.85
616.16	54672.57
616.36	54729.92
616.56	54543.55
616.75	54871.23
616.95	54426.82
617.15	54899.90
617.34	54637.76
617.54	54578.37
617.74	54883.51
617.93	54822.08
618.13	54414.53
618.32	54699.20
618.52	54312.13
618.72	54648.00
618.91	54932.67
619.11	54719.68
619.31	54727.87
619.50	54555.84
619.70	54580.42
619.90	54703.29
620.09	54865.08
620.29	55045.30
620.48	54721.72
620.68	55485.62
620.88	54246.60
621.07	54678.72
621.27	54801.60
621.46	54439.11
621.66	54949.05
621.86	54779.07
622.05	54885.56
622.25	55055.54
622.44	54262.98
622.64	54557.89
622.84	54686.91
623.03	54582.46
623.23	55014.58
623.42	54348.99
623.62	54871.23
623.82	54721.72
624.01	54543.55
624.21	54811.84
624.40	54903.99
624.60	54754.49
624.80	54742.20
624.99	54953.15
625.19	54432.96
625.38	54834.36
625.58	54961.34
625.77	54715.58
625.97	54711.49
626.17	54604.99
626.36	54516.93
626.56	55129.27
626.75	54351.04
626.95	55086.26
627.14	54832.32
627.34	55121.08
627.54	54469.82
627.73	54701.25
627.93	55033.02
628.12	54334.66
628.32	54758.59
628.51	54764.73
628.71	54586.56
628.90	55119.03
629.10	54453.44
629.30	55116.98
629.49	54863.03
629.69	55129.27
629.88	54680.77
630.08	55293.11
630.27	55297.20
630.47	54682.81
630.66	54586.56
630.86	55080.12
631.05	54396.10
631.25	55346.36
631.44	54791.36
631.64	55010.49
631.84	54740.16
632.03	55276.72
632.23	55076.02
632.42	55796.91
632.62	55000.25
632.81	54764.73
633.01	54744.25
633.20	54768.83
633.40	54920.38
633.59	55078.07
633.79	55055.54
633.98	55051.45
634.18	55096.50
634.37	54867.13
634.57	55059.64
634.76	55104.70
634.96	55254.20
635.15	55493.81
635.35	55035.06
635.54	54975.67
635.74	55092.41
635.93	54949.05
636.13	55217.33
636.32	55471.28
636.52	54752.44
636.71	55303.35
636.91	55475.38
637.10	55235.77
637.30	54963.39
637.49	55559.34
637.69	54871.23
637.88	55784.62
638.08	54912.19
638.27	55583.92
638.46	54719.68
638.66	54805.69
638.85	54768.83
639.05	55379.12
639.24	55370.93
639.44	55153.85
639.63	55282.87
639.83	55631.02
640.02	55581.87
640.22	55176.37
640.41	55776.43
640.61	55055.54
640.80	55463.09
640.99	55555.25
641.19	55891.12
641.38	55585.97
641.58	55041.21
641.77	55276.72
641.97	55329.97
642.16	55590.06
642.36	55571.63
642.55	55712.94
642.74	55274.68
642.94	55833.77
643.13	55194.81
643.33	55964.84
643.52	56284.33
643.72	55889.07
643.91	55549.10
644.10	55866.54
644.30	55450.80
644.49	55219.38
644.69	55958.70
644.88	55784.62
645.08	55784.62
645.27	56145.06
645.46	55327.92
645.66	55970.99
645.85	55747.76
646.05	55829.68
646.24	55743.66
646.43	55723.18
646.63	55942.31
646.82	56079.53
647.02	56292.52
647.21	56362.15
647.40	56292.52
647.60	56267.94
647.79	56235.17
647.99	56067.24
648.18	55948.46
648.37	57021.59
648.57	56026.28
648.76	56138.92
648.96	55893.16
649.15	56550.56
649.34	56128.68
649.54	56384.68
649.73	56059.05
649.92	56259.75
650.12	56415.40
650.31	56202.41
650.51	56155.30
650.70	56519.84
650.89	56399.01
651.09	57128.09
651.28	56632.48
651.47	56802.46
651.67	56407.20
651.86	56966.30
652.06	56120.49
652.25	56642.72
652.44	56525.99
652.64	56169.64
652.83	56396.96
653.02	56138.92
653.22	56368.29
653.41	56147.11
653.60	56358.05
653.80	56464.55
653.99	56634.53
654.18	56765.60
654.38	56319.14
654.57	56827.04
654.76	56505.51
654.96	56317.09
655.15	56818.84
655.34	56083.62
655.54	56112.30
655.73	56687.78
655.92	56595.62
656.12	56542.37
656.31	56958.11
656.50	56976.54
656.70	56356.00
656.89	56702.11
657.08	56702.11
657.28	56304.80
657.47	56370.34
657.66	56792.22
657.86	56415.40
658.05	56784.03
658.24	56751.26
658.43	56779.93
658.63	57003.16
658.82	56947.87
659.01	57279.64
659.21	56761.50
659.40	56853.66
659.59	56489.12
659.79	56894.62
659.98	57015.45
660.17	57365.65
660.36	56698.01
660.56	56874.14
660.75	56790.17
660.94	57009.31
661.14	57009.31
661.33	56464.55
661.52	56599.71
661.71	57017.50
661.91	56679.58
662.10	56669.34
662.29	57341.08
662.49	57009.31
662.68	56603.81
662.87	56915.10
663.06	57146.52
663.26	56644.77
663.45	56718.49
663.64	56792.22
663.83	57484.43
664.03	57226.39
664.22	57152.66
664.41	56962.20
664.60	56571.04
664.80	56868.00
664.99	57160.86
665.18	56980.63
665.37	57203.86
665.57	57203.86
665.76	56982.68
665.95	57259.16
666.14	57042.07
666.34	57035.93
666.53	56974.49
666.72	56706.21
666.91	56853.66
667.11	56593.57
667.30	56669.34
667.49	56661.15
667.68	56566.94
667.87	56517.79
668.07	57060.51
668.26	56861.85
668.45	57003.16
668.64	56702.11
668.84	57517.20
669.03	57441.43
669.22	56859.80
669.41	57179.29
669.60	57402.52
669.80	57013.40
669.99	57285.78
670.18	57085.08
670.37	56753.31
670.57	57394.32
670.76	56890.52
670.95	57136.28
671.14	57037.98
671.33	56439.97
671.53	57259.16
671.72	57044.12
671.91	56796.32
672.10	57066.65
672.29	56890.52
672.48	56882.33
672.68	57394.32
672.87	56992.92
673.06	56644.77
673.25	56657.06
673.44	56450.21
673.64	56882.33
673.83	56999.07
674.02	56546.47
674.21	56429.73
674.40	56730.78
674.59	56890.52
674.79	56380.58
674.98	56585.38
675.17	56595.62
675.36	56294.56
675.55	57001.11
675.74	56458.40
675.94	56632.48
676.13	56911.00
676.32	56999.07
676.51	56874.14
676.70	56751.26
676.89	56853.66
677.08	56691.87
677.28	56833.18
677.47	57070.75
677.66	56747.17
677.85	56695.97
678.04	56489.12
678.23	56925.34
678.42	57009.31
678.62	56702.11
678.81	56888.48
679.00	57087.13
679.19	57226.39
679.38	56374.44
679.57	56425.64
679.76	56620.19
679.96	57089.18
680.15	56421.54
680.34	56513.70
680.53	56476.83
680.72	56726.69
680.91	56700.06
681.10	56556.70
681.29	56351.91
681.48	56325.28
681.68	56226.98
681.87	56442.02
682.06	56652.96
682.25	55768.24
682.44	56589.47
682.63	56695.97
682.82	56327.33
683.01	56186.02
683.20	56448.16
683.39	56296.61
683.59	56030.38
683.78	55927.98
683.97	56175.78
684.16	56294.56
684.35	56114.34
684.54	56226.98
684.73	56093.86
684.92	56190.12
685.11	55968.94
685.30	55874.73
685.49	56349.86
685.69	56448.16
685.88	56177.83
686.07	56226.98
686.26	56204.45
686.45	55868.59
686.64	55764.14
686.83	55948.46
687.02	56194.21
687.21	55868.59
687.40	56255.65
687.59	55758.00
687.78	56112.30
687.97	56083.62
688.16	56018.09
688.35	55950.51
688.54	55805.10
688.74	55745.71
688.93	55837.87
689.12	55907.50
689.31	55801.00
689.50	55946.41
689.69	55393.46
689.88	55262.39
690.07	55452.85
690.26	55260.34
690.45	55829.68
690.64	55581.87
690.83	55614.64
691.02	55358.64
691.21	55502.00
691.40	55325.88
691.59	55510.19
691.78	55362.74
691.97	55678.13
692.16	55100.60
692.35	55426.23
692.54	55561.39
692.73	55456.95
692.92	55540.91
693.11	55723.18
693.30	55581.87
693.49	55534.77
693.68	55616.69
693.87	55270.58
694.06	55008.44
694.25	55485.62
694.44	55065.78
694.63	55260.34
694.82	55286.96
695.01	55338.16
695.20	55026.87
695.39	55112.89
695.58	54863.03
695.77	54844.60
695.96	54828.22
696.15	55317.68
696.34	54793.40
696.53	54645.95
696.72	55227.57
696.91	55104.70
697.10	54736.06
697.29	54293.70
697.48	54883.51
697.67	54555.84
697.86	54338.75
698.05	54203.59
698.24	54965.43
698.43	54303.94
698.62	54965.43
698.81	54242.50
699.00	54211.78
699.19	54604.99
699.38	54686.91
699.57	54502.59
699.76	54781.12
699.95	54314.18
700.14	54502.59
700.32	54193.35
700.51	54199.49
700.70	54469.82
700.89	54305.99
701.08	54498.50
701.27	54682.81
701.46	54332.61
701.65	53933.26
701.84	54117.57
702.03	54236.36
702.22	54355.14
702.41	54064.33
702.60	54322.37
702.79	53945.54
702.98	53574.86
703.17	53894.35
703.35	53857.48
703.54	53322.96
703.73	54498.50
703.92	53615.82
704.11	53763.28
704.30	53269.72
704.49	54156.49
704.68	53454.03
704.87	53900.49
705.06	53374.16
705.25	53261.52
705.43	53470.42
705.62	53691.60
705.81	53605.58
706.00	53415.12
706.19	52759.77
706.38	53400.79
706.57	53130.45
706.76	53079.25
706.95	53355.73
707.14	52892.89
707.32	53032.15
707.51	52966.62
707.70	53499.09
707.89	53318.87
708.08	53236.95
708.27	53640.40
708.46	53875.91
708.65	52819.16
708.84	53073.11
709.02	53589.20
709.21	53208.28
709.40	53378.26
709.59	52894.94
709.78	52671.71
709.97	53267.67
710.16	52483.30
710.34	52782.30
710.53	52561.12
710.72	52425.95
710.91	52856.03
711.10	52565.21
711.29	52954.33
711.48	52770.01
711.66	52829.40
711.85	52753.63
712.04	52583.65
712.23	52290.79
712.42	52665.56
712.61	52737.24
712.80	52200.68
712.98	52628.70
713.17	52223.20
713.36	52221.16
713.55	52585.69
713.74	52227.30
713.93	52649.18
714.11	52634.84
714.30	52389.09
714.49	52051.17
714.68	52337.89
714.87	52141.28
715.06	52458.72
715.24	51885.29
715.43	52104.42
715.62	51467.50
715.81	51881.19
716.00	52149.48
716.18	51377.39
716.37	51254.51
716.56	51330.29
716.75	51991.78
716.94	51336.43
717.12	51369.20
717.31	51748.07
717.50	51731.69
717.69	51361.01
717.88	51467.50
718.06	51291.38
718.25	51897.58
718.44	51363.06
718.63	51205.36
718.82	51004.66
719.00	51109.11
719.19	51004.66
719.38	51115.25
719.57	50584.83
719.76	50828.54
719.94	50580.73
720.13	50715.90
720.32	51004.66
720.51	50709.75
720.69	50570.49
720.88	50578.68
721.07	50887.93
721.26	50369.79
721.44	50584.83
721.63	50181.38
721.82	50291.97
722.01	50242.82
722.20	50310.40
722.38	50068.74
722.57	49816.84
722.76	49837.32
722.95	50152.71
723.13	49755.40
723.32	49927.43
723.51	49634.57
723.70	49628.43
723.88	49429.77
724.07	49650.95
724.26	49833.22
724.44	49175.83
724.63	49378.57
724.82	49743.11
725.01	49820.94
725.19	49376.53
725.38	49261.84
725.57	49272.08
725.76	49726.73
725.94	49046.80
726.13	49079.57
726.32	49276.18
726.51	49024.28
726.69	49675.53
726.88	49329.42
727.07	49061.14
727.25	48991.51
727.44	49098.00
727.63	48876.82
727.82	48944.41
728.00	49122.58
728.19	49048.85
728.38	49214.74
728.56	48334.11
728.75	48973.08
728.94	48788.76
729.12	49181.97
729.31	48993.56
729.50	48852.25
729.69	49175.83
729.87	48710.94
730.06	48735.51
730.25	49034.52
730.43	49003.80
730.62	48620.83
730.81	48778.52
730.99	49399.05
731.18	48999.70
731.37	48876.82
731.55	48833.81
731.74	48811.29
731.93	48641.31
732.11	49188.11
732.30	48952.60
732.49	48780.57
732.67	48876.82
732.86	48635.16
733.05	48669.98
733.23	48301.34
733.42	48743.70
733.61	48551.20
733.79	48452.89
733.98	48940.31
734.17	48669.98
734.35	48297.25
734.54	48794.90
734.73	48686.36
734.91	48751.90
735.10	48354.59
735.29	48727.32
735.47	48235.81
735.66	48358.69
735.84	48450.84
736.03	48190.75
736.22	48522.52
736.40	48045.35
736.59	48436.51
736.78	48063.78
736.96	47811.88
737.15	48620.83
737.33	48012.58
737.52	48377.12
737.71	48231.71
737.89	48332.06
738.08	47834.41
738.27	47988.00
738.45	48489.76
738.64	48037.16
738.82	48112.93
739.01	48055.59
739.20	48125.22
739.38	48084.26
739.57	48166.18
739.75	48190.75
739.94	48035.11
740.13	48018.72
740.31	47707.43
740.50	47893.80
740.68	47856.93
740.87	47899.94
741.06	47863.08
741.24	47660.33
741.43	47258.93
741.61	48139.55
741.80	47494.44
741.99	47674.66
742.17	47324.46
742.36	47539.50
742.54	47568.17
742.73	47281.45
742.91	47484.20
743.10	47461.68
743.29	47568.17
743.47	47467.82
743.66	47574.31
743.84	47707.43
744.03	47107.38
744.21	47316.27
744.40	47537.45
744.59	47289.65
744.77	46710.07
744.96	47103.28
745.14	47435.05
745.33	47328.56
745.51	47267.12
745.70	47213.87
745.88	47244.59
746.07	47027.51
746.26	46732.60
746.44	47101.23
746.63	47260.97
746.81	47013.17
747.00	46765.37
747.18	46826.81
747.37	47041.84
747.55	46464.32
747.74	47072.56
747.92	46581.05
748.11	46734.65
748.29	46640.44
748.48	46615.86
748.66	46607.67
748.85	46304.57
749.03	46234.94
749.22	46622.01
749.41	46396.73
749.59	46609.72
749.78	46171.46
749.96	45985.09
750.15	46290.24
750.33	46665.02
750.52	46081.34
750.70	46142.78
750.89	45966.66
751.07	45827.40
751.26	45974.85
751.44	45808.96
751.63	46153.02
751.81	45989.19
752.00	45665.61
752.18	46122.30
752.37	45720.90
752.55	45575.50
752.74	45329.74
752.92	45403.47
753.10	45774.15
753.29	45669.70
753.47	45305.16
753.66	45141.33
753.84	45438.28
754.03	45706.57
754.21	45307.21
754.40	45417.80
754.58	45962.56
754.77	45233.49
754.95	45241.68
755.14	45413.71
755.32	45290.83
755.51	44989.78
755.69	44787.03
755.88	44995.92
756.06	45561.16
756.24	45081.94
756.43	44731.73
756.61	44827.99
756.80	44916.05
756.98	44377.43
757.17	44797.27
757.35	44778.84
757.54	44701.01
757.72	44873.04
757.90	44660.05
758.09	44553.56
758.27	45135.18
758.46	44709.21
758.64	44445.02
758.83	44602.71
759.01	44610.90
759.19	44547.42
759.38	44580.18
759.56	44692.82
759.75	44348.76
759.93	44447.07
760.12	43894.11
760.30	44410.20
760.48	44272.99
760.67	43951.46
760.85	44082.53
761.04	44402.01
761.22	44428.63
761.40	44057.95
761.59	43926.88
761.77	43709.80
761.96	43771.24
762.14	44070.24
762.32	43668.84
762.51	43717.99
762.69	44275.04
762.88	43963.75
763.06	43605.35
763.24	44080.48
763.43	43828.58
763.61	43740.52
763.80	43593.06
763.98	43691.37
764.16	43648.36
764.35	43410.79
764.53	43255.15
764.72	43287.92
764.90	42902.90
765.08	43068.78
765.27	43496.81
765.45	43089.26
765.63	42792.31
765.82	43308.40
766.00	42894.71
766.18	43070.83
766.37	43449.70
766.55	42763.64
766.74	43265.39
766.92	42730.87
767.10	42835.31
767.29	42755.44
767.47	42532.22
767.65	42988.91
767.84	42431.86
768.02	42481.02
768.20	42161.53
768.39	42632.57
768.57	42661.24
768.75	42501.50
768.94	42579.32
769.12	42392.95
769.30	42063.23
769.49	41735.56
769.67	41950.59
769.85	41633.16
770.04	42007.94
770.22	42136.96
770.40	41516.42
770.59	41948.54
770.77	41874.82
770.95	41891.20
771.14	41309.58
771.32	41432.46
771.50	41524.61
771.69	41436.55
771.87	41770.37
772.05	41309.58
772.24	41409.93
772.42	41272.71
772.60	41332.11
772.78	41225.61
772.97	41057.68
773.15	41524.61
773.33	41121.16
773.52	41309.58
773.70	40947.09
773.88	41604.49
774.07	40942.99
774.25	41223.56
774.43	41506.18
774.61	41256.33
774.80	41506.18
774.98	41237.90
775.16	41219.47
775.34	41244.04
775.53	41463.18
775.71	41471.37
775.89	41162.12
776.08	41227.66
776.26	41096.59
776.44	41096.59
776.62	41330.06
776.81	40822.16
776.99	41809.28
777.17	41715.08
777.35	41741.70
777.54	41559.43
777.72	41153.93
777.90	40846.74
778.08	41719.17
778.27	41354.63
778.45	41735.56
778.63	41799.04
778.81	41229.71
779.00	42048.89
779.18	41471.37
779.36	41725.32
779.54	41862.53
779.73	41749.89
779.91	41932.16
780.09	41678.21
780.27	42028.41
780.46	41708.93
780.64	41584.01
780.82	42081.66
781.00	41823.62
781.19	41901.44
781.37	42139.00
781.55	42030.46
781.73	42106.24
781.91	41930.11
782.10	41762.18
782.28	42323.32
782.46	42139.00
782.64	42214.78
782.82	42139.00
783.01	42218.88
783.19	42374.52
783.37	42403.19
783.55	42270.08
783.74	42425.72
783.92	42218.88
784.10	42759.54
784.28	42071.42
784.46	42085.76
784.64	41874.82
784.83	42261.88
785.01	42241.40
785.19	42046.85
785.37	42280.31
785.55	41971.07
785.74	41627.01
785.92	41889.15
786.10	42349.95
786.28	41981.31
786.46	41932.16
786.64	41538.95
786.83	41846.15
787.01	41837.95
787.19	42018.17
787.37	42206.59
787.55	42241.40
787.74	41293.19
787.92	41897.34
788.10	41768.32
788.28	41086.35
788.46	41854.34
788.64	41164.17
788.82	41909.63
789.01	41534.85
789.19	41528.71
789.37	41342.35
789.55	41137.55
789.73	41110.92
789.91	41153.93
790.09	41215.37
790.28	41151.88
790.46	40768.91
790.64	41184.65
790.82	40994.19
791.00	40471.96
791.18	40713.62
791.36	40605.08
791.55	40703.38
791.73	40543.64
791.91	40168.86
792.09	40285.59
792.27	40377.75
792.45	40385.94
792.63	40105.37
792.81	39904.67
793.00	39994.78
793.18	39843.23
793.36	39779.74
793.54	39779.74
793.72	39587.24
793.90	39509.41
794.08	39415.21
794.26	39308.71
794.44	39302.57
794.62	39183.79
794.81	39511.46
794.99	39001.52
795.17	38991.28
795.35	39138.73
795.53	39191.98
795.71	38860.21
795.89	38780.34
796.07	38696.37
796.25	38129.08
796.43	38247.86
796.61	38239.67
796.80	38159.80
796.98	38378.93
797.16	38063.55
797.34	38051.26
797.52	37950.91
797.70	38387.13
797.88	38047.16
798.06	37694.91
798.24	37834.17
798.42	37762.50
798.60	37647.81
798.78	37400.01
798.96	37494.21
799.14	36959.69
799.32	37232.07
799.51	36943.31
799.69	37352.90
799.87	37205.45
800.05	36724.18
800.23	37035.47
800.41	36734.42
800.59	36877.77
800.77	36892.11
800.95	36529.62
801.13	36447.70
801.31	36562.39
801.49	36476.37
801.67	36257.24
801.85	36265.43
802.03	35849.69
802.21	36212.18
802.39	35943.90
802.57	36021.72
802.75	35861.98
802.93	35872.22
803.11	35390.95
803.29	35442.15
803.47	35503.59
803.65	35638.75
803.83	35390.95
804.01	35370.47
804.19	35001.83
804.37	34838.00
804.55	35284.45
804.73	34940.39
804.91	34858.48
805.09	35266.02
805.27	34940.39
805.45	34930.16
805.63	34731.50
805.81	34455.03
805.99	34747.89
806.17	34870.76
806.35	34586.10
806.53	34207.22
806.71	34434.55
806.89	34371.06
807.07	34012.66
807.25	34321.91
807.43	34108.92
807.61	34219.51
807.79	33752.57
807.97	33637.89
808.15	33668.61
808.33	33596.93
808.51	33836.54
808.69	33773.05
808.87	33340.93
809.05	33463.81
809.23	33508.86
809.41	33230.34
809.59	33027.59
809.77	33324.55
809.95	32810.51
810.13	33312.26
810.31	32828.94
810.49	32980.49
810.67	33017.35
810.84	32863.75
811.02	32853.51
811.20	32495.12
811.38	32585.23
811.56	32390.67
811.74	32519.70
811.92	32122.39
812.10	32441.87
812.28	32085.53
812.46	32486.93
812.64	32374.29
812.82	32177.68
813.00	32341.52
813.18	32237.08
813.36	32128.53
813.53	31802.91
813.71	31999.51
813.89	32013.85
814.07	31960.60
814.25	31886.87
814.43	31561.25
814.61	31464.99
814.79	31653.40
814.97	31170.08
815.15	31430.18
815.33	31073.83
815.50	30735.92
815.68	31135.27
815.86	31440.42
816.04	30883.37
816.22	31008.29
816.40	30912.04
816.58	30858.79
816.76	30537.26
816.94	31018.53
817.11	30586.41
817.29	30549.55
817.47	30529.07
817.65	30539.31
817.83	30950.95
818.01	30645.80
818.19	30500.40
818.37	30518.83
818.54	30494.25
818.72	29994.55
818.90	30430.77
819.08	30332.47
819.26	29883.96
819.44	29992.50
819.62	29990.45
819.80	30039.61
819.97	29957.69
820.15	29775.42
820.33	29320.77
820.51	29855.29
820.69	29851.19
820.87	29845.05
821.05	29843.00
821.22	29472.32
821.40	29492.80
821.58	29425.22
821.76	29333.06
821.94	29429.31
822.12	29730.36
822.29	29152.84
822.47	29279.81
822.65	29544.00
822.83	29113.92
823.01	29249.09
823.19	29199.94
823.36	28771.91
823.54	29204.03
823.72	28816.97
823.90	28771.91
824.08	28892.74
824.25	29048.39
824.43	28878.41
824.61	28712.52
824.79	28810.82
824.97	28683.85
825.15	28569.16
825.32	28677.71
825.50	28315.22
825.68	28378.70
825.86	28436.05
826.04	28696.14
826.21	28517.96
826.39	28513.87
826.57	28393.04
826.75	28180.05
826.93	28264.02
827.10	28044.88
827.28	28257.87
827.46	28112.47
827.64	28341.84
827.81	28051.03
827.99	28206.67
828.17	27858.52
828.35	27749.98
828.53	27606.62
828.70	27670.11
828.88	27958.87
829.06	27895.38
829.24	27827.80
829.41	27754.07
829.59	27643.48
829.77	27588.19
829.95	27401.82
830.12	27385.44
830.30	27811.42
830.48	27326.05
830.66	27401.82
830.84	27410.01
831.01	27295.33
831.19	27405.92
831.37	27371.10
831.55	27117.15
831.72	26746.47
831.90	27170.40
832.08	27162.21
832.25	27407.97
832.43	26977.89
832.61	26979.94
832.79	27123.30
832.96	26818.15
833.14	27084.39
833.32	26818.15
833.50	26891.88
833.67	26666.60
833.85	26906.21
834.03	26574.44
834.20	26869.35
834.38	27027.04
834.56	26730.09
834.74	26572.39
834.91	26267.25
835.09	26467.95
835.27	26023.54
835.44	26443.37
835.62	25943.67
835.80	26310.25
835.98	26322.54
836.15	26459.76
836.33	26105.46
836.51	26629.74
836.68	26117.75
836.86	26308.21
837.04	26302.06
837.21	26228.34
837.39	26177.14
837.57	26013.30
837.75	25968.24
837.92	25613.95
838.10	25722.49
838.28	25683.58
838.45	26144.37
838.63	25634.42
838.81	25800.31
838.98	25716.34
839.16	25583.23
839.34	25796.21
839.51	25230.98
839.69	25464.44
839.87	25331.33
840.04	25515.64
840.22	25482.88
840.40	25468.54
840.57	24856.20
840.75	25349.76
840.93	25028.23
841.10	25515.64
841.28	25360.00
841.46	25110.14
841.63	25183.87
841.81	25171.58
841.98	25069.19
842.16	25343.61
842.34	25124.48
842.51	24983.17
842.69	25038.47
842.87	25013.89
843.04	24997.51
843.22	24766.09
843.40	24962.69
843.57	24735.37
843.75	24878.72
843.92	24884.87
844.10	24809.09
844.28	24571.53
844.45	24766.09
844.63	25108.10
844.81	24739.46
844.98	24856.20
845.16	24708.74
845.33	24641.16
845.51	24520.33
845.69	24350.35
845.86	24583.82
846.04	24432.27
846.21	24465.03
846.39	24385.16
846.57	24225.42
846.74	24202.89
846.92	24264.33
847.09	24059.54
847.27	23873.17
847.45	24116.88
847.62	24495.75
847.80	24247.95
847.97	24131.22
848.15	24012.43
848.32	23936.66
848.50	23975.57
848.68	23568.02
848.85	23801.49
849.03	23590.55
849.20	23686.81
849.38	23840.40
849.56	23766.68
849.73	23402.14
849.91	23692.95
850.08	24037.01
850.26	23381.66
850.43	23582.36
850.61	23428.76
850.78	23457.43
850.96	23244.45
851.14	22949.54
851.31	23441.05
851.49	23164.57
851.66	23553.69
851.84	23094.94
852.01	23549.59
852.19	23410.33
852.36	22935.20
852.54	23242.40
852.71	23342.75
852.89	23051.94
853.07	23043.74
853.24	23133.86
853.42	23164.57
853.59	23279.26
853.77	23170.72
853.94	22890.15
854.12	23209.63
854.29	22951.59
854.47	22988.45
854.64	22972.07
854.82	22902.43
854.99	22967.97
855.17	23025.31
855.34	22701.73
855.52	22804.13
855.69	22812.32
855.87	22853.28
856.04	22769.32
856.22	22726.31
856.39	22460.07
856.57	22771.36
856.74	22425.26
856.92	22363.82
857.09	22507.18
857.27	22556.33
857.44	22826.66
857.62	22562.47
857.79	22404.78
857.97	22562.47
858.14	22396.59
858.32	22324.91
858.49	22257.32
858.67	22181.55
858.84	22312.62
859.02	22247.08
859.19	22234.80
859.37	21986.99
859.54	22103.73
859.72	22032.05
859.89	21984.94
860.06	22095.53
860.24	21931.70
860.41	22073.01
860.59	22007.47
860.76	22009.52
860.94	21769.91
861.11	21823.16
861.29	21841.59
861.46	21630.65
861.64	21368.51
861.81	21325.50
861.98	21589.69
862.16	21552.82
862.33	21601.97
862.51	21368.51
862.68	21685.94
862.86	21499.58
863.03	21475.00
863.21	21237.44
863.38	21378.75
863.55	21331.64
863.73	21413.56
863.90	21270.20
864.08	21182.14
864.25	21395.13
864.43	21176.00
864.60	21159.61
864.77	20940.48
864.95	21118.65
865.12	20973.25
865.30	21012.16
865.47	20840.13
865.64	20879.04
865.82	21225.15
865.99	21180.09
866.17	20862.66
866.34	21026.50
866.51	20682.44
866.69	20950.72
866.86	20999.87
867.04	20803.27
867.21	20846.27
867.38	20668.10
867.56	20651.72
867.73	20377.29
867.91	20545.22
868.08	20664.00
868.25	20434.63
868.43	20475.59
868.60	20195.02
868.78	20098.77
868.95	20473.54
869.12	20180.68
869.30	20305.61
869.47	20422.34
869.64	19867.34
869.82	20057.81
869.99	20174.54
870.16	20188.88
870.34	19986.13
870.51	20326.09
870.69	20207.31
870.86	20039.37
871.03	20168.40
871.21	19887.82
871.38	20094.67
871.55	19896.02
871.73	19576.53
871.90	19730.13
872.07	19820.24
872.25	19463.90
872.42	19547.86
872.59	19650.26
872.77	19799.76
872.94	19556.05
873.11	19564.25
873.29	19627.73
873.46	19334.87
873.63	19136.22
873.81	19302.11
873.98	19273.43
874.15	19459.80
874.33	19295.96
874.50	19246.81
874.67	19248.86
874.85	19183.32
875.02	18986.72
875.19	18831.07
875.37	18898.66
875.54	19177.18
875.71	18777.83
875.88	18853.60
876.06	18933.47
876.23	18544.36
876.40	18771.68
876.58	18661.09
876.75	18710.24
876.92	18677.48
877.10	18452.20
877.27	18599.65
877.44	18050.80
877.61	18456.29
877.79	18243.31
877.96	18280.17
878.13	18437.86
878.31	18095.85
878.48	18106.09
878.65	18046.70
878.82	17995.50
879.00	18267.88
879.17	18114.28
879.34	18319.08
879.51	18038.51
879.69	18110.19
879.86	17807.09
880.03	17866.48
880.21	17975.02
880.38	18204.39
880.55	18071.28
880.72	17874.67
880.90	17903.34
881.07	17680.11
881.24	17784.56
881.41	17790.70
881.59	17880.82
881.76	17614.58
881.93	17805.04
882.10	17268.47
882.28	17630.96
882.45	17622.77
882.62	17503.99
882.79	17307.38
882.96	17258.23
883.14	17592.05
883.31	17471.22
883.48	17499.89
883.65	17180.41
883.83	17485.56
884.00	17241.85
884.17	17200.89
884.34	17291.00
884.51	17336.06
884.69	17182.46
884.86	17198.84
885.03	17311.48
885.20	17116.92
885.38	17106.68
885.55	17174.27
885.72	17170.17
885.89	17078.01
886.06	17327.86
886.24	16938.75
886.41	16914.17
886.58	17305.34
886.75	17092.35
886.92	16736.00
887.10	16897.79
887.27	16932.61
887.44	16848.64
887.61	16865.02
887.78	16846.59
887.95	16957.18
888.13	16690.95
888.30	16760.58
888.47	16400.13
888.64	16813.82
888.81	16559.88
888.99	16797.44
889.16	16592.64
889.33	16410.37
889.50	16555.78
889.67	16467.72
889.84	16557.83
890.01	16572.16
890.19	16553.73
890.36	16512.77
890.53	16611.07
890.70	16121.61
890.87	16586.50
891.04	16137.99
891.22	16226.06
891.39	16135.95
891.56	16094.99
891.73	16033.55
891.90	16111.37
892.07	16074.51
892.24	16264.97
892.42	15935.24
892.59	16127.75
892.76	15920.91
892.93	15871.76
893.10	16078.60
893.27	16140.04
893.44	15820.56
893.61	16076.55
893.79	15875.85
893.96	15998.73
894.13	15699.73
894.30	15777.55
894.47	15871.76
894.64	16025.36
894.81	15789.84
894.98	15818.51
895.15	16070.41
895.33	15806.22
895.50	15517.46
895.67	15914.77
895.84	15828.75
896.01	15714.06
896.18	15685.39
896.35	15892.24
896.52	15695.63
896.69	15576.85
896.86	15558.42
897.04	15628.05
897.21	15503.12
897.38	15605.52
897.55	15630.10
897.72	15626.00
897.89	15474.45
898.06	15748.88
898.23	15423.25
898.40	15570.71
898.57	15752.98
898.74	15605.52
898.91	15398.68
899.08	15699.73
899.26	15525.65
899.43	15613.71
899.60	15531.80
899.77	15552.27
899.94	15701.78
900.11	15447.83
900.28	15736.59
900.45	15523.60
900.62	15517.46
900.79	15726.35
900.96	15431.44
901.13	15380.25
901.30	15437.59
901.47	15281.94
901.64	15619.86
901.81	15673.10
901.98	15501.08
902.15	15671.06
902.32	15337.24
902.49	15580.95
902.66	15595.28
902.83	15462.16
903.01	15423.25
903.18	15398.68
903.35	15681.30
903.52	15363.86
903.69	15384.34
903.86	15476.50
904.03	15421.20
904.20	15490.84
904.37	15771.41
904.54	15460.12
904.71	15329.05
904.88	15451.92
905.05	15363.86
905.22	15335.19
905.39	15384.34
905.56	15570.71
905.73	15300.37
905.90	15281.94
906.07	15392.53
906.24	15548.18
906.41	15396.63
906.58	15406.87
906.75	15404.82
906.92	15200.02
907.09	15351.57
907.26	15535.89
907.43	15222.55
907.60	15318.81
907.77	15714.06
907.93	15394.58
908.10	15345.43
908.27	15443.73
908.44	15363.86
908.61	15183.64
908.78	15220.50
908.95	15374.10
909.12	15490.84
909.29	15355.67
909.46	15290.13
909.63	15353.62
909.80	15314.71
909.97	15240.98
910.14	15206.17
910.31	15191.83
910.48	14993.18
910.65	15304.47
910.82	15054.62
910.99	15175.45
911.16	15281.94
911.33	15058.71
911.50	14972.70
911.66	15118.11
911.83	15261.46
912.00	14917.40
912.17	14944.03
912.34	15005.47
912.51	14941.98
912.68	14645.02
912.85	14735.14
913.02	15005.47
913.19	14921.50
913.36	14862.11
913.53	14923.55
913.70	14663.46
913.86	14759.71
914.03	14737.18
914.20	14825.25
914.37	14604.07
914.54	14632.74
914.71	14640.93
914.88	14405.41
915.05	14624.54
915.22	14575.39
915.39	14399.27
915.55	14612.26
915.72	14556.96
915.89	14493.47
916.06	14286.63
916.23	14243.62
916.40	14298.92
916.57	14176.04
916.74	14255.91
916.91	14139.18
917.07	14094.12
917.24	13950.76
917.41	14137.13
917.58	14049.07
917.75	14374.69
917.92	13801.26
918.09	13838.12
918.26	13780.78
918.42	13621.04
918.59	13739.82
918.76	13723.44
918.93	13502.26
919.10	13590.32
919.27	13512.50
919.44	13784.88
919.60	13840.17
919.77	13559.60
919.94	13363.00
920.11	13438.77
920.28	13588.27
920.45	13258.55
920.61	13291.32
920.78	13344.56
920.95	13147.96
921.12	13051.70
921.29	13094.71
921.46	13039.42
921.62	12904.25
921.79	13281.08
921.96	13041.46
922.13	13133.62
922.30	13061.94
922.47	13086.52
922.63	12590.91
922.80	12666.69
922.97	12719.93
923.14	12607.30
923.31	12615.49
923.47	12547.90
923.64	12760.89
923.81	12365.64
923.98	12574.53
924.15	12248.90
924.32	12369.73
924.48	12326.72
924.65	12418.88
924.82	12287.81
924.99	12240.71
925.15	12117.83
925.32	12328.77
925.49	11994.95
925.66	12195.65
925.83	12015.43
925.99	12087.11
926.16	12042.06
926.33	11904.84
926.50	11654.99
926.67	11716.43
926.83	11788.11
927.00	11581.26
927.17	11482.96
927.34	11616.08
927.50	11609.93
927.67	11532.11
927.84	11138.90
928.01	11282.26
928.17	11216.72
928.34	11243.35
928.51	11241.30
928.68	11089.75
928.84	11259.73
929.01	10860.38
929.18	10944.34
929.35	10872.67
929.51	10989.40
929.68	10745.69
929.85	10870.62
930.02	10725.21
930.18	10848.09
930.35	10925.91
930.52	10643.29
930.69	10598.24
930.85	10518.37
931.02	10532.70
931.19	10530.66
931.36	10547.04
931.52	10770.27
931.69	10628.96
931.86	10409.83
932.02	10362.72
932.19	10385.25
932.36	10164.07
932.53	10358.63
932.69	9973.61
932.86	10231.65
933.03	10182.50
933.19	9869.16
933.36	9877.35
933.53	10020.71
933.70	9891.69
933.86	9799.53
934.03	9686.89
934.20	9373.55
934.36	9760.62
934.53	9416.56
934.70	9377.65
934.86	9320.31
935.03	9365.36
935.20	9133.94
935.36	9334.64
935.53	9111.41
935.70	8980.34
935.86	9185.14
936.03	8755.07
936.20	8755.07
936.36	8750.97
936.53	8775.55
936.70	8664.96
936.86	8568.70
937.03	8439.68
937.20	8408.96
937.36	8537.98
937.53	8064.90
937.70	8290.18
937.86	7970.69
938.03	7948.17
938.20	8048.52
938.36	7708.55
938.53	7835.53
938.70	7589.77
938.86	7921.54
939.03	7446.41
939.20	7436.17
939.36	7468.94
939.53	7470.99
939.70	7495.57
939.86	6971.29
940.03	7036.82
940.19	7045.01
940.36	6885.27
940.53	6883.22
940.69	6700.95
940.86	6746.01
941.03	6610.84
941.19	6520.73
941.36	6533.02
941.52	6496.16
941.69	6317.98
941.86	6385.57
942.02	6360.99
942.19	6197.15
942.35	6172.58
942.52	6301.60
942.69	6098.85
942.85	5918.63
943.02	6010.79
943.18	5953.45
943.35	5869.48
943.52	5879.72
943.68	5681.07
943.85	5812.14
944.01	5703.59
944.18	5586.86
944.35	5709.74
944.51	5619.63
944.68	5621.67
944.84	5500.84
945.01	5509.04
945.17	5586.86
945.34	5525.42
945.51	5724.07
945.67	5429.17
945.84	5457.84
946.00	5484.46
946.17	5435.31
946.33	5466.03
946.50	5423.02
946.67	5400.49
946.83	5304.24
947.00	5492.65
947.16	5373.87
947.33	5453.74
947.49	5330.86
947.66	5275.57
947.82	5443.50
947.99	5261.23
948.16	5259.18
948.32	5361.58
948.49	5371.82
948.65	5357.49
948.82	5359.53
948.98	5353.39
949.15	5363.63
949.31	5511.08
949.48	5373.87
949.64	5402.54
949.81	5418.93
949.97	5322.67
950.14	5431.21
950.30	5345.20
950.47	5380.01
950.63	5296.05
950.80	5412.78
950.96	5437.36
951.13	5529.52
951.30	5490.60
951.46	5308.34
951.63	5441.45
951.79	5590.95
951.96	5414.83
952.12	5365.68
952.29	5386.16
952.45	5429.17
952.62	5515.18
952.78	5398.45
952.94	5490.60
953.11	5207.98
953.27	5218.22
953.44	5552.04
953.60	5574.57
953.77	5496.75
953.93	5310.38
954.10	5492.65
954.26	5511.08
954.43	5550.00
954.59	5554.09
954.76	5593.00
954.92	5529.52
955.09	5490.60
955.25	5355.44
955.42	5517.23
955.58	5593.00
955.75	5560.24
955.91	5406.64
956.07	5550.00
956.24	5601.19
956.40	5633.96
956.57	5666.73
956.73	5611.43
956.90	5607.34
957.06	5593.00
957.23	5457.84
957.39	5535.66
957.56	5513.13
957.72	5441.45
957.88	5439.40
958.05	5719.98
958.21	5586.86
958.38	5539.76
958.54	5582.76
958.71	5658.54
958.87	5545.90
959.03	5472.17
959.20	5541.80
959.36	5541.80
959.53	5398.45
959.69	5406.64
959.85	5545.90
960.02	5398.45
960.18	5451.69
960.35	5502.89
960.51	5601.19
960.68	5263.28
960.84	5642.15
961.00	5531.56
961.17	5377.97
961.33	5490.60
961.50	5541.80
961.66	5539.76
961.82	5431.21
961.99	5484.46
962.15	5435.31
962.31	5474.22
962.48	5418.93
962.64	5517.23
962.81	5468.08
962.97	5455.79
963.13	5521.32
963.30	5523.37
963.46	5502.89
963.62	5459.88
963.79	5597.10
963.95	5353.39
964.12	5349.29
964.28	5423.02
964.44	5369.77
964.61	5595.05
964.77	5494.70
964.93	5590.95
965.10	5408.69
965.26	5463.98
965.42	5410.73
965.59	5517.23
965.75	5449.64
965.92	5349.29
966.08	5453.74
966.24	5367.73
966.41	5255.09
966.57	5445.55
966.73	5365.68
966.90	5597.10
967.06	5406.64
967.22	5199.79
967.39	5296.05
967.55	5316.53
967.71	5367.73
967.88	5390.25
968.04	5240.75
968.20	5132.21
968.37	5320.62
968.53	5199.79
968.69	5402.54
968.85	5148.59
969.02	5212.08
969.18	5179.31
969.34	5207.98
969.51	5195.70
969.67	5214.13
969.83	5169.07
970.00	5283.76
970.16	5156.79
970.32	5056.43
970.48	5156.79
970.65	5119.92
970.81	4980.66
970.97	5173.17
971.14	5025.72
971.30	5169.07
971.46	4939.70
971.63	4943.80
971.79	5099.44
971.95	5060.53
972.11	4951.99
972.28	5027.76
972.44	4984.76
972.60	5019.57
972.76	5046.20
972.93	5038.00
973.09	5164.98
973.25	5017.52
973.42	4964.28
973.58	4988.85
973.74	4951.99
973.90	4964.28
974.07	4904.89
974.23	4960.18
974.39	4992.95
974.55	4878.26
974.72	4839.35
974.88	4739.00
975.04	5087.15
975.20	4691.90
975.37	4960.18
975.53	4927.41
975.69	4818.87
975.85	4745.14
976.01	4792.25
976.18	4761.53
976.34	4747.19
976.50	4704.18
976.66	4818.87
976.83	4790.20
976.99	4769.72
977.15	4775.86
977.31	4526.01
977.47	4669.37
977.64	4698.04
977.80	4741.05
977.96	4704.18
978.12	4595.64
978.29	4583.35
978.45	4685.75
978.61	4573.11
978.77	4720.57
978.93	4444.09
979.10	4652.98
979.26	4665.27
979.42	4583.35
979.58	4448.19
979.74	4499.39
979.91	4607.93
980.07	4356.03
980.23	4571.07
980.39	4593.59
980.55	4495.29
980.71	4452.28
980.88	4483.00
981.04	4417.47
981.20	4523.96
981.36	4538.30
981.52	4440.00
981.68	4468.67
981.85	4519.87
982.01	4392.89
982.17	4272.06
982.33	4339.65
982.49	4448.19
982.65	4235.20
982.82	4329.41
982.98	4257.73
983.14	4253.63
983.30	4364.22
983.46	4411.32
983.62	4261.82
983.79	4331.45
983.95	4304.83
984.11	4140.99
984.27	4339.65
984.43	4310.97
984.59	4284.35
984.75	4351.93
984.91	4173.76
985.08	4298.69
985.24	4077.51
985.40	4218.82
985.56	4263.87
985.72	4083.65
985.88	4122.56
986.04	4177.86
986.20	4112.32
986.37	4239.30
986.53	4140.99
986.69	4190.14
986.85	3983.30
987.01	3993.54
987.17	3999.68
987.33	3973.06
987.49	3932.10
987.65	3928.00
987.82	4048.83
987.98	4026.31
988.14	4081.60
988.30	3995.59
988.46	3948.48
988.62	3968.96
988.78	3932.10
988.94	3993.54
989.10	3889.09
989.26	3899.33
989.42	3897.28
989.59	3749.83
989.75	3860.42
989.91	3893.19
990.07	3751.88
990.23	3796.93
990.39	3850.18
990.55	3887.04
990.71	3825.61
990.87	3866.56
991.03	3899.33
991.19	3733.45
991.35	3807.17
991.51	3801.03
991.67	3862.47
991.83	3735.50
992.00	3776.45
992.16	3747.78
992.32	3772.36
992.48	3782.60
992.64	3690.44
992.80	3778.50
992.96	3786.69
993.12	3715.02
993.28	3694.54
993.44	3747.78
993.60	3698.63
993.76	3629.00
993.92	3616.71
994.08	3641.29
994.24	3614.66
994.40	3631.05
994.56	3624.90
994.72	3565.51
994.88	3555.27
995.04	3585.99
995.20	3528.65
995.36	3522.51
995.52	3620.81
995.68	3542.99
995.84	3438.54
996.00	3676.10
996.16	3516.36
996.32	3375.05
996.48	3448.78
996.64	3475.40
996.80	3528.65
996.96	3540.94
997.12	3514.31
997.28	3383.24
997.44	3368.91
997.60	3528.65
997.76	3516.36
997.92	3403.72
998.08	3452.88
998.24	3479.50
998.40	3479.50
998.56	3430.35
998.72	3366.86
998.88	3342.28
999.04	3381.20
999.20	3518.41
999.36	3366.86
999.52	3407.82
999.68	3325.90
999.84	3416.01
1000.00	3264.46
1000.16	3420.11
1000.32	3299.28
1000.48	3428.30
1000.64	3114.96
1000.80	3266.51
1000.95	3231.69
1001.11	3260.37
1001.27	3213.26
1001.43	3243.98
1001.59	3149.78
1001.75	3151.82
1001.91	3250.13
1002.07	3018.71
1002.23	3137.49
1002.39	3129.30
1002.55	3211.22
1002.71	3145.68
1002.87	3178.45
1003.03	3080.14
1003.19	3157.97
1003.34	3162.06
1003.50	3094.48
1003.66	3135.44
1003.82	3088.34
1003.98	3086.29
1004.14	3084.24
1004.30	3055.57
1004.46	3055.57
1004.62	3018.71
1004.78	3084.24
1004.94	3063.76
1005.09	3065.81
1005.25	3117.01
1005.41	3090.38
1005.57	3016.66
1005.73	2924.50
1005.89	3059.67
1006.05	3078.10
1006.21	3026.90
1006.37	2940.88
1006.52	2983.89
1006.68	2893.78
1006.84	2971.60
1007.00	2967.51
1007.16	2926.55
1007.32	2811.86
1007.48	2971.60
1007.64	2977.75
1007.79	2901.97
1007.95	2910.16
1008.11	2830.29
1008.27	2826.20
1008.43	2912.21
1008.59	2811.86
1008.75	2930.64
1008.91	2772.95
1009.06	2795.48
1009.22	2871.25
1009.38	2797.53
1009.54	2918.36
1009.70	2797.53
1009.86	2830.29
1010.01	2754.52
1010.17	2699.22
1010.33	2834.39
1010.49	2826.20
1010.65	2803.67
1010.81	2731.99
1010.96	2760.66
1011.12	2703.32
1011.28	2697.17
1011.44	2695.13
1011.60	2748.37
1011.76	2738.13
1011.91	2783.19
1012.07	2723.80
1012.23	2703.32
1012.39	2574.30
1012.55	2686.94
1012.71	2613.21
1012.86	2670.55
1013.02	2686.94
1013.18	2670.55
1013.34	2621.40
1013.50	2643.93
1013.65	2596.82
1013.81	2588.63
1013.97	2553.82
1014.13	2590.68
1014.29	2631.64
1014.44	2678.74
1014.60	2670.55
1014.76	2639.83
1014.92	2572.25
1015.07	2572.25
1015.23	2711.51
1015.39	2631.64
1015.55	2564.06
1015.71	2494.43
1015.86	2541.53
1016.02	2463.71
1016.18	2500.57
1016.34	2562.01
1016.49	2535.39
1016.65	2492.38
1016.81	2525.15
1016.97	2414.56
1017.12	2519.00
1017.28	2437.08
1017.44	2414.56
1017.60	2342.88
1017.75	2484.19
1017.91	2475.99
1018.07	2480.09
1018.23	2439.13
1018.38	2387.93
1018.54	2492.38
1018.70	2508.76
1018.86	2381.79
1019.01	2441.18
1019.17	2394.08
1019.33	2473.95
1019.49	2461.66
1019.64	2459.61
1019.80	2396.12
1019.96	2447.32
1020.12	2422.75
1020.27	2322.40
1020.43	2432.99
1020.59	2428.89
1020.74	2375.64
1020.90	2381.79
1021.06	2355.16
1021.22	2334.68
1021.37	2443.23
1021.53	2336.73
1021.69	2428.89
1021.84	2248.67
1022.00	2357.21
1022.16	2269.15
1022.31	2342.88
1022.47	2330.59
1022.63	2437.08
1022.79	2113.50
1022.94	2211.81
1023.10	2285.53
1023.26	2193.37
1023.41	2230.24
1023.57	2310.11
1023.73	2228.19
1023.88	2275.29
1024.04	2240.48
1024.20	2338.78
1024.35	2312.16
1024.51	2340.83
1024.67	2285.53
1024.82	2379.74
1024.98	2142.18
1025.14	2232.29
1025.29	2230.24
1025.45	2275.29
1025.61	2160.61
1025.76	2172.89
1025.92	2244.57
1026.08	2195.42
1026.23	2269.15
1026.39	2252.77
1026.55	2213.85
1026.70	2129.89
1026.86	2197.47
1027.02	2246.62
1027.17	2203.61
1027.33	2242.53
1027.48	2093.02
1027.64	2164.70
1027.80	2228.19
1027.95	2205.66
1028.11	2105.31
1028.27	2197.47
1028.42	2160.61
1028.58	2119.65
1028.73	2097.12
1028.89	2068.45
1029.05	2170.85
1029.20	2256.86
>>>>>End Processed Spectral Data<<<<<
