SpectraSuite Data File
++++++++++++++++++++++++++++++++++++
Date: Fri Jun 02 14:51:12 CEST 2017
User: INFO_000
Dark Spectrum Present: No
Reference Spectrum Present: No
Number of Sampled Component Spectra: 1
Spectrometers: USB4H00879
Integration Time (usec): 80000 (USB4H00879)
Spectra Averaged: 1 (USB4H00879)
Boxcar Smoothing: 0 (USB4H00879)
Correct for Electrical Dark: No (USB4H00879)
Strobe/Lamp Enabled: No (USB4H00879)
Correct for Detector Non-linearity: No (USB4H00879)
Correct for Stray Light: No (USB4H00879)
Number of Pixels in Processed Spectrum: 3648
>>>>>Begin Processed Spectral Data<<<<<
345.13	1232.88
345.34	1232.88
345.56	1232.88
345.78	1269.74
345.99	1304.56
346.21	1718.25
346.42	1646.57
346.64	1673.19
346.86	1785.83
347.07	1628.14
347.29	1656.81
347.50	1556.46
347.72	1611.75
347.94	1705.96
348.15	1599.46
348.37	1568.74
348.59	1738.73
348.80	1732.58
349.02	1755.11
349.23	1875.94
349.45	1843.17
349.67	1920.99
349.88	1794.02
350.10	1955.81
350.31	1834.98
350.53	1722.34
350.75	1964.00
350.96	1732.58
351.18	1908.71
351.39	1863.65
351.61	1734.63
351.82	1871.84
352.04	1912.80
352.26	1818.60
352.47	1910.75
352.69	1968.10
352.90	1771.49
353.12	1794.02
353.34	1847.27
353.55	1982.43
353.77	1822.69
353.98	1820.64
354.20	1781.73
354.41	1953.76
354.63	1968.10
354.85	2027.49
355.06	1945.57
355.28	1810.40
355.49	1843.17
355.71	1904.61
355.92	1918.95
356.14	1988.58
356.35	1822.69
356.57	1863.65
356.79	2004.96
357.00	1888.23
357.22	1959.91
357.43	1888.23
357.65	1914.85
357.86	1843.17
358.08	1877.99
358.29	1982.43
358.51	2052.06
358.72	1982.43
358.94	2007.01
359.16	1916.90
359.37	1978.34
359.59	1900.52
359.80	1994.72
360.02	1970.15
360.23	1929.19
360.45	2025.44
360.66	1863.65
360.88	1826.79
361.09	1927.14
361.31	1982.43
361.52	1982.43
361.74	1994.72
361.95	2068.45
362.17	1908.71
362.38	2099.17
362.60	2050.02
362.81	1974.24
363.03	1945.57
363.24	1945.57
363.46	2035.68
363.67	2011.11
363.89	1959.91
364.10	1935.33
364.32	2011.11
364.53	2033.63
364.75	1929.19
364.96	1988.58
365.18	2009.06
365.39	2021.35
365.61	1933.28
365.82	2095.07
366.04	2007.01
366.25	2011.11
366.47	2060.26
366.68	2095.07
366.90	1974.24
367.11	2111.46
367.33	2066.40
367.54	2117.60
367.76	2009.06
367.97	2138.08
368.19	2058.21
368.40	2021.35
368.62	2007.01
368.83	1968.10
369.05	2086.88
369.26	2013.15
369.48	1933.28
369.69	1964.00
369.91	2029.54
370.12	2056.16
370.33	2109.41
370.55	2031.58
370.76	2076.64
370.98	2054.11
371.19	2097.12
371.41	1980.39
371.62	2037.73
371.84	2013.15
372.05	2224.09
372.27	2084.83
372.48	2090.98
372.69	2070.50
372.91	2201.57
373.12	2156.51
373.34	2111.46
373.55	2123.74
373.77	2107.36
373.98	2078.69
374.20	2240.48
374.41	2226.14
374.62	2179.04
374.84	2199.52
375.05	2115.55
375.27	2174.94
375.48	2189.28
375.70	2158.56
375.91	2281.44
376.12	2232.29
376.34	2072.54
376.55	2142.18
376.77	2246.62
376.98	2115.55
377.19	2220.00
377.41	2121.70
377.62	2220.00
377.84	2207.71
378.05	2346.97
378.27	2158.56
378.48	2314.20
378.69	2412.51
378.91	2295.77
379.12	2209.76
379.34	2232.29
379.55	2263.01
379.76	2230.24
379.98	2258.91
380.19	2228.19
380.41	2287.58
380.62	2303.96
380.83	2246.62
381.05	2154.46
381.26	2346.97
381.47	2277.34
381.69	2285.53
381.90	2404.32
382.12	2295.77
382.33	2222.05
382.54	2385.88
382.76	2320.35
382.97	2416.60
383.19	2234.33
383.40	2369.50
383.61	2326.49
383.83	2199.52
384.04	2267.10
384.25	2404.32
384.47	2277.34
384.68	2295.77
384.89	2404.32
385.11	2310.11
385.32	2271.20
385.54	2367.45
385.75	2428.89
385.96	2346.97
386.18	2428.89
386.39	2385.88
386.60	2404.32
386.82	2387.93
387.03	2353.12
387.24	2475.99
387.46	2422.75
387.67	2418.65
387.88	2539.48
388.10	2521.05
388.31	2480.09
388.52	2510.81
388.74	2488.28
388.95	2494.43
389.16	2455.51
389.38	2484.19
389.59	2625.50
389.80	2590.68
390.02	2543.58
390.23	2674.65
390.44	2435.03
390.66	2527.19
390.87	2443.23
391.08	2578.39
391.30	2731.99
391.51	2672.60
391.72	2639.83
391.94	2633.69
392.15	2543.58
392.36	2559.96
392.58	2527.19
392.79	2652.12
393.00	2674.65
393.22	2645.98
393.43	2736.09
393.64	2760.66
393.85	2791.38
394.07	2652.12
394.28	2738.13
394.49	2764.76
394.71	2754.52
394.92	2873.30
395.13	2684.89
395.35	2721.75
395.56	2738.13
395.77	2742.23
395.98	2805.72
396.20	2848.72
396.41	2879.44
396.62	2887.64
396.84	2901.97
397.05	2826.20
397.26	2908.12
397.47	2967.51
397.69	2787.29
397.90	2963.41
398.11	2891.73
398.32	2885.59
398.54	2842.58
398.75	2848.72
398.96	2912.21
399.18	3149.78
399.39	2924.50
399.60	2949.08
399.81	2899.92
400.03	2885.59
400.24	3188.69
400.45	2957.27
400.66	3084.24
400.88	3035.09
401.09	3076.05
401.30	3129.30
401.51	3100.62
401.73	3092.43
401.94	3117.01
402.15	3035.09
402.36	3092.43
402.58	3225.55
402.79	3164.11
403.00	3194.83
403.21	3100.62
403.43	3155.92
403.64	3264.46
403.85	3151.82
404.06	3272.65
404.27	3100.62
404.49	3274.70
404.70	3000.27
404.91	3297.23
405.12	3151.82
405.34	3323.85
405.55	3344.33
405.76	3123.15
405.97	3270.61
406.19	3309.52
406.40	3176.40
406.61	3264.46
406.82	3289.04
407.03	3352.52
407.25	3280.85
407.46	3491.79
407.67	3338.19
407.88	3489.74
408.09	3389.39
408.31	3297.23
408.52	3473.36
408.73	3432.40
408.94	3362.76
409.15	3327.95
409.37	3456.97
409.58	3416.01
409.79	3446.73
410.00	3461.07
410.21	3436.49
410.43	3465.16
410.64	3399.63
410.85	3452.88
411.06	3463.12
411.27	3596.23
411.48	3573.71
411.70	3424.20
411.91	3530.70
412.12	3639.24
412.33	3479.50
412.54	3618.76
412.76	3571.66
412.97	3592.14
413.18	3512.27
413.39	3575.75
413.60	3508.17
413.81	3588.04
414.03	3596.23
414.24	3622.86
414.45	3788.74
414.66	3545.03
414.87	3731.40
415.08	3655.62
415.30	3669.96
415.51	3833.80
415.72	3674.06
415.93	3723.21
416.14	3573.71
416.35	3807.17
416.56	3803.08
416.78	3841.99
416.99	3825.61
417.20	3696.58
417.41	3852.23
417.62	3891.14
417.83	3899.33
418.04	3766.21
418.26	3909.57
418.47	3876.80
418.68	3909.57
418.89	3993.54
419.10	4091.84
419.31	3960.77
419.52	4112.32
419.73	4024.26
419.95	3917.76
420.16	3870.66
420.37	3934.15
420.58	3989.44
420.79	3907.52
421.00	4112.32
421.21	4093.89
421.42	3964.87
421.63	4093.89
421.85	4155.33
422.06	4163.52
422.27	4153.28
422.48	4184.00
422.69	4194.24
422.90	4136.90
423.11	4241.34
423.32	4151.23
423.53	4358.08
423.75	4243.39
423.96	4532.15
424.17	4270.01
424.38	4382.65
424.59	4392.89
424.80	4566.97
425.01	4196.29
425.22	4401.08
425.43	4343.74
425.64	4652.98
425.85	4620.22
426.06	4548.54
426.28	4497.34
426.49	4534.20
426.70	4536.25
426.91	4540.35
427.12	4585.40
427.33	4657.08
427.54	4491.20
427.75	4693.94
427.96	4677.56
428.17	4739.00
428.38	4757.43
428.59	4847.54
428.80	4675.51
429.01	4630.46
429.23	4851.64
429.44	4927.41
429.65	4880.31
429.86	4886.45
430.07	4818.87
430.28	4900.79
430.49	4970.42
430.70	5013.43
430.91	5109.68
431.12	4935.60
431.33	5029.81
431.54	5124.02
431.75	5056.43
431.96	5007.28
432.17	5013.43
432.38	5021.62
432.59	5281.71
432.80	5441.45
433.01	5306.29
433.22	5400.49
433.43	5234.61
433.64	5224.37
433.85	5179.31
434.06	5402.54
434.27	5314.48
434.49	5341.10
434.70	5517.23
434.91	5455.79
435.12	5461.93
435.33	5457.84
435.54	5515.18
435.75	5226.42
435.96	5304.24
436.17	5361.58
436.38	5506.99
436.59	5523.37
436.80	5470.12
437.01	5717.93
437.22	5758.89
437.43	5627.82
437.64	5429.17
437.85	5564.33
438.06	5656.49
438.27	5621.67
438.48	5566.38
438.69	5887.91
438.90	5781.42
439.11	5550.00
439.32	5805.99
439.53	5740.46
439.74	5746.60
439.95	5992.36
440.16	5816.23
440.37	5810.09
440.57	5621.67
440.78	5971.88
440.99	6021.03
441.20	5863.33
441.41	5855.14
441.62	6053.80
441.83	5889.96
442.04	6066.08
442.25	6031.27
442.46	5961.64
442.67	6070.18
442.88	6363.04
443.09	5894.05
443.30	6064.04
443.51	5984.16
443.72	6414.24
443.93	6121.38
444.14	6277.02
444.35	6270.88
444.56	6231.97
444.77	6238.11
444.98	6301.60
445.19	6317.98
445.40	6342.56
445.61	6188.96
445.81	6412.19
446.02	6287.26
446.23	6344.61
446.44	6330.27
446.65	6360.99
446.86	6426.53
447.07	6469.53
447.28	6635.42
447.49	6659.99
447.70	6485.92
447.91	6504.35
448.12	6700.95
448.33	6670.23
448.54	6612.89
448.74	6522.78
448.95	6598.56
449.16	6567.84
449.37	7053.20
449.58	6664.09
449.79	6959.00
450.00	6578.08
450.21	6903.70
450.42	7026.58
450.63	6909.85
450.84	6819.74
451.05	6967.19
451.25	7049.11
451.46	6975.38
451.67	7038.87
451.88	7100.31
452.09	7143.32
452.30	7184.27
452.51	7143.32
452.72	7139.22
452.93	7368.59
453.13	7196.56
453.34	7102.36
453.55	7278.48
453.76	7278.48
453.97	7643.02
454.18	7327.63
454.39	7499.66
454.60	7171.99
454.81	7419.79
455.01	7528.33
455.22	7239.57
455.43	7454.61
455.64	7702.41
455.85	7901.06
456.06	7872.39
456.27	7784.33
456.48	7657.36
456.68	7798.66
456.89	7864.20
457.10	7946.12
457.31	7841.67
457.52	7726.99
457.73	7970.69
457.94	8109.96
458.14	7839.62
458.35	8392.58
458.56	8077.19
458.77	7933.83
458.98	8161.16
459.19	8253.31
459.39	8341.38
459.60	8341.38
459.81	8259.46
460.02	8472.45
460.23	8370.05
460.44	8343.42
460.65	8507.26
460.85	8650.62
461.06	8787.83
461.27	8468.35
461.48	8734.59
461.69	8949.62
461.89	8558.46
462.10	8654.72
462.31	8544.13
462.52	8748.92
462.73	8900.47
462.94	9172.85
463.14	8980.34
463.35	9095.03
463.56	9400.18
463.77	9361.27
463.98	9033.59
464.18	9176.95
464.39	9432.94
464.60	9426.80
464.81	9437.04
465.02	9379.70
465.23	9807.72
465.43	9525.10
465.64	9703.28
465.85	9670.51
466.06	9512.81
466.27	9938.79
466.47	9865.07
466.68	9928.55
466.89	9893.74
467.10	10076.01
467.30	9998.18
467.51	10088.29
467.72	10426.21
467.93	10155.88
468.14	10227.56
468.34	10360.67
468.55	10436.45
468.76	10428.26
468.97	10250.08
469.17	10565.47
469.38	10643.29
469.59	10837.85
469.80	10655.58
470.01	10669.92
470.21	10805.08
470.42	10999.64
470.63	11124.57
470.84	11013.98
471.04	10923.87
471.25	11378.51
471.46	11079.51
471.67	11437.91
471.87	11345.75
472.08	11423.57
472.29	11667.28
472.50	11261.78
472.70	11698.00
472.91	11464.53
473.12	11906.89
473.33	11765.58
473.53	12029.77
473.74	11837.26
473.95	12101.45
474.16	12341.06
474.36	12377.92
474.57	12463.94
474.78	12457.79
474.99	12468.03
475.19	12425.03
475.40	12650.30
475.61	12660.54
475.81	12963.64
476.02	12941.11
476.23	12934.97
476.44	13295.41
476.64	13618.99
476.85	13416.24
477.06	13313.84
477.27	13672.24
477.47	13655.86
477.68	13633.33
477.89	13614.90
478.09	13737.77
478.30	13864.75
478.51	13877.04
478.71	14059.31
478.92	14210.86
479.13	14196.52
479.34	14337.83
479.54	14173.99
479.75	14456.61
479.96	14546.72
480.16	14661.41
480.37	14851.87
480.58	14827.29
480.78	15177.50
480.99	14980.89
481.20	15255.32
481.41	15283.99
481.61	15587.09
481.82	15562.51
482.03	15494.93
482.23	15372.05
482.44	15789.84
482.65	15947.53
482.85	15896.33
483.06	16150.28
483.27	15910.67
483.47	16056.08
483.68	15914.77
483.89	16324.36
484.09	16205.58
484.30	16518.92
484.51	16680.71
484.71	16727.81
484.92	16742.14
485.13	16731.90
485.33	16787.20
485.54	16965.37
485.75	17180.41
485.95	17133.31
486.16	17143.55
486.37	17301.24
486.57	17497.84
486.78	17069.82
486.98	17643.25
487.19	17794.80
487.40	17893.10
487.60	17809.14
487.81	18126.57
488.02	18138.86
488.22	18200.30
488.43	18384.62
488.64	18284.26
488.84	18534.12
489.05	18804.45
489.25	18398.95
489.46	18886.37
489.67	18636.52
489.87	18999.01
490.08	18878.18
490.29	18898.66
490.49	19597.01
490.70	19252.95
490.90	19207.90
491.11	19300.06
491.32	19478.23
491.52	19437.27
491.73	19603.16
491.94	19676.88
492.14	19721.94
492.35	20080.33
492.55	20049.61
492.76	19998.41
492.97	20244.17
493.17	20369.10
493.38	20399.82
493.58	20565.70
493.79	20477.64
494.00	20534.98
494.20	20596.42
494.41	20797.12
494.61	21188.28
494.82	21040.83
495.02	20926.14
495.23	21112.51
495.44	21167.80
495.64	21249.72
495.85	21460.66
496.05	21583.54
496.26	21241.53
496.47	21640.89
496.67	21382.84
496.88	21958.32
497.08	21534.39
497.29	21749.43
497.49	21929.65
497.70	22101.68
497.91	22056.62
498.11	22150.83
498.32	22111.92
498.52	22572.71
498.73	22666.92
498.93	22390.44
499.14	22662.82
499.34	22718.12
499.55	23047.84
499.76	22615.72
499.96	22916.77
500.17	22611.62
500.37	22789.80
500.58	23336.60
500.78	23295.64
500.99	23180.96
501.19	23520.92
501.40	23510.68
501.60	23295.64
501.81	23522.97
502.02	23670.42
502.22	23471.77
502.43	23680.66
502.63	24061.58
502.84	23973.52
503.04	23895.70
503.25	24166.03
503.45	23850.64
503.66	24190.61
503.86	24250.00
504.07	24479.37
504.27	24399.50
504.48	24462.99
504.68	24471.18
504.89	24686.22
505.09	24942.21
505.30	24626.82
505.50	24714.89
505.71	24729.22
505.91	25073.28
506.12	24872.58
506.32	25060.99
506.53	25185.92
506.73	24878.72
506.94	25409.15
507.14	25468.54
507.35	25038.47
507.55	25550.46
507.76	25460.35
507.96	25439.87
508.17	25661.05
508.37	25527.93
508.58	25953.91
508.78	25990.77
508.99	25589.37
509.19	25941.62
509.40	25894.52
509.60	26138.23
509.81	26179.18
510.01	25945.72
510.22	25871.99
510.42	26269.30
510.63	26484.33
510.83	26080.88
511.04	26394.22
511.24	26472.04
511.44	26078.83
511.65	26306.16
511.85	26453.61
512.06	26725.99
512.26	26773.10
512.47	26928.74
512.67	26891.88
512.88	27049.57
513.08	26707.56
513.29	26895.97
513.49	27199.07
513.69	26822.25
513.90	27070.05
514.10	27160.16
514.31	27237.98
514.51	27326.05
514.72	27315.81
514.92	27158.11
515.13	27276.90
515.33	27520.60
515.53	27444.83
515.74	27444.83
515.94	27739.74
516.15	27623.00
516.35	27879.00
516.56	27739.74
516.76	27371.10
516.96	27938.39
517.17	27973.21
517.37	28343.89
517.58	27965.01
517.78	28200.53
517.99	28382.80
518.19	28626.51
518.39	28362.32
518.60	28325.46
518.80	28339.79
519.01	28765.77
519.21	28362.32
519.41	28501.58
519.62	28577.36
519.82	28819.02
520.03	28935.75
520.23	29122.12
520.43	29128.26
520.64	29349.44
520.84	29468.22
521.05	29273.67
521.25	29466.17
521.45	29412.93
521.66	29398.59
521.86	29595.20
522.07	29470.27
522.27	29625.92
522.47	29527.61
522.68	29990.45
522.88	29906.49
523.08	30195.25
523.29	30021.17
523.49	29832.76
523.70	30193.20
523.90	30127.67
524.10	30375.47
524.31	30434.86
524.51	30180.92
524.71	30903.85
524.92	30649.90
525.12	30924.33
525.33	30983.72
525.53	30819.88
525.73	31247.91
525.94	30864.94
526.14	30953.00
526.34	30836.27
526.55	31157.80
526.75	31411.74
526.95	31764.00
527.16	31243.81
527.36	31344.16
527.56	31575.58
527.77	31884.83
527.97	31800.86
528.17	31976.98
528.38	32106.01
528.58	32063.00
528.78	32411.15
528.99	32101.91
529.19	32609.81
529.39	31968.79
529.60	32638.48
529.80	32562.70
530.00	32136.73
530.21	32632.33
530.41	32992.78
530.61	32790.03
530.82	32994.82
531.02	32785.93
531.22	32857.61
531.43	33209.86
531.63	33451.52
531.83	33654.27
532.04	33920.51
532.24	33508.86
532.44	33961.47
532.64	33617.41
532.85	34033.14
533.05	34172.41
533.25	34145.78
533.46	33990.14
533.66	34543.09
533.86	34213.37
534.07	35026.41
534.27	34491.89
534.47	34764.27
534.67	34530.80
534.88	34733.55
535.08	35087.85
535.28	35182.06
535.49	34956.78
535.69	35526.11
535.89	35368.42
536.09	35476.96
536.30	35304.93
536.50	35825.12
536.70	35894.75
536.91	35562.98
537.11	35923.42
537.31	36068.83
537.51	35921.37
537.72	36593.11
537.92	36638.16
538.12	36558.29
538.32	36427.22
538.53	36535.76
538.73	36468.18
538.93	36472.28
539.13	36357.59
539.34	36597.20
539.54	36959.69
539.74	37023.18
539.94	37060.04
540.15	36777.42
540.35	37117.39
540.55	37098.95
540.75	37457.35
540.96	37582.27
541.16	37322.18
541.36	37383.62
541.56	37774.78
541.77	37977.53
541.97	37821.89
542.17	37959.10
542.37	37959.10
542.58	37866.94
542.78	38133.18
542.98	37694.91
543.18	37729.73
543.38	38518.20
543.59	38266.30
543.79	37887.42
543.99	38415.80
544.19	38454.71
544.40	38284.73
544.60	38911.41
544.80	38659.51
545.00	38935.98
545.20	38858.16
545.41	38755.76
545.61	39169.45
545.81	39126.44
546.01	39058.86
546.21	39085.48
546.42	38725.04
546.62	39404.97
546.82	39017.90
547.02	39400.87
547.22	39392.68
547.43	39394.73
547.63	39810.46
547.83	39622.05
548.03	39388.58
548.23	39626.15
548.44	39452.07
548.64	40113.56
548.84	40201.63
549.04	39808.42
549.24	39824.80
549.45	40265.11
549.65	39912.86
549.85	40254.87
550.05	40482.20
550.25	40297.88
550.45	40820.11
550.66	40519.06
550.86	40203.67
551.06	40818.07
551.26	40607.12
551.46	40525.21
551.66	40725.91
551.87	40678.80
552.07	40564.12
552.27	40623.51
552.47	40697.24
552.67	40539.54
552.87	40963.47
553.07	41330.06
553.28	41131.40
553.48	41272.71
553.68	41006.48
553.88	41452.94
554.08	41430.41
554.28	41260.43
554.48	40928.66
554.69	41328.01
554.89	41158.03
555.09	41573.77
555.29	41334.15
555.49	41962.88
555.69	41616.77
555.89	41778.56
556.10	42284.41
556.30	41520.52
556.50	41670.02
556.70	41915.78
556.90	41985.41
557.10	41952.64
557.30	41694.60
557.50	42141.05
557.70	42071.42
557.91	42360.19
558.11	41997.70
558.31	42415.48
558.51	42491.26
558.71	41944.45
558.91	42417.53
559.11	42632.57
559.31	42448.25
559.51	42446.20
559.72	42472.82
559.92	42812.79
560.12	42376.57
560.32	42683.76
560.52	42282.36
560.72	42542.45
560.92	42882.42
561.12	42937.71
561.32	42835.31
561.52	42530.17
561.72	43353.45
561.93	42667.38
562.13	42616.18
562.33	42843.51
562.53	43496.81
562.73	42845.55
562.93	43021.68
563.13	43074.93
563.33	43103.60
563.53	43498.86
563.73	43089.26
563.93	43277.68
564.13	43697.51
564.33	43500.90
564.53	43361.64
564.74	43509.10
564.94	43177.33
565.14	43781.48
565.34	43560.30
565.54	43359.59
565.74	44002.66
565.94	43654.50
566.14	43801.96
566.34	43689.32
566.54	44240.22
566.74	43746.66
566.94	43773.28
567.14	43894.11
567.34	43705.70
567.54	43963.75
567.74	43916.64
567.94	43941.22
568.14	44293.47
568.34	44143.97
568.54	44217.69
568.74	44414.30
568.94	44131.68
569.14	44461.40
569.34	44379.48
569.54	44617.05
569.75	44086.62
569.95	44703.06
570.15	44481.88
570.35	44483.93
570.55	44582.23
570.75	44514.65
570.95	44741.97
571.15	44684.63
571.35	44752.21
571.55	44922.19
571.75	44864.85
571.95	44586.33
572.15	44770.64
572.35	44850.52
572.55	45126.99
572.75	45124.94
572.95	44977.49
573.15	45079.89
573.35	45290.83
573.55	45065.55
573.75	45358.41
573.95	45266.25
574.15	45141.33
574.35	45569.35
574.55	45350.22
574.75	45237.58
574.95	45428.04
575.15	45430.09
575.34	45710.66
575.54	45557.06
575.74	45995.33
575.94	45968.71
576.14	45522.25
576.34	45870.40
576.54	46404.92
576.74	45903.17
576.94	45856.07
577.14	46224.70
577.34	46148.93
577.54	46042.43
577.74	46470.46
577.94	46441.79
578.14	46245.18
578.34	46519.61
578.54	46216.51
578.74	46234.94
578.94	46511.42
579.14	46579.00
579.34	46490.94
579.54	46843.19
579.74	46724.41
579.94	47101.23
580.13	46576.95
580.33	46728.50
580.53	47101.23
580.73	46806.33
580.93	47383.85
581.13	46966.07
581.33	47240.50
581.53	47306.03
581.73	47256.88
581.93	47449.39
582.13	47424.81
582.33	47566.12
582.53	47754.54
582.73	47742.25
582.92	47736.10
583.12	47979.81
583.32	47740.20
583.52	47256.88
583.72	48002.34
583.92	48016.68
584.12	47871.27
584.32	48608.54
584.52	47942.95
584.72	48330.01
584.92	48205.09
585.11	48481.56
585.31	48264.48
585.51	48561.44
585.71	47994.15
585.91	48747.80
586.11	48540.96
586.31	48276.77
586.51	48563.48
586.71	48391.45
586.91	48964.88
587.10	49198.35
587.30	48694.55
587.50	48923.93
587.70	48624.92
587.90	49044.76
588.10	48968.98
588.30	48739.61
588.50	49276.18
588.69	49476.88
588.89	48653.59
589.09	49345.81
589.29	49145.11
589.49	49743.11
589.69	49284.37
589.89	49198.35
590.08	49566.99
590.28	49448.21
590.48	49427.73
590.68	49597.71
590.88	49644.81
591.08	49259.79
591.28	49360.14
591.47	50289.92
591.67	49822.98
591.87	49503.50
592.07	49847.56
592.27	49935.62
592.47	49700.11
592.67	49782.02
592.86	49503.50
593.06	50238.72
593.26	50218.24
593.46	50406.65
593.66	49874.18
593.86	50091.27
594.05	50068.74
594.25	50490.62
594.45	49837.32
594.65	50394.37
594.85	49894.66
595.05	50648.32
595.24	50674.94
595.44	50672.89
595.64	50724.09
595.84	50806.01
596.04	50291.97
596.23	50642.17
596.43	50887.93
596.63	50750.71
596.83	50566.40
597.03	51127.54
597.22	51098.87
597.42	51193.07
597.62	51373.30
597.82	51209.46
598.02	51406.06
598.21	51059.96
598.41	50871.54
598.61	51205.36
598.81	51410.16
599.01	51735.79
599.20	51379.44
599.40	51248.37
599.60	51707.12
599.80	51729.64
600.00	51999.97
600.19	51946.73
600.39	51291.38
600.59	51928.30
600.79	51725.55
600.98	51942.63
601.18	52100.32
601.38	52643.04
601.58	52100.32
601.78	52243.68
601.97	52323.55
602.17	52473.06
602.37	52321.51
602.57	52432.10
602.76	52735.20
602.96	52352.23
603.16	52493.54
603.36	52286.69
603.55	52829.40
603.75	52331.75
603.95	52712.67
604.15	52841.69
604.34	52479.20
604.54	53112.02
604.74	52888.79
604.94	53212.37
605.13	53097.69
605.33	53212.37
605.53	52978.90
605.73	53470.42
605.92	53075.16
606.12	53269.72
606.32	53384.40
606.52	53161.17
606.71	53220.56
606.91	53599.44
607.11	53087.45
607.30	53716.17
607.50	53837.00
607.70	53804.24
607.90	53597.39
608.09	53777.61
608.29	53574.86
608.49	53828.81
608.68	53900.49
608.88	53902.54
609.08	54246.60
609.28	54232.26
609.47	53828.81
609.67	54426.82
609.87	54072.52
610.06	54691.01
610.26	53716.17
610.46	54115.53
610.66	54240.45
610.85	54314.18
611.05	53945.54
611.25	54355.14
611.44	54258.88
611.64	54682.81
611.84	54265.03
612.03	54158.53
612.23	54332.61
612.43	54283.46
612.62	54158.53
612.82	54652.09
613.02	54029.51
613.21	54607.04
613.41	54146.25
613.61	54211.78
613.80	54039.75
614.00	54498.50
614.20	54310.08
614.39	54568.13
614.59	54752.44
614.79	54015.18
614.98	54285.51
615.18	54613.18
615.38	54729.92
615.57	54494.40
615.77	54840.51
615.97	54699.20
616.16	54490.30
616.36	54555.84
616.56	54850.75
616.75	54557.89
616.95	54500.54
617.15	54406.34
617.34	54723.77
617.54	54598.85
617.74	55157.94
617.93	55049.40
618.13	54598.85
618.32	54412.48
618.52	54377.67
618.72	54858.94
618.91	55039.16
619.11	54750.40
619.31	54615.23
619.50	54756.54
619.70	54140.10
619.90	54652.09
620.09	54914.23
620.29	54809.79
620.48	54734.01
620.68	54981.82
620.88	54371.52
621.07	54637.76
621.27	55057.59
621.46	54512.83
621.66	54666.43
621.86	54918.33
622.05	54414.53
622.25	55360.69
622.44	54402.24
622.64	54498.50
622.84	54727.87
623.03	54097.09
623.23	54908.09
623.42	54584.51
623.62	55026.87
623.82	54869.18
624.01	54512.83
624.21	54961.34
624.40	54310.08
624.60	54688.96
624.80	54949.05
624.99	54949.05
625.19	54285.51
625.38	55004.34
625.58	54482.11
625.77	55057.59
625.97	54793.40
626.17	55170.23
626.36	54475.97
626.56	54910.14
626.75	54375.62
626.95	54883.51
627.14	54836.41
627.34	55260.34
627.54	54598.85
627.73	54404.29
627.93	54758.59
628.12	54316.23
628.32	54641.85
628.51	54815.93
628.71	54283.46
628.90	54879.42
629.10	54789.31
629.30	54564.03
629.49	54908.09
629.69	54527.17
629.88	54942.91
630.08	54912.19
630.27	55186.61
630.47	55030.97
630.66	54805.69
630.86	55100.60
631.05	54170.82
631.25	54856.89
631.44	54891.71
631.64	55014.58
631.84	54916.28
632.03	54850.75
632.23	54820.03
632.42	55516.34
632.62	55137.46
632.81	54482.11
633.01	54727.87
633.20	55401.65
633.40	55030.97
633.59	55344.31
633.79	54744.25
633.98	54770.88
634.18	55350.45
634.37	55243.96
634.57	54897.85
634.76	55211.19
634.96	55297.20
635.15	55129.27
635.35	54740.16
635.54	55100.60
635.74	55381.17
635.93	55403.70
636.13	55233.72
636.32	55342.26
636.52	55305.40
636.71	55231.67
636.91	55147.70
637.10	55608.50
637.30	55002.30
637.49	55037.11
637.69	54609.09
637.88	55393.46
638.08	54916.28
638.27	55323.83
638.46	55121.08
638.66	55131.32
638.85	55219.38
639.05	55063.74
639.24	55448.75
639.44	54834.36
639.63	55489.71
639.83	55100.60
640.02	55454.90
640.22	55280.82
640.41	55411.89
640.61	55186.61
640.80	55502.00
640.99	55393.46
641.19	55647.41
641.38	55637.17
641.58	55327.92
641.77	55317.68
641.97	55362.74
642.16	55758.00
642.36	56095.91
642.55	56214.69
642.74	55145.65
642.94	55811.24
643.13	55825.58
643.33	55667.89
643.52	55801.00
643.72	55801.00
643.91	55663.79
644.10	55622.83
644.30	55641.26
644.49	55966.89
644.69	55946.41
644.88	55465.14
645.08	55338.16
645.27	55551.15
645.46	55375.03
645.66	56057.00
645.85	55694.51
646.05	55973.03
646.24	56204.45
646.43	55903.40
646.63	56104.10
646.82	55735.47
647.02	56159.40
647.21	56335.52
647.40	56038.57
647.60	56100.01
647.79	56251.56
647.99	56186.02
648.18	55856.30
648.37	56300.71
648.57	55907.50
648.76	56241.32
648.96	55954.60
649.15	56329.38
649.34	56370.34
649.54	56169.64
649.73	55704.75
649.92	56337.57
650.12	56329.38
650.31	56730.78
650.51	56468.64
650.70	56452.26
650.89	56112.30
651.09	56753.31
651.28	56310.95
651.47	56353.96
651.67	56634.53
651.86	56792.22
652.06	55866.54
652.25	56562.85
652.44	56478.88
652.64	56417.44
652.83	56624.29
653.02	56284.33
653.22	56442.02
653.41	56245.41
653.60	56429.73
653.80	56143.02
653.99	56808.61
654.18	56136.87
654.38	56591.52
654.57	56745.12
654.76	56370.34
654.96	56401.06
655.15	56374.44
655.34	56079.53
655.54	55895.21
655.73	56534.18
655.92	56601.76
656.12	56745.12
656.31	56595.62
656.50	56886.43
656.70	56587.42
656.89	56392.87
657.08	56620.19
657.28	56482.98
657.47	56882.33
657.66	56849.56
657.86	56427.68
658.05	56669.34
658.24	56313.00
658.43	56487.07
658.63	56900.76
658.82	56562.85
659.01	56702.11
659.21	57146.52
659.40	56915.10
659.59	56784.03
659.79	56609.95
659.98	56796.32
660.17	57021.59
660.36	56704.16
660.56	57093.27
660.75	56902.81
660.94	56310.95
661.14	56937.63
661.33	56476.83
661.52	56384.68
661.71	56929.44
661.91	56351.91
662.10	56482.98
662.29	56824.99
662.49	56562.85
662.68	56595.62
662.87	56847.52
663.06	56956.06
663.26	57074.84
663.45	56806.56
663.64	56468.64
663.83	57408.66
664.03	56794.27
664.22	56878.24
664.41	56956.06
664.60	56423.59
664.80	57181.34
664.99	56759.45
665.18	57203.86
665.37	56935.58
665.57	57095.32
665.76	57343.12
665.95	56829.08
666.14	57078.94
666.34	56845.47
666.53	56587.42
666.72	56974.49
666.91	56521.89
667.11	56292.52
667.30	57064.60
667.49	56767.65
667.68	57068.70
667.87	56587.42
668.07	56947.87
668.26	56939.68
668.45	57095.32
668.64	56630.43
668.84	57480.34
669.03	57064.60
669.22	56894.62
669.41	56970.39
669.60	56900.76
669.80	56863.90
669.99	56927.39
670.18	56571.04
670.37	56614.05
670.57	56851.61
670.76	56665.25
670.95	57203.86
671.14	56923.29
671.33	56550.56
671.53	57537.68
671.72	56753.31
671.91	56710.30
672.10	56831.13
672.29	57033.88
672.48	56673.44
672.68	57599.12
672.87	56990.87
673.06	57146.52
673.25	56839.32
673.44	56714.40
673.64	56665.25
673.83	56726.69
674.02	56882.33
674.21	56177.83
674.40	57443.48
674.59	56382.63
674.79	56442.02
674.98	56792.22
675.17	56657.06
675.36	56511.65
675.55	56802.46
675.74	56229.03
675.94	56824.99
676.13	56673.44
676.32	57263.25
676.51	57236.63
676.70	56833.18
676.89	56652.96
677.08	57224.34
677.28	56466.59
677.47	57154.71
677.66	57074.84
677.85	56691.87
678.04	56935.58
678.23	56894.62
678.42	56638.62
678.62	57029.79
678.81	56796.32
679.00	56454.31
679.19	57513.11
679.38	56464.55
679.57	56812.70
679.76	56640.67
679.96	56399.01
680.15	56579.23
680.34	56497.31
680.53	56661.15
680.72	56843.42
680.91	56747.17
681.10	56591.52
681.29	57025.69
681.48	56091.82
681.68	56624.29
681.87	56331.43
682.06	56308.90
682.25	55997.61
682.44	56587.42
682.63	56755.36
682.82	56083.62
683.01	56571.04
683.20	56245.41
683.39	55985.32
683.59	55962.79
683.78	56339.62
683.97	55944.36
684.16	56186.02
684.35	55708.85
684.54	55903.40
684.73	56050.86
684.92	55936.17
685.11	56044.71
685.30	56153.26
685.49	56501.41
685.69	56032.42
685.88	56186.02
686.07	56169.64
686.26	56032.42
686.45	55844.01
686.64	55776.43
686.83	56013.99
687.02	56263.85
687.21	55975.08
687.40	56003.75
687.59	55852.20
687.78	55966.89
687.97	56300.71
688.16	55985.32
688.35	55841.96
688.54	55473.33
688.74	55608.50
688.93	55583.92
689.12	55493.81
689.31	56169.64
689.50	55653.55
689.69	55411.89
689.88	55227.57
690.07	55936.17
690.26	55266.48
690.45	56206.50
690.64	55987.37
690.83	55399.60
691.02	55106.74
691.21	55205.05
691.40	55473.33
691.59	55682.22
691.78	55401.65
691.97	55395.51
692.16	55618.74
692.35	55661.74
692.54	55719.09
692.73	55346.36
692.92	55387.31
693.11	55338.16
693.30	55391.41
693.49	55239.86
693.68	55071.93
693.87	55151.80
694.06	54641.85
694.25	54895.80
694.44	54944.95
694.63	55203.00
694.82	55276.72
695.01	55465.14
695.20	54981.82
695.39	54604.99
695.58	54785.21
695.77	54828.22
695.96	54639.81
696.15	54961.34
696.34	54629.57
696.53	54893.75
696.72	55106.74
696.91	54754.49
697.10	54977.72
697.29	54877.37
697.48	55276.72
697.67	54205.64
697.86	54271.17
698.05	54254.79
698.24	54756.54
698.43	54486.21
698.62	54555.84
698.81	54320.32
699.00	54514.88
699.19	54156.49
699.38	54578.37
699.57	54332.61
699.76	54592.70
699.95	54396.10
700.14	54637.76
700.32	54211.78
700.51	54244.55
700.70	54609.09
700.89	54609.09
701.08	54295.75
701.27	54377.67
701.46	54514.88
701.65	53646.54
701.84	54125.77
702.03	54084.81
702.22	53851.34
702.41	54052.04
702.60	53648.59
702.79	54080.71
702.98	53712.08
703.17	53703.88
703.35	53650.64
703.54	54099.14
703.73	54060.23
703.92	53933.26
704.11	53933.26
704.30	53490.90
704.49	53599.44
704.68	53394.64
704.87	53982.41
705.06	53372.11
705.25	53400.79
705.43	53683.40
705.62	53544.14
705.81	53368.02
706.00	53591.25
706.19	53183.70
706.38	53210.32
706.57	53447.89
706.76	52868.31
706.95	53501.14
707.14	53273.81
707.32	53482.70
707.51	53138.65
707.70	52978.90
707.89	53378.26
708.08	52954.33
708.27	53316.82
708.46	53847.24
708.65	53384.40
708.84	53259.48
709.02	53062.87
709.21	52901.08
709.40	53152.98
709.59	53056.73
709.78	52591.84
709.97	53048.53
710.16	52628.70
710.34	52544.73
710.53	52950.23
710.72	52464.86
710.91	52518.11
711.10	52653.28
711.29	52608.22
711.48	52780.25
711.66	52659.42
711.85	52460.77
712.04	52540.64
712.23	52761.82
712.42	52522.21
712.61	52765.91
712.80	52567.26
712.98	52051.17
713.17	52384.99
713.36	52339.94
713.55	52518.11
713.74	52382.94
713.93	52315.36
714.11	52085.99
714.30	51737.83
714.49	51928.30
714.68	52368.61
714.87	52423.90
715.06	52511.97
715.24	52020.45
715.43	52227.30
715.62	51578.09
715.81	52145.38
716.00	52126.95
716.18	51447.02
716.37	51561.71
716.56	51657.96
716.75	52100.32
716.94	51111.16
717.12	51143.92
717.31	51799.27
717.50	51160.31
717.69	51274.99
717.88	51852.52
718.06	51262.71
718.25	51670.25
718.44	51205.36
718.63	51295.47
718.82	50935.03
719.00	51117.30
719.19	51330.29
719.38	51008.76
719.57	50607.36
719.76	50296.06
719.94	50478.33
720.13	50492.67
720.32	50578.68
720.51	50844.92
720.69	50517.25
720.88	50545.92
721.07	50603.26
721.26	50091.27
721.44	50337.02
721.63	49947.91
721.82	49812.74
722.01	50148.61
722.20	50140.42
722.38	50265.34
722.57	49618.19
722.76	49599.76
722.95	49798.41
723.13	49628.43
723.32	49767.69
723.51	49669.39
723.70	49505.55
723.88	49569.04
724.07	49941.77
724.26	49294.61
724.44	48764.18
724.63	49673.48
724.82	49575.18
725.01	49306.90
725.19	49433.87
725.38	49198.35
725.57	49351.95
725.76	49011.99
725.94	48919.83
726.13	49216.78
726.32	49257.74
726.51	48753.94
726.69	49292.56
726.88	49374.48
727.07	48909.59
727.25	49296.66
727.44	49224.98
727.63	48999.70
727.82	49104.15
728.00	48911.64
728.19	48844.05
728.38	49476.88
728.56	48526.62
728.75	48903.45
728.94	48696.60
729.12	48968.98
729.31	49153.30
729.50	48772.38
729.69	48737.56
729.87	48669.98
730.06	48297.25
730.25	49091.86
730.43	49188.11
730.62	48712.98
730.81	48737.56
730.99	49110.29
731.18	48903.45
731.37	48653.59
731.55	48942.36
731.74	48624.92
731.93	48805.14
732.11	48698.65
732.30	49026.32
732.49	48491.80
732.67	48608.54
732.86	48635.16
733.05	48882.97
733.23	48526.62
733.42	48923.93
733.61	48592.15
733.79	48637.21
733.98	49263.89
734.17	48608.54
734.35	48512.28
734.54	48772.38
734.73	48964.88
734.91	48618.78
735.10	48631.07
735.29	48755.99
735.47	47805.73
735.66	48565.53
735.84	48489.76
736.03	48108.83
736.22	48809.24
736.40	48266.53
736.59	48532.76
736.78	48096.55
736.96	48127.27
737.15	48190.75
737.33	48088.35
737.52	48248.10
737.71	47975.72
737.89	47979.81
738.08	47815.97
738.27	47645.99
738.45	48057.63
738.64	48137.51
738.82	47846.69
739.01	47525.16
739.20	47840.55
739.38	47801.64
739.57	48301.34
739.75	48063.78
739.94	47783.21
740.13	47863.08
740.31	47582.51
740.50	47947.04
740.68	47705.38
740.87	48076.07
741.06	47838.50
741.24	47990.05
741.43	47465.77
741.61	47764.78
741.80	47129.90
741.99	47457.58
742.17	47592.75
742.36	47535.40
742.54	46912.82
742.73	47594.79
742.91	47617.32
743.10	47230.26
743.29	47187.25
743.47	47519.02
743.66	47326.51
743.84	47390.00
744.03	47390.00
744.21	47297.84
744.40	47381.80
744.59	47322.41
744.77	46832.95
744.96	47289.65
745.14	47250.74
745.33	47351.09
745.51	47131.95
745.70	47211.82
745.88	47078.71
746.07	47076.66
746.26	47179.06
746.44	47027.51
746.63	46474.55
746.81	46939.44
747.00	46787.89
747.18	46679.35
747.37	46488.89
747.55	47283.50
747.74	46900.53
747.92	46679.35
748.11	46404.92
748.29	46769.46
748.48	46953.78
748.66	46755.13
748.85	46134.59
749.03	46568.76
749.22	46456.12
749.41	45987.14
749.59	46656.82
749.78	46222.65
749.96	46265.66
750.15	45995.33
750.33	46302.53
750.52	46282.05
750.70	45917.51
750.89	45874.50
751.07	46042.43
751.26	46165.31
751.44	45602.12
751.63	46312.77
751.81	45540.68
752.00	45651.27
752.18	45890.88
752.37	45948.23
752.55	45204.81
752.74	45917.51
752.92	45561.16
753.10	45606.22
753.29	45661.51
753.47	45505.87
753.66	45516.11
753.84	45737.29
754.03	45403.47
754.21	45008.21
754.40	45516.11
754.58	45538.63
754.77	45266.25
754.95	44811.60
755.14	45114.70
755.32	45141.33
755.51	44692.82
755.69	44930.39
755.88	44875.09
756.06	45178.19
756.24	44893.52
756.43	44860.76
756.61	45016.40
756.80	44940.63
756.98	44473.69
757.17	44950.87
757.35	44848.47
757.54	44817.75
757.72	44778.84
757.90	44707.16
758.09	44326.24
758.27	44522.84
758.46	44627.29
758.64	44445.02
758.83	44467.55
759.01	44563.80
759.19	44522.84
759.38	44285.28
759.56	44739.93
759.75	44983.63
759.93	44363.10
760.12	43763.04
760.30	44303.71
760.48	44373.34
760.67	44371.29
760.85	44447.07
761.04	44528.98
761.22	44014.94
761.40	43994.46
761.59	44262.75
761.77	43744.61
761.96	43918.69
762.14	43775.33
762.32	43822.44
762.51	43478.38
762.69	43449.70
762.88	43591.01
763.06	43801.96
763.24	43666.79
763.43	43468.14
763.61	43605.35
763.80	43746.66
763.98	43482.47
764.16	43130.22
764.35	43246.96
764.53	43173.23
764.72	43300.20
764.90	43660.65
765.08	43574.63
765.27	43193.71
765.45	42933.62
765.63	42591.61
765.82	43461.99
766.00	42696.05
766.18	43253.10
766.37	43316.59
766.55	43011.44
766.74	43040.11
766.92	42786.16
767.10	43083.12
767.29	42601.85
767.47	42382.71
767.65	42841.46
767.84	42382.71
768.02	42671.48
768.20	42132.86
768.39	42425.72
768.57	42046.85
768.75	42452.34
768.94	42370.43
769.12	42395.00
769.30	41928.06
769.49	42108.29
769.67	41835.91
769.85	41618.82
770.04	41969.02
770.22	41657.73
770.40	41837.95
770.59	41741.70
770.77	42036.61
770.95	41958.78
771.14	41428.36
771.32	41414.02
771.50	41491.85
771.69	41446.79
771.87	41934.21
772.05	41287.05
772.24	41385.35
772.42	41375.11
772.60	41063.82
772.78	40813.97
772.97	40836.50
773.15	41059.73
773.33	41229.71
773.52	40942.99
773.70	40998.29
773.88	41231.75
774.07	41088.40
774.25	41010.57
774.43	41506.18
774.61	41211.28
774.80	41565.57
774.98	41145.74
775.16	41338.25
775.34	41514.37
775.53	41276.81
775.71	41151.88
775.89	41117.07
776.08	41268.62
776.26	41489.80
776.44	41553.29
776.62	41309.58
776.81	41029.01
776.99	41536.90
777.17	41465.22
777.35	41219.47
777.54	41651.59
777.72	41198.99
777.90	41342.35
778.08	41440.65
778.27	41276.81
778.45	41731.46
778.63	41553.29
778.81	41131.40
779.00	41956.74
779.18	41842.05
779.36	42030.46
779.54	41629.06
779.73	41522.57
779.91	41749.89
780.09	41637.25
780.27	41792.90
780.46	41604.49
780.64	42091.90
780.82	41733.51
781.00	41612.68
781.19	41907.58
781.37	42446.20
781.55	42290.55
781.73	42423.67
781.91	41823.62
782.10	42143.10
782.28	41934.21
782.46	42030.46
782.64	42509.69
782.82	42026.37
783.01	42515.83
783.19	42562.93
783.37	42153.34
783.55	41811.33
783.74	42069.37
783.92	42018.17
784.10	42497.40
784.28	42513.78
784.46	41977.22
784.64	42096.00
784.83	42282.36
785.01	42284.41
785.19	41936.26
785.37	42421.62
785.55	42177.92
785.74	42149.24
785.92	41598.34
786.10	41942.40
786.28	41762.18
786.46	41813.38
786.64	41774.47
786.83	41606.53
787.01	41823.62
787.19	42263.93
787.37	41981.31
787.55	41729.41
787.74	41606.53
787.92	41702.79
788.10	41643.40
788.28	41145.74
788.46	41545.09
788.64	41303.43
788.82	41637.25
789.01	41541.00
789.19	41624.96
789.37	41514.37
789.55	41256.33
789.73	41029.01
789.91	40799.63
790.09	41112.97
790.28	40992.14
790.46	40578.45
790.64	41162.12
790.82	41162.12
791.00	40865.17
791.18	40756.63
791.36	40709.52
791.55	40654.23
791.73	40121.76
791.91	40080.80
792.09	40193.43
792.27	40261.02
792.45	40519.06
792.63	40318.36
792.81	39929.25
793.00	39857.57
793.18	39888.29
793.36	39865.76
793.54	39599.52
793.72	39445.93
793.90	39521.70
794.08	39470.50
794.26	39718.31
794.44	39239.08
794.62	39046.57
794.81	38999.47
794.99	39372.20
795.17	39321.00
795.35	39249.32
795.53	39290.28
795.71	39351.72
795.89	38933.93
796.07	38596.02
796.25	38483.38
796.43	38567.35
796.61	38585.78
796.80	38528.44
796.98	38501.81
797.16	38090.17
797.34	38092.22
797.52	37893.57
797.70	37932.48
797.88	37860.80
798.06	37838.27
798.24	37737.92
798.42	37897.66
798.60	37752.26
798.78	37529.03
798.96	37490.12
799.14	37266.89
799.32	37225.93
799.51	37115.34
799.69	37062.09
799.87	36967.88
800.05	36810.19
800.23	37273.03
800.41	36740.56
800.59	36513.23
800.77	36689.36
800.95	36277.72
801.13	36785.61
801.31	36034.01
801.49	36728.27
801.67	36081.11
801.85	36099.55
802.03	35796.45
802.21	35870.17
802.39	35577.31
802.57	36128.22
802.75	35775.97
802.93	35728.86
803.11	35603.94
803.29	35452.39
803.47	35528.16
803.65	35558.88
803.83	35206.63
804.01	34987.50
804.19	35050.99
804.37	35050.99
804.55	35157.48
804.73	34872.81
804.91	35132.90
805.09	34751.98
805.27	34776.56
805.45	34817.52
805.63	34735.60
805.81	34846.19
805.99	34881.00
806.17	34659.82
806.35	34770.41
806.53	34366.96
806.71	34532.85
806.89	34536.94
807.07	34344.44
807.25	34117.11
807.43	34010.62
807.61	34342.39
807.79	34199.03
807.97	33670.65
808.15	33930.75
808.33	33576.45
808.51	33426.95
808.69	33611.26
808.87	33271.30
809.05	33236.48
809.23	33404.42
809.41	33148.42
809.59	33048.07
809.77	33658.37
809.95	33017.35
810.13	33177.09
810.31	33123.85
810.49	33003.02
810.67	32712.20
810.84	32757.26
811.02	32464.40
811.20	32802.32
811.38	32849.42
811.56	32306.71
811.74	32546.32
811.92	32093.72
812.10	32448.02
812.28	32368.15
812.46	32450.06
812.64	32257.56
812.82	31737.37
813.00	32292.37
813.18	32034.33
813.36	31854.11
813.53	31893.02
813.71	31847.96
813.89	31645.21
814.07	31850.01
814.25	31798.81
814.43	31755.80
814.61	31725.08
814.79	31501.86
814.97	31655.45
815.15	31411.74
815.33	30907.94
815.50	30938.66
815.68	31471.14
815.86	31137.32
816.04	30963.24
816.22	30885.42
816.40	30864.94
816.58	30516.78
816.76	30701.10
816.94	30815.79
817.11	31036.97
817.29	30559.79
817.47	30334.51
817.65	30594.61
817.83	30455.34
818.01	30367.28
818.19	30385.71
818.37	30617.13
818.54	30363.18
818.72	30090.80
818.90	30461.49
819.08	30119.48
819.26	30213.68
819.44	29929.02
819.62	29570.62
819.80	30010.93
819.97	30064.18
820.15	29701.69
820.33	29677.12
820.51	29908.54
820.69	29759.03
820.87	29865.53
821.05	30072.37
821.22	29799.99
821.40	29597.24
821.58	29781.56
821.76	29455.93
821.94	29552.19
822.12	29400.64
822.29	29423.17
822.47	29210.18
822.65	29556.28
822.83	29363.78
823.01	29038.15
823.19	28999.24
823.36	29046.34
823.54	28847.69
823.72	29027.91
823.90	28868.17
824.08	28823.11
824.25	29048.39
824.43	28837.45
824.61	28601.93
824.79	28687.95
824.97	28462.67
825.15	28788.30
825.32	28589.64
825.50	28280.40
825.68	28407.37
825.86	28626.51
826.04	28612.17
826.21	28399.18
826.39	28528.20
826.57	28333.65
826.75	28040.79
826.93	28077.65
827.10	28288.59
827.28	27907.67
827.46	28100.18
827.64	27946.58
827.81	27803.22
827.99	28073.56
828.17	27872.85
828.35	27686.49
828.53	28032.60
828.70	27539.04
828.88	27524.70
829.06	27860.57
829.24	27670.11
829.41	27485.79
829.59	27756.12
829.77	27518.56
829.95	27571.80
830.12	27418.21
830.30	27381.34
830.48	27393.63
830.66	27256.42
830.84	27270.75
831.01	26936.93
831.19	27250.27
831.37	27057.76
831.55	27002.47
831.72	26922.60
831.90	27092.58
832.08	27303.52
832.25	27135.59
832.43	27240.03
832.61	27078.24
832.79	26947.17
832.96	26664.55
833.14	26938.98
833.32	26711.66
833.50	26685.03
833.67	26873.45
833.85	26748.52
834.03	26373.74
834.20	26445.42
834.38	26672.74
834.56	26674.79
834.74	26422.89
834.91	26547.82
835.09	26492.52
835.27	26269.30
835.44	26453.61
835.62	26111.60
835.80	26361.45
835.98	26125.94
836.15	26287.73
836.33	26093.17
836.51	26175.09
836.68	25921.14
836.86	26220.14
837.04	26361.45
837.21	26101.36
837.39	26097.27
837.57	25908.85
837.75	26160.75
837.92	26011.25
838.10	25677.43
838.28	25742.97
838.45	25871.99
838.63	25572.99
838.81	25845.37
838.98	25480.83
839.16	25738.87
839.34	25386.62
839.51	25517.69
839.69	25370.24
839.87	25343.61
840.04	25699.96
840.22	25669.24
840.40	25611.90
840.57	25056.90
840.75	25405.05
840.93	24872.58
841.10	25398.91
841.28	25423.48
841.46	25187.97
841.63	25220.74
841.81	25278.08
841.98	25075.33
842.16	25347.71
842.34	24860.29
842.51	24657.54
842.69	24948.36
842.87	24626.82
843.04	25171.58
843.22	24673.93
843.40	25079.43
843.57	24929.92
843.75	24997.51
843.92	24604.30
844.10	24684.17
844.28	24716.93
844.45	24753.80
844.63	24841.86
844.81	24553.10
844.98	25040.51
845.16	24579.72
845.33	24407.69
845.51	24616.58
845.69	24348.30
845.86	24573.58
846.04	24053.39
846.21	24211.09
846.39	24209.04
846.57	23797.40
846.74	24125.07
846.92	24223.37
847.09	23848.60
847.27	23824.02
847.45	24168.08
847.62	24331.92
847.80	24069.78
847.97	24178.32
848.15	24030.87
848.32	23989.91
848.50	24061.58
848.68	23928.47
848.85	23963.28
849.03	23551.64
849.20	23682.71
849.38	23592.60
849.56	23649.94
849.73	23377.56
849.91	23703.19
850.08	23867.03
850.26	23324.32
850.43	23482.01
850.61	23412.38
850.78	23295.64
850.96	23600.79
851.14	23373.47
851.31	23613.08
851.49	23363.23
851.66	23512.73
851.84	23436.95
852.01	23760.53
852.19	23117.47
852.36	23338.65
852.54	23271.07
852.71	23232.16
852.89	23428.76
853.07	23219.87
853.24	23105.18
853.42	23377.56
853.59	23205.53
853.77	22986.40
853.94	23008.93
854.12	23226.01
854.29	22742.69
854.47	23086.75
854.64	23043.74
854.82	22906.53
854.99	23076.51
855.17	22859.43
855.34	22765.22
855.52	22924.96
855.69	22988.45
855.87	22572.71
856.04	22685.35
856.22	22929.06
856.39	22374.06
856.57	22562.47
856.74	22509.22
856.92	22617.77
857.09	22251.18
857.27	22118.06
857.44	22726.31
857.62	22316.72
857.79	22533.80
857.97	22433.45
858.14	22462.12
858.32	22353.58
858.49	22238.89
858.67	22156.97
858.84	22197.93
859.02	22363.82
859.19	21923.51
859.37	21970.61
859.54	21989.04
859.72	22189.74
859.89	22015.66
860.06	22013.62
860.24	21954.22
860.41	22214.32
860.59	21819.06
860.76	22015.66
860.94	21657.27
861.11	21960.37
861.29	21876.40
861.46	21632.69
861.64	21792.44
861.81	21640.89
861.98	21495.48
862.16	21577.40
862.33	21284.54
862.51	21431.99
862.68	21413.56
862.86	21595.83
863.03	21384.89
863.21	21444.28
863.38	21206.72
863.55	21341.88
863.73	21448.38
863.90	21382.84
864.08	21401.27
864.25	21417.66
864.43	21419.71
864.60	21085.89
864.77	20979.39
864.95	21212.86
865.12	21042.88
865.30	20840.13
865.47	21171.90
865.64	20903.62
865.82	20934.34
865.99	21210.81
866.17	20793.03
866.34	20852.42
866.51	20905.66
866.69	20838.08
866.86	20901.57
867.04	20616.90
867.21	20854.47
867.38	20885.19
867.56	20508.36
867.73	20442.82
867.91	20448.97
868.08	20539.08
868.25	20362.95
868.43	20391.62
868.60	20307.66
868.78	20235.98
868.95	20473.54
869.12	20094.67
869.30	20303.56
869.47	20297.42
869.64	19867.34
869.82	20178.64
869.99	20145.87
870.16	20078.29
870.34	20102.86
870.51	20369.10
870.69	19922.64
870.86	20215.50
871.03	20295.37
871.21	20104.91
871.38	20258.51
871.55	19855.06
871.73	19810.00
871.90	19769.04
872.07	19646.16
872.25	19556.05
872.42	19691.22
872.59	19601.11
872.77	19703.51
872.94	19412.70
873.11	19810.00
873.29	19519.19
873.46	19490.52
873.63	19517.14
873.81	19490.52
873.98	19269.34
874.15	19166.94
874.33	19101.40
874.50	19156.70
874.67	19146.46
874.85	19148.51
875.02	19068.64
875.19	19105.50
875.37	19050.21
875.54	18820.83
875.71	18890.46
875.88	18829.02
876.06	18943.71
876.23	18743.01
876.40	18552.55
876.58	18648.80
876.75	18761.44
876.92	18558.69
877.10	18695.91
877.27	18714.34
877.44	18573.03
877.61	18280.17
877.79	18513.64
877.96	18173.67
878.13	18288.36
878.31	18351.85
878.48	18188.01
878.65	18054.89
878.82	18177.77
879.00	18271.98
879.17	18132.72
879.34	18251.50
879.51	18128.62
879.69	18071.28
879.86	18007.79
880.03	17714.93
880.21	18175.72
880.38	17950.45
880.55	18134.76
880.72	17764.08
880.90	17786.61
881.07	17653.49
881.24	17737.46
881.41	18013.93
881.59	17663.73
881.76	17616.63
881.93	17405.69
882.10	17491.70
882.28	17166.07
882.45	17436.41
882.62	17671.92
882.79	17626.87
882.96	17352.44
883.14	17630.96
883.31	17573.62
883.48	17368.82
883.65	17401.59
883.83	17491.70
884.00	17219.32
884.17	17415.93
884.34	17250.04
884.51	17118.97
884.69	17073.92
884.86	17184.51
885.03	17221.37
885.20	17037.05
885.38	17368.82
885.55	17145.59
885.72	17245.94
885.89	17106.68
886.06	17108.73
886.24	17268.47
886.41	16977.66
886.58	17278.71
886.75	17125.11
886.92	16953.09
887.10	17071.87
887.27	16785.15
887.44	16822.02
887.61	17135.35
887.78	17104.64
887.95	16936.70
888.13	16641.79
888.30	16760.58
888.47	16729.86
888.64	16869.12
888.81	16766.72
888.99	16635.65
889.16	16654.08
889.33	16551.68
889.50	16424.71
889.67	16588.55
889.84	16717.57
890.01	16346.89
890.19	16523.01
890.36	16228.10
890.53	16355.08
890.70	16164.62
890.87	16316.17
891.04	16424.71
891.22	16348.93
891.39	16310.02
891.56	15941.39
891.73	16033.55
891.90	15787.79
892.07	16260.87
892.24	16133.90
892.42	16023.31
892.59	16097.03
892.76	15939.34
892.93	16142.09
893.10	15951.63
893.27	16076.55
893.44	15814.41
893.61	15836.94
893.79	15935.24
893.96	15664.91
894.13	15875.85
894.30	15787.79
894.47	15793.94
894.64	16109.32
894.81	15847.18
894.98	15912.72
895.15	15693.58
895.33	15941.39
895.50	15791.89
895.67	15830.80
895.84	15693.58
896.01	15791.89
896.18	15648.53
896.35	15736.59
896.52	15585.04
896.69	15390.49
896.86	15714.06
897.04	15570.71
897.21	15648.53
897.38	15691.54
897.55	15519.51
897.72	15589.14
897.89	15402.77
898.06	15673.10
898.23	15374.10
898.40	15730.45
898.57	15912.72
898.74	15494.93
898.91	15560.47
899.08	15619.86
899.26	15775.50
899.43	15838.99
899.60	15464.21
899.77	15576.85
899.94	15453.97
900.11	15427.35
900.28	15501.08
900.45	15552.27
900.62	15595.28
900.79	15421.20
900.96	15574.80
901.13	15533.84
901.30	15648.53
901.47	15390.49
901.64	15445.78
901.81	15658.77
901.98	15595.28
902.15	15595.28
902.32	15558.42
902.49	15650.58
902.66	15615.76
902.83	15456.02
903.01	15437.59
903.18	15617.81
903.35	15490.84
903.52	15331.09
903.69	15712.02
903.86	15599.38
904.03	15478.55
904.20	15652.63
904.37	15656.72
904.54	15537.94
904.71	15451.92
904.88	15367.96
905.05	15429.40
905.22	15394.58
905.39	15271.70
905.56	15390.49
905.73	15349.53
905.90	15445.78
906.07	15472.40
906.24	15521.56
906.41	15351.57
906.58	15728.40
906.75	15320.85
906.92	15351.57
907.09	15392.53
907.26	15382.29
907.43	15202.07
907.60	15335.19
907.77	15511.32
907.93	15351.57
908.10	15222.55
908.27	15544.08
908.44	15298.33
908.61	15394.58
908.78	15222.55
908.95	15165.21
909.12	15234.84
909.29	15163.16
909.46	15478.55
909.63	15200.02
909.80	15261.46
909.97	15279.89
910.14	15120.15
910.31	15355.67
910.48	15232.79
910.65	15169.30
910.82	15204.12
910.99	15118.11
911.16	15138.58
911.33	15228.70
911.50	15353.62
911.66	14929.69
911.83	15073.05
912.00	14735.14
912.17	14810.91
912.34	14927.64
912.51	14679.84
912.68	14604.07
912.85	14987.04
913.02	14769.95
913.19	14774.05
913.36	14829.34
913.53	14991.13
913.70	14728.99
913.86	14815.01
914.03	14798.62
914.20	14784.29
914.37	14595.87
914.54	14663.46
914.71	14782.24
914.88	14759.71
915.05	14728.99
915.22	14565.15
915.39	14493.47
915.55	14626.59
915.72	14159.66
915.89	14370.60
916.06	14278.44
916.23	14274.34
916.40	14325.54
916.57	14239.53
916.74	14233.38
916.91	14151.46
917.07	13903.66
917.24	14245.67
917.41	14018.35
917.58	13948.72
917.75	14024.49
917.92	13942.57
918.09	14051.11
918.26	13868.84
918.42	13887.28
918.59	13831.98
918.76	13731.63
918.93	13745.97
919.10	13582.13
919.27	13586.22
919.44	13641.52
919.60	13807.41
919.77	13524.79
919.94	13590.32
920.11	13420.34
920.28	13457.20
920.45	13274.93
920.61	13285.17
920.78	13526.83
920.95	13397.81
921.12	13127.48
921.29	12885.82
921.46	13080.38
921.62	13217.59
921.79	13051.70
921.96	12908.35
922.13	12894.01
922.30	12824.38
922.47	12863.29
922.63	12887.87
922.80	12820.28
922.97	12689.21
923.14	12564.29
923.31	12779.32
923.47	12511.04
923.64	12691.26
923.81	12439.36
923.98	12584.77
924.15	12472.13
924.32	12363.59
924.48	12355.40
924.65	12257.09
924.82	12289.86
924.99	12230.47
925.15	11929.42
925.32	12183.37
925.49	11908.94
925.66	11927.37
925.83	12101.45
925.99	11943.75
926.16	11878.22
926.33	11888.46
926.50	11724.62
926.67	11988.81
926.83	11775.82
927.00	11525.97
927.17	11687.76
927.34	11472.72
927.50	11398.99
927.67	11437.91
927.84	11462.48
928.01	11540.30
928.17	11355.99
928.34	11265.88
928.51	11298.64
928.68	11145.05
928.84	11120.47
929.01	11140.95
929.18	11028.31
929.35	11165.53
929.51	10952.54
929.68	11091.80
929.85	10866.52
930.02	10798.94
930.18	10649.44
930.35	10800.99
930.52	10774.36
930.69	10682.20
930.85	10717.02
931.02	10532.70
931.19	10508.13
931.36	10245.99
931.52	10463.07
931.69	10633.05
931.86	10458.98
932.02	10030.95
932.19	10141.54
932.36	10182.50
932.53	10270.56
932.69	10151.78
932.86	10162.02
933.03	10071.91
933.19	9830.25
933.36	9906.02
933.53	9992.04
933.70	9805.67
933.86	9740.14
934.03	9658.22
934.20	9752.43
934.36	9650.03
934.53	9408.37
934.70	9385.84
934.86	9385.84
935.03	9357.17
935.20	9097.08
935.36	9047.93
935.53	9111.41
935.70	9027.45
935.86	9115.51
936.03	8984.44
936.20	8816.51
936.36	8789.88
936.53	8816.51
936.70	8789.88
936.86	8710.01
937.03	8421.25
937.20	8232.83
937.36	8503.17
937.53	8220.55
937.70	8052.61
937.86	7976.84
938.03	7909.26
938.20	8120.20
938.36	7825.29
938.53	7802.76
938.70	7694.22
938.86	7630.73
939.03	7458.70
939.20	7391.12
939.36	7262.10
939.53	7327.63
939.70	7497.61
939.86	7049.11
940.03	7126.93
940.19	6860.70
940.36	6905.75
940.53	6897.56
940.69	6535.07
940.86	6655.90
941.03	6604.70
941.19	6399.90
941.36	6592.41
941.52	6604.70
941.69	6455.20
941.86	6277.02
942.02	6324.13
942.19	6385.57
942.35	6066.08
942.52	6209.44
942.69	6066.08
942.85	6008.74
943.02	5898.15
943.18	5853.09
943.35	5742.50
943.52	5973.92
943.68	5926.82
943.85	5820.33
944.01	5681.07
944.18	5851.05
944.35	5615.53
944.51	5664.68
944.68	5556.14
944.84	5564.33
945.01	5576.62
945.17	5662.63
945.34	5482.41
945.51	5418.93
945.67	5531.56
945.84	5527.47
946.00	5451.69
946.17	5404.59
946.33	5316.53
946.50	5455.79
946.67	5468.08
946.83	5472.17
947.00	5562.28
947.16	5451.69
947.33	5394.35
947.49	5246.90
947.66	5361.58
947.82	5341.10
947.99	5263.28
948.16	5394.35
948.32	5320.62
948.49	5304.24
948.65	5388.21
948.82	5326.77
948.98	5410.73
949.15	5220.27
949.31	5304.24
949.48	5367.73
949.64	5291.95
949.81	5267.38
949.97	5365.68
950.14	5367.73
950.30	5357.49
950.47	5527.47
950.63	5330.86
950.80	5363.63
950.96	5363.63
951.13	5482.41
951.30	5513.13
951.46	5466.03
951.63	5451.69
951.79	5480.36
951.96	5441.45
952.12	5388.21
952.29	5480.36
952.45	5259.18
952.62	5541.80
952.78	5490.60
952.94	5437.36
953.11	5418.93
953.27	5312.43
953.44	5402.54
953.60	5527.47
953.77	5511.08
953.93	5439.40
954.10	5498.80
954.26	5488.56
954.43	5521.32
954.59	5541.80
954.76	5656.49
954.92	5568.43
955.09	5470.12
955.25	5496.75
955.42	5539.76
955.58	5648.30
955.75	5525.42
955.91	5418.93
956.07	5363.63
956.24	5603.24
956.40	5656.49
956.57	5509.04
956.73	5506.99
956.90	5603.24
957.06	5369.77
957.23	5414.83
957.39	5414.83
957.56	5545.90
957.72	5574.57
957.88	5492.65
958.05	5590.95
958.21	5738.41
958.38	5605.29
958.54	5556.14
958.71	5517.23
958.87	5547.95
959.03	5396.40
959.20	5535.66
959.36	5517.23
959.53	5504.94
959.69	5459.88
959.85	5502.89
960.02	5377.97
960.18	5642.15
960.35	5593.00
960.51	5556.14
960.68	5394.35
960.84	5474.22
961.00	5371.82
961.17	5365.68
961.33	5552.04
961.50	5496.75
961.66	5668.78
961.82	5455.79
961.99	5564.33
962.15	5423.02
962.31	5502.89
962.48	5574.57
962.64	5648.30
962.81	5484.46
962.97	5380.01
963.13	5425.07
963.30	5486.51
963.46	5488.56
963.62	5447.60
963.79	5353.39
963.95	5353.39
964.12	5435.31
964.28	5386.16
964.44	5433.26
964.61	5476.27
964.77	5394.35
964.93	5445.55
965.10	5230.51
965.26	5322.67
965.42	5337.01
965.59	5345.20
965.75	5410.73
965.92	5453.74
966.08	5427.12
966.24	5474.22
966.41	5244.85
966.57	5310.38
966.73	5382.06
966.90	5459.88
967.06	5312.43
967.22	5332.91
967.39	5257.14
967.55	5234.61
967.71	5273.52
967.88	5261.23
968.04	5316.53
968.20	5156.79
968.37	5230.51
968.53	5267.38
968.69	5355.44
968.85	5164.98
969.02	5173.17
969.18	5314.48
969.34	5093.30
969.51	5171.12
969.67	5214.13
969.83	5140.40
970.00	5160.88
970.16	5119.92
970.32	5320.62
970.48	5234.61
970.65	5109.68
970.81	5146.55
970.97	5115.83
971.14	5027.76
971.30	5164.98
971.46	5183.41
971.63	5060.53
971.79	5103.54
971.95	4976.56
972.11	4997.04
972.28	5058.48
972.44	5023.67
972.60	4995.00
972.76	4906.93
972.93	5072.82
973.09	4990.90
973.25	5089.20
973.42	4999.09
973.58	4990.90
973.74	4976.56
973.90	4933.56
974.07	4929.46
974.23	4974.52
974.39	4816.82
974.55	4833.21
974.72	4874.17
974.88	4698.04
975.04	4949.94
975.20	4808.63
975.37	4773.82
975.53	4865.97
975.69	4857.78
975.85	4728.76
976.01	4804.53
976.18	4872.12
976.34	4640.70
976.50	4747.19
976.66	4853.69
976.83	4673.46
976.99	4773.82
977.15	4710.33
977.31	4675.51
977.47	4743.10
977.64	4687.80
977.80	4638.65
977.96	4732.86
978.12	4661.18
978.29	4646.84
978.45	4583.35
978.61	4603.83
978.77	4712.38
978.93	4597.69
979.10	4642.75
979.26	4544.44
979.42	4634.55
979.58	4468.67
979.74	4493.24
979.91	4591.55
980.07	4454.33
980.23	4581.31
980.39	4661.18
980.55	4579.26
980.71	4501.44
980.88	4460.48
981.04	4517.82
981.20	4480.96
981.36	4462.52
981.52	4362.17
981.68	4499.39
981.85	4347.84
982.01	4329.41
982.17	4433.85
982.33	4394.94
982.49	4421.56
982.65	4392.89
982.82	4339.65
982.98	4310.97
983.14	4298.69
983.30	4261.82
983.46	4321.21
983.62	4376.51
983.79	4292.54
983.95	4306.88
984.11	4233.15
984.27	4370.37
984.43	4315.07
984.59	4224.96
984.75	4310.97
984.91	4222.91
985.08	4259.78
985.24	4128.70
985.40	4132.80
985.56	4224.96
985.72	4308.93
985.88	4229.06
986.04	4241.34
986.20	4136.90
986.37	4095.94
986.53	4050.88
986.69	4116.42
986.85	4034.50
987.01	4038.59
987.17	4126.66
987.33	4038.59
987.49	4118.47
987.65	4083.65
987.82	4028.35
987.98	4001.73
988.14	4044.74
988.30	3942.34
988.46	3887.04
988.62	4032.45
988.78	3885.00
988.94	3813.32
989.10	3870.66
989.26	3960.77
989.42	3837.89
989.59	3844.04
989.75	3837.89
989.91	3813.32
990.07	3844.04
990.23	3979.20
990.39	3893.19
990.55	3850.18
990.71	3786.69
990.87	3833.80
991.03	3815.37
991.19	3819.46
991.35	3758.02
991.51	3860.42
991.67	3860.42
991.83	3708.87
992.00	3698.63
992.16	3784.65
992.32	3723.21
992.48	3882.95
992.64	3665.86
992.80	3649.48
992.96	3583.95
993.12	3739.59
993.28	3676.10
993.44	3727.30
993.60	3682.25
993.76	3669.96
993.92	3618.76
994.08	3585.99
994.24	3649.48
994.40	3651.53
994.56	3733.45
994.72	3633.10
994.88	3674.06
995.04	3592.14
995.20	3655.62
995.36	3571.66
995.52	3553.23
995.68	3553.23
995.84	3475.40
996.00	3702.73
996.16	3528.65
996.32	3508.17
996.48	3428.30
996.64	3626.95
996.80	3387.34
996.96	3522.51
997.12	3426.25
997.28	3532.75
997.44	3356.62
997.60	3442.64
997.76	3448.78
997.92	3356.62
998.08	3397.58
998.24	3317.71
998.40	3413.96
998.56	3430.35
998.72	3370.96
998.88	3362.76
999.04	3231.69
999.20	3330.00
999.36	3393.48
999.52	3448.78
999.68	3366.86
999.84	3342.28
1000.00	3284.94
1000.16	3325.90
1000.32	3256.27
1000.48	3350.48
1000.64	3332.05
1000.80	3338.19
1000.95	3082.19
1001.11	3121.10
1001.27	3170.26
1001.43	3391.44
1001.59	3106.77
1001.75	3057.62
1001.91	3252.17
1002.07	3112.91
1002.23	3067.86
1002.39	3207.12
1002.55	3221.45
1002.71	3149.78
1002.87	3129.30
1003.03	3100.62
1003.19	3100.62
1003.34	3200.98
1003.50	3135.44
1003.66	3248.08
1003.82	3106.77
1003.98	3084.24
1004.14	3051.47
1004.30	3049.43
1004.46	3010.51
1004.62	3069.91
1004.78	3033.04
1004.94	3123.15
1005.09	3074.00
1005.25	3121.10
1005.41	2920.40
1005.57	3014.61
1005.73	3039.19
1005.89	2971.60
1006.05	3123.15
1006.21	3108.82
1006.37	2953.17
1006.52	2844.63
1006.68	2901.97
1006.84	3024.85
1007.00	2850.77
1007.16	3069.91
1007.32	2938.84
1007.48	2973.65
1007.64	2987.99
1007.79	2953.17
1007.95	2818.00
1008.11	2996.18
1008.27	2901.97
1008.43	2977.75
1008.59	2809.81
1008.75	2920.40
1008.91	2920.40
1009.06	2957.27
1009.22	2875.35
1009.38	2932.69
1009.54	2809.81
1009.70	2674.65
1009.86	2764.76
1010.01	2803.67
1010.17	2803.67
1010.33	2863.06
1010.49	2768.85
1010.65	2893.78
1010.81	2752.47
1010.96	2756.57
1011.12	2740.18
1011.28	2748.37
1011.44	2795.48
1011.60	2727.89
1011.76	2744.28
1011.91	2795.48
1012.07	2672.60
1012.23	2607.06
1012.39	2656.22
1012.55	2719.70
1012.71	2688.98
1012.86	2660.31
1013.02	2711.51
1013.18	2670.55
1013.34	2559.96
1013.50	2609.11
1013.65	2666.46
1013.81	2699.22
1013.97	2613.21
1014.13	2652.12
1014.29	2590.68
1014.44	2789.33
1014.60	2631.64
1014.76	2525.15
1014.92	2564.06
1015.07	2570.20
1015.23	2514.91
1015.39	2486.23
1015.55	2510.81
1015.71	2619.35
1015.86	2551.77
1016.02	2500.57
1016.18	2467.80
1016.34	2588.63
1016.49	2588.63
1016.65	2598.87
1016.81	2449.37
1016.97	2486.23
1017.12	2467.80
1017.28	2510.81
1017.44	2426.84
1017.60	2412.51
1017.75	2531.29
1017.91	2541.53
1018.07	2574.30
1018.23	2432.99
1018.38	2424.80
1018.54	2418.65
1018.70	2514.91
1018.86	2492.38
1019.01	2441.18
1019.17	2408.41
1019.33	2580.44
1019.49	2394.08
1019.64	2410.46
1019.80	2357.21
1019.96	2482.14
1020.12	2410.46
1020.27	2301.92
1020.43	2314.20
1020.59	2428.89
1020.74	2394.08
1020.90	2396.12
1021.06	2371.55
1021.22	2361.31
1021.37	2406.36
1021.53	2291.68
1021.69	2365.40
1021.84	2308.06
1022.00	2342.88
1022.16	2379.74
1022.31	2260.96
1022.47	2340.83
1022.63	2392.03
1022.79	2256.86
1022.94	2340.83
1023.10	2377.69
1023.26	2330.59
1023.41	2265.05
1023.57	2351.07
1023.73	2281.44
1023.88	2299.87
1024.04	2183.13
1024.20	2209.76
1024.35	2250.72
1024.51	2281.44
1024.67	2263.01
1024.82	2306.01
1024.98	2211.81
1025.14	2289.63
1025.29	2222.05
1025.45	2275.29
1025.61	2258.91
1025.76	2256.86
1025.92	2242.53
1026.08	2207.71
1026.23	2174.94
1026.39	2199.52
1026.55	2285.53
1026.70	2176.99
1026.86	2222.05
1027.02	2232.29
1027.17	2215.90
1027.33	2222.05
1027.48	2148.32
1027.64	2187.23
1027.80	2158.56
1027.95	2127.84
1028.11	2129.89
1028.27	2138.08
1028.42	2138.08
1028.58	2125.79
1028.73	2152.42
1028.89	2054.11
1029.05	2164.70
1029.20	2140.13
>>>>>End Processed Spectral Data<<<<<
