SpectraSuite Data File
++++++++++++++++++++++++++++++++++++
Date: Fri Jun 02 14:51:10 CEST 2017
User: INFO_000
Dark Spectrum Present: No
Reference Spectrum Present: No
Number of Sampled Component Spectra: 1
Spectrometers: USB4H00879
Integration Time (usec): 80000 (USB4H00879)
Spectra Averaged: 1 (USB4H00879)
Boxcar Smoothing: 0 (USB4H00879)
Correct for Electrical Dark: No (USB4H00879)
Strobe/Lamp Enabled: No (USB4H00879)
Correct for Detector Non-linearity: No (USB4H00879)
Correct for Stray Light: No (USB4H00879)
Number of Pixels in Processed Spectrum: 3648
>>>>>Begin Processed Spectral Data<<<<<
345.13	1265.64
345.34	1265.64
345.56	1265.64
345.78	1200.11
345.99	1320.94
346.21	1716.20
346.42	1701.86
346.64	1619.94
346.86	1705.96
347.07	1712.10
347.29	1720.29
347.50	1630.18
347.72	1652.71
347.94	1769.44
348.15	1581.03
348.37	1617.90
348.59	1746.92
348.80	1677.29
349.02	1802.21
349.23	1910.75
349.45	1726.44
349.67	1886.18
349.88	1806.31
350.10	1998.82
350.31	1863.65
350.53	1826.79
350.75	1916.90
350.96	1742.82
351.18	1896.42
351.39	1851.36
351.61	1853.41
351.82	1875.94
352.04	1925.09
352.26	1896.42
352.47	1906.66
352.69	1890.28
352.90	1822.69
353.12	1945.57
353.34	1851.36
353.55	1929.19
353.77	1865.70
353.98	1875.94
354.20	1822.69
354.41	1912.80
354.63	1923.04
354.85	2002.91
355.06	1920.99
355.28	1804.26
355.49	1873.89
355.71	1953.76
355.92	1777.64
356.14	1896.42
356.35	1908.71
356.57	1859.56
356.79	1982.43
357.00	1865.70
357.22	1912.80
357.43	1920.99
357.65	2029.54
357.86	1863.65
358.08	1953.76
358.29	1900.52
358.51	1976.29
358.72	1939.43
358.94	1918.95
359.16	1875.94
359.37	1859.56
359.59	1920.99
359.80	1912.80
360.02	1916.90
360.23	1927.14
360.45	1953.76
360.66	1933.28
360.88	1882.08
361.09	1929.19
361.31	1949.67
361.52	1982.43
361.74	2064.35
361.95	2050.02
362.17	1920.99
362.38	1994.72
362.60	1990.63
362.81	2021.35
363.03	1943.52
363.24	2004.96
363.46	2054.11
363.67	1992.67
363.89	1978.34
364.10	1939.43
364.32	1992.67
364.53	2068.45
364.75	1945.57
364.96	1949.67
365.18	1945.57
365.39	1968.10
365.61	1906.66
365.82	2121.70
366.04	2074.59
366.25	1925.09
366.47	1972.19
366.68	2002.91
366.90	2045.92
367.11	2039.78
367.33	1978.34
367.54	2101.22
367.76	2082.78
367.97	2115.55
368.19	1970.15
368.40	2062.30
368.62	1953.76
368.83	1949.67
369.05	2023.39
369.26	1968.10
369.48	2019.30
369.69	2115.55
369.91	2105.31
370.12	2017.25
370.33	2052.06
370.55	1964.00
370.76	2023.39
370.98	2062.30
371.19	1931.23
371.41	2035.68
371.62	2052.06
371.84	2004.96
372.05	2197.47
372.27	2043.87
372.48	2017.25
372.69	2090.98
372.91	2133.98
373.12	2164.70
373.34	2084.83
373.55	2052.06
373.77	2199.52
373.98	2101.22
374.20	2152.42
374.41	2258.91
374.62	2090.98
374.84	2150.37
375.05	2207.71
375.27	2088.93
375.48	2164.70
375.70	2113.50
375.91	2123.74
376.12	2314.20
376.34	2154.46
376.55	2125.79
376.77	2043.87
376.98	2099.17
377.19	2103.26
377.41	2138.08
377.62	2256.86
377.84	2197.47
378.05	2314.20
378.27	2111.46
378.48	2248.67
378.69	2318.30
378.91	2230.24
379.12	2267.10
379.34	2207.71
379.55	2220.00
379.76	2283.49
379.98	2170.85
380.19	2258.91
380.41	2275.29
380.62	2252.77
380.83	2263.01
381.05	2164.70
381.26	2336.73
381.47	2265.05
381.69	2258.91
381.90	2314.20
382.12	2263.01
382.33	2119.65
382.54	2353.12
382.76	2308.06
382.97	2303.96
383.19	2281.44
383.40	2363.36
383.61	2281.44
383.83	2256.86
384.04	2265.05
384.25	2336.73
384.47	2410.46
384.68	2287.58
384.89	2312.16
385.11	2277.34
385.32	2318.30
385.54	2248.67
385.75	2338.78
385.96	2330.59
386.18	2330.59
386.39	2437.08
386.60	2326.49
386.82	2306.01
387.03	2447.32
387.24	2441.18
387.46	2381.79
387.67	2420.70
387.88	2387.93
388.10	2387.93
388.31	2371.55
388.52	2576.34
388.74	2459.61
388.95	2445.27
389.16	2373.60
389.38	2467.80
389.59	2578.39
389.80	2596.82
390.02	2533.34
390.23	2594.78
390.44	2471.90
390.66	2478.04
390.87	2430.94
391.08	2562.01
391.30	2670.55
391.51	2562.01
391.72	2559.96
391.94	2680.79
392.15	2631.64
392.36	2600.92
392.58	2519.00
392.79	2666.46
393.00	2572.25
393.22	2641.88
393.43	2625.50
393.64	2668.50
393.85	2695.13
394.07	2582.49
394.28	2664.41
394.49	2639.83
394.71	2672.60
394.92	2752.47
395.13	2629.59
395.35	2713.56
395.56	2652.12
395.77	2682.84
395.98	2719.70
396.20	2779.09
396.41	2785.24
396.62	2875.35
396.84	2666.46
397.05	2842.58
397.26	2852.82
397.47	2838.48
397.69	2787.29
397.90	2906.07
398.11	2838.48
398.32	2766.81
398.54	2936.79
398.75	2760.66
398.96	2932.69
399.18	3010.51
399.39	2861.01
399.60	2971.60
399.81	2791.38
400.03	2926.55
400.24	3213.26
400.45	2922.45
400.66	2979.79
400.88	2947.03
401.09	3094.48
401.30	2901.97
401.51	3108.82
401.73	3067.86
401.94	3049.43
402.15	3059.67
402.36	3071.95
402.58	3106.77
402.79	3110.86
403.00	3127.25
403.21	3074.00
403.43	3069.91
403.64	3168.21
403.85	3010.51
404.06	3145.68
404.27	3028.95
404.49	3143.63
404.70	3045.33
404.91	3065.81
405.12	3139.54
405.34	3227.60
405.55	3399.63
405.76	3024.85
405.97	3182.54
406.19	3411.92
406.40	3053.52
406.61	3182.54
406.82	3346.38
407.03	3301.33
407.25	3217.36
407.46	3264.46
407.67	3291.09
407.88	3434.44
408.09	3389.39
408.31	3301.33
408.52	3297.23
408.73	3295.18
408.94	3293.13
409.15	3368.91
409.37	3454.92
409.58	3440.59
409.79	3545.03
410.00	3506.12
410.21	3239.89
410.43	3375.05
410.64	3383.24
410.85	3407.82
411.06	3430.35
411.27	3485.64
411.48	3542.99
411.70	3444.68
411.91	3442.64
412.12	3637.19
412.33	3432.40
412.54	3663.82
412.76	3637.19
412.97	3463.12
413.18	3506.12
413.39	3477.45
413.60	3719.11
413.81	3602.38
414.03	3645.38
414.24	3512.27
414.45	3651.53
414.66	3469.26
414.87	3626.95
415.08	3538.89
415.30	3647.43
415.51	3735.50
415.72	3620.81
415.93	3659.72
416.14	3547.08
416.35	3672.01
416.56	3782.60
416.78	3788.74
416.99	3821.51
417.20	3737.54
417.41	3889.09
417.62	3794.89
417.83	3973.06
418.04	3717.06
418.26	3768.26
418.47	3727.30
418.68	3790.79
418.89	3852.23
419.10	4032.45
419.31	3919.81
419.52	3923.91
419.73	3870.66
419.95	3977.16
420.16	3764.17
420.37	3964.87
420.58	3925.96
420.79	3891.14
421.00	3942.34
421.21	3942.34
421.42	3999.68
421.63	4040.64
421.85	3921.86
422.06	3987.40
422.27	4093.89
422.48	4048.83
422.69	4075.46
422.90	4102.08
423.11	4128.70
423.32	4085.70
423.53	4186.05
423.75	4186.05
423.96	4251.58
424.17	4276.16
424.38	4362.17
424.59	4136.90
424.80	4394.94
425.01	4310.97
425.22	4147.14
425.43	4243.39
425.64	4526.01
425.85	4540.35
426.06	4489.15
426.28	4376.51
426.49	4388.80
426.70	4360.13
426.91	4401.08
427.12	4407.23
427.33	4456.38
427.54	4419.52
427.75	4485.05
427.96	4640.70
428.17	4388.80
428.38	4650.94
428.59	4607.93
428.80	4569.02
429.01	4575.16
429.23	4542.39
429.44	4849.59
429.65	4683.70
429.86	4720.57
430.07	4607.93
430.28	4673.46
430.49	4833.21
430.70	4814.77
430.91	4831.16
431.12	4734.90
431.33	4798.39
431.54	4919.22
431.75	4792.25
431.96	4833.21
432.17	4640.70
432.38	4853.69
432.59	5040.05
432.80	5044.15
433.01	5031.86
433.22	5070.77
433.43	4937.65
433.64	4984.76
433.85	5009.33
434.06	5048.24
434.27	5050.29
434.49	5126.07
434.70	5103.54
434.91	5138.35
435.12	5236.66
435.33	5156.79
435.54	5179.31
435.75	5097.39
435.96	5119.92
436.17	5128.11
436.38	5228.46
436.59	5363.63
436.80	5232.56
437.01	5474.22
437.22	5482.41
437.43	5478.32
437.64	5124.02
437.85	5480.36
438.06	5468.08
438.27	5377.97
438.48	5492.65
438.69	5629.87
438.90	5607.34
439.11	5420.97
439.32	5681.07
439.53	5537.71
439.74	5607.34
439.95	5595.05
440.16	5597.10
440.37	5687.21
440.57	5574.57
440.78	5758.89
440.99	5789.61
441.20	5668.78
441.41	5693.35
441.62	5883.81
441.83	5707.69
442.04	5869.48
442.25	5830.57
442.46	5849.00
442.67	5902.25
442.88	6274.98
443.09	5820.33
443.30	5992.36
443.51	5963.68
443.72	6221.73
443.93	5777.32
444.14	6221.73
444.35	5920.68
444.56	6066.08
444.77	6162.34
444.98	6111.14
445.19	6139.81
445.40	6133.67
445.61	6242.21
445.81	6217.63
446.02	6209.44
446.23	6274.98
446.44	6094.76
446.65	6344.61
446.86	6324.13
447.07	6373.28
447.28	6639.51
447.49	6502.30
447.70	6252.45
447.91	6537.12
448.12	6387.61
448.33	6539.16
448.54	6516.64
448.74	6412.19
448.95	6604.70
449.16	6506.40
449.37	6877.08
449.58	6555.55
449.79	6795.16
450.00	6322.08
450.21	6737.82
450.42	6844.31
450.63	6944.66
450.84	6905.75
451.05	6915.99
451.25	6860.70
451.46	6821.78
451.67	7169.94
451.88	6985.62
452.09	6967.19
452.30	6836.12
452.51	7045.01
452.72	7253.91
452.93	7239.57
453.13	6997.91
453.34	7028.63
453.55	7055.25
453.76	7165.84
453.97	7524.24
454.18	7354.26
454.39	7434.13
454.60	7296.91
454.81	7186.32
455.01	7434.13
455.22	7301.01
455.43	7378.83
455.64	7606.16
455.85	7778.19
456.06	7819.14
456.27	7673.74
456.48	7503.76
456.68	7786.38
456.89	7645.07
457.10	7741.32
457.31	7839.62
457.52	7741.32
457.73	7731.08
457.94	8134.53
458.14	7747.47
458.35	8261.51
458.56	8146.82
458.77	8056.71
458.98	8103.81
459.19	8005.51
459.39	8171.40
459.60	8382.34
459.81	8247.17
460.02	8288.13
460.23	8408.96
460.44	8423.30
460.65	8365.95
460.85	8570.75
461.06	8638.33
461.27	8294.27
461.48	8656.76
461.69	8744.83
461.89	8349.57
462.10	8603.52
462.31	8464.25
462.52	8562.56
462.73	8705.92
462.94	8898.42
463.14	8839.03
463.35	8773.50
463.56	9236.34
463.77	8957.82
463.98	8902.52
464.18	8892.28
464.39	9199.48
464.60	9295.73
464.81	9074.55
465.02	9207.67
465.23	9457.52
465.43	9244.53
465.64	9449.33
465.85	9326.45
466.06	9326.45
466.27	9674.60
466.47	9725.80
466.68	9731.95
466.89	9467.76
467.10	9592.69
467.30	9686.89
467.51	9897.83
467.72	9994.09
467.93	9731.95
468.14	10014.57
468.34	10071.91
468.55	10012.52
468.76	10088.29
468.97	10149.73
469.17	10291.04
469.38	10248.04
469.59	10219.36
469.80	10102.63
470.01	10209.12
470.21	10198.88
470.42	10518.37
470.63	10663.77
470.84	10409.83
471.04	10559.33
471.25	10700.64
471.46	10700.64
471.67	11028.31
471.87	10872.67
472.08	10837.85
472.29	10819.42
472.50	10784.60
472.70	11177.81
472.91	11044.70
473.12	11300.69
473.33	11272.02
473.53	11583.31
473.74	11358.03
473.95	11493.20
474.16	11528.02
474.36	11489.10
474.57	11931.47
474.78	11757.39
474.99	11962.19
475.19	11980.62
475.40	12109.64
475.61	12113.74
475.81	12261.19
476.02	12474.18
476.23	12339.01
476.44	12586.82
476.64	12502.85
476.85	12703.55
477.06	12625.73
477.27	12848.96
477.47	12951.35
477.68	12922.68
477.89	13356.85
478.09	12873.53
478.30	12867.39
478.51	13135.67
478.71	13094.71
478.92	13430.58
479.13	13442.87
479.34	13483.83
479.54	13479.73
479.75	13690.67
479.96	13602.61
480.16	13874.99
480.37	13821.74
480.58	14100.26
480.78	14403.36
480.99	14180.14
481.20	14563.11
481.41	14366.50
481.61	14364.45
481.82	14636.83
482.03	14571.30
482.23	14544.67
482.44	14984.99
482.65	14937.88
482.85	14886.68
483.06	14722.85
483.27	15161.11
483.47	15103.77
483.68	15365.91
483.89	15484.69
484.09	15464.21
484.30	15453.97
484.51	15777.55
484.71	15644.43
484.92	15673.10
485.13	15978.25
485.33	16113.42
485.54	16211.72
485.75	16299.78
485.95	16355.08
486.16	16582.40
486.37	16447.24
486.57	16588.55
486.78	16359.17
486.98	16719.62
487.19	16920.32
487.40	16998.14
487.60	17209.08
487.81	17161.98
488.02	17153.79
488.22	17321.72
488.43	17364.73
488.64	17348.34
488.84	17676.02
489.05	17893.10
489.25	17606.39
489.46	18077.42
489.67	17860.34
489.87	18222.83
490.08	18183.91
490.29	18073.32
490.49	18437.86
490.70	18646.76
490.90	18620.13
491.11	18603.75
491.32	18755.30
491.52	18501.35
491.73	18771.68
491.94	18820.83
492.14	19054.30
492.35	19164.89
492.55	19255.00
492.76	19285.72
492.97	19433.18
493.17	19416.79
493.38	19341.02
493.58	19893.97
493.79	19656.40
494.00	19846.87
494.20	20098.77
494.41	19926.74
494.61	19762.90
494.82	20346.57
495.02	20129.48
495.23	20227.79
495.44	20625.09
495.64	20573.89
495.85	20604.61
496.05	20774.60
496.26	20768.45
496.47	21202.62
496.67	20594.37
496.88	21366.46
497.08	21042.88
497.29	21440.18
497.49	21434.04
497.70	21520.06
497.91	21442.23
498.11	21620.41
498.32	21647.03
498.52	21948.08
498.73	22118.06
498.93	22017.71
499.14	22265.52
499.34	21993.14
499.55	22572.71
499.76	22077.10
499.96	22302.38
500.17	22552.23
500.37	22578.86
500.58	22476.46
500.78	22611.62
500.99	22767.27
501.19	23178.91
501.40	23109.28
501.60	22998.69
501.81	23131.81
502.02	22886.05
502.22	23109.28
502.43	23389.85
502.63	23477.91
502.84	23582.36
503.04	23529.11
503.25	23508.63
503.45	23613.08
503.66	23821.97
503.86	23793.30
504.07	23981.71
504.27	23875.22
504.48	24194.70
504.68	24184.46
504.89	24694.41
505.09	24678.02
505.30	24069.78
505.50	24364.68
505.71	24510.09
505.91	24450.70
506.12	24407.69
506.32	24540.81
506.53	24540.81
506.73	24692.36
506.94	24944.26
507.14	24751.75
507.35	24886.92
507.55	24868.48
507.76	25054.85
507.96	24907.40
508.17	24962.69
508.37	25235.07
508.58	25155.20
508.78	25360.00
508.99	25501.31
509.19	25353.85
509.40	25699.96
509.60	25544.31
509.81	25794.17
510.01	25720.44
510.22	25826.93
510.42	25636.47
510.63	26046.07
510.83	25624.18
511.04	25953.91
511.24	25982.58
511.44	26066.55
511.65	25986.68
511.85	25855.61
512.06	26312.30
512.26	26130.03
512.47	26242.67
512.67	26240.62
512.88	26451.56
513.08	26224.24
513.29	26705.51
513.49	26197.62
513.69	26674.79
513.90	26441.32
514.10	26672.74
514.31	26668.65
514.51	26586.73
514.72	26812.01
514.92	26791.53
515.13	26930.79
515.33	26863.21
515.53	26840.68
515.74	27100.77
515.94	27270.75
516.15	27299.42
516.35	27129.44
516.56	27385.44
516.76	26721.90
516.96	27223.65
517.17	27432.54
517.37	27186.79
517.58	27297.38
517.78	27541.08
517.99	27797.08
518.19	27881.05
518.39	27653.72
518.60	27907.67
518.80	28038.74
519.01	27915.86
519.21	28081.75
519.41	28153.43
519.62	27842.14
519.82	28210.77
520.03	28276.30
520.23	28145.23
520.43	27553.37
520.64	28728.91
520.84	28620.36
521.05	28245.58
521.25	28245.58
521.45	28714.57
521.66	28544.59
521.86	28784.20
522.07	28452.43
522.27	28575.31
522.47	28696.14
522.68	28945.99
522.88	28403.28
523.08	29027.91
523.29	29152.84
523.49	29097.54
523.70	29075.01
523.90	29398.59
524.10	29333.06
524.31	29597.24
524.51	28948.04
524.71	29433.41
524.92	29515.33
525.12	29791.80
525.33	29244.99
525.53	29494.85
525.73	29873.72
525.94	29546.05
526.14	29869.62
526.34	29888.06
526.55	30408.24
526.75	29935.16
526.95	30154.29
527.16	29924.92
527.36	29787.71
527.56	30180.92
527.77	30610.99
527.97	30445.10
528.17	30510.64
528.38	30750.25
528.58	30475.82
528.78	30719.53
528.99	30664.24
529.19	31000.10
529.39	30537.26
529.60	31229.48
529.80	31008.29
530.00	31002.15
530.21	31057.45
530.41	31295.01
530.61	31313.44
530.82	31501.86
531.02	31145.51
531.22	31419.94
531.43	31577.63
531.63	31462.94
531.83	32036.38
532.04	31942.17
532.24	31661.60
532.44	32058.90
532.64	32124.44
532.85	32349.71
533.05	31911.45
533.25	32142.87
533.46	32003.61
533.66	32704.01
533.86	32466.45
534.07	32751.12
534.27	32527.89
534.47	33113.61
534.67	32978.44
534.88	33039.88
535.08	33211.91
535.28	33465.86
535.49	33359.36
535.69	33113.61
535.89	33885.69
536.09	33326.60
536.30	33564.16
536.50	33508.86
536.70	33879.55
536.91	33502.72
537.11	33963.51
537.31	34020.86
537.51	33775.10
537.72	34387.44
537.92	34518.51
538.12	34125.30
538.32	34121.21
538.53	34313.72
538.73	34227.70
538.93	33777.15
539.13	34309.62
539.34	34194.93
539.54	34412.02
539.74	34725.36
539.94	34758.13
540.15	34422.26
540.35	34952.68
540.55	35073.51
540.75	34917.87
540.96	35180.01
541.16	34881.00
541.36	35165.67
541.56	35393.00
541.77	35542.50
541.97	35343.84
542.17	35565.03
542.37	35743.20
542.58	35560.93
542.78	35886.56
542.98	35775.97
543.18	35833.31
543.38	36128.22
543.59	36224.47
543.79	36050.39
543.99	36111.83
544.19	36165.08
544.40	36009.43
544.60	36097.50
544.80	36382.16
545.00	36453.84
545.20	36879.82
545.41	36562.39
545.61	36314.58
545.81	37197.26
546.01	36953.55
546.21	36611.54
546.42	36920.78
546.62	37103.05
546.82	36687.31
547.02	37486.02
547.22	37342.66
547.43	37414.34
547.63	37457.35
547.83	37707.20
548.03	37074.38
548.23	37451.20
548.44	37762.50
548.64	37846.46
548.84	37944.76
549.04	37692.86
549.24	37701.06
549.45	38100.41
549.65	37705.15
549.85	37936.57
550.05	38485.43
550.25	37791.17
550.45	38575.54
550.66	38149.56
550.86	38141.37
551.06	38325.69
551.26	38544.82
551.46	38778.29
551.66	38639.03
551.87	38378.93
552.07	38815.15
552.27	38540.72
552.47	39052.72
552.67	39204.27
552.87	38841.78
553.07	39204.27
553.28	39044.52
553.48	39155.11
553.68	39187.88
553.88	39386.54
554.08	39304.62
554.28	39583.14
554.48	39189.93
554.69	39507.37
554.89	39706.02
555.09	39407.01
555.29	39490.98
555.49	39687.59
555.69	39853.47
555.89	39972.25
556.10	40236.44
556.30	39603.62
556.50	40099.23
556.70	39712.16
556.90	40224.15
557.10	40658.32
557.30	39843.23
557.50	40535.45
557.70	40719.76
557.91	40570.26
558.11	40308.12
558.31	40983.95
558.51	40719.76
558.71	40801.68
558.91	40865.17
559.11	40805.78
559.31	40480.15
559.51	40773.01
559.72	40859.02
559.92	41082.25
560.12	41213.32
560.32	41133.45
560.52	40719.76
560.72	41526.66
560.92	41090.44
561.12	41305.48
561.32	41852.29
561.52	41237.90
561.72	41559.43
561.93	41356.68
562.13	41448.84
562.33	41268.62
562.53	41883.01
562.73	41674.12
562.93	42065.28
563.13	42075.52
563.33	42038.65
563.53	42204.54
563.73	41749.89
563.93	42063.23
564.13	42415.48
564.33	41923.97
564.53	42073.47
564.74	42341.75
564.94	41969.02
565.14	42212.73
565.34	42257.79
565.54	42624.37
565.74	42589.56
565.94	43261.29
566.14	42595.70
566.34	42333.56
566.54	42919.28
566.74	42481.02
566.94	42919.28
567.14	42806.64
567.34	42655.09
567.54	42952.05
567.74	43095.41
567.94	42820.98
568.14	43533.67
568.34	43603.30
568.54	43048.30
568.74	43263.34
568.94	43662.69
569.14	43920.74
569.34	43461.99
569.54	43398.51
569.75	43281.77
569.95	43496.81
570.15	43896.16
570.35	43302.25
570.55	44199.26
570.75	43928.93
570.95	44057.95
571.15	43953.51
571.35	44232.03
571.55	44244.32
571.75	43992.42
571.95	44598.62
572.15	44088.67
572.35	44166.49
572.55	44277.08
572.75	44356.96
572.95	44344.67
573.15	44641.62
573.35	44533.08
573.55	44270.94
573.75	44543.32
573.95	44864.85
574.15	44447.07
574.35	44952.91
574.55	44629.34
574.75	44455.26
574.95	44946.77
575.15	44959.06
575.34	44721.49
575.54	45137.23
575.74	45280.59
575.94	45155.66
576.14	45206.86
576.34	45894.98
576.54	45530.44
576.74	45655.37
576.94	45403.47
577.14	45417.80
577.34	45987.14
577.54	45225.29
577.74	45999.43
577.94	45813.06
578.14	45753.67
578.34	45872.45
578.54	45555.02
578.74	45839.68
578.94	45925.70
579.14	45550.92
579.34	45610.31
579.54	45911.36
579.74	46052.67
579.94	46419.26
580.13	46368.06
580.33	46341.44
580.53	46595.38
580.73	46232.89
580.93	46595.38
581.13	46400.83
581.33	46669.11
581.53	46712.12
581.73	46607.67
581.93	46675.26
582.13	46947.64
582.33	46816.57
582.53	46869.81
582.73	47035.70
582.92	46900.53
583.12	47326.51
583.32	47076.66
583.52	46695.74
583.72	46878.00
583.92	46941.49
584.12	47297.84
584.32	47338.80
584.52	47232.30
584.72	47072.56
584.92	48024.87
585.11	47891.75
585.31	47553.83
585.51	47318.32
585.71	47668.52
585.91	47889.70
586.11	47766.82
586.31	47748.39
586.51	47590.70
586.71	47439.15
586.91	47590.70
587.10	47963.43
587.30	48000.29
587.50	48143.65
587.70	47965.48
587.90	47785.25
588.10	47969.57
588.30	47961.38
588.50	48264.48
588.69	48463.13
588.89	48172.32
589.09	48506.14
589.29	48143.65
589.49	48555.29
589.69	48108.83
589.89	48264.48
590.08	48502.04
590.28	48504.09
590.48	48061.73
590.68	48448.80
590.88	48432.41
591.08	48299.30
591.28	48063.78
591.47	48960.79
591.67	48483.61
591.87	48227.62
592.07	48647.45
592.27	48659.74
592.47	48704.79
592.67	48536.86
592.86	48422.17
593.06	48698.65
593.26	48725.27
593.46	48794.90
593.66	48755.99
593.86	49143.06
594.05	49018.13
594.25	49138.96
594.45	48665.88
594.65	49001.75
594.85	48733.46
595.05	49128.72
595.24	48889.11
595.44	49186.07
595.64	48807.19
595.84	49118.48
596.04	49419.53
596.23	49091.86
596.43	49456.40
596.63	48915.73
596.83	49048.85
597.03	49360.14
597.22	49632.52
597.42	49403.15
597.62	49276.18
597.82	49644.81
598.02	49351.95
598.21	49816.84
598.41	49231.12
598.61	49753.35
598.81	49665.29
599.01	49874.18
599.20	49480.97
599.40	49837.32
599.60	49448.21
599.80	49556.75
600.00	49691.91
600.19	50038.02
600.39	49462.54
600.59	50013.44
600.79	50027.78
600.98	49972.49
601.18	50210.05
601.38	49947.91
601.58	50314.50
601.78	49896.71
601.97	49884.42
602.17	50380.03
602.37	50474.24
602.57	50099.46
602.76	50709.75
602.96	50144.51
603.16	50418.94
603.36	50228.48
603.55	50251.01
603.75	50257.15
603.95	50439.42
604.15	50554.11
604.34	50394.37
604.54	50832.63
604.74	50685.18
604.94	50349.31
605.13	50464.00
605.33	50586.88
605.53	50656.51
605.73	50808.06
605.92	50797.82
606.12	50812.15
606.32	50773.24
606.52	50601.21
606.71	50912.50
606.91	50851.06
607.11	51264.75
607.30	51025.14
607.50	51117.30
607.70	51035.38
607.90	51070.20
608.09	50967.80
608.29	50967.80
608.49	51289.33
608.68	50951.41
608.88	51223.79
609.08	51231.99
609.28	50898.17
609.47	50894.07
609.67	51682.54
609.87	51418.35
610.06	51223.79
610.26	51287.28
610.46	50855.16
610.66	51240.18
610.85	51696.88
611.05	51135.73
611.25	51313.90
611.44	51215.60
611.64	51258.61
611.84	51299.57
612.03	51340.53
612.23	51377.39
612.43	51528.94
612.62	51326.19
612.82	51389.68
613.02	51469.55
613.21	51320.05
613.41	51162.36
613.61	51440.88
613.80	51029.24
614.00	51399.92
614.20	51438.83
614.39	51537.13
614.59	51492.08
614.79	51315.95
614.98	51281.14
615.18	51619.05
615.38	51619.05
615.57	51483.89
615.77	51721.45
615.97	51379.44
616.16	51426.54
616.36	51080.44
616.56	51610.86
616.75	51811.56
616.95	51344.62
617.15	51778.79
617.34	51430.64
617.54	51088.63
617.74	51756.27
617.93	51647.72
618.13	51107.06
618.32	51399.92
618.52	51340.53
618.72	51836.14
618.91	51684.59
619.11	51143.92
619.31	51045.62
619.50	51619.05
619.70	51516.65
619.90	51102.96
620.09	51272.95
620.29	51514.61
620.48	51115.25
620.68	51815.66
620.88	51049.72
621.07	51152.12
621.27	51557.61
621.46	51041.53
621.66	51625.20
621.86	51453.17
622.05	51303.67
622.25	51791.08
622.44	50924.79
622.64	51100.92
622.84	51786.99
623.03	51485.93
623.23	51383.54
623.42	51254.51
623.62	51811.56
623.82	52047.08
624.01	51711.21
624.21	51530.99
624.40	51569.90
624.60	51647.72
624.80	51373.30
624.99	51660.01
625.19	51019.00
625.38	51475.69
625.58	51606.76
625.77	51098.87
625.97	51295.47
626.17	51371.25
626.36	51750.12
626.56	51850.47
626.75	51160.31
626.95	51860.71
627.14	51330.29
627.34	52051.17
627.54	51600.62
627.73	51655.92
627.93	51633.39
628.12	51582.19
628.32	51784.94
628.51	51803.37
628.71	51688.68
628.90	51930.34
629.10	51700.97
629.30	51723.50
629.49	51463.41
629.69	51655.92
629.88	51303.67
630.08	52088.04
630.27	52206.82
630.47	52198.63
630.66	51158.26
630.86	51584.24
631.05	51580.14
631.25	52092.13
631.44	51918.06
631.64	51574.00
631.84	51946.73
632.03	52352.23
632.23	52221.16
632.42	52438.24
632.62	51893.48
632.81	52002.02
633.01	51825.90
633.20	52649.18
633.40	52098.28
633.59	52137.19
633.79	51471.60
633.98	52391.14
634.18	52354.27
634.37	52172.00
634.57	51903.72
634.76	52124.90
634.96	52491.49
635.15	52434.14
635.35	52548.83
635.54	52194.53
635.74	52417.76
635.93	52100.32
636.13	52497.63
636.32	52544.73
636.52	51995.88
636.71	52557.02
636.91	52661.47
637.10	52630.75
637.30	52767.96
637.49	52413.66
637.69	52419.81
637.88	52739.29
638.08	52407.52
638.27	52931.80
638.46	52370.66
638.66	52546.78
638.85	52800.73
639.05	52958.42
639.24	52968.66
639.44	52651.23
639.63	52727.00
639.83	52876.51
640.02	53134.55
640.22	52948.18
640.41	53339.35
640.61	52640.99
640.80	53097.69
640.99	52896.98
641.19	53347.54
641.38	53179.60
641.58	52983.00
641.77	53130.45
641.97	53030.10
642.16	53384.40
642.36	53384.40
642.55	53595.34
642.74	53159.12
642.94	53728.46
643.13	53288.15
643.33	54166.73
643.52	53695.69
643.72	53624.01
643.91	53701.84
644.10	53605.58
644.30	53849.29
644.49	53300.43
644.69	54052.04
644.88	53857.48
645.08	53386.45
645.27	54269.12
645.46	53820.62
645.66	53742.80
645.85	53683.40
646.05	54097.09
646.24	53959.88
646.43	54293.70
646.63	54236.36
646.82	54131.91
647.02	54260.93
647.21	54539.46
647.40	54119.62
647.60	54258.88
647.79	54516.93
647.99	54314.18
648.18	53949.64
648.37	54975.67
648.57	54621.37
648.76	53974.22
648.96	54387.91
649.15	54457.54
649.34	54916.28
649.54	54201.54
649.73	54295.75
649.92	54924.47
650.12	54918.33
650.31	55006.39
650.51	54959.29
650.70	55168.18
650.89	54850.75
651.09	55473.33
651.28	54932.67
651.47	54828.22
651.67	54916.28
651.86	55442.61
652.06	54521.02
652.25	55217.33
652.44	54805.69
652.64	55000.25
652.83	54703.29
653.02	54901.95
653.22	54918.33
653.41	54873.27
653.60	54879.42
653.80	54875.32
653.99	55502.00
654.18	55055.54
654.38	54967.48
654.57	55340.21
654.76	55352.50
654.96	55198.90
655.15	54887.61
655.34	55340.21
655.54	54846.65
655.73	54793.40
655.92	55495.86
656.12	55458.99
656.31	54856.89
656.50	55219.38
656.70	55336.12
656.89	55067.83
657.08	55702.70
657.28	55719.09
657.47	55485.62
657.66	56075.43
657.86	55272.63
658.05	55917.74
658.24	55313.59
658.43	55295.16
658.63	55778.48
658.82	56198.31
659.01	56468.64
659.21	55813.29
659.40	55555.25
659.59	55606.45
659.79	56016.04
659.98	55968.94
660.17	56534.18
660.36	55739.57
660.56	55985.32
660.75	56304.80
660.94	56018.09
661.14	55839.92
661.33	56122.54
661.52	55542.96
661.71	56265.89
661.91	55458.99
662.10	55622.83
662.29	56024.23
662.49	56382.63
662.68	55895.21
662.87	55999.66
663.06	56057.00
663.26	56239.27
663.45	56313.00
663.64	56616.10
663.83	56296.61
664.03	56521.89
664.22	56079.53
664.41	55948.46
664.60	56081.58
664.80	56419.49
664.99	56034.47
665.18	56132.78
665.37	56110.25
665.57	56360.10
665.76	56636.58
665.95	56280.23
666.14	56353.96
666.34	56173.73
666.53	56181.93
666.72	56063.14
666.91	55991.47
667.11	55901.36
667.30	55956.65
667.49	56071.34
667.68	55983.27
667.87	56249.51
668.07	56321.19
668.26	56241.32
668.45	56439.97
668.64	55975.08
668.84	56579.23
669.03	56433.83
669.22	55993.51
669.41	56399.01
669.60	56597.66
669.80	56261.80
669.99	56005.80
670.18	56460.45
670.37	56390.82
670.57	56546.47
670.76	56274.09
670.95	56566.94
671.14	56560.80
671.33	56186.02
671.53	56616.10
671.72	56200.36
671.91	56169.64
672.10	56413.35
672.29	56415.40
672.48	56345.76
672.68	56579.23
672.87	56009.90
673.06	56034.47
673.25	55977.13
673.44	56112.30
673.64	56431.78
673.83	55882.92
674.02	56411.30
674.21	55743.66
674.40	56269.99
674.59	55753.90
674.79	56292.52
674.98	55817.39
675.17	56138.92
675.36	56163.50
675.55	56284.33
675.74	56005.80
675.94	55450.80
676.13	55696.56
676.32	56435.87
676.51	56323.24
676.70	56087.72
676.89	56140.97
677.08	56177.83
677.28	55995.56
677.47	56204.45
677.66	56013.99
677.85	55776.43
678.04	56237.22
678.23	56149.16
678.42	56276.13
678.62	55801.00
678.81	56339.62
679.00	55942.31
679.19	56548.51
679.38	55854.25
679.57	55874.73
679.76	55975.08
679.96	56130.73
680.15	56186.02
680.34	55854.25
680.53	56521.89
680.72	56013.99
680.91	56245.41
681.10	55866.54
681.29	55547.06
681.48	56050.86
681.68	55856.30
681.87	55682.22
682.06	55577.78
682.25	55205.05
682.44	55444.66
682.63	55405.75
682.82	55483.57
683.01	55786.67
683.20	54531.26
683.39	55143.61
683.59	55248.05
683.78	55082.17
683.97	55430.32
684.16	54951.10
684.35	54858.94
684.54	55172.28
684.73	54760.64
684.92	54992.06
685.11	54842.56
685.30	55080.12
685.49	55514.29
685.69	54981.82
685.88	54860.99
686.07	54928.57
686.26	55325.88
686.45	55186.61
686.64	55151.80
686.83	54629.57
687.02	54885.56
687.21	55166.13
687.40	54674.62
687.59	54514.88
687.78	54328.52
687.97	55008.44
688.16	54648.00
688.35	54707.39
688.54	54502.59
688.74	54238.40
688.93	54627.52
689.12	54330.56
689.31	54392.00
689.50	54451.39
689.69	54680.77
689.88	53804.24
690.07	54232.26
690.26	53955.78
690.45	54396.10
690.64	54396.10
690.83	54269.12
691.02	54127.81
691.21	54236.36
691.40	53918.92
691.59	54109.38
691.78	54146.25
691.97	54056.14
692.16	54011.08
692.35	54074.57
692.54	53789.90
692.73	53976.26
692.92	53916.87
693.11	53535.95
693.30	53916.87
693.49	53636.30
693.68	53781.71
693.87	53699.79
694.06	53163.22
694.25	53290.19
694.44	53419.22
694.63	53728.46
694.82	54088.90
695.01	53621.97
695.20	52843.74
695.39	53427.41
695.58	53359.83
695.77	53112.02
695.96	53058.77
696.15	53402.83
696.34	53026.01
696.53	53302.48
696.72	53105.88
696.91	52999.38
697.10	53548.24
697.29	52878.55
697.48	52944.09
697.67	52704.48
697.86	52421.86
698.05	52778.20
698.24	52714.72
698.43	52532.45
698.62	52886.74
698.81	52882.65
699.00	53126.36
699.19	52524.25
699.38	52638.94
699.57	52487.39
699.76	53195.99
699.95	52581.60
700.14	52088.04
700.32	52149.48
700.51	52391.14
700.70	52372.70
700.89	52679.90
701.08	52792.54
701.27	51961.06
701.46	52301.03
701.65	51664.11
701.84	52188.39
702.03	52245.73
702.22	51524.85
702.41	51987.69
702.60	52145.38
702.79	51666.16
702.98	51754.22
703.17	51789.03
703.35	51361.01
703.54	51287.28
703.73	51795.18
703.92	51535.09
704.11	51129.59
704.30	51191.03
704.49	51414.26
704.68	51336.43
704.87	51127.54
705.06	51150.07
705.25	50980.09
705.43	51205.36
705.62	51436.78
705.81	51399.92
706.00	51025.14
706.19	50945.27
706.38	50701.56
706.57	50814.20
706.76	50793.72
706.95	50799.86
707.14	50394.37
707.32	50799.86
707.51	50441.47
707.70	50525.44
707.89	50685.18
708.08	50584.83
708.27	50640.12
708.46	51180.79
708.65	50697.47
708.84	50959.61
709.02	50961.65
709.21	50912.50
709.40	50566.40
709.59	50492.67
709.78	50167.04
709.97	50773.24
710.16	50048.26
710.34	49755.40
710.53	50470.14
710.72	49999.11
710.91	50232.58
711.10	50666.75
711.29	50347.26
711.48	50099.46
711.66	50173.19
711.85	50105.60
712.04	49454.35
712.23	49634.57
712.42	49931.53
712.61	49757.45
712.80	49767.69
712.98	49571.08
713.17	49429.77
713.36	49607.95
713.55	49411.34
713.74	49708.30
713.93	49671.43
714.11	49653.00
714.30	49007.89
714.49	49026.32
714.68	49503.50
714.87	49313.04
715.06	49675.53
715.24	49116.43
715.43	48907.54
715.62	48925.97
715.81	48821.53
716.00	48866.58
716.18	49050.90
716.37	48833.81
716.56	48911.64
716.75	49141.01
716.94	48979.22
717.12	48442.65
717.31	48182.56
717.50	48479.52
717.69	48567.58
717.88	48379.17
718.06	48569.63
718.25	48694.55
718.44	48239.90
718.63	48282.91
718.82	48016.68
719.00	48084.26
719.19	48743.70
719.38	48143.65
719.57	47965.48
719.76	47617.32
719.94	47490.35
720.13	48186.66
720.32	48104.74
720.51	47709.48
720.69	47445.29
720.88	47772.97
721.07	47836.45
721.26	47273.26
721.44	47461.68
721.63	47461.68
721.82	47097.14
722.01	47029.55
722.20	47301.93
722.38	46845.24
722.57	46587.19
722.76	46771.51
722.95	46843.19
723.13	46746.93
723.32	46323.01
723.51	46470.46
723.70	46601.53
723.88	47027.51
724.07	46097.73
724.26	46726.46
724.44	46445.88
724.63	46710.07
724.82	46478.65
725.01	46062.91
725.19	46386.49
725.38	46236.99
725.57	46163.26
725.76	46540.09
725.94	45858.12
726.13	46320.96
726.32	45702.47
726.51	45946.18
726.69	46419.26
726.88	46187.84
727.07	45720.90
727.25	46069.06
727.44	45888.84
727.63	45833.54
727.82	45833.54
728.00	45757.77
728.19	45854.02
728.38	45847.88
728.56	45350.22
728.75	46071.10
728.94	45618.50
729.12	45534.54
729.31	46224.70
729.50	45780.29
729.69	45854.02
729.87	45657.42
730.06	45718.85
730.25	45837.64
730.43	46302.53
730.62	45636.94
730.81	45753.67
730.99	46255.42
731.18	45548.87
731.37	45579.59
731.55	45638.98
731.74	45831.49
731.93	45833.54
732.11	45913.41
732.30	46089.54
732.49	45702.47
732.67	45620.55
732.86	45481.29
733.05	45636.94
733.23	45438.28
733.42	45794.63
733.61	45802.82
733.79	45413.71
733.98	45872.45
734.17	45690.18
734.35	45694.28
734.54	45284.68
734.73	45401.42
734.91	45829.44
735.10	45311.31
735.29	45952.32
735.47	45428.04
735.66	45579.59
735.84	45790.53
736.03	45264.21
736.22	45608.26
736.40	45249.87
736.59	45679.94
736.78	45444.43
736.96	45028.69
737.15	45266.25
737.33	45157.71
737.52	44922.19
737.71	45061.46
737.89	44866.90
738.08	44897.62
738.27	44821.84
738.45	45378.89
738.64	44920.15
738.82	45040.98
739.01	45319.50
739.20	45170.00
739.38	45038.93
739.57	45368.65
739.75	45352.27
739.94	44600.66
740.13	45120.85
740.31	44688.73
740.50	45010.26
740.68	45122.90
740.87	45022.54
741.06	45354.32
741.24	44719.45
741.43	44442.97
741.61	44653.91
741.80	44860.76
741.99	44631.38
742.17	44504.41
742.36	44940.63
742.54	44823.89
742.73	44397.91
742.91	44920.15
743.10	44774.74
743.29	44756.31
743.47	44688.73
743.66	44625.24
743.84	44606.81
744.03	44270.94
744.21	44445.02
744.40	44723.54
744.59	44641.62
744.77	44731.73
744.96	44258.65
745.14	44719.45
745.33	44899.67
745.51	44596.57
745.70	44395.87
745.88	44221.79
746.07	44121.44
746.26	44070.24
746.44	44389.72
746.63	44369.24
746.81	44537.18
747.00	43814.24
747.18	44528.98
747.37	44459.35
747.55	44047.71
747.74	44569.94
747.92	43859.30
748.11	44186.97
748.29	44242.27
748.48	44062.05
748.66	43775.33
748.85	43742.56
749.03	43785.57
749.22	43685.22
749.41	43914.59
749.59	43887.97
749.78	43902.31
749.96	43781.48
750.15	43928.93
750.33	43816.29
750.52	43804.00
750.70	43873.63
750.89	43423.08
751.07	43238.76
751.26	43423.08
751.44	43591.01
751.63	43404.65
751.81	43742.56
752.00	43312.49
752.18	43631.97
752.37	43242.86
752.55	43412.84
752.74	43386.22
752.92	43525.48
753.10	43066.73
753.29	43285.87
753.47	43285.87
753.66	43402.60
753.84	43398.51
754.03	42835.31
754.21	42931.57
754.40	43144.56
754.58	43038.06
754.77	42587.51
754.95	43013.49
755.14	42900.85
755.32	42859.89
755.51	42558.84
755.69	42687.86
755.88	43224.43
756.06	42966.38
756.24	42700.15
756.43	42780.02
756.61	43074.93
756.80	42763.64
756.98	42792.31
757.17	42820.98
757.35	43107.69
757.54	42685.81
757.72	42861.94
757.90	42829.17
758.09	42564.98
758.27	42567.03
758.46	42505.59
758.64	42583.41
758.83	42661.24
759.01	42935.66
759.19	42548.60
759.38	42653.05
759.56	43156.85
759.75	42782.07
759.93	42634.61
760.12	42591.61
760.30	42538.36
760.48	42327.42
760.67	42239.36
760.85	42505.59
761.04	42648.95
761.22	42847.60
761.40	42153.34
761.59	42263.93
761.77	41915.78
761.96	42313.08
762.14	42374.52
762.32	41614.72
762.51	41864.58
762.69	41971.07
762.88	41772.42
763.06	41938.30
763.24	41948.54
763.43	41678.21
763.61	41930.11
763.80	42042.75
763.98	41751.94
764.16	42179.96
764.35	41932.16
764.53	41733.51
764.72	41819.52
764.90	41715.08
765.08	41788.80
765.27	41309.58
765.45	41381.26
765.63	41168.27
765.82	41670.02
766.00	41463.18
766.18	41633.16
766.37	41723.27
766.55	41594.25
766.74	41573.77
766.92	41276.81
767.10	41594.25
767.29	41418.12
767.47	40719.76
767.65	41473.42
767.84	40938.90
768.02	41125.26
768.20	40916.37
768.39	41074.06
768.57	40768.91
768.75	41295.24
768.94	41473.42
769.12	41063.82
769.30	40973.71
769.49	40961.42
769.67	40916.37
769.85	40275.35
770.04	40742.29
770.22	40404.38
770.40	40498.58
770.59	40230.30
770.77	40600.98
770.95	40603.03
771.14	39980.45
771.32	40150.43
771.50	39955.87
771.69	40504.73
771.87	40328.60
772.05	40244.63
772.24	40076.70
772.42	39996.83
772.60	40113.56
772.78	39802.27
772.97	40218.01
773.15	40088.99
773.33	40240.54
773.52	40078.75
773.70	40406.42
773.88	40285.59
774.07	40115.61
774.25	40267.16
774.43	40195.48
774.61	40375.70
774.80	40416.66
774.98	40234.39
775.16	40379.80
775.34	40220.06
775.53	40121.76
775.71	40756.63
775.89	40625.56
776.08	40211.87
776.26	40633.75
776.44	40398.23
776.62	40406.42
776.81	39962.01
776.99	40154.52
777.17	40461.72
777.35	40474.01
777.54	40734.10
777.72	40519.06
777.90	40457.62
778.08	40777.11
778.27	40500.63
778.45	40553.88
778.63	41184.65
778.81	40570.26
779.00	41211.28
779.18	40703.38
779.36	41182.60
779.54	40666.52
779.73	40672.66
779.91	40930.70
780.09	40928.66
780.27	41162.12
780.46	40856.98
780.64	40971.66
780.82	41012.62
781.00	40736.15
781.19	41158.03
781.37	41397.64
781.55	41229.71
781.73	41631.11
781.91	41336.20
782.10	40945.04
782.28	41272.71
782.46	41219.47
782.64	41446.79
782.82	41211.28
783.01	41481.61
783.19	41663.88
783.37	41336.20
783.55	41760.13
783.74	41690.50
783.92	41309.58
784.10	41749.89
784.28	41573.77
784.46	41430.41
784.64	41391.50
784.83	41227.66
785.01	41880.96
785.19	41301.39
785.37	41717.12
785.55	41809.28
785.74	41280.91
785.92	41385.35
786.10	41672.07
786.28	41029.01
786.46	41121.16
786.64	40930.70
786.83	41418.12
787.01	41362.82
787.19	41282.95
787.37	41115.02
787.55	41391.50
787.74	41076.11
787.92	41377.16
788.10	41018.77
788.28	40379.80
788.46	40942.99
788.64	40924.56
788.82	40768.91
789.01	41303.43
789.19	41006.48
789.37	40793.49
789.55	40773.01
789.73	40711.57
789.91	40695.19
790.09	40654.23
790.28	40312.22
790.46	40310.17
790.64	40486.29
790.82	40293.79
791.00	40453.53
791.18	40144.28
791.36	40252.83
791.55	39951.77
791.73	40220.06
791.91	40103.32
792.09	39876.00
792.27	39945.63
792.45	39644.58
792.63	39753.12
792.81	39417.25
793.00	39697.83
793.18	39708.07
793.36	39480.74
793.54	39269.80
793.72	39073.20
793.90	39130.54
794.08	38987.18
794.26	39267.75
794.44	38751.66
794.62	39042.48
794.81	38714.80
794.99	38645.17
795.17	38600.12
795.35	38495.67
795.53	38731.18
795.71	38794.67
795.89	38628.79
796.07	38172.09
796.25	38000.06
796.43	37963.20
796.61	37950.91
796.80	37830.08
796.98	38102.46
797.16	37793.22
797.34	37830.08
797.52	37946.81
797.70	37647.81
797.88	37582.27
798.06	37383.62
798.24	37461.44
798.42	37426.63
798.60	37207.50
798.78	37316.04
798.96	37019.08
799.14	36924.88
799.32	37164.49
799.51	36912.59
799.69	37141.96
799.87	36509.14
800.05	36478.42
800.23	36693.46
800.41	36503.00
800.59	36410.84
800.77	36515.28
800.95	35818.97
801.13	36488.66
801.31	35995.10
801.49	36210.14
801.67	36287.96
801.85	36177.37
802.03	35669.47
802.21	35646.94
802.39	35378.66
802.57	35511.78
802.75	35845.60
802.93	35188.20
803.11	35309.03
803.29	35427.81
803.47	34928.11
803.65	35100.14
803.83	35093.99
804.01	34969.07
804.19	34934.25
804.37	34448.88
804.55	34264.57
804.73	34538.99
804.91	34526.71
805.09	34762.22
805.27	34807.28
805.45	34389.49
805.63	34500.08
805.81	34440.69
805.99	34307.57
806.17	34432.50
806.35	34170.36
806.53	33963.51
806.71	33842.68
806.89	34166.26
807.07	33910.27
807.25	33525.25
807.43	33533.44
807.61	33709.57
807.79	33695.23
807.97	33285.64
808.15	33138.18
808.33	33517.06
808.51	33320.45
808.69	33123.85
808.87	32867.85
809.05	32882.19
809.23	32882.19
809.41	32914.95
809.59	33031.69
809.77	33121.80
809.95	32624.14
810.13	32654.86
810.31	32478.74
810.49	32689.68
810.67	32441.87
810.84	32548.37
811.02	32579.09
811.20	31954.46
811.38	32308.76
811.56	32106.01
811.74	32118.29
811.92	31940.12
812.10	32278.04
812.28	31987.22
812.46	31741.47
812.64	31972.89
812.82	31546.91
813.00	31936.02
813.18	31809.05
813.36	31671.84
813.53	31362.59
813.71	31671.84
813.89	31514.14
814.07	31475.23
814.25	31764.00
814.43	31479.33
814.61	30850.60
814.79	31149.60
814.97	31104.55
815.15	30993.96
815.33	30723.63
815.50	30459.44
815.68	31016.49
815.86	30942.76
816.04	31008.29
816.22	30496.30
816.40	30846.51
816.58	30391.86
816.76	30619.18
816.94	30555.69
817.11	30455.34
817.29	30715.44
817.47	30166.58
817.65	29951.54
817.83	30363.18
818.01	29734.46
818.19	30031.41
818.37	29683.26
818.54	29756.99
818.72	29734.46
818.90	29701.69
819.08	29494.85
819.26	29797.95
819.44	29849.14
819.62	29580.86
819.80	29584.96
819.97	29277.76
820.15	29451.84
820.33	29210.18
820.51	29716.03
820.69	29023.81
820.87	29216.32
821.05	29488.70
821.22	29208.13
821.40	28882.50
821.58	29036.10
821.76	28948.04
821.94	28915.27
822.12	29025.86
822.29	28864.07
822.47	28579.40
822.65	28796.49
822.83	28667.47
823.01	28661.32
823.19	28718.67
823.36	28526.16
823.54	28225.11
823.72	28501.58
823.90	28368.46
824.08	28012.12
824.25	28649.03
824.43	27977.30
824.61	28122.71
824.79	28567.12
824.97	27981.40
825.15	28055.12
825.32	28218.96
825.50	27745.88
825.68	27760.22
825.86	27899.48
826.04	28200.53
826.21	27719.26
826.39	27811.42
826.57	27573.85
826.75	27711.07
826.93	27258.46
827.10	27698.78
827.28	27424.35
827.46	27364.96
827.64	27491.93
827.81	27336.29
827.99	27289.18
828.17	27653.72
828.35	26828.39
828.53	27481.69
828.70	26971.75
828.88	27162.21
829.06	27002.47
829.24	27246.18
829.41	26955.36
829.59	27289.18
829.77	27043.43
829.95	26967.65
830.12	26873.45
830.30	26949.22
830.48	27012.71
830.66	26685.03
830.84	26719.85
831.01	26429.04
831.19	26629.74
831.37	26416.75
831.55	26435.18
831.72	26615.40
831.90	26285.68
832.08	26426.99
832.25	26214.00
832.43	26322.54
832.61	26214.00
832.79	26461.80
832.96	25992.82
833.14	26373.74
833.32	26103.41
833.50	26076.79
833.67	26113.65
833.85	26261.10
834.03	25816.69
834.20	25747.06
834.38	26072.69
834.56	26306.16
834.74	25403.00
834.91	25941.62
835.09	25869.94
835.27	25337.47
835.44	25355.90
835.62	25421.44
835.80	25181.82
835.98	25665.14
836.15	25884.28
836.33	25456.25
836.51	25667.19
836.68	25161.34
836.86	25329.28
837.04	25116.29
837.21	25261.69
837.39	25177.73
837.57	25222.78
837.75	25464.44
837.92	24893.06
838.10	25155.20
838.28	24893.06
838.45	24979.07
838.63	24569.48
838.81	24880.77
838.98	24897.16
839.16	24805.00
839.34	24563.34
839.51	24710.79
839.69	24327.82
839.87	24610.44
840.04	24520.33
840.22	24628.87
840.40	24729.22
840.57	24383.12
840.75	24571.53
840.93	24336.01
841.10	24221.33
841.28	24501.90
841.46	24372.88
841.63	24426.12
841.81	24161.94
841.98	24290.96
842.16	24282.77
842.34	24374.92
842.51	23924.37
842.69	24075.92
842.87	24118.93
843.04	24211.09
843.22	23778.97
843.40	23940.75
843.57	23907.99
843.75	23864.98
843.92	23789.20
844.10	23795.35
844.28	23877.27
844.45	23563.93
844.63	23617.18
844.81	23815.83
844.98	23752.34
845.16	23733.91
845.33	23713.43
845.51	23414.43
845.69	23604.89
845.86	23627.42
846.04	23375.52
846.21	23484.06
846.39	23275.16
846.57	23150.24
846.74	23508.63
846.92	23279.26
847.09	23316.12
847.27	23133.86
847.45	22994.59
847.62	23328.41
847.80	23203.49
847.97	23404.19
848.15	23195.29
848.32	22941.35
848.50	22955.68
848.68	22742.69
848.85	23056.03
849.03	22859.43
849.20	23060.13
849.38	22494.89
849.56	22529.70
849.73	22705.83
849.91	22806.18
850.08	22818.47
850.26	22535.85
850.43	22644.39
850.61	22363.82
850.78	22075.06
850.96	22363.82
851.14	22234.80
851.31	22525.61
851.49	22267.56
851.66	22683.30
851.84	22261.42
852.01	22304.43
852.19	22470.31
852.36	22236.84
852.54	22189.74
852.71	22003.38
852.89	22150.83
853.07	22118.06
853.24	22453.93
853.42	21972.66
853.59	21868.21
853.77	22304.43
853.94	22052.53
854.12	22316.72
854.29	21771.96
854.47	21980.85
854.64	21857.97
854.82	21667.51
854.99	21827.25
855.17	21890.74
855.34	21851.83
855.52	21702.32
855.69	21843.63
855.87	21831.35
856.04	21395.13
856.22	21546.68
856.39	21417.66
856.57	21382.84
856.74	21456.57
856.92	21284.54
857.09	21335.74
857.27	21343.93
857.44	21518.01
857.62	21370.55
857.79	21284.54
857.97	21268.16
858.14	21069.50
858.32	21108.41
858.49	21012.16
858.67	21042.88
858.84	21085.89
859.02	21229.24
859.19	20985.54
859.37	20819.65
859.54	20926.14
859.72	20881.09
859.89	20924.10
860.06	20870.85
860.24	20958.91
860.41	20893.38
860.59	20741.83
860.76	20956.86
860.94	20469.45
861.11	20743.88
861.29	20754.12
861.46	20637.38
861.64	20500.17
861.81	20577.99
861.98	20416.20
862.16	20326.09
862.33	20324.04
862.51	20395.72
862.68	20582.09
862.86	20084.43
863.03	20268.75
863.21	20340.43
863.38	20125.39
863.55	20174.54
863.73	20354.76
863.90	20412.10
864.08	20156.11
864.25	20246.22
864.43	19562.20
864.60	19795.67
864.77	19986.13
864.95	20047.57
865.12	19664.60
865.30	19853.01
865.47	19805.91
865.64	19961.55
865.82	19994.32
865.99	20131.53
866.17	19908.30
866.34	19781.33
866.51	19373.78
866.69	19576.53
866.86	19832.53
867.04	19490.52
867.21	19443.42
867.38	19453.66
867.56	19609.30
867.73	19066.59
867.91	19152.60
868.08	19199.71
868.25	19035.87
868.43	19105.50
868.60	18908.90
868.78	19181.28
868.95	19234.52
869.12	19285.72
869.30	19216.09
869.47	19062.49
869.64	18970.33
869.82	18964.19
869.99	18865.89
870.16	19232.47
870.34	18968.29
870.51	19207.90
870.69	18695.91
870.86	19007.20
871.03	18820.83
871.21	18628.32
871.38	19085.02
871.55	18657.00
871.73	18509.54
871.90	18657.00
872.07	18480.87
872.25	18515.69
872.42	18527.97
872.59	18618.08
872.77	18501.35
872.94	18427.62
873.11	18626.28
873.29	18433.77
873.46	18233.07
873.63	18362.09
873.81	18380.52
873.98	18130.67
874.15	17942.25
874.33	17979.12
874.50	18134.76
874.67	17895.15
874.85	17772.27
875.02	17977.07
875.19	17710.83
875.37	17895.15
875.54	17860.34
875.71	17835.76
875.88	17655.54
876.06	17755.89
876.23	17825.52
876.40	17227.51
876.58	17471.22
876.75	17727.22
876.92	17196.79
877.10	17768.18
877.27	17503.99
877.44	17426.17
877.61	17385.21
877.79	17501.94
877.96	17121.02
878.13	17192.70
878.31	17225.47
878.48	17028.86
878.65	16920.32
878.82	17209.08
879.00	16924.41
879.17	17039.10
879.34	17172.22
879.51	17051.39
879.69	16891.65
879.86	16824.06
880.03	16846.59
880.21	16953.09
880.38	16781.06
880.55	17004.28
880.72	16566.02
880.90	16561.92
881.07	16649.99
881.24	16516.87
881.41	16860.93
881.59	16574.21
881.76	16631.55
881.93	16600.83
882.10	16553.73
882.28	16494.34
882.45	16535.30
882.62	16600.83
882.79	16582.40
882.96	16191.24
883.14	16389.89
883.31	16502.53
883.48	16289.54
883.65	16267.02
883.83	16441.09
884.00	16420.61
884.17	16260.87
884.34	16232.20
884.51	16199.43
884.69	16113.42
884.86	15963.92
885.03	16017.16
885.20	15984.40
885.38	16199.43
885.55	16150.28
885.72	15963.92
885.89	16160.52
886.06	15982.35
886.24	16160.52
886.41	15888.14
886.58	16101.13
886.75	15929.10
886.92	15726.35
887.10	15898.38
887.27	15779.60
887.44	15810.32
887.61	16049.93
887.78	15992.59
887.95	15687.44
888.13	15970.06
888.30	15800.08
888.47	15767.31
888.64	15804.17
888.81	15740.69
888.99	15697.68
889.16	15435.54
889.33	15165.21
889.50	15300.37
889.67	15456.02
889.84	15652.63
890.01	15486.74
890.19	15539.99
890.36	15681.30
890.53	15327.00
890.70	15267.61
890.87	15314.71
891.04	15234.84
891.22	15402.77
891.39	15238.94
891.56	15267.61
891.73	15089.43
891.90	15318.81
892.07	15202.07
892.24	15066.91
892.42	14925.60
892.59	15243.03
892.76	14749.47
892.93	15046.43
893.10	15120.15
893.27	14763.81
893.44	14872.35
893.61	14632.74
893.79	15146.78
893.96	14761.76
894.13	14733.09
894.30	14870.30
894.47	14939.93
894.64	15054.62
894.81	14948.12
894.98	14868.25
895.15	14835.49
895.33	14835.49
895.50	14901.02
895.67	14864.16
895.84	14907.16
896.01	14724.90
896.18	14628.64
896.35	14896.92
896.52	14671.65
896.69	14739.23
896.86	14849.82
897.04	14915.36
897.21	14589.73
897.38	14577.44
897.55	14595.87
897.72	14671.65
897.89	14491.43
898.06	15034.14
898.23	14759.71
898.40	14991.13
898.57	14812.96
898.74	14626.59
898.91	14708.51
899.08	14751.52
899.26	14778.14
899.43	14733.09
899.60	14393.12
899.77	14921.50
899.94	14520.10
900.11	14352.16
900.28	14612.26
900.45	14452.52
900.62	14499.62
900.79	14792.48
900.96	14614.30
901.13	14694.18
901.30	14604.07
901.47	14479.14
901.64	14552.87
901.81	14421.80
901.98	14462.76
902.15	14688.03
902.32	14526.24
902.49	14481.19
902.66	14638.88
902.83	14477.09
903.01	14429.99
903.18	14581.54
903.35	14692.13
903.52	14671.65
903.69	14587.68
903.86	14589.73
904.03	14561.06
904.20	14700.32
904.37	14782.24
904.54	14583.59
904.71	14331.69
904.88	14524.19
905.05	14550.82
905.22	14546.72
905.39	14585.63
905.56	14647.07
905.73	14739.23
905.90	14550.82
906.07	14399.27
906.24	14530.34
906.41	14346.02
906.58	14772.00
906.75	14403.36
906.92	14477.09
907.09	14454.56
907.26	14690.08
907.43	14544.67
907.60	14421.80
907.77	14532.39
907.93	14331.69
908.10	14503.71
908.27	14616.35
908.44	14366.50
908.61	14419.75
908.78	14311.21
908.95	14581.54
909.12	14303.01
909.29	14382.88
909.46	14505.76
909.63	14356.26
909.80	14507.81
909.97	14569.25
910.14	14757.66
910.31	14384.93
910.48	14616.35
910.65	14335.78
910.82	14454.56
910.99	14473.00
911.16	14270.25
911.33	14339.88
911.50	14092.07
911.66	14200.62
911.83	14343.97
912.00	14239.53
912.17	14051.11
912.34	14167.85
912.51	14085.93
912.68	14020.39
912.85	13907.76
913.02	14108.46
913.19	13991.72
913.36	14161.70
913.53	14317.35
913.70	13870.89
913.86	13999.91
914.03	13834.03
914.20	13907.76
914.37	13936.43
914.54	13743.92
914.71	13877.04
914.88	13848.36
915.05	13766.45
915.22	14102.31
915.39	13737.77
915.55	13590.32
915.72	13713.20
915.89	13817.65
916.06	13436.72
916.23	13397.81
916.40	13557.55
916.57	13561.65
916.74	13578.03
916.91	13387.57
917.07	13315.89
917.24	13350.71
917.41	13479.73
917.58	13418.29
917.75	13297.46
917.92	13131.58
918.09	13256.50
918.26	13147.96
918.42	13256.50
918.59	13150.01
918.76	12891.96
918.93	12906.30
919.10	12982.07
919.27	12875.58
919.44	13027.13
919.60	13236.02
919.77	12986.17
919.94	12783.42
920.11	12789.56
920.28	12785.47
920.45	12799.80
920.61	12699.45
920.78	12748.61
920.95	12486.47
921.12	12549.95
921.29	12568.38
921.46	12502.85
921.62	12308.29
921.79	12590.91
921.96	12222.28
922.13	12382.02
922.30	12392.26
922.47	12126.02
922.63	12250.95
922.80	12212.04
922.97	12255.04
923.14	11945.80
923.31	11962.19
923.47	11865.93
923.64	12093.26
923.81	11843.40
923.98	11976.52
924.15	11738.96
924.32	11747.15
924.48	11751.24
924.65	11892.55
924.82	11542.35
924.99	11677.52
925.15	11618.13
925.32	11571.02
925.49	11310.93
925.66	11442.00
925.83	11308.88
925.99	11355.99
926.16	11628.37
926.33	11405.14
926.50	11081.56
926.67	11411.28
926.83	11173.72
927.00	11032.41
927.17	11071.32
927.34	10973.02
927.50	11159.38
927.67	11149.14
927.84	10997.59
928.01	10876.76
928.17	10915.67
928.34	10921.82
928.51	10788.70
928.68	10782.56
928.84	10751.84
929.01	10532.70
929.18	10315.62
929.35	10487.65
929.51	10588.00
929.68	10303.33
929.85	10428.26
930.02	10385.25
930.18	10317.67
930.35	10278.76
930.52	10141.54
930.69	10276.71
930.85	10221.41
931.02	10035.05
931.19	10082.15
931.36	10037.09
931.52	9938.79
931.69	10176.36
931.86	9639.79
932.02	9940.84
932.19	9826.15
932.36	9881.45
932.53	9953.13
932.69	9551.73
932.86	9871.21
933.03	9736.04
933.19	9494.38
933.36	9604.97
933.53	9645.93
933.70	9463.66
933.86	9371.50
934.03	9535.34
934.20	9021.30
934.36	9195.38
934.53	9037.69
934.70	9025.40
934.86	8820.60
935.03	8873.85
935.20	8642.43
935.36	8644.48
935.53	8824.70
935.70	8556.41
935.86	8886.14
936.03	8548.22
936.20	8353.66
936.36	8535.93
936.53	8376.19
936.70	8425.34
936.86	8445.82
937.03	8275.84
937.20	8013.70
937.36	8054.66
937.53	7896.97
937.70	7792.52
937.86	7745.42
938.03	7600.01
938.20	7735.18
938.36	7573.39
938.53	7565.20
938.70	7372.69
938.86	7450.51
939.03	7229.33
939.20	7131.03
939.36	7165.84
939.53	7161.75
939.70	7282.58
939.86	6776.73
940.03	6786.97
940.19	6813.59
940.36	6649.75
940.53	6754.20
940.69	6414.24
940.86	6623.13
941.03	6246.30
941.19	6160.29
941.36	6236.06
941.52	6334.37
941.69	6172.58
941.86	6156.19
942.02	6096.80
942.19	6160.29
942.35	6127.52
942.52	6033.32
942.69	5859.24
942.85	5814.18
943.02	5722.02
943.18	5824.42
943.35	5740.46
943.52	5771.18
943.68	5597.10
943.85	5595.05
944.01	5627.82
944.18	5455.79
944.35	5730.22
944.51	5500.84
944.68	5541.80
944.84	5433.26
945.01	5349.29
945.17	5418.93
945.34	5402.54
945.51	5418.93
945.67	5330.86
945.84	5427.12
946.00	5224.37
946.17	5267.38
946.33	5224.37
946.50	5185.46
946.67	5312.43
946.83	5312.43
947.00	5234.61
947.16	5257.14
947.33	5267.38
947.49	5222.32
947.66	5238.70
947.82	5218.22
947.99	5173.17
948.16	5246.90
948.32	5222.32
948.49	5365.68
948.65	5171.12
948.82	5191.60
948.98	5259.18
949.15	5134.26
949.31	5349.29
949.48	5169.07
949.64	5152.69
949.81	5124.02
949.97	5238.70
950.14	5246.90
950.30	5287.86
950.47	5341.10
950.63	5345.20
950.80	5312.43
950.96	5214.13
951.13	5312.43
951.30	5306.29
951.46	5214.13
951.63	5224.37
951.79	5439.40
951.96	5314.48
952.12	5250.99
952.29	5375.92
952.45	5300.14
952.62	5328.81
952.78	5349.29
952.94	5269.42
953.11	5400.49
953.27	5130.16
953.44	5541.80
953.60	5339.05
953.77	5406.64
953.93	5431.21
954.10	5369.77
954.26	5435.31
954.43	5324.72
954.59	5601.19
954.76	5500.84
954.92	5353.39
955.09	5568.43
955.25	5136.31
955.42	5550.00
955.58	5511.08
955.75	5326.77
955.91	5420.97
956.07	5365.68
956.24	5380.01
956.40	5429.17
956.57	5545.90
956.73	5531.56
956.90	5511.08
957.06	5423.02
957.23	5461.93
957.39	5390.25
957.56	5531.56
957.72	5375.92
957.88	5517.23
958.05	5435.31
958.21	5517.23
958.38	5533.61
958.54	5339.05
958.71	5640.11
958.87	5400.49
959.03	5486.51
959.20	5457.84
959.36	5365.68
959.53	5328.81
959.69	5412.78
959.85	5476.27
960.02	5449.64
960.18	5386.16
960.35	5433.26
960.51	5623.72
960.68	5339.05
960.84	5345.20
961.00	5410.73
961.17	5470.12
961.33	5347.25
961.50	5576.62
961.66	5492.65
961.82	5367.73
961.99	5386.16
962.15	5435.31
962.31	5408.69
962.48	5347.25
962.64	5347.25
962.81	5474.22
962.97	5517.23
963.13	5523.37
963.30	5459.88
963.46	5328.81
963.62	5513.13
963.79	5373.87
963.95	5330.86
964.12	5341.10
964.28	5353.39
964.44	5214.13
964.61	5402.54
964.77	5408.69
964.93	5330.86
965.10	5308.34
965.26	5341.10
965.42	5343.15
965.59	5191.60
965.75	5222.32
965.92	5310.38
966.08	5248.94
966.24	5193.65
966.41	5318.57
966.57	5353.39
966.73	5406.64
966.90	5197.74
967.06	5230.51
967.22	5230.51
967.39	5205.94
967.55	5226.42
967.71	5173.17
967.88	5312.43
968.04	5212.08
968.20	5236.66
968.37	5175.22
968.53	5132.21
968.69	4997.04
968.85	5230.51
969.02	4982.71
969.18	5246.90
969.34	4986.80
969.51	5210.03
969.67	5132.21
969.83	5097.39
970.00	5197.74
970.16	5091.25
970.32	5021.62
970.48	5214.13
970.65	4927.41
970.81	5001.14
970.97	5042.10
971.14	4968.37
971.30	5038.00
971.46	5013.43
971.63	5035.96
971.79	5197.74
971.95	4972.47
972.11	4898.74
972.28	5005.24
972.44	4904.89
972.60	4898.74
972.76	5072.82
972.93	4923.32
973.09	4951.99
973.25	5072.82
973.42	4865.97
973.58	4921.27
973.74	4992.95
973.90	4982.71
974.07	4894.65
974.23	4884.41
974.39	4792.25
974.55	4945.84
974.72	4802.49
974.88	4671.42
975.04	4927.41
975.20	4843.45
975.37	4718.52
975.53	4837.30
975.69	4847.54
975.85	4816.82
976.01	4739.00
976.18	4689.85
976.34	4753.34
976.50	4880.31
976.66	4683.70
976.83	4657.08
976.99	4616.12
977.15	4679.61
977.31	4444.09
977.47	4655.03
977.64	4714.42
977.80	4691.90
977.96	4573.11
978.12	4556.73
978.29	4609.98
978.45	4507.58
978.61	4394.94
978.77	4722.62
978.93	4513.72
979.10	4480.96
979.26	4548.54
979.42	4562.87
979.58	4546.49
979.74	4480.96
979.91	4464.57
980.07	4638.65
980.23	4521.92
980.39	4433.85
980.55	4478.91
980.71	4399.04
980.88	4358.08
981.04	4300.73
981.20	4483.00
981.36	4405.18
981.52	4247.49
981.68	4276.16
981.85	4370.37
982.01	4464.57
982.17	4214.72
982.33	4337.60
982.49	4435.90
982.65	4296.64
982.82	4327.36
982.98	4345.79
983.14	4204.48
983.30	4321.21
983.46	4362.17
983.62	4296.64
983.79	4300.73
983.95	4313.02
984.11	4143.04
984.27	4247.49
984.43	4235.20
984.59	4184.00
984.75	4216.77
984.91	4054.98
985.08	4243.39
985.24	4165.57
985.40	4071.36
985.56	4155.33
985.72	4140.99
985.88	4190.14
986.04	4067.27
986.20	4155.33
986.37	4149.18
986.53	3985.35
986.69	4169.66
986.85	3964.87
987.01	4009.92
987.17	4214.72
987.33	4091.84
987.49	4020.16
987.65	4067.27
987.82	4106.18
987.98	3909.57
988.14	3987.40
988.30	3938.24
988.46	3928.00
988.62	3956.68
988.78	3958.72
988.94	3876.80
989.10	3932.10
989.26	3864.52
989.42	3862.47
989.59	3747.78
989.75	3825.61
989.91	3817.41
990.07	3755.97
990.23	3821.51
990.39	3737.54
990.55	3952.58
990.71	3817.41
990.87	3780.55
991.03	3880.90
991.19	3721.16
991.35	3760.07
991.51	3772.36
991.67	3803.08
991.83	3772.36
992.00	3878.85
992.16	3788.74
992.32	3788.74
992.48	3686.34
992.64	3686.34
992.80	3755.97
992.96	3725.26
993.12	3629.00
993.28	3760.07
993.44	3735.50
993.60	3641.29
993.76	3629.00
993.92	3710.92
994.08	3755.97
994.24	3643.34
994.40	3592.14
994.56	3708.87
994.72	3639.24
994.88	3532.75
995.04	3684.30
995.20	3581.90
995.36	3592.14
995.52	3563.47
995.68	3588.04
995.84	3477.45
996.00	3567.56
996.16	3526.60
996.32	3442.64
996.48	3454.92
996.64	3594.19
996.80	3434.44
996.96	3444.68
997.12	3481.55
997.28	3256.27
997.44	3403.72
997.60	3291.09
997.76	3420.11
997.92	3522.51
998.08	3514.31
998.24	3313.61
998.40	3344.33
998.56	3426.25
998.72	3160.02
998.88	3264.46
999.04	3340.24
999.20	3467.21
999.36	3291.09
999.52	3356.62
999.68	3272.65
999.84	3284.94
1000.00	3325.90
1000.16	3350.48
1000.32	3375.05
1000.48	3409.87
1000.64	3168.21
1000.80	3182.54
1000.95	3211.22
1001.11	3246.03
1001.27	3145.68
1001.43	3233.74
1001.59	3276.75
1001.75	3188.69
1001.91	3278.80
1002.07	3149.78
1002.23	3178.45
1002.39	3141.58
1002.55	3252.17
1002.71	3100.62
1002.87	3321.81
1003.03	2981.84
1003.19	3166.16
1003.34	3209.17
1003.50	3110.86
1003.66	3184.59
1003.82	3067.86
1003.98	2987.99
1004.14	3121.10
1004.30	2942.93
1004.46	2953.17
1004.62	3102.67
1004.78	2953.17
1004.94	3194.83
1005.09	3176.40
1005.25	3147.73
1005.41	2963.41
1005.57	3082.19
1005.73	3018.71
1005.89	2934.74
1006.05	3045.33
1006.21	3055.57
1006.37	2865.11
1006.52	2916.31
1006.68	2965.46
1006.84	2969.55
1007.00	2916.31
1007.16	3008.47
1007.32	2924.50
1007.48	2891.73
1007.64	2885.59
1007.79	2912.21
1007.95	2861.01
1008.11	2906.07
1008.27	2949.08
1008.43	2861.01
1008.59	2787.29
1008.75	2846.68
1008.91	2938.84
1009.06	2863.06
1009.22	2861.01
1009.38	2951.12
1009.54	2844.63
1009.70	2772.95
1009.86	2770.90
1010.01	2938.84
1010.17	2643.93
1010.33	2742.23
1010.49	2713.56
1010.65	2852.82
1010.81	2652.12
1010.96	2762.71
1011.12	2762.71
1011.28	2621.40
1011.44	2865.11
1011.60	2693.08
1011.76	2674.65
1011.91	2731.99
1012.07	2684.89
1012.23	2672.60
1012.39	2744.28
1012.55	2775.00
1012.71	2709.46
1012.86	2586.58
1013.02	2691.03
1013.18	2627.54
1013.34	2656.22
1013.50	2658.26
1013.65	2672.60
1013.81	2594.78
1013.97	2551.77
1014.13	2598.87
1014.29	2582.49
1014.44	2619.35
1014.60	2525.15
1014.76	2543.58
1014.92	2529.24
1015.07	2643.93
1015.23	2650.07
1015.39	2404.32
1015.55	2492.38
1015.71	2551.77
1015.86	2514.91
1016.02	2482.14
1016.18	2463.71
1016.34	2607.06
1016.49	2457.56
1016.65	2531.29
1016.81	2373.60
1016.97	2559.96
1017.12	2490.33
1017.28	2422.75
1017.44	2475.99
1017.60	2402.27
1017.75	2492.38
1017.91	2504.67
1018.07	2394.08
1018.23	2467.80
1018.38	2383.84
1018.54	2453.47
1018.70	2465.75
1018.86	2426.84
1019.01	2461.66
1019.17	2396.12
1019.33	2461.66
1019.49	2349.02
1019.64	2457.56
1019.80	2428.89
1019.96	2406.36
1020.12	2418.65
1020.27	2469.85
1020.43	2394.08
1020.59	2418.65
1020.74	2400.22
1020.90	2422.75
1021.06	2271.20
1021.22	2381.79
1021.37	2353.12
1021.53	2355.16
1021.69	2328.54
1021.84	2332.64
1022.00	2344.92
1022.16	2260.96
1022.31	2346.97
1022.47	2406.36
1022.63	2373.60
1022.79	2193.37
1022.94	2289.63
1023.10	2381.79
1023.26	2351.07
1023.41	2240.48
1023.57	2234.33
1023.73	2246.62
1023.88	2291.68
1024.04	2273.25
1024.20	2226.14
1024.35	2277.34
1024.51	2232.29
1024.67	2246.62
1024.82	2332.64
1024.98	2148.32
1025.14	2187.23
1025.29	2234.33
1025.45	2250.72
1025.61	2052.06
1025.76	2164.70
1025.92	2197.47
1026.08	2248.67
1026.23	2236.38
1026.39	2203.61
1026.55	2174.94
1026.70	2174.94
1026.86	2203.61
1027.02	2220.00
1027.17	2228.19
1027.33	2158.56
1027.48	2191.33
1027.64	2148.32
1027.80	2058.21
1027.95	2246.62
1028.11	2068.45
1028.27	2144.22
1028.42	2148.32
1028.58	2131.94
1028.73	1994.72
1028.89	2170.85
1029.05	2131.94
1029.20	2082.78
>>>>>End Processed Spectral Data<<<<<
