SpectraSuite Data File
++++++++++++++++++++++++++++++++++++
Date: Fri Jun 02 14:51:11 CEST 2017
User: INFO_000
Dark Spectrum Present: No
Reference Spectrum Present: No
Number of Sampled Component Spectra: 1
Spectrometers: USB4H00879
Integration Time (usec): 80000 (USB4H00879)
Spectra Averaged: 1 (USB4H00879)
Boxcar Smoothing: 0 (USB4H00879)
Correct for Electrical Dark: No (USB4H00879)
Strobe/Lamp Enabled: No (USB4H00879)
Correct for Detector Non-linearity: No (USB4H00879)
Correct for Stray Light: No (USB4H00879)
Number of Pixels in Processed Spectrum: 3648
>>>>>Begin Processed Spectral Data<<<<<
345.13	1249.26
345.34	1249.26
345.56	1249.26
345.78	1271.79
345.99	1222.64
346.21	1685.48
346.42	1710.05
346.64	1658.85
346.86	1794.02
347.07	1646.57
347.29	1783.78
347.50	1617.90
347.72	1689.57
347.94	1740.77
348.15	1662.95
348.37	1644.52
348.59	1718.25
348.80	1689.57
349.02	1755.11
349.23	1884.13
349.45	1806.31
349.67	1861.60
349.88	1753.06
350.10	2009.06
350.31	1814.50
350.53	1794.02
350.75	1957.86
350.96	1787.88
351.18	1791.97
351.39	1894.37
351.61	1773.54
351.82	1951.71
352.04	1869.80
352.26	1802.21
352.47	1886.18
352.69	1990.63
352.90	1738.73
353.12	1888.23
353.34	1796.07
353.55	2029.54
353.77	1896.42
353.98	1865.70
354.20	1777.64
354.41	1916.90
354.63	1841.12
354.85	2007.01
355.06	1880.04
355.28	1800.16
355.49	1871.84
355.71	1894.37
355.92	1894.37
356.14	1935.33
356.35	1865.70
356.57	1812.45
356.79	1888.23
357.00	1918.95
357.22	1976.29
357.43	1822.69
357.65	1933.28
357.86	1824.74
358.08	1947.62
358.29	1925.09
358.51	1968.10
358.72	1990.63
358.94	1945.57
359.16	1925.09
359.37	1892.32
359.59	1914.85
359.80	1986.53
360.02	1931.23
360.23	1902.56
360.45	1998.82
360.66	1896.42
360.88	1904.61
361.09	1863.65
361.31	1984.48
361.52	1918.95
361.74	1978.34
361.95	2060.26
362.17	1888.23
362.38	2072.54
362.60	2023.39
362.81	1990.63
363.03	1925.09
363.24	1992.67
363.46	2025.44
363.67	2017.25
363.89	1972.19
364.10	2027.49
364.32	1974.24
364.53	2109.41
364.75	1949.67
364.96	2039.78
365.18	2054.11
365.39	2023.39
365.61	1990.63
365.82	2164.70
366.04	1998.82
366.25	1966.05
366.47	2142.18
366.68	2072.54
366.90	1964.00
367.11	2074.59
367.33	2105.31
367.54	2023.39
367.76	2015.20
367.97	2011.11
368.19	1974.24
368.40	2076.64
368.62	1951.71
368.83	2015.20
369.05	2076.64
369.26	1937.38
369.48	1941.47
369.69	2015.20
369.91	2039.78
370.12	2029.54
370.33	2193.37
370.55	2000.87
370.76	1935.33
370.98	2080.74
371.19	2080.74
371.41	2074.59
371.62	2084.83
371.84	2041.82
372.05	2160.61
372.27	2146.27
372.48	2123.74
372.69	2033.63
372.91	2211.81
373.12	2080.74
373.34	2136.03
373.55	2154.46
373.77	2213.85
373.98	2185.18
374.20	2176.99
374.41	2314.20
374.62	2146.27
374.84	2154.46
375.05	2166.75
375.27	2172.89
375.48	2146.27
375.70	2246.62
375.91	2230.24
376.12	2236.38
376.34	2195.42
376.55	2097.12
376.77	2230.24
376.98	2213.85
377.19	2127.84
377.41	2168.80
377.62	2133.98
377.84	2232.29
378.05	2287.58
378.27	2125.79
378.48	2240.48
378.69	2389.98
378.91	2338.78
379.12	2189.28
379.34	2181.09
379.55	2271.20
379.76	2191.33
379.98	2203.61
380.19	2275.29
380.41	2205.66
380.62	2256.86
380.83	2215.90
381.05	2222.05
381.26	2385.88
381.47	2174.94
381.69	2281.44
381.90	2306.01
382.12	2400.22
382.33	2211.81
382.54	2220.00
382.76	2283.49
382.97	2273.25
383.19	2287.58
383.40	2369.50
383.61	2344.92
383.83	2217.95
384.04	2250.72
384.25	2303.96
384.47	2365.40
384.68	2346.97
384.89	2320.35
385.11	2306.01
385.32	2351.07
385.54	2369.50
385.75	2377.69
385.96	2324.44
386.18	2365.40
386.39	2375.64
386.60	2344.92
386.82	2334.68
387.03	2308.06
387.24	2551.77
387.46	2478.04
387.67	2502.62
387.88	2451.42
388.10	2469.85
388.31	2527.19
388.52	2574.30
388.74	2428.89
388.95	2478.04
389.16	2564.06
389.38	2496.47
389.59	2600.92
389.80	2555.86
390.02	2420.70
390.23	2596.82
390.44	2564.06
390.66	2494.43
390.87	2510.81
391.08	2525.15
391.30	2637.78
391.51	2631.64
391.72	2670.55
391.94	2650.07
392.15	2623.45
392.36	2648.02
392.58	2568.15
392.79	2596.82
393.00	2695.13
393.22	2688.98
393.43	2809.81
393.64	2813.91
393.85	2713.56
394.07	2670.55
394.28	2734.04
394.49	2777.05
394.71	2775.00
394.92	2881.49
395.13	2617.30
395.35	2713.56
395.56	2713.56
395.77	2815.96
395.98	2858.96
396.20	2885.59
396.41	2842.58
396.62	2815.96
396.84	2891.73
397.05	2766.81
397.26	2922.45
397.47	2922.45
397.69	2822.10
397.90	3059.67
398.11	2871.25
398.32	2793.43
398.54	2772.95
398.75	2811.86
398.96	2944.98
399.18	3098.58
399.39	3016.66
399.60	2951.12
399.81	2969.55
400.03	2934.74
400.24	3205.07
400.45	2981.84
400.66	3090.38
400.88	3024.85
401.09	3178.45
401.30	3037.14
401.51	3104.72
401.73	3149.78
401.94	3061.71
402.15	3088.34
402.36	3100.62
402.58	3237.84
402.79	3205.07
403.00	3149.78
403.21	3205.07
403.43	3137.49
403.64	3291.09
403.85	3125.20
404.06	3162.06
404.27	3194.83
404.49	3119.06
404.70	3141.58
404.91	3205.07
405.12	3321.81
405.34	3221.45
405.55	3358.67
405.76	3151.82
405.97	3223.50
406.19	3352.52
406.40	3133.39
406.61	3260.37
406.82	3264.46
407.03	3305.42
407.25	3286.99
407.46	3426.25
407.67	3354.57
407.88	3508.17
408.09	3430.35
408.31	3370.96
408.52	3409.87
408.73	3319.76
408.94	3325.90
409.15	3413.96
409.37	3463.12
409.58	3477.45
409.79	3497.93
410.00	3461.07
410.21	3473.36
410.43	3370.96
410.64	3426.25
410.85	3547.08
411.06	3411.92
411.27	3540.94
411.48	3669.96
411.70	3573.71
411.91	3456.97
412.12	3690.44
412.33	3469.26
412.54	3614.66
412.76	3686.34
412.97	3608.52
413.18	3499.98
413.39	3690.44
413.60	3708.87
413.81	3600.33
414.03	3510.22
414.24	3573.71
414.45	3817.41
414.66	3590.09
414.87	3723.21
415.08	3751.88
415.30	3712.97
415.51	3696.58
415.72	3831.75
415.93	3815.37
416.14	3753.93
416.35	3747.78
416.56	3758.02
416.78	3817.41
416.99	3778.50
417.20	3905.48
417.41	3780.55
417.62	3735.50
417.83	3944.39
418.04	3755.97
418.26	3948.48
418.47	3907.52
418.68	4038.59
418.89	3981.25
419.10	4108.23
419.31	3936.20
419.52	3995.59
419.73	3981.25
419.95	3977.16
420.16	3989.44
420.37	4011.97
420.58	4009.92
420.79	3821.51
421.00	4022.21
421.21	4032.45
421.42	4091.84
421.63	4188.10
421.85	4065.22
422.06	4163.52
422.27	4124.61
422.48	4167.62
422.69	4206.53
422.90	4319.17
423.11	4157.38
423.32	4220.86
423.53	4319.17
423.75	4288.45
423.96	4423.61
424.17	4458.43
424.38	4458.43
424.59	4470.72
424.80	4427.71
425.01	4485.05
425.22	4259.78
425.43	4349.89
425.64	4657.08
425.85	4569.02
426.06	4612.03
426.28	4452.28
426.49	4417.47
426.70	4474.81
426.91	4595.64
427.12	4757.43
427.33	4687.80
427.54	4652.98
427.75	4745.14
427.96	4736.95
428.17	4616.12
428.38	4749.24
428.59	4888.50
428.80	4671.42
429.01	4878.26
429.23	4827.06
429.44	5048.24
429.65	4976.56
429.86	4958.13
430.07	4784.06
430.28	4808.63
430.49	4884.41
430.70	4974.52
430.91	5060.53
431.12	5007.28
431.33	5126.07
431.54	5121.97
431.75	5195.70
431.96	5167.03
432.17	5038.00
432.38	5029.81
432.59	5246.90
432.80	5265.33
433.01	5337.01
433.22	5287.86
433.43	5294.00
433.64	5318.57
433.85	5224.37
434.06	5281.71
434.27	5203.89
434.49	5404.59
434.70	5380.01
434.91	5296.05
435.12	5418.93
435.33	5392.30
435.54	5523.37
435.75	5296.05
435.96	5437.36
436.17	5406.64
436.38	5523.37
436.59	5644.20
436.80	5400.49
437.01	5668.78
437.22	5681.07
437.43	5527.47
437.64	5506.99
437.85	5719.98
438.06	5611.43
438.27	5509.04
438.48	5593.00
438.69	5767.08
438.90	5644.20
439.11	5711.78
439.32	5881.77
439.53	5789.61
439.74	5785.51
439.95	5830.57
440.16	5918.63
440.37	5926.82
440.57	5607.34
440.78	5849.00
440.99	5967.78
441.20	5955.49
441.41	5838.76
441.62	6016.93
441.83	5883.81
442.04	5943.21
442.25	5971.88
442.46	5951.40
442.67	6092.71
442.88	6234.02
443.09	5982.12
443.30	6021.03
443.51	6121.38
443.72	6404.00
443.93	5992.36
444.14	6428.57
444.35	6117.28
444.56	6125.47
444.77	6221.73
444.98	6291.36
445.19	6291.36
445.40	6229.92
445.61	6354.85
445.81	6561.69
446.02	6530.97
446.23	6373.28
446.44	6348.70
446.65	6514.59
446.86	6373.28
447.07	6649.75
447.28	6690.71
447.49	6741.91
447.70	6553.50
447.91	6616.99
448.12	6512.54
448.33	6662.04
448.54	6625.18
448.74	6596.51
448.95	6817.69
449.16	6545.31
449.37	6844.31
449.58	6670.23
449.79	7077.78
450.00	6610.84
450.21	6956.95
450.42	7040.92
450.63	7077.78
450.84	6852.50
451.05	6872.98
451.25	7137.17
451.46	6967.19
451.67	7278.48
451.88	7251.86
452.09	7141.27
452.30	7047.06
452.51	6950.81
452.72	7182.23
452.93	7585.68
453.13	7065.49
453.34	7204.75
453.55	7415.69
453.76	7305.10
453.97	7565.20
454.18	7296.91
454.39	7593.87
454.60	7520.14
454.81	7602.06
455.01	7700.36
455.22	7421.84
455.43	7516.05
455.64	7815.05
455.85	7864.20
456.06	7774.09
456.27	7827.34
456.48	7759.75
456.68	7804.81
456.89	7874.44
457.10	7939.97
457.31	7919.50
457.52	7825.29
457.73	7874.44
457.94	8351.62
458.14	7872.39
458.35	8423.30
458.56	8144.77
458.77	8148.87
458.98	8208.26
459.19	8388.48
459.39	8343.42
459.60	8441.73
459.81	8228.74
460.02	8617.85
460.23	8447.87
460.44	8839.03
460.65	8638.33
460.85	8570.75
461.06	8583.04
461.27	8556.41
461.48	8769.40
461.69	8865.66
461.89	8429.44
462.10	8896.38
462.31	8599.42
462.52	8839.03
462.73	8750.97
462.94	9207.67
463.14	9293.68
463.35	8884.09
463.56	9514.86
463.77	9211.76
463.98	9109.36
464.18	9162.61
464.39	9342.83
464.60	9434.99
464.81	9420.66
465.02	9385.84
465.23	9701.23
465.43	9572.21
465.64	9791.34
465.85	9553.77
466.06	9475.95
466.27	10096.49
466.47	9838.44
466.68	9944.94
466.89	10008.42
467.10	10055.53
467.30	10080.10
467.51	10180.45
467.72	10424.16
467.93	10039.14
468.14	10139.49
468.34	10377.06
468.55	10471.26
468.76	10516.32
468.97	10483.55
469.17	10706.78
469.38	10770.27
469.59	10860.38
469.80	10671.97
470.01	10755.93
470.21	10604.38
470.42	11128.66
470.63	11171.67
470.84	11099.99
471.04	11196.25
471.25	11202.39
471.46	11034.46
471.67	11466.58
471.87	11347.79
472.08	11497.30
472.29	11683.66
472.50	11519.82
472.70	11630.41
472.91	11626.32
473.12	11806.54
473.33	11642.70
473.53	12287.81
473.74	11827.02
473.95	12357.44
474.16	12474.18
474.36	12508.99
474.57	12291.91
474.78	12681.02
474.99	12486.47
475.19	12447.55
475.40	12859.20
475.61	12918.59
475.81	13002.55
476.02	13094.71
476.23	12932.92
476.44	13037.37
476.64	13436.72
476.85	13451.06
477.06	13231.93
477.27	13631.28
477.47	13772.59
477.68	13553.46
477.89	13805.36
478.09	13805.36
478.30	13813.55
478.51	14016.30
478.71	14208.81
478.92	14212.90
479.13	14173.99
479.34	14509.86
479.54	14386.98
479.75	14329.64
479.96	14595.87
480.16	14810.91
480.37	14726.94
480.58	14882.59
480.78	14925.60
480.99	15165.21
481.20	15234.84
481.41	15216.41
481.61	15531.80
481.82	15634.19
482.03	15552.27
482.23	15560.47
482.44	15691.54
482.65	16019.21
482.85	15843.09
483.06	15945.48
483.27	15927.05
483.47	16150.28
483.68	16146.19
483.89	16547.59
484.09	16137.99
484.30	16568.07
484.51	16609.03
484.71	17061.63
484.92	16631.55
485.13	16768.77
485.33	16772.86
485.54	16981.76
485.75	17217.27
485.95	17495.80
486.16	17223.42
486.37	17542.90
486.57	17407.73
486.78	17399.54
486.98	17520.37
487.19	17901.29
487.40	17837.81
487.60	17645.30
487.81	18239.21
488.02	18124.52
488.22	18079.47
488.43	18249.45
488.64	18378.47
488.84	18603.75
489.05	18632.42
489.25	18509.54
489.46	18872.03
489.67	18847.46
489.87	19001.05
490.08	19351.26
490.29	18982.62
490.49	19515.09
490.70	19418.84
490.90	19402.46
491.11	19242.71
491.32	19613.40
491.52	19723.99
491.73	19543.77
491.94	19734.23
492.14	19836.63
492.35	20045.52
492.55	20084.43
492.76	19934.93
492.97	20215.50
493.17	20461.26
493.38	20473.54
493.58	20719.30
493.79	20555.46
494.00	20475.59
494.20	20641.48
494.41	21010.11
494.61	20981.44
494.82	21069.50
495.02	20913.86
495.23	21194.43
495.44	21284.54
495.64	21638.84
495.85	21257.92
496.05	21710.52
496.26	21442.23
496.47	21956.27
496.67	21595.83
496.88	22054.58
497.08	21507.77
497.29	22124.21
497.49	21995.18
497.70	22240.94
497.91	22304.43
498.11	22439.59
498.32	22118.06
498.52	22546.09
498.73	22689.45
498.93	22531.75
499.14	22859.43
499.34	22841.00
499.55	22916.77
499.76	23115.42
499.96	23033.50
500.17	23017.12
500.37	23082.66
500.58	23031.46
500.78	23099.04
500.99	23426.71
501.19	23783.06
501.40	23363.23
501.60	23275.16
501.81	23641.75
502.02	23879.32
502.22	23783.06
502.43	23953.04
502.63	23873.17
502.84	23690.90
503.04	23711.38
503.25	24102.54
503.45	24202.89
503.66	24147.60
503.86	23994.00
504.07	24698.50
504.27	24315.53
504.48	24589.96
504.68	24696.46
504.89	24792.71
505.09	24747.65
505.30	24839.81
505.50	24723.08
505.71	24809.09
505.91	25351.81
506.12	25089.67
506.32	24960.64
506.53	25120.38
506.73	25069.19
506.94	25151.10
507.14	25357.95
507.35	25347.71
507.55	25714.30
507.76	25742.97
507.96	25294.46
508.17	25298.56
508.37	25466.49
508.58	25468.54
508.78	25951.86
508.99	25822.84
509.19	25822.84
509.40	26052.21
509.60	25931.38
509.81	26117.75
510.01	26093.17
510.22	26175.09
510.42	26216.05
510.63	26121.84
510.83	26480.24
511.04	26328.69
511.24	26455.66
511.44	26652.27
511.65	26855.01
511.85	26549.87
512.06	26732.14
512.26	26594.92
512.47	26906.21
512.67	26945.12
512.88	26832.49
513.08	26850.92
513.29	27156.07
513.49	27143.78
513.69	27160.16
513.90	26805.86
514.10	27381.34
514.31	27053.67
514.51	27596.38
514.72	27698.78
514.92	27104.87
515.13	27643.48
515.33	27668.06
515.53	27405.92
515.74	27780.70
515.94	27582.04
516.15	27700.83
516.35	27577.95
516.56	27749.98
516.76	27942.49
516.96	27954.77
517.17	28094.04
517.37	28120.66
517.58	27899.48
517.78	28147.28
517.99	28038.74
518.19	28759.63
518.39	28616.27
518.60	28591.69
518.80	28278.35
519.01	28730.95
519.21	28700.23
519.41	28825.16
519.62	28642.89
519.82	28767.82
520.03	29081.16
520.23	28843.59
520.43	28898.89
520.64	29396.54
520.84	29128.26
521.05	29314.62
521.25	29384.26
521.45	29453.89
521.66	29574.72
521.86	29417.02
522.07	29572.67
522.27	29754.94
522.47	29752.89
522.68	29941.30
522.88	29838.90
523.08	30094.90
523.29	30121.52
523.49	29955.64
523.70	30121.52
523.90	30475.82
524.10	30244.40
524.31	30590.51
524.51	29877.82
524.71	31170.08
524.92	30852.65
525.12	30912.04
525.33	30772.78
525.53	30899.75
525.73	31206.95
525.94	31407.65
526.14	31170.08
526.34	31319.59
526.55	31505.95
526.75	31372.83
526.95	31346.21
527.16	31168.04
527.36	31434.27
527.56	31788.57
527.77	31944.22
527.97	31845.91
528.17	31833.63
528.38	32259.60
528.58	32261.65
528.78	32454.16
528.99	32398.87
529.19	32640.53
529.39	32282.13
529.60	32628.24
529.80	32441.87
530.00	32636.43
530.21	32892.43
530.41	33072.65
530.61	32441.87
530.82	33000.97
531.02	32869.90
531.22	33252.87
531.43	33592.83
531.63	33453.57
531.83	33553.92
532.04	33666.56
532.24	33480.19
532.44	34010.62
532.64	33697.28
532.85	34020.86
533.05	34252.28
533.25	33889.79
533.46	33936.89
533.66	34577.90
533.86	34231.80
534.07	34555.38
534.27	34702.83
534.47	34887.15
534.67	35102.18
534.88	34909.68
535.08	34627.06
535.28	35210.73
535.49	35284.45
535.69	35841.50
535.89	35562.98
536.09	35349.99
536.30	35605.98
536.50	35528.16
536.70	35718.62
536.91	35532.26
537.11	35933.66
537.31	35927.52
537.51	35986.91
537.72	36251.09
537.92	36646.35
538.12	36513.23
538.32	36163.03
538.53	36535.76
538.73	36443.60
538.93	36910.54
539.13	36644.30
539.34	36787.66
539.54	36654.54
539.74	37162.44
539.94	36806.09
540.15	36894.16
540.35	37285.32
540.55	37094.86
540.75	37254.60
540.96	37328.33
541.16	37377.48
541.36	37670.34
541.56	37434.82
541.77	37836.22
541.97	37291.46
542.17	37934.53
542.37	38170.04
542.58	38184.38
542.78	38100.41
542.98	38178.23
543.18	38174.14
543.38	38561.20
543.59	38325.69
543.79	38075.84
543.99	38483.38
544.19	38634.93
544.40	38532.53
544.60	38321.59
544.80	38813.10
545.00	38835.63
545.20	39007.66
545.41	38503.86
545.61	38876.59
545.81	38954.41
546.01	39450.02
546.21	39015.85
546.42	39198.12
546.62	39499.17
546.82	39067.05
547.02	39591.33
547.22	39736.74
547.43	39396.77
547.63	39919.01
547.83	39843.23
548.03	39609.76
548.23	39845.28
548.44	39884.19
548.64	39777.70
548.84	39740.83
549.04	39929.25
549.24	39792.03
549.45	40480.15
549.65	39796.13
549.85	40332.70
550.05	40510.87
550.25	40297.88
550.45	40854.93
550.66	40844.69
550.86	40482.20
551.06	40207.77
551.26	40385.94
551.46	40592.79
551.66	40773.01
551.87	40998.29
552.07	40805.78
552.27	41069.97
552.47	41100.68
552.67	40965.52
552.87	41112.97
553.07	41147.79
553.28	41285.00
553.48	41575.81
553.68	41338.25
553.88	41493.89
554.08	41727.36
554.28	41135.50
554.48	41180.56
554.69	41416.07
554.89	41299.34
555.09	41530.76
555.29	41618.82
555.49	42001.79
555.69	41641.35
555.89	42085.76
556.10	41807.23
556.30	41719.17
556.50	42397.05
556.70	41584.01
556.90	42005.89
557.10	42018.17
557.30	42071.42
557.50	41842.05
557.70	41999.74
557.91	42083.71
558.11	42386.81
558.31	42562.93
558.51	42218.88
558.71	42390.91
558.91	42694.00
559.11	42427.77
559.31	42171.77
559.51	42358.14
559.72	42413.43
559.92	42691.96
560.12	42630.52
560.32	42739.06
560.52	42673.52
560.72	43115.89
560.92	42874.23
561.12	43007.34
561.32	43175.28
561.52	43072.88
561.72	43453.80
561.93	43115.89
562.13	43009.39
562.33	42956.14
562.53	43390.31
562.73	43146.61
562.93	42980.72
563.13	43488.62
563.33	43275.63
563.53	43314.54
563.73	43136.37
563.93	43644.26
564.13	43695.46
564.33	43806.05
564.53	43441.51
564.74	43717.99
564.94	43601.25
565.14	43717.99
565.34	43406.70
565.54	43636.07
565.74	43824.48
565.94	43812.20
566.14	43941.22
566.34	43793.76
566.54	44262.75
566.74	43406.70
566.94	44117.34
567.14	44146.01
567.34	43449.70
567.54	44543.32
567.74	43978.08
567.94	43795.81
568.14	44612.95
568.34	44377.43
568.54	44143.97
568.74	44567.90
568.94	44043.62
569.14	44746.07
569.34	44508.50
569.54	44860.76
569.75	44451.16
569.95	44172.64
570.15	45172.05
570.35	44690.77
570.55	44475.74
570.75	44463.45
570.95	44750.17
571.15	44666.20
571.35	44658.01
571.55	44909.91
571.75	44973.39
571.95	45129.04
572.15	44694.87
572.35	45114.70
572.55	45182.29
572.75	45090.13
572.95	44850.52
573.15	45329.74
573.35	45139.28
573.55	45053.26
573.75	45598.02
573.95	45217.10
574.15	45260.11
574.35	45661.51
574.55	45219.15
574.75	45419.85
574.95	45575.50
575.15	45784.39
575.34	45903.17
575.54	45956.42
575.74	45821.25
575.94	46157.12
576.14	45847.88
576.34	46089.54
576.54	45770.05
576.74	46146.88
576.94	45794.63
577.14	46118.21
577.34	46363.96
577.54	46327.10
577.74	46380.35
577.94	46449.98
578.14	46298.43
578.34	46239.04
578.54	46538.04
578.74	46503.23
578.94	46591.29
579.14	46560.57
579.34	46163.26
579.54	46712.12
579.74	46849.33
579.94	46875.96
580.13	47349.04
580.33	47084.85
580.53	47019.31
580.73	47090.99
580.93	46921.01
581.13	47449.39
581.33	47351.09
581.53	47416.62
581.73	47529.26
581.93	47365.42
582.13	47201.58
582.33	47455.53
582.53	47476.01
582.73	47398.19
582.92	48084.26
583.12	47912.23
583.32	47883.56
583.52	47697.19
583.72	48020.77
583.92	47822.12
584.12	47869.22
584.32	48332.06
584.52	48133.41
584.72	48018.72
584.92	48309.53
585.11	48776.47
585.31	48311.58
585.51	48608.54
585.71	48084.26
585.91	48502.04
586.11	48588.06
586.31	48758.04
586.51	48481.56
586.71	48475.42
586.91	48643.35
587.10	48880.92
587.30	49050.90
587.50	49141.01
587.70	48932.12
587.90	48973.08
588.10	49390.86
588.30	49100.05
588.50	49245.46
588.69	49040.66
588.89	49282.32
589.09	49530.12
589.29	49138.96
589.49	49814.79
589.69	48833.81
589.89	49648.91
590.08	49540.36
590.28	49141.01
590.48	49345.81
590.68	49231.12
590.88	49591.56
591.08	49796.36
591.28	49755.40
591.47	50230.53
591.67	49589.52
591.87	49767.69
592.07	50101.51
592.27	49980.68
592.47	50015.49
592.67	50304.26
592.86	49984.77
593.06	49849.61
593.26	49923.33
593.46	50154.75
593.66	50058.50
593.86	50326.78
594.05	50115.84
594.25	50740.47
594.45	50406.65
594.65	50402.56
594.85	50169.09
595.05	50816.25
595.24	50959.61
595.44	50468.09
595.64	50910.46
595.84	50578.68
596.04	50937.08
596.23	51207.41
596.43	51107.06
596.63	50879.74
596.83	51150.07
597.03	51479.79
597.22	51313.90
597.42	51246.32
597.62	51436.78
597.82	51354.86
598.02	51090.68
598.21	51647.72
598.41	51457.26
598.61	51592.43
598.81	51649.77
599.01	51614.96
599.20	51684.59
599.40	51748.07
599.60	51614.96
599.80	51889.38
600.00	51940.58
600.19	52172.00
600.39	51715.31
600.59	51795.18
600.79	52366.56
600.98	51901.67
601.18	52194.53
601.38	52557.02
601.58	52206.82
601.78	52620.51
601.97	52253.92
602.17	52655.32
602.37	52473.06
602.57	52489.44
602.76	52958.42
602.96	52266.21
603.16	52839.64
603.36	52403.42
603.55	52905.18
603.75	52425.95
603.95	52868.31
604.15	53200.08
604.34	52804.83
604.54	53150.93
604.74	53114.07
604.94	53236.95
605.13	53177.56
605.33	53347.54
605.53	52968.66
605.73	53449.94
605.92	53486.80
606.12	53800.14
606.32	53845.19
606.52	53441.74
606.71	53476.56
606.91	53863.63
607.11	53818.57
607.30	54301.89
607.50	53810.38
607.70	54052.04
607.90	53630.16
608.09	53714.12
608.29	53798.09
608.49	53847.24
608.68	54154.44
608.88	53935.30
609.08	54183.11
609.28	54348.99
609.47	54131.91
609.67	54539.46
609.87	53949.64
610.06	54469.82
610.26	54183.11
610.46	54078.66
610.66	54504.64
610.85	54320.32
611.05	54080.71
611.25	54707.39
611.44	54146.25
611.64	54486.21
611.84	54531.26
612.03	54588.61
612.23	54480.06
612.43	54633.66
612.62	54318.28
612.82	54650.05
613.02	54680.77
613.21	54641.85
613.41	54441.15
613.61	54361.28
613.80	54498.50
614.00	54918.33
614.20	54750.40
614.39	54641.85
614.59	54869.18
614.79	54559.94
614.98	54523.07
615.18	54295.75
615.38	54908.09
615.57	54531.26
615.77	54826.17
615.97	54772.92
616.16	54785.21
616.36	54424.77
616.56	54893.75
616.75	54527.17
616.95	54676.67
617.15	54568.13
617.34	54764.73
617.54	54326.47
617.74	55057.59
617.93	55104.70
618.13	54514.88
618.32	54938.81
618.52	54480.06
618.72	54961.34
618.91	54912.19
619.11	54715.58
619.31	54867.13
619.50	54432.96
619.70	54531.26
619.90	54697.15
620.09	54666.43
620.29	55121.08
620.48	54848.70
620.68	55213.24
620.88	54461.63
621.07	55172.28
621.27	54998.20
621.46	54766.78
621.66	54789.31
621.86	54996.15
622.05	54467.78
622.25	55368.88
622.44	54887.61
622.64	54244.55
622.84	55248.05
623.03	54807.74
623.23	55268.53
623.42	54807.74
623.62	54969.53
623.82	55157.94
624.01	54852.80
624.21	55418.03
624.40	54916.28
624.60	54684.86
624.80	54662.33
624.99	54607.04
625.19	54609.09
625.38	55137.46
625.58	54379.71
625.77	55241.91
625.97	54797.50
626.17	54891.71
626.36	54693.05
626.56	54803.64
626.75	54355.14
626.95	55133.37
627.14	54631.61
627.34	55133.37
627.54	54555.84
627.73	54869.18
627.93	54682.81
628.12	54383.81
628.32	54893.75
628.51	54992.06
628.71	54645.95
628.90	54854.84
629.10	54498.50
629.30	54977.72
629.49	54756.54
629.69	54215.88
629.88	54990.01
630.08	55364.79
630.27	54744.25
630.47	54891.71
630.66	54656.19
630.86	55186.61
631.05	54553.79
631.25	55137.46
631.44	54990.01
631.64	55198.90
631.84	55663.79
632.03	55442.61
632.23	54561.98
632.42	55133.37
632.62	55256.24
632.81	54992.06
633.01	55106.74
633.20	55530.67
633.40	55182.52
633.59	55446.71
633.79	55041.21
633.98	54922.43
634.18	55420.08
634.37	54850.75
634.57	55157.94
634.76	55522.48
634.96	55481.52
635.15	55157.94
635.35	55092.41
635.54	55030.97
635.74	55536.82
635.93	54744.25
636.13	55512.24
636.32	55475.38
636.52	54865.08
636.71	55135.41
636.91	55415.99
637.10	55598.26
637.30	55420.08
637.49	55727.28
637.69	54965.43
637.88	55448.75
638.08	55000.25
638.27	55352.50
638.46	55368.88
638.66	54903.99
638.85	55125.17
639.05	55321.78
639.24	55538.86
639.44	55164.09
639.63	55444.66
639.83	55545.01
640.02	55649.45
640.22	55203.00
640.41	55571.63
640.61	55397.55
640.80	55362.74
640.99	54957.24
641.19	55657.65
641.38	55770.28
641.58	55278.77
641.77	55504.05
641.97	55211.19
642.16	55205.05
642.36	55542.96
642.55	56054.95
642.74	55698.61
642.94	56308.90
643.13	55436.47
643.33	55653.55
643.52	56386.72
643.72	55745.71
643.91	55833.77
644.10	56206.50
644.30	56079.53
644.49	55854.25
644.69	55827.63
644.88	56302.76
645.08	55776.43
645.27	55901.36
645.46	55932.07
645.66	55895.21
645.85	55784.62
646.05	55620.78
646.24	55653.55
646.43	56145.06
646.63	56231.08
646.82	56595.62
647.02	56147.11
647.21	56245.41
647.40	56181.93
647.60	56294.56
647.79	56278.18
647.99	55989.42
648.18	56358.05
648.37	56704.16
648.57	56149.16
648.76	56245.41
648.96	55921.83
649.15	56435.87
649.34	56587.42
649.54	56595.62
649.73	55882.92
649.92	56095.91
650.12	56458.40
650.31	56808.61
650.51	56655.01
650.70	56812.70
650.89	56161.45
651.09	56738.97
651.28	56525.99
651.47	56980.63
651.67	56722.59
651.86	56972.44
652.06	56057.00
652.25	56747.17
652.44	56550.56
652.64	56165.54
652.83	56274.09
653.02	56421.54
653.22	56849.56
653.41	56407.20
653.60	56319.14
653.80	56284.33
653.99	56820.89
654.18	56792.22
654.38	56513.70
654.57	56439.97
654.76	56753.31
654.96	56243.37
655.15	56489.12
655.34	56433.83
655.54	56341.67
655.73	56454.31
655.92	56767.65
656.12	56657.06
656.31	56505.51
656.50	56587.42
656.70	57019.55
656.89	56673.44
657.08	56704.16
657.28	56614.05
657.47	56587.42
657.66	57058.46
657.86	56759.45
658.05	56644.77
658.24	56489.12
658.43	56325.28
658.63	56775.84
658.82	56321.19
659.01	56820.89
659.21	57080.98
659.40	56818.84
659.59	56908.96
659.79	57070.75
659.98	56947.87
660.17	57054.36
660.36	56728.73
660.56	57144.47
660.75	57140.38
660.94	56685.73
661.14	57291.93
661.33	56687.78
661.52	56239.27
661.71	56994.97
661.91	56868.00
662.10	56636.58
662.29	56947.87
662.49	56968.35
662.68	57070.75
662.87	57119.90
663.06	57046.17
663.26	57105.56
663.45	57308.31
663.64	56726.69
663.83	57341.08
664.03	56992.92
664.22	56990.87
664.41	57326.74
664.60	56589.47
664.80	57263.25
664.99	57072.79
665.18	57218.20
665.37	57271.45
665.57	57160.86
665.76	57119.90
665.95	56917.15
666.14	57175.19
666.34	57357.46
666.53	57009.31
666.72	56974.49
666.91	57017.50
667.11	56507.55
667.30	56644.77
667.49	56794.27
667.68	57056.41
667.87	57037.98
668.07	57134.23
668.26	56835.23
668.45	56814.75
668.64	56736.93
668.84	57609.36
669.03	56859.80
669.22	57224.34
669.41	56980.63
669.60	56872.09
669.80	56505.51
669.99	56997.02
670.18	56730.78
670.37	56720.54
670.57	57164.95
670.76	57019.55
670.95	56941.72
671.14	57101.46
671.33	56804.51
671.53	57629.84
671.72	57085.08
671.91	56935.58
672.10	56835.23
672.29	57130.14
672.48	56882.33
672.68	57279.64
672.87	56878.24
673.06	56927.39
673.25	57128.09
673.44	56941.72
673.64	57011.35
673.83	57345.17
674.02	56923.29
674.21	57046.17
674.40	57003.16
674.59	56546.47
674.79	56650.91
674.98	56433.83
675.17	56671.39
675.36	56755.36
675.55	56624.29
675.74	56456.35
675.94	56593.57
676.13	56708.25
676.32	56710.30
676.51	57330.84
676.70	56800.41
676.89	56517.79
677.08	56833.18
677.28	56628.38
677.47	56913.05
677.66	56886.43
677.85	56855.71
678.04	56904.86
678.23	56925.34
678.42	56868.00
678.62	56773.79
678.81	57279.64
679.00	56788.13
679.19	57603.22
679.38	56591.52
679.57	57011.35
679.76	56908.96
679.96	57003.16
680.15	56683.68
680.34	56544.42
680.53	56710.30
680.72	57033.88
680.91	57199.77
681.10	56659.10
681.29	56814.75
681.48	56657.06
681.68	56546.47
681.87	56583.33
682.06	56079.53
682.25	56501.41
682.44	56689.82
682.63	56851.61
682.82	56067.24
683.01	56022.19
683.20	55856.30
683.39	56399.01
683.59	55973.03
683.78	56136.87
683.97	56280.23
684.16	56116.39
684.35	56079.53
684.54	56171.69
684.73	56007.85
684.92	56591.52
685.11	56106.15
685.30	55858.35
685.49	56415.40
685.69	56343.72
685.88	56464.55
686.07	56046.76
686.26	56251.56
686.45	55917.74
686.64	56476.83
686.83	56069.29
687.02	56140.97
687.21	56132.78
687.40	55942.31
687.59	56046.76
687.78	56145.06
687.97	56313.00
688.16	56216.74
688.35	55786.67
688.54	56128.68
688.74	55635.12
688.93	56089.77
689.12	55547.06
689.31	55637.17
689.50	55895.21
689.69	55391.41
689.88	55370.93
690.07	55653.55
690.26	55440.56
690.45	56294.56
690.64	55671.98
690.83	55887.02
691.02	54959.29
691.21	55194.81
691.40	55405.75
691.59	55399.60
691.78	55553.20
691.97	55393.46
692.16	55413.94
692.35	55518.38
692.54	55938.22
692.73	55450.80
692.92	55389.36
693.11	55643.31
693.30	55872.68
693.49	55389.36
693.68	55588.02
693.87	55196.85
694.06	55053.50
694.25	54899.90
694.44	55092.41
694.63	55026.87
694.82	55620.78
695.01	55114.94
695.20	55428.27
695.39	54899.90
695.58	54781.12
695.77	54834.36
695.96	54805.69
696.15	55159.99
696.34	54887.61
696.53	55092.41
696.72	55190.71
696.91	54961.34
697.10	55229.62
697.29	54729.92
697.48	54809.79
697.67	54498.50
697.86	54492.35
698.05	54582.46
698.24	54541.50
698.43	54402.24
698.62	54701.25
698.81	54449.35
699.00	55270.58
699.19	54426.82
699.38	54406.34
699.57	54277.32
699.76	55096.50
699.95	54574.27
700.14	54277.32
700.32	53949.64
700.51	54330.56
700.70	54740.16
700.89	54766.78
701.08	54383.81
701.27	54506.69
701.46	54752.44
701.65	53796.04
701.84	54691.01
702.03	54105.29
702.22	54551.74
702.41	54166.73
702.60	54531.26
702.79	54037.70
702.98	53730.51
703.17	54258.88
703.35	53748.94
703.54	53773.52
703.73	54158.53
703.92	53794.00
704.11	53810.38
704.30	53791.95
704.49	53538.00
704.68	53427.41
704.87	53800.14
705.06	53570.77
705.25	53302.48
705.43	53787.85
705.62	53683.40
705.81	53484.75
706.00	53408.98
706.19	53329.11
706.38	53169.36
706.57	53750.99
706.76	53576.91
706.95	53503.18
707.14	53271.76
707.32	52968.66
707.51	53265.62
707.70	53087.45
707.89	53058.77
708.08	53247.19
708.27	53652.69
708.46	53243.09
708.65	53175.51
708.84	53406.93
709.02	53073.11
709.21	53171.41
709.40	53296.34
709.59	53040.34
709.78	52909.27
709.97	53161.17
710.16	52972.76
710.34	52894.94
710.53	53050.58
710.72	52649.18
710.91	52643.04
711.10	53105.88
711.29	52868.31
711.48	52477.15
711.66	52454.62
711.85	52772.06
712.04	52606.17
712.23	52860.12
712.42	52464.86
712.61	52729.05
712.80	52280.55
712.98	52417.76
713.17	52083.94
713.36	52430.05
713.55	52325.60
713.74	52765.91
713.93	52247.78
714.11	52552.93
714.30	51991.78
714.49	52372.70
714.68	52024.55
714.87	52444.38
715.06	52581.60
715.24	51631.34
715.43	52085.99
715.62	51713.26
715.81	52055.27
716.00	52286.69
716.18	51393.78
716.37	51916.01
716.56	51643.63
716.75	51848.42
716.94	51606.76
717.12	51541.23
717.31	51827.95
717.50	51664.11
717.69	51524.85
717.88	51465.45
718.06	51274.99
718.25	51803.37
718.44	51025.14
718.63	51297.52
718.82	51264.75
719.00	51379.44
719.19	51068.15
719.38	51033.33
719.57	50490.62
719.76	50715.90
719.94	50480.38
720.13	50689.27
720.32	50871.54
720.51	50922.74
720.69	50734.33
720.88	50771.19
721.07	50879.74
721.26	50289.92
721.44	50558.20
721.63	50334.98
721.82	50167.04
722.01	50261.25
722.20	50279.68
722.38	50324.74
722.57	49759.50
722.76	50038.02
722.95	50124.04
723.13	49714.44
723.32	49730.83
723.51	49683.72
723.70	49825.03
723.88	49798.41
724.07	49657.10
724.26	49671.43
724.44	49460.49
724.63	49851.66
724.82	49493.26
725.01	49095.95
725.19	49214.74
725.38	49091.86
725.57	49061.14
725.76	49542.41
725.94	49077.52
726.13	49046.80
726.32	48964.88
726.51	49098.00
726.69	49456.40
726.88	48866.58
727.07	49241.36
727.25	48962.84
727.44	49034.52
727.63	48848.15
727.82	48956.69
728.00	49075.48
728.19	48895.25
728.38	49452.30
728.56	48950.55
728.75	49429.77
728.94	48852.25
729.12	49233.17
729.31	48909.59
729.50	48901.40
729.69	48864.53
729.87	48942.36
730.06	49145.11
730.25	48887.06
730.43	49366.29
730.62	48796.95
730.81	48917.78
730.99	49067.28
731.18	49075.48
731.37	48844.05
731.55	49274.13
731.74	49044.76
731.93	48614.68
732.11	48954.64
732.30	48719.13
732.49	48469.28
732.67	48788.76
732.86	48737.56
733.05	48583.96
733.23	48635.16
733.42	48799.00
733.61	48727.32
733.79	48919.83
733.98	48821.53
734.17	48674.07
734.35	48715.03
734.54	48573.72
734.73	48772.38
734.91	48735.51
735.10	48399.65
735.29	48891.16
735.47	48420.13
735.66	48540.96
735.84	48375.07
736.03	48606.49
736.22	48610.59
736.40	48270.62
736.59	48540.96
736.78	48256.29
736.96	48633.11
737.15	48424.22
737.33	47904.04
737.52	47871.27
737.71	48221.47
737.89	48305.44
738.08	47877.41
738.27	48174.37
738.45	48411.93
738.64	48141.60
738.82	47836.45
739.01	47955.24
739.20	47818.02
739.38	48012.58
739.57	48147.75
739.75	48117.03
739.94	47990.05
740.13	48260.38
740.31	48018.72
740.50	47973.67
740.68	48657.69
740.87	47885.61
741.06	48098.59
741.24	48041.25
741.43	47457.58
741.61	47717.67
741.80	47645.99
741.99	47129.90
742.17	46992.69
742.36	47779.11
742.54	47375.66
742.73	47781.16
742.91	47576.36
743.10	47234.35
743.29	47469.87
743.47	47277.36
743.66	47136.05
743.84	47349.04
744.03	47658.28
744.21	46939.44
744.40	47547.69
744.59	46783.80
744.77	46986.55
744.96	47037.75
745.14	47723.82
745.33	47586.60
745.51	47129.90
745.70	47158.58
745.88	47115.57
746.07	47371.57
746.26	46806.33
746.44	46757.17
746.63	46806.33
746.81	46980.40
747.00	46748.98
747.18	47172.91
747.37	46890.29
747.55	46947.64
747.74	47183.15
747.92	46732.60
748.11	46755.13
748.29	46560.57
748.48	46875.96
748.66	46996.79
748.85	46456.12
749.03	46495.03
749.22	46312.77
749.41	46028.10
749.59	46953.78
749.78	46118.21
749.96	45999.43
750.15	46052.67
750.33	46693.69
750.52	46232.89
750.70	46060.87
750.89	46046.53
751.07	45958.47
751.26	46021.95
751.44	46167.36
751.63	46155.07
751.81	45567.30
752.00	45663.56
752.18	45931.84
752.37	45532.49
752.55	45428.04
752.74	45915.46
752.92	46116.16
753.10	45645.13
753.29	45669.70
753.47	45342.03
753.66	45217.10
753.84	45980.99
754.03	45321.55
754.21	45094.22
754.40	45776.20
754.58	45483.34
754.77	45460.81
754.95	45061.46
755.14	45100.37
755.32	44873.04
755.51	45303.12
755.69	45055.31
755.88	45002.07
756.06	44930.39
756.24	45088.08
756.43	45081.94
756.61	45184.33
756.80	45075.79
756.98	44752.21
757.17	44920.15
757.35	45235.53
757.54	44776.79
757.72	44766.55
757.90	44457.31
758.09	44594.52
758.27	44684.63
758.46	44782.93
758.64	44410.20
758.83	44907.86
759.01	44852.56
759.19	44418.39
759.38	44383.58
759.56	44748.12
759.75	44864.85
759.93	44113.25
760.12	44033.38
760.30	44086.62
760.48	44137.82
760.67	44035.42
760.85	44041.57
761.04	44096.86
761.22	44129.63
761.40	43906.40
761.59	43863.39
761.77	43804.00
761.96	43826.53
762.14	43631.97
762.32	43574.63
762.51	43443.56
762.69	43488.62
762.88	43730.28
763.06	43562.34
763.24	43967.84
763.43	43775.33
763.61	43668.84
763.80	43767.14
763.98	43775.33
764.16	43799.91
764.35	43316.59
764.53	43212.14
764.72	43328.87
764.90	42990.96
765.08	43169.13
765.27	43173.23
765.45	42640.76
765.63	42612.09
765.82	43220.33
766.00	42950.00
766.18	43122.03
766.37	43451.75
766.55	43007.34
766.74	42952.05
766.92	42495.35
767.10	42995.06
767.29	42755.44
767.47	42337.66
767.65	42714.48
767.84	42450.30
768.02	42493.30
768.20	42235.26
768.39	42661.24
768.57	42679.67
768.75	42341.75
768.94	42749.30
769.12	42227.07
769.30	42200.44
769.49	42229.12
769.67	42153.34
769.85	41803.14
770.04	42046.85
770.22	41698.69
770.40	41989.50
770.59	41788.80
770.77	42106.24
770.95	41977.22
771.14	41627.01
771.32	41485.70
771.50	41434.50
771.69	41340.30
771.87	41639.30
772.05	41856.39
772.24	41035.15
772.42	41444.74
772.60	41309.58
772.78	41342.35
772.97	40975.76
773.15	41547.14
773.33	41203.08
773.52	41207.18
773.70	41328.01
773.88	41567.62
774.07	40996.24
774.25	41217.42
774.43	41555.33
774.61	41137.55
774.80	41590.15
774.98	41538.95
775.16	41227.66
775.34	41108.88
775.53	41096.59
775.71	41409.93
775.89	41266.57
776.08	41569.67
776.26	41330.06
776.44	41258.38
776.62	41203.08
776.81	41108.88
776.99	41323.91
777.17	41174.41
777.35	41354.63
777.54	41792.90
777.72	41624.96
777.90	41137.55
778.08	41887.10
778.27	41260.43
778.45	41411.98
778.63	41874.82
778.81	41856.39
779.00	41917.82
779.18	41889.15
779.36	41897.34
779.54	41471.37
779.73	41395.59
779.91	41811.33
780.09	41751.94
780.27	42136.96
780.46	41741.70
780.64	41784.71
780.82	41627.01
781.00	41989.50
781.19	41891.20
781.37	42253.69
781.55	42022.27
781.73	42173.82
781.91	42194.30
782.10	41952.64
782.28	42155.39
782.46	42237.31
782.64	42384.76
782.82	41907.58
783.01	42118.53
783.19	42405.24
783.37	42515.83
783.55	42292.60
783.74	42462.58
783.92	42065.28
784.10	42421.62
784.28	41979.26
784.46	42270.08
784.64	42001.79
784.83	42573.17
785.01	42470.78
785.19	42134.91
785.37	42521.98
785.55	42374.52
785.74	41934.21
785.92	41622.92
786.10	42294.65
786.28	42124.67
786.46	41952.64
786.64	41991.55
786.83	41704.84
787.01	42012.03
787.19	42046.85
787.37	41948.54
787.55	42116.48
787.74	41809.28
787.92	42186.11
788.10	41430.41
788.28	41368.97
788.46	41926.02
788.64	41667.97
788.82	41893.25
789.01	41389.45
789.19	41657.73
789.37	41399.69
789.55	41858.43
789.73	41235.85
789.91	40924.56
790.09	41307.53
790.28	41364.87
790.46	40680.85
790.64	41401.74
790.82	40912.27
791.00	40803.73
791.18	40805.78
791.36	40916.37
791.55	40889.74
791.73	40428.95
791.91	40152.48
792.09	40619.41
792.27	40244.63
792.45	40504.73
792.63	39990.69
792.81	40058.27
793.00	39914.91
793.18	39837.09
793.36	39855.52
793.54	39656.87
793.72	39769.51
793.90	39599.52
794.08	39425.45
794.26	39298.47
794.44	39167.40
794.62	39157.16
794.81	39255.46
794.99	39357.86
795.17	38809.01
795.35	39466.41
795.53	39228.84
795.71	39048.62
795.89	38993.32
796.07	39071.15
796.25	38239.67
796.43	38411.70
796.61	38444.47
796.80	38198.71
796.98	38411.70
797.16	38180.28
797.34	38313.40
797.52	38112.70
797.70	38421.94
797.88	38106.55
798.06	37832.13
798.24	37860.80
798.42	37772.74
798.60	37725.63
798.78	37277.13
798.96	37592.51
799.14	37094.86
799.32	37453.25
799.51	37332.42
799.69	37430.72
799.87	37127.63
800.05	36804.05
800.23	36691.41
800.41	36963.79
800.59	37180.87
800.77	36634.06
800.95	36687.31
801.13	36494.80
801.31	36531.67
801.49	36546.00
801.67	36326.87
801.85	36314.58
802.03	36056.54
802.21	35845.60
802.39	36279.77
802.57	35796.45
802.75	35821.02
802.93	35679.71
803.11	35554.79
803.29	35366.37
803.47	35438.05
803.65	35409.38
803.83	35786.21
804.01	35255.78
804.19	35382.76
804.37	35370.47
804.55	35124.71
804.73	34829.80
804.91	34776.56
805.09	34743.79
805.27	34577.90
805.45	35005.93
805.63	34520.56
805.81	34719.21
805.99	34799.08
806.17	34909.68
806.35	34622.96
806.53	34346.48
806.71	34516.47
806.89	34702.83
807.07	33914.36
807.25	34280.95
807.43	33822.20
807.61	34500.08
807.79	33990.14
807.97	33838.59
808.15	34076.15
808.33	33461.76
808.51	33461.76
808.69	33748.48
808.87	33299.97
809.05	33349.12
809.23	33506.82
809.41	32957.96
809.59	33216.01
809.77	33246.72
809.95	33510.91
810.13	33224.20
810.31	32609.81
810.49	33121.80
810.67	32972.30
810.84	32773.64
811.02	32773.64
811.20	32722.44
811.38	32689.68
811.56	32529.94
811.74	32683.53
811.92	32464.40
812.10	32527.89
812.28	32665.10
812.46	32263.70
812.64	32175.64
812.82	32126.49
813.00	32177.68
813.18	31999.51
813.36	31837.72
813.53	31499.81
813.71	32019.99
813.89	31741.47
814.07	31905.31
814.25	32081.43
814.43	31606.30
814.61	31614.49
814.79	31462.94
814.97	31475.23
815.15	31503.90
815.33	30993.96
815.50	30848.55
815.68	31350.31
815.86	31553.05
816.04	30948.90
816.22	31209.00
816.40	31069.73
816.58	30752.30
816.76	30750.25
816.94	30858.79
817.11	30799.40
817.29	30754.35
817.47	30797.35
817.65	30610.99
817.83	30658.09
818.01	30426.67
818.19	30158.39
818.37	30594.61
818.54	30367.28
818.72	30256.69
818.90	30514.73
819.08	30125.62
819.26	30385.71
819.44	30037.56
819.62	30115.38
819.80	30131.76
819.97	29826.62
820.15	29664.83
820.33	29527.61
820.51	29818.42
820.69	29517.37
820.87	29992.50
821.05	29693.50
821.22	29765.18
821.40	29994.55
821.58	29500.99
821.76	29488.70
821.94	29421.12
822.12	29627.96
822.29	29621.82
822.47	29195.84
822.65	29634.11
822.83	29048.39
823.01	29175.36
823.19	29206.08
823.36	28923.46
823.54	28855.88
823.72	28751.43
823.90	28948.04
824.08	28692.04
824.25	29107.78
824.43	28493.39
824.61	28708.43
824.79	28876.36
824.97	28440.14
825.15	28718.67
825.32	28528.20
825.50	28415.57
825.68	28694.09
825.86	28767.82
826.04	28577.36
826.21	28479.05
826.39	28186.19
826.57	28182.10
826.75	28243.54
826.93	27799.13
827.10	28061.27
827.28	28028.50
827.46	28354.13
827.64	28274.26
827.81	27766.36
827.99	28145.23
828.17	27971.16
828.35	27815.51
828.53	27856.47
828.70	27668.06
828.88	27811.42
829.06	27782.74
829.24	27700.83
829.41	27473.50
829.59	27477.60
829.77	27838.04
829.95	27702.87
830.12	27440.73
830.30	27500.12
830.48	27389.53
830.66	27375.20
830.84	27618.91
831.01	27315.81
831.19	27489.88
831.37	27258.46
831.55	27053.67
831.72	26949.22
831.90	27393.63
832.08	27313.76
832.25	27076.19
832.43	26998.37
832.61	26885.73
832.79	26824.29
832.96	26732.14
833.14	27340.38
833.32	27272.80
833.50	27068.00
833.67	27104.87
833.85	26797.67
834.03	26500.72
834.20	26816.10
834.38	26936.93
834.56	26635.88
834.74	26418.80
834.91	26529.39
835.09	26142.32
835.27	26209.90
835.44	26461.80
835.62	26529.39
835.80	26185.33
835.98	25904.76
836.15	26168.94
836.33	26050.16
836.51	26388.08
836.68	26326.64
836.86	26293.87
837.04	26214.00
837.21	25947.76
837.39	26302.06
837.57	26115.70
837.75	26091.12
837.92	25673.34
838.10	26015.35
838.28	25824.89
838.45	26207.86
838.63	25765.49
838.81	26082.93
838.98	25536.12
839.16	25704.06
839.34	25611.90
839.51	25390.72
839.69	25644.66
839.87	25386.62
840.04	25386.62
840.22	25423.48
840.40	25269.89
840.57	25206.40
840.75	25226.88
840.93	25118.34
841.10	25249.41
841.28	25443.96
841.46	25097.86
841.63	25304.70
841.81	25230.98
841.98	25183.87
842.16	25523.83
842.34	25181.82
842.51	24805.00
842.69	25333.37
842.87	25130.62
843.04	25017.99
843.22	24518.28
843.40	24608.39
843.57	24837.76
843.75	24770.18
843.92	24899.20
844.10	24778.37
844.28	24919.68
844.45	24950.40
844.63	24780.42
844.81	24735.37
844.98	24596.10
845.16	24792.71
845.33	24710.79
845.51	24639.11
845.69	24655.50
845.86	24600.20
846.04	24563.34
846.21	24309.39
846.39	24348.30
846.57	24370.83
846.74	24073.87
846.92	23922.32
847.09	24348.30
847.27	23877.27
847.45	24225.42
847.62	24200.85
847.80	24348.30
847.97	24151.70
848.15	23647.90
848.32	23813.78
848.50	24057.49
848.68	23998.10
848.85	23789.20
849.03	23797.40
849.20	23676.57
849.38	23926.42
849.56	23707.29
849.73	23762.58
849.91	23903.89
850.08	24186.51
850.26	23484.06
850.43	23291.55
850.61	23807.64
850.78	23240.35
850.96	23226.01
851.14	23510.68
851.31	23416.47
851.49	23383.71
851.66	23533.21
851.84	23273.12
852.01	23387.80
852.19	23393.95
852.36	23230.11
852.54	23289.50
852.71	23090.85
852.89	23158.43
853.07	23029.41
853.24	23207.58
853.42	23393.95
853.59	23160.48
853.77	23344.80
853.94	23213.73
854.12	23250.59
854.29	22582.95
854.47	23025.31
854.64	22910.63
854.82	23223.97
854.99	22810.28
855.17	22838.95
855.34	22836.90
855.52	23213.73
855.69	22888.10
855.87	22703.78
856.04	22859.43
856.22	22585.00
856.39	22466.22
856.57	22607.53
856.74	22691.49
856.92	22591.14
857.09	22449.83
857.27	22714.02
857.44	22511.27
857.62	22390.44
857.79	22476.46
857.97	22478.50
858.14	22585.00
858.32	22191.79
858.49	22126.25
858.67	22279.85
858.84	22064.82
859.02	22257.32
859.19	22124.21
859.37	21843.63
859.54	21817.01
859.72	22124.21
859.89	21868.21
860.06	22019.76
860.24	21956.27
860.41	22257.32
860.59	21823.16
860.76	21911.22
860.94	21499.58
861.11	21655.22
861.29	21892.79
861.46	21806.77
861.64	21575.35
861.81	21845.68
861.98	21659.32
862.16	21417.66
862.33	21438.14
862.51	21440.18
862.68	21683.89
862.86	21388.99
863.03	21345.98
863.21	21462.71
863.38	21470.90
863.55	21526.20
863.73	21298.88
863.90	21110.46
864.08	21388.99
864.25	21298.88
864.43	21241.53
864.60	21323.45
864.77	21067.45
864.95	21046.97
865.12	20844.23
865.30	21153.47
865.47	21210.81
865.64	20903.62
865.82	21112.51
865.99	21128.89
866.17	21065.41
866.34	20977.34
866.51	20760.26
866.69	20895.43
866.86	20913.86
867.04	20635.33
867.21	20692.68
867.38	20643.52
867.56	20684.48
867.73	20635.33
867.91	20510.41
868.08	20494.02
868.25	20465.35
868.43	20448.97
868.60	20283.08
868.78	19986.13
868.95	20391.62
869.12	20170.44
869.30	20211.40
869.47	20098.77
869.64	19994.32
869.82	20192.97
869.99	20066.00
870.16	20434.63
870.34	20264.65
870.51	20285.13
870.69	20022.99
870.86	20143.82
871.03	20174.54
871.21	19719.89
871.38	19816.15
871.55	19914.45
871.73	19752.66
871.90	19627.73
872.07	19689.17
872.25	19869.39
872.42	19916.50
872.59	19562.20
872.77	19627.73
872.94	19662.55
873.11	19738.32
873.29	19543.77
873.46	19166.94
873.63	19644.12
873.81	19451.61
873.98	19463.90
874.15	19211.99
874.33	19216.09
874.50	19101.40
874.67	19234.52
874.85	18919.14
875.02	19205.85
875.19	18859.74
875.37	18788.07
875.54	18806.50
875.71	18845.41
875.88	18706.15
876.06	19033.82
876.23	18589.41
876.40	18540.26
876.58	18847.46
876.75	18704.10
876.92	18802.40
877.10	18743.01
877.27	18640.61
877.44	18622.18
877.61	18538.21
877.79	18521.83
877.96	18177.77
878.13	18271.98
878.31	18421.48
878.48	18231.02
878.65	18206.44
878.82	17884.91
879.00	18177.77
879.17	18331.37
879.34	18208.49
879.51	18020.08
879.69	18255.59
879.86	18314.98
880.03	17999.60
880.21	17776.37
880.38	18110.19
880.55	18278.12
880.72	17798.90
880.90	17897.20
881.07	17702.64
881.24	17770.22
881.41	17917.68
881.59	17800.94
881.76	17671.92
881.93	17628.92
882.10	17622.77
882.28	17575.67
882.45	17467.13
882.62	17430.26
882.79	17792.75
882.96	17309.43
883.14	17487.61
883.31	17270.52
883.48	17395.45
883.65	17368.82
883.83	17557.24
884.00	17454.84
884.17	17049.34
884.34	17608.44
884.51	17413.88
884.69	17336.06
884.86	17254.14
885.03	17045.24
885.20	17155.83
885.38	17284.86
885.55	17133.31
885.72	17159.93
885.89	16961.28
886.06	17243.90
886.24	16981.76
886.41	16977.66
886.58	17063.68
886.75	17166.07
886.92	16842.50
887.10	16862.97
887.27	17053.44
887.44	16930.56
887.61	16975.61
887.78	17026.81
887.95	17129.21
888.13	16736.00
888.30	16611.07
888.47	16908.03
888.64	16955.13
888.81	16768.77
888.99	16819.97
889.16	16520.96
889.33	16408.33
889.50	16592.64
889.67	16490.24
889.84	16783.10
890.01	16453.38
890.19	16324.36
890.36	16387.85
890.53	16285.45
890.70	16424.71
890.87	16146.19
891.04	16611.07
891.22	16381.70
891.39	16520.96
891.56	16193.29
891.73	16105.23
891.90	15894.29
892.07	15853.33
892.24	16168.71
892.42	16092.94
892.59	16090.89
892.76	15865.61
892.93	15961.87
893.10	15998.73
893.27	15761.17
893.44	15591.19
893.61	15818.51
893.79	16035.60
893.96	15941.39
894.13	15697.68
894.30	15982.35
894.47	15947.53
894.64	15884.05
894.81	15634.19
894.98	15716.11
895.15	15816.46
895.33	15922.96
895.50	15925.00
895.67	15812.37
895.84	15959.82
896.01	15773.46
896.18	15582.99
896.35	15920.91
896.52	15761.17
896.69	15562.51
896.86	15734.54
897.04	15544.08
897.21	15707.92
897.38	15507.22
897.55	15501.08
897.72	15861.52
897.89	15763.22
898.06	15486.74
898.23	15765.26
898.40	15746.83
898.57	15482.64
898.74	15609.62
898.91	15634.19
899.08	15802.13
899.26	15740.69
899.43	15822.61
899.60	15703.82
899.77	15570.71
899.94	15556.37
900.11	15736.59
900.28	15566.61
900.45	15468.31
900.62	15394.58
900.79	15638.29
900.96	15435.54
901.13	15646.48
901.30	15642.39
901.47	15496.98
901.64	15607.57
901.81	15404.82
901.98	15435.54
902.15	15626.00
902.32	15582.99
902.49	15576.85
902.66	15415.06
902.83	15578.90
903.01	15570.71
903.18	15568.66
903.35	15746.83
903.52	15517.46
903.69	15691.54
903.86	15533.84
904.03	15253.27
904.20	15623.95
904.37	15613.71
904.54	15529.75
904.71	15339.29
904.88	15234.84
905.05	15312.66
905.22	15550.23
905.39	15302.42
905.56	15527.70
905.73	15484.69
905.90	15456.02
906.07	15421.20
906.24	15552.27
906.41	15365.91
906.58	15640.34
906.75	15507.22
906.92	15046.43
907.09	15304.47
907.26	15451.92
907.43	15451.92
907.60	15339.29
907.77	15419.16
907.93	15337.24
908.10	15322.90
908.27	15548.18
908.44	15200.02
908.61	15187.74
908.78	15109.91
908.95	15511.32
909.12	15148.82
909.29	15310.61
909.46	15527.70
909.63	15327.00
909.80	15273.75
909.97	15378.20
910.14	15204.12
910.31	15298.33
910.48	15257.37
910.65	15337.24
910.82	15075.10
910.99	14958.36
911.16	15152.92
911.33	15292.18
911.50	15277.85
911.66	15271.70
911.83	15146.78
912.00	14978.84
912.17	14878.49
912.34	15044.38
912.51	15011.61
912.68	14575.39
912.85	14610.21
913.02	14952.22
913.19	14698.27
913.36	14794.53
913.53	14909.21
913.70	14823.20
913.86	14962.46
914.03	14739.23
914.20	14812.96
914.37	14806.81
914.54	14679.84
914.71	14642.98
914.88	14612.26
915.05	14477.09
915.22	14493.47
915.39	14575.39
915.55	14706.46
915.72	14231.33
915.89	14161.70
916.06	13967.15
916.23	14522.15
916.40	14206.76
916.57	14124.84
916.74	14282.53
916.91	14343.97
917.07	14067.50
917.24	14073.64
917.41	14290.73
917.58	14092.07
917.75	14155.56
917.92	13809.45
918.09	14014.25
918.26	13920.04
918.42	13918.00
918.59	13735.73
918.76	13627.18
918.93	13887.28
919.10	13563.70
919.27	13711.15
919.44	13569.84
919.60	13774.64
919.77	13629.23
919.94	13358.90
920.11	13504.31
920.28	13532.98
920.45	13406.00
920.61	13346.61
920.78	13363.00
920.95	13248.31
921.12	13336.37
921.29	13184.82
921.46	13127.48
921.62	13074.23
921.79	13088.57
921.96	13055.80
922.13	12990.27
922.30	13047.61
922.47	12789.56
922.63	12873.53
922.80	12889.92
922.97	12635.97
923.14	12760.89
923.31	12742.46
923.47	12730.17
923.64	12715.84
923.81	12386.12
923.98	12646.21
924.15	12400.45
924.32	12265.28
924.48	12445.51
924.65	12279.62
924.82	12189.51
924.99	12015.43
925.15	12048.20
925.32	12148.55
925.49	12037.96
925.66	12048.20
925.83	11933.51
925.99	11980.62
926.16	11956.04
926.33	11947.85
926.50	11722.57
926.67	12003.14
926.83	11747.15
927.00	11511.63
927.17	11421.52
927.34	11589.46
927.50	11411.28
927.67	11812.68
927.84	11405.14
928.01	11384.66
928.17	11245.40
928.34	11272.02
928.51	11253.59
928.68	11265.88
928.84	11396.95
929.01	10909.53
929.18	10811.23
929.35	11050.84
929.51	10954.58
929.68	10825.56
929.85	10858.33
930.02	10635.10
930.18	10862.43
930.35	10862.43
930.52	10874.71
930.69	10708.83
930.85	10667.87
931.02	10555.23
931.19	10710.88
931.36	10520.42
931.52	10368.87
931.69	10477.41
931.86	10434.40
932.02	10338.15
932.19	10192.74
932.36	10227.56
932.53	10176.36
932.69	9897.83
932.86	10061.67
933.03	10108.77
933.19	9889.64
933.36	10049.38
933.53	10067.81
933.70	9961.32
933.86	9713.52
934.03	9764.72
934.20	9613.17
934.36	9713.52
934.53	9574.25
934.70	9273.20
934.86	9502.58
935.03	9246.58
935.20	9211.76
935.36	9172.85
935.53	9064.31
935.70	9123.70
935.86	9049.97
936.03	8849.27
936.20	8732.54
936.36	8740.73
936.53	8648.57
936.70	8562.56
936.86	8521.60
937.03	8464.25
937.20	8226.69
937.36	8306.56
937.53	8073.09
937.70	8259.46
937.86	7974.79
938.03	7925.64
938.20	8097.67
938.36	7735.18
938.53	7931.78
938.70	7700.36
938.86	7690.12
939.03	7571.34
939.20	7540.62
939.36	7438.22
939.53	7409.55
939.70	7341.97
939.86	7032.72
940.03	7065.49
940.19	6954.90
940.36	6870.94
940.53	6799.26
940.69	6729.63
940.86	6682.52
941.03	6541.21
941.19	6582.17
941.36	6483.87
941.52	6594.46
941.69	6387.61
941.86	6328.22
942.02	6315.94
942.19	6295.46
942.35	6172.58
942.52	6037.41
942.69	6031.27
942.85	6000.55
943.02	5945.25
943.18	6041.51
943.35	5849.00
943.52	5910.44
943.68	5715.88
943.85	5857.19
944.01	5775.27
944.18	5781.42
944.35	5883.81
944.51	5683.11
944.68	5582.76
944.84	5613.48
945.01	5685.16
945.17	5533.61
945.34	5560.24
945.51	5644.20
945.67	5519.28
945.84	5486.51
946.00	5504.94
946.17	5627.82
946.33	5355.44
946.50	5566.38
946.67	5463.98
946.83	5498.80
947.00	5574.57
947.16	5398.45
947.33	5449.64
947.49	5488.56
947.66	5330.86
947.82	5461.93
947.99	5482.41
948.16	5396.40
948.32	5353.39
948.49	5445.55
948.65	5543.85
948.82	5216.18
948.98	5296.05
949.15	5263.28
949.31	5388.21
949.48	5439.40
949.64	5316.53
949.81	5531.56
949.97	5394.35
950.14	5410.73
950.30	5298.10
950.47	5418.93
950.63	5345.20
950.80	5390.25
950.96	5304.24
951.13	5355.44
951.30	5353.39
951.46	5474.22
951.63	5463.98
951.79	5492.65
951.96	5537.71
952.12	5463.98
952.29	5488.56
952.45	5541.80
952.62	5482.41
952.78	5377.97
952.94	5463.98
953.11	5500.84
953.27	5318.57
953.44	5470.12
953.60	5445.55
953.77	5500.84
953.93	5527.47
954.10	5341.10
954.26	5629.87
954.43	5523.37
954.59	5582.76
954.76	5593.00
954.92	5425.07
955.09	5623.72
955.25	5547.95
955.42	5543.85
955.58	5644.20
955.75	5539.76
955.91	5496.75
956.07	5490.60
956.24	5443.50
956.40	5611.43
956.57	5623.72
956.73	5498.80
956.90	5609.39
957.06	5523.37
957.23	5535.66
957.39	5531.56
957.56	5541.80
957.72	5396.40
957.88	5402.54
958.05	5672.87
958.21	5636.01
958.38	5566.38
958.54	5590.95
958.71	5529.52
958.87	5521.32
959.03	5539.76
959.20	5570.48
959.36	5515.18
959.53	5494.70
959.69	5402.54
959.85	5627.82
960.02	5380.01
960.18	5617.58
960.35	5349.29
960.51	5439.40
960.68	5382.06
960.84	5466.03
961.00	5562.28
961.17	5601.19
961.33	5468.08
961.50	5455.79
961.66	5648.30
961.82	5603.24
961.99	5515.18
962.15	5400.49
962.31	5586.86
962.48	5369.77
962.64	5576.62
962.81	5523.37
962.97	5523.37
963.13	5353.39
963.30	5595.05
963.46	5423.02
963.62	5453.74
963.79	5371.82
963.95	5427.12
964.12	5443.50
964.28	5423.02
964.44	5447.60
964.61	5482.41
964.77	5441.45
964.93	5513.13
965.10	5384.11
965.26	5412.78
965.42	5375.92
965.59	5341.10
965.75	5294.00
965.92	5339.05
966.08	5373.87
966.24	5373.87
966.41	5302.19
966.57	5332.91
966.73	5337.01
966.90	5478.32
967.06	5345.20
967.22	5310.38
967.39	5359.53
967.55	5367.73
967.71	5388.21
967.88	5294.00
968.04	5240.75
968.20	5212.08
968.37	5191.60
968.53	5191.60
968.69	5332.91
968.85	5287.86
969.02	5220.27
969.18	5183.41
969.34	5308.34
969.51	5169.07
969.67	5189.55
969.83	5187.50
970.00	5304.24
970.16	5164.98
970.32	5175.22
970.48	5246.90
970.65	5052.34
970.81	5050.29
970.97	5074.87
971.14	4933.56
971.30	5179.31
971.46	4982.71
971.63	5070.77
971.79	5195.70
971.95	5070.77
972.11	4958.13
972.28	5089.20
972.44	4978.61
972.60	4896.69
972.76	4937.65
972.93	4892.60
973.09	4966.32
973.25	4919.22
973.42	4960.18
973.58	4949.94
973.74	5015.48
973.90	4976.56
974.07	4947.89
974.23	4988.85
974.39	4880.31
974.55	4870.07
974.72	4923.32
974.88	4790.20
975.04	4859.83
975.20	4833.21
975.37	5009.33
975.53	4761.53
975.69	5005.24
975.85	4849.59
976.01	4630.46
976.18	4851.64
976.34	4749.24
976.50	4833.21
976.66	4736.95
976.83	4747.19
976.99	4763.58
977.15	4820.92
977.31	4636.60
977.47	4734.90
977.64	4650.94
977.80	4695.99
977.96	4759.48
978.12	4689.85
978.29	4655.03
978.45	4630.46
978.61	4589.50
978.77	4765.62
978.93	4526.01
979.10	4628.41
979.26	4583.35
979.42	4554.68
979.58	4474.81
979.74	4626.36
979.91	4497.34
980.07	4495.29
980.23	4427.71
980.39	4513.72
980.55	4566.97
980.71	4460.48
980.88	4419.52
981.04	4513.72
981.20	4376.51
981.36	4532.15
981.52	4470.72
981.68	4485.05
981.85	4464.57
982.01	4360.13
982.17	4308.93
982.33	4452.28
982.49	4433.85
982.65	4403.13
982.82	4366.27
982.98	4399.04
983.14	4304.83
983.30	4415.42
983.46	4362.17
983.62	4376.51
983.79	4306.88
983.95	4270.01
984.11	4097.99
984.27	4341.69
984.43	4306.88
984.59	4302.78
984.75	4251.58
984.91	4112.32
985.08	4220.86
985.24	4091.84
985.40	4145.09
985.56	4175.81
985.72	4194.24
985.88	4171.71
986.04	4110.27
986.20	3973.06
986.37	4116.42
986.53	3940.29
986.69	4188.10
986.85	3985.35
987.01	4065.22
987.17	4038.59
987.33	4007.87
987.49	4149.18
987.65	4145.09
987.82	4040.64
987.98	4011.97
988.14	4063.17
988.30	4089.79
988.46	3839.94
988.62	3893.19
988.78	3956.68
988.94	3979.20
989.10	3885.00
989.26	3895.24
989.42	3858.37
989.59	3960.77
989.75	3940.29
989.91	3901.38
990.07	3811.27
990.23	3868.61
990.39	3911.62
990.55	3909.57
990.71	3672.01
990.87	3870.66
991.03	3817.41
991.19	3747.78
991.35	3663.82
991.51	3813.32
991.67	3858.37
991.83	3690.44
992.00	3837.89
992.16	3753.93
992.32	3825.61
992.48	3770.31
992.64	3618.76
992.80	3698.63
992.96	3659.72
993.12	3635.14
993.28	3739.59
993.44	3530.70
993.60	3678.15
993.76	3612.62
993.92	3723.21
994.08	3815.37
994.24	3770.31
994.40	3592.14
994.56	3686.34
994.72	3600.33
994.88	3532.75
995.04	3600.33
995.20	3518.41
995.36	3657.67
995.52	3633.10
995.68	3626.95
995.84	3491.79
996.00	3592.14
996.16	3530.70
996.32	3575.75
996.48	3534.79
996.64	3567.56
996.80	3495.88
996.96	3508.17
997.12	3563.47
997.28	3334.09
997.44	3319.76
997.60	3360.72
997.76	3403.72
997.92	3547.08
998.08	3438.54
998.24	3381.20
998.40	3342.28
998.56	3405.77
998.72	3272.65
998.88	3350.48
999.04	3297.23
999.20	3442.64
999.36	3289.04
999.52	3416.01
999.68	3243.98
999.84	3321.81
1000.00	3403.72
1000.16	3258.32
1000.32	3262.41
1000.48	3313.61
1000.64	3108.82
1000.80	3207.12
1000.95	3286.99
1001.11	3358.67
1001.27	3160.02
1001.43	3381.20
1001.59	3184.59
1001.75	3114.96
1001.91	3143.63
1002.07	3164.11
1002.23	3131.34
1002.39	3043.28
1002.55	3176.40
1002.71	3196.88
1002.87	3141.58
1003.03	3049.43
1003.19	3172.30
1003.34	3147.73
1003.50	3213.26
1003.66	3133.39
1003.82	3135.44
1003.98	3024.85
1004.14	3028.95
1004.30	3055.57
1004.46	3084.24
1004.62	3035.09
1004.78	3074.00
1004.94	3004.37
1005.09	3139.54
1005.25	3168.21
1005.41	2904.02
1005.57	2947.03
1005.73	3047.38
1005.89	2985.94
1006.05	3039.19
1006.21	3043.28
1006.37	2936.79
1006.52	2938.84
1006.68	2850.77
1006.84	3094.48
1007.00	2850.77
1007.16	3010.51
1007.32	2992.08
1007.48	2895.83
1007.64	2897.88
1007.79	2910.16
1007.95	2897.88
1008.11	3047.38
1008.27	2928.60
1008.43	2899.92
1008.59	2842.58
1008.75	2981.84
1008.91	2885.59
1009.06	2766.81
1009.22	2914.26
1009.38	2797.53
1009.54	2842.58
1009.70	2789.33
1009.86	2748.37
1010.01	2854.87
1010.17	2674.65
1010.33	2805.72
1010.49	2852.82
1010.65	2768.85
1010.81	2801.62
1010.96	2787.29
1011.12	2693.08
1011.28	2650.07
1011.44	2775.00
1011.60	2680.79
1011.76	2764.76
1011.91	2772.95
1012.07	2680.79
1012.23	2656.22
1012.39	2586.58
1012.55	2643.93
1012.71	2652.12
1012.86	2639.83
1013.02	2641.88
1013.18	2695.13
1013.34	2600.92
1013.50	2717.65
1013.65	2656.22
1013.81	2615.26
1013.97	2621.40
1014.13	2637.78
1014.29	2658.26
1014.44	2709.46
1014.60	2609.11
1014.76	2621.40
1014.92	2562.01
1015.07	2594.78
1015.23	2684.89
1015.39	2547.67
1015.55	2488.28
1015.71	2551.77
1015.86	2559.96
1016.02	2471.90
1016.18	2486.23
1016.34	2562.01
1016.49	2514.91
1016.65	2539.48
1016.81	2539.48
1016.97	2555.86
1017.12	2594.78
1017.28	2529.24
1017.44	2414.56
1017.60	2394.08
1017.75	2441.18
1017.91	2455.51
1018.07	2502.62
1018.23	2467.80
1018.38	2432.99
1018.54	2482.14
1018.70	2488.28
1018.86	2455.51
1019.01	2332.64
1019.17	2346.97
1019.33	2494.43
1019.49	2428.89
1019.64	2455.51
1019.80	2439.13
1019.96	2408.41
1020.12	2457.56
1020.27	2371.55
1020.43	2457.56
1020.59	2410.46
1020.74	2453.47
1020.90	2455.51
1021.06	2244.57
1021.22	2322.40
1021.37	2330.59
1021.53	2301.92
1021.69	2342.88
1021.84	2291.68
1022.00	2328.54
1022.16	2297.82
1022.31	2281.44
1022.47	2336.73
1022.63	2369.50
1022.79	2263.01
1022.94	2322.40
1023.10	2428.89
1023.26	2303.96
1023.41	2293.72
1023.57	2211.81
1023.73	2336.73
1023.88	2383.84
1024.04	2217.95
1024.20	2172.89
1024.35	2283.49
1024.51	2256.86
1024.67	2353.12
1024.82	2267.10
1024.98	2226.14
1025.14	2297.82
1025.29	2217.95
1025.45	2279.39
1025.61	2230.24
1025.76	2215.90
1025.92	2230.24
1026.08	2187.23
1026.23	2209.76
1026.39	2275.29
1026.55	2187.23
1026.70	2224.09
1026.86	2252.77
1027.02	2265.05
1027.17	2205.66
1027.33	2252.77
1027.48	2215.90
1027.64	2174.94
1027.80	2119.65
1027.95	2314.20
1028.11	2074.59
1028.27	2170.85
1028.42	2234.33
1028.58	2138.08
1028.73	2070.50
1028.89	2052.06
1029.05	2158.56
1029.20	2209.76
>>>>>End Processed Spectral Data<<<<<
