SpectraSuite Data File
++++++++++++++++++++++++++++++++++++
Date: Fri Jun 02 14:51:10 CEST 2017
User: INFO_000
Dark Spectrum Present: No
Reference Spectrum Present: No
Number of Sampled Component Spectra: 1
Spectrometers: USB4H00879
Integration Time (usec): 80000 (USB4H00879)
Spectra Averaged: 1 (USB4H00879)
Boxcar Smoothing: 0 (USB4H00879)
Correct for Electrical Dark: No (USB4H00879)
Strobe/Lamp Enabled: No (USB4H00879)
Correct for Detector Non-linearity: No (USB4H00879)
Correct for Stray Light: No (USB4H00879)
Number of Pixels in Processed Spectrum: 3648
>>>>>Begin Processed Spectral Data<<<<<
345.13	1294.32
345.34	1294.32
345.56	1294.32
345.78	1275.88
345.99	1282.03
346.21	1691.62
346.42	1732.58
346.64	1654.76
346.86	1775.59
347.07	1558.50
347.29	1654.76
347.50	1630.18
347.72	1687.53
347.94	1818.60
348.15	1562.60
348.37	1607.66
348.59	1697.77
348.80	1601.51
349.02	1796.07
349.23	1845.22
349.45	1816.55
349.67	1871.84
349.88	1757.16
350.10	1990.63
350.31	1843.17
350.53	1873.89
350.75	1966.05
350.96	1791.97
351.18	1847.27
351.39	1834.98
351.61	1765.35
351.82	1900.52
352.04	1875.94
352.26	1839.08
352.47	1857.51
352.69	1931.23
352.90	1822.69
353.12	1812.45
353.34	1837.03
353.55	2007.01
353.77	1832.93
353.98	1851.36
354.20	1804.26
354.41	1968.10
354.63	1968.10
354.85	2000.87
355.06	1886.18
355.28	1798.12
355.49	1830.88
355.71	1892.32
355.92	1888.23
356.14	1845.22
356.35	1933.28
356.57	1845.22
356.79	1974.24
357.00	1781.73
357.22	2000.87
357.43	1834.98
357.65	1941.47
357.86	1855.46
358.08	1918.95
358.29	2017.25
358.51	1929.19
358.72	1978.34
358.94	1945.57
359.16	1929.19
359.37	1953.76
359.59	2002.91
359.80	1994.72
360.02	1912.80
360.23	2009.06
360.45	2021.35
360.66	1943.52
360.88	1906.66
361.09	1888.23
361.31	1880.04
361.52	1943.52
361.74	2056.16
361.95	2029.54
362.17	1869.80
362.38	2007.01
362.60	2002.91
362.81	1927.14
363.03	1974.24
363.24	1957.86
363.46	2080.74
363.67	2072.54
363.89	1990.63
364.10	1935.33
364.32	1986.53
364.53	2070.50
364.75	1877.99
364.96	2013.15
365.18	2023.39
365.39	1966.05
365.61	1918.95
365.82	2156.51
366.04	2050.02
366.25	2013.15
366.47	2041.82
366.68	2011.11
366.90	1941.47
367.11	2023.39
367.33	2045.92
367.54	2076.64
367.76	1984.48
367.97	2072.54
368.19	2033.63
368.40	2084.83
368.62	2031.58
368.83	1982.43
369.05	2072.54
369.26	1914.85
369.48	2004.96
369.69	2060.26
369.91	2064.35
370.12	1998.82
370.33	2138.08
370.55	1959.91
370.76	2047.97
370.98	2121.70
371.19	2007.01
371.41	2062.30
371.62	2068.45
371.84	1968.10
372.05	2166.75
372.27	1984.48
372.48	2056.16
372.69	2078.69
372.91	2195.42
373.12	2129.89
373.34	2090.98
373.55	2088.93
373.77	2140.13
373.98	2031.58
374.20	2113.50
374.41	2215.90
374.62	2115.55
374.84	2158.56
375.05	2160.61
375.27	2189.28
375.48	2099.17
375.70	2242.53
375.91	2183.13
376.12	2256.86
376.34	2156.51
376.55	2232.29
376.77	2207.71
376.98	2166.75
377.19	2080.74
377.41	2146.27
377.62	2166.75
377.84	2215.90
378.05	2301.92
378.27	2199.52
378.48	2349.02
378.69	2404.32
378.91	2220.00
379.12	2187.23
379.34	2236.38
379.55	2355.16
379.76	2273.25
379.98	2226.14
380.19	2256.86
380.41	2230.24
380.62	2334.68
380.83	2228.19
381.05	2195.42
381.26	2340.83
381.47	2205.66
381.69	2281.44
381.90	2353.12
382.12	2295.77
382.33	2301.92
382.54	2260.96
382.76	2330.59
382.97	2295.77
383.19	2291.68
383.40	2400.22
383.61	2297.82
383.83	2256.86
384.04	2252.77
384.25	2312.16
384.47	2406.36
384.68	2375.64
384.89	2275.29
385.11	2314.20
385.32	2361.31
385.54	2432.99
385.75	2265.05
385.96	2402.27
386.18	2310.11
386.39	2377.69
386.60	2324.44
386.82	2330.59
387.03	2451.42
387.24	2430.94
387.46	2387.93
387.67	2453.47
387.88	2523.10
388.10	2439.13
388.31	2334.68
388.52	2516.95
388.74	2613.21
388.95	2449.37
389.16	2482.14
389.38	2471.90
389.59	2576.34
389.80	2488.28
390.02	2545.63
390.23	2605.02
390.44	2562.01
390.66	2592.73
390.87	2469.85
391.08	2584.54
391.30	2674.65
391.51	2580.44
391.72	2682.84
391.94	2607.06
392.15	2514.91
392.36	2516.95
392.58	2494.43
392.79	2629.59
393.00	2611.16
393.22	2775.00
393.43	2731.99
393.64	2787.29
393.85	2760.66
394.07	2635.74
394.28	2660.31
394.49	2795.48
394.71	2631.64
394.92	2836.44
395.13	2715.61
395.35	2760.66
395.56	2731.99
395.77	2731.99
395.98	2797.53
396.20	2953.17
396.41	2875.35
396.62	2762.71
396.84	2748.37
397.05	2912.21
397.26	2854.87
397.47	2924.50
397.69	2815.96
397.90	2926.55
398.11	2895.83
398.32	2920.40
398.54	2865.11
398.75	2934.74
398.96	2940.88
399.18	3092.43
399.39	2975.70
399.60	2965.46
399.81	2969.55
400.03	2918.36
400.24	3348.43
400.45	2924.50
400.66	3071.95
400.88	2994.13
401.09	3168.21
401.30	3043.28
401.51	3125.20
401.73	3049.43
401.94	2936.79
402.15	3135.44
402.36	3143.63
402.58	3223.50
402.79	3104.72
403.00	3114.96
403.21	3084.24
403.43	3192.78
403.64	3182.54
403.85	3076.05
404.06	3241.93
404.27	3039.19
404.49	3184.59
404.70	3166.16
404.91	3137.49
405.12	3309.52
405.34	3198.93
405.55	3411.92
405.76	3235.79
405.97	3293.13
406.19	3428.30
406.40	3282.89
406.61	3426.25
406.82	3379.15
407.03	3239.89
407.25	3260.37
407.46	3444.68
407.67	3381.20
407.88	3418.06
408.09	3286.99
408.31	3379.15
408.52	3469.26
408.73	3340.24
408.94	3315.66
409.15	3315.66
409.37	3485.64
409.58	3469.26
409.79	3493.83
410.00	3502.03
410.21	3346.38
410.43	3418.06
410.64	3368.91
410.85	3547.08
411.06	3442.64
411.27	3538.89
411.48	3604.42
411.70	3504.07
411.91	3565.51
412.12	3493.83
412.33	3536.84
412.54	3616.71
412.76	3708.87
412.97	3680.20
413.18	3446.73
413.39	3631.05
413.60	3569.61
413.81	3682.25
414.03	3686.34
414.24	3674.06
414.45	3825.61
414.66	3536.84
414.87	3641.29
415.08	3489.74
415.30	3747.78
415.51	3809.22
415.72	3710.92
415.93	3772.36
416.14	3755.97
416.35	3764.17
416.56	3719.11
416.78	3790.79
416.99	3841.99
417.20	3747.78
417.41	3940.29
417.62	3790.79
417.83	3823.56
418.04	3790.79
418.26	3801.03
418.47	3968.96
418.68	4038.59
418.89	3960.77
419.10	4075.46
419.31	3958.72
419.52	4011.97
419.73	3987.40
419.95	4120.51
420.16	4087.75
420.37	4104.13
420.58	3999.68
420.79	3825.61
421.00	4007.87
421.21	4249.54
421.42	3975.11
421.63	4093.89
421.85	4071.36
422.06	4161.47
422.27	4157.38
422.48	4210.62
422.69	4206.53
422.90	4224.96
423.11	4239.30
423.32	4327.36
423.53	4308.93
423.75	4284.35
423.96	4353.98
424.17	4255.68
424.38	4478.91
424.59	4450.24
424.80	4550.59
425.01	4384.70
425.22	4423.61
425.43	4394.94
425.64	4646.84
425.85	4648.89
426.06	4485.05
426.28	4403.13
426.49	4485.05
426.70	4517.82
426.91	4677.56
427.12	4597.69
427.33	4661.18
427.54	4605.88
427.75	4704.18
427.96	4685.75
428.17	4687.80
428.38	4839.35
428.59	4845.49
428.80	4763.58
429.01	4857.78
429.23	4837.30
429.44	4956.08
429.65	4890.55
429.86	4974.52
430.07	4767.67
430.28	4808.63
430.49	4992.95
430.70	5138.35
430.91	5105.59
431.12	5013.43
431.33	5089.20
431.54	5136.31
431.75	5109.68
431.96	5072.82
432.17	4992.95
432.38	5140.40
432.59	5349.29
432.80	5160.88
433.01	5367.73
433.22	5312.43
433.43	5324.72
433.64	5257.14
433.85	5199.79
434.06	5394.35
434.27	5232.56
434.49	5380.01
434.70	5420.97
434.91	5388.21
435.12	5398.45
435.33	5443.50
435.54	5447.60
435.75	5250.99
435.96	5480.36
436.17	5443.50
436.38	5517.23
436.59	5627.82
436.80	5611.43
437.01	5771.18
437.22	5668.78
437.43	5576.62
437.64	5459.88
437.85	5654.44
438.06	5883.81
438.27	5605.29
438.48	5722.02
438.69	5842.85
438.90	5783.46
439.11	5685.16
439.32	5918.63
439.53	5736.36
439.74	5838.76
439.95	5838.76
440.16	5898.15
440.37	5947.30
440.57	5808.04
440.78	5906.34
440.99	5975.97
441.20	6041.51
441.41	5988.26
441.62	5935.01
441.83	5877.67
442.04	5971.88
442.25	5932.97
442.46	5996.45
442.67	6238.11
442.88	6465.44
443.09	5922.73
443.30	6162.34
443.51	6090.66
443.72	6223.78
443.93	6119.33
444.14	6399.90
444.35	6131.62
444.56	6104.99
444.77	6334.37
444.98	6268.83
445.19	6287.26
445.40	6231.97
445.61	6307.74
445.81	6475.68
446.02	6535.07
446.23	6317.98
446.44	6262.69
446.65	6533.02
446.86	6576.03
447.07	6553.50
447.28	6733.72
447.49	6684.57
447.70	6610.84
447.91	6543.26
448.12	6492.06
448.33	6694.81
448.54	6655.90
448.74	6543.26
448.95	6684.57
449.16	6545.31
449.37	6942.61
449.58	6715.29
449.79	7016.34
450.00	6746.01
450.21	6918.04
450.42	6946.71
450.63	7032.72
450.84	6879.13
451.05	6922.13
451.25	6915.99
451.46	6934.42
451.67	7276.43
451.88	7042.96
452.09	6979.48
452.30	7016.34
452.51	7145.36
452.72	7065.49
452.93	7516.05
453.13	7182.23
453.34	7104.40
453.55	7262.10
453.76	7214.99
453.97	7614.35
454.18	7339.92
454.39	7440.27
454.60	7460.75
454.81	7356.30
455.01	7710.60
455.22	7296.91
455.43	7497.61
455.64	7602.06
455.85	7851.91
456.06	7925.64
456.27	7751.56
456.48	7579.53
456.68	7892.87
456.89	7847.82
457.10	7896.97
457.31	7970.69
457.52	7806.86
457.73	8013.70
457.94	8284.03
458.14	7997.32
458.35	8353.66
458.56	8327.04
458.77	8144.77
458.98	8327.04
459.19	8224.64
459.39	8380.29
459.60	8449.92
459.81	8296.32
460.02	8531.84
460.23	8279.94
460.44	8632.19
460.65	8654.72
460.85	8638.33
461.06	8683.39
461.27	8691.58
461.48	8859.51
461.69	8869.75
461.89	8605.56
462.10	8914.81
462.31	8771.45
462.52	8755.07
462.73	8904.57
462.94	9119.60
463.14	9131.89
463.35	8951.67
463.56	9398.13
463.77	9273.20
463.98	9111.41
464.18	9095.03
464.39	9449.33
464.60	9523.05
464.81	9570.16
465.02	9613.17
465.23	9828.20
465.43	9469.81
465.64	9754.48
465.85	9684.84
466.06	9557.87
466.27	10018.66
466.47	9885.55
466.68	9871.21
466.89	10022.76
467.10	9934.70
467.30	9785.19
467.51	10080.10
467.72	10411.87
467.93	10131.30
468.14	10321.76
468.34	10602.33
468.55	10534.75
468.76	10387.30
468.97	10266.47
469.17	10692.44
469.38	10704.73
469.59	10940.25
469.80	10506.08
470.01	10512.22
470.21	10667.87
470.42	11016.02
470.63	11106.13
470.84	10893.15
471.04	11140.95
471.25	11317.08
471.46	11239.25
471.67	11650.89
471.87	11355.99
472.08	11736.91
472.29	11599.70
472.50	11495.25
472.70	11515.73
472.91	11575.12
473.12	11796.30
473.33	11818.83
473.53	11919.18
473.74	11966.28
473.95	12169.03
474.16	12132.17
474.36	12212.04
474.57	12429.12
474.78	12513.09
474.99	12760.89
475.19	12484.42
475.40	12904.25
475.61	12846.91
475.81	12961.59
476.02	13182.77
476.23	12748.61
476.44	13137.72
476.64	13377.33
476.85	13631.28
477.06	13530.93
477.27	13670.19
477.47	13612.85
477.68	13600.56
477.89	13864.75
478.09	13872.94
478.30	14036.78
478.51	14073.64
478.71	14075.69
478.92	14077.74
479.13	14470.95
479.34	14444.32
479.54	14452.52
479.75	14659.36
479.96	14366.50
480.16	14507.81
480.37	14726.94
480.58	14980.89
480.78	15212.31
480.99	15187.74
481.20	15056.67
481.41	15179.54
481.61	15527.70
481.82	15576.85
482.03	15265.56
482.23	15609.62
482.44	15791.89
482.65	16033.55
482.85	15826.70
483.06	15890.19
483.27	15824.65
483.47	16133.90
483.68	15986.44
483.89	16164.62
484.09	16279.30
484.30	16649.99
484.51	16828.16
484.71	16727.81
484.92	16656.13
485.13	17004.28
485.33	17022.72
485.54	16951.04
485.75	17594.10
485.95	17426.17
486.16	17100.54
486.37	17456.89
486.57	17360.63
486.78	17624.82
486.98	17456.89
487.19	17827.57
487.40	17962.73
487.60	18022.12
487.81	18042.60
488.02	17856.24
488.22	17985.26
488.43	18216.68
488.64	18190.06
488.84	18566.88
489.05	18511.59
489.25	18538.21
489.46	19046.11
489.67	18837.22
489.87	18857.70
490.08	19261.15
490.29	19136.22
490.49	19478.23
490.70	19142.36
490.90	19261.15
491.11	19418.84
491.32	19517.14
491.52	19732.18
491.73	19504.85
491.94	19881.68
492.14	19748.56
492.35	20018.89
492.55	20066.00
492.76	20145.87
492.97	20123.34
493.17	20328.14
493.38	20405.96
493.58	20606.66
493.79	20645.57
494.00	20612.81
494.20	20639.43
494.41	20639.43
494.61	21067.45
494.82	21096.13
495.02	21126.85
495.23	21036.74
495.44	21495.48
495.64	21507.77
495.85	21282.49
496.05	21468.86
496.26	21657.27
496.47	21782.20
496.67	21864.11
496.88	21974.70
497.08	21845.68
497.29	22185.65
497.49	21946.03
497.70	22202.03
497.91	22199.98
498.11	22525.61
498.32	22404.78
498.52	22671.01
498.73	22582.95
498.93	22994.59
499.14	22951.59
499.34	22630.05
499.55	22720.17
499.76	22937.25
499.96	22939.30
500.17	22886.05
500.37	23068.32
500.58	23266.97
500.78	23289.50
500.99	23238.30
501.19	23809.68
501.40	23498.39
501.60	23545.50
501.81	23807.64
502.02	23762.58
502.22	23439.00
502.43	23568.02
502.63	24135.31
502.84	23846.55
503.04	24135.31
503.25	23942.80
503.45	24018.58
503.66	24182.42
503.86	24143.50
504.07	24356.49
504.27	24575.62
504.48	24725.13
504.68	24632.97
504.89	25185.92
505.09	24940.16
505.30	24518.28
505.50	24524.43
505.71	25050.75
505.91	24958.60
506.12	25235.07
506.32	25171.58
506.53	25222.78
506.73	25228.93
506.94	25228.93
507.14	25093.76
507.35	25380.48
507.55	25423.48
507.76	25597.56
507.96	25749.11
508.17	25478.78
508.37	25767.54
508.58	25667.19
508.78	25609.85
508.99	25906.80
509.19	25955.96
509.40	25978.48
509.60	26035.83
509.81	26109.55
510.01	26201.71
510.22	26140.27
510.42	26467.95
510.63	26418.80
510.83	26283.63
511.04	26173.04
511.24	26470.00
511.44	26586.73
511.65	26332.78
511.85	26459.76
512.06	26867.30
512.26	27016.80
512.47	26545.77
512.67	26863.21
512.88	26773.10
513.08	26570.35
513.29	27119.20
513.49	27033.19
513.69	27082.34
513.90	27248.22
514.10	27293.28
514.31	27678.30
514.51	27565.66
514.72	27186.79
514.92	27283.04
515.13	27231.84
515.33	27666.01
515.53	27457.12
515.74	27618.91
515.94	27397.73
516.15	27889.24
516.35	27715.16
516.56	27616.86
516.76	27850.33
516.96	28165.71
517.17	28270.16
517.37	28157.52
517.58	28003.92
517.78	28259.92
517.99	28360.27
518.19	28661.32
518.39	28329.55
518.60	28685.90
518.80	28405.33
519.01	28390.99
519.21	28497.49
519.41	28751.43
519.62	28538.44
519.82	28837.45
520.03	29167.17
520.23	29003.33
520.43	29056.58
520.64	29447.74
520.84	29494.85
521.05	29095.49
521.25	29296.19
521.45	29236.80
521.66	29750.84
521.86	29318.72
522.07	29677.12
522.27	29767.23
522.47	29517.37
522.68	29892.15
522.88	29736.51
523.08	30232.11
523.29	30311.99
523.49	30078.52
523.70	30283.31
523.90	30357.04
524.10	30498.35
524.31	30299.70
524.51	30199.35
524.71	31082.02
524.92	30879.27
525.12	30909.99
525.33	31018.53
525.53	31104.55
525.73	31321.63
525.94	31147.56
526.14	31135.27
526.34	31395.36
526.55	31438.37
526.75	31127.08
526.95	31467.04
527.16	31331.87
527.36	31649.31
527.56	31813.15
527.77	31868.44
527.97	31882.78
528.17	31997.46
528.38	32087.57
528.58	32058.90
528.78	32398.87
528.99	32159.25
529.19	32732.68
529.39	32251.41
529.60	32790.03
529.80	32628.24
530.00	32517.65
530.21	32921.10
530.41	32871.95
530.61	33091.08
530.82	33195.53
531.02	32812.56
531.22	33248.77
531.43	33299.97
531.63	33441.28
531.83	33510.91
532.04	33961.47
532.24	33801.72
532.44	33902.07
532.64	33504.77
532.85	33916.41
533.05	34330.10
533.25	34194.93
533.46	34319.86
533.66	34207.22
533.86	34076.15
534.07	35046.89
534.27	34838.00
534.47	34735.60
534.67	35075.56
534.88	34893.29
535.08	35108.33
535.28	35349.99
535.49	35378.66
535.69	35354.08
535.89	35534.31
536.09	35255.78
536.30	35900.89
536.50	35737.05
536.70	35894.75
536.91	36083.16
537.11	35845.60
537.31	35941.85
537.51	36302.29
537.72	36488.66
537.92	36400.60
538.12	36691.41
538.32	36429.27
538.53	36785.61
538.73	36392.40
538.93	36709.84
539.13	36521.43
539.34	36785.61
539.54	36775.37
539.74	37080.52
539.94	37322.18
540.15	36789.71
540.35	37064.14
540.55	37082.57
540.75	37275.08
540.96	37479.88
541.16	37623.23
541.36	37592.51
541.56	37397.96
541.77	38049.21
541.97	38014.40
542.17	37971.39
542.37	37643.71
542.58	37830.08
542.78	38098.36
542.98	38114.75
543.18	38286.78
543.38	38550.96
543.59	38553.01
543.79	38192.57
543.99	38452.66
544.19	38514.10
544.40	38641.07
544.60	38925.74
544.80	38370.74
545.00	38704.56
545.20	39364.01
545.41	38933.93
545.61	38778.29
545.81	39130.54
546.01	39493.03
546.21	39234.99
546.42	38897.07
546.62	39372.20
546.82	39198.12
547.02	39185.83
547.22	39845.28
547.43	39329.19
547.63	39632.29
547.83	39574.95
548.03	39187.88
548.23	40099.23
548.44	39867.81
548.64	40132.00
548.84	40238.49
549.04	39835.04
549.24	40250.78
549.45	40209.82
549.65	40039.84
549.85	40777.11
550.05	40594.84
550.25	40215.96
550.45	40926.61
550.66	41018.77
550.86	40443.29
551.06	40719.76
551.26	40506.77
551.46	40570.26
551.66	40670.61
551.87	41037.20
552.07	40926.61
552.27	41078.16
552.47	41092.49
552.67	41198.99
552.87	40773.01
553.07	40826.26
553.28	41022.86
553.48	41446.79
553.68	41295.24
553.88	41530.76
554.08	41627.01
554.28	41698.69
554.48	41321.87
554.69	41991.55
554.89	41614.72
555.09	41348.49
555.29	41440.65
555.49	41743.75
555.69	41747.84
555.89	41776.51
556.10	41651.59
556.30	41977.22
556.50	42167.68
556.70	42001.79
556.90	42343.80
557.10	42298.75
557.30	42012.03
557.50	42468.73
557.70	42308.99
557.91	42458.49
558.11	42261.88
558.31	42513.78
558.51	42179.96
558.71	42567.03
558.91	42997.10
559.11	42462.58
559.31	42706.29
559.51	42661.24
559.72	42741.11
559.92	42794.36
560.12	42440.06
560.32	42976.62
560.52	42575.22
560.72	42730.87
560.92	42651.00
561.12	42935.66
561.32	42888.56
561.52	42730.87
561.72	43398.51
561.93	42603.89
562.13	42923.38
562.33	42976.62
562.53	43423.08
562.73	42751.35
562.93	43457.90
563.13	43142.51
563.33	43054.45
563.53	43625.83
563.73	43144.56
563.93	43703.65
564.13	43789.67
564.33	43091.31
564.53	43427.18
564.74	43664.74
564.94	43705.70
565.14	43576.68
565.34	43652.45
565.54	43734.37
565.74	43720.04
565.94	44191.07
566.14	43875.68
566.34	43621.73
566.54	44029.28
566.74	43742.56
566.94	44320.09
567.14	44107.10
567.34	44137.82
567.54	44186.97
567.74	44156.25
567.94	44172.64
568.14	44363.10
568.34	44576.09
568.54	44385.63
568.74	44576.09
568.94	44164.45
569.14	44709.21
569.34	44512.60
569.54	44500.31
569.75	44268.89
569.95	44655.96
570.15	44848.47
570.35	44780.88
570.55	44543.32
570.75	44664.15
570.95	44774.74
571.15	45247.82
571.35	45063.50
571.55	45282.64
571.75	44787.03
571.95	45137.23
572.15	44942.67
572.35	45192.53
572.55	44975.44
572.75	45286.73
572.95	45327.69
573.15	45024.59
573.35	45245.77
573.55	45321.55
573.75	45585.74
573.95	45454.67
574.15	45272.40
574.35	45585.74
574.55	45118.80
574.75	45122.90
574.95	45653.32
575.15	45471.05
575.34	45911.36
575.54	45802.82
575.74	46251.33
575.94	45827.40
576.14	45970.75
576.34	45872.45
576.54	46196.03
576.74	46218.56
576.94	46298.43
577.14	46142.78
577.34	46282.05
577.54	46388.54
577.74	46540.09
577.94	46478.65
578.14	46261.57
578.34	47023.41
578.54	45964.61
578.74	46384.44
578.94	47056.18
579.14	46486.84
579.34	46611.77
579.54	47013.17
579.74	47162.67
579.94	47062.32
580.13	47125.81
580.33	46835.00
580.53	47336.75
580.73	46847.29
580.93	47185.20
581.13	47297.84
581.33	47580.46
581.53	47254.83
581.73	47770.92
581.93	47181.10
582.13	47715.62
582.33	47541.55
582.53	47367.47
582.73	47674.66
582.92	47908.13
583.12	47748.39
583.32	47840.55
583.52	47459.63
583.72	47897.89
583.92	48043.30
584.12	47838.50
584.32	48239.90
584.52	48223.52
584.72	48260.38
584.92	48506.14
585.11	48289.06
585.31	48244.00
585.51	48629.02
585.71	48026.92
585.91	48518.43
586.11	48244.00
586.31	48317.73
586.51	48510.24
586.71	48186.66
586.91	48616.73
587.10	48667.93
587.30	48958.74
587.50	49159.44
587.70	49192.21
587.90	49153.30
588.10	49431.82
588.30	49333.52
588.50	48899.35
588.69	48966.93
588.89	49046.80
589.09	49141.01
589.29	49427.73
589.49	49411.34
589.69	49128.72
589.89	49294.61
590.08	49231.12
590.28	49480.97
590.48	49392.91
590.68	49077.52
590.88	49460.49
591.08	49657.10
591.28	49458.45
591.47	50314.50
591.67	49614.09
591.87	50035.97
592.07	49906.95
592.27	49775.88
592.47	49749.26
592.67	49896.71
592.86	49775.88
593.06	49964.29
593.26	50593.02
593.46	50128.13
593.66	50337.02
593.86	50425.09
594.05	50294.02
594.25	50679.03
594.45	50269.44
594.65	50472.19
594.85	49767.69
595.05	50525.44
595.24	50590.97
595.44	50601.21
595.64	50814.20
595.84	51004.66
596.04	50662.65
596.23	51223.79
596.43	51113.20
596.63	50824.44
596.83	50728.19
597.03	50900.22
597.22	51430.64
597.42	50838.78
597.62	51627.24
597.82	51156.21
598.02	51315.95
598.21	51664.11
598.41	51258.61
598.61	51258.61
598.81	51178.74
599.01	51391.73
599.20	51252.47
599.40	51471.60
599.60	51987.69
599.80	51664.11
600.00	51873.00
600.19	51725.55
600.39	51563.76
600.59	52053.22
600.79	52415.71
600.98	52311.27
601.18	52301.03
601.38	52335.84
601.58	52659.42
601.78	52038.89
601.97	52258.02
602.17	52608.22
602.37	52632.80
602.57	52376.80
602.76	52696.28
602.96	52391.14
603.16	52833.50
603.36	52554.97
603.55	52964.57
603.75	52602.08
603.95	53048.53
604.15	53277.91
604.34	53122.26
604.54	53494.99
604.74	53302.48
604.94	53271.76
605.13	53286.10
605.33	53347.54
605.53	52788.44
605.73	53703.88
605.92	53222.61
606.12	53781.71
606.32	53609.68
606.52	53193.94
606.71	53116.12
606.91	53347.54
607.11	53458.13
607.30	53925.07
607.50	53581.01
607.70	53558.48
607.90	54070.47
608.09	54031.56
608.29	53867.72
608.49	53789.90
608.68	53871.82
608.88	54062.28
609.08	54201.54
609.28	53992.65
609.47	53474.51
609.67	54328.52
609.87	54211.78
610.06	54697.15
610.26	54179.01
610.46	54105.29
610.66	54238.40
610.85	54297.80
611.05	54082.76
611.25	54734.01
611.44	54410.43
611.64	54543.55
611.84	54494.40
612.03	54426.82
612.23	54592.70
612.43	54342.85
612.62	54111.43
612.82	54580.42
613.02	54873.27
613.21	54340.80
613.41	54473.92
613.61	54566.08
613.80	54404.29
614.00	54811.84
614.20	54783.16
614.39	54619.33
614.59	54508.74
614.79	54219.97
614.98	54342.85
615.18	54127.81
615.38	54797.50
615.57	54535.36
615.77	54658.24
615.97	54662.33
616.16	54869.18
616.36	54723.77
616.56	54858.94
616.75	54836.41
616.95	54564.03
617.15	54715.58
617.34	54942.91
617.54	54686.91
617.74	54826.17
617.93	54926.52
618.13	54514.88
618.32	54994.10
618.52	54703.29
618.72	54785.21
618.91	54676.67
619.11	54179.01
619.31	54592.70
619.50	54668.48
619.70	55057.59
619.90	55159.99
620.09	54820.03
620.29	54940.86
620.48	54711.49
620.68	55301.30
620.88	54553.79
621.07	54725.82
621.27	54852.80
621.46	54299.84
621.66	54723.77
621.86	55006.39
622.05	54594.75
622.25	55264.44
622.44	54994.10
622.64	54688.96
622.84	54975.67
623.03	54879.42
623.23	54973.63
623.42	54983.86
623.62	54461.63
623.82	54998.20
624.01	54557.89
624.21	54863.03
624.40	54572.22
624.60	54797.50
624.80	54504.64
624.99	54756.54
625.19	54518.98
625.38	54772.92
625.58	54787.26
625.77	54500.54
625.97	55045.30
626.17	54144.20
626.36	54832.32
626.56	54727.87
626.75	54398.15
626.95	54981.82
627.14	54744.25
627.34	55229.62
627.54	54981.82
627.73	54883.51
627.93	55342.26
628.12	54336.71
628.32	54992.06
628.51	55305.40
628.71	55153.85
628.90	54834.36
629.10	54674.62
629.30	54967.48
629.49	55221.43
629.69	54863.03
629.88	55006.39
630.08	55196.85
630.27	55213.24
630.47	54854.84
630.66	54375.62
630.86	54817.98
631.05	54625.47
631.25	55139.51
631.44	54703.29
631.64	54746.30
631.84	54879.42
632.03	55145.65
632.23	55051.45
632.42	55366.84
632.62	54977.72
632.81	54977.72
633.01	54744.25
633.20	55207.09
633.40	55043.26
633.59	54928.57
633.79	54803.64
633.98	55274.68
634.18	55196.85
634.37	55516.34
634.57	54965.43
634.76	54924.47
634.96	55133.37
635.15	55432.37
635.35	55114.94
635.54	54648.00
635.74	55151.80
635.93	55063.74
636.13	55399.60
636.32	54994.10
636.52	55260.34
636.71	55143.61
636.91	55456.95
637.10	55784.62
637.30	55387.31
637.49	55266.48
637.69	54729.92
637.88	55573.68
638.08	55112.89
638.27	55710.89
638.46	55170.23
638.66	54736.06
638.85	55059.64
639.05	55477.43
639.24	55448.75
639.44	55170.23
639.63	55473.33
639.83	55219.38
640.02	55669.93
640.22	55571.63
640.41	55841.96
640.61	55008.44
640.80	55147.70
640.99	55641.26
641.19	56034.47
641.38	55655.60
641.58	55712.94
641.77	55393.46
641.97	55399.60
642.16	55682.22
642.36	55671.98
642.55	56366.24
642.74	55377.08
642.94	56325.28
643.13	55454.90
643.33	55919.79
643.52	55747.76
643.72	56257.70
643.91	55375.03
644.10	55850.16
644.30	55932.07
644.49	55551.15
644.69	56149.16
644.88	55923.88
645.08	55927.98
645.27	56251.56
645.46	55598.26
645.66	55907.50
645.85	56126.63
646.05	56100.01
646.24	56132.78
646.43	55923.88
646.63	56085.67
646.82	56224.93
647.02	55854.25
647.21	56079.53
647.40	56024.23
647.60	56288.42
647.79	56538.27
647.99	56247.46
648.18	55710.89
648.37	56458.40
648.57	56419.49
648.76	56417.44
648.96	56349.86
649.15	56722.59
649.34	56614.05
649.54	56300.71
649.73	56538.27
649.92	56349.86
650.12	56267.94
650.31	56345.76
650.51	56888.48
650.70	56179.88
650.89	56202.41
651.09	57048.22
651.28	56575.14
651.47	56392.87
651.67	56556.70
651.86	56304.80
652.06	55823.53
652.25	56509.60
652.44	56542.37
652.64	56399.01
652.83	56632.48
653.02	56323.24
653.22	56587.42
653.41	56050.86
653.60	56321.19
653.80	56188.07
653.99	56470.69
654.18	56442.02
654.38	56648.86
654.57	56779.93
654.76	56515.75
654.96	56583.33
655.15	56274.09
655.34	56620.19
655.54	56214.69
655.73	56550.56
655.92	56507.55
656.12	56769.69
656.31	56927.39
656.50	56474.79
656.70	56702.11
656.89	56634.53
657.08	56808.61
657.28	56566.94
657.47	57062.55
657.66	56652.96
657.86	56767.65
658.05	56296.61
658.24	57042.07
658.43	56579.23
658.63	56685.73
658.82	56769.69
659.01	56943.77
659.21	57355.41
659.40	56968.35
659.59	56450.21
659.79	56984.73
659.98	57189.53
660.17	57240.73
660.36	56962.20
660.56	56894.62
660.75	57246.87
660.94	57195.67
661.14	57007.26
661.33	56841.37
661.52	56554.66
661.71	57238.68
661.91	56673.44
662.10	56661.15
662.29	56841.37
662.49	57054.36
662.68	57373.84
662.87	56677.54
663.06	57226.39
663.26	56831.13
663.45	57187.48
663.64	57009.31
663.83	57144.47
664.03	57195.67
664.22	57128.09
664.41	57418.90
664.60	56630.43
664.80	57236.63
664.99	56769.69
665.18	57382.04
665.37	57496.72
665.57	57203.86
665.76	57021.59
665.95	57392.28
666.14	57388.18
666.34	57210.01
666.53	57037.98
666.72	56906.91
666.91	56796.32
667.11	56874.14
667.30	56702.11
667.49	57083.03
667.68	56652.96
667.87	56841.37
668.07	57119.90
668.26	57107.61
668.45	56954.01
668.64	56532.13
668.84	57635.98
669.03	57070.75
669.22	56933.53
669.41	57107.61
669.60	57214.10
669.80	56824.99
669.99	57205.91
670.18	56685.73
670.37	57095.32
670.57	57502.87
670.76	56824.99
670.95	57375.89
671.14	57398.42
671.33	57013.40
671.53	57656.46
671.72	56587.42
671.91	57099.42
672.10	56841.37
672.29	56853.66
672.48	56700.06
672.68	57302.17
672.87	56665.25
673.06	57044.12
673.25	56769.69
673.44	56814.75
673.64	56710.30
673.83	56882.33
674.02	56388.77
674.21	56431.78
674.40	56890.52
674.59	56665.25
674.79	56655.01
674.98	56706.21
675.17	56493.22
675.36	56759.45
675.55	56974.49
675.74	56519.84
675.94	56724.64
676.13	57033.88
676.32	57314.45
676.51	57480.34
676.70	56890.52
676.89	56464.55
677.08	57003.16
677.28	56378.53
677.47	57015.45
677.66	57236.63
677.85	56997.02
678.04	57275.54
678.23	56642.72
678.42	57207.96
678.62	57179.29
678.81	57066.65
679.00	57023.64
679.19	56890.52
679.38	56827.04
679.57	56790.17
679.76	56790.17
679.96	57136.28
680.15	56364.20
680.34	56886.43
680.53	56472.74
680.72	56820.89
680.91	56788.13
681.10	56646.82
681.29	56636.58
681.48	56235.17
681.68	56390.82
681.87	56583.33
682.06	57046.17
682.25	56669.34
682.44	56222.89
682.63	56186.02
682.82	56274.09
683.01	56288.42
683.20	55895.21
683.39	56333.48
683.59	55895.21
683.78	56169.64
683.97	56026.28
684.16	56587.42
684.35	55743.66
684.54	56243.37
684.73	55776.43
684.92	55876.78
685.11	56251.56
685.30	55674.03
685.49	56491.17
685.69	56163.50
685.88	55893.16
686.07	56149.16
686.26	56196.26
686.45	56558.75
686.64	56177.83
686.83	56128.68
687.02	56042.66
687.21	56192.17
687.40	55551.15
687.59	56116.39
687.78	56122.54
687.97	56323.24
688.16	55542.96
688.35	56128.68
688.54	56136.87
688.74	55622.83
688.93	56173.73
689.12	55700.65
689.31	55747.76
689.50	56108.20
689.69	55573.68
689.88	55352.50
690.07	55952.55
690.26	55311.54
690.45	56198.31
690.64	55710.89
690.83	55852.20
691.02	55581.87
691.21	55508.14
691.40	55475.38
691.59	55821.48
691.78	55594.16
691.97	55686.32
692.16	55448.75
692.35	55596.21
692.54	55278.77
692.73	55796.91
692.92	55686.32
693.11	55653.55
693.30	55256.24
693.49	55563.44
693.68	55188.66
693.87	55241.91
694.06	55073.98
694.25	55131.32
694.44	55149.75
694.63	55198.90
694.82	55293.11
695.01	55121.08
695.20	55006.39
695.39	54912.19
695.58	55233.72
695.77	54903.99
695.96	54549.70
696.15	55334.07
696.34	55164.09
696.53	55178.42
696.72	55002.30
696.91	55170.23
697.10	54772.92
697.29	54912.19
697.48	55319.73
697.67	54899.90
697.86	54621.37
698.05	54621.37
698.24	54633.66
698.43	54238.40
698.62	54731.96
698.81	54310.08
699.00	55190.71
699.19	54629.57
699.38	54787.26
699.57	54203.59
699.76	55080.12
699.95	54582.46
700.14	54195.40
700.32	54754.49
700.51	54400.19
700.70	54455.49
700.89	54586.56
701.08	54654.14
701.27	54469.82
701.46	54918.33
701.65	53654.73
701.84	54217.92
702.03	54369.47
702.22	54219.97
702.41	54588.61
702.60	54197.44
702.79	53941.45
702.98	53990.60
703.17	53828.81
703.35	54006.98
703.54	54148.29
703.73	54490.30
703.92	54195.40
704.11	54088.90
704.30	53884.11
704.49	53540.05
704.68	53654.73
704.87	53738.70
705.06	53984.46
705.25	53466.32
705.43	53605.58
705.62	53656.78
705.81	53654.73
706.00	53900.49
706.19	53261.52
706.38	53193.94
706.57	53155.03
706.76	53388.50
706.95	53310.67
707.14	53019.86
707.32	53351.63
707.51	53204.18
707.70	52917.46
707.89	52849.88
708.08	53368.02
708.27	53626.06
708.46	53669.07
708.65	52884.70
708.84	53667.02
709.02	52827.35
709.21	53193.94
709.40	53011.67
709.59	53040.34
709.78	52847.83
709.97	53150.93
710.16	52899.03
710.34	52681.95
710.53	53062.87
710.72	52702.43
710.91	53069.01
711.10	52966.62
711.29	52698.33
711.48	53167.32
711.66	52849.88
711.85	52901.08
712.04	52489.44
712.23	52344.03
712.42	52622.56
712.61	52462.82
712.80	52776.15
712.98	52552.93
713.17	51975.40
713.36	52829.40
713.55	52624.60
713.74	52454.62
713.93	52544.73
714.11	52663.52
714.30	51600.62
714.49	51973.35
714.68	52364.51
714.87	52481.25
715.06	52264.16
715.24	52055.27
715.43	52196.58
715.62	51825.90
715.81	51758.31
716.00	52425.95
716.18	51686.64
716.37	51975.40
716.56	51596.52
716.75	51920.10
716.94	51684.59
717.12	51672.30
717.31	52042.98
717.50	51586.28
717.69	51406.06
717.88	51827.95
718.06	51365.10
718.25	51408.11
718.44	51082.48
718.63	51361.01
718.82	50722.04
719.00	51633.39
719.19	51062.00
719.38	51459.31
719.57	50662.65
719.76	50636.03
719.94	50615.55
720.13	50642.17
720.32	50910.46
720.51	50912.50
720.69	50494.72
720.88	50887.93
721.07	50724.09
721.26	50056.45
721.44	50605.31
721.63	50312.45
721.82	50238.72
722.01	49909.00
722.20	50441.47
722.38	49829.13
722.57	49945.86
722.76	50115.84
722.95	49935.62
723.13	49657.10
723.32	49761.54
723.51	49650.95
723.70	49644.81
723.88	49773.83
724.07	49673.48
724.26	50083.08
724.44	48913.69
724.63	49442.06
724.82	49782.02
725.01	49730.83
725.19	49739.02
725.38	49489.16
725.57	49106.19
725.76	49272.08
725.94	49638.67
726.13	49167.63
726.32	49358.09
726.51	49419.53
726.69	49181.97
726.88	49315.09
727.07	48776.47
727.25	48870.68
727.44	48950.55
727.63	48944.41
727.82	49122.58
728.00	48944.41
728.19	48981.27
728.38	49065.24
728.56	48938.26
728.75	49011.99
728.94	48571.67
729.12	49122.58
729.31	48817.43
729.50	48928.02
729.69	49255.70
729.87	48989.46
730.06	48715.03
730.25	48948.50
730.43	49118.48
730.62	48483.61
730.81	49141.01
730.99	49339.66
731.18	48549.15
731.37	49005.84
731.55	48944.41
731.74	49100.05
731.93	49071.38
732.11	49321.23
732.30	48837.91
732.49	48385.31
732.67	48774.42
732.86	48577.82
733.05	48657.69
733.23	48583.96
733.42	48592.15
733.61	48962.84
733.79	48987.41
733.98	49370.38
734.17	48727.32
734.35	48631.07
734.54	48629.02
734.73	49227.02
734.91	48692.50
735.10	48559.39
735.29	48694.55
735.47	48086.31
735.66	48489.76
735.84	48706.84
736.03	48563.48
736.22	48829.72
736.40	47758.63
736.59	48360.73
736.78	48434.46
736.96	48211.23
737.15	47973.67
737.33	48182.56
737.52	48581.91
737.71	48215.33
737.89	48379.17
738.08	47867.17
738.27	47805.73
738.45	48534.81
738.64	48190.75
738.82	48295.20
739.01	47785.25
739.20	48157.99
739.38	48106.79
739.57	48530.72
739.75	47883.56
739.94	47928.61
740.13	48024.87
740.31	47842.60
740.50	48149.79
740.68	48016.68
740.87	48090.40
741.06	47961.38
741.24	47672.62
741.43	47732.01
741.61	47682.86
741.80	47476.01
741.99	47863.08
742.17	47148.34
742.36	47738.15
742.54	47031.60
742.73	47672.62
742.91	47815.97
743.10	47224.11
743.29	47416.62
743.47	47060.27
743.66	47295.79
743.84	47514.92
744.03	47283.50
744.21	47480.11
744.40	47947.04
744.59	47387.95
744.77	47031.60
744.96	47310.13
745.14	47213.87
745.33	47256.88
745.51	46992.69
745.70	47342.89
745.88	46918.96
746.07	46921.01
746.26	46658.87
746.44	47004.98
746.63	46896.44
746.81	47187.25
747.00	46935.35
747.18	47226.16
747.37	46701.88
747.55	46759.22
747.74	46839.09
747.92	46259.52
748.11	46626.10
748.29	46529.85
748.48	46847.29
748.66	46460.22
748.85	46970.16
749.03	46339.39
749.22	46492.99
749.41	46427.45
749.59	46662.97
749.78	46492.99
749.96	45978.95
750.15	46193.98
750.33	46613.82
750.52	46386.49
750.70	46331.20
750.89	46355.77
751.07	45604.17
751.26	46515.51
751.44	46052.67
751.63	46249.28
751.81	45901.12
752.00	45815.11
752.18	46384.44
752.37	45694.28
752.55	45299.02
752.74	45909.32
752.92	45765.96
753.10	45657.42
753.29	46046.53
753.47	45579.59
753.66	45311.31
753.84	45942.08
754.03	45428.04
754.21	45102.42
754.40	45348.17
754.58	45409.61
754.77	45647.18
754.95	45178.19
755.14	45442.38
755.32	45225.29
755.51	45202.77
755.69	44748.12
755.88	45239.63
756.06	45024.59
756.24	45204.81
756.43	45249.87
756.61	45061.46
756.80	44518.74
756.98	44737.88
757.17	45000.02
757.35	44791.12
757.54	44766.55
757.72	44850.52
757.90	44711.25
758.09	44639.57
758.27	44827.99
758.46	44287.32
758.64	45024.59
758.83	44641.62
759.01	44909.91
759.19	44578.14
759.38	44801.36
759.56	44762.45
759.75	44705.11
759.93	44727.64
760.12	44193.12
760.30	44504.41
760.48	44459.35
760.67	44115.29
760.85	44287.32
761.04	44440.92
761.22	44565.85
761.40	44025.18
761.59	44057.95
761.77	43603.30
761.96	43898.21
762.14	44053.86
762.32	44330.33
762.51	43724.13
762.69	43877.73
762.88	43898.21
763.06	44225.89
763.24	43808.10
763.43	43875.68
763.61	43711.84
763.80	43636.07
763.98	43466.09
764.16	43658.60
764.35	43244.91
764.53	43236.72
764.72	43670.89
764.90	42833.27
765.08	43138.41
765.27	43335.02
765.45	43191.66
765.63	42607.99
765.82	43283.82
766.00	42517.88
766.18	42913.14
766.37	43353.45
766.55	42505.59
766.74	42874.23
766.92	42675.57
767.10	42870.13
767.29	42866.03
767.47	42202.49
767.65	42417.53
767.84	42104.19
768.02	43222.38
768.20	42268.03
768.39	42362.23
768.57	42573.17
768.75	42253.69
768.94	42743.16
769.12	42435.96
769.30	41993.60
769.49	42685.81
769.67	42317.18
769.85	41647.49
770.04	42284.41
770.22	41581.96
770.40	41442.70
770.59	41428.36
770.77	42026.37
770.95	41837.95
771.14	41256.33
771.32	41352.58
771.50	41596.29
771.69	41848.19
771.87	41966.98
772.05	41676.16
772.24	41463.18
772.42	41641.35
772.60	41397.64
772.78	41020.81
772.97	41278.86
773.15	41653.64
773.33	41360.78
773.52	41153.93
773.70	41223.56
773.88	41131.40
774.07	41022.86
774.25	41514.37
774.43	41543.05
774.61	41360.78
774.80	41235.85
774.98	41074.06
775.16	41211.28
775.34	41194.89
775.53	41233.80
775.71	41180.56
775.89	41227.66
776.08	41371.02
776.26	41641.35
776.44	41395.59
776.62	41155.98
776.81	40912.27
776.99	41176.46
777.17	41698.69
777.35	41473.42
777.54	41631.11
777.72	41358.73
777.90	41461.13
778.08	41885.06
778.27	41753.99
778.45	41934.21
778.63	41780.61
778.81	41917.82
779.00	41960.83
779.18	41921.92
779.36	41942.40
779.54	41665.92
779.73	41213.32
779.91	41807.23
780.09	41848.19
780.27	42044.80
780.46	41987.46
780.64	42372.47
780.82	41899.39
781.00	41999.74
781.19	41604.49
781.37	42270.08
781.55	41868.67
781.73	42024.32
781.91	42030.46
782.10	42204.54
782.28	41735.56
782.46	42444.15
782.64	42364.28
782.82	41979.26
783.01	42405.24
783.19	42202.49
783.37	42274.17
783.55	42126.72
783.74	42413.43
783.92	41911.68
784.10	42628.47
784.28	42259.84
784.46	42136.96
784.64	42284.41
784.83	42257.79
785.01	42472.82
785.19	41942.40
785.37	42329.47
785.55	42257.79
785.74	41835.91
785.92	42292.60
786.10	42308.99
786.28	42237.31
786.46	42083.71
786.64	41520.52
786.83	42298.75
787.01	41975.17
787.19	41932.16
787.37	41835.91
787.55	41743.75
787.74	41741.70
787.92	41819.52
788.10	41383.30
788.28	41276.81
788.46	41692.55
788.64	41201.04
788.82	41794.95
789.01	41801.09
789.19	41481.61
789.37	41645.44
789.55	41606.53
789.73	41151.88
789.91	41045.39
790.09	41465.22
790.28	40928.66
790.46	40643.99
790.64	40801.68
790.82	41057.68
791.00	40496.53
791.18	40351.13
791.36	40805.78
791.55	40727.95
791.73	40621.46
791.91	40048.03
792.09	40271.26
792.27	40361.37
792.45	40306.07
792.63	40064.41
792.81	40127.90
793.00	39908.77
793.18	39658.91
793.36	39947.68
793.54	39609.76
793.72	39714.21
793.90	39597.48
794.08	39624.10
794.26	39988.64
794.44	38909.36
794.62	39437.73
794.81	39374.25
794.99	39316.90
795.17	39026.09
795.35	38931.89
795.53	39421.35
795.71	39337.38
795.89	38794.67
796.07	38659.51
796.25	38682.03
796.43	38583.73
796.61	38145.47
796.80	38024.64
796.98	38428.09
797.16	38034.88
797.34	38278.58
797.52	38135.23
797.70	38491.57
797.88	37670.34
798.06	37651.91
798.24	37647.81
798.42	37983.68
798.60	37492.16
798.78	37692.86
798.96	37969.34
799.14	37232.07
799.32	37684.67
799.51	36928.97
799.69	37236.17
799.87	37537.22
800.05	36914.64
800.23	36967.88
800.41	36670.93
800.59	37129.67
800.77	36912.59
800.95	36492.76
801.13	36537.81
801.31	36490.71
801.49	36922.83
801.67	36120.02
801.85	36627.92
802.03	36197.85
802.21	36134.36
802.39	35741.15
802.57	36173.27
802.75	36040.15
802.93	35868.12
803.11	35302.89
803.29	35702.24
803.47	35540.45
803.65	35143.14
803.83	35460.58
804.01	35405.28
804.19	35237.35
804.37	35194.34
804.55	35075.56
804.73	35134.95
804.91	35180.01
805.09	35091.94
805.27	34692.59
805.45	34803.18
805.63	34782.70
805.81	35194.34
805.99	34860.52
806.17	34479.60
806.35	34704.88
806.53	34559.47
806.71	34788.85
806.89	33932.79
807.07	34629.10
807.25	34143.74
807.43	34135.54
807.61	34174.45
807.79	33857.02
807.97	33744.38
808.15	33824.25
808.33	33625.60
808.51	33879.55
808.69	33889.79
808.87	33316.36
809.05	33166.85
809.23	33316.36
809.41	33226.24
809.59	33035.78
809.77	33005.06
809.95	32994.82
810.13	32890.38
810.31	33146.37
810.49	32884.23
810.67	32736.78
810.84	32884.23
811.02	32835.08
811.20	32296.47
811.38	32519.70
811.56	32437.78
811.74	32316.95
811.92	32437.78
812.10	32478.74
812.28	32679.44
812.46	32394.77
812.64	32253.46
812.82	32257.56
813.00	32222.74
813.18	31788.57
813.36	31919.64
813.53	31677.98
813.71	31723.04
813.89	31675.93
814.07	31847.96
814.25	32167.45
814.43	31569.44
814.61	31647.26
814.79	31577.63
814.97	31331.87
815.15	31522.34
815.33	31012.39
815.50	31311.39
815.68	31176.23
815.86	31268.39
816.04	31227.43
816.22	30979.62
816.40	31301.15
816.58	31174.18
816.76	30733.87
816.94	31170.08
817.11	30445.10
817.29	30744.11
817.47	30623.28
817.65	30594.61
817.83	30461.49
818.01	30291.51
818.19	30774.83
818.37	30277.17
818.54	29953.59
818.72	30320.18
818.90	30283.31
819.08	30537.26
819.26	30248.50
819.44	30213.68
819.62	30047.80
819.80	30004.79
819.97	30217.78
820.15	29855.29
820.33	29668.92
820.51	30015.03
820.69	29818.42
820.87	29910.58
821.05	29992.50
821.22	29709.88
821.40	29343.30
821.58	29455.93
821.76	29500.99
821.94	29265.47
822.12	29288.00
822.29	29566.52
822.47	29052.48
822.65	29455.93
822.83	29333.06
823.01	29488.70
823.19	29015.62
823.36	28804.68
823.54	29075.01
823.72	29048.39
823.90	28939.85
824.08	28681.80
824.25	28872.26
824.43	28626.51
824.61	28954.18
824.79	28796.49
824.97	28603.98
825.15	28739.15
825.32	28767.82
825.50	28317.26
825.68	28503.63
825.86	28644.94
826.04	28620.36
826.21	28350.03
826.39	28667.47
826.57	28266.06
826.75	28075.60
826.93	28194.39
827.10	28182.10
827.28	28202.58
827.46	28180.05
827.64	28307.02
827.81	27989.59
827.99	27835.99
828.17	27919.96
828.35	28055.12
828.53	27874.90
828.70	27827.80
828.88	27825.75
829.06	28067.41
829.24	28032.60
829.41	27694.68
829.59	27756.12
829.77	27594.33
829.95	27309.66
830.12	27569.76
830.30	27469.40
830.48	27676.25
830.66	27379.29
830.84	27166.31
831.01	27203.17
831.19	27373.15
831.37	27317.86
831.55	26945.12
831.72	27311.71
831.90	27121.25
832.08	27356.77
832.25	27051.62
832.43	27162.21
832.61	26924.65
832.79	26922.60
832.96	26760.81
833.14	26990.18
833.32	27203.17
833.50	26766.95
833.67	27123.30
833.85	26863.21
834.03	26750.57
834.20	26629.74
834.38	26789.48
834.56	26900.07
834.74	26777.19
834.91	26250.86
835.09	26539.63
835.27	26291.82
835.44	26214.00
835.62	25781.88
835.80	25943.67
835.98	26248.82
836.15	26580.59
836.33	26162.80
836.51	26531.44
836.68	25831.03
836.86	26283.63
837.04	26549.87
837.21	25910.90
837.39	26056.31
837.57	26236.53
837.75	26007.16
837.92	26238.58
838.10	25945.72
838.28	26037.87
838.45	25667.19
838.63	25601.66
838.81	26035.83
838.98	25716.34
839.16	25544.31
839.34	25601.66
839.51	25521.79
839.69	25513.59
839.87	25460.35
840.04	25372.28
840.22	25810.55
840.40	25464.44
840.57	25177.73
840.75	25296.51
840.93	25114.24
841.10	25271.93
841.28	25366.14
841.46	25235.07
841.63	25552.51
841.81	25233.02
841.98	25222.78
842.16	25001.60
842.34	25224.83
842.51	24682.12
842.69	25355.90
842.87	24977.03
843.04	25273.98
843.22	24721.03
843.40	24718.98
843.57	24741.51
843.75	25007.75
843.92	24555.15
844.10	24755.85
844.28	24456.84
844.45	24905.35
844.63	24727.17
844.81	24686.22
844.98	24559.24
845.16	24835.72
845.33	24809.09
845.51	24553.10
845.69	24467.08
845.86	24628.87
846.04	24649.35
846.21	24297.10
846.39	24448.65
846.57	24041.11
846.74	24065.68
846.92	24280.72
847.09	24497.80
847.27	24364.68
847.45	24295.05
847.62	24309.39
847.80	24123.02
847.97	24202.89
848.15	24202.89
848.32	23627.42
848.50	23867.03
848.68	23793.30
848.85	24022.67
849.03	23604.89
849.20	23801.49
849.38	23686.81
849.56	23731.86
849.73	23555.74
849.91	23682.71
850.08	23907.99
850.26	23336.60
850.43	23486.11
850.61	23647.90
850.78	23209.63
850.96	23594.65
851.14	23338.65
851.31	23748.25
851.49	23326.36
851.66	23213.73
851.84	23717.53
852.01	23383.71
852.19	23346.84
852.36	23527.06
852.54	23049.89
852.71	23334.56
852.89	23221.92
853.07	23121.57
853.24	23371.42
853.42	23164.57
853.59	23303.84
853.77	23514.78
853.94	22957.73
854.12	23338.65
854.29	22834.85
854.47	22861.48
854.64	22609.58
854.82	23070.37
854.99	23082.66
855.17	22789.80
855.34	22845.09
855.52	22742.69
855.69	23033.50
855.87	22480.55
856.04	22691.49
856.22	22525.61
856.39	22515.37
856.57	22566.57
856.74	22556.33
856.92	22668.97
857.09	22455.98
857.27	22421.16
857.44	22898.34
857.62	22625.96
857.79	22488.74
857.97	22341.29
858.14	22355.63
858.32	22199.98
858.49	22529.70
858.67	22410.92
858.84	22075.06
859.02	22288.04
859.19	22177.45
859.37	22062.77
859.54	22079.15
859.72	22077.10
859.89	22179.50
860.06	22238.89
860.24	22347.44
860.41	21939.89
860.59	21763.76
860.76	21954.22
860.94	21624.50
861.11	21841.59
861.29	21960.37
861.46	21923.51
861.64	21751.48
861.81	21683.89
861.98	21767.86
862.16	21769.91
862.33	21558.97
862.51	21333.69
862.68	21550.78
862.86	21202.62
863.03	21673.65
863.21	21712.56
863.38	21225.15
863.55	21550.78
863.73	21112.51
863.90	21481.14
864.08	21350.07
864.25	21440.18
864.43	21204.67
864.60	21227.20
864.77	21139.13
864.95	21198.52
865.12	21257.92
865.30	21196.48
865.47	20993.73
865.64	21032.64
865.82	21061.31
865.99	21165.76
866.17	20989.63
866.34	20979.39
866.51	20731.59
866.69	21022.40
866.86	20797.12
867.04	20672.20
867.21	20639.43
867.38	20682.44
867.56	20549.32
867.73	20403.91
867.91	20582.09
868.08	20532.93
868.25	20313.80
868.43	20358.86
868.60	20510.41
868.78	20266.70
868.95	20485.83
869.12	20301.51
869.30	20137.68
869.47	20618.95
869.64	20051.66
869.82	20283.08
869.99	20121.29
870.16	20446.92
870.34	20467.40
870.51	20238.03
870.69	20309.71
870.86	20012.75
871.03	19979.98
871.21	20156.11
871.38	19975.89
871.55	20078.29
871.73	19822.29
871.90	19592.92
872.07	19818.19
872.25	19726.04
872.42	19441.37
872.59	19853.01
872.77	19517.14
872.94	19807.95
873.11	19648.21
873.29	19779.28
873.46	19482.33
873.63	19650.26
873.81	19373.78
873.98	19463.90
874.15	19220.19
874.33	19412.70
874.50	19146.46
874.67	19519.19
874.85	18847.46
875.02	19048.16
875.19	18988.77
875.37	19044.06
875.54	18794.21
875.71	18833.12
875.88	18910.94
876.06	18826.98
876.23	18697.95
876.40	18763.49
876.58	18685.67
876.75	18775.78
876.92	18360.04
877.10	18921.18
877.27	18769.63
877.44	18927.33
877.61	18329.32
877.79	18251.50
877.96	18685.67
878.13	18503.40
878.31	18419.43
878.48	18077.42
878.65	18077.42
878.82	18132.72
879.00	18118.38
879.17	18388.71
879.34	18169.58
879.51	17940.21
879.69	17821.42
879.86	18112.24
880.03	17833.71
880.21	18009.84
880.38	18032.36
880.55	17940.21
880.72	17788.66
880.90	17919.73
881.07	17508.08
881.24	17819.38
881.41	17811.18
881.59	17747.70
881.76	17471.22
881.93	17659.63
882.10	17481.46
882.28	17168.12
882.45	17815.28
882.62	17690.35
882.79	17587.96
882.96	17063.68
883.14	17514.23
883.31	17485.56
883.48	17503.99
883.65	17458.93
883.83	17555.19
884.00	17319.67
884.17	17411.83
884.34	17352.44
884.51	17329.91
884.69	17313.53
884.86	17340.15
885.03	17254.14
885.20	17235.70
885.38	17282.81
885.55	16908.03
885.72	17108.73
885.89	17155.83
886.06	17014.52
886.24	17043.20
886.41	17084.16
886.58	17309.43
886.75	17123.07
886.92	16930.56
887.10	16961.28
887.27	16709.38
887.44	16801.54
887.61	17026.81
887.78	17078.01
887.95	17116.92
888.13	16813.82
888.30	16707.33
888.47	16639.75
888.64	16819.97
888.81	16801.54
888.99	16883.45
889.16	16555.78
889.33	16695.04
889.50	16465.67
889.67	16467.72
889.84	16365.32
890.01	16500.48
890.19	16457.48
890.36	16445.19
890.53	16185.10
890.70	16520.96
890.87	16410.37
891.04	16391.94
891.22	16211.72
891.39	16060.17
891.56	16234.25
891.73	16137.99
891.90	15982.35
892.07	15802.13
892.24	16262.92
892.42	16090.89
892.59	15802.13
892.76	16164.62
892.93	16076.55
893.10	15656.72
893.27	15744.78
893.44	15714.06
893.61	15986.44
893.79	15922.96
893.96	15675.15
894.13	16072.46
894.30	16068.36
894.47	15814.41
894.64	15982.35
894.81	15800.08
894.98	15800.08
895.15	16088.84
895.33	15834.89
895.50	15752.98
895.67	15879.95
895.84	15793.94
896.01	15730.45
896.18	15527.70
896.35	15746.83
896.52	15568.66
896.69	15707.92
896.86	15683.34
897.04	15703.82
897.21	15748.88
897.38	15757.07
897.55	15916.81
897.72	15832.85
897.89	15603.47
898.06	15601.43
898.23	15472.40
898.40	15732.50
898.57	15740.69
898.74	15621.91
898.91	15709.97
899.08	15714.06
899.26	15636.24
899.43	15376.15
899.60	15501.08
899.77	15587.09
899.94	15480.60
900.11	15656.72
900.28	15529.75
900.45	15793.94
900.62	15503.12
900.79	15660.82
900.96	15558.42
901.13	15773.46
901.30	15564.56
901.47	15482.64
901.64	15609.62
901.81	15544.08
901.98	15413.01
902.15	15697.68
902.32	15261.46
902.49	15464.21
902.66	15357.72
902.83	15681.30
903.01	15390.49
903.18	15585.04
903.35	15523.60
903.52	15525.65
903.69	15470.36
903.86	15642.39
904.03	15429.40
904.20	15699.73
904.37	15589.14
904.54	15533.84
904.71	15410.96
904.88	15626.00
905.05	15310.61
905.22	15535.89
905.39	15486.74
905.56	15623.95
905.73	15392.53
905.90	15429.40
906.07	15400.72
906.24	15271.70
906.41	15339.29
906.58	15521.56
906.75	15628.05
906.92	15542.03
907.09	15367.96
907.26	15470.36
907.43	15206.17
907.60	15390.49
907.77	15349.53
907.93	15435.54
908.10	15400.72
908.27	15542.03
908.44	15105.82
908.61	15030.04
908.78	15218.46
908.95	15136.54
909.12	15107.87
909.29	15114.01
909.46	15189.78
909.63	15294.23
909.80	15333.14
909.97	15429.40
910.14	15001.37
910.31	15177.50
910.48	15294.23
910.65	15283.99
910.82	15263.51
910.99	15228.70
911.16	15044.38
911.33	15290.13
911.50	15148.82
911.66	15161.11
911.83	15081.24
912.00	15058.71
912.17	14634.78
912.34	14860.06
912.51	14944.03
912.68	14798.62
912.85	14982.94
913.02	14917.40
913.19	14810.91
913.36	15111.96
913.53	14917.40
913.70	14690.08
913.86	15050.52
914.03	14661.41
914.20	14841.63
914.37	14855.97
914.54	14604.07
914.71	14716.70
914.88	14827.29
915.05	14720.80
915.22	14630.69
915.39	14540.58
915.55	14714.66
915.72	14554.91
915.89	14462.76
916.06	14595.87
916.23	14434.08
916.40	14221.10
916.57	14329.64
916.74	14280.49
916.91	14151.46
917.07	14044.97
917.24	13881.13
917.41	14300.97
917.58	14040.87
917.75	13989.67
917.92	13965.10
918.09	14167.85
918.26	13815.60
918.42	13961.00
918.59	13791.02
918.76	13682.48
918.93	13559.60
919.10	13600.56
919.27	13567.79
919.44	13696.82
919.60	13696.82
919.77	13643.57
919.94	13510.45
920.11	13283.13
920.28	13516.59
920.45	13385.52
920.61	13520.69
920.78	13197.11
920.95	13178.68
921.12	13326.13
921.29	13242.17
921.46	13301.56
921.62	12920.63
921.79	13129.53
921.96	13119.29
922.13	12951.35
922.30	12883.77
922.47	12918.59
922.63	12857.15
922.80	12771.13
922.97	12504.90
923.14	12547.90
923.31	12818.24
923.47	12631.87
923.64	12764.99
923.81	12640.06
923.98	12486.47
924.15	12502.85
924.32	12431.17
924.48	12289.86
924.65	12357.44
924.82	12128.07
924.99	12060.49
925.15	11913.03
925.32	12068.68
925.49	12144.45
925.66	11997.00
925.83	11982.67
925.99	11761.48
926.16	11921.23
926.33	11941.71
926.50	11624.27
926.67	12054.34
926.83	11743.05
927.00	11513.68
927.17	11763.53
927.34	11364.18
927.50	11517.78
927.67	11521.87
927.84	11538.26
928.01	11388.75
928.17	11341.65
928.34	11382.61
928.51	11321.17
928.68	11237.20
928.84	11063.13
929.01	11030.36
929.18	10901.34
929.35	10893.15
929.51	11034.46
929.68	10905.43
929.85	10825.56
930.02	10800.99
930.18	10835.80
930.35	10794.84
930.52	10600.29
930.69	10727.26
930.85	10725.21
931.02	10401.63
931.19	10626.91
931.36	10334.05
931.52	10456.93
931.69	10397.54
931.86	10362.72
932.02	10217.32
932.19	10237.80
932.36	10164.07
932.53	10188.64
932.69	10119.01
932.86	10205.03
933.03	10096.49
933.19	10051.43
933.36	9940.84
933.53	10078.05
933.70	9889.64
933.86	9764.72
934.03	9680.75
934.20	9674.60
934.36	9561.97
934.53	9461.62
934.70	9428.85
934.86	9434.99
935.03	9353.07
935.20	9275.25
935.36	9060.21
935.53	9039.73
935.70	9191.28
935.86	9047.93
936.03	8767.35
936.20	8714.11
936.36	8896.38
936.53	8667.00
936.70	8707.96
936.86	8689.53
937.03	8593.28
937.20	8415.10
937.36	8351.62
937.53	8226.69
937.70	8298.37
937.86	7937.93
938.03	7901.06
938.20	8085.38
938.36	7851.91
938.53	7675.79
938.70	7532.43
938.86	7577.48
939.03	7618.44
939.20	7366.54
939.36	7495.57
939.53	7196.56
939.70	7509.90
939.86	6946.71
940.03	6967.19
940.19	6952.85
940.36	6844.31
940.53	6891.41
940.69	6754.20
940.86	6719.39
941.03	6703.00
941.19	6426.53
941.36	6569.88
941.52	6479.77
941.69	6326.18
941.86	6356.90
942.02	6418.33
942.19	6195.11
942.35	6283.17
942.52	6090.66
942.69	6182.82
942.85	5869.48
943.02	6025.12
943.18	6037.41
943.35	5818.28
943.52	5836.71
943.68	5885.86
943.85	5715.88
944.01	5668.78
944.18	5828.52
944.35	5767.08
944.51	5670.83
944.68	5597.10
944.84	5603.24
945.01	5550.00
945.17	5517.23
945.34	5482.41
945.51	5517.23
945.67	5531.56
945.84	5484.46
946.00	5355.44
946.17	5506.99
946.33	5300.14
946.50	5629.87
946.67	5400.49
946.83	5482.41
947.00	5480.36
947.16	5349.29
947.33	5373.87
947.49	5423.02
947.66	5294.00
947.82	5494.70
947.99	5308.34
948.16	5377.97
948.32	5519.28
948.49	5386.16
948.65	5441.45
948.82	5455.79
948.98	5423.02
949.15	5263.28
949.31	5447.60
949.48	5509.04
949.64	5248.94
949.81	5386.16
949.97	5357.49
950.14	5257.14
950.30	5380.01
950.47	5320.62
950.63	5474.22
950.80	5322.67
950.96	5355.44
951.13	5410.73
951.30	5367.73
951.46	5459.88
951.63	5496.75
951.79	5400.49
951.96	5412.78
952.12	5484.46
952.29	5586.86
952.45	5375.92
952.62	5418.93
952.78	5492.65
952.94	5345.20
953.11	5388.21
953.27	5392.30
953.44	5547.95
953.60	5480.36
953.77	5537.71
953.93	5615.53
954.10	5433.26
954.26	5541.80
954.43	5506.99
954.59	5554.09
954.76	5668.78
954.92	5353.39
955.09	5533.61
955.25	5511.08
955.42	5564.33
955.58	5480.36
955.75	5564.33
955.91	5504.94
956.07	5482.41
956.24	5545.90
956.40	5597.10
956.57	5562.28
956.73	5416.88
956.90	5562.28
957.06	5416.88
957.23	5513.13
957.39	5500.84
957.56	5537.71
957.72	5539.76
957.88	5556.14
958.05	5595.05
958.21	5597.10
958.38	5650.35
958.54	5633.96
958.71	5615.53
958.87	5408.69
959.03	5576.62
959.20	5539.76
959.36	5380.01
959.53	5560.24
959.69	5459.88
959.85	5533.61
960.02	5451.69
960.18	5558.19
960.35	5574.57
960.51	5511.08
960.68	5484.46
960.84	5447.60
961.00	5500.84
961.17	5509.04
961.33	5443.50
961.50	5459.88
961.66	5545.90
961.82	5414.83
961.99	5631.91
962.15	5474.22
962.31	5404.59
962.48	5398.45
962.64	5607.34
962.81	5468.08
962.97	5529.52
963.13	5529.52
963.30	5529.52
963.46	5359.53
963.62	5556.14
963.79	5500.84
963.95	5441.45
964.12	5470.12
964.28	5394.35
964.44	5431.21
964.61	5355.44
964.77	5447.60
964.93	5539.76
965.10	5441.45
965.26	5363.63
965.42	5425.07
965.59	5380.01
965.75	5439.40
965.92	5490.60
966.08	5474.22
966.24	5474.22
966.41	5240.75
966.57	5351.34
966.73	5478.32
966.90	5496.75
967.06	5334.96
967.22	5234.61
967.39	5449.64
967.55	5181.36
967.71	5136.31
967.88	5296.05
968.04	5162.93
968.20	5300.14
968.37	5267.38
968.53	5337.01
968.69	5316.53
968.85	5224.37
969.02	5306.29
969.18	5310.38
969.34	5181.36
969.51	5255.09
969.67	5269.42
969.83	5167.03
970.00	5183.41
970.16	5218.22
970.32	5083.06
970.48	5283.76
970.65	5214.13
970.81	5138.35
970.97	5103.54
971.14	5111.73
971.30	5162.93
971.46	5124.02
971.63	5099.44
971.79	5210.03
971.95	5029.81
972.11	4997.04
972.28	4911.03
972.44	5081.01
972.60	4913.08
972.76	5072.82
972.93	4988.85
973.09	5031.86
973.25	5044.15
973.42	5062.58
973.58	4964.28
973.74	5015.48
973.90	5097.39
974.07	4886.45
974.23	4874.17
974.39	4966.32
974.55	4976.56
974.72	4941.75
974.88	4730.81
975.04	4980.66
975.20	4904.89
975.37	4874.17
975.53	4933.56
975.69	4843.45
975.85	4880.31
976.01	4722.62
976.18	4687.80
976.34	4753.34
976.50	4925.36
976.66	4896.69
976.83	4677.56
976.99	4755.38
977.15	4698.04
977.31	4546.49
977.47	4745.14
977.64	4747.19
977.80	4712.38
977.96	4687.80
978.12	4614.07
978.29	4585.40
978.45	4495.29
978.61	4620.22
978.77	4650.94
978.93	4507.58
979.10	4677.56
979.26	4575.16
979.42	4538.30
979.58	4450.24
979.74	4552.63
979.91	4556.73
980.07	4593.59
980.23	4579.26
980.39	4491.20
980.55	4548.54
980.71	4472.76
980.88	4337.60
981.04	4372.41
981.20	4544.44
981.36	4495.29
981.52	4456.38
981.68	4409.28
981.85	4394.94
982.01	4353.98
982.17	4333.50
982.33	4337.60
982.49	4456.38
982.65	4306.88
982.82	4464.57
982.98	4335.55
983.14	4370.37
983.30	4384.70
983.46	4374.46
983.62	4308.93
983.79	4286.40
983.95	4288.45
984.11	4153.28
984.27	4272.06
984.43	4224.96
984.59	4177.86
984.75	4296.64
984.91	4337.60
985.08	4212.67
985.24	4067.27
985.40	4143.04
985.56	4265.92
985.72	4278.21
985.88	4210.62
986.04	4173.76
986.20	4114.37
986.37	4190.14
986.53	4126.66
986.69	4087.75
986.85	4089.79
987.01	4097.99
987.17	4122.56
987.33	4075.46
987.49	4034.50
987.65	4081.60
987.82	4065.22
987.98	3907.52
988.14	4079.55
988.30	4048.83
988.46	3928.00
988.62	3928.00
988.78	3999.68
988.94	4009.92
989.10	3868.61
989.26	3944.39
989.42	3831.75
989.59	3876.80
989.75	3889.09
989.91	3932.10
990.07	3817.41
990.23	3831.75
990.39	3837.89
990.55	3985.35
990.71	3887.04
990.87	3829.70
991.03	3897.28
991.19	3815.37
991.35	3846.09
991.51	3854.28
991.67	3854.28
991.83	3735.50
992.00	3776.45
992.16	3846.09
992.32	3811.27
992.48	3854.28
992.64	3690.44
992.80	3782.60
992.96	3715.02
993.12	3776.45
993.28	3792.84
993.44	3635.14
993.60	3704.78
993.76	3702.73
993.92	3702.73
994.08	3682.25
994.24	3758.02
994.40	3639.24
994.56	3727.30
994.72	3647.43
994.88	3549.13
995.04	3590.09
995.20	3530.70
995.36	3645.38
995.52	3573.71
995.68	3594.19
995.84	3575.75
996.00	3598.28
996.16	3389.39
996.32	3592.14
996.48	3446.73
996.64	3569.61
996.80	3418.06
996.96	3542.99
997.12	3604.42
997.28	3542.99
997.44	3481.55
997.60	3407.82
997.76	3356.62
997.92	3409.87
998.08	3379.15
998.24	3397.58
998.40	3358.67
998.56	3385.29
998.72	3243.98
998.88	3295.18
999.04	3399.63
999.20	3434.44
999.36	3246.03
999.52	3370.96
999.68	3395.53
999.84	3409.87
1000.00	3387.34
1000.16	3418.06
1000.32	3256.27
1000.48	3307.47
1000.64	3229.65
1000.80	3209.17
1000.95	3243.98
1001.11	3229.65
1001.27	3254.22
1001.43	3178.45
1001.59	3182.54
1001.75	3131.34
1001.91	3180.50
1002.07	3207.12
1002.23	3104.72
1002.39	3190.74
1002.55	3241.93
1002.71	3133.39
1002.87	3135.44
1003.03	3143.63
1003.19	3086.29
1003.34	3256.27
1003.50	3006.42
1003.66	3145.68
1003.82	3164.11
1003.98	3145.68
1004.14	3084.24
1004.30	3055.57
1004.46	3039.19
1004.62	3051.47
1004.78	3117.01
1004.94	3020.75
1005.09	2975.70
1005.25	2981.84
1005.41	3047.38
1005.57	2967.51
1005.73	2977.75
1005.89	2992.08
1006.05	3086.29
1006.21	3114.96
1006.37	2912.21
1006.52	2887.64
1006.68	2987.99
1006.84	3067.86
1007.00	2938.84
1007.16	2916.31
1007.32	2861.01
1007.48	2887.64
1007.64	2906.07
1007.79	2875.35
1007.95	2803.67
1008.11	2953.17
1008.27	2772.95
1008.43	2893.78
1008.59	2910.16
1008.75	2967.51
1008.91	2867.16
1009.06	2865.11
1009.22	2879.44
1009.38	2828.24
1009.54	2777.05
1009.70	2848.72
1009.86	2811.86
1010.01	2820.05
1010.17	2789.33
1010.33	2797.53
1010.49	2750.42
1010.65	2852.82
1010.81	2727.89
1010.96	2770.90
1011.12	2777.05
1011.28	2707.41
1011.44	2836.44
1011.60	2664.41
1011.76	2711.51
1011.91	2807.77
1012.07	2695.13
1012.23	2656.22
1012.39	2684.89
1012.55	2680.79
1012.71	2707.41
1012.86	2637.78
1013.02	2631.64
1013.18	2631.64
1013.34	2621.40
1013.50	2668.50
1013.65	2779.09
1013.81	2613.21
1013.97	2584.54
1014.13	2666.46
1014.29	2623.45
1014.44	2721.75
1014.60	2572.25
1014.76	2516.95
1014.92	2625.50
1015.07	2611.16
1015.23	2621.40
1015.39	2557.91
1015.55	2547.67
1015.71	2535.39
1015.86	2535.39
1016.02	2502.62
1016.18	2467.80
1016.34	2588.63
1016.49	2592.73
1016.65	2617.30
1016.81	2523.10
1016.97	2531.29
1017.12	2625.50
1017.28	2453.47
1017.44	2387.93
1017.60	2500.57
1017.75	2488.28
1017.91	2445.27
1018.07	2424.80
1018.23	2500.57
1018.38	2412.51
1018.54	2428.89
1018.70	2473.95
1018.86	2424.80
1019.01	2387.93
1019.17	2488.28
1019.33	2508.76
1019.49	2306.01
1019.64	2414.56
1019.80	2365.40
1019.96	2457.56
1020.12	2394.08
1020.27	2334.68
1020.43	2519.00
1020.59	2492.38
1020.74	2445.27
1020.90	2428.89
1021.06	2365.40
1021.22	2283.49
1021.37	2334.68
1021.53	2336.73
1021.69	2355.16
1021.84	2326.49
1022.00	2314.20
1022.16	2269.15
1022.31	2334.68
1022.47	2445.27
1022.63	2344.92
1022.79	2267.10
1022.94	2338.78
1023.10	2320.35
1023.26	2314.20
1023.41	2336.73
1023.57	2283.49
1023.73	2361.31
1023.88	2260.96
1024.04	2246.62
1024.20	2224.09
1024.35	2256.86
1024.51	2291.68
1024.67	2297.82
1024.82	2297.82
1024.98	2187.23
1025.14	2197.47
1025.29	2170.85
1025.45	2295.77
1025.61	2150.37
1025.76	2220.00
1025.92	2265.05
1026.08	2185.18
1026.23	2222.05
1026.39	2187.23
1026.55	2095.07
1026.70	2131.94
1026.86	2220.00
1027.02	2263.01
1027.17	2191.33
1027.33	2168.80
1027.48	2156.51
1027.64	2156.51
1027.80	2224.09
1027.95	2205.66
1028.11	2105.31
1028.27	2252.77
1028.42	2168.80
1028.58	2154.46
1028.73	2129.89
1028.89	2174.94
1029.05	2215.90
1029.20	2140.13
>>>>>End Processed Spectral Data<<<<<
