SpectraSuite Data File
++++++++++++++++++++++++++++++++++++
Date: Fri Jun 02 14:53:32 CEST 2017
User: INFO_000
Dark Spectrum Present: No
Reference Spectrum Present: No
Number of Sampled Component Spectra: 1
Spectrometers: USB4H00879
Integration Time (usec): 80000 (USB4H00879)
Spectra Averaged: 1 (USB4H00879)
Boxcar Smoothing: 0 (USB4H00879)
Correct for Electrical Dark: No (USB4H00879)
Strobe/Lamp Enabled: No (USB4H00879)
Correct for Detector Non-linearity: No (USB4H00879)
Correct for Stray Light: No (USB4H00879)
Number of Pixels in Processed Spectrum: 3648
>>>>>Begin Processed Spectral Data<<<<<
345.13	1290.22
345.34	1290.22
345.56	1290.22
345.78	1253.36
345.99	1282.03
346.21	1675.24
346.42	1695.72
346.64	1599.46
346.86	1794.02
347.07	1683.43
347.29	1669.09
347.50	1558.50
347.72	1742.82
347.94	1738.73
348.15	1552.36
348.37	1611.75
348.59	1771.49
348.80	1626.09
349.02	1755.11
349.23	1851.36
349.45	1771.49
349.67	1818.60
349.88	1798.12
350.10	2002.91
350.31	1798.12
350.53	1761.25
350.75	1980.39
350.96	1847.27
351.18	1798.12
351.39	1818.60
351.61	1798.12
351.82	1925.09
352.04	1925.09
352.26	1804.26
352.47	1871.84
352.69	1894.37
352.90	1789.92
353.12	1873.89
353.34	1916.90
353.55	1920.99
353.77	1904.61
353.98	1794.02
354.20	1851.36
354.41	1966.05
354.63	2025.44
354.85	1998.82
355.06	1904.61
355.28	1789.92
355.49	1892.32
355.71	1964.00
355.92	1984.48
356.14	1902.56
356.35	1869.80
356.57	1918.95
356.79	1996.77
357.00	1896.42
357.22	1949.67
357.43	1841.12
357.65	1974.24
357.86	1804.26
358.08	1933.28
358.29	1906.66
358.51	2029.54
358.72	2004.96
358.94	1988.58
359.16	2009.06
359.37	2015.20
359.59	1982.43
359.80	2033.63
360.02	1871.84
360.23	1957.86
360.45	1986.53
360.66	1923.04
360.88	1929.19
361.09	1968.10
361.31	2076.64
361.52	1894.37
361.74	2004.96
361.95	2070.50
362.17	1949.67
362.38	2095.07
362.60	2019.30
362.81	1937.38
363.03	2002.91
363.24	1984.48
363.46	2076.64
363.67	2066.40
363.89	1980.39
364.10	2011.11
364.32	1933.28
364.53	1966.05
364.75	1941.47
364.96	2068.45
365.18	2025.44
365.39	2093.02
365.61	1998.82
365.82	2105.31
366.04	1970.15
366.25	1875.94
366.47	2025.44
366.68	2086.88
366.90	1970.15
367.11	2060.26
367.33	2064.35
367.54	2070.50
367.76	2078.69
367.97	2070.50
368.19	2095.07
368.40	2035.68
368.62	2047.97
368.83	1966.05
369.05	2037.73
369.26	1980.39
369.48	2009.06
369.69	1925.09
369.91	2058.21
370.12	1980.39
370.33	2138.08
370.55	2035.68
370.76	2101.22
370.98	2080.74
371.19	2074.59
371.41	2064.35
371.62	2068.45
371.84	2064.35
372.05	2187.23
372.27	2045.92
372.48	2080.74
372.69	2033.63
372.91	2099.17
373.12	2156.51
373.34	2056.16
373.55	2162.66
373.77	2146.27
373.98	2142.18
374.20	2166.75
374.41	2220.00
374.62	2185.18
374.84	2172.89
375.05	2236.38
375.27	2207.71
375.48	2148.32
375.70	2201.57
375.91	2191.33
376.12	2265.05
376.34	2164.70
376.55	2176.99
376.77	2222.05
376.98	2121.70
377.19	2187.23
377.41	2174.94
377.62	2289.63
377.84	2267.10
378.05	2275.29
378.27	2181.09
378.48	2297.82
378.69	2404.32
378.91	2357.21
379.12	2273.25
379.34	2213.85
379.55	2420.70
379.76	2199.52
379.98	2258.91
380.19	2295.77
380.41	2189.28
380.62	2289.63
380.83	2244.57
381.05	2189.28
381.26	2443.23
381.47	2275.29
381.69	2265.05
381.90	2453.47
382.12	2342.88
382.33	2220.00
382.54	2267.10
382.76	2303.96
382.97	2330.59
383.19	2293.72
383.40	2486.23
383.61	2275.29
383.83	2355.16
384.04	2328.54
384.25	2336.73
384.47	2367.45
384.68	2351.07
384.89	2326.49
385.11	2351.07
385.32	2312.16
385.54	2332.64
385.75	2353.12
385.96	2426.84
386.18	2371.55
386.39	2422.75
386.60	2383.84
386.82	2523.10
387.03	2502.62
387.24	2480.09
387.46	2555.86
387.67	2457.56
387.88	2562.01
388.10	2531.29
388.31	2428.89
388.52	2521.05
388.74	2498.52
388.95	2435.03
389.16	2486.23
389.38	2422.75
389.59	2729.94
389.80	2602.97
390.02	2557.91
390.23	2654.17
390.44	2607.06
390.66	2451.42
390.87	2547.67
391.08	2570.20
391.30	2711.51
391.51	2578.39
391.72	2676.70
391.94	2705.37
392.15	2590.68
392.36	2705.37
392.58	2576.34
392.79	2707.41
393.00	2654.17
393.22	2740.18
393.43	2697.17
393.64	2789.33
393.85	2752.47
394.07	2686.94
394.28	2818.00
394.49	2779.09
394.71	2828.24
394.92	2836.44
395.13	2770.90
395.35	2760.66
395.56	2699.22
395.77	2893.78
395.98	2801.62
396.20	2920.40
396.41	2840.53
396.62	2854.87
396.84	2811.86
397.05	2867.16
397.26	2901.97
397.47	3059.67
397.69	2797.53
397.90	3076.05
398.11	2895.83
398.32	2893.78
398.54	2916.31
398.75	2957.27
398.96	3030.99
399.18	3071.95
399.39	2936.79
399.60	3057.62
399.81	2985.94
400.03	2992.08
400.24	3291.09
400.45	2973.65
400.66	3182.54
400.88	3051.47
401.09	3149.78
401.30	3112.91
401.51	3243.98
401.73	3239.89
401.94	3186.64
402.15	3178.45
402.36	3168.21
402.58	3129.30
402.79	3170.26
403.00	3178.45
403.21	3231.69
403.43	3174.35
403.64	3301.33
403.85	3174.35
404.06	3282.89
404.27	3076.05
404.49	3280.85
404.70	3334.09
404.91	3262.41
405.12	3387.34
405.34	3401.68
405.55	3411.92
405.76	3344.33
405.97	3227.60
406.19	3422.16
406.40	3184.59
406.61	3299.28
406.82	3301.33
407.03	3362.76
407.25	3272.65
407.46	3508.17
407.67	3456.97
407.88	3545.03
408.09	3383.24
408.31	3325.90
408.52	3395.53
408.73	3413.96
408.94	3348.43
409.15	3518.41
409.37	3649.48
409.58	3518.41
409.79	3508.17
410.00	3661.77
410.21	3420.11
410.43	3452.88
410.64	3319.76
410.85	3665.86
411.06	3569.61
411.27	3551.18
411.48	3678.15
411.70	3588.04
411.91	3504.07
412.12	3606.47
412.33	3604.42
412.54	3643.34
412.76	3710.92
412.97	3665.86
413.18	3618.76
413.39	3776.45
413.60	3549.13
413.81	3747.78
414.03	3604.42
414.24	3585.99
414.45	3825.61
414.66	3614.66
414.87	3790.79
415.08	3706.82
415.30	3747.78
415.51	3788.74
415.72	3751.88
415.93	3809.22
416.14	3807.17
416.35	3841.99
416.56	3841.99
416.78	3704.78
416.99	3846.09
417.20	3770.31
417.41	3981.25
417.62	4034.50
417.83	3973.06
418.04	3954.63
418.26	3983.30
418.47	3848.13
418.68	3993.54
418.89	3936.20
419.10	4106.18
419.31	3923.91
419.52	4018.11
419.73	4030.40
419.95	4173.76
420.16	4024.26
420.37	3997.64
420.58	4124.61
420.79	3868.61
421.00	4243.39
421.21	4167.62
421.42	4083.65
421.63	4138.94
421.85	4153.28
422.06	4257.73
422.27	4106.18
422.48	4298.69
422.69	4339.65
422.90	4321.21
423.11	4296.64
423.32	4270.01
423.53	4456.38
423.75	4356.03
423.96	4448.19
424.17	4329.41
424.38	4593.59
424.59	4386.75
424.80	4632.51
425.01	4491.20
425.22	4460.48
425.43	4538.30
425.64	4761.53
425.85	4669.37
426.06	4661.18
426.28	4534.20
426.49	4540.35
426.70	4423.61
426.91	4677.56
427.12	4523.96
427.33	4599.74
427.54	4655.03
427.75	4718.52
427.96	4775.86
428.17	4681.66
428.38	4818.87
428.59	4755.38
428.80	4657.08
429.01	4857.78
429.23	4728.76
429.44	4978.61
429.65	4939.70
429.86	4956.08
430.07	4876.21
430.28	4794.29
430.49	4970.42
430.70	5060.53
430.91	4999.09
431.12	5025.72
431.33	5066.67
431.54	5124.02
431.75	5183.41
431.96	5160.88
432.17	5169.07
432.38	5119.92
432.59	5384.11
432.80	5287.86
433.01	5304.24
433.22	5347.25
433.43	5343.15
433.64	5453.74
433.85	5238.70
434.06	5386.16
434.27	5373.87
434.49	5412.78
434.70	5509.04
434.91	5455.79
435.12	5416.88
435.33	5586.86
435.54	5638.06
435.75	5263.28
435.96	5545.90
436.17	5373.87
436.38	5676.97
436.59	5550.00
436.80	5562.28
437.01	5730.22
437.22	5812.14
437.43	5808.04
437.64	5502.89
437.85	5742.50
438.06	5709.74
438.27	5695.40
438.48	5799.85
438.69	5894.05
438.90	5799.85
439.11	5623.72
439.32	5844.90
439.53	5826.47
439.74	5928.87
439.95	5887.91
440.16	6012.84
440.37	5973.92
440.57	5855.14
440.78	5967.78
440.99	6191.01
441.20	6055.84
441.41	6049.70
441.62	6059.94
441.83	5916.58
442.04	6117.28
442.25	6268.83
442.46	6156.19
442.67	6291.36
442.88	6664.09
443.09	6066.08
443.30	6168.48
443.51	6234.02
443.72	6410.14
443.93	6143.91
444.14	6440.86
444.35	6203.30
444.56	6285.22
444.77	6236.06
444.98	6416.29
445.19	6600.60
445.40	6363.04
445.61	6438.81
445.81	6664.09
446.02	6694.81
446.23	6379.42
446.44	6502.30
446.65	6582.17
446.86	6731.67
447.07	6537.12
447.28	6778.78
447.49	6692.76
447.70	6725.53
447.91	6754.20
448.12	6811.54
448.33	6801.30
448.54	6967.19
448.74	6748.06
448.95	6989.72
449.16	6940.57
449.37	7196.56
449.58	7006.10
449.79	7018.39
450.00	6805.40
450.21	6940.57
450.42	7276.43
450.63	7161.75
450.84	7024.53
451.05	7315.34
451.25	7126.93
451.46	7137.17
451.67	7231.38
451.88	7325.58
452.09	7298.96
452.30	7073.68
452.51	7473.04
452.72	7313.30
452.93	7600.01
453.13	7360.40
453.34	7354.26
453.55	7497.61
453.76	7577.48
453.97	7876.49
454.18	7597.96
454.39	7645.07
454.60	7612.30
454.81	7610.25
455.01	7749.51
455.22	7501.71
455.43	7702.41
455.64	7997.32
455.85	8128.39
456.06	8130.44
456.27	7929.74
456.48	7974.79
456.68	8011.65
456.89	8046.47
457.10	8148.87
457.31	8081.28
457.52	8048.52
457.73	8126.34
457.94	8421.25
458.14	8058.76
458.35	8417.15
458.56	8351.62
458.77	8286.08
458.98	8398.72
459.19	8486.78
459.39	8527.74
459.60	8570.75
459.81	8437.63
460.02	8738.68
460.23	8441.73
460.44	8744.83
460.65	8660.86
460.85	8912.76
461.06	8867.70
461.27	8476.54
461.48	9099.13
461.69	9013.11
461.89	8828.79
462.10	9062.26
462.31	8826.75
462.52	9133.94
462.73	8906.62
462.94	9336.69
463.14	9369.46
463.35	9111.41
463.56	9611.12
463.77	9502.58
463.98	9289.59
464.18	9490.29
464.39	9789.29
464.60	9908.07
464.81	9731.95
465.02	9770.86
465.23	9869.16
465.43	9635.69
465.64	10033.00
465.85	9865.07
466.06	9717.61
466.27	10092.39
466.47	10090.34
466.68	10239.84
466.89	10274.66
467.10	10372.96
467.30	10030.95
467.51	10342.24
467.72	10663.77
467.93	10332.00
468.14	10508.13
468.34	10790.75
468.55	10436.45
468.76	10731.36
468.97	10456.93
469.17	10882.91
469.38	10843.99
469.59	10930.01
469.80	10782.56
470.01	10917.72
470.21	11085.65
470.42	11108.18
470.63	11210.58
470.84	11085.65
471.04	11450.19
471.25	11466.58
471.46	11409.23
471.67	11603.79
471.87	11628.37
472.08	11677.52
472.29	12076.87
472.50	11730.76
472.70	11792.20
472.91	11841.36
473.12	12062.54
473.33	12158.79
473.53	12293.96
473.74	11913.03
473.95	12414.79
474.16	12474.18
474.36	12388.16
474.57	12756.80
474.78	12758.85
474.99	12664.64
475.19	12672.83
475.40	12857.15
475.61	13045.56
475.81	13045.56
476.02	13229.88
476.23	13207.35
476.44	13326.13
476.64	13569.84
476.85	13655.86
477.06	13455.15
477.27	13635.38
477.47	13823.79
477.68	13809.45
477.89	13983.53
478.09	14149.42
478.30	14173.99
478.51	14065.45
478.71	14323.49
478.92	14384.93
479.13	14343.97
479.34	14645.02
479.54	14423.84
479.75	14724.90
479.96	14524.19
480.16	14696.22
480.37	14892.83
480.58	15052.57
480.78	15404.82
480.99	15271.70
481.20	15425.30
481.41	15648.53
481.61	15636.24
481.82	15652.63
482.03	15400.72
482.23	15634.19
482.44	15853.33
482.65	15982.35
482.85	15974.16
483.06	16023.31
483.27	15988.49
483.47	16590.59
483.68	16578.31
483.89	16437.00
484.09	16447.24
484.30	16627.46
484.51	16887.55
484.71	17008.38
484.92	16641.79
485.13	17370.87
485.33	17327.86
485.54	17069.82
485.75	17358.58
485.95	17501.94
486.16	17551.09
486.37	17848.05
486.57	17604.34
486.78	17915.63
486.98	17610.48
487.19	18034.41
487.40	17995.50
487.60	18214.63
487.81	18280.17
488.02	18120.43
488.22	18128.62
488.43	18509.54
488.64	18022.12
488.84	18548.45
489.05	18462.44
489.25	19017.44
489.46	18974.43
489.67	18845.41
489.87	19171.04
490.08	19158.75
490.29	19394.26
490.49	19330.78
490.70	19441.37
490.90	19615.44
491.11	19644.12
491.32	19680.98
491.52	19861.20
491.73	19756.75
491.94	19949.26
492.14	20033.23
492.35	20133.58
492.55	20350.67
492.76	20244.17
492.97	20545.22
493.17	20563.65
493.38	20584.13
493.58	20862.66
493.79	21051.07
494.00	20823.75
494.20	20842.18
494.41	20934.34
494.61	21034.69
494.82	21118.65
495.02	20948.67
495.23	21409.47
495.44	21126.85
495.64	21825.20
495.85	21427.90
496.05	21378.75
496.26	21710.52
496.47	22040.24
496.67	21843.63
496.88	22187.69
497.08	21747.38
497.29	22179.50
497.49	22398.63
497.70	22275.76
497.91	22507.18
498.11	22533.80
498.32	22699.69
498.52	22707.88
498.73	22988.45
498.93	23105.18
499.14	22920.87
499.34	23185.05
499.55	23117.47
499.76	22890.15
499.96	23314.08
500.17	23248.54
500.37	23289.50
500.58	23576.22
500.78	23639.70
500.99	23525.02
501.19	23875.22
501.40	23727.77
501.60	23754.39
501.81	23529.11
502.02	24110.74
502.22	23680.66
502.43	24045.20
502.63	24194.70
502.84	24176.27
503.04	24280.72
503.25	24483.47
503.45	24608.39
503.66	24426.12
503.86	24516.23
504.07	25034.37
504.27	24176.27
504.48	25050.75
504.68	25136.77
504.89	25405.05
505.09	24886.92
505.30	24919.68
505.50	25325.18
505.71	25421.44
505.91	25306.75
506.12	24974.98
506.32	25695.86
506.53	25648.76
506.73	25591.42
506.94	25403.00
507.14	25542.27
507.35	26039.92
507.55	25835.13
507.76	26238.58
507.96	25927.28
508.17	26115.70
508.37	26150.51
508.58	26396.27
508.78	26211.95
508.99	26523.24
509.19	26392.17
509.40	26326.64
509.60	26224.24
509.81	26400.37
510.01	26637.93
510.22	26494.57
510.42	26353.26
510.63	26949.22
510.83	26959.46
511.04	26963.56
511.24	26793.58
511.44	26816.10
511.65	27248.22
511.85	26920.55
512.06	27100.77
512.26	27076.19
512.47	27319.90
512.67	27225.70
512.88	27178.59
513.08	27082.34
513.29	27610.71
513.49	27385.44
513.69	27465.31
513.90	27754.07
514.10	27766.36
514.31	27983.44
514.51	27854.42
514.72	28278.35
514.92	27868.76
515.13	27807.32
515.33	28235.35
515.53	28153.43
515.74	27967.06
515.94	28274.26
516.15	28390.99
516.35	28085.84
516.56	28247.63
516.76	27991.64
516.96	28587.60
517.17	28345.94
517.37	28710.47
517.58	28157.52
517.78	28864.07
517.99	28460.62
518.19	29138.50
518.39	29193.79
518.60	29154.88
518.80	29290.05
519.01	29306.43
519.21	29228.61
519.41	28964.42
519.62	29150.79
519.82	29554.24
520.03	29681.21
520.23	29462.08
520.43	29605.44
520.64	29834.81
520.84	29701.69
521.05	30174.77
521.25	29906.49
521.45	29806.14
521.66	29869.62
521.86	29955.64
522.07	30187.06
522.27	30217.78
522.47	30180.92
522.68	30410.29
522.88	30658.09
523.08	30852.65
523.29	30654.00
523.49	30828.07
523.70	30842.41
523.90	30957.10
524.10	31045.16
524.31	30959.14
524.51	30621.23
524.71	31350.31
524.92	31061.54
525.12	31360.55
525.33	30940.71
525.53	31612.45
525.73	31847.96
525.94	31510.05
526.14	31802.91
526.34	31858.20
526.55	31850.01
526.75	31999.51
526.95	32204.31
527.16	31923.74
527.36	32251.41
527.56	32198.16
527.77	32763.40
527.97	32499.22
528.17	32480.78
528.38	32824.84
528.58	32798.22
528.78	33109.51
528.99	33095.18
529.19	33312.26
529.39	32642.57
529.60	33076.74
529.80	33050.12
530.00	33070.60
530.21	33551.87
530.41	33492.48
530.61	33410.56
530.82	33533.44
531.02	33431.04
531.22	33678.85
531.43	33814.01
531.63	34045.43
531.83	34239.99
532.04	34438.64
532.24	34534.90
532.44	34319.86
532.64	34471.41
532.85	34215.41
533.05	34381.30
533.25	34811.37
533.46	34598.38
533.66	35024.36
533.86	34844.14
534.07	35343.84
534.27	35077.61
534.47	35542.50
534.67	35485.15
534.88	35218.92
535.08	35247.59
535.28	35710.43
535.49	35436.00
535.69	36480.47
535.89	36105.69
536.09	35921.37
536.30	36382.16
536.50	35945.95
536.70	36181.46
536.91	36212.18
537.11	36392.40
537.31	36171.22
537.51	36500.95
537.72	36697.55
537.92	36842.96
538.12	36713.94
538.32	36873.68
538.53	37213.64
538.73	36685.26
538.93	37137.87
539.13	37035.47
539.34	37436.87
539.54	37623.23
539.74	37711.30
539.94	37500.36
540.15	37473.73
540.35	37862.85
540.55	38057.40
540.75	37721.54
540.96	38243.77
541.16	37795.26
541.36	37934.53
541.56	38077.88
541.77	38120.89
541.97	38030.78
542.17	38380.98
542.37	38352.31
542.58	38182.33
542.78	38550.96
542.98	38368.69
543.18	38366.65
543.38	39062.96
543.59	38661.55
543.79	38649.27
543.99	38667.70
544.19	39208.36
544.40	39071.15
544.60	39202.22
544.80	39443.88
545.00	38372.79
545.20	39718.31
545.41	39237.03
545.61	39177.64
545.81	39269.80
546.01	39556.52
546.21	39368.10
546.42	39792.03
546.62	40070.56
546.82	39765.41
547.02	39388.58
547.22	40015.26
547.43	39611.81
547.63	39964.06
547.83	39835.04
548.03	40013.21
548.23	40013.21
548.44	40254.87
548.64	40301.98
548.84	40396.18
549.04	40019.36
549.24	40236.44
549.45	40658.32
549.65	40465.81
549.85	40228.25
550.05	40410.52
550.25	40766.87
550.45	41473.42
550.66	40639.89
550.86	40680.85
551.06	40983.95
551.26	40922.51
551.46	41268.62
551.66	40928.66
551.87	40840.59
552.07	41446.79
552.27	41237.90
552.47	41119.12
552.67	41403.78
552.87	41285.00
553.07	41526.66
553.28	41489.80
553.48	41518.47
553.68	41379.21
553.88	41850.24
554.08	41719.17
554.28	41596.29
554.48	41162.12
554.69	41858.43
554.89	41866.63
555.09	41850.24
555.29	41643.40
555.49	41842.05
555.69	41690.50
555.89	41661.83
556.10	42276.22
556.30	42022.27
556.50	42116.48
556.70	42075.52
556.90	42169.72
557.10	42157.44
557.30	42124.67
557.50	42427.77
557.70	42767.73
557.91	42542.45
558.11	42669.43
558.31	42372.47
558.51	42306.94
558.71	42587.51
558.91	42677.62
559.11	42456.44
559.31	42483.06
559.51	42413.43
559.72	42882.42
559.92	43046.26
560.12	42753.40
560.32	42874.23
560.52	42761.59
560.72	43179.37
560.92	42956.14
561.12	42929.52
561.32	43292.01
561.52	42947.95
561.72	43072.88
561.93	42906.99
562.13	43040.11
562.33	43304.30
562.53	43482.47
562.73	43513.19
562.93	43156.85
563.13	43206.00
563.33	43687.27
563.53	43515.24
563.73	42952.05
563.93	43304.30
564.13	44078.43
564.33	43697.51
564.53	43873.63
564.74	43629.93
564.94	43314.54
565.14	43570.54
565.34	43636.07
565.54	43951.46
565.74	44139.87
565.94	44373.34
566.14	43791.72
566.34	43638.12
566.54	44524.89
566.74	43554.15
566.94	44275.04
567.14	44416.35
567.34	44150.11
567.54	44369.24
567.74	44047.71
567.94	44060.00
568.14	44453.21
568.34	44516.70
568.54	44426.59
568.74	44531.03
568.94	44496.22
569.14	44627.29
569.34	44461.40
569.54	44485.98
569.75	44307.80
569.95	44741.97
570.15	45006.16
570.35	44668.25
570.55	44881.24
570.75	44971.35
570.95	44844.37
571.15	45446.47
571.35	44916.05
571.55	45243.73
571.75	45170.00
571.95	45368.65
572.15	45016.40
572.35	45163.85
572.55	45202.77
572.75	45028.69
572.95	45391.18
573.15	45155.66
573.35	44979.54
573.55	45446.47
573.75	45466.95
573.95	45507.91
574.15	45817.16
574.35	45692.23
574.55	45989.19
574.75	45481.29
574.95	45718.85
575.15	45765.96
575.34	45708.61
575.54	45847.88
575.74	45987.14
575.94	45897.03
576.14	45927.75
576.34	46284.09
576.54	46497.08
576.74	46521.66
576.94	46644.54
577.14	46509.37
577.34	46732.60
577.54	46101.82
577.74	46622.01
577.94	46333.24
578.14	47117.62
578.34	46814.52
578.54	46085.44
578.74	46855.48
578.94	46921.01
579.14	46830.90
579.34	46701.88
579.54	47168.82
579.74	47162.67
579.94	46865.72
580.13	47392.04
580.33	47019.31
580.53	47314.22
580.73	47271.21
580.93	47267.12
581.13	47402.28
581.33	47744.30
581.53	47674.66
581.73	47478.06
581.93	47945.00
582.13	47580.46
582.33	47678.76
582.53	47893.80
582.73	47910.18
582.92	47615.27
583.12	48289.06
583.32	47992.10
583.52	47607.08
583.72	48141.60
583.92	48035.11
584.12	48430.36
584.32	48794.90
584.52	48207.14
584.72	48616.73
584.92	48506.14
585.11	49351.95
585.31	48686.36
585.51	48586.01
585.71	48477.47
585.91	49259.79
586.11	48835.86
586.31	48391.45
586.51	48833.81
586.71	49124.63
586.91	49024.28
587.10	49208.59
587.30	49202.45
587.50	49067.28
587.70	49384.72
587.90	49104.15
588.10	49419.53
588.30	49011.99
588.50	49341.71
588.69	49321.23
588.89	49108.24
589.09	49292.56
589.29	49741.06
589.49	49992.97
589.69	49241.36
589.89	49964.29
590.08	49765.64
590.28	49894.66
590.48	49526.03
590.68	49564.94
590.88	49681.67
591.08	49763.59
591.28	49700.11
591.47	50251.01
591.67	49921.29
591.87	50033.92
592.07	49913.09
592.27	50197.76
592.47	50085.12
592.67	50599.16
592.86	50412.80
593.06	50279.68
593.26	50633.98
593.46	50769.15
593.66	50593.02
593.86	50472.19
594.05	50746.62
594.25	51287.28
594.45	50705.66
594.65	50386.18
594.85	50722.04
595.05	50996.47
595.24	50967.80
595.44	50967.80
595.64	50840.82
595.84	50793.72
596.04	50980.09
596.23	50640.12
596.43	50988.28
596.63	51475.69
596.83	51041.53
597.03	51660.01
597.22	51696.88
597.42	51496.17
597.62	51320.05
597.82	51533.04
598.02	51311.86
598.21	51885.29
598.41	51649.77
598.61	51789.03
598.81	52059.37
599.01	52507.87
599.20	51522.80
599.40	52040.93
599.60	52016.36
599.80	52090.09
600.00	51832.04
600.19	52307.17
600.39	51938.54
600.59	52976.86
600.79	52278.50
600.98	52184.29
601.18	52485.34
601.38	52649.18
601.58	52542.69
601.78	52540.64
601.97	52522.21
602.17	53056.73
602.37	52739.29
602.57	52743.39
602.76	53011.67
602.96	53034.20
603.16	52786.39
603.36	53478.61
603.55	53329.11
603.75	53423.31
603.95	53421.26
604.15	53746.89
604.34	53382.35
604.54	53400.79
604.74	53535.95
604.94	53392.59
605.13	53814.47
605.33	53458.13
605.53	53363.92
605.73	53814.47
605.92	53613.77
606.12	54129.86
606.32	54170.82
606.52	53920.97
606.71	54076.61
606.91	54428.87
607.11	54142.15
607.30	54314.18
607.50	53753.04
607.70	54023.37
607.90	53970.12
608.09	54213.83
608.29	54660.29
608.49	54453.44
608.68	54506.69
608.88	54813.88
609.08	54473.92
609.28	54303.94
609.47	53998.79
609.67	54981.82
609.87	54641.85
610.06	55084.22
610.26	54707.39
610.46	54678.72
610.66	54490.30
610.85	54609.09
611.05	54580.42
611.25	54834.36
611.44	54414.53
611.64	54967.48
611.84	54564.03
612.03	54688.96
612.23	55033.02
612.43	55131.32
612.62	54486.21
612.82	54981.82
613.02	55411.89
613.21	54705.34
613.41	54457.54
613.61	55272.63
613.80	54963.39
614.00	55080.12
614.20	54607.04
614.39	54797.50
614.59	55348.40
614.79	54699.20
614.98	54629.57
615.18	54926.52
615.38	55198.90
615.57	54910.14
615.77	55389.36
615.97	55250.10
616.16	55252.15
616.36	55008.44
616.56	55096.50
616.75	54879.42
616.95	54758.59
617.15	55006.39
617.34	54883.51
617.54	54981.82
617.74	55370.93
617.93	55332.02
618.13	54662.33
618.32	55354.55
618.52	54699.20
618.72	55112.89
618.91	55424.18
619.11	55207.09
619.31	55379.12
619.50	55151.80
619.70	54715.58
619.90	55319.73
620.09	55286.96
620.29	54858.94
620.48	55104.70
620.68	55604.40
620.88	55010.49
621.07	55059.64
621.27	55370.93
621.46	54512.83
621.66	55354.55
621.86	54957.24
622.05	54867.13
622.25	55661.74
622.44	55411.89
622.64	54590.66
622.84	55162.04
623.03	54695.10
623.23	55055.54
623.42	54940.86
623.62	55313.59
623.82	55702.70
624.01	55022.78
624.21	55211.19
624.40	55096.50
624.60	55008.44
624.80	55108.79
624.99	55137.46
625.19	54523.07
625.38	55157.94
625.58	55078.07
625.77	55059.64
625.97	55149.75
626.17	54707.39
626.36	55073.98
626.56	55243.96
626.75	54965.43
626.95	55383.22
627.14	54809.79
627.34	55538.86
627.54	55358.64
627.73	55196.85
627.93	54891.71
628.12	54822.08
628.32	55100.60
628.51	55276.72
628.71	55309.49
628.90	55059.64
629.10	55000.25
629.30	55203.00
629.49	55268.53
629.69	55239.86
629.88	55063.74
630.08	55370.93
630.27	55530.67
630.47	54947.00
630.66	54975.67
630.86	55424.18
631.05	54772.92
631.25	55696.56
631.44	55489.71
631.64	55143.61
631.84	55106.74
632.03	55639.22
632.23	55332.02
632.42	55956.65
632.62	54973.63
632.81	55362.74
633.01	55139.51
633.20	55401.65
633.40	55329.97
633.59	55317.68
633.79	55043.26
633.98	55532.72
634.18	55643.31
634.37	55252.15
634.57	55391.41
634.76	55248.05
634.96	55569.58
635.15	55624.88
635.35	55016.63
635.54	55127.22
635.74	55641.26
635.93	55155.89
636.13	55604.40
636.32	55743.66
636.52	55205.05
636.71	55434.42
636.91	55278.77
637.10	55751.85
637.30	55631.02
637.49	55387.31
637.69	55350.45
637.88	55674.03
638.08	55502.00
638.27	55764.14
638.46	55395.51
638.66	54623.42
638.85	55567.54
639.05	55825.58
639.24	55753.90
639.44	55471.28
639.63	55428.27
639.83	55973.03
640.02	55588.02
640.22	55319.73
640.41	56013.99
640.61	55557.30
640.80	55573.68
640.99	55393.46
641.19	56353.96
641.38	55942.31
641.58	55956.65
641.77	55676.08
641.97	55784.62
642.16	55747.76
642.36	55825.58
642.55	56140.97
642.74	55289.01
642.94	56077.48
643.13	55925.93
643.33	56188.07
643.52	55973.03
643.72	56134.82
643.91	55839.92
644.10	56081.58
644.30	56198.31
644.49	56100.01
644.69	56257.70
644.88	56005.80
645.08	55364.79
645.27	55882.92
645.46	55612.59
645.66	55973.03
645.85	55882.92
646.05	55719.09
646.24	56442.02
646.43	56513.70
646.63	56239.27
646.82	56290.47
647.02	56089.77
647.21	56263.85
647.40	56538.27
647.60	56472.74
647.79	56005.80
647.99	56704.16
648.18	55817.39
648.37	57035.93
648.57	56456.35
648.76	56140.97
648.96	56519.84
649.15	56548.51
649.34	56779.93
649.54	56681.63
649.73	56310.95
649.92	56612.00
650.12	56429.73
650.31	56927.39
650.51	56550.56
650.70	56589.47
650.89	56577.18
651.09	57140.38
651.28	56652.96
651.47	56829.08
651.67	56579.23
651.86	56980.63
652.06	56315.04
652.25	56368.29
652.44	56333.48
652.64	56679.58
652.83	56571.04
653.02	56450.21
653.22	56382.63
653.41	56372.39
653.60	56132.78
653.80	56607.90
653.99	57025.69
654.18	56317.09
654.38	56763.55
654.57	56679.58
654.76	56810.65
654.96	56523.94
655.15	56755.36
655.34	56622.24
655.54	56417.44
655.73	56562.85
655.92	57027.74
656.12	56747.17
656.31	56861.85
656.50	56947.87
656.70	56630.43
656.89	57119.90
657.08	56689.82
657.28	56710.30
657.47	56720.54
657.66	56771.74
657.86	56794.27
658.05	56638.62
658.24	57212.06
658.43	56863.90
658.63	56949.92
658.82	56620.19
659.01	57234.58
659.21	56902.81
659.40	57478.29
659.59	56976.54
659.79	57074.84
659.98	57277.59
660.17	57414.80
660.36	57017.50
660.56	57031.83
660.75	57144.47
660.94	57300.12
661.14	57058.46
661.33	56945.82
661.52	56673.44
661.71	57197.72
661.91	56581.28
662.10	56689.82
662.29	57236.63
662.49	57025.69
662.68	57296.02
662.87	57068.70
663.06	56947.87
663.26	56937.63
663.45	57289.88
663.64	56845.47
663.83	57568.40
664.03	57535.63
664.22	56956.06
664.41	57324.69
664.60	56925.34
664.80	57033.88
664.99	57457.81
665.18	57210.01
665.37	57070.75
665.57	57287.83
665.76	56761.50
665.95	57330.84
666.14	57293.97
666.34	56976.54
666.53	57087.13
666.72	57130.14
666.91	56679.58
667.11	56773.79
667.30	56992.92
667.49	57156.76
667.68	56730.78
667.87	56691.87
668.07	57011.35
668.26	57062.55
668.45	57128.09
668.64	56677.54
668.84	57607.31
669.03	57308.31
669.22	57195.67
669.41	57345.17
669.60	57132.18
669.80	56980.63
669.99	57334.93
670.18	57003.16
670.37	57123.99
670.57	57482.39
670.76	57097.37
670.95	57386.13
671.14	56923.29
671.33	56900.76
671.53	57480.34
671.72	57234.58
671.91	57095.32
672.10	57332.89
672.29	56980.63
672.48	56710.30
672.68	57367.70
672.87	57169.05
673.06	57230.49
673.25	56853.66
673.44	57060.51
673.64	56755.36
673.83	56759.45
674.02	57066.65
674.21	56853.66
674.40	56898.72
674.59	56718.49
674.79	56550.56
674.98	56454.31
675.17	57218.20
675.36	56380.58
675.55	57164.95
675.74	56900.76
675.94	57191.58
676.13	57031.83
676.32	56988.83
676.51	57390.23
676.70	57191.58
676.89	56726.69
677.08	57339.03
677.28	57123.99
677.47	57087.13
677.66	57468.05
677.85	56779.93
678.04	57283.73
678.23	57107.61
678.42	57459.86
678.62	56663.20
678.81	57177.24
679.00	56980.63
679.19	57586.83
679.38	56528.03
679.57	57117.85
679.76	56796.32
679.96	56964.25
680.15	56726.69
680.34	56943.77
680.53	56784.03
680.72	56974.49
680.91	56954.01
681.10	56351.91
681.29	56896.67
681.48	56767.65
681.68	56763.55
681.87	56194.21
682.06	56714.40
682.25	56532.13
682.44	56179.88
682.63	56505.51
682.82	56364.20
683.01	56161.45
683.20	56040.62
683.39	56579.23
683.59	55868.59
683.78	55805.10
683.97	56188.07
684.16	56192.17
684.35	55887.02
684.54	56693.92
684.73	56120.49
684.92	56028.33
685.11	56134.82
685.30	56206.50
685.49	56661.15
685.69	56464.55
685.88	56399.01
686.07	55946.41
686.26	56167.59
686.45	56085.67
686.64	56030.38
686.83	56052.90
687.02	56321.19
687.21	56413.35
687.40	56239.27
687.59	56192.17
687.78	56112.30
687.97	56458.40
688.16	55907.50
688.35	55919.79
688.54	55694.51
688.74	56247.46
688.93	55645.36
689.12	55784.62
689.31	56116.39
689.50	56065.19
689.69	55776.43
689.88	55415.99
690.07	55809.20
690.26	56057.00
690.45	55766.19
690.64	55641.26
690.83	55688.37
691.02	55422.13
691.21	55256.24
691.40	55794.86
691.59	55932.07
691.78	55516.34
691.97	55966.89
692.16	55229.62
692.35	55850.16
692.54	55268.53
692.73	55278.77
692.92	55149.75
693.11	55336.12
693.30	55788.72
693.49	55801.00
693.68	55211.19
693.87	55043.26
694.06	55248.05
694.25	55436.47
694.44	54996.15
694.63	54885.56
694.82	55278.77
695.01	55088.31
695.20	54947.00
695.39	55254.20
695.58	55469.23
695.77	54844.60
695.96	54903.99
696.15	55123.13
696.34	54482.11
696.53	54387.91
696.72	55143.61
696.91	54580.42
697.10	55311.54
697.29	54379.71
697.48	55479.47
697.67	55100.60
697.86	54762.68
698.05	54588.61
698.24	55157.94
698.43	54557.89
698.62	54760.64
698.81	54662.33
699.00	54961.34
699.19	54115.53
699.38	54797.50
699.57	54228.16
699.76	55139.51
699.95	54926.52
700.14	54146.25
700.32	54654.14
700.51	54289.60
700.70	54588.61
700.89	54580.42
701.08	54521.02
701.27	54623.42
701.46	54756.54
701.65	53794.00
701.84	54543.55
702.03	54191.30
702.22	53894.35
702.41	53812.43
702.60	53877.96
702.79	54269.12
702.98	53828.81
703.17	54000.84
703.35	54133.96
703.54	53603.53
703.73	53798.09
703.92	53347.54
704.11	53699.79
704.30	53533.90
704.49	53624.01
704.68	53611.73
704.87	53654.73
705.06	53470.42
705.25	53761.23
705.43	53527.76
705.62	53247.19
705.81	53419.22
706.00	53163.22
706.19	53288.15
706.38	53687.50
706.57	53130.45
706.76	52899.03
706.95	53544.14
707.14	52841.69
707.32	53443.79
707.51	53228.76
707.70	53095.64
707.89	53361.87
708.08	52962.52
708.27	53361.87
708.46	53822.67
708.65	53097.69
708.84	53347.54
709.02	52796.63
709.21	52622.56
709.40	53204.18
709.59	53005.53
709.78	52700.38
709.97	53005.53
710.16	52405.47
710.34	53212.37
710.53	52782.30
710.72	52554.97
710.91	52561.12
711.10	52774.11
711.29	53081.30
711.48	52614.37
711.66	52954.33
711.85	52471.01
712.04	52481.25
712.23	52362.46
712.42	52436.19
712.61	52401.38
712.80	52243.68
712.98	52487.39
713.17	52229.35
713.36	52331.75
713.55	52434.14
713.74	52327.65
713.93	52479.20
714.11	52434.14
714.30	51899.62
714.49	52178.15
714.68	52417.76
714.87	52561.12
715.06	51924.20
715.24	51901.67
715.43	52016.36
715.62	51799.27
715.81	51770.60
716.00	51690.73
716.18	51641.58
716.37	51299.57
716.56	51311.86
716.75	51989.73
716.94	51746.03
717.12	51475.69
717.31	51352.82
717.50	51645.68
717.69	51498.22
717.88	51606.76
718.06	51356.91
718.25	51410.16
718.44	50992.37
718.63	50590.97
718.82	50744.57
719.00	50951.41
719.19	51023.09
719.38	51029.24
719.57	50689.27
719.76	50511.10
719.94	50103.56
720.13	50742.52
720.32	50717.95
720.51	50658.56
720.69	50554.11
720.88	50332.93
721.07	50437.37
721.26	50083.08
721.44	50267.39
721.63	50009.35
721.82	50230.53
722.01	50062.60
722.20	50382.08
722.38	49818.89
722.57	49378.57
722.76	50113.80
722.95	49628.43
723.13	49765.64
723.32	49480.97
723.51	49679.63
723.70	49278.22
723.88	49788.17
724.07	49407.25
724.26	50025.73
724.44	48979.22
724.63	49354.00
724.82	49775.88
725.01	49190.16
725.19	48936.21
725.38	49306.90
725.57	49351.95
725.76	49296.66
725.94	48751.90
726.13	48571.67
726.32	49132.82
726.51	48694.55
726.69	49104.15
726.88	48923.93
727.07	49247.50
727.25	48598.30
727.44	48661.79
727.63	48872.73
727.82	48876.82
728.00	48672.03
728.19	48469.28
728.38	49093.91
728.56	48080.16
728.75	49134.87
728.94	48596.25
729.12	49009.94
729.31	48612.63
729.50	48561.44
729.69	48911.64
729.87	48659.74
730.06	48626.97
730.25	48690.46
730.43	48813.34
730.62	48653.59
730.81	48755.99
730.99	48639.26
731.18	49016.08
731.37	48540.96
731.55	49202.45
731.74	48811.29
731.93	48774.42
732.11	48405.79
732.30	48788.76
732.49	48358.69
732.67	48473.37
732.86	48645.40
733.05	48606.49
733.23	48186.66
733.42	48059.68
733.61	48250.14
733.79	48489.76
733.98	48973.08
734.17	48239.90
734.35	48401.69
734.54	48420.13
734.73	48432.41
734.91	48418.08
735.10	48106.79
735.29	48717.08
735.47	47576.36
735.66	47994.15
735.84	47871.27
736.03	48262.43
736.22	48076.07
736.40	47981.86
736.59	48301.34
736.78	47719.72
736.96	47918.37
737.15	47873.32
737.33	47609.13
737.52	47611.18
737.71	47559.98
737.89	47523.11
738.08	47887.65
738.27	47486.25
738.45	47985.96
738.64	48143.65
738.82	47904.04
739.01	47926.56
739.20	47611.18
739.38	47568.17
739.57	48100.64
739.75	47807.78
739.94	47478.06
740.13	47275.31
740.31	47645.99
740.50	47469.87
740.68	47697.19
740.87	47588.65
741.06	47510.83
741.24	47363.37
741.43	47150.38
741.61	47181.10
741.80	47316.27
741.99	47535.40
742.17	47359.28
742.36	47154.48
742.54	47031.60
742.73	46896.44
742.91	47322.41
743.10	46925.11
743.29	47324.46
743.47	47322.41
743.66	46945.59
743.84	47166.77
744.03	47166.77
744.21	46820.66
744.40	47250.74
744.59	47019.31
744.77	46818.61
744.96	46757.17
745.14	46779.70
745.33	46771.51
745.51	46828.85
745.70	47179.06
745.88	46742.84
746.07	46808.37
746.26	46437.69
746.44	46576.95
746.63	46908.72
746.81	47107.38
747.00	46218.56
747.18	46544.19
747.37	46665.02
747.55	46249.28
747.74	46658.87
747.92	46095.68
748.11	46658.87
748.29	46486.84
748.48	46341.44
748.66	46552.38
748.85	46210.37
749.03	45970.75
749.22	46331.20
749.41	46077.25
749.59	45911.36
749.78	46034.24
749.96	45923.65
750.15	45940.04
750.33	46224.70
750.52	45788.49
750.70	45954.37
750.89	45305.16
751.07	45722.95
751.26	45657.42
751.44	45821.25
751.63	45860.16
751.81	45841.73
752.00	45229.39
752.18	45841.73
752.37	45483.34
752.55	45399.37
752.74	45198.67
752.92	45352.27
753.10	44963.15
753.29	45208.91
753.47	45161.81
753.66	44641.62
753.84	45040.98
754.03	45163.85
754.21	44848.47
754.40	45208.91
754.58	45112.66
754.77	44844.37
754.95	44856.66
755.14	44676.44
755.32	45059.41
755.51	44610.90
755.69	44574.04
755.88	44496.22
756.06	44772.69
756.24	44637.53
756.43	44408.15
756.61	44524.89
756.80	44565.85
756.98	44676.44
757.17	44545.37
757.35	44725.59
757.54	44326.24
757.72	44445.02
757.90	44463.45
758.09	44395.87
758.27	44371.29
758.46	43980.13
758.64	44021.09
758.83	44477.79
759.01	44156.25
759.19	44287.32
759.38	44137.82
759.56	44643.67
759.75	44279.13
759.93	44115.29
760.12	44055.90
760.30	44127.58
760.48	43918.69
760.67	44133.73
760.85	44062.05
761.04	44084.58
761.22	43892.07
761.40	43654.50
761.59	43697.51
761.77	43343.21
761.96	43754.85
762.14	43672.93
762.32	43443.56
762.51	43230.57
762.69	43380.07
762.88	43756.90
763.06	43857.25
763.24	43484.52
763.43	43943.27
763.61	43175.28
763.80	43277.68
763.98	42947.95
764.16	43007.34
764.35	43111.79
764.53	42665.33
764.72	43210.09
764.90	43001.20
765.08	43130.22
765.27	43023.73
765.45	42741.11
765.63	42610.04
765.82	42726.77
766.00	42395.00
766.18	42827.12
766.37	43009.39
766.55	42372.47
766.74	42831.22
766.92	42603.89
767.10	42587.51
767.29	42155.39
767.47	42272.12
767.65	42405.24
767.84	42405.24
768.02	42407.29
768.20	42411.38
768.39	42302.84
768.57	41987.46
768.75	42112.38
768.94	42534.26
769.12	42206.59
769.30	41876.86
769.49	41911.68
769.67	42032.51
769.85	41602.44
770.04	41856.39
770.22	41446.79
770.40	41336.20
770.59	41598.34
770.77	41463.18
770.95	41586.05
771.14	41317.77
771.32	41198.99
771.50	40975.76
771.69	41065.87
771.87	41405.83
772.05	41229.71
772.24	40402.33
772.42	41041.29
772.60	40986.00
772.78	40842.64
772.97	40928.66
773.15	41506.18
773.33	40621.46
773.52	40879.50
773.70	41303.43
773.88	41153.93
774.07	40637.84
774.25	40957.33
774.43	41131.40
774.61	40961.42
774.80	41160.08
774.98	40850.83
775.16	41485.70
775.34	41123.21
775.53	40756.63
775.71	40945.04
775.89	41266.57
776.08	40883.60
776.26	41080.21
776.44	41067.92
776.62	40990.09
776.81	41104.78
776.99	41401.74
777.17	41190.80
777.35	40912.27
777.54	41254.28
777.72	41227.66
777.90	41059.73
778.08	41430.41
778.27	41176.46
778.45	41481.61
778.63	41612.68
778.81	40926.61
779.00	41708.93
779.18	41495.94
779.36	41739.65
779.54	41321.87
779.73	41426.31
779.91	41493.89
780.09	41272.71
780.27	41743.75
780.46	41618.82
780.64	41928.06
780.82	41489.80
781.00	41158.03
781.19	42016.13
781.37	42018.17
781.55	41794.95
781.73	42446.20
781.91	41786.75
782.10	41966.98
782.28	41872.77
782.46	42247.55
782.64	42069.37
782.82	41772.42
783.01	41670.02
783.19	42216.83
783.37	41811.33
783.55	41866.63
783.74	42397.05
783.92	41780.61
784.10	42573.17
784.28	42126.72
784.46	41850.24
784.64	41866.63
784.83	42184.06
785.01	42218.88
785.19	42390.91
785.37	41975.17
785.55	42358.14
785.74	41645.44
785.92	42048.89
786.10	42157.44
786.28	42141.05
786.46	41719.17
786.64	41483.66
786.83	41860.48
787.01	41811.33
787.19	41655.68
787.37	42001.79
787.55	41887.10
787.74	41272.71
787.92	41727.36
788.10	41303.43
788.28	41387.40
788.46	41457.03
788.64	41385.35
788.82	41368.97
789.01	41651.59
789.19	41387.40
789.37	41069.97
789.55	41170.32
789.73	40740.24
789.91	41145.74
790.09	40787.35
790.28	40697.24
790.46	40203.67
790.64	40975.76
790.82	40734.10
791.00	40725.91
791.18	40433.05
791.36	40631.70
791.55	40850.83
791.73	40234.39
791.91	39986.59
792.09	40138.14
792.27	40132.00
792.45	40365.46
792.63	40017.31
792.81	39742.88
793.00	39755.17
793.18	40033.69
793.36	39718.31
793.54	39757.22
793.72	40019.36
793.90	39511.46
794.08	39357.86
794.26	39521.70
794.44	39011.76
794.62	39105.96
794.81	39212.46
794.99	39357.86
795.17	38970.80
795.35	39050.67
795.53	39017.90
795.71	39253.42
795.89	38569.40
796.07	38344.12
796.25	38606.26
796.43	38370.74
796.61	38436.28
796.80	38170.04
796.98	38086.07
797.16	37998.01
797.34	38118.84
797.52	37742.02
797.70	38182.33
797.88	37799.36
798.06	37604.80
798.24	37686.72
798.42	37703.10
798.60	37647.81
798.78	37635.52
798.96	37866.94
799.14	37060.04
799.32	37420.48
799.51	37121.48
799.69	37373.38
799.87	37201.35
800.05	37072.33
800.23	36783.57
800.41	36986.32
800.59	36740.56
800.77	36398.55
800.95	36509.14
801.13	36566.48
801.31	36058.59
801.49	36357.59
801.67	36269.53
801.85	36333.01
802.03	35988.95
802.21	35804.64
802.39	36103.64
802.57	35853.79
802.75	35753.44
802.93	35821.02
803.11	35337.70
803.29	35775.97
803.47	35364.32
803.65	35446.24
803.83	35528.16
804.01	35012.07
804.19	35077.61
804.37	34911.72
804.55	35137.00
804.73	35161.58
804.91	35208.68
805.09	35042.79
805.27	35038.70
805.45	34758.13
805.63	34913.77
805.81	35012.07
805.99	34711.02
806.17	34801.13
806.35	34536.94
806.53	33873.40
806.71	34397.68
806.89	33922.55
807.07	34291.19
807.25	34207.22
807.43	34110.97
807.61	34246.13
807.79	34317.81
807.97	33416.71
808.15	33648.13
808.33	33687.04
808.51	33420.80
808.69	33408.51
808.87	33404.42
809.05	33248.77
809.23	33396.23
809.41	32982.54
809.59	32976.39
809.77	33338.88
809.95	33136.13
810.13	33238.53
810.31	32966.15
810.49	32923.15
810.67	33107.46
810.84	32925.19
811.02	32931.34
811.20	32747.02
811.38	32673.29
811.56	32275.99
811.74	32581.13
811.92	32208.40
812.10	32640.53
812.28	32761.36
812.46	32292.37
812.64	32747.02
812.82	31878.68
813.00	32128.53
813.18	32042.52
813.36	31788.57
813.53	31768.09
813.71	32095.77
813.89	31729.18
814.07	31741.47
814.25	31835.67
814.43	31847.96
814.61	31548.96
814.79	31620.64
814.97	31440.42
815.15	31546.91
815.33	30983.72
815.50	30971.43
815.68	31342.11
815.86	31006.25
816.04	31075.88
816.22	30985.77
816.40	31139.36
816.58	31147.56
816.76	31030.82
816.94	31067.69
817.11	30840.36
817.29	30983.72
817.47	30836.27
817.65	30533.17
817.83	30621.23
818.01	30445.10
818.19	30518.83
818.37	30416.43
818.54	30330.42
818.72	30404.14
818.90	30311.99
819.08	30070.33
819.26	30301.75
819.44	30230.07
819.62	30099.00
819.80	30111.28
819.97	30119.48
820.15	29947.45
820.33	30035.51
820.51	29746.75
820.69	29535.81
820.87	29896.25
821.05	30092.85
821.22	29658.68
821.40	29558.33
821.58	29478.46
821.76	29308.48
821.94	29359.68
822.12	29711.93
822.29	29380.16
822.47	29013.57
822.65	29470.27
822.83	29296.19
823.01	29396.54
823.19	29054.53
823.36	29130.31
823.54	28902.98
823.72	28915.27
823.90	29048.39
824.08	28978.76
824.25	28857.93
824.43	28653.13
824.61	28718.67
824.79	28978.76
824.97	28622.41
825.15	28706.38
825.32	28794.44
825.50	28415.57
825.68	28509.77
825.86	28720.71
826.04	28653.13
826.21	28444.24
826.39	28419.66
826.57	28333.65
826.75	28290.64
826.93	27971.16
827.10	28288.59
827.28	28335.70
827.46	28167.76
827.64	28294.74
827.81	27919.96
827.99	28194.39
828.17	27864.66
828.35	27788.89
828.53	27760.22
828.70	27786.84
828.88	27668.06
829.06	28014.16
829.24	27868.76
829.41	27668.06
829.59	27782.74
829.77	27715.16
829.95	27827.80
830.12	27264.61
830.30	27661.91
830.48	27659.87
830.66	27694.68
830.84	27430.49
831.01	27487.84
831.19	27530.84
831.37	27416.16
831.55	27395.68
831.72	27321.95
831.90	27242.08
832.08	27227.74
832.25	26895.97
832.43	27244.13
832.61	27151.97
832.79	27125.35
832.96	27008.61
833.14	27070.05
833.32	27082.34
833.50	27043.43
833.67	26930.79
833.85	27012.71
834.03	26527.34
834.20	26639.98
834.38	27194.98
834.56	26842.73
834.74	26486.38
834.91	26674.79
835.09	26449.52
835.27	26254.96
835.44	26261.10
835.62	26300.01
835.80	26283.63
835.98	26236.53
836.15	26152.56
836.33	26003.06
836.51	26300.01
836.68	26269.30
836.86	26179.18
837.04	26324.59
837.21	26087.03
837.39	26363.50
837.57	26001.01
837.75	26125.94
837.92	25970.29
838.10	26054.26
838.28	25886.32
838.45	25982.58
838.63	25702.01
838.81	25988.72
838.98	25742.97
839.16	25661.05
839.34	25642.62
839.51	25519.74
839.69	25417.34
839.87	25638.52
840.04	25517.69
840.22	25714.30
840.40	25308.80
840.57	25337.47
840.75	25577.08
840.93	25216.64
841.10	25149.06
841.28	25835.13
841.46	25333.37
841.63	25257.60
841.81	25298.56
841.98	25050.75
842.16	25276.03
842.34	25204.35
842.51	25009.79
842.69	25132.67
842.87	25276.03
843.04	24979.07
843.22	24860.29
843.40	24716.93
843.57	24704.65
843.75	24649.35
843.92	24796.81
844.10	24737.41
844.28	24921.73
844.45	25130.62
844.63	24688.26
844.81	24786.57
844.98	24852.10
845.16	24370.83
845.33	24714.89
845.51	24471.18
845.69	24448.65
845.86	24360.59
846.04	24530.57
846.21	24368.78
846.39	24434.32
846.57	24192.65
846.74	24462.99
846.92	24381.07
847.09	24280.72
847.27	24104.59
847.45	24004.24
847.62	24133.26
847.80	24250.00
847.97	24075.92
848.15	23979.67
848.32	24045.20
848.50	24219.28
848.68	23850.64
848.85	23875.22
849.03	23731.86
849.20	23916.18
849.38	23713.43
849.56	23756.44
849.73	23563.93
849.91	23785.11
850.08	23809.68
850.26	23537.30
850.43	23576.22
850.61	23719.57
850.78	23471.77
850.96	23398.04
851.14	22937.25
851.31	23514.78
851.49	23324.32
851.66	23539.35
851.84	23344.80
852.01	23357.08
852.19	23410.33
852.36	23297.69
852.54	23350.94
852.71	23205.53
852.89	23615.13
853.07	23127.71
853.24	23185.05
853.42	23199.39
853.59	23299.74
853.77	23449.24
853.94	23094.94
854.12	23324.32
854.29	22945.44
854.47	23262.88
854.64	23033.50
854.82	22974.11
854.99	22904.48
855.17	22865.57
855.34	22734.50
855.52	22867.62
855.69	22875.81
855.87	22699.69
856.04	22460.07
856.22	22521.51
856.39	22480.55
856.57	22605.48
856.74	22181.55
856.92	22619.81
857.09	22118.06
857.27	22607.53
857.44	22343.34
857.62	22531.75
857.79	22247.08
857.97	22488.74
858.14	22331.05
858.32	22357.67
858.49	22412.97
858.67	22093.49
858.84	22324.91
859.02	22195.89
859.19	21982.90
859.37	22011.57
859.54	22187.69
859.72	22019.76
859.89	21972.66
860.06	22075.06
860.24	22079.15
860.41	22120.11
860.59	21774.00
860.76	21915.31
860.94	21835.44
861.11	22019.76
861.29	21849.78
861.46	21804.72
861.64	21384.89
861.81	21831.35
861.98	21497.53
862.16	21464.76
862.33	21495.48
862.51	21458.62
862.68	21743.28
862.86	21345.98
863.03	21558.97
863.21	21403.32
863.38	21403.32
863.55	21460.66
863.73	21403.32
863.90	21290.68
864.08	21329.59
864.25	21059.26
864.43	21388.99
864.60	21214.91
864.77	21153.47
864.95	21100.22
865.12	20971.20
865.30	21053.12
865.47	21042.88
865.64	20969.15
865.82	21176.00
865.99	20993.73
866.17	20983.49
866.34	20881.09
866.51	20795.07
866.69	21028.54
866.86	20975.30
867.04	20803.27
867.21	20559.56
867.38	20592.33
867.56	20461.26
867.73	20825.79
867.91	20354.76
868.08	20405.96
868.25	20344.52
868.43	20399.82
868.60	20262.60
868.78	20195.02
868.95	20459.21
869.12	20393.67
869.30	20143.82
869.47	20360.91
869.64	20158.16
869.82	20268.75
869.99	20014.80
870.16	20346.57
870.34	20053.71
870.51	20215.50
870.69	19666.64
870.86	20195.02
871.03	19994.32
871.21	20010.70
871.38	19906.26
871.55	19717.84
871.73	19713.75
871.90	19730.13
872.07	19556.05
872.25	19762.90
872.42	19459.80
872.59	19834.58
872.77	19341.02
872.94	19582.68
873.11	19519.19
873.29	19617.49
873.46	19328.73
873.63	19558.10
873.81	19592.92
873.98	19345.11
874.15	19125.98
874.33	19058.40
874.50	19009.25
874.67	19173.08
874.85	19042.01
875.02	19005.15
875.19	18822.88
875.37	19080.92
875.54	18810.59
875.71	18876.13
875.88	18759.39
876.06	18689.76
876.23	18949.85
876.40	18912.99
876.58	18263.79
876.75	18761.44
876.92	18912.99
877.10	18753.25
877.27	18822.88
877.44	18470.63
877.61	18136.81
877.79	18409.19
877.96	18304.74
878.13	18284.26
878.31	17893.10
878.48	18214.63
878.65	17809.14
878.82	18173.67
879.00	18267.88
879.17	18220.78
879.34	18011.89
879.51	17929.97
879.69	17839.86
879.86	17934.06
880.03	18030.32
880.21	17651.44
880.38	17915.63
880.55	17866.48
880.72	17733.36
880.90	18001.65
881.07	17682.16
881.24	17708.79
881.41	17723.12
881.59	17909.49
881.76	17745.65
881.93	17637.11
882.10	17581.81
882.28	17628.92
882.45	17272.57
882.62	17549.04
882.79	17495.80
882.96	17325.82
883.14	17336.06
883.31	17579.76
883.48	17215.23
883.65	17385.21
883.83	17250.04
884.00	17211.13
884.17	17323.77
884.34	17340.15
884.51	17143.55
884.69	16998.14
884.86	17288.95
885.03	17123.07
885.20	16797.44
885.38	17004.28
885.55	17037.05
885.72	17170.17
885.89	16762.62
886.06	17125.11
886.24	16965.37
886.41	16987.90
886.58	16867.07
886.75	17143.55
886.92	16905.98
887.10	16670.47
887.27	16721.66
887.44	16731.90
887.61	16742.14
887.78	16674.56
887.95	16994.04
888.13	16783.10
888.30	16883.45
888.47	16637.70
888.64	16643.84
888.81	16740.10
888.99	16467.72
889.16	16400.13
889.33	16326.41
889.50	16277.26
889.67	16363.27
889.84	16414.47
890.01	16299.78
890.19	16353.03
890.36	16158.47
890.53	16426.76
890.70	16154.38
890.87	16461.57
891.04	16092.94
891.22	16152.33
891.39	15996.68
891.56	16193.29
891.73	16066.31
891.90	15912.72
892.07	15939.34
892.24	15822.61
892.42	15673.10
892.59	15863.57
892.76	15556.37
892.93	15814.41
893.10	15824.65
893.27	15953.68
893.44	15757.07
893.61	15804.17
893.79	16045.84
893.96	15777.55
894.13	15564.56
894.30	15572.75
894.47	15828.75
894.64	15654.67
894.81	15744.78
894.98	15669.01
895.15	15824.65
895.33	15691.54
895.50	15757.07
895.67	15460.12
895.84	15746.83
896.01	15617.81
896.18	15503.12
896.35	15875.85
896.52	15472.40
896.69	15654.67
896.86	15709.97
897.04	15615.76
897.21	15523.60
897.38	15378.20
897.55	15679.25
897.72	15605.52
897.89	15482.64
898.06	15537.94
898.23	15509.27
898.40	15529.75
898.57	15392.53
898.74	15701.78
898.91	15402.77
899.08	15404.82
899.26	15415.06
899.43	15425.30
899.60	15451.92
899.77	15191.83
899.94	15265.56
900.11	15114.01
900.28	15445.78
900.45	15263.51
900.62	15222.55
900.79	15488.79
900.96	15462.16
901.13	15482.64
901.30	15240.98
901.47	15238.94
901.64	15357.72
901.81	15406.87
901.98	15331.09
902.15	15384.34
902.32	15462.16
902.49	15327.00
902.66	15071.00
902.83	15431.44
903.01	15347.48
903.18	15456.02
903.35	15480.60
903.52	15343.38
903.69	15499.03
903.86	15363.86
904.03	15238.94
904.20	15404.82
904.37	15617.81
904.54	15417.11
904.71	15228.70
904.88	15329.05
905.05	15255.32
905.22	15353.62
905.39	15277.85
905.56	15283.99
905.73	15187.74
905.90	15214.36
906.07	15171.35
906.24	15351.57
906.41	15124.25
906.58	15263.51
906.75	15167.26
906.92	15210.26
907.09	15064.86
907.26	15427.35
907.43	14929.69
907.60	15216.41
907.77	15417.11
907.93	15327.00
908.10	15292.18
908.27	15200.02
908.44	15048.47
908.61	14864.16
908.78	15048.47
908.95	15144.73
909.12	14898.97
909.29	14968.60
909.46	15089.43
909.63	15081.24
909.80	15114.01
909.97	15308.57
910.14	15130.39
910.31	15062.81
910.48	15146.78
910.65	15191.83
910.82	14923.55
910.99	14937.88
911.16	14997.28
911.33	15204.12
911.50	14819.10
911.66	14995.23
911.83	14735.14
912.00	14860.06
912.17	14661.41
912.34	14815.01
912.51	14614.30
912.68	14649.12
912.85	14780.19
913.02	14815.01
913.19	14432.04
913.36	14671.65
913.53	14667.55
913.70	14358.31
913.86	14837.53
914.03	14751.52
914.20	14391.08
914.37	14339.88
914.54	14229.29
914.71	14516.00
914.88	14421.80
915.05	14511.91
915.22	14397.22
915.39	14094.12
915.55	14319.40
915.72	14133.03
915.89	14102.31
916.06	14124.84
916.23	14061.35
916.40	14100.26
916.57	13997.87
916.74	13862.70
916.91	14059.31
917.07	13961.00
917.24	13655.86
917.41	14067.50
917.58	13844.27
917.75	13854.51
917.92	13610.80
918.09	13850.41
918.26	13631.28
918.42	13696.82
918.59	13852.46
918.76	13571.89
918.93	13250.36
919.10	13430.58
919.27	13514.55
919.44	13408.05
919.60	13412.15
919.77	13578.03
919.94	13266.74
920.11	13348.66
920.28	13209.40
920.45	12869.44
920.61	13139.77
920.78	12988.22
920.95	12982.07
921.12	13193.01
921.29	12965.69
921.46	12861.24
921.62	12918.59
921.79	12885.82
921.96	12699.45
922.13	12848.96
922.30	12603.20
922.47	12953.40
922.63	12541.76
922.80	12621.63
922.97	12468.03
923.14	12410.69
923.31	12488.51
923.47	12291.91
923.64	12613.44
923.81	12246.85
923.98	12433.22
924.15	12289.86
924.32	12171.08
924.48	12314.44
924.65	12111.69
924.82	12126.02
924.99	12128.07
925.15	11814.73
925.32	11984.71
925.49	11865.93
925.66	11798.35
925.83	11919.18
925.99	11616.08
926.16	11818.83
926.33	11640.65
926.50	11577.17
926.67	11788.11
926.83	11421.52
927.00	11380.56
927.17	11269.97
927.34	11304.79
927.50	11155.29
927.67	11347.79
927.84	11192.15
928.01	11159.38
928.17	11065.18
928.34	11095.89
928.51	11159.38
928.68	11108.18
928.84	10899.29
929.01	10993.50
929.18	10624.86
929.35	10997.59
929.51	10610.53
929.68	10604.38
929.85	10782.56
930.02	10776.41
930.18	10682.20
930.35	10514.27
930.52	10471.26
930.69	10424.16
930.85	10383.20
931.02	10147.69
931.19	10266.47
931.36	10338.15
931.52	10366.82
931.69	10061.67
931.86	10180.45
932.02	10076.01
932.19	10119.01
932.36	10174.31
932.53	9969.51
932.69	9883.50
932.86	9983.85
933.03	9936.74
933.19	9543.53
933.36	9789.29
933.53	9793.39
933.70	9557.87
933.86	9682.80
934.03	9559.92
934.20	9430.90
934.36	9539.44
934.53	9400.18
934.70	9271.15
934.86	9301.87
935.03	8882.04
935.20	8949.62
935.36	8822.65
935.53	8877.94
935.70	8812.41
935.86	8972.15
936.03	8517.50
936.20	8859.51
936.36	8777.59
936.53	8580.99
936.70	8568.70
936.86	8431.49
937.03	8497.02
937.20	8144.77
937.36	8259.46
937.53	7950.21
937.70	8023.94
937.86	7901.06
938.03	8036.23
938.20	8081.28
938.36	7606.16
938.53	7653.26
938.70	7518.09
938.86	7403.41
939.03	7344.02
939.20	7243.67
939.36	7194.51
939.53	7321.49
939.70	7301.01
939.86	6965.14
940.03	6860.70
940.19	6698.91
940.36	6875.03
940.53	6686.62
940.69	6733.72
940.86	6631.32
941.03	6528.92
941.19	6473.63
941.36	6461.34
941.52	6289.31
941.69	6358.94
941.86	6213.54
942.02	6250.40
942.19	6240.16
942.35	6229.92
942.52	6023.08
942.69	5967.78
942.85	5973.92
943.02	5810.09
943.18	5912.49
943.35	5746.60
943.52	5752.74
943.68	5621.67
943.85	5629.87
944.01	5525.42
944.18	5550.00
944.35	5531.56
944.51	5582.76
944.68	5556.14
944.84	5375.92
945.01	5535.66
945.17	5609.39
945.34	5480.36
945.51	5476.27
945.67	5509.04
945.84	5353.39
946.00	5349.29
946.17	5363.63
946.33	5300.14
946.50	5451.69
946.67	5234.61
946.83	5443.50
947.00	5345.20
947.16	5277.62
947.33	5353.39
947.49	5302.19
947.66	5189.55
947.82	5330.86
947.99	5250.99
948.16	5298.10
948.32	5173.17
948.49	5279.66
948.65	5230.51
948.82	5253.04
948.98	5195.70
949.15	5343.15
949.31	5443.50
949.48	5244.85
949.64	5148.59
949.81	5164.98
949.97	5310.38
950.14	5226.42
950.30	5271.47
950.47	5355.44
950.63	5185.46
950.80	5343.15
950.96	5330.86
951.13	5152.69
951.30	5332.91
951.46	5476.27
951.63	5459.88
951.79	5384.11
951.96	5400.49
952.12	5377.97
952.29	5353.39
952.45	5316.53
952.62	5328.81
952.78	5420.97
952.94	5298.10
953.11	5365.68
953.27	5253.04
953.44	5453.74
953.60	5384.11
953.77	5330.86
953.93	5394.35
954.10	5181.36
954.26	5427.12
954.43	5394.35
954.59	5416.88
954.76	5593.00
954.92	5466.03
955.09	5476.27
955.25	5343.15
955.42	5269.42
955.58	5420.97
955.75	5384.11
955.91	5474.22
956.07	5312.43
956.24	5296.05
956.40	5494.70
956.57	5476.27
956.73	5300.14
956.90	5459.88
957.06	5484.46
957.23	5476.27
957.39	5375.92
957.56	5511.08
957.72	5410.73
957.88	5433.26
958.05	5597.10
958.21	5595.05
958.38	5564.33
958.54	5439.40
958.71	5578.67
958.87	5498.80
959.03	5457.84
959.20	5423.02
959.36	5392.30
959.53	5498.80
959.69	5386.16
959.85	5451.69
960.02	5382.06
960.18	5406.64
960.35	5363.63
960.51	5302.19
960.68	5388.21
960.84	5408.69
961.00	5537.71
961.17	5506.99
961.33	5367.73
961.50	5394.35
961.66	5431.21
961.82	5439.40
961.99	5480.36
962.15	5457.84
962.31	5408.69
962.48	5326.77
962.64	5353.39
962.81	5498.80
962.97	5439.40
963.13	5416.88
963.30	5392.30
963.46	5332.91
963.62	5314.48
963.79	5177.26
963.95	5367.73
964.12	5404.59
964.28	5414.83
964.44	5238.70
964.61	5255.09
964.77	5363.63
964.93	5390.25
965.10	5339.05
965.26	5277.62
965.42	5250.99
965.59	5267.38
965.75	5183.41
965.92	5390.25
966.08	5240.75
966.24	5330.86
966.41	5287.86
966.57	5533.61
966.73	5183.41
966.90	5312.43
967.06	5300.14
967.22	5185.46
967.39	5242.80
967.55	5191.60
967.71	5195.70
967.88	5205.94
968.04	5060.53
968.20	5171.12
968.37	4972.47
968.53	5124.02
968.69	5269.42
968.85	5150.64
969.02	5087.15
969.18	5156.79
969.34	4988.85
969.51	5238.70
969.67	5142.45
969.83	4964.28
970.00	5140.40
970.16	5031.86
970.32	5171.12
970.48	5230.51
970.65	5013.43
970.81	5046.20
970.97	5193.65
971.14	4947.89
971.30	5031.86
971.46	5070.77
971.63	5068.72
971.79	5005.24
971.95	5003.19
972.11	4880.31
972.28	5103.54
972.44	4904.89
972.60	4853.69
972.76	4984.76
972.93	4859.83
973.09	5017.52
973.25	4874.17
973.42	4908.98
973.58	4874.17
973.74	4929.46
973.90	4968.37
974.07	4773.82
974.23	4921.27
974.39	4853.69
974.55	4804.53
974.72	4870.07
974.88	4698.04
975.04	4939.70
975.20	4698.04
975.37	4663.22
975.53	4802.49
975.69	4833.21
975.85	4730.81
976.01	4771.77
976.18	4710.33
976.34	4767.67
976.50	4609.98
976.66	4763.58
976.83	4702.14
976.99	4689.85
977.15	4739.00
977.31	4458.43
977.47	4562.87
977.64	4511.68
977.80	4589.50
977.96	4507.58
978.12	4575.16
978.29	4538.30
978.45	4433.85
978.61	4472.76
978.77	4671.42
978.93	4530.11
979.10	4548.54
979.26	4478.91
979.42	4630.46
979.58	4310.97
979.74	4435.90
979.91	4540.35
980.07	4433.85
980.23	4523.96
980.39	4427.71
980.55	4425.66
980.71	4507.58
980.88	4415.42
981.04	4427.71
981.20	4272.06
981.36	4368.32
981.52	4388.80
981.68	4245.44
981.85	4507.58
982.01	4435.90
982.17	4321.21
982.33	4200.38
982.49	4272.06
982.65	4353.98
982.82	4274.11
982.98	4427.71
983.14	4310.97
983.30	4382.65
983.46	4384.70
983.62	4280.25
983.79	4173.76
983.95	4161.47
984.11	4165.57
984.27	4192.19
984.43	4337.60
984.59	4048.83
984.75	4165.57
984.91	4132.80
985.08	4198.34
985.24	4175.81
985.40	4061.12
985.56	4087.75
985.72	4167.62
985.88	4237.25
986.04	4110.27
986.20	4018.11
986.37	4032.45
986.53	4009.92
986.69	4040.64
986.85	3891.14
987.01	3930.05
987.17	4079.55
987.33	3887.04
987.49	3975.11
987.65	3934.15
987.82	3960.77
987.98	3909.57
988.14	3903.43
988.30	3948.48
988.46	3835.85
988.62	3983.30
988.78	3909.57
988.94	3921.86
989.10	3811.27
989.26	3940.29
989.42	3803.08
989.59	3846.09
989.75	3827.65
989.91	3923.91
990.07	3657.67
990.23	3899.33
990.39	3776.45
990.55	3841.99
990.71	3710.92
990.87	3839.94
991.03	3821.51
991.19	3682.25
991.35	3729.35
991.51	3739.59
991.67	3866.56
991.83	3751.88
992.00	3747.78
992.16	3743.69
992.32	3778.50
992.48	3706.82
992.64	3629.00
992.80	3655.62
992.96	3741.64
993.12	3721.16
993.28	3733.45
993.44	3723.21
993.60	3696.58
993.76	3702.73
993.92	3721.16
994.08	3641.29
994.24	3643.34
994.40	3463.12
994.56	3690.44
994.72	3530.70
994.88	3508.17
995.04	3520.46
995.20	3567.56
995.36	3483.59
995.52	3559.37
995.68	3522.51
995.84	3471.31
996.00	3565.51
996.16	3364.81
996.32	3481.55
996.48	3440.59
996.64	3549.13
996.80	3413.96
996.96	3440.59
997.12	3342.28
997.28	3348.43
997.44	3295.18
997.60	3399.63
997.76	3313.61
997.92	3426.25
998.08	3473.36
998.24	3317.71
998.40	3370.96
998.56	3467.21
998.72	3399.63
998.88	3311.57
999.04	3252.17
999.20	3336.14
999.36	3266.51
999.52	3360.72
999.68	3399.63
999.84	3256.27
1000.00	3340.24
1000.16	3305.42
1000.32	3250.13
1000.48	3395.53
1000.64	3145.68
1000.80	3157.97
1000.95	3041.23
1001.11	3196.88
1001.27	3129.30
1001.43	3188.69
1001.59	3047.38
1001.75	3231.69
1001.91	3205.07
1002.07	3149.78
1002.23	3129.30
1002.39	3121.10
1002.55	3098.58
1002.71	3112.91
1002.87	3153.87
1003.03	3071.95
1003.19	3026.90
1003.34	3063.76
1003.50	3051.47
1003.66	3147.73
1003.82	3084.24
1003.98	3067.86
1004.14	3022.80
1004.30	3022.80
1004.46	3049.43
1004.62	3057.62
1004.78	3043.28
1004.94	3063.76
1005.09	3026.90
1005.25	2985.94
1005.41	2977.75
1005.57	2969.55
1005.73	3018.71
1005.89	2977.75
1006.05	2916.31
1006.21	3018.71
1006.37	2858.96
1006.52	2912.21
1006.68	2926.55
1006.84	3084.24
1007.00	2942.93
1007.16	2985.94
1007.32	2955.22
1007.48	2883.54
1007.64	2930.64
1007.79	2846.68
1007.95	2854.87
1008.11	2936.79
1008.27	2877.40
1008.43	2805.72
1008.59	2799.57
1008.75	2944.98
1008.91	2887.64
1009.06	2772.95
1009.22	2818.00
1009.38	2914.26
1009.54	2936.79
1009.70	2770.90
1009.86	2799.57
1010.01	2826.20
1010.17	2834.39
1010.33	2832.34
1010.49	2840.53
1010.65	2799.57
1010.81	2717.65
1010.96	2764.76
1011.12	2705.37
1011.28	2729.94
1011.44	2764.76
1011.60	2719.70
1011.76	2725.85
1011.91	2766.81
1012.07	2600.92
1012.23	2576.34
1012.39	2623.45
1012.55	2707.41
1012.71	2596.82
1012.86	2559.96
1013.02	2676.70
1013.18	2590.68
1013.34	2668.50
1013.50	2645.98
1013.65	2744.28
1013.81	2652.12
1013.97	2588.63
1014.13	2625.50
1014.29	2564.06
1014.44	2635.74
1014.60	2582.49
1014.76	2584.54
1014.92	2500.57
1015.07	2555.86
1015.23	2590.68
1015.39	2492.38
1015.55	2510.81
1015.71	2562.01
1015.86	2478.04
1016.02	2549.72
1016.18	2492.38
1016.34	2482.14
1016.49	2531.29
1016.65	2629.59
1016.81	2498.52
1016.97	2430.94
1017.12	2531.29
1017.28	2578.39
1017.44	2371.55
1017.60	2543.58
1017.75	2504.67
1017.91	2488.28
1018.07	2336.73
1018.23	2535.39
1018.38	2465.75
1018.54	2508.76
1018.70	2432.99
1018.86	2416.60
1019.01	2320.35
1019.17	2445.27
1019.33	2467.80
1019.49	2416.60
1019.64	2426.84
1019.80	2473.95
1019.96	2463.71
1020.12	2461.66
1020.27	2299.87
1020.43	2320.35
1020.59	2365.40
1020.74	2357.21
1020.90	2349.02
1021.06	2361.31
1021.22	2303.96
1021.37	2424.80
1021.53	2355.16
1021.69	2338.78
1021.84	2281.44
1022.00	2338.78
1022.16	2324.44
1022.31	2265.05
1022.47	2340.83
1022.63	2322.40
1022.79	2193.37
1022.94	2265.05
1023.10	2400.22
1023.26	2314.20
1023.41	2314.20
1023.57	2201.57
1023.73	2308.06
1023.88	2312.16
1024.04	2211.81
1024.20	2232.29
1024.35	2228.19
1024.51	2236.38
1024.67	2183.13
1024.82	2316.25
1024.98	2158.56
1025.14	2324.44
1025.29	2199.52
1025.45	2281.44
1025.61	2166.75
1025.76	2320.35
1025.92	2181.09
1026.08	2236.38
1026.23	2226.14
1026.39	2299.87
1026.55	2217.95
1026.70	2156.51
1026.86	2197.47
1027.02	2310.11
1027.17	2211.81
1027.33	2183.13
1027.48	2133.98
1027.64	2148.32
1027.80	2107.36
1027.95	2250.72
1028.11	2054.11
1028.27	2199.52
1028.42	2224.09
1028.58	2119.65
1028.73	2113.50
1028.89	1978.34
1029.05	2197.47
1029.20	2170.85
>>>>>End Processed Spectral Data<<<<<
