SpectraSuite Data File
++++++++++++++++++++++++++++++++++++
Date: Fri Jun 02 14:53:30 CEST 2017
User: INFO_000
Dark Spectrum Present: No
Reference Spectrum Present: No
Number of Sampled Component Spectra: 1
Spectrometers: USB4H00879
Integration Time (usec): 80000 (USB4H00879)
Spectra Averaged: 1 (USB4H00879)
Boxcar Smoothing: 0 (USB4H00879)
Correct for Electrical Dark: No (USB4H00879)
Strobe/Lamp Enabled: No (USB4H00879)
Correct for Detector Non-linearity: No (USB4H00879)
Correct for Stray Light: No (USB4H00879)
Number of Pixels in Processed Spectrum: 3648
>>>>>Begin Processed Spectral Data<<<<<
345.13	1271.79
345.34	1271.79
345.56	1271.79
345.78	1312.75
345.99	1308.65
346.21	1685.48
346.42	1685.48
346.64	1601.51
346.86	1818.60
347.07	1607.66
347.29	1689.57
347.50	1552.36
347.72	1609.70
347.94	1781.73
348.15	1605.61
348.37	1669.09
348.59	1701.86
348.80	1644.52
349.02	1738.73
349.23	1882.08
349.45	1861.60
349.67	1943.52
349.88	1814.50
350.10	2037.73
350.31	1822.69
350.53	1818.60
350.75	2045.92
350.96	1755.11
351.18	1912.80
351.39	1941.47
351.61	1763.30
351.82	1951.71
352.04	1910.75
352.26	1902.56
352.47	1953.76
352.69	1949.67
352.90	1826.79
353.12	1804.26
353.34	1863.65
353.55	1937.38
353.77	1867.75
353.98	1812.45
354.20	1832.93
354.41	2045.92
354.63	1906.66
354.85	2011.11
355.06	1916.90
355.28	1808.36
355.49	1920.99
355.71	1859.56
355.92	1916.90
356.14	2013.15
356.35	1857.51
356.57	1935.33
356.79	1828.84
357.00	1810.40
357.22	2004.96
357.43	1896.42
357.65	1994.72
357.86	1857.51
358.08	1982.43
358.29	1931.23
358.51	1992.67
358.72	1982.43
358.94	1931.23
359.16	1964.00
359.37	1888.23
359.59	1945.57
359.80	1964.00
360.02	1904.61
360.23	1968.10
360.45	2019.30
360.66	1935.33
360.88	1888.23
361.09	1955.81
361.31	1929.19
361.52	1912.80
361.74	2060.26
361.95	2113.50
362.17	1970.15
362.38	2103.26
362.60	1953.76
362.81	2037.73
363.03	1916.90
363.24	1996.77
363.46	2136.03
363.67	2052.06
363.89	1982.43
364.10	1994.72
364.32	2045.92
364.53	2090.98
364.75	1925.09
364.96	2041.82
365.18	2097.12
365.39	2035.68
365.61	1941.47
365.82	2070.50
366.04	2041.82
366.25	1972.19
366.47	2064.35
366.68	2080.74
366.90	2007.01
367.11	2078.69
367.33	2111.46
367.54	2050.02
367.76	2062.30
367.97	2088.93
368.19	2062.30
368.40	2060.26
368.62	1957.86
368.83	2023.39
369.05	2152.42
369.26	1984.48
369.48	1984.48
369.69	2019.30
369.91	2047.97
370.12	2103.26
370.33	2086.88
370.55	1984.48
370.76	2103.26
370.98	2170.85
371.19	2033.63
371.41	2056.16
371.62	2095.07
371.84	2002.91
372.05	2140.13
372.27	2078.69
372.48	2099.17
372.69	2086.88
372.91	2258.91
373.12	2176.99
373.34	2021.35
373.55	2144.22
373.77	2220.00
373.98	2113.50
374.20	2121.70
374.41	2263.01
374.62	2076.64
374.84	2256.86
375.05	2166.75
375.27	2195.42
375.48	2140.13
375.70	2197.47
375.91	2279.39
376.12	2293.72
376.34	2230.24
376.55	2183.13
376.77	2168.80
376.98	2164.70
377.19	2115.55
377.41	2133.98
377.62	2158.56
377.84	2238.43
378.05	2398.17
378.27	2158.56
378.48	2312.16
378.69	2322.40
378.91	2303.96
379.12	2224.09
379.34	2248.67
379.55	2400.22
379.76	2310.11
379.98	2172.89
380.19	2385.88
380.41	2353.12
380.62	2346.97
380.83	2252.77
381.05	2160.61
381.26	2344.92
381.47	2250.72
381.69	2215.90
381.90	2392.03
382.12	2314.20
382.33	2265.05
382.54	2375.64
382.76	2338.78
382.97	2344.92
383.19	2248.67
383.40	2342.88
383.61	2287.58
383.83	2367.45
384.04	2328.54
384.25	2412.51
384.47	2404.32
384.68	2406.36
384.89	2381.79
385.11	2306.01
385.32	2400.22
385.54	2353.12
385.75	2318.30
385.96	2420.70
386.18	2410.46
386.39	2428.89
386.60	2428.89
386.82	2394.08
387.03	2441.18
387.24	2514.91
387.46	2402.27
387.67	2527.19
387.88	2500.57
388.10	2572.25
388.31	2418.65
388.52	2576.34
388.74	2557.91
388.95	2463.71
389.16	2488.28
389.38	2510.81
389.59	2572.25
389.80	2645.98
390.02	2543.58
390.23	2584.54
390.44	2568.15
390.66	2574.30
390.87	2613.21
391.08	2607.06
391.30	2719.70
391.51	2707.41
391.72	2686.94
391.94	2588.63
392.15	2635.74
392.36	2531.29
392.58	2648.02
392.79	2672.60
393.00	2754.52
393.22	2654.17
393.43	2754.52
393.64	2791.38
393.85	2777.05
394.07	2641.88
394.28	2813.91
394.49	2725.85
394.71	2797.53
394.92	2756.57
395.13	2785.24
395.35	2750.42
395.56	2791.38
395.77	2830.29
395.98	2904.02
396.20	2873.30
396.41	2850.77
396.62	2938.84
396.84	2885.59
397.05	2826.20
397.26	2906.07
397.47	2944.98
397.69	2820.05
397.90	3086.29
398.11	2891.73
398.32	2973.65
398.54	2846.68
398.75	2987.99
398.96	2967.51
399.18	3069.91
399.39	3000.27
399.60	2977.75
399.81	2924.50
400.03	3053.52
400.24	3293.13
400.45	2934.74
400.66	3084.24
400.88	2961.36
401.09	3184.59
401.30	3061.71
401.51	3166.16
401.73	3182.54
401.94	3213.26
402.15	3090.38
402.36	3086.29
402.58	3196.88
402.79	3176.40
403.00	3246.03
403.21	3231.69
403.43	3360.72
403.64	3315.66
403.85	3153.87
404.06	3268.56
404.27	3135.44
404.49	3211.22
404.70	3139.54
404.91	3295.18
405.12	3282.89
405.34	3205.07
405.55	3516.36
405.76	3219.41
405.97	3362.76
406.19	3379.15
406.40	3348.43
406.61	3409.87
406.82	3450.83
407.03	3350.48
407.25	3413.96
407.46	3467.21
407.67	3438.54
407.88	3504.07
408.09	3401.68
408.31	3381.20
408.52	3481.55
408.73	3442.64
408.94	3438.54
409.15	3491.79
409.37	3510.22
409.58	3569.61
409.79	3448.78
410.00	3704.78
410.21	3698.63
410.43	3600.33
410.64	3524.55
410.85	3647.43
411.06	3596.23
411.27	3667.91
411.48	3559.37
411.70	3641.29
411.91	3696.58
412.12	3706.82
412.33	3706.82
412.54	3606.47
412.76	3751.88
412.97	3749.83
413.18	3590.09
413.39	3710.92
413.60	3809.22
413.81	3762.12
414.03	3674.06
414.24	3811.27
414.45	3841.99
414.66	3596.23
414.87	3792.84
415.08	3755.97
415.30	3899.33
415.51	3874.76
415.72	3755.97
415.93	3835.85
416.14	3915.72
416.35	3862.47
416.56	3866.56
416.78	3796.93
416.99	3870.66
417.20	3803.08
417.41	4059.07
417.62	3874.76
417.83	3915.72
418.04	3930.05
418.26	3936.20
418.47	3944.39
418.68	4143.04
418.89	4054.98
419.10	4067.27
419.31	4165.57
419.52	4116.42
419.73	4097.99
419.95	4173.76
420.16	4048.83
420.37	4089.79
420.58	4032.45
420.79	3895.24
421.00	4108.23
421.21	4200.38
421.42	3983.30
421.63	4145.09
421.85	4267.97
422.06	4214.72
422.27	4272.06
422.48	4267.97
422.69	4270.01
422.90	4310.97
423.11	4288.45
423.32	4192.19
423.53	4378.56
423.75	4390.84
423.96	4460.48
424.17	4382.65
424.38	4450.24
424.59	4425.66
424.80	4722.62
425.01	4491.20
425.22	4263.87
425.43	4452.28
425.64	4679.61
425.85	4587.45
426.06	4700.09
426.28	4499.39
426.49	4530.11
426.70	4628.41
426.91	4476.86
427.12	4718.52
427.33	4728.76
427.54	4536.25
427.75	4716.47
427.96	4878.26
428.17	4888.50
428.38	4720.57
428.59	4767.67
428.80	4845.49
429.01	4919.22
429.23	4808.63
429.44	5081.01
429.65	5050.29
429.86	4904.89
430.07	4812.73
430.28	4822.97
430.49	5031.86
430.70	5035.96
430.91	5109.68
431.12	5031.86
431.33	5089.20
431.54	5136.31
431.75	5119.92
431.96	5158.83
432.17	5212.08
432.38	5146.55
432.59	5355.44
432.80	5230.51
433.01	5230.51
433.22	5207.98
433.43	5160.88
433.64	5144.50
433.85	5195.70
434.06	5429.17
434.27	5175.22
434.49	5347.25
434.70	5482.41
434.91	5392.30
435.12	5470.12
435.33	5445.55
435.54	5320.62
435.75	5377.97
435.96	5478.32
436.17	5404.59
436.38	5478.32
436.59	5500.84
436.80	5371.82
437.01	5812.14
437.22	5791.66
437.43	5531.56
437.64	5496.75
437.85	5580.71
438.06	5670.83
438.27	5615.53
438.48	5623.72
438.69	5900.20
438.90	5826.47
439.11	5754.79
439.32	6018.98
439.53	5803.94
439.74	5709.74
439.95	6027.17
440.16	5797.80
440.37	5838.76
440.57	5746.60
440.78	6000.55
440.99	5906.34
441.20	5898.15
441.41	5791.66
441.62	5973.92
441.83	5820.33
442.04	5971.88
442.25	6014.88
442.46	6029.22
442.67	6137.76
442.88	6399.90
443.09	5982.12
443.30	5959.59
443.51	6365.09
443.72	6236.06
443.93	6090.66
444.14	6225.82
444.35	6168.48
444.56	6320.03
444.77	6279.07
444.98	6246.30
445.19	6383.52
445.40	6539.16
445.61	6338.46
445.81	6629.27
446.02	6475.68
446.23	6492.06
446.44	6289.31
446.65	6512.54
446.86	6653.85
447.07	6703.00
447.28	6813.59
447.49	6700.95
447.70	6707.10
447.91	6750.10
448.12	6659.99
448.33	6725.53
448.54	6659.99
448.74	6694.81
448.95	6803.35
449.16	6672.28
449.37	6956.95
449.58	6807.45
449.79	7118.74
450.00	6735.77
450.21	7034.77
450.42	7026.58
450.63	7079.83
450.84	7192.47
451.05	7088.02
451.25	7022.48
451.46	6997.91
451.67	7272.34
451.88	7206.80
452.09	7186.32
452.30	7094.16
452.51	7311.25
452.72	7387.02
452.93	7569.29
453.13	7167.89
453.34	7210.90
453.55	7407.50
453.76	7274.38
453.97	7643.02
454.18	7636.88
454.39	7765.90
454.60	7581.58
454.81	7645.07
455.01	7765.90
455.22	7483.28
455.43	7745.42
455.64	7901.06
455.85	8040.33
456.06	8245.12
456.27	7899.02
456.48	7886.73
456.68	8038.28
456.89	8069.00
457.10	8185.73
457.31	7948.17
457.52	8138.63
457.73	8236.93
457.94	8527.74
458.14	8112.00
458.35	8531.84
458.56	8439.68
458.77	8257.41
458.98	8441.73
459.19	8400.77
459.39	8630.14
459.60	8781.69
459.81	8699.77
460.02	8908.66
460.23	8630.14
460.44	8834.94
460.65	8830.84
460.85	9015.16
461.06	8998.77
461.27	8806.27
461.48	9269.11
461.69	9340.79
461.89	8781.69
462.10	9215.86
462.31	9027.45
462.52	9060.21
462.73	9090.93
462.94	9553.77
463.14	9486.19
463.35	9314.16
463.56	9731.95
463.77	9877.35
463.98	9375.60
464.18	9688.94
464.39	9725.80
464.60	9854.83
464.81	9777.00
465.02	9842.54
465.23	10262.37
465.43	10043.24
465.64	10448.74
465.85	10104.68
466.06	10063.72
466.27	10530.66
466.47	10489.70
466.68	10452.83
466.89	10252.13
467.10	10649.44
467.30	10332.00
467.51	10688.35
467.72	10762.08
467.93	10522.46
468.14	10647.39
468.34	10897.24
468.55	11136.85
468.76	11001.69
468.97	10577.76
469.17	10968.92
469.38	11130.71
469.59	11427.67
469.80	11136.85
470.01	11138.90
470.21	11272.02
470.42	11407.19
470.63	11677.52
470.84	11452.24
471.04	11757.39
471.25	11669.33
471.46	11575.12
471.67	11870.03
471.87	11763.53
472.08	11945.80
472.29	12212.04
472.50	11847.50
472.70	12226.37
472.91	12103.50
473.12	12320.58
473.33	12597.06
473.53	12576.58
473.74	12490.56
473.95	12500.80
474.16	12746.56
474.36	12814.14
474.57	13086.52
474.78	12889.92
474.99	13047.61
475.19	12912.44
475.40	13233.97
475.61	13354.80
475.81	13385.52
476.02	13500.21
476.23	13438.77
476.44	13686.58
476.64	13928.24
476.85	14038.83
477.06	13958.96
477.27	14020.39
477.47	13989.67
477.68	14184.23
477.89	14290.73
478.09	14214.95
478.30	14399.27
478.51	14343.97
478.71	14460.71
478.92	14798.62
479.13	14591.78
479.34	14581.54
479.54	14741.28
479.75	14933.79
479.96	15025.95
480.16	15140.63
480.37	15148.82
480.58	15378.20
480.78	15582.99
480.99	15554.32
481.20	15511.32
481.41	15689.49
481.61	15906.57
481.82	15859.47
482.03	15671.06
482.23	15822.61
482.44	16135.95
482.65	16228.10
482.85	16226.06
483.06	16224.01
483.27	16580.36
483.47	16543.49
483.68	16649.99
483.89	16752.38
484.09	16508.68
484.30	16643.84
484.51	16942.85
484.71	17008.38
484.92	17053.44
485.13	17293.05
485.33	17377.01
485.54	17207.03
485.75	17549.04
485.95	17633.01
486.16	17633.01
486.37	17802.99
486.57	17735.41
486.78	17723.12
486.98	17684.21
487.19	17706.74
487.40	18005.74
487.60	18011.89
487.81	18249.45
488.02	18188.01
488.22	18245.35
488.43	18419.43
488.64	18351.85
488.84	18587.36
489.05	18673.38
489.25	18640.61
489.46	19017.44
489.67	18874.08
489.87	19234.52
490.08	19056.35
490.29	19060.45
490.49	19613.40
490.70	19480.28
490.90	19568.34
491.11	19467.99
491.32	19744.47
491.52	19834.58
491.73	19689.17
491.94	19728.08
492.14	19875.54
492.35	20039.37
492.55	20035.28
492.76	20278.99
492.97	20156.11
493.17	20174.54
493.38	20403.91
493.58	20690.63
493.79	20602.57
494.00	20438.73
494.20	20688.58
494.41	20528.84
494.61	20686.53
494.82	20711.11
495.02	21030.59
495.23	21001.92
495.44	21075.65
495.64	21305.02
495.85	21032.64
496.05	21397.18
496.26	21208.76
496.47	21569.21
496.67	21634.74
496.88	22046.38
497.08	21339.83
497.29	21952.18
497.49	21573.30
497.70	21841.59
497.91	21974.70
498.11	22179.50
498.32	22290.09
498.52	22220.46
498.73	22636.20
498.93	22359.72
499.14	22498.98
499.34	22724.26
499.55	22711.97
499.76	22578.86
499.96	22742.69
500.17	22617.77
500.37	22654.63
500.58	22736.55
500.78	23021.22
500.99	23228.06
501.19	23293.60
501.40	23281.31
501.60	23037.60
501.81	23359.13
502.02	23512.73
502.22	23244.45
502.43	23738.01
502.63	23651.99
502.84	23518.87
503.04	23631.51
503.25	23797.40
503.45	23768.73
503.66	24213.13
503.86	23948.95
504.07	24172.18
504.27	24061.58
504.48	24362.64
504.68	24307.34
504.89	24790.66
505.09	24549.00
505.30	24505.99
505.50	24757.89
505.71	24798.85
505.91	24684.17
506.12	24702.60
506.32	24878.72
506.53	24643.21
506.73	25042.56
506.94	25204.35
507.14	25144.96
507.35	25276.03
507.55	25261.69
507.76	25355.90
507.96	25071.23
508.17	25208.45
508.37	25456.25
508.58	25425.53
508.78	25550.46
508.99	25540.22
509.19	25558.65
509.40	25691.77
509.60	25943.67
509.81	26062.45
510.01	25652.86
510.22	25917.04
510.42	25955.96
510.63	26033.78
510.83	26025.59
511.04	26109.55
511.24	26353.26
511.44	26048.11
511.65	26351.21
511.85	26218.10
512.06	26371.69
512.26	26791.53
512.47	26818.15
512.67	26746.47
512.88	26769.00
513.08	26611.31
513.29	26748.52
513.49	26906.21
513.69	26871.40
513.90	26984.04
514.10	27412.06
514.31	27264.61
514.51	27180.64
514.72	27369.05
514.92	27539.04
515.13	27780.70
515.33	27553.37
515.53	27727.45
515.74	27387.49
515.94	27799.13
516.15	27909.72
516.35	27571.80
516.56	28249.68
516.76	27958.87
516.96	28073.56
517.17	28327.50
517.37	28178.00
517.58	28243.54
517.78	28399.18
517.99	28724.81
518.19	28710.47
518.39	28587.60
518.60	28640.84
518.80	28868.17
519.01	28812.87
519.21	28968.52
519.41	29025.86
519.62	29093.44
519.82	29220.42
520.03	29087.30
520.23	29427.26
520.43	29308.48
520.64	29599.29
520.84	29972.02
521.05	29744.70
521.25	29875.77
521.45	30246.45
521.66	30090.80
521.86	30103.09
522.07	29974.07
522.27	30209.59
522.47	30289.46
522.68	30711.34
522.88	30361.14
523.08	30582.32
523.29	30682.67
523.49	30625.32
523.70	30860.84
523.90	31079.97
524.10	30772.78
524.31	31106.60
524.51	30905.90
524.71	31546.91
524.92	31092.26
525.12	31489.57
525.33	31440.42
525.53	31831.58
525.73	31874.59
525.94	31925.78
526.14	32185.88
526.34	31868.44
526.55	32325.14
526.75	32095.77
526.95	32015.90
527.16	32364.05
527.36	32245.27
527.56	32867.85
527.77	32718.35
527.97	33066.50
528.17	32787.98
528.38	32865.80
528.58	32986.63
528.78	33177.09
528.99	33095.18
529.19	33263.11
529.39	32894.47
529.60	33951.23
529.80	33488.38
530.00	33758.72
530.21	33822.20
530.41	34262.52
530.61	33826.30
530.82	34317.81
531.02	34022.90
531.22	34373.11
531.43	34481.65
531.63	34338.29
531.83	34721.26
532.04	35141.10
532.24	35216.87
532.44	34991.59
532.64	35065.32
532.85	35354.08
533.05	35239.40
533.25	35657.18
533.46	35546.59
533.66	35843.55
533.86	35904.99
534.07	36021.72
534.27	35823.07
534.47	36208.09
534.67	36316.63
534.88	36179.42
535.08	36728.27
535.28	36539.86
535.49	36894.16
535.69	36984.27
535.89	36681.17
536.09	37158.34
536.30	37107.15
536.50	36982.22
536.70	37303.75
536.91	37064.14
537.11	37492.16
537.31	37279.18
537.51	37524.93
537.72	37926.33
537.92	37897.66
538.12	38221.24
538.32	37627.33
538.53	38333.88
538.73	37905.85
538.93	38098.36
539.13	38413.75
539.34	38264.25
539.54	38231.48
539.74	38438.33
539.94	38768.05
540.15	38397.37
540.35	38692.27
540.55	38569.40
540.75	38743.47
540.96	39343.53
541.16	38897.07
541.36	38958.51
541.56	39411.11
541.77	39407.01
541.97	39280.04
542.17	39959.97
542.37	39914.91
542.58	39773.60
542.78	39699.87
542.98	39540.13
543.18	39849.38
543.38	40435.10
543.59	40295.83
543.79	40222.11
543.99	40068.51
544.19	40033.69
544.40	40041.88
544.60	40494.49
544.80	40394.14
545.00	40449.43
545.20	40748.43
545.41	40265.11
545.61	40525.21
545.81	40920.46
546.01	40818.07
546.21	40713.62
546.42	40469.91
546.62	41080.21
546.82	40723.86
547.02	41008.53
547.22	41067.92
547.43	41010.57
547.63	40949.14
547.83	41391.50
548.03	41153.93
548.23	41184.65
548.44	41463.18
548.64	41198.99
548.84	41457.03
549.04	41543.05
549.24	41862.53
549.45	41956.74
549.65	41424.26
549.85	41782.66
550.05	41905.54
550.25	41983.36
550.45	42642.81
550.66	42179.96
550.86	41739.65
551.06	42331.51
551.26	41926.02
551.46	42120.57
551.66	42579.32
551.87	42300.79
552.07	42034.56
552.27	42274.17
552.47	42499.45
552.67	42550.65
552.87	42460.54
553.07	42810.74
553.28	42798.45
553.48	42786.16
553.68	42642.81
553.88	42708.34
554.08	42509.69
554.28	42612.09
554.48	42702.20
554.69	42982.77
554.89	42773.88
555.09	43015.54
555.29	42964.34
555.49	43304.30
555.69	42849.65
555.89	42915.19
556.10	43361.64
556.30	42915.19
556.50	43234.67
556.70	42659.19
556.90	43431.27
557.10	43128.17
557.30	43062.64
557.50	43533.67
557.70	43091.31
557.91	43513.19
558.11	43644.26
558.31	43511.14
558.51	43599.21
558.71	43206.00
558.91	43242.86
559.11	43468.14
559.31	43400.55
559.51	43275.63
559.72	43367.79
559.92	43582.82
560.12	43539.82
560.32	43875.68
560.52	43367.79
560.72	43570.54
560.92	43885.92
561.12	43752.80
561.32	44215.65
561.52	43445.61
561.72	44070.24
561.93	43394.41
562.13	43885.92
562.33	43490.66
562.53	44141.92
562.73	43582.82
562.93	43644.26
563.13	44055.90
563.33	43951.46
563.53	44016.99
563.73	43824.48
563.93	43955.55
564.13	44293.47
564.33	43554.15
564.53	43750.76
564.74	44060.00
564.94	44016.99
565.14	44623.19
565.34	44012.90
565.54	43511.14
565.74	44166.49
565.94	44549.46
566.14	44492.12
566.34	44258.65
566.54	44330.33
566.74	43926.88
566.94	44451.16
567.14	44549.46
567.34	44387.67
567.54	44668.25
567.74	44148.06
567.94	44217.69
568.14	44950.87
568.34	44592.47
568.54	44490.07
568.74	44270.94
568.94	44248.41
569.14	44727.64
569.34	44338.52
569.54	44821.84
569.75	44238.17
569.95	44207.45
570.15	44965.20
570.35	44553.56
570.55	44469.59
570.75	44557.66
570.95	44850.52
571.15	44868.95
571.35	44608.86
571.55	45110.61
571.75	44735.83
571.95	45419.85
572.15	44684.63
572.35	45045.07
572.55	44725.59
572.75	44637.53
572.95	44600.66
573.15	45045.07
573.35	45088.08
573.55	45149.52
573.75	44852.56
573.95	44971.35
574.15	44932.43
574.35	45311.31
574.55	45567.30
574.75	44703.06
574.95	45313.36
575.15	45229.39
575.34	45296.97
575.54	45577.54
575.74	45170.00
575.94	45364.56
576.14	45319.50
576.34	45753.67
576.54	45589.83
576.74	45944.13
576.94	45462.86
577.14	45733.19
577.34	45966.66
577.54	45577.54
577.74	45706.57
577.94	45831.49
578.14	45903.17
578.34	45825.35
578.54	45393.23
578.74	45911.36
578.94	45987.14
579.14	45794.63
579.34	46009.67
579.54	45782.34
579.74	46267.71
579.94	46163.26
580.13	46511.42
580.33	46007.62
580.53	46335.29
580.73	46259.52
580.93	46292.29
581.13	46232.89
581.33	46376.25
581.53	46984.50
581.73	46288.19
581.93	46855.48
582.13	46497.08
582.33	46873.91
582.53	46775.61
582.73	46888.24
582.92	47228.21
583.12	47297.84
583.32	47009.07
583.52	46791.99
583.72	47314.22
583.92	46906.68
584.12	46855.48
584.32	47476.01
584.52	47041.84
584.72	47271.21
584.92	47449.39
585.11	47531.31
585.31	47482.16
585.51	47379.76
585.71	47162.67
585.91	47795.49
586.11	47420.72
586.31	47244.59
586.51	47836.45
586.71	47600.94
586.91	47877.41
587.10	47635.75
587.30	47547.69
587.50	47437.10
587.70	48198.94
587.90	47844.65
588.10	47586.60
588.30	48266.53
588.50	48004.39
588.69	48289.06
588.89	47955.24
589.09	48100.64
589.29	48463.13
589.49	48233.76
589.69	48153.89
589.89	48459.04
590.08	48459.04
590.28	48031.01
590.48	48338.21
590.68	48510.24
590.88	48225.57
591.08	48442.65
591.28	48141.60
591.47	48784.66
591.67	48481.56
591.87	49009.94
592.07	48659.74
592.27	48624.92
592.47	48534.81
592.67	48854.29
592.86	48678.17
593.06	49231.12
593.26	49102.10
593.46	49341.71
593.66	49145.11
593.86	49640.71
594.05	49646.86
594.25	49489.16
594.45	49138.96
594.65	49194.26
594.85	48862.49
595.05	49605.90
595.24	49368.33
595.44	49337.62
595.64	49456.40
595.84	49687.82
596.04	49554.70
596.23	49798.41
596.43	50076.93
596.63	49454.35
596.83	49943.81
597.03	49851.66
597.22	50461.95
597.42	50140.42
597.62	50461.95
597.82	50107.65
598.02	50185.47
598.21	50822.39
598.41	50279.68
598.61	50545.92
598.81	50928.89
599.01	50275.58
599.20	50660.60
599.40	50386.18
599.60	50908.41
599.80	50914.55
600.00	50814.20
600.19	51422.45
600.39	50844.92
600.59	51064.05
600.79	51125.49
600.98	51254.51
601.18	50908.41
601.38	51303.67
601.58	51344.62
601.78	51557.61
601.97	51266.80
602.17	52028.65
602.37	51842.28
602.57	51819.75
602.76	51887.34
602.96	51543.28
603.16	52358.37
603.36	52012.26
603.55	52184.29
603.75	51909.86
603.95	52466.91
604.15	51731.69
604.34	52182.24
604.54	52362.46
604.74	51836.14
604.94	52341.99
605.13	52380.90
605.33	52466.91
605.53	52120.80
605.73	52929.75
605.92	52684.00
606.12	52989.14
606.32	53392.59
606.52	52718.81
606.71	53005.53
606.91	52960.47
607.11	52829.40
607.30	53109.97
607.50	53437.65
607.70	53437.65
607.90	53322.96
608.09	53198.04
608.29	53204.18
608.49	53533.90
608.68	53861.58
608.88	53671.12
609.08	54088.90
609.28	54056.14
609.47	53560.53
609.67	54115.53
609.87	53687.50
610.06	54133.96
610.26	53912.78
610.46	54199.49
610.66	54035.66
610.85	54113.48
611.05	53980.36
611.25	54000.84
611.44	54115.53
611.64	54328.52
611.84	54377.67
612.03	54293.70
612.23	54369.47
612.43	54850.75
612.62	54297.80
612.82	54697.15
613.02	54420.67
613.21	54432.96
613.41	54185.16
613.61	54750.40
613.80	54303.94
614.00	54611.13
614.20	54846.65
614.39	54256.84
614.59	54903.99
614.79	54723.77
614.98	54361.28
615.18	54727.87
615.38	54932.67
615.57	54553.79
615.77	54977.72
615.97	55080.12
616.16	55065.78
616.36	54736.06
616.56	54811.84
616.75	54885.56
616.95	54805.69
617.15	55321.78
617.34	55073.98
617.54	54777.02
617.74	55411.89
617.93	55495.86
618.13	55028.92
618.32	55137.46
618.52	55020.73
618.72	55018.68
618.91	55614.64
619.11	55264.44
619.31	55092.41
619.50	55184.57
619.70	54772.92
619.90	55747.76
620.09	55227.57
620.29	55211.19
620.48	55155.89
620.68	55854.25
620.88	55151.80
621.07	55350.45
621.27	55243.96
621.46	55256.24
621.66	55741.61
621.86	55428.27
622.05	55342.26
622.25	55848.11
622.44	55530.67
622.64	55577.78
622.84	55989.42
623.03	55452.85
623.23	55588.02
623.42	55561.39
623.62	55815.34
623.82	56030.38
624.01	55555.25
624.21	55970.99
624.40	55704.75
624.60	55540.91
624.80	55739.57
624.99	56020.14
625.19	55676.08
625.38	55895.21
625.58	56020.14
625.77	55934.12
625.97	55981.23
626.17	55522.48
626.36	56169.64
626.56	55821.48
626.75	55217.33
626.95	56100.01
627.14	55844.01
627.34	56333.48
627.54	55868.59
627.73	55829.68
627.93	56337.57
628.12	55792.81
628.32	55942.31
628.51	56186.02
628.71	56313.00
628.90	55854.25
629.10	55815.34
629.30	55778.48
629.49	56005.80
629.69	56032.42
629.88	56245.41
630.08	56401.06
630.27	56317.09
630.47	56450.21
630.66	56087.72
630.86	56313.00
631.05	55637.17
631.25	56700.06
631.44	56781.98
631.64	56472.74
631.84	56487.07
632.03	56878.24
632.23	56421.54
632.42	56915.10
632.62	56407.20
632.81	56112.30
633.01	56513.70
633.20	56874.14
633.40	56921.24
633.59	56603.81
633.79	56452.26
633.98	56632.48
634.18	56755.36
634.37	56771.74
634.57	56698.01
634.76	57017.50
634.96	56267.94
635.15	57078.94
635.35	56632.48
635.54	56765.60
635.74	57296.02
635.93	56495.27
636.13	57265.30
636.32	57177.24
636.52	56839.32
636.71	56781.98
636.91	57205.91
637.10	57142.42
637.30	57068.70
637.49	57179.29
637.69	56775.84
637.88	57521.30
638.08	56763.55
638.27	56923.29
638.46	56755.36
638.66	56687.78
638.85	57164.95
639.05	57185.43
639.24	57461.91
639.44	57230.49
639.63	57160.86
639.83	57375.89
640.02	57689.23
640.22	57218.20
640.41	57689.23
640.61	56992.92
640.80	57623.70
640.99	57416.85
641.19	57910.41
641.38	57308.31
641.58	57660.56
641.77	57193.62
641.97	57349.27
642.16	57783.44
642.36	57412.76
642.55	58152.07
642.74	57412.76
642.94	58260.62
643.13	57533.59
643.33	57654.42
643.52	57889.93
643.72	57722.00
643.91	57906.32
644.10	58090.63
644.30	57795.73
644.49	57791.63
644.69	57584.79
644.88	58029.19
645.08	57447.57
645.27	57881.74
645.46	57754.77
645.66	57545.87
645.85	57435.28
646.05	57734.29
646.24	57619.60
646.43	58070.15
646.63	58012.81
646.82	58530.95
647.02	57744.53
647.21	58479.75
647.40	57943.18
647.60	58109.07
647.79	57871.50
647.99	58154.12
648.18	58162.31
648.37	58481.80
648.57	58530.95
648.76	57969.80
648.96	57775.25
649.15	58436.74
649.34	58768.51
649.54	58657.92
649.73	57978.00
649.92	58522.76
650.12	58408.07
650.31	58492.04
650.51	58535.04
650.70	58737.79
650.89	58193.03
651.09	58995.84
651.28	58428.55
651.47	58588.29
651.67	58381.45
651.86	58635.39
652.06	57934.99
652.25	58184.84
652.44	58336.39
652.64	58152.07
652.83	58188.94
653.02	58363.01
653.22	58397.83
653.41	58014.86
653.60	58358.92
653.80	58215.56
653.99	58537.09
654.18	58324.10
654.38	58346.63
654.57	58553.47
654.76	58688.64
654.96	58160.26
655.15	58395.78
655.34	58367.11
655.54	58166.41
655.73	58426.50
655.92	58614.91
656.12	58639.49
656.31	58397.83
656.50	58363.01
656.70	58397.83
656.89	58475.65
657.08	58365.06
657.28	58078.35
657.47	58360.97
657.66	58825.85
657.86	58184.84
658.05	58360.97
658.24	58805.37
658.43	58277.00
658.63	58307.72
658.82	58504.32
659.01	58791.04
659.21	58791.04
659.40	58487.94
659.59	58520.71
659.79	58623.11
659.98	58610.82
660.17	58606.72
660.36	58582.15
660.56	58309.77
660.75	58561.67
660.94	58676.35
661.14	58096.78
661.33	58694.78
661.52	58039.43
661.71	58469.51
661.91	58272.90
662.10	58182.79
662.29	58573.95
662.49	58451.08
662.68	58471.56
662.87	58274.95
663.06	58489.99
663.26	58274.95
663.45	59032.70
663.64	58422.40
663.83	58664.06
664.03	58823.81
664.22	58489.99
664.41	58610.82
664.60	58104.97
664.80	58244.23
664.99	57978.00
665.18	58127.50
665.37	58594.43
665.57	58862.72
665.76	58244.23
665.95	58475.65
666.14	58070.15
666.34	58221.70
666.53	58342.53
666.72	58616.96
666.91	58141.83
667.11	58225.80
667.30	57908.36
667.49	57826.45
667.68	58113.16
667.87	58543.23
668.07	58324.10
668.26	58453.12
668.45	58143.88
668.64	57830.54
668.84	58576.00
669.03	58268.81
669.22	58014.86
669.41	58143.88
669.60	57951.37
669.80	57908.36
669.99	58410.12
670.18	58049.67
670.37	58190.98
670.57	58453.12
670.76	58274.95
670.95	57857.17
671.14	57939.08
671.33	58027.15
671.53	58358.92
671.72	57930.89
671.91	57615.50
672.10	57787.53
672.29	58066.06
672.48	57951.37
672.68	58225.80
672.87	57408.66
673.06	57672.85
673.25	57603.22
673.44	57676.94
673.64	57300.12
673.83	57423.00
674.02	57488.53
674.21	57363.60
674.40	57801.87
674.59	57025.69
674.79	56984.73
674.98	57015.45
675.17	57566.35
675.36	57349.27
675.55	57713.81
675.74	57230.49
675.94	57390.23
676.13	57769.10
676.32	57652.37
676.51	57799.82
676.70	57144.47
676.89	56865.95
677.08	57527.44
677.28	56947.87
677.47	57574.55
677.66	57427.09
677.85	56974.49
678.04	57324.69
678.23	57511.06
678.42	57296.02
678.62	57367.70
678.81	57392.28
679.00	56863.90
679.19	57814.16
679.38	56495.27
679.57	56855.71
679.76	57287.83
679.96	57332.89
680.15	56970.39
680.34	56781.98
680.53	56571.04
680.72	57128.09
680.91	57199.77
681.10	56927.39
681.29	57097.37
681.48	56532.13
681.68	56525.99
681.87	56210.60
682.06	56747.17
682.25	56304.80
682.44	56239.27
682.63	56624.29
682.82	56013.99
683.01	56243.37
683.20	55964.84
683.39	56386.72
683.59	56079.53
683.78	56175.78
683.97	56386.72
684.16	56091.82
684.35	55647.41
684.54	56063.14
684.73	55907.50
684.92	55989.42
685.11	55993.51
685.30	55743.66
685.49	55962.79
685.69	55694.51
685.88	55989.42
686.07	56081.58
686.26	55866.54
686.45	55680.17
686.64	55764.14
686.83	56003.75
687.02	55686.32
687.21	56145.06
687.40	55858.35
687.59	55590.06
687.78	55884.97
687.97	55817.39
688.16	55182.52
688.35	55293.11
688.54	55667.89
688.74	55088.31
688.93	55499.95
689.12	55596.21
689.31	55336.12
689.50	55133.37
689.69	55106.74
689.88	55071.93
690.07	55362.74
690.26	54891.71
690.45	55545.01
690.64	54469.82
690.83	55301.30
691.02	54650.05
691.21	54934.71
691.40	54744.25
691.59	54940.86
691.78	54893.75
691.97	54912.19
692.16	54521.02
692.35	54731.96
692.54	54455.49
692.73	55049.40
692.92	54654.14
693.11	54625.47
693.30	54566.08
693.49	54512.83
693.68	54711.49
693.87	54230.21
694.06	54621.37
694.25	54353.09
694.44	54498.50
694.63	54637.76
694.82	54158.53
695.01	54383.81
695.20	54156.49
695.39	53978.31
695.58	54314.18
695.77	54019.27
695.96	53925.07
696.15	54052.04
696.34	53609.68
696.53	54047.94
696.72	54367.43
696.91	53771.47
697.10	54074.57
697.29	53970.12
697.48	54019.27
697.67	53841.10
697.86	53492.94
698.05	53177.56
698.24	54125.77
698.43	53408.98
698.62	53773.52
698.81	53155.03
699.00	54062.28
699.19	53212.37
699.38	53460.18
699.57	53048.53
699.76	53945.54
699.95	52983.00
700.14	53236.95
700.32	53052.63
700.51	52829.40
700.70	53435.60
700.89	53486.80
701.08	53273.81
701.27	53155.03
701.46	53073.11
701.65	52477.15
701.84	52751.58
702.03	52473.06
702.22	52753.63
702.41	53132.50
702.60	52528.35
702.79	52765.91
702.98	52821.21
703.17	52255.97
703.35	52221.16
703.54	52458.72
703.73	52741.34
703.92	52401.38
704.11	52559.07
704.30	51852.52
704.49	52169.96
704.68	52411.62
704.87	52294.88
705.06	52380.90
705.25	52208.87
705.43	52458.72
705.62	52298.98
705.81	52339.94
706.00	52114.66
706.19	51750.12
706.38	51766.51
706.57	51868.90
706.76	51696.88
706.95	51737.83
707.14	51541.23
707.32	51778.79
707.51	51758.31
707.70	51680.49
707.89	51547.37
708.08	51549.42
708.27	51739.88
708.46	52085.99
708.65	51860.71
708.84	51938.54
709.02	51545.33
709.21	51821.80
709.40	51393.78
709.59	51422.45
709.78	51072.24
709.97	51860.71
710.16	51258.61
710.34	51487.98
710.53	51492.08
710.72	51426.54
710.91	51518.70
711.10	51426.54
711.29	51334.38
711.48	51328.24
711.66	50937.08
711.85	51102.96
712.04	51254.51
712.23	51088.63
712.42	50926.84
712.61	50943.22
712.80	51000.57
712.98	50734.33
713.17	50769.15
713.36	50877.69
713.55	51004.66
713.74	50996.47
713.93	51053.81
714.11	50730.23
714.30	50269.44
714.49	50771.19
714.68	50973.94
714.87	50466.05
715.06	50709.75
715.24	50554.11
715.43	50779.39
715.62	50259.20
715.81	50392.32
716.00	50447.61
716.18	49923.33
716.37	50175.23
716.56	49726.73
716.75	50382.08
716.94	50287.87
717.12	49841.42
717.31	50201.86
717.50	49732.87
717.69	49790.22
717.88	50121.99
718.06	49779.98
718.25	50310.40
718.44	49851.66
718.63	49997.06
718.82	49343.76
719.00	49470.73
719.19	49364.24
719.38	49853.70
719.57	49042.71
719.76	48823.58
719.94	49274.13
720.13	49409.29
720.32	49124.63
720.51	49247.50
720.69	48837.91
720.88	49009.94
721.07	49108.24
721.26	48950.55
721.44	48858.39
721.63	48387.36
721.82	48727.32
722.01	48129.31
722.20	48968.98
722.38	48839.96
722.57	48241.95
722.76	48293.15
722.95	48571.67
723.13	48244.00
723.32	48112.93
723.51	47818.02
723.70	48076.07
723.88	48211.23
724.07	47990.05
724.26	48338.21
724.44	47746.34
724.63	48266.53
724.82	47981.86
725.01	47879.46
725.19	48076.07
725.38	47879.46
725.57	48182.56
725.76	48166.18
725.94	47719.72
726.13	47568.17
726.32	48055.59
726.51	47426.86
726.69	48225.57
726.88	47920.42
727.07	47435.05
727.25	47578.41
727.44	47371.57
727.63	47887.65
727.82	47605.03
728.00	47637.80
728.19	47240.50
728.38	47842.60
728.56	47258.93
728.75	47467.82
728.94	47361.33
729.12	47936.80
729.31	47545.64
729.50	47086.90
729.69	47936.80
729.87	47584.55
730.06	47754.54
730.25	47953.19
730.43	47879.46
730.62	47412.52
730.81	47478.06
730.99	47914.28
731.18	47351.09
731.37	47621.42
731.55	47551.79
731.74	47895.85
731.93	47936.80
732.11	47402.28
732.30	47633.71
732.49	47486.25
732.67	47648.04
732.86	47322.41
733.05	47580.46
733.23	46949.68
733.42	47527.21
733.61	47267.12
733.79	47158.58
733.98	47738.15
734.17	47445.29
734.35	47295.79
734.54	47322.41
734.73	47545.64
734.91	47486.25
735.10	47205.68
735.29	47719.72
735.47	46871.86
735.66	47459.63
735.84	47580.46
736.03	46939.44
736.22	47586.60
736.40	47002.93
736.59	47322.41
736.78	47230.26
736.96	47240.50
737.15	47437.10
737.33	47181.10
737.52	47113.52
737.71	46810.42
737.89	46708.02
738.08	46411.07
738.27	46839.09
738.45	47084.85
738.64	46859.57
738.82	46884.15
739.01	46806.33
739.20	46794.04
739.38	47033.65
739.57	47324.46
739.75	46972.21
739.94	46290.24
740.13	47035.70
740.31	46890.29
740.50	46830.90
740.68	46966.07
740.87	46918.96
741.06	46603.58
741.24	46609.72
741.43	46689.59
741.61	46982.45
741.80	46720.31
741.99	46693.69
742.17	46060.87
742.36	46937.40
742.54	46710.07
742.73	46703.93
742.91	46685.50
743.10	46615.86
743.29	46443.84
743.47	46597.43
743.66	46374.20
743.84	46529.85
744.03	46388.54
744.21	46419.26
744.40	46789.94
744.59	46472.51
744.77	46382.40
744.96	46429.50
745.14	46431.55
745.33	46622.01
745.51	46105.92
745.70	46613.82
745.88	46320.96
746.07	46499.13
746.26	45813.06
746.44	46150.98
746.63	46314.81
746.81	46525.75
747.00	45845.83
747.18	46146.88
747.37	46028.10
747.55	45937.99
747.74	46466.36
747.92	45823.30
748.11	46024.00
748.29	46316.86
748.48	46196.03
748.66	46083.39
748.85	46153.02
749.03	46290.24
749.22	45792.58
749.41	45915.46
749.59	45706.57
749.78	45958.47
749.96	45544.78
750.15	45555.02
750.33	45780.29
750.52	45339.98
750.70	45442.38
750.89	45223.25
751.07	45440.33
751.26	45514.06
751.44	45235.53
751.63	45438.28
751.81	45038.93
752.00	45288.78
752.18	45663.56
752.37	45268.30
752.55	45305.16
752.74	45215.05
752.92	45153.62
753.10	44668.25
753.29	45239.63
753.47	45026.64
753.66	44809.56
753.84	45530.44
754.03	44934.48
754.21	44916.05
754.40	45065.55
754.58	45331.79
754.77	44987.73
754.95	44944.72
755.14	44948.82
755.32	44815.70
755.51	44682.58
755.69	44776.79
755.88	44678.49
756.06	44909.91
756.24	44436.83
756.43	44340.57
756.61	44621.14
756.80	44991.83
756.98	44483.93
757.17	44623.19
757.35	44694.87
757.54	44631.38
757.72	44662.10
757.90	44324.19
758.09	44662.10
758.27	44776.79
758.46	44189.02
758.64	44141.92
758.83	44651.86
759.01	44578.14
759.19	44707.16
759.38	44555.61
759.56	44774.74
759.75	44692.82
759.93	44432.73
760.12	44414.30
760.30	44365.15
760.48	44201.31
760.67	44090.72
760.85	44520.79
761.04	44592.47
761.22	44391.77
761.40	44170.59
761.59	43967.84
761.77	43849.06
761.96	44313.95
762.14	43740.52
762.32	44143.97
762.51	43316.59
762.69	43828.58
762.88	43918.69
763.06	44008.80
763.24	43722.08
763.43	43926.88
763.61	43603.30
763.80	43740.52
763.98	43707.75
764.16	43404.65
764.35	43330.92
764.53	43085.17
764.72	43930.98
764.90	43361.64
765.08	43418.99
765.27	43324.78
765.45	43425.13
765.63	42984.82
765.82	43390.31
766.00	43150.70
766.18	43369.83
766.37	43201.90
766.55	43146.61
766.74	43668.84
766.92	43337.07
767.10	43152.75
767.29	43050.35
767.47	42818.93
767.65	43019.63
767.84	42329.47
768.02	43052.40
768.20	42755.44
768.39	43165.04
768.57	42851.70
768.75	42906.99
768.94	42892.66
769.12	42333.56
769.30	42442.10
769.49	42538.36
769.67	42554.74
769.85	42184.06
770.04	42651.00
770.22	41928.06
770.40	41799.04
770.59	42044.80
770.77	42499.45
770.95	41928.06
771.14	41735.56
771.32	41983.36
771.50	41600.39
771.69	42032.51
771.87	42388.86
772.05	42227.07
772.24	41704.84
772.42	41811.33
772.60	42237.31
772.78	41280.91
772.97	41448.84
773.15	41919.87
773.33	41680.26
773.52	41629.06
773.70	42046.85
773.88	41772.42
774.07	41502.09
774.25	41858.43
774.43	42167.68
774.61	41667.97
774.80	41858.43
774.98	41790.85
775.16	41663.88
775.34	41493.89
775.53	41657.73
775.71	41983.36
775.89	41639.30
776.08	41901.44
776.26	42265.98
776.44	42018.17
776.62	42141.05
776.81	41827.71
776.99	42079.61
777.17	42044.80
777.35	42347.90
777.54	42198.40
777.72	42284.41
777.90	42229.12
778.08	42384.76
778.27	42235.26
778.45	42274.17
778.63	42777.97
778.81	42048.89
779.00	42720.63
779.18	42304.89
779.36	42614.13
779.54	42286.46
779.73	42478.97
779.91	42866.03
780.09	42710.39
780.27	43017.58
780.46	42536.31
780.64	42612.09
780.82	42874.23
781.00	42849.65
781.19	43210.09
781.37	43103.60
781.55	42931.57
781.73	43294.06
781.91	42937.71
782.10	42892.66
782.28	43140.46
782.46	43009.39
782.64	43402.60
782.82	42755.44
783.01	42851.70
783.19	43285.87
783.37	43079.02
783.55	42626.42
783.74	43330.92
783.92	42755.44
784.10	43515.24
784.28	43414.89
784.46	42722.68
784.64	42835.31
784.83	43388.27
785.01	43281.77
785.19	43191.66
785.37	43476.33
785.55	42984.82
785.74	42775.92
785.92	42755.44
786.10	42964.34
786.28	43113.84
786.46	43062.64
786.64	42694.00
786.83	42710.39
787.01	42878.32
787.19	42823.03
787.37	42945.90
787.55	42665.33
787.74	42614.13
787.92	42802.55
788.10	42511.74
788.28	42329.47
788.46	42583.41
788.64	42546.55
788.82	42915.19
789.01	42417.53
789.19	42513.78
789.37	42243.45
789.55	42208.64
789.73	41887.10
789.91	41835.91
790.09	41993.60
790.28	42161.53
790.46	41729.41
790.64	42225.02
790.82	42034.56
791.00	41917.82
791.18	41670.02
791.36	41833.86
791.55	41842.05
791.73	41426.31
791.91	41471.37
792.09	41684.36
792.27	41713.03
792.45	41541.00
792.63	41418.12
792.81	41162.12
793.00	41166.22
793.18	41035.15
793.36	41129.36
793.54	40914.32
793.72	40942.99
793.90	40822.16
794.08	40621.46
794.26	40947.09
794.44	40279.45
794.62	40275.35
794.81	40459.67
794.99	40402.33
795.17	40246.68
795.35	39953.82
795.53	40234.39
795.71	40433.05
795.89	39712.16
796.07	39671.20
796.25	39605.67
796.43	39556.52
796.61	39568.80
796.80	39546.28
796.98	39665.06
797.16	39101.87
797.34	39384.49
797.52	39114.16
797.70	39478.69
797.88	38786.48
798.06	38958.51
798.24	38868.40
798.42	38927.79
798.60	38710.71
798.78	38794.67
798.96	39048.62
799.14	38393.27
799.32	38929.84
799.51	38497.72
799.69	38460.85
799.87	38282.68
800.05	38194.62
800.23	37948.86
800.41	38028.73
800.59	38073.79
800.77	37379.53
800.95	37397.96
801.13	37811.65
801.31	37815.74
801.49	37621.19
801.67	37264.84
801.85	37436.87
802.03	36957.64
802.21	37201.35
802.39	37170.63
802.57	36644.30
802.75	36931.02
802.93	36992.46
803.11	36986.32
803.29	36591.06
803.47	36603.35
803.65	36394.45
803.83	36713.94
804.01	36306.39
804.19	35950.04
804.37	36292.05
804.55	36384.21
804.73	36216.28
804.91	35954.14
805.09	36087.26
805.27	36453.84
805.45	35988.95
805.63	36318.68
805.81	35679.71
805.99	36109.78
806.17	35978.72
806.35	35624.42
806.53	35247.59
806.71	35290.60
806.89	35161.58
807.07	35192.30
807.25	35155.43
807.43	34983.40
807.61	35042.79
807.79	34960.87
807.97	34870.76
808.15	35141.10
808.33	34711.02
808.51	34596.34
808.69	34276.85
808.87	34459.12
809.05	34270.71
809.23	34354.68
809.41	34067.96
809.59	34442.74
809.77	34295.28
809.95	33975.80
810.13	34622.96
810.31	34010.62
810.49	34024.95
810.67	33889.79
810.84	34033.14
811.02	33781.24
811.20	33758.72
811.38	33623.55
811.56	33525.25
811.74	33420.80
811.92	33302.02
812.10	33455.62
812.28	33379.84
812.46	33166.85
812.64	33447.43
812.82	33252.87
813.00	32984.58
813.18	33054.22
813.36	32798.22
813.53	33074.70
813.71	32640.53
813.89	32609.81
814.07	32658.96
814.25	32794.12
814.43	32306.71
814.61	32388.63
814.79	32347.67
814.97	32478.74
815.15	32597.52
815.33	32200.21
815.50	31911.45
815.68	32216.60
815.86	32194.07
816.04	31948.31
816.22	31677.98
816.40	32019.99
816.58	31745.56
816.76	31591.97
816.94	31624.73
817.11	31516.19
817.29	31612.45
817.47	31510.05
817.65	31485.47
817.83	31614.49
818.01	31364.64
818.19	31329.83
818.37	31589.92
818.54	31122.98
818.72	31202.85
818.90	31497.76
819.08	31004.20
819.26	31133.22
819.44	30930.47
819.62	30895.66
819.80	31053.35
819.97	30754.35
820.15	30729.77
820.33	30404.14
820.51	30752.30
820.69	30291.51
820.87	30694.96
821.05	30959.14
821.22	30404.14
821.40	30510.64
821.58	30209.59
821.76	30283.31
821.94	30303.79
822.12	29967.93
822.29	30557.74
822.47	30053.94
822.65	30561.84
822.83	30094.90
823.01	30117.43
823.19	30217.78
823.36	29914.68
823.54	29926.97
823.72	29652.54
823.90	29652.54
824.08	29658.68
824.25	29644.35
824.43	29654.59
824.61	29578.81
824.79	29421.12
824.97	29056.58
825.15	29683.26
825.32	29257.28
825.50	29087.30
825.68	28999.24
825.86	29312.58
826.04	29449.79
826.21	28845.64
826.39	29009.48
826.57	29216.32
826.75	28927.56
826.93	28876.36
827.10	28841.54
827.28	28913.22
827.46	28794.44
827.64	28683.85
827.81	28440.14
827.99	28755.53
828.17	28315.22
828.35	28401.23
828.53	28444.24
828.70	28511.82
828.88	28302.93
829.06	28407.37
829.24	28421.71
829.41	28233.30
829.59	28347.98
829.77	28161.62
829.95	28223.06
830.12	27778.65
830.30	28200.53
830.48	28354.13
830.66	28061.27
830.84	28132.95
831.01	27569.76
831.19	28026.45
831.37	27766.36
831.55	27915.86
831.72	27825.75
831.90	27772.50
832.08	27790.94
832.25	27702.87
832.43	27528.80
832.61	27293.28
832.79	27418.21
832.96	27397.73
833.14	27317.86
833.32	27321.95
833.50	27514.46
833.67	27416.16
833.85	27313.76
834.03	27104.87
834.20	27504.22
834.38	27211.36
834.56	27188.83
834.74	26975.84
834.91	27102.82
835.09	26900.07
835.27	26775.14
835.44	26736.23
835.62	26609.26
835.80	26717.80
835.98	26695.27
836.15	26525.29
836.33	26742.38
836.51	26658.41
836.68	26377.84
836.86	26478.19
837.04	26900.07
837.21	26560.11
837.39	26418.80
837.57	26377.84
837.75	26586.73
837.92	26084.98
838.10	26044.02
838.28	26021.49
838.45	26328.69
838.63	26091.12
838.81	26250.86
838.98	25785.97
839.16	25722.49
839.34	25994.87
839.51	25943.67
839.69	25847.41
839.87	25876.09
840.04	26054.26
840.22	25734.78
840.40	25710.20
840.57	25321.09
840.75	25773.69
840.93	25568.89
841.10	25349.76
841.28	25646.71
841.46	25880.18
841.63	25640.57
841.81	25425.53
841.98	25210.50
842.16	25417.34
842.34	25489.02
842.51	25024.13
842.69	25648.76
842.87	25202.30
843.04	25540.22
843.22	24952.45
843.40	25136.77
843.57	24876.68
843.75	24925.83
843.92	25097.86
844.10	24913.54
844.28	24862.34
844.45	24880.77
844.63	25052.80
844.81	24977.03
844.98	24764.04
845.16	24942.21
845.33	24667.78
845.51	24403.60
845.69	24487.56
845.86	24477.32
846.04	24155.79
846.21	24510.09
846.39	24749.70
846.57	24161.94
846.74	24542.86
846.92	24452.75
847.09	24501.90
847.27	24106.64
847.45	24274.57
847.62	24514.19
847.80	24325.77
847.97	24331.92
848.15	24157.84
848.32	23856.79
848.50	23979.67
848.68	23752.34
848.85	24059.54
849.03	23631.51
849.20	24108.69
849.38	23834.26
849.56	23881.36
849.73	23809.68
849.91	23672.47
850.08	23901.84
850.26	23613.08
850.43	23778.97
850.61	23617.18
850.78	23469.72
850.96	23592.60
851.14	23269.02
851.31	23185.05
851.49	23535.26
851.66	23604.89
851.84	23469.72
852.01	23201.44
852.19	23357.08
852.36	23269.02
852.54	23066.27
852.71	23338.65
852.89	23160.48
853.07	23088.80
853.24	23226.01
853.42	23060.13
853.59	23144.09
853.77	23209.63
853.94	23285.40
854.12	23201.44
854.29	22894.24
854.47	23000.74
854.64	22775.46
854.82	22898.34
854.99	22816.42
855.17	22865.57
855.34	22513.32
855.52	22767.27
855.69	22703.78
855.87	22564.52
856.04	22648.49
856.22	22503.08
856.39	22329.00
856.57	22484.65
856.74	22222.51
856.92	22632.10
857.09	22214.32
857.27	22218.41
857.44	22388.39
857.62	22513.32
857.79	22240.94
857.97	22097.58
858.14	22173.36
858.32	22279.85
858.49	22019.76
858.67	22091.44
858.84	21950.13
859.02	22195.89
859.19	22046.38
859.37	21900.98
859.54	22099.63
859.72	21737.14
859.89	21782.20
860.06	22150.83
860.24	21819.06
860.41	22165.17
860.59	21731.00
860.76	21751.48
860.94	21497.53
861.11	21876.40
861.29	21737.14
861.46	21536.44
861.64	21350.07
861.81	21571.25
861.98	21583.54
862.16	21255.87
862.33	21405.37
862.51	21262.01
862.68	21712.56
862.86	21372.60
863.03	21415.61
863.21	21186.24
863.38	21180.09
863.55	20862.66
863.73	21321.40
863.90	21225.15
864.08	21085.89
864.25	20960.96
864.43	21059.26
864.60	20973.25
864.77	20815.55
864.95	21108.41
865.12	20694.72
865.30	21104.32
865.47	21036.74
865.64	20625.09
865.82	20801.22
865.99	20709.06
866.17	20858.56
866.34	20469.45
866.51	20287.18
866.69	20487.88
866.86	20592.33
867.04	20565.70
867.21	20491.98
867.38	20532.93
867.56	20584.13
867.73	20418.25
867.91	20006.61
868.08	20180.68
868.25	20156.11
868.43	19984.08
868.60	20022.99
868.78	19887.82
868.95	20025.04
869.12	20008.65
869.30	19766.99
869.47	20139.72
869.64	20074.19
869.82	20049.61
869.99	19898.06
870.16	19891.92
870.34	19764.95
870.51	19943.12
870.69	19723.99
870.86	19949.26
871.03	19629.78
871.21	19664.60
871.38	19838.67
871.55	19803.86
871.73	19439.32
871.90	19353.30
872.07	19134.17
872.25	19099.36
872.42	19457.75
872.59	19275.48
872.77	19250.91
872.94	19474.13
873.11	19259.10
873.29	19273.43
873.46	19238.62
873.63	19154.65
873.81	19226.33
873.98	18845.41
874.15	18585.32
874.33	18806.50
874.50	18718.43
874.67	18820.83
874.85	18857.70
875.02	18450.15
875.19	18654.95
875.37	18650.85
875.54	18370.28
875.71	18523.88
875.88	18515.69
876.06	18501.35
876.23	18452.20
876.40	18228.97
876.58	18544.36
876.75	18419.43
876.92	18003.69
877.10	18343.66
877.27	18253.55
877.44	17907.44
877.61	18212.59
877.79	18069.23
877.96	17964.78
878.13	18161.39
878.31	17964.78
878.48	17630.96
878.65	17647.35
878.82	17723.12
879.00	18073.32
879.17	17884.91
879.34	17708.79
879.51	17651.44
879.69	17688.31
879.86	17538.80
880.03	17815.28
880.21	17399.54
880.38	17409.78
880.55	17522.42
880.72	17323.77
880.90	17426.17
881.07	17442.55
881.24	17491.70
881.41	17442.55
881.59	17358.58
881.76	17372.92
881.93	17194.75
882.10	17168.12
882.28	17372.92
882.45	17065.72
882.62	17133.31
882.79	17041.15
882.96	17010.43
883.14	17329.91
883.31	17196.79
883.48	16809.73
883.65	16936.70
883.83	17108.73
884.00	16930.56
884.17	16928.51
884.34	16940.80
884.51	16762.62
884.69	16695.04
884.86	16826.11
885.03	16946.94
885.20	16563.97
885.38	16895.74
885.55	16668.42
885.72	16508.68
885.89	16668.42
886.06	16547.59
886.24	16391.94
886.41	16551.68
886.58	16957.18
886.75	16781.06
886.92	16230.15
887.10	16637.70
887.27	16244.49
887.44	16494.34
887.61	16584.45
887.78	16760.58
887.95	16482.05
888.13	16150.28
888.30	16287.50
888.47	16062.22
888.64	16011.02
888.81	16424.71
888.99	15900.43
889.16	16187.14
889.33	16148.23
889.50	16099.08
889.67	16084.75
889.84	15961.87
890.01	16072.46
890.19	16072.46
890.36	15746.83
890.53	15748.88
890.70	15726.35
890.87	15931.15
891.04	15701.78
891.22	15787.79
891.39	15755.02
891.56	15925.00
891.73	15527.70
891.90	15499.03
892.07	15394.58
892.24	15488.79
892.42	15752.98
892.59	15585.04
892.76	15347.48
892.93	15404.82
893.10	15451.92
893.27	15617.81
893.44	15361.81
893.61	15351.57
893.79	15503.12
893.96	15519.51
894.13	15300.37
894.30	15425.30
894.47	15402.77
894.64	15494.93
894.81	15333.14
894.98	15451.92
895.15	15466.26
895.33	15251.22
895.50	15413.01
895.67	15437.59
895.84	15169.30
896.01	15093.53
896.18	15335.19
896.35	15261.46
896.52	15355.67
896.69	15093.53
896.86	15294.23
897.04	15181.59
897.21	15206.17
897.38	15306.52
897.55	15044.38
897.72	15200.02
897.89	15146.78
898.06	15281.94
898.23	15286.04
898.40	15283.99
898.57	15054.62
898.74	15017.75
898.91	15116.06
899.08	15335.19
899.26	15128.35
899.43	15271.70
899.60	15085.34
899.77	14968.60
899.94	15175.45
900.11	14872.35
900.28	14987.04
900.45	15044.38
900.62	14833.44
900.79	15177.50
900.96	14788.38
901.13	15005.47
901.30	14935.84
901.47	14915.36
901.64	15064.86
901.81	15159.06
901.98	14931.74
902.15	15185.69
902.32	14923.55
902.49	14817.05
902.66	15163.16
902.83	14941.98
903.01	15105.82
903.18	14810.91
903.35	14894.88
903.52	14952.22
903.69	14728.99
903.86	14927.64
904.03	14952.22
904.20	14882.59
904.37	14962.46
904.54	14905.12
904.71	14692.13
904.88	14915.36
905.05	14886.68
905.22	14886.68
905.39	14845.73
905.56	15097.63
905.73	14970.65
905.90	14970.65
906.07	14831.39
906.24	14862.11
906.41	14786.33
906.58	14901.02
906.75	14794.53
906.92	14657.31
907.09	14866.21
907.26	14876.44
907.43	14675.74
907.60	14792.48
907.77	14804.77
907.93	14946.08
908.10	14622.50
908.27	14866.21
908.44	14812.96
908.61	14673.70
908.78	14755.61
908.95	14599.97
909.12	14528.29
909.29	14544.67
909.46	14714.66
909.63	14815.01
909.80	14772.00
909.97	14702.37
910.14	14726.94
910.31	14692.13
910.48	14741.28
910.65	14630.69
910.82	14620.45
910.99	14542.63
911.16	14481.19
911.33	14741.28
911.50	14624.54
911.66	14485.28
911.83	14573.35
912.00	14325.54
912.17	14546.72
912.34	14364.45
912.51	14438.18
912.68	14323.49
912.85	14399.27
913.02	14317.35
913.19	14395.17
913.36	14327.59
913.53	14425.89
913.70	14165.80
913.86	14288.68
914.03	14298.92
914.20	14227.24
914.37	14251.81
914.54	14227.24
914.71	14368.55
914.88	14114.60
915.05	13850.41
915.22	14049.07
915.39	14071.59
915.55	13799.21
915.72	13776.69
915.89	13752.11
916.06	13633.33
916.23	13741.87
916.40	13672.24
916.57	13633.33
916.74	13692.72
916.91	13696.82
917.07	13506.35
917.24	13340.47
917.41	13659.95
917.58	13410.10
917.75	13242.17
917.92	13186.87
918.09	13303.60
918.26	13330.23
918.42	13479.73
918.59	13518.64
918.76	13287.22
918.93	13276.98
919.10	12990.27
919.27	13205.30
919.44	13281.08
919.60	13389.62
919.77	12930.87
919.94	12980.03
920.11	12994.36
920.28	12867.39
920.45	12918.59
920.61	12861.24
920.78	12769.09
920.95	12582.72
921.12	12640.06
921.29	12758.85
921.46	12701.50
921.62	12545.86
921.79	12625.73
921.96	12476.23
922.13	12508.99
922.30	12318.53
922.47	12431.17
922.63	12193.61
922.80	12562.24
922.97	12359.49
923.14	12255.04
923.31	12179.27
923.47	12154.69
923.64	12142.41
923.81	11951.95
923.98	12113.74
924.15	11906.89
924.32	11808.59
924.48	11910.99
924.65	11982.67
924.82	11923.27
924.99	11708.24
925.15	11556.69
925.32	11624.27
925.49	11415.38
925.66	11376.47
925.83	11374.42
925.99	11382.61
926.16	11628.37
926.33	11286.36
926.50	11089.75
926.67	11282.26
926.83	11188.05
927.00	11132.76
927.17	11284.31
927.34	11112.28
927.50	10979.16
927.67	11198.29
927.84	11059.03
928.01	10891.10
928.17	11052.89
928.34	10991.45
928.51	10927.96
928.68	10891.10
928.84	10747.74
929.01	10667.87
929.18	10387.30
929.35	10583.90
929.51	10467.17
929.68	10403.68
929.85	10610.53
930.02	10415.97
930.18	10438.50
930.35	10248.04
930.52	10405.73
930.69	10418.02
930.85	10278.76
931.02	10180.45
931.19	9942.89
931.36	9981.80
931.52	10024.81
931.69	10084.20
931.86	9723.76
932.02	9858.92
932.19	9906.02
932.36	9850.73
932.53	9736.04
932.69	9772.91
932.86	9832.30
933.03	9666.41
933.19	9502.58
933.36	9510.77
933.53	9600.88
933.70	9297.78
933.86	9416.56
934.03	9457.52
934.20	9275.25
934.36	9232.24
934.53	9125.75
934.70	9023.35
934.86	9037.69
935.03	8947.58
935.20	9148.28
935.36	9062.26
935.53	8826.75
935.70	8722.30
935.86	8916.86
936.03	8660.86
936.20	8503.17
936.36	8374.14
936.53	8318.85
936.70	8488.83
936.86	8597.37
937.03	8265.60
937.20	8034.18
937.36	8195.97
937.53	8085.38
937.70	7733.13
937.86	7800.71
938.03	7769.99
938.20	7821.19
938.36	7538.57
938.53	7358.35
938.70	7368.59
938.86	7548.81
939.03	7470.99
939.20	7258.00
939.36	7114.64
939.53	7182.23
939.70	7071.64
939.86	6979.48
940.03	6803.35
940.19	6842.26
940.36	6645.66
940.53	6739.87
940.69	6483.87
940.86	6395.81
941.03	6397.85
941.19	6272.93
941.36	6533.02
941.52	6313.89
941.69	6055.84
941.86	6180.77
942.02	6152.10
942.19	6035.36
942.35	6098.85
942.52	5885.86
942.69	5984.16
942.85	5984.16
943.02	5836.71
943.18	5844.90
943.35	5709.74
943.52	5633.96
943.68	5642.15
943.85	5750.70
944.01	5595.05
944.18	5482.41
944.35	5707.69
944.51	5402.54
944.68	5461.93
944.84	5287.86
945.01	5375.92
945.17	5402.54
945.34	5334.96
945.51	5511.08
945.67	5310.38
945.84	5558.19
946.00	5384.11
946.17	5291.95
946.33	5287.86
946.50	5418.93
946.67	5377.97
946.83	5158.83
947.00	5310.38
947.16	5322.67
947.33	5263.28
947.49	5351.34
947.66	5291.95
947.82	5279.66
947.99	5224.37
948.16	5275.57
948.32	5179.31
948.49	5328.81
948.65	5306.29
948.82	5230.51
948.98	5187.50
949.15	5152.69
949.31	5226.42
949.48	5185.46
949.64	5160.88
949.81	5273.52
949.97	5250.99
950.14	5332.91
950.30	5126.07
950.47	5230.51
950.63	5220.27
950.80	5193.65
950.96	5263.28
951.13	5187.50
951.30	5355.44
951.46	5285.81
951.63	5337.01
951.79	5230.51
951.96	5515.18
952.12	5162.93
952.29	5195.70
952.45	5380.01
952.62	5357.49
952.78	5367.73
952.94	5275.57
953.11	5320.62
953.27	5291.95
953.44	5517.23
953.60	5429.17
953.77	5345.20
953.93	5371.82
954.10	5267.38
954.26	5291.95
954.43	5414.83
954.59	5531.56
954.76	5472.17
954.92	5470.12
955.09	5506.99
955.25	5369.77
955.42	5408.69
955.58	5531.56
955.75	5484.46
955.91	5484.46
956.07	5361.58
956.24	5554.09
956.40	5537.71
956.57	5367.73
956.73	5308.34
956.90	5453.74
957.06	5453.74
957.23	5316.53
957.39	5238.70
957.56	5265.33
957.72	5138.35
957.88	5431.21
958.05	5466.03
958.21	5453.74
958.38	5394.35
958.54	5330.86
958.71	5578.67
958.87	5283.76
959.03	5324.72
959.20	5377.97
959.36	5408.69
959.53	5418.93
959.69	5326.77
959.85	5390.25
960.02	5398.45
960.18	5386.16
960.35	5455.79
960.51	5447.60
960.68	5324.72
960.84	5332.91
961.00	5267.38
961.17	5259.18
961.33	5484.46
961.50	5418.93
961.66	5431.21
961.82	5572.52
961.99	5386.16
962.15	5492.65
962.31	5306.29
962.48	5394.35
962.64	5445.55
962.81	5267.38
962.97	5488.56
963.13	5412.78
963.30	5337.01
963.46	5244.85
963.62	5416.88
963.79	5369.77
963.95	5263.28
964.12	5269.42
964.28	5449.64
964.44	5277.62
964.61	5414.83
964.77	5341.10
964.93	5400.49
965.10	5189.55
965.26	5246.90
965.42	5291.95
965.59	5271.47
965.75	5281.71
965.92	5318.57
966.08	5349.29
966.24	5255.09
966.41	5308.34
966.57	5189.55
966.73	5207.98
966.90	5259.18
967.06	5353.39
967.22	5226.42
967.39	5230.51
967.55	5179.31
967.71	5212.08
967.88	5169.07
968.04	5148.59
968.20	5111.73
968.37	5095.35
968.53	5074.87
968.69	5013.43
968.85	5130.16
969.02	5081.01
969.18	5191.60
969.34	5031.86
969.51	5183.41
969.67	5101.49
969.83	5017.52
970.00	5285.81
970.16	5109.68
970.32	5087.15
970.48	5146.55
970.65	4822.97
970.81	4951.99
970.97	5052.34
971.14	4958.13
971.30	5083.06
971.46	4964.28
971.63	4913.08
971.79	5025.72
971.95	4898.74
972.11	4937.65
972.28	4982.71
972.44	5074.87
972.60	4788.15
972.76	4964.28
972.93	4792.25
973.09	5025.72
973.25	5011.38
973.42	4943.80
973.58	4917.17
973.74	4935.60
973.90	4892.60
974.07	4855.73
974.23	4816.82
974.39	4880.31
974.55	4806.58
974.72	4820.92
974.88	4726.71
975.04	4859.83
975.20	4650.94
975.37	4706.23
975.53	4685.75
975.69	4837.30
975.85	4751.29
976.01	4695.99
976.18	4718.52
976.34	4865.97
976.50	4835.25
976.66	4775.86
976.83	4773.82
976.99	4685.75
977.15	4599.74
977.31	4597.69
977.47	4591.55
977.64	4673.46
977.80	4638.65
977.96	4689.85
978.12	4716.47
978.29	4605.88
978.45	4464.57
978.61	4599.74
978.77	4677.56
978.93	4573.11
979.10	4493.24
979.26	4538.30
979.42	4616.12
979.58	4458.43
979.74	4376.51
979.91	4491.20
980.07	4421.56
980.23	4671.42
980.39	4366.27
980.55	4569.02
980.71	4503.48
980.88	4427.71
981.04	4466.62
981.20	4548.54
981.36	4540.35
981.52	4411.32
981.68	4417.47
981.85	4440.00
982.01	4339.65
982.17	4280.25
982.33	4302.78
982.49	4399.04
982.65	4431.80
982.82	4206.53
982.98	4302.78
983.14	4151.23
983.30	4229.06
983.46	4390.84
983.62	4329.41
983.79	4243.39
983.95	4216.77
984.11	4138.94
984.27	4245.44
984.43	4243.39
984.59	4206.53
984.75	4282.30
984.91	4087.75
985.08	4165.57
985.24	4138.94
985.40	4069.31
985.56	4157.38
985.72	4097.99
985.88	4227.01
986.04	3977.16
986.20	4104.13
986.37	3985.35
986.53	4009.92
986.69	4044.74
986.85	4036.55
987.01	3979.20
987.17	4083.65
987.33	3928.00
987.49	3999.68
987.65	3966.92
987.82	3973.06
987.98	3956.68
988.14	4159.42
988.30	3899.33
988.46	3936.20
988.62	3919.81
988.78	3905.48
988.94	3956.68
989.10	3760.07
989.26	3819.46
989.42	3880.90
989.59	3928.00
989.75	3885.00
989.91	3878.85
990.07	3731.40
990.23	3778.50
990.39	3766.21
990.55	3825.61
990.71	3778.50
990.87	3866.56
991.03	3887.04
991.19	3887.04
991.35	3745.73
991.51	3766.21
991.67	3891.14
991.83	3794.89
992.00	3743.69
992.16	3774.41
992.32	3655.62
992.48	3780.55
992.64	3594.19
992.80	3698.63
992.96	3704.78
993.12	3655.62
993.28	3710.92
993.44	3639.24
993.60	3606.47
993.76	3706.82
993.92	3649.48
994.08	3651.53
994.24	3596.23
994.40	3626.95
994.56	3600.33
994.72	3649.48
994.88	3604.42
995.04	3641.29
995.20	3499.98
995.36	3571.66
995.52	3555.27
995.68	3637.19
995.84	3465.16
996.00	3624.90
996.16	3551.18
996.32	3526.60
996.48	3497.93
996.64	3469.26
996.80	3514.31
996.96	3489.74
997.12	3420.11
997.28	3479.50
997.44	3385.29
997.60	3438.54
997.76	3418.06
997.92	3416.01
998.08	3518.41
998.24	3395.53
998.40	3366.86
998.56	3416.01
998.72	3424.20
998.88	3332.05
999.04	3401.68
999.20	3413.96
999.36	3338.19
999.52	3405.77
999.68	3373.00
999.84	3418.06
1000.00	3207.12
1000.16	3280.85
1000.32	3229.65
1000.48	3403.72
1000.64	3276.75
1000.80	3192.78
1000.95	3129.30
1001.11	3399.63
1001.27	3223.50
1001.43	3149.78
1001.59	3219.41
1001.75	3182.54
1001.91	3227.60
1002.07	3129.30
1002.23	3082.19
1002.39	3170.26
1002.55	3344.33
1002.71	3155.92
1002.87	3184.59
1003.03	3100.62
1003.19	3221.45
1003.34	3188.69
1003.50	3190.74
1003.66	3153.87
1003.82	3004.37
1003.98	3100.62
1004.14	3108.82
1004.30	3018.71
1004.46	2961.36
1004.62	3022.80
1004.78	3047.38
1004.94	3078.10
1005.09	3012.56
1005.25	2992.08
1005.41	3043.28
1005.57	3071.95
1005.73	3033.04
1005.89	2953.17
1006.05	2947.03
1006.21	3190.74
1006.37	2883.54
1006.52	2930.64
1006.68	2844.63
1006.84	3114.96
1007.00	2899.92
1007.16	2965.46
1007.32	2850.77
1007.48	2967.51
1007.64	2967.51
1007.79	2904.02
1007.95	2815.96
1008.11	2936.79
1008.27	2846.68
1008.43	2928.60
1008.59	2899.92
1008.75	2971.60
1008.91	2877.40
1009.06	2901.97
1009.22	2940.88
1009.38	2875.35
1009.54	2850.77
1009.70	2871.25
1009.86	2863.06
1010.01	2813.91
1010.17	2805.72
1010.33	2754.52
1010.49	2717.65
1010.65	2895.83
1010.81	2703.32
1010.96	2811.86
1011.12	2770.90
1011.28	2631.64
1011.44	2756.57
1011.60	2664.41
1011.76	2648.02
1011.91	2740.18
1012.07	2666.46
1012.23	2578.39
1012.39	2609.11
1012.55	2621.40
1012.71	2637.78
1012.86	2748.37
1013.02	2725.85
1013.18	2582.49
1013.34	2643.93
1013.50	2752.47
1013.65	2711.51
1013.81	2613.21
1013.97	2664.41
1014.13	2666.46
1014.29	2731.99
1014.44	2684.89
1014.60	2607.06
1014.76	2582.49
1014.92	2572.25
1015.07	2568.15
1015.23	2625.50
1015.39	2541.53
1015.55	2588.63
1015.71	2512.86
1015.86	2557.91
1016.02	2461.66
1016.18	2463.71
1016.34	2531.29
1016.49	2547.67
1016.65	2639.83
1016.81	2605.02
1016.97	2570.20
1017.12	2600.92
1017.28	2426.84
1017.44	2406.36
1017.60	2361.31
1017.75	2402.27
1017.91	2471.90
1018.07	2435.03
1018.23	2555.86
1018.38	2422.75
1018.54	2441.18
1018.70	2359.26
1018.86	2369.50
1019.01	2432.99
1019.17	2410.46
1019.33	2473.95
1019.49	2414.56
1019.64	2428.89
1019.80	2467.80
1019.96	2389.98
1020.12	2357.21
1020.27	2375.64
1020.43	2287.58
1020.59	2346.97
1020.74	2379.74
1020.90	2447.32
1021.06	2236.38
1021.22	2336.73
1021.37	2256.86
1021.53	2287.58
1021.69	2406.36
1021.84	2256.86
1022.00	2230.24
1022.16	2314.20
1022.31	2303.96
1022.47	2355.16
1022.63	2373.60
1022.79	2263.01
1022.94	2267.10
1023.10	2375.64
1023.26	2336.73
1023.41	2324.44
1023.57	2246.62
1023.73	2297.82
1023.88	2283.49
1024.04	2279.39
1024.20	2297.82
1024.35	2269.15
1024.51	2267.10
1024.67	2191.33
1024.82	2312.16
1024.98	2183.13
1025.14	2260.96
1025.29	2306.01
1025.45	2326.49
1025.61	2138.08
1025.76	2279.39
1025.92	2176.99
1026.08	2220.00
1026.23	2170.85
1026.39	2332.64
1026.55	2148.32
1026.70	2105.31
1026.86	2066.40
1027.02	2246.62
1027.17	2174.94
1027.33	2138.08
1027.48	2148.32
1027.64	2158.56
1027.80	2189.28
1027.95	2050.02
1028.11	2021.35
1028.27	2203.61
1028.42	2224.09
1028.58	2148.32
1028.73	2138.08
1028.89	2060.26
1029.05	2234.33
1029.20	2140.13
>>>>>End Processed Spectral Data<<<<<
