SpectraSuite Data File
++++++++++++++++++++++++++++++++++++
Date: Fri Jun 02 14:53:32 CEST 2017
User: INFO_000
Dark Spectrum Present: No
Reference Spectrum Present: No
Number of Sampled Component Spectra: 1
Spectrometers: USB4H00879
Integration Time (usec): 80000 (USB4H00879)
Spectra Averaged: 1 (USB4H00879)
Boxcar Smoothing: 0 (USB4H00879)
Correct for Electrical Dark: No (USB4H00879)
Strobe/Lamp Enabled: No (USB4H00879)
Correct for Detector Non-linearity: No (USB4H00879)
Correct for Stray Light: No (USB4H00879)
Number of Pixels in Processed Spectrum: 3648
>>>>>Begin Processed Spectral Data<<<<<
345.13	1286.12
345.34	1286.12
345.56	1286.12
345.78	1316.84
345.99	1292.27
346.21	1667.05
346.42	1644.52
346.64	1617.90
346.86	1847.27
347.07	1716.20
347.29	1820.64
347.50	1605.61
347.72	1662.95
347.94	1744.87
348.15	1597.42
348.37	1615.85
348.59	1621.99
348.80	1660.90
349.02	1765.35
349.23	1873.89
349.45	1896.42
349.67	1832.93
349.88	1765.35
350.10	1900.52
350.31	1904.61
350.53	1863.65
350.75	1931.23
350.96	1716.20
351.18	1888.23
351.39	1914.85
351.61	1841.12
351.82	1888.23
352.04	1886.18
352.26	1746.92
352.47	1820.64
352.69	1943.52
352.90	1742.82
353.12	1814.50
353.34	1925.09
353.55	1886.18
353.77	1845.22
353.98	1935.33
354.20	1818.60
354.41	1935.33
354.63	1984.48
354.85	2045.92
355.06	1941.47
355.28	1787.88
355.49	1931.23
355.71	1945.57
355.92	1947.62
356.14	1953.76
356.35	1877.99
356.57	1898.47
356.79	1974.24
357.00	1824.74
357.22	1955.81
357.43	1847.27
357.65	1908.71
357.86	1859.56
358.08	1918.95
358.29	1947.62
358.51	1890.28
358.72	1959.91
358.94	1908.71
359.16	1888.23
359.37	1941.47
359.59	1941.47
359.80	1972.19
360.02	1980.39
360.23	1976.29
360.45	1992.67
360.66	1925.09
360.88	1953.76
361.09	1902.56
361.31	2043.87
361.52	1953.76
361.74	2039.78
361.95	1978.34
362.17	1902.56
362.38	2097.12
362.60	2047.97
362.81	1898.47
363.03	1902.56
363.24	1968.10
363.46	2047.97
363.67	1986.53
363.89	2017.25
364.10	1970.15
364.32	1998.82
364.53	2041.82
364.75	1904.61
364.96	2097.12
365.18	2052.06
365.39	1933.28
365.61	2033.63
365.82	2150.37
366.04	2027.49
366.25	1970.15
366.47	2043.87
366.68	2101.22
366.90	1988.58
367.11	2084.83
367.33	2035.68
367.54	2009.06
367.76	1968.10
367.97	2154.46
368.19	2045.92
368.40	2076.64
368.62	2007.01
368.83	1982.43
369.05	2054.11
369.26	2064.35
369.48	2043.87
369.69	2078.69
369.91	2015.20
370.12	2060.26
370.33	2136.03
370.55	2007.01
370.76	2093.02
370.98	2086.88
371.19	2031.58
371.41	2023.39
371.62	2058.21
371.84	1961.95
372.05	2185.18
372.27	1996.77
372.48	2183.13
372.69	2039.78
372.91	2154.46
373.12	2228.19
373.34	2113.50
373.55	2166.75
373.77	2150.37
373.98	2068.45
374.20	2152.42
374.41	2220.00
374.62	2103.26
374.84	2199.52
375.05	2133.98
375.27	2129.89
375.48	2230.24
375.70	2215.90
375.91	2256.86
376.12	2289.63
376.34	2289.63
376.55	2131.94
376.77	2179.04
376.98	2166.75
377.19	2148.32
377.41	2142.18
377.62	2250.72
377.84	2269.15
378.05	2316.25
378.27	2238.43
378.48	2379.74
378.69	2303.96
378.91	2367.45
379.12	2211.81
379.34	2240.48
379.55	2252.77
379.76	2297.82
379.98	2224.09
380.19	2191.33
380.41	2318.30
380.62	2322.40
380.83	2215.90
381.05	2232.29
381.26	2389.98
381.47	2293.72
381.69	2367.45
381.90	2363.36
382.12	2297.82
382.33	2338.78
382.54	2342.88
382.76	2289.63
382.97	2371.55
383.19	2277.34
383.40	2410.46
383.61	2320.35
383.83	2215.90
384.04	2340.83
384.25	2344.92
384.47	2428.89
384.68	2256.86
384.89	2357.21
385.11	2254.81
385.32	2381.79
385.54	2301.92
385.75	2445.27
385.96	2482.14
386.18	2475.99
386.39	2351.07
386.60	2361.31
386.82	2465.75
387.03	2387.93
387.24	2439.13
387.46	2480.09
387.67	2529.24
387.88	2484.19
388.10	2551.77
388.31	2457.56
388.52	2555.86
388.74	2508.76
388.95	2467.80
389.16	2510.81
389.38	2602.97
389.59	2631.64
389.80	2545.63
390.02	2678.74
390.23	2695.13
390.44	2611.16
390.66	2619.35
390.87	2467.80
391.08	2523.10
391.30	2643.93
391.51	2605.02
391.72	2619.35
391.94	2584.54
392.15	2613.21
392.36	2719.70
392.58	2672.60
392.79	2729.94
393.00	2678.74
393.22	2770.90
393.43	2791.38
393.64	2826.20
393.85	2895.83
394.07	2639.83
394.28	2731.99
394.49	2779.09
394.71	2785.24
394.92	2908.12
395.13	2750.42
395.35	2695.13
395.56	2795.48
395.77	2697.17
395.98	2959.31
396.20	2844.63
396.41	3016.66
396.62	2885.59
396.84	2897.88
397.05	2750.42
397.26	2887.64
397.47	2944.98
397.69	2875.35
397.90	3049.43
398.11	2961.36
398.32	2828.24
398.54	2951.12
398.75	2877.40
398.96	2951.12
399.18	3055.57
399.39	3063.76
399.60	3053.52
399.81	2967.51
400.03	2994.13
400.24	3356.62
400.45	2916.31
400.66	3076.05
400.88	2994.13
401.09	3190.74
401.30	3020.75
401.51	3231.69
401.73	3153.87
401.94	3094.48
402.15	3172.30
402.36	3045.33
402.58	3213.26
402.79	3190.74
403.00	3037.14
403.21	3180.50
403.43	3311.57
403.64	3411.92
403.85	3127.25
404.06	3344.33
404.27	3100.62
404.49	3256.27
404.70	3194.83
404.91	3344.33
405.12	3385.29
405.34	3387.34
405.55	3391.44
405.76	3182.54
405.97	3262.41
406.19	3475.40
406.40	3366.86
406.61	3358.67
406.82	3387.34
407.03	3284.94
407.25	3178.45
407.46	3432.40
407.67	3424.20
407.88	3475.40
408.09	3450.83
408.31	3495.88
408.52	3356.62
408.73	3422.16
408.94	3432.40
409.15	3530.70
409.37	3592.14
409.58	3510.22
409.79	3528.65
410.00	3508.17
410.21	3385.29
410.43	3522.51
410.64	3438.54
410.85	3551.18
411.06	3483.59
411.27	3594.19
411.48	3715.02
411.70	3549.13
411.91	3614.66
412.12	3753.93
412.33	3606.47
412.54	3608.52
412.76	3835.85
412.97	3680.20
413.18	3553.23
413.39	3696.58
413.60	3741.64
413.81	3719.11
414.03	3596.23
414.24	3631.05
414.45	3848.13
414.66	3616.71
414.87	3762.12
415.08	3735.50
415.30	3755.97
415.51	3835.85
415.72	3764.17
415.93	3749.83
416.14	3891.14
416.35	3872.71
416.56	3837.89
416.78	3882.95
416.99	3815.37
417.20	3807.17
417.41	3958.72
417.62	3891.14
417.83	4011.97
418.04	3983.30
418.26	3973.06
418.47	3954.63
418.68	4003.78
418.89	3866.56
419.10	4155.33
419.31	4100.03
419.52	4102.08
419.73	4095.94
419.95	4165.57
420.16	4059.07
420.37	4020.16
420.58	4063.17
420.79	3930.05
421.00	4122.56
421.21	4208.58
421.42	4118.47
421.63	4206.53
421.85	4054.98
422.06	4136.90
422.27	4261.82
422.48	4274.11
422.69	4276.16
422.90	4265.92
423.11	4300.73
423.32	4423.61
423.53	4442.04
423.75	4356.03
423.96	4544.44
424.17	4396.99
424.38	4485.05
424.59	4460.48
424.80	4648.89
425.01	4589.50
425.22	4503.48
425.43	4474.81
425.64	4640.70
425.85	4599.74
426.06	4642.75
426.28	4616.12
426.49	4630.46
426.70	4626.36
426.91	4454.33
427.12	4591.55
427.33	4624.31
427.54	4679.61
427.75	4831.16
427.96	4951.99
428.17	4673.46
428.38	4898.74
428.59	4923.32
428.80	4816.82
429.01	4915.12
429.23	4902.84
429.44	5216.18
429.65	5005.24
429.86	5160.88
430.07	4927.41
430.28	4990.90
430.49	5009.33
430.70	5193.65
430.91	5040.05
431.12	5126.07
431.33	5244.85
431.54	5236.66
431.75	5105.59
431.96	5162.93
432.17	5158.83
432.38	5150.64
432.59	5496.75
432.80	5369.77
433.01	5222.32
433.22	5296.05
433.43	5416.88
433.64	5396.40
433.85	5113.78
434.06	5459.88
434.27	5439.40
434.49	5412.78
434.70	5511.08
434.91	5492.65
435.12	5550.00
435.33	5531.56
435.54	5466.03
435.75	5451.69
435.96	5441.45
436.17	5537.71
436.38	5650.35
436.59	5668.78
436.80	5447.60
437.01	5875.62
437.22	5861.29
437.43	5830.57
437.64	5433.26
437.85	5832.62
438.06	5875.62
438.27	5679.02
438.48	5699.50
438.69	6012.84
438.90	5857.19
439.11	5842.85
439.32	5908.39
439.53	5857.19
439.74	5926.82
439.95	5988.26
440.16	5871.53
440.37	6064.04
440.57	5900.20
440.78	6080.42
440.99	6023.08
441.20	6088.61
441.41	5894.05
441.62	6109.09
441.83	5965.73
442.04	6139.81
442.25	6152.10
442.46	6055.84
442.67	6172.58
442.88	6573.98
443.09	6090.66
443.30	6139.81
443.51	6256.54
443.72	6500.25
443.93	6303.65
444.14	6383.52
444.35	6191.01
444.56	6360.99
444.77	6317.98
444.98	6555.55
445.19	6516.64
445.40	6442.91
445.61	6397.85
445.81	6600.60
446.02	6457.25
446.23	6510.49
446.44	6416.29
446.65	6657.95
446.86	6545.31
447.07	6633.37
447.28	6819.74
447.49	6719.39
447.70	6655.90
447.91	6682.52
448.12	6723.48
448.33	6799.26
448.54	6770.58
448.74	6760.34
448.95	6915.99
449.16	6709.15
449.37	6979.48
449.58	6786.97
449.79	7325.58
450.00	6897.56
450.21	7045.01
450.42	7139.22
450.63	7305.10
450.84	7042.96
451.05	7079.83
451.25	7094.16
451.46	7133.08
451.67	7325.58
451.88	7339.92
452.09	7305.10
452.30	7231.38
452.51	7186.32
452.72	7323.54
452.93	7737.23
453.13	7096.21
453.34	7307.15
453.55	7450.51
453.76	7501.71
453.97	7606.16
454.18	7380.88
454.39	7720.84
454.60	7456.65
454.81	7606.16
455.01	7757.71
455.22	7526.29
455.43	7722.89
455.64	7872.39
455.85	7876.49
456.06	7935.88
456.27	7823.24
456.48	7817.10
456.68	7974.79
456.89	7905.16
457.10	8095.62
457.31	8030.09
457.52	8066.95
457.73	8085.38
457.94	8167.30
458.14	8054.66
458.35	8568.70
458.56	8292.23
458.77	8271.75
458.98	8427.39
459.19	8298.37
459.39	8370.05
459.60	8595.32
459.81	8417.15
460.02	8527.74
460.23	8382.34
460.44	8853.37
460.65	8669.05
460.85	8744.83
461.06	8845.18
461.27	8664.96
461.48	9047.93
461.69	9062.26
461.89	8781.69
462.10	9033.59
462.31	8908.66
462.52	8992.63
462.73	9023.35
462.94	9373.55
463.14	8908.66
463.35	9209.72
463.56	9707.37
463.77	9453.42
463.98	9240.44
464.18	9342.83
464.39	9637.74
464.60	9856.87
464.81	9744.24
465.02	9666.41
465.23	9951.08
465.43	9559.92
465.64	9748.33
465.85	9979.75
466.06	9647.98
466.27	10094.44
466.47	9873.26
466.68	10383.20
466.89	9963.37
467.10	10168.16
467.30	10045.29
467.51	10282.85
467.72	10547.04
467.93	10245.99
468.14	10399.59
468.34	10588.00
468.55	10661.73
468.76	10776.41
468.97	10481.50
469.17	10719.07
469.38	10958.68
469.59	10919.77
469.80	10692.44
470.01	10880.86
470.21	10868.57
470.42	11134.81
470.63	11353.94
470.84	11124.57
471.04	11315.03
471.25	11319.12
471.46	11546.45
471.67	11454.29
471.87	11433.81
472.08	11685.71
472.29	11880.27
472.50	11579.22
472.70	11798.35
472.91	11751.24
473.12	11990.86
473.33	12027.72
473.53	12382.02
473.74	12027.72
473.95	12488.51
474.16	12498.75
474.36	12470.08
474.57	12767.04
474.78	12678.97
474.99	12574.53
475.19	12672.83
475.40	12957.50
475.61	12963.64
475.81	13162.30
476.02	13111.10
476.23	13176.63
476.44	13410.10
476.64	13530.93
476.85	13727.53
477.06	13487.92
477.27	13979.43
477.47	14026.54
477.68	13862.70
477.89	13983.53
478.09	13922.09
478.30	13975.34
478.51	14497.57
478.71	14311.21
478.92	14487.33
479.13	14618.40
479.34	14718.75
479.54	14634.78
479.75	14743.33
479.96	14962.46
480.16	14749.47
480.37	14976.80
480.58	15085.34
480.78	15347.48
480.99	15447.83
481.20	15511.32
481.41	15314.71
481.61	15490.84
481.82	15920.91
482.03	15714.06
482.23	15795.98
482.44	16142.09
482.65	16135.95
482.85	16170.76
483.06	16312.07
483.27	16027.40
483.47	16035.60
483.68	16437.00
483.89	16568.07
484.09	16324.36
484.30	16600.83
484.51	16957.18
484.71	17008.38
484.92	17094.40
485.13	17022.72
485.33	17280.76
485.54	17164.03
485.75	17508.08
485.95	17600.24
486.16	17553.14
486.37	17870.58
486.57	17770.22
486.78	17870.58
486.98	17866.48
487.19	18028.27
487.40	18024.17
487.60	18267.88
487.81	18603.75
488.02	18200.30
488.22	18349.80
488.43	18460.39
488.64	18683.62
488.84	18693.86
489.05	18820.83
489.25	18849.50
489.46	19209.95
489.67	19078.88
489.87	19226.33
490.08	19320.54
490.29	19054.30
490.49	19568.34
490.70	19400.41
490.90	19709.65
491.11	19838.67
491.32	20066.00
491.52	19859.15
491.73	20145.87
491.94	20207.31
492.14	20121.29
492.35	20278.99
492.55	20217.55
492.76	20373.19
492.97	20768.45
493.17	20336.33
493.38	20819.65
493.58	20952.77
493.79	20989.63
494.00	20825.79
494.20	21143.23
494.41	21190.33
494.61	21147.33
494.82	21307.07
495.02	21106.37
495.23	21636.79
495.44	21536.44
495.64	21626.55
495.85	21851.83
496.05	21939.89
496.26	21345.98
496.47	22140.59
496.67	22034.10
496.88	22199.98
497.08	22304.43
497.29	22255.28
497.49	22410.92
497.70	22326.96
497.91	22742.69
498.11	22703.78
498.32	22785.70
498.52	22797.99
498.73	22931.11
498.93	22984.35
499.14	23051.94
499.34	22904.48
499.55	23236.25
499.76	22861.48
499.96	23301.79
500.17	23197.34
500.37	23754.39
500.58	23379.61
500.78	23633.56
500.99	23533.21
501.19	23633.56
501.40	23680.66
501.60	23754.39
501.81	23860.88
502.02	23963.28
502.22	23901.84
502.43	24084.11
502.63	24288.91
502.84	24389.26
503.04	24473.23
503.25	24202.89
503.45	24718.98
503.66	24647.30
503.86	24860.29
504.07	25042.56
504.27	24761.99
504.48	25081.47
504.68	25165.44
504.89	25216.64
505.09	25089.67
505.30	25108.10
505.50	25501.31
505.71	25355.90
505.91	25245.31
506.12	25241.21
506.32	25253.50
506.53	25409.15
506.73	25456.25
506.94	25810.55
507.14	25534.07
507.35	25638.52
507.55	25921.14
507.76	25751.16
507.96	25884.28
508.17	25958.00
508.37	25826.93
508.58	26123.89
508.78	26248.82
508.99	26050.16
509.19	26226.29
509.40	26476.14
509.60	26144.37
509.81	26670.70
510.01	26486.38
510.22	26402.41
510.42	26701.42
510.63	26674.79
510.83	26844.77
511.04	26578.54
511.24	26893.93
511.44	27080.29
511.65	26928.74
511.85	27012.71
512.06	26840.68
512.26	26775.14
512.47	27250.27
512.67	26992.23
512.88	27221.60
513.08	27240.03
513.29	27434.59
513.49	27446.88
513.69	27274.85
513.90	27756.12
514.10	27735.64
514.31	27369.05
514.51	27840.09
514.72	27881.05
514.92	27663.96
515.13	27792.98
515.33	27829.85
515.53	28073.56
515.74	27709.02
515.94	28276.30
516.15	28126.80
516.35	27887.19
516.56	28505.68
516.76	28530.25
516.96	28653.13
517.17	28243.54
517.37	28382.80
517.58	28653.13
517.78	28743.24
517.99	28325.46
518.19	28726.86
518.39	29183.55
518.60	29267.52
518.80	28751.43
519.01	29066.82
519.21	28945.99
519.41	29152.84
519.62	28857.93
519.82	29042.24
520.03	29423.17
520.23	29204.03
520.43	29222.47
520.64	29943.35
520.84	29705.79
521.05	29732.41
521.25	29892.15
521.45	29902.39
521.66	30070.33
521.86	30006.84
522.07	29937.21
522.27	30037.56
522.47	30162.48
522.68	30578.22
522.88	29857.34
523.08	30377.52
523.29	30438.96
523.49	30473.78
523.70	30553.65
523.90	30647.85
524.10	30854.70
524.31	30934.57
524.51	30602.80
524.71	31270.43
524.92	30955.05
525.12	31313.44
525.33	31102.50
525.53	31331.87
525.73	31723.04
525.94	31389.22
526.14	31387.17
526.34	31677.98
526.55	31741.47
526.75	31964.70
526.95	31766.04
527.16	31551.01
527.36	31890.97
527.56	32337.43
527.77	32056.85
527.97	32314.90
528.17	32384.53
528.38	32388.63
528.58	32552.46
528.78	32962.06
528.99	32355.86
529.19	33213.96
529.39	32613.90
529.60	33052.17
529.80	33109.51
530.00	33115.65
530.21	33295.88
530.41	33340.93
530.61	33328.64
530.82	33650.17
531.02	33504.77
531.22	33355.27
531.43	33740.29
531.63	34225.65
531.83	34158.07
532.04	34303.48
532.24	33928.70
532.44	34229.75
532.64	34100.73
532.85	34690.54
533.05	34526.71
533.25	34493.94
533.46	34381.30
533.66	34799.08
533.86	34883.05
534.07	35102.18
534.27	35182.06
534.47	35732.96
534.67	35077.61
534.88	35243.49
535.08	35200.49
535.28	35780.06
535.49	35448.29
535.69	35673.57
535.89	35833.31
536.09	36158.94
536.30	36275.67
536.50	35945.95
536.70	36453.84
536.91	36150.74
537.11	35884.51
537.31	36584.91
537.51	36345.30
537.72	36924.88
537.92	36670.93
538.12	37434.82
538.32	36705.74
538.53	37144.01
538.73	37387.72
538.93	36898.25
539.13	37273.03
539.34	37074.38
539.54	37275.08
539.74	37686.72
539.94	37600.71
540.15	37494.21
540.35	37674.43
540.55	37686.72
540.75	37365.19
540.96	37907.90
541.16	38184.38
541.36	38032.83
541.56	37809.60
541.77	38555.06
541.97	37940.67
542.17	38671.79
542.37	38532.53
542.58	38686.13
542.78	38581.68
542.98	38319.54
543.18	38288.82
543.38	38743.47
543.59	38901.17
543.79	38804.91
543.99	39200.17
544.19	39058.86
544.40	39015.85
544.60	39050.67
544.80	39437.73
545.00	39667.11
545.20	39544.23
545.41	39239.08
545.61	39040.43
545.81	39910.82
546.01	39187.88
546.21	40007.07
546.42	39716.26
546.62	39771.55
546.82	39869.86
547.02	39763.36
547.22	39962.01
547.43	39828.90
547.63	39861.66
547.83	40017.31
548.03	39998.88
548.23	40009.12
548.44	40021.41
548.64	40445.33
548.84	40578.45
549.04	40553.88
549.24	40398.23
549.45	40570.26
549.65	40175.00
549.85	40689.04
550.05	41072.01
550.25	40699.28
550.45	41166.22
550.66	40908.18
550.86	40899.98
551.06	41235.85
551.26	41112.97
551.46	41121.16
551.66	41110.92
551.87	41151.88
552.07	41334.15
552.27	41336.20
552.47	41330.06
552.67	41516.42
552.87	41434.50
553.07	41604.49
553.28	41561.48
553.48	41643.40
553.68	41612.68
553.88	42380.67
554.08	41975.17
554.28	41688.45
554.48	42030.46
554.69	41887.10
554.89	41856.39
555.09	42270.08
555.29	41768.32
555.49	41942.40
555.69	41921.92
555.89	41895.30
556.10	42038.65
556.30	42036.61
556.50	42300.79
556.70	42003.84
556.90	42317.18
557.10	42292.60
557.30	42333.56
557.50	42347.90
557.70	42442.10
557.91	42915.19
558.11	42734.96
558.31	43081.07
558.51	42696.05
558.71	42767.73
558.91	43060.59
559.11	42655.09
559.31	42579.32
559.51	42968.43
559.72	42952.05
559.92	42947.95
560.12	42622.33
560.32	42950.00
560.52	42947.95
560.72	43126.13
560.92	43455.85
561.12	42888.56
561.32	43285.87
561.52	43330.92
561.72	43666.79
561.93	43095.41
562.13	43627.88
562.33	43111.79
562.53	43851.11
562.73	43425.13
562.93	43296.11
563.13	43625.83
563.33	43461.99
563.53	44027.23
563.73	43715.94
563.93	43689.32
564.13	44074.34
564.33	43869.54
564.53	43877.73
564.74	44184.93
564.94	43677.03
565.14	43867.49
565.34	44256.60
565.54	43853.15
565.74	43783.52
565.94	44522.84
566.14	44356.96
566.34	43892.07
566.54	44592.47
566.74	44209.50
566.94	44789.08
567.14	44744.02
567.34	44479.83
567.54	44608.86
567.74	44412.25
567.94	44365.15
568.14	44309.85
568.34	44571.99
568.54	44744.02
568.74	44795.22
568.94	44864.85
569.14	44950.87
569.34	44961.11
569.54	44879.19
569.75	44547.42
569.95	45004.11
570.15	45313.36
570.35	45180.24
570.55	44881.24
570.75	45135.18
570.95	45008.21
571.15	44936.53
571.35	45022.54
571.55	45432.14
571.75	45471.05
571.95	45401.42
572.15	45016.40
572.35	45423.95
572.55	45618.50
572.75	45671.75
572.95	45712.71
573.15	45823.30
573.35	45591.88
573.55	45378.89
573.75	45626.70
573.95	45782.34
574.15	45503.82
574.35	45643.08
574.55	45487.43
574.75	45454.67
574.95	46103.87
575.15	45886.79
575.34	46150.98
575.54	46343.48
575.74	46327.10
575.94	46261.57
576.14	46236.99
576.34	46611.77
576.54	46867.76
576.74	46380.35
576.94	46464.32
577.14	46525.75
577.34	46941.49
577.54	46261.57
577.74	46583.10
577.94	46527.80
578.14	46939.44
578.34	47172.91
578.54	46503.23
578.74	46665.02
578.94	46880.05
579.14	46943.54
579.34	46918.96
579.54	47084.85
579.74	47308.08
579.94	47125.81
580.13	47529.26
580.33	47070.51
580.53	47379.76
580.73	46908.72
580.93	47525.16
581.13	47619.37
581.33	47721.77
581.53	47729.96
581.73	47265.07
581.93	47949.09
582.13	47957.28
582.33	47889.70
582.53	47678.76
582.73	48297.25
582.92	48182.56
583.12	47725.86
583.32	47656.23
583.52	47672.62
583.72	48362.78
583.92	48301.34
584.12	47922.47
584.32	48448.80
584.52	48256.29
584.72	48389.41
584.92	48586.01
585.11	48936.21
585.31	48631.07
585.51	48586.01
585.71	48577.82
585.91	48788.76
586.11	49016.08
586.31	48477.47
586.51	48643.35
586.71	48872.73
586.91	49354.00
587.10	49149.20
587.30	49157.39
587.50	49345.81
587.70	49083.67
587.90	49650.95
588.10	49308.94
588.30	49566.99
588.50	49220.88
588.69	49698.06
588.89	48987.41
589.09	49286.42
589.29	49491.21
589.49	49665.29
589.69	49610.00
589.89	49870.09
590.08	49462.54
590.28	49550.60
590.48	49354.00
590.68	49689.87
590.88	49949.96
591.08	49689.87
591.28	49544.46
591.47	50345.22
591.67	49849.61
591.87	50185.47
592.07	49630.47
592.27	50074.88
592.47	50140.42
592.67	50222.34
592.86	50429.18
593.06	50162.95
593.26	50455.81
593.46	50396.42
593.66	50425.09
593.86	50496.77
594.05	50322.69
594.25	50939.13
594.45	50386.18
594.65	50375.94
594.85	50633.98
595.05	51131.64
595.24	50935.03
595.44	50660.60
595.64	50554.11
595.84	50500.86
596.04	50525.44
596.23	50773.24
596.43	51074.29
596.63	51213.55
596.83	51201.27
597.03	51647.72
597.22	51731.69
597.42	51158.26
597.62	51836.14
597.82	51737.83
598.02	51772.65
598.21	51811.56
598.41	51369.20
598.61	51330.29
598.81	51598.57
599.01	51451.12
599.20	51653.87
599.40	51952.87
599.60	52085.99
599.80	51756.27
600.00	52055.27
600.19	52014.31
600.39	51905.77
600.59	52202.72
600.79	52047.08
600.98	52085.99
601.18	52298.98
601.38	52384.99
601.58	52511.97
601.78	52319.46
601.97	52557.02
602.17	52710.62
602.37	52583.65
602.57	52724.96
602.76	52876.51
602.96	52917.46
603.16	52894.94
603.36	52853.98
603.55	53593.29
603.75	52774.11
603.95	52976.86
604.15	53081.30
604.34	53204.18
604.54	53619.92
604.74	53071.06
604.94	53325.01
605.13	53583.05
605.33	53660.88
605.53	53130.45
605.73	53517.52
605.92	53546.19
606.12	53912.78
606.32	53759.18
606.52	53746.89
606.71	53777.61
606.91	54136.01
607.11	53413.07
607.30	53699.79
607.50	53755.08
607.70	54123.72
607.90	53746.89
608.09	54006.98
608.29	54219.97
608.49	54031.56
608.68	53822.67
608.88	54383.81
609.08	54219.97
609.28	54361.28
609.47	53812.43
609.67	54582.46
609.87	54199.49
610.06	54566.08
610.26	54203.59
610.46	54301.89
610.66	54150.34
610.85	54967.48
611.05	54031.56
611.25	54572.22
611.44	54701.25
611.64	54858.94
611.84	54418.63
612.03	54584.51
612.23	54699.20
612.43	54947.00
612.62	54576.32
612.82	54678.72
613.02	54805.69
613.21	54848.70
613.41	54547.65
613.61	54969.53
613.80	54133.96
614.00	54990.01
614.20	54854.84
614.39	54727.87
614.59	55055.54
614.79	54658.24
614.98	54871.23
615.18	54701.25
615.38	54949.05
615.57	55098.55
615.77	54811.84
615.97	55090.36
616.16	55086.26
616.36	55022.78
616.56	54867.13
616.75	55071.93
616.95	54883.51
617.15	55047.35
617.34	54957.24
617.54	54611.13
617.74	55192.76
617.93	55049.40
618.13	54348.99
618.32	55055.54
618.52	54901.95
618.72	54830.27
618.91	54893.75
619.11	54658.24
619.31	55207.09
619.50	55415.99
619.70	54584.51
619.90	54973.63
620.09	55082.17
620.29	54879.42
620.48	54846.65
620.68	55293.11
620.88	54965.43
621.07	55063.74
621.27	54951.10
621.46	54631.61
621.66	55061.69
621.86	55092.41
622.05	54697.15
622.25	54918.33
622.44	54959.29
622.64	54736.06
622.84	55135.41
623.03	54965.43
623.23	55207.09
623.42	55022.78
623.62	55200.95
623.82	55176.37
624.01	55153.85
624.21	55278.77
624.40	54957.24
624.60	54957.24
624.80	54754.49
624.99	54977.72
625.19	54588.61
625.38	55012.54
625.58	55207.09
625.77	55133.37
625.97	55129.27
626.17	54770.88
626.36	55465.14
626.56	54887.61
626.75	54707.39
626.95	55198.90
627.14	54910.14
627.34	55508.14
627.54	55059.64
627.73	54691.01
627.93	55286.96
628.12	54916.28
628.32	55129.27
628.51	54777.02
628.71	54871.23
628.90	54731.96
629.10	55125.17
629.30	54506.69
629.49	55022.78
629.69	54731.96
629.88	54809.79
630.08	55299.25
630.27	55506.10
630.47	55073.98
630.66	54848.70
630.86	55430.32
631.05	54693.05
631.25	55524.53
631.44	55229.62
631.64	55043.26
631.84	54981.82
632.03	55502.00
632.23	55575.73
632.42	55739.57
632.62	55272.63
632.81	55178.42
633.01	55104.70
633.20	55520.43
633.40	55280.82
633.59	55782.57
633.79	54953.15
633.98	55270.58
634.18	55751.85
634.37	55784.62
634.57	55794.86
634.76	55712.94
634.96	55897.26
635.15	55487.67
635.35	55477.43
635.54	55127.22
635.74	55344.31
635.93	55213.24
636.13	55839.92
636.32	56071.34
636.52	55467.19
636.71	55080.12
636.91	55547.06
637.10	55243.96
637.30	55686.32
637.49	55749.81
637.69	55606.45
637.88	55942.31
638.08	55030.97
638.27	55700.65
638.46	55504.05
638.66	55696.56
638.85	55325.88
639.05	55645.36
639.24	55702.70
639.44	55420.08
639.63	55518.38
639.83	55844.01
640.02	55542.96
640.22	55678.13
640.41	55954.60
640.61	55082.17
640.80	55911.59
640.99	55631.02
641.19	56564.90
641.38	55571.63
641.58	55616.69
641.77	55841.96
641.97	55938.22
642.16	55833.77
642.36	56157.35
642.55	56374.44
642.74	55743.66
642.94	56882.33
643.13	56018.09
643.33	56612.00
643.52	56302.76
643.72	56177.83
643.91	55979.18
644.10	55981.23
644.30	55956.65
644.49	55942.31
644.69	56143.02
644.88	56054.95
645.08	55737.52
645.27	56444.07
645.46	55798.96
645.66	56280.23
645.85	56038.57
646.05	56118.44
646.24	56329.38
646.43	56704.16
646.63	56542.37
646.82	56698.01
647.02	56575.14
647.21	56906.91
647.40	56405.16
647.60	56491.17
647.79	56878.24
647.99	56468.64
648.18	56423.59
648.37	57058.46
648.57	56542.37
648.76	56771.74
648.96	56411.30
649.15	56485.03
649.34	56482.98
649.54	57001.11
649.73	56130.73
649.92	56900.76
650.12	56888.48
650.31	56859.80
650.51	56626.34
650.70	57214.10
650.89	56827.04
651.09	57355.41
651.28	56937.63
651.47	56980.63
651.67	56710.30
651.86	57558.16
652.06	56272.04
652.25	57058.46
652.44	56806.56
652.64	56661.15
652.83	56587.42
653.02	56431.78
653.22	56865.95
653.41	57005.21
653.60	57009.31
653.80	56849.56
653.99	57259.16
654.18	56478.88
654.38	57164.95
654.57	56769.69
654.76	56788.13
654.96	56704.16
655.15	56657.06
655.34	56728.73
655.54	56458.40
655.73	56710.30
655.92	56900.76
656.12	57275.54
656.31	57187.48
656.50	56620.19
656.70	56849.56
656.89	57287.83
657.08	57144.47
657.28	56788.13
657.47	56745.12
657.66	57238.68
657.86	56947.87
658.05	57427.09
658.24	57635.98
658.43	56743.07
658.63	57193.62
658.82	57326.74
659.01	57377.94
659.21	57547.92
659.40	57349.27
659.59	56997.02
659.79	57402.52
659.98	57488.53
660.17	57341.08
660.36	57382.04
660.56	57662.61
660.75	57515.15
660.94	57123.99
661.14	57334.93
661.33	57054.36
661.52	56886.43
661.71	57439.38
661.91	56937.63
662.10	56900.76
662.29	57341.08
662.49	57441.43
662.68	57324.69
662.87	57287.83
663.06	57545.87
663.26	57054.36
663.45	57730.19
663.64	57226.39
663.83	58014.86
664.03	57271.45
664.22	57554.07
664.41	57443.48
664.60	57515.15
664.80	57509.01
664.99	57369.75
665.18	57218.20
665.37	57179.29
665.57	57603.22
665.76	57273.49
665.95	57336.98
666.14	57070.75
666.34	57154.71
666.53	57390.23
666.72	56980.63
666.91	56972.44
667.11	56743.07
667.30	56982.68
667.49	56962.20
667.68	57193.62
667.87	57087.13
668.07	57392.28
668.26	57496.72
668.45	57193.62
668.64	57074.84
668.84	57646.22
669.03	57984.14
669.22	57097.37
669.41	57373.84
669.60	57283.73
669.80	57175.19
669.99	57672.85
670.18	56984.73
670.37	57078.94
670.57	57728.14
670.76	57218.20
670.95	57203.86
671.14	57474.20
671.33	56947.87
671.53	57504.91
671.72	57525.39
671.91	57224.34
672.10	56992.92
672.29	57130.14
672.48	57187.48
672.68	57400.47
672.87	57222.29
673.06	57269.40
673.25	56997.02
673.44	57093.27
673.64	56884.38
673.83	56994.97
674.02	57083.03
674.21	57363.60
674.40	57013.40
674.59	56794.27
674.79	57052.31
674.98	56745.12
675.17	56806.56
675.36	56501.41
675.55	56812.70
675.74	56612.00
675.94	57009.31
676.13	56923.29
676.32	57318.55
676.51	57263.25
676.70	57588.88
676.89	56677.54
677.08	56972.44
677.28	56947.87
677.47	57377.94
677.66	57275.54
677.85	56759.45
678.04	57267.35
678.23	57042.07
678.42	56824.99
678.62	57142.42
678.81	57097.37
679.00	57248.92
679.19	57664.66
679.38	56800.41
679.57	56947.87
679.76	57097.37
679.96	57275.54
680.15	56878.24
680.34	56677.54
680.53	56734.88
680.72	56704.16
680.91	56968.35
681.10	56681.63
681.29	57003.16
681.48	56571.04
681.68	56636.58
681.87	56439.97
682.06	56829.08
682.25	56689.82
682.44	56399.01
682.63	56736.93
682.82	56298.66
683.01	56485.03
683.20	56302.76
683.39	56349.86
683.59	56521.89
683.78	56548.51
683.97	56403.11
684.16	56292.52
684.35	56315.04
684.54	55819.44
684.73	56028.33
684.92	56206.50
685.11	56474.79
685.30	56003.75
685.49	56300.71
685.69	56210.60
685.88	56372.39
686.07	55823.53
686.26	56251.56
686.45	56026.28
686.64	56317.09
686.83	56036.52
687.02	55987.37
687.21	56648.86
687.40	56351.91
687.59	56034.47
687.78	56194.21
687.97	56530.08
688.16	55856.30
688.35	55588.02
688.54	55917.74
688.74	55848.11
688.93	56382.63
689.12	55782.57
689.31	55784.62
689.50	56016.04
689.69	55383.22
689.88	55327.92
690.07	56075.43
690.26	55839.92
690.45	55948.46
690.64	55641.26
690.83	55694.51
691.02	55448.75
691.21	54848.70
691.40	55882.92
691.59	55370.93
691.78	55508.14
691.97	55534.77
692.16	55489.71
692.35	55454.90
692.54	55872.68
692.73	55215.29
692.92	55598.26
693.11	55575.73
693.30	55205.05
693.49	55522.48
693.68	55131.32
693.87	55448.75
694.06	55198.90
694.25	55125.17
694.44	55039.16
694.63	55114.94
694.82	55088.31
695.01	55477.43
695.20	54983.86
695.39	55098.55
695.58	54572.22
695.77	54777.02
695.96	54521.02
696.15	54625.47
696.34	55071.93
696.53	54969.53
696.72	55088.31
696.91	54652.09
697.10	55096.50
697.29	54588.61
697.48	55190.71
697.67	54719.68
697.86	54310.08
698.05	54338.75
698.24	55137.46
698.43	54076.61
698.62	54654.14
698.81	54650.05
699.00	54801.60
699.19	54748.35
699.38	54658.24
699.57	53761.23
699.76	55243.96
699.95	54203.59
700.14	53886.15
700.32	54006.98
700.51	54203.59
700.70	54443.20
700.89	54197.44
701.08	54357.19
701.27	54140.10
701.46	54138.05
701.65	53312.72
701.84	53966.02
702.03	54156.49
702.22	53904.59
702.41	54185.16
702.60	54109.38
702.79	53685.45
702.98	53916.87
703.17	53691.60
703.35	53753.04
703.54	53556.43
703.73	54015.18
703.92	53402.83
704.11	53667.02
704.30	53245.14
704.49	53675.21
704.68	53376.21
704.87	53716.17
705.06	53122.26
705.25	53390.55
705.43	53327.06
705.62	53664.97
705.81	53615.82
706.00	53400.79
706.19	52749.53
706.38	52788.44
706.57	52825.31
706.76	52991.19
706.95	53046.49
707.14	52602.08
707.32	53028.05
707.51	52561.12
707.70	52892.89
707.89	53245.14
708.08	52593.89
708.27	53189.84
708.46	53359.83
708.65	52577.50
708.84	53148.88
709.02	52886.74
709.21	52679.90
709.40	53017.82
709.59	52931.80
709.78	52548.83
709.97	52749.53
710.16	52344.03
710.34	52716.76
710.53	52618.46
710.72	52507.87
710.91	52575.45
711.10	52497.63
711.29	52780.25
711.48	52536.54
711.66	52516.06
711.85	52434.14
712.04	52014.31
712.23	52301.03
712.42	52735.20
712.61	52471.01
712.80	52063.46
712.98	52466.91
713.17	51963.11
713.36	52096.23
713.55	52270.31
713.74	51623.15
713.93	52059.37
714.11	52227.30
714.30	52126.95
714.49	51336.43
714.68	51819.75
714.87	52141.28
715.06	51985.64
715.24	51979.49
715.43	51340.53
715.62	51090.68
715.81	51352.82
716.00	51678.44
716.18	51281.14
716.37	51121.40
716.56	51086.58
716.75	51680.49
716.94	51215.60
717.12	50932.98
717.31	51617.00
717.50	50898.17
717.69	50646.27
717.88	51301.62
718.06	51102.96
718.25	51129.59
718.44	51078.39
718.63	50930.93
718.82	50455.81
719.00	50918.65
719.19	51037.43
719.38	50689.27
719.57	50058.50
719.76	50066.69
719.94	50091.27
720.13	50562.30
720.32	50386.18
720.51	50453.76
720.69	50361.60
720.88	49890.57
721.07	50230.53
721.26	49995.01
721.44	50179.33
721.63	49751.30
721.82	49560.84
722.01	49614.09
722.20	49917.19
722.38	49411.34
722.57	49382.67
722.76	49706.25
722.95	49513.74
723.13	49270.03
723.32	49401.10
723.51	48583.96
723.70	49306.90
723.88	49495.31
724.07	49247.50
724.26	48899.35
724.44	48454.94
724.63	49329.42
724.82	49394.96
725.01	48919.83
725.19	49216.78
725.38	49501.45
725.57	49018.13
725.76	49159.44
725.94	48469.28
726.13	48547.10
726.32	48772.38
726.51	48692.50
726.69	48807.19
726.88	48801.05
727.07	48893.21
727.25	48674.07
727.44	48739.61
727.63	48117.03
727.82	48522.52
728.00	48477.47
728.19	48561.44
728.38	48889.11
728.56	48110.88
728.75	48633.11
728.94	48696.60
729.12	48657.69
729.31	48624.92
729.50	48799.00
729.69	48557.34
729.87	48184.61
730.06	48241.95
730.25	48569.63
730.43	48669.98
730.62	48416.03
730.81	48665.88
730.99	48610.59
731.18	48186.66
731.37	48502.04
731.55	48600.35
731.74	48313.63
731.93	48420.13
732.11	48293.15
732.30	48577.82
732.49	48149.79
732.67	48217.38
732.86	48418.08
733.05	47693.10
733.23	48141.60
733.42	47918.37
733.61	48200.99
733.79	48133.41
733.98	48463.13
734.17	48338.21
734.35	48059.68
734.54	48280.86
734.73	48467.23
734.91	47756.58
735.10	48127.27
735.29	48715.03
735.47	48014.63
735.66	47961.38
735.84	48121.12
736.03	48272.67
736.22	48203.04
736.40	48334.11
736.59	47985.96
736.78	48305.44
736.96	47869.22
737.15	48112.93
737.33	47844.65
737.52	47566.12
737.71	47670.57
737.89	47652.14
738.08	47330.61
738.27	47617.32
738.45	47772.97
738.64	47392.04
738.82	47797.54
739.01	47756.58
739.20	47574.31
739.38	47781.16
739.57	47613.23
739.75	47240.50
739.94	47588.65
740.13	47674.66
740.31	47138.10
740.50	47635.75
740.68	47226.16
740.87	47535.40
741.06	47635.75
741.24	46867.76
741.43	47119.66
741.61	47052.08
741.80	47408.43
741.99	46974.26
742.17	46689.59
742.36	47275.31
742.54	46691.64
742.73	47084.85
742.91	47258.93
743.10	47041.84
743.29	47109.43
743.47	47084.85
743.66	47097.14
743.84	46982.45
744.03	46861.62
744.21	46636.34
744.40	47379.76
744.59	46974.26
744.77	46378.30
744.96	47105.33
745.14	47111.47
745.33	47281.45
745.51	46628.15
745.70	46839.09
745.88	46392.64
746.07	46757.17
746.26	46503.23
746.44	46521.66
746.63	46912.82
746.81	46863.67
747.00	46406.97
747.18	46665.02
747.37	46470.46
747.55	46200.13
747.74	46613.82
747.92	46312.77
748.11	46277.95
748.29	46452.03
748.48	46722.36
748.66	46220.61
748.85	46421.31
749.03	46017.86
749.22	46007.62
749.41	46236.99
749.59	46155.07
749.78	45591.88
749.96	45530.44
750.15	45991.23
750.33	46040.39
750.52	45618.50
750.70	45825.35
750.89	45290.83
751.07	45528.39
751.26	45761.86
751.44	45831.49
751.63	45655.37
751.81	45391.18
752.00	45544.78
752.18	45743.43
752.37	45348.17
752.55	45092.18
752.74	45464.91
752.92	45407.56
753.10	45258.06
753.29	45284.68
753.47	44920.15
753.66	45217.10
753.84	45655.37
754.03	45245.77
754.21	44930.39
754.40	44944.72
754.58	45192.53
754.77	44885.33
754.95	44725.59
755.14	45155.66
755.32	45036.88
755.51	44449.11
755.69	44645.72
755.88	44326.24
756.06	44838.23
756.24	44481.88
756.43	44615.00
756.61	44430.68
756.80	44240.22
756.98	44141.92
757.17	44359.00
757.35	44373.34
757.54	44520.79
757.72	44416.35
757.90	44356.96
758.09	44559.70
758.27	44658.01
758.46	44092.77
758.64	44119.39
758.83	44713.30
759.01	44561.75
759.19	44402.01
759.38	44203.36
759.56	44393.82
759.75	44463.45
759.93	44049.76
760.12	43799.91
760.30	44377.43
760.48	43916.64
760.67	43505.00
760.85	43978.08
761.04	43668.84
761.22	43969.89
761.40	43623.78
761.59	43828.58
761.77	43369.83
761.96	43763.04
762.14	43926.88
762.32	43427.18
762.51	43728.23
762.69	43341.16
762.88	43390.31
763.06	43515.24
763.24	43672.93
763.43	43496.81
763.61	43658.60
763.80	43138.41
763.98	43240.81
764.16	43171.18
764.35	43298.16
764.53	43203.95
764.72	42980.72
764.90	43232.62
765.08	42974.58
765.27	43189.61
765.45	42866.03
765.63	42603.89
765.82	43140.46
766.00	42788.21
766.18	42628.47
766.37	43269.48
766.55	42644.85
766.74	42808.69
766.92	42646.90
767.10	42743.16
767.29	42614.13
767.47	42300.79
767.65	42550.65
767.84	41989.50
768.02	42689.91
768.20	42141.05
768.39	42417.53
768.57	42435.96
768.75	42376.57
768.94	42153.34
769.12	42495.35
769.30	42055.04
769.49	42120.57
769.67	41858.43
769.85	41387.40
770.04	41815.43
770.22	41833.86
770.40	41481.61
770.59	41389.45
770.77	42024.32
770.95	41727.36
771.14	41444.74
771.32	41434.50
771.50	41313.67
771.69	41252.23
771.87	41403.78
772.05	41227.66
772.24	41020.81
772.42	41375.11
772.60	41213.32
772.78	40803.73
772.97	40840.59
773.15	41399.69
773.33	40975.76
773.52	40973.71
773.70	41067.92
773.88	41127.31
774.07	40682.90
774.25	41162.12
774.43	41076.11
774.61	41221.52
774.80	41207.18
774.98	41274.76
775.16	41096.59
775.34	41334.15
775.53	40940.94
775.71	41252.23
775.89	40795.54
776.08	41026.96
776.26	41469.32
776.44	41301.39
776.62	41254.28
776.81	41121.16
776.99	41223.56
777.17	41235.85
777.35	41012.62
777.54	41694.60
777.72	41084.30
777.90	41391.50
778.08	41635.20
778.27	40986.00
778.45	41600.39
778.63	42089.85
778.81	41072.01
779.00	41840.00
779.18	41805.19
779.36	42016.13
779.54	41039.25
779.73	41477.51
779.91	41440.65
780.09	41846.15
780.27	42112.38
780.46	41923.97
780.64	41854.34
780.82	41772.42
781.00	41917.82
781.19	42077.57
781.37	42321.27
781.55	42096.00
781.73	42564.98
781.91	42018.17
782.10	42067.33
782.28	41911.68
782.46	42184.06
782.64	42513.78
782.82	41641.35
783.01	42143.10
783.19	42548.60
783.37	42372.47
783.55	42395.00
783.74	42644.85
783.92	41919.87
784.10	42741.11
784.28	42229.12
784.46	42257.79
784.64	41866.63
784.83	42333.56
785.01	42581.37
785.19	42390.91
785.37	42161.53
785.55	41811.33
785.74	41674.12
785.92	41936.26
786.10	42300.79
786.28	42597.75
786.46	41780.61
786.64	41465.22
786.83	42005.89
787.01	41837.95
787.19	41723.27
787.37	41979.26
787.55	41837.95
787.74	41627.01
787.92	41723.27
788.10	41555.33
788.28	41125.26
788.46	41680.26
788.64	41239.95
788.82	41555.33
789.01	41741.70
789.19	41618.82
789.37	41559.43
789.55	41586.05
789.73	41317.77
789.91	41162.12
790.09	41063.82
790.28	40918.42
790.46	41055.63
790.64	41135.50
790.82	40834.45
791.00	41020.81
791.18	40531.35
791.36	40850.83
791.55	40908.18
791.73	40406.42
791.91	40615.32
792.09	40740.24
792.27	40318.36
792.45	40433.05
792.63	40365.46
792.81	39785.89
793.00	39673.25
793.18	39951.77
793.36	40078.75
793.54	39669.15
793.72	39933.34
793.90	39435.69
794.08	39531.94
794.26	39968.16
794.44	39099.82
794.62	39327.14
794.81	39304.62
794.99	39337.38
795.17	39034.28
795.35	39116.20
795.53	39327.14
795.71	39447.97
795.89	38843.82
796.07	38759.86
796.25	38888.88
796.43	38591.92
796.61	38630.83
796.80	38507.96
796.98	38749.62
797.16	38219.19
797.34	38471.09
797.52	37791.17
797.70	38395.32
797.88	38127.03
798.06	38180.28
798.24	38094.27
798.42	38096.31
798.60	37547.46
798.78	37662.15
798.96	37733.82
799.14	37426.63
799.32	37723.58
799.51	37430.72
799.69	37645.76
799.87	37549.51
800.05	36949.45
800.23	37101.00
800.41	37039.56
800.59	37524.93
800.77	36847.05
800.95	36836.81
801.13	37004.75
801.31	36578.77
801.49	36705.74
801.67	36197.85
801.85	36677.07
802.03	35962.33
802.21	35890.65
802.39	36486.61
802.57	36468.18
802.75	35927.52
802.93	35986.91
803.11	35864.03
803.29	35679.71
803.47	35638.75
803.65	35683.81
803.83	35685.86
804.01	35347.94
804.19	35175.91
804.37	35128.81
804.55	35505.63
804.73	35378.66
804.91	35157.48
805.09	35077.61
805.27	35089.90
805.45	35077.61
805.63	35014.12
805.81	34821.61
805.99	34727.41
806.17	34928.11
806.35	34784.75
806.53	34442.74
806.71	34452.98
806.89	34844.14
807.07	34555.38
807.25	34416.11
807.43	34375.16
807.61	34721.26
807.79	34100.73
807.97	33684.99
808.15	33830.40
808.33	33750.52
808.51	33807.87
808.69	34010.62
808.87	33533.44
809.05	33428.99
809.23	33383.94
809.41	33484.29
809.59	33146.37
809.77	33371.65
809.95	33412.61
810.13	33543.68
810.31	33166.85
810.49	33193.48
810.67	33342.98
810.84	33144.33
811.02	33244.68
811.20	32843.27
811.38	32982.54
811.56	32525.84
811.74	32607.76
811.92	32771.60
812.10	32953.87
812.28	32722.44
812.46	32622.09
812.64	32347.67
812.82	32087.57
813.00	32413.20
813.18	32464.40
813.36	31995.42
813.53	31680.03
813.71	31944.22
813.89	32108.05
814.07	31774.24
814.25	31929.88
814.43	31706.65
814.61	31145.51
814.79	31725.08
814.97	31800.86
815.15	31626.78
815.33	31141.41
815.50	30903.85
815.68	31378.98
815.86	31370.79
816.04	31333.92
816.22	31063.59
816.40	31401.50
816.58	31174.18
816.76	30877.22
816.94	30991.91
817.11	30912.04
817.29	31159.84
817.47	30783.02
817.65	30565.93
817.83	30815.79
818.01	30623.28
818.19	30690.86
818.37	30733.87
818.54	30000.69
818.72	30531.12
818.90	30471.73
819.08	30324.27
819.26	30361.14
819.44	30375.47
819.62	30076.47
819.80	30467.63
819.97	29967.93
820.15	30430.77
820.33	30125.62
820.51	29840.95
820.69	29953.59
820.87	29998.65
821.05	29871.67
821.22	29716.03
821.40	29666.88
821.58	29578.81
821.76	29623.87
821.94	29466.17
822.12	29423.17
822.29	29503.04
822.47	29580.86
822.65	30185.01
822.83	29519.42
823.01	29380.16
823.19	29304.38
823.36	28905.03
823.54	29212.23
823.72	29029.96
823.90	29273.67
824.08	28776.01
824.25	29273.67
824.43	28915.27
824.61	28857.93
824.79	28724.81
824.97	28737.10
825.15	28829.26
825.32	28638.80
825.50	28491.34
825.68	28640.84
825.86	28833.35
826.04	29128.26
826.21	28477.01
826.39	28436.05
826.57	28462.67
826.75	28208.72
826.93	28057.17
827.10	28171.86
827.28	28030.55
827.46	28194.39
827.64	28094.04
827.81	28034.64
827.99	28178.00
828.17	28145.23
828.35	28044.88
828.53	27897.43
828.70	27854.42
828.88	27922.01
829.06	27809.37
829.24	28175.95
829.41	27584.09
829.59	27879.00
829.77	27631.19
829.95	27647.58
830.12	27719.26
830.30	27823.70
830.48	27819.61
830.66	27688.54
830.84	27436.64
831.01	27598.43
831.19	27936.34
831.37	27498.08
831.55	27395.68
831.72	26928.74
831.90	27260.51
832.08	27307.62
832.25	26893.93
832.43	27082.34
832.61	27387.49
832.79	27055.72
832.96	27164.26
833.14	27111.01
833.32	27102.82
833.50	27301.47
833.67	27129.44
833.85	26938.98
834.03	26701.42
834.20	27004.52
834.38	26871.40
834.56	26713.70
834.74	26236.53
834.91	26994.28
835.09	26578.54
835.27	26252.91
835.44	26404.46
835.62	26527.34
835.80	26433.13
835.98	26504.81
836.15	26310.25
836.33	26257.01
836.51	26246.77
836.68	26005.11
836.86	26263.15
837.04	26492.52
837.21	26386.03
837.39	26281.58
837.57	26238.58
837.75	26064.50
837.92	26252.91
838.10	26160.75
838.28	25726.58
838.45	25796.21
838.63	25765.49
838.81	26023.54
838.98	25745.02
839.16	25290.37
839.34	25749.11
839.51	25812.60
839.69	25421.44
839.87	25585.27
840.04	25200.26
840.22	25671.29
840.40	25585.27
840.57	25132.67
840.75	25613.95
840.93	25144.96
841.10	25476.73
841.28	25308.80
841.46	25364.09
841.63	25423.48
841.81	25144.96
841.98	25456.25
842.16	25038.47
842.34	25190.02
842.51	25036.42
842.69	25196.16
842.87	25032.32
843.04	24989.31
843.22	24981.12
843.40	24784.52
843.57	24766.09
843.75	25218.69
843.92	25065.09
844.10	24909.44
844.28	24788.61
844.45	24970.88
844.63	24809.09
844.81	24706.70
844.98	24571.53
845.16	24757.89
845.33	24610.44
845.51	24514.19
845.69	24886.92
845.86	24473.23
846.04	24163.98
846.21	24608.39
846.39	24190.61
846.57	24149.65
846.74	24260.24
846.92	24350.35
847.09	24123.02
847.27	24166.03
847.45	24053.39
847.62	24149.65
847.80	24567.43
847.97	24215.18
848.15	24176.27
848.32	24069.78
848.50	23637.66
848.68	23852.69
848.85	23654.04
849.03	23600.79
849.20	23686.81
849.38	23754.39
849.56	23762.58
849.73	23389.85
849.91	23645.85
850.08	23869.08
850.26	23531.16
850.43	23531.16
850.61	23561.88
850.78	23484.06
850.96	23594.65
851.14	23412.38
851.31	23396.00
851.49	23195.29
851.66	23545.50
851.84	23352.99
852.01	23490.20
852.19	23484.06
852.36	23367.32
852.54	23430.81
852.71	23518.87
852.89	23107.23
853.07	23072.42
853.24	23137.95
853.42	23217.82
853.59	23053.98
853.77	23262.88
853.94	22949.54
854.12	23266.97
854.29	23058.08
854.47	23201.44
854.64	22820.52
854.82	22867.62
854.99	22963.87
855.17	22752.93
855.34	22630.05
855.52	22673.06
855.69	22945.44
855.87	22707.88
856.04	22326.96
856.22	22662.82
856.39	22351.53
856.57	22400.68
856.74	22617.77
856.92	22474.41
857.09	22351.53
857.27	22343.34
857.44	22541.99
857.62	22396.59
857.79	22214.32
857.97	22288.04
858.14	22216.36
858.32	22351.53
858.49	22111.92
858.67	22032.05
858.84	21921.46
859.02	22189.74
859.19	21900.98
859.37	22066.86
859.54	21733.04
859.72	22320.81
859.89	21894.83
860.06	22318.76
860.24	21630.65
860.41	21970.61
860.59	21968.56
860.76	21649.08
860.94	21585.59
861.11	21771.96
861.29	21927.60
861.46	21556.92
861.64	21440.18
861.81	21763.76
861.98	21640.89
862.16	21391.03
862.33	21380.79
862.51	21302.97
862.68	21368.51
862.86	21417.66
863.03	21307.07
863.21	21399.23
863.38	21425.85
863.55	21307.07
863.73	21362.36
863.90	21458.62
864.08	21323.45
864.25	21247.68
864.43	21354.17
864.60	21018.30
864.77	21163.71
864.95	20833.99
865.12	21030.59
865.30	20895.43
865.47	20950.72
865.64	21165.76
865.82	20743.88
865.99	20920.00
866.17	21044.93
866.34	20989.63
866.51	20498.12
866.69	20870.85
866.86	21006.02
867.04	20713.16
867.21	20512.46
867.38	20733.64
867.56	20330.19
867.73	20465.35
867.91	20385.48
868.08	20420.30
868.25	20461.26
868.43	20600.52
868.60	20184.78
868.78	19959.50
868.95	20379.34
869.12	20117.20
869.30	20076.24
869.47	20131.53
869.64	20047.57
869.82	20049.61
869.99	20221.64
870.16	20141.77
870.34	19885.78
870.51	19984.08
870.69	19832.53
870.86	19810.00
871.03	19885.78
871.21	19889.87
871.38	20012.75
871.55	19601.11
871.73	19734.23
871.90	19658.45
872.07	19508.95
872.25	19238.62
872.42	19603.16
872.59	19398.36
872.77	19443.42
872.94	19457.75
873.11	19484.37
873.29	19484.37
873.46	19508.95
873.63	19068.64
873.81	19308.25
873.98	18986.72
874.15	18986.72
874.33	18859.74
874.50	18781.92
874.67	19117.79
874.85	18802.40
875.02	18845.41
875.19	18673.38
875.37	18857.70
875.54	18556.64
875.71	18771.68
875.88	18613.99
876.06	18626.28
876.23	18704.10
876.40	18681.57
876.58	18620.13
876.75	18595.56
876.92	18357.99
877.10	18421.48
877.27	18425.57
877.44	18128.62
877.61	18448.10
877.79	18335.46
877.96	18065.13
878.13	18175.72
878.31	18140.91
878.48	18110.19
878.65	17944.30
878.82	17999.60
879.00	17903.34
879.17	17915.63
879.34	18337.51
879.51	18028.27
879.69	18142.96
879.86	17960.69
880.03	17796.85
880.21	17514.23
880.38	17858.29
880.55	17987.31
880.72	17612.53
880.90	17630.96
881.07	17676.02
881.24	17784.56
881.41	17786.61
881.59	17590.00
881.76	17313.53
881.93	17342.20
882.10	17436.41
882.28	17299.19
882.45	17598.20
882.62	17268.47
882.79	17450.74
882.96	17080.06
883.14	17166.07
883.31	17186.55
883.48	17215.23
883.65	17280.76
883.83	17329.91
884.00	16992.00
884.17	17143.55
884.34	17291.00
884.51	17229.56
884.69	16955.13
884.86	16844.54
885.03	17055.48
885.20	16914.17
885.38	16951.04
885.55	17004.28
885.72	16948.99
885.89	16766.72
886.06	16887.55
886.24	16838.40
886.41	16645.89
886.58	16989.95
886.75	16807.68
886.92	16764.67
887.10	16805.63
887.27	16713.47
887.44	16707.33
887.61	16819.97
887.78	16609.03
887.95	16801.54
888.13	16879.36
888.30	16346.89
888.47	16367.37
888.64	16449.28
888.81	16475.91
888.99	16486.15
889.16	16246.54
889.33	16299.78
889.50	16125.71
889.67	16254.73
889.84	16226.06
890.01	16326.41
890.19	16486.15
890.36	16344.84
890.53	16260.87
890.70	15963.92
890.87	16260.87
891.04	15996.68
891.22	16109.32
891.39	15931.15
891.56	15972.11
891.73	15959.82
891.90	15611.67
892.07	15908.62
892.24	15800.08
892.42	15765.26
892.59	15724.30
892.76	15703.82
892.93	15439.64
893.10	15855.37
893.27	15925.00
893.44	15345.43
893.61	15482.64
893.79	15865.61
893.96	15421.20
894.13	15802.13
894.30	15576.85
894.47	15453.97
894.64	15826.70
894.81	15681.30
894.98	15744.78
895.15	15617.81
895.33	15664.91
895.50	15572.75
895.67	15382.29
895.84	15716.11
896.01	15474.45
896.18	15404.82
896.35	15834.89
896.52	15324.95
896.69	15345.43
896.86	15359.77
897.04	15634.19
897.21	15480.60
897.38	15382.29
897.55	15451.92
897.72	15441.68
897.89	15574.80
898.06	15519.51
898.23	15421.20
898.40	15431.44
898.57	15507.22
898.74	15480.60
898.91	15396.63
899.08	15521.56
899.26	15406.87
899.43	15349.53
899.60	15161.11
899.77	15681.30
899.94	15396.63
900.11	15322.90
900.28	15165.21
900.45	15413.01
900.62	15294.23
900.79	15566.61
900.96	15165.21
901.13	15286.04
901.30	15314.71
901.47	15310.61
901.64	15208.22
901.81	15167.26
901.98	15214.36
902.15	15398.68
902.32	15154.97
902.49	15109.91
902.66	15421.20
902.83	15015.71
903.01	14987.04
903.18	15361.81
903.35	15417.11
903.52	15095.58
903.69	15216.41
903.86	15023.90
904.03	15081.24
904.20	15394.58
904.37	15355.67
904.54	15181.59
904.71	15318.81
904.88	15238.94
905.05	15128.35
905.22	15116.06
905.39	15124.25
905.56	15402.77
905.73	15081.24
905.90	15091.48
906.07	15060.76
906.24	15232.79
906.41	15345.43
906.58	15261.46
906.75	15159.06
906.92	15083.29
907.09	15060.76
907.26	15185.69
907.43	14923.55
907.60	14915.36
907.77	15247.13
907.93	15316.76
908.10	14956.32
908.27	15144.73
908.44	14862.11
908.61	14927.64
908.78	14954.27
908.95	14931.74
909.12	15023.90
909.29	14952.22
909.46	14997.28
909.63	15130.39
909.80	14907.16
909.97	15122.20
910.14	14831.39
910.31	14984.99
910.48	15007.52
910.65	15114.01
910.82	14626.59
910.99	14960.41
911.16	14960.41
911.33	14782.24
911.50	14862.11
911.66	14831.39
911.83	14954.27
912.00	14810.91
912.17	14559.01
912.34	14481.19
912.51	14618.40
912.68	14585.63
912.85	14696.22
913.02	14563.11
913.19	14499.62
913.36	14714.66
913.53	14755.61
913.70	14339.88
913.86	14550.82
914.03	14440.23
914.20	14593.83
914.37	14434.08
914.54	14321.45
914.71	14364.45
914.88	14350.12
915.05	14036.78
915.22	14167.85
915.39	14055.21
915.55	14249.77
915.72	13987.63
915.89	14126.89
916.06	14173.99
916.23	14079.79
916.40	13877.04
916.57	14057.26
916.74	14184.23
916.91	13776.69
917.07	13514.55
917.24	13694.77
917.41	13907.76
917.58	13827.88
917.75	13676.34
917.92	13618.99
918.09	13649.71
918.26	13463.35
918.42	13428.53
918.59	13604.66
918.76	13502.26
918.93	13426.48
919.10	13303.60
919.27	13459.25
919.44	13530.93
919.60	13174.58
919.77	13074.23
919.94	13225.78
920.11	13279.03
920.28	13244.21
920.45	12902.20
920.61	12881.72
920.78	13051.70
920.95	12883.77
921.12	12943.16
921.29	12719.93
921.46	12846.91
921.62	12781.37
921.79	12879.68
921.96	12697.41
922.13	12828.48
922.30	12613.44
922.47	12652.35
922.63	12707.65
922.80	12521.28
922.97	12416.83
923.14	12115.78
923.31	12531.52
923.47	12312.39
923.64	12693.31
923.81	12136.26
923.98	12300.10
924.15	11976.52
924.32	12193.61
924.48	12261.19
924.65	12291.91
924.82	11874.12
924.99	11994.95
925.15	11855.69
925.32	12103.50
925.49	11800.40
925.66	11618.13
925.83	11646.80
925.99	11657.04
926.16	11878.22
926.33	11644.75
926.50	11460.43
926.67	11695.95
926.83	11652.94
927.00	11382.61
927.17	11157.33
927.34	11233.11
927.50	11196.25
927.67	11478.86
927.84	11194.20
928.01	11231.06
928.17	11104.09
928.34	10970.97
928.51	11214.68
928.68	10970.97
928.84	10893.15
929.01	10776.41
929.18	10891.10
929.35	10776.41
929.51	10964.82
929.68	10581.85
929.85	10456.93
930.02	10743.64
930.18	10528.61
930.35	10631.01
930.52	10420.06
930.69	10592.09
930.85	10372.96
931.02	10217.32
931.19	10391.39
931.36	10211.17
931.52	10315.62
931.69	10286.95
931.86	10186.60
932.02	10080.10
932.19	9834.35
932.36	9967.46
932.53	10045.29
932.69	9795.43
932.86	9969.51
933.03	9885.55
933.19	9846.63
933.36	9764.72
933.53	9762.67
933.70	9463.66
933.86	9699.18
934.03	9590.64
934.20	9314.16
934.36	9537.39
934.53	9379.70
934.70	9176.95
934.86	9021.30
935.03	9119.60
935.20	9031.54
935.36	9035.64
935.53	9013.11
935.70	8857.46
935.86	8761.21
936.03	8664.96
936.20	8560.51
936.36	8638.33
936.53	8533.89
936.70	8472.45
936.86	8494.97
937.03	8499.07
937.20	8195.97
937.36	8187.78
937.53	8052.61
937.70	7999.37
937.86	8009.61
938.03	7757.71
938.20	7903.11
938.36	7724.94
938.53	7647.12
938.70	7557.00
938.86	7659.40
939.03	7350.16
939.20	7178.13
939.36	7413.65
939.53	7292.82
939.70	7321.49
939.86	7012.24
940.03	6854.55
940.19	6922.13
940.36	6832.02
940.53	6879.13
940.69	6664.09
940.86	6631.32
941.03	6408.09
941.19	6414.24
941.36	6524.83
941.52	6311.84
941.69	6365.09
941.86	6254.50
942.02	6262.69
942.19	6148.00
942.35	6229.92
942.52	5932.97
942.69	6109.09
942.85	5822.38
943.02	5900.20
943.18	5767.08
943.35	5756.84
943.52	5783.46
943.68	5777.32
943.85	5785.51
944.01	5685.16
944.18	5535.66
944.35	5642.15
944.51	5504.94
944.68	5429.17
944.84	5578.67
945.01	5433.26
945.17	5515.18
945.34	5398.45
945.51	5470.12
945.67	5384.11
945.84	5410.73
946.00	5296.05
946.17	5412.78
946.33	5261.23
946.50	5382.06
946.67	5330.86
946.83	5310.38
947.00	5408.69
947.16	5337.01
947.33	5232.56
947.49	5296.05
947.66	5142.45
947.82	5238.70
947.99	5369.77
948.16	5345.20
948.32	5144.50
948.49	5275.57
948.65	5273.52
948.82	5345.20
948.98	5300.14
949.15	5187.50
949.31	5244.85
949.48	5466.03
949.64	5220.27
949.81	5326.77
949.97	5300.14
950.14	5296.05
950.30	5228.46
950.47	5466.03
950.63	5351.34
950.80	5435.31
950.96	5294.00
951.13	5275.57
951.30	5222.32
951.46	5320.62
951.63	5400.49
951.79	5300.14
951.96	5347.25
952.12	5484.46
952.29	5363.63
952.45	5187.50
952.62	5199.79
952.78	5408.69
952.94	5392.30
953.11	5289.90
953.27	5271.47
953.44	5498.80
953.60	5455.79
953.77	5349.29
953.93	5476.27
954.10	5214.13
954.26	5279.66
954.43	5312.43
954.59	5441.45
954.76	5474.22
954.92	5384.11
955.09	5416.88
955.25	5486.51
955.42	5345.20
955.58	5613.48
955.75	5269.42
955.91	5394.35
956.07	5418.93
956.24	5646.25
956.40	5482.41
956.57	5470.12
956.73	5197.74
956.90	5425.07
957.06	5478.32
957.23	5339.05
957.39	5423.02
957.56	5488.56
957.72	5253.04
957.88	5404.59
958.05	5527.47
958.21	5377.97
958.38	5406.64
958.54	5486.51
958.71	5410.73
958.87	5386.16
959.03	5476.27
959.20	5560.24
959.36	5476.27
959.53	5425.07
959.69	5291.95
959.85	5453.74
960.02	5431.21
960.18	5461.93
960.35	5386.16
960.51	5556.14
960.68	5498.80
960.84	5547.95
961.00	5451.69
961.17	5541.80
961.33	5455.79
961.50	5410.73
961.66	5412.78
961.82	5443.50
961.99	5480.36
962.15	5451.69
962.31	5461.93
962.48	5463.98
962.64	5492.65
962.81	5525.42
962.97	5365.68
963.13	5486.51
963.30	5410.73
963.46	5337.01
963.62	5435.31
963.79	5357.49
963.95	5425.07
964.12	5433.26
964.28	5463.98
964.44	5371.82
964.61	5345.20
964.77	5320.62
964.93	5449.64
965.10	5310.38
965.26	5355.44
965.42	5334.96
965.59	5328.81
965.75	5320.62
965.92	5476.27
966.08	5298.10
966.24	5474.22
966.41	5154.74
966.57	5328.81
966.73	5371.82
966.90	5257.14
967.06	5240.75
967.22	5259.18
967.39	5107.63
967.55	5185.46
967.71	5224.37
967.88	5078.96
968.04	5115.83
968.20	5167.03
968.37	5218.22
968.53	5220.27
968.69	5105.59
968.85	5162.93
969.02	5181.36
969.18	5250.99
969.34	5246.90
969.51	5119.92
969.67	5066.67
969.83	5060.53
970.00	5164.98
970.16	5177.26
970.32	5001.14
970.48	5242.80
970.65	5066.67
970.81	5009.33
970.97	4941.75
971.14	4956.08
971.30	5136.31
971.46	4917.17
971.63	4988.85
971.79	5054.39
971.95	5052.34
972.11	4845.49
972.28	4929.46
972.44	4923.32
972.60	5019.57
972.76	5033.91
972.93	4853.69
973.09	4931.51
973.25	4865.97
973.42	4917.17
973.58	5154.74
973.74	4857.78
973.90	4902.84
974.07	4902.84
974.23	4775.86
974.39	4888.50
974.55	4917.17
974.72	4779.96
974.88	4718.52
975.04	4902.84
975.20	4818.87
975.37	4822.97
975.53	4720.57
975.69	4759.48
975.85	4773.82
976.01	4718.52
976.18	4626.36
976.34	4687.80
976.50	4759.48
976.66	4878.26
976.83	4782.01
976.99	4753.34
977.15	4632.51
977.31	4599.74
977.47	4650.94
977.64	4564.92
977.80	4669.37
977.96	4661.18
978.12	4583.35
978.29	4536.25
978.45	4462.52
978.61	4573.11
978.77	4646.84
978.93	4489.15
979.10	4548.54
979.26	4435.90
979.42	4446.14
979.58	4407.23
979.74	4362.17
979.91	4521.92
980.07	4399.04
980.23	4515.77
980.39	4374.46
980.55	4456.38
980.71	4380.61
980.88	4464.57
981.04	4333.50
981.20	4341.69
981.36	4345.79
981.52	4360.13
981.68	4333.50
981.85	4353.98
982.01	4337.60
982.17	4310.97
982.33	4399.04
982.49	4409.28
982.65	4300.73
982.82	4356.03
982.98	4319.17
983.14	4206.53
983.30	4343.74
983.46	4347.84
983.62	4280.25
983.79	4206.53
983.95	4179.90
984.11	4069.31
984.27	4224.96
984.43	4356.03
984.59	4247.49
984.75	4255.68
984.91	4112.32
985.08	4106.18
985.24	4069.31
985.40	4163.52
985.56	4130.75
985.72	4235.20
985.88	4083.65
986.04	4181.95
986.20	3995.59
986.37	4118.47
986.53	3895.24
986.69	4083.65
986.85	4155.33
987.01	3977.16
987.17	4011.97
987.33	4089.79
987.49	4001.73
987.65	4116.42
987.82	3930.05
987.98	3958.72
988.14	3934.15
988.30	3870.66
988.46	3964.87
988.62	3940.29
988.78	3852.23
988.94	3852.23
989.10	3805.13
989.26	3803.08
989.42	3864.52
989.59	3737.54
989.75	3866.56
989.91	3960.77
990.07	3729.35
990.23	3807.17
990.39	3909.57
990.55	3905.48
990.71	3770.31
990.87	3774.41
991.03	3870.66
991.19	3659.72
991.35	3821.51
991.51	3715.02
991.67	3887.04
991.83	3692.49
992.00	3770.31
992.16	3727.30
992.32	3712.97
992.48	3682.25
992.64	3600.33
992.80	3809.22
992.96	3784.65
993.12	3626.95
993.28	3661.77
993.44	3663.82
993.60	3674.06
993.76	3649.48
993.92	3641.29
994.08	3631.05
994.24	3653.58
994.40	3706.82
994.56	3717.06
994.72	3592.14
994.88	3542.99
995.04	3643.34
995.20	3596.23
995.36	3506.12
995.52	3592.14
995.68	3516.36
995.84	3467.21
996.00	3559.37
996.16	3467.21
996.32	3448.78
996.48	3559.37
996.64	3452.88
996.80	3510.22
996.96	3526.60
997.12	3477.45
997.28	3442.64
997.44	3350.48
997.60	3502.03
997.76	3358.67
997.92	3416.01
998.08	3504.07
998.24	3266.51
998.40	3350.48
998.56	3436.49
998.72	3231.69
998.88	3344.33
999.04	3342.28
999.20	3465.16
999.36	3297.23
999.52	3542.99
999.68	3309.52
999.84	3315.66
1000.00	3334.09
1000.16	3366.86
1000.32	3219.41
1000.48	3444.68
1000.64	3213.26
1000.80	3147.73
1000.95	3246.03
1001.11	3270.61
1001.27	3227.60
1001.43	3164.11
1001.59	3125.20
1001.75	3098.58
1001.91	3239.89
1002.07	3153.87
1002.23	3176.40
1002.39	3131.34
1002.55	3205.07
1002.71	3055.57
1002.87	3117.01
1003.03	3139.54
1003.19	3172.30
1003.34	3137.49
1003.50	3084.24
1003.66	3280.85
1003.82	3055.57
1003.98	3061.71
1004.14	3037.14
1004.30	3084.24
1004.46	3047.38
1004.62	3012.56
1004.78	3016.66
1004.94	3084.24
1005.09	3084.24
1005.25	3082.19
1005.41	2912.21
1005.57	2904.02
1005.73	2932.69
1005.89	2957.27
1006.05	3061.71
1006.21	3002.32
1006.37	2914.26
1006.52	2918.36
1006.68	2877.40
1006.84	3016.66
1007.00	2910.16
1007.16	2967.51
1007.32	2861.01
1007.48	2865.11
1007.64	2967.51
1007.79	2813.91
1007.95	2754.52
1008.11	2924.50
1008.27	2967.51
1008.43	2854.87
1008.59	2920.40
1008.75	2990.03
1008.91	2942.93
1009.06	2848.72
1009.22	2813.91
1009.38	2852.82
1009.54	2881.49
1009.70	2811.86
1009.86	2803.67
1010.01	2801.62
1010.17	2772.95
1010.33	2846.68
1010.49	2828.24
1010.65	2854.87
1010.81	2744.28
1010.96	2731.99
1011.12	2650.07
1011.28	2697.17
1011.44	2707.41
1011.60	2805.72
1011.76	2668.50
1011.91	2707.41
1012.07	2703.32
1012.23	2582.49
1012.39	2674.65
1012.55	2693.08
1012.71	2600.92
1012.86	2666.46
1013.02	2652.12
1013.18	2613.21
1013.34	2600.92
1013.50	2838.48
1013.65	2617.30
1013.81	2607.06
1013.97	2537.43
1014.13	2629.59
1014.29	2621.40
1014.44	2752.47
1014.60	2713.56
1014.76	2475.99
1014.92	2559.96
1015.07	2572.25
1015.23	2613.21
1015.39	2541.53
1015.55	2555.86
1015.71	2490.33
1015.86	2512.86
1016.02	2498.52
1016.18	2459.61
1016.34	2572.25
1016.49	2586.58
1016.65	2559.96
1016.81	2459.61
1016.97	2607.06
1017.12	2539.48
1017.28	2457.56
1017.44	2490.33
1017.60	2486.23
1017.75	2455.51
1017.91	2492.38
1018.07	2547.67
1018.23	2406.36
1018.38	2375.64
1018.54	2367.45
1018.70	2410.46
1018.86	2367.45
1019.01	2428.89
1019.17	2373.60
1019.33	2555.86
1019.49	2537.43
1019.64	2447.32
1019.80	2457.56
1019.96	2469.85
1020.12	2365.40
1020.27	2367.45
1020.43	2365.40
1020.59	2346.97
1020.74	2396.12
1020.90	2435.03
1021.06	2367.45
1021.22	2314.20
1021.37	2357.21
1021.53	2369.50
1021.69	2402.27
1021.84	2277.34
1022.00	2297.82
1022.16	2312.16
1022.31	2373.60
1022.47	2377.69
1022.63	2306.01
1022.79	2217.95
1022.94	2306.01
1023.10	2377.69
1023.26	2369.50
1023.41	2293.72
1023.57	2250.72
1023.73	2242.53
1023.88	2244.57
1024.04	2283.49
1024.20	2232.29
1024.35	2244.57
1024.51	2224.09
1024.67	2318.30
1024.82	2271.20
1024.98	2148.32
1025.14	2275.29
1025.29	2142.18
1025.45	2324.44
1025.61	2273.25
1025.76	2224.09
1025.92	2234.33
1026.08	2234.33
1026.23	2234.33
1026.39	2310.11
1026.55	2271.20
1026.70	2203.61
1026.86	2232.29
1027.02	2191.33
1027.17	2232.29
1027.33	2254.81
1027.48	2195.42
1027.64	2172.89
1027.80	2146.27
1027.95	2140.13
1028.11	2074.59
1028.27	2238.43
1028.42	2142.18
1028.58	2068.45
1028.73	2029.54
1028.89	2052.06
1029.05	2170.85
1029.20	2103.26
>>>>>End Processed Spectral Data<<<<<
