SpectraSuite Data File
++++++++++++++++++++++++++++++++++++
Date: Fri Jun 02 14:53:29 CEST 2017
User: INFO_000
Dark Spectrum Present: No
Reference Spectrum Present: No
Number of Sampled Component Spectra: 1
Spectrometers: USB4H00879
Integration Time (usec): 80000 (USB4H00879)
Spectra Averaged: 1 (USB4H00879)
Boxcar Smoothing: 0 (USB4H00879)
Correct for Electrical Dark: No (USB4H00879)
Strobe/Lamp Enabled: No (USB4H00879)
Correct for Detector Non-linearity: No (USB4H00879)
Correct for Stray Light: No (USB4H00879)
Number of Pixels in Processed Spectrum: 3648
>>>>>Begin Processed Spectral Data<<<<<
345.13	1314.80
345.34	1314.80
345.56	1314.80
345.78	1259.50
345.99	1294.32
346.21	1679.33
346.42	1660.90
346.64	1697.77
346.86	1796.07
347.07	1593.32
347.29	1628.14
347.50	1648.61
347.72	1646.57
347.94	1791.97
348.15	1538.02
348.37	1597.42
348.59	1763.30
348.80	1685.48
349.02	1822.69
349.23	1837.03
349.45	1783.78
349.67	1929.19
349.88	1820.64
350.10	1988.58
350.31	1826.79
350.53	1794.02
350.75	1947.62
350.96	1828.84
351.18	1812.45
351.39	1832.93
351.61	1716.20
351.82	1939.43
352.04	1896.42
352.26	1771.49
352.47	1867.75
352.69	1902.56
352.90	1765.35
353.12	1869.80
353.34	1820.64
353.55	1943.52
353.77	1935.33
353.98	1886.18
354.20	1808.36
354.41	1906.66
354.63	1933.28
354.85	1986.53
355.06	1900.52
355.28	1705.96
355.49	1908.71
355.71	1953.76
355.92	1941.47
356.14	1939.43
356.35	1816.55
356.57	1849.32
356.79	1949.67
357.00	1851.36
357.22	1968.10
357.43	1859.56
357.65	1982.43
357.86	1880.04
358.08	1855.46
358.29	1912.80
358.51	1986.53
358.72	1894.37
358.94	1945.57
359.16	1951.71
359.37	1953.76
359.59	2070.50
359.80	2021.35
360.02	1896.42
360.23	1957.86
360.45	2027.49
360.66	1941.47
360.88	1896.42
361.09	1914.85
361.31	2025.44
361.52	1957.86
361.74	2035.68
361.95	1992.67
362.17	1982.43
362.38	2086.88
362.60	1986.53
362.81	2023.39
363.03	1964.00
363.24	1990.63
363.46	2035.68
363.67	1996.77
363.89	1986.53
364.10	1966.05
364.32	2015.20
364.53	2002.91
364.75	1908.71
364.96	2080.74
365.18	2021.35
365.39	1990.63
365.61	2023.39
365.82	2099.17
366.04	2015.20
366.25	1916.90
366.47	2052.06
366.68	2021.35
366.90	1941.47
367.11	2125.79
367.33	2187.23
367.54	2095.07
367.76	1978.34
367.97	2138.08
368.19	1994.72
368.40	2066.40
368.62	1970.15
368.83	2043.87
369.05	2074.59
369.26	2039.78
369.48	1976.29
369.69	2021.35
369.91	2052.06
370.12	2027.49
370.33	2117.60
370.55	2066.40
370.76	2011.11
370.98	2105.31
371.19	2109.41
371.41	1992.67
371.62	2111.46
371.84	2074.59
372.05	2107.36
372.27	2101.22
372.48	2056.16
372.69	2140.13
372.91	2097.12
373.12	2158.56
373.34	2084.83
373.55	2123.74
373.77	2271.20
373.98	2129.89
374.20	2107.36
374.41	2297.82
374.62	2142.18
374.84	2207.71
375.05	2267.10
375.27	2193.37
375.48	2234.33
375.70	2236.38
375.91	2209.76
376.12	2312.16
376.34	2211.81
376.55	2133.98
376.77	2344.92
376.98	2189.28
377.19	2142.18
377.41	2131.94
377.62	2138.08
377.84	2201.57
378.05	2334.68
378.27	2117.60
378.48	2299.87
378.69	2385.88
378.91	2355.16
379.12	2203.61
379.34	2260.96
379.55	2285.53
379.76	2209.76
379.98	2238.43
380.19	2375.64
380.41	2267.10
380.62	2308.06
380.83	2193.37
381.05	2162.66
381.26	2404.32
381.47	2281.44
381.69	2314.20
381.90	2373.60
382.12	2396.12
382.33	2303.96
382.54	2303.96
382.76	2256.86
382.97	2326.49
383.19	2277.34
383.40	2396.12
383.61	2162.66
383.83	2308.06
384.04	2306.01
384.25	2449.37
384.47	2410.46
384.68	2412.51
384.89	2385.88
385.11	2371.55
385.32	2340.83
385.54	2363.36
385.75	2398.17
385.96	2371.55
386.18	2400.22
386.39	2461.66
386.60	2424.80
386.82	2478.04
387.03	2422.75
387.24	2506.71
387.46	2506.71
387.67	2535.39
387.88	2527.19
388.10	2484.19
388.31	2596.82
388.52	2611.16
388.74	2572.25
388.95	2430.94
389.16	2545.63
389.38	2445.27
389.59	2648.02
389.80	2662.36
390.02	2613.21
390.23	2736.09
390.44	2576.34
390.66	2662.36
390.87	2611.16
391.08	2623.45
391.30	2666.46
391.51	2650.07
391.72	2668.50
391.94	2731.99
392.15	2639.83
392.36	2527.19
392.58	2557.91
392.79	2662.36
393.00	2775.00
393.22	2602.97
393.43	2711.51
393.64	2820.05
393.85	2797.53
394.07	2746.33
394.28	2858.96
394.49	2815.96
394.71	2822.10
394.92	2854.87
395.13	2695.13
395.35	2766.81
395.56	2881.49
395.77	2797.53
395.98	2820.05
396.20	2899.92
396.41	2852.82
396.62	2834.39
396.84	2838.48
397.05	2850.77
397.26	2865.11
397.47	2957.27
397.69	2783.19
397.90	3043.28
398.11	2875.35
398.32	2844.63
398.54	2899.92
398.75	2815.96
398.96	2910.16
399.18	3069.91
399.39	2977.75
399.60	3012.56
399.81	2875.35
400.03	2908.12
400.24	3256.27
400.45	3002.32
400.66	3084.24
400.88	3069.91
401.09	3166.16
401.30	3098.58
401.51	3147.73
401.73	3125.20
401.94	3088.34
402.15	3117.01
402.36	3133.39
402.58	3164.11
402.79	3237.84
403.00	3157.97
403.21	3293.13
403.43	3182.54
403.64	3352.52
403.85	3157.97
404.06	3178.45
404.27	3129.30
404.49	3117.01
404.70	3063.76
404.91	3280.85
405.12	3293.13
405.34	3205.07
405.55	3373.00
405.76	3153.87
405.97	3217.36
406.19	3356.62
406.40	3330.00
406.61	3243.98
406.82	3387.34
407.03	3348.43
407.25	3325.90
407.46	3448.78
407.67	3432.40
407.88	3459.02
408.09	3289.04
408.31	3407.82
408.52	3379.15
408.73	3436.49
408.94	3325.90
409.15	3553.23
409.37	3495.88
409.58	3545.03
409.79	3538.89
410.00	3600.33
410.21	3387.34
410.43	3364.81
410.64	3401.68
410.85	3600.33
411.06	3616.71
411.27	3532.75
411.48	3690.44
411.70	3555.27
411.91	3565.51
412.12	3690.44
412.33	3600.33
412.54	3581.90
412.76	3743.69
412.97	3678.15
413.18	3608.52
413.39	3667.91
413.60	3710.92
413.81	3731.40
414.03	3706.82
414.24	3717.06
414.45	3903.43
414.66	3635.14
414.87	3928.00
415.08	3790.79
415.30	3665.86
415.51	3803.08
415.72	3837.89
415.93	3786.69
416.14	3960.77
416.35	3747.78
416.56	3833.80
416.78	3899.33
416.99	3895.24
417.20	3864.52
417.41	3923.91
417.62	3952.58
417.83	3907.52
418.04	3971.01
418.26	3952.58
418.47	3934.15
418.68	4204.48
418.89	3876.80
419.10	4175.81
419.31	3958.72
419.52	4184.00
419.73	3977.16
419.95	4038.59
420.16	4083.65
420.37	4069.31
420.58	4165.57
420.79	3960.77
421.00	4136.90
421.21	4235.20
421.42	4050.88
421.63	4157.38
421.85	4014.02
422.06	4280.25
422.27	4227.01
422.48	4186.05
422.69	4243.39
422.90	4231.10
423.11	4247.49
423.32	4396.99
423.53	4370.37
423.75	4329.41
423.96	4349.89
424.17	4480.96
424.38	4546.49
424.59	4517.82
424.80	4614.07
425.01	4501.44
425.22	4444.09
425.43	4415.42
425.64	4665.27
425.85	4689.85
426.06	4491.20
426.28	4736.95
426.49	4628.41
426.70	4597.69
426.91	4521.92
427.12	4763.58
427.33	4566.97
427.54	4595.64
427.75	4730.81
427.96	4698.04
428.17	4784.06
428.38	4722.62
428.59	4935.60
428.80	4857.78
429.01	4943.80
429.23	4978.61
429.44	5017.52
429.65	5083.06
429.86	4935.60
430.07	5040.05
430.28	4876.21
430.49	4863.93
430.70	5038.00
430.91	5175.22
431.12	5193.65
431.33	5220.27
431.54	5181.36
431.75	5124.02
431.96	4925.36
432.17	5214.13
432.38	5115.83
432.59	5304.24
432.80	5345.20
433.01	5296.05
433.22	5369.77
433.43	5267.38
433.64	5220.27
433.85	5175.22
434.06	5330.86
434.27	5279.66
434.49	5410.73
434.70	5564.33
434.91	5533.61
435.12	5402.54
435.33	5312.43
435.54	5511.08
435.75	5468.08
435.96	5500.84
436.17	5375.92
436.38	5580.71
436.59	5494.70
436.80	5515.18
437.01	5844.90
437.22	5736.36
437.43	5603.24
437.64	5558.19
437.85	5762.98
438.06	5683.11
438.27	5650.35
438.48	5695.40
438.69	5922.73
438.90	5892.01
439.11	5687.21
439.32	5902.25
439.53	5939.11
439.74	5697.45
439.95	5699.50
440.16	5797.80
440.37	6041.51
440.57	5937.06
440.78	5894.05
440.99	5959.59
441.20	6061.99
441.41	5959.59
441.62	6043.56
441.83	5797.80
442.04	6035.36
442.25	6055.84
442.46	6016.93
442.67	6207.39
442.88	6465.44
443.09	6107.04
443.30	6188.96
443.51	6238.11
443.72	6436.77
443.93	6166.43
444.14	6555.55
444.35	6172.58
444.56	6272.93
444.77	6289.31
444.98	6418.33
445.19	6514.59
445.40	6442.91
445.61	6369.18
445.81	6588.32
446.02	6686.62
446.23	6490.01
446.44	6590.36
446.65	6492.06
446.86	6703.00
447.07	6756.25
447.28	6809.50
447.49	6776.73
447.70	6657.95
447.91	6823.83
448.12	6627.23
448.33	7049.11
448.54	6893.46
448.74	6735.77
448.95	6938.52
449.16	6711.19
449.37	7065.49
449.58	6883.22
449.79	7100.31
450.00	6735.77
450.21	6950.81
450.42	7204.75
450.63	7098.26
450.84	7090.07
451.05	7116.69
451.25	7153.55
451.46	7174.03
451.67	7264.15
451.88	7184.27
452.09	7251.86
452.30	7298.96
452.51	7243.67
452.72	7452.56
452.93	7665.55
453.13	7204.75
453.34	7284.62
453.55	7489.42
453.76	7473.04
453.97	7665.55
454.18	7550.86
454.39	7698.31
454.60	7622.54
454.81	7620.49
455.01	7823.24
455.22	7628.68
455.43	7810.95
455.64	7968.65
455.85	8040.33
456.06	8226.69
456.27	7937.93
456.48	7841.67
456.68	7933.83
456.89	7999.37
457.10	8130.44
457.31	8257.41
457.52	8204.16
457.73	8281.99
457.94	8392.58
458.14	8040.33
458.35	8566.65
458.56	8236.93
458.77	8355.71
458.98	8370.05
459.19	8378.24
459.39	8593.28
459.60	8701.82
459.81	8425.34
460.02	8685.44
460.23	8501.12
460.44	8879.99
460.65	8873.85
460.85	8736.63
461.06	8839.03
461.27	8652.67
461.48	9174.90
461.69	9009.01
461.89	8791.93
462.10	9183.09
462.31	8789.88
462.52	8853.37
462.73	9162.61
462.94	9277.30
463.14	9129.84
463.35	9291.63
463.56	9598.83
463.77	9664.36
463.98	9387.89
464.18	9293.68
464.39	9480.05
464.60	9647.98
464.81	9549.68
465.02	9674.60
465.23	9883.50
465.43	9488.24
465.64	10155.88
465.85	9750.38
466.06	9611.12
466.27	10309.47
466.47	9946.98
466.68	10082.15
466.89	10129.25
467.10	10231.65
467.30	10151.78
467.51	10428.26
467.72	10391.39
467.93	10284.90
468.14	10282.85
468.34	10489.70
468.55	10477.41
468.76	10651.49
468.97	10473.31
469.17	10762.08
469.38	10872.67
469.59	10887.00
469.80	10827.61
470.01	10733.40
470.21	10956.63
470.42	11323.22
470.63	11327.32
470.84	11063.13
471.04	11042.65
471.25	11288.40
471.46	11345.75
471.67	11675.47
471.87	11427.67
472.08	11429.71
472.29	11829.07
472.50	11329.36
472.70	11583.31
472.91	11665.23
473.12	11915.08
473.33	11953.99
473.53	11960.14
473.74	12171.08
473.95	12236.61
474.16	12343.11
474.36	12277.57
474.57	12470.08
474.78	12812.09
474.99	12580.67
475.19	12447.55
475.40	12783.42
475.61	12982.07
475.81	12982.07
476.02	13309.75
476.23	13006.65
476.44	13250.36
476.64	13365.04
476.85	13211.45
477.06	13537.07
477.27	13637.42
477.47	13662.00
477.68	13705.01
477.89	13782.83
478.09	13907.76
478.30	14012.20
478.51	13985.58
478.71	14133.03
478.92	14124.84
479.13	14346.02
479.34	14411.56
479.54	14550.82
479.75	14665.50
479.96	14573.35
480.16	14583.59
480.37	14780.19
480.58	14876.44
480.78	15322.90
480.99	14901.02
481.20	15400.72
481.41	15367.96
481.61	15470.36
481.82	15597.33
482.03	15519.51
482.23	15339.29
482.44	15888.14
482.65	16234.25
482.85	15937.29
483.06	15941.39
483.27	15963.92
483.47	16047.88
483.68	16207.62
483.89	16377.61
484.09	16578.31
484.30	16760.58
484.51	16781.06
484.71	16873.21
484.92	16830.21
485.13	17057.53
485.33	17020.67
485.54	17067.77
485.75	17487.61
485.95	17364.73
486.16	17465.08
486.37	18081.52
486.57	17641.20
486.78	17676.02
486.98	17606.39
487.19	17878.77
487.40	18034.41
487.60	18024.17
487.81	18171.63
488.02	18077.42
488.22	18067.18
488.43	18628.32
488.64	18550.50
488.84	18677.48
489.05	18851.55
489.25	18620.13
489.46	19095.26
489.67	18939.62
489.87	19152.60
490.08	19560.15
490.29	19531.48
490.49	19824.34
490.70	19453.66
490.90	19594.96
491.11	19771.09
491.32	19896.02
491.52	20076.24
491.73	20178.64
491.94	20045.52
492.14	20039.37
492.35	20582.09
492.55	20514.50
492.76	20725.44
492.97	20879.04
493.17	20604.61
493.38	20956.86
493.58	21067.45
493.79	21319.35
494.00	20850.37
494.20	21143.23
494.41	21155.52
494.61	21298.88
494.82	21419.71
495.02	21309.11
495.23	21644.98
495.44	22011.57
495.64	22046.38
495.85	21890.74
496.05	21954.22
496.26	21790.39
496.47	22257.32
496.67	22195.89
496.88	22572.71
497.08	22300.33
497.29	22343.34
497.49	22507.18
497.70	22787.75
497.91	22871.72
498.11	22830.76
498.32	23025.31
498.52	23002.78
498.73	23377.56
498.93	23424.67
499.14	23178.91
499.34	23277.21
499.55	23686.81
499.76	23688.85
499.96	23371.42
500.17	23598.74
500.37	23875.22
500.58	23637.66
500.78	24028.82
500.99	24014.48
501.19	24282.77
501.40	24118.93
501.60	23979.67
501.81	24131.22
502.02	24608.39
502.22	24139.41
502.43	24395.40
502.63	24575.62
502.84	24598.15
503.04	24604.30
503.25	24837.76
503.45	24884.87
503.66	24993.41
503.86	24927.88
504.07	25570.94
504.27	24903.30
504.48	25636.47
504.68	25284.22
504.89	25392.76
505.09	25423.48
505.30	25343.61
505.50	25796.21
505.71	25400.96
505.91	25599.61
506.12	25642.62
506.32	25749.11
506.53	25878.13
506.73	25687.67
506.94	26175.09
507.14	26259.06
507.35	26041.97
507.55	25966.20
507.76	26396.27
507.96	26226.29
508.17	26044.02
508.37	26347.12
508.58	26496.62
508.78	26500.72
508.99	26568.30
509.19	26799.72
509.40	26472.04
509.60	26490.48
509.81	26705.51
510.01	26584.68
510.22	26572.39
510.42	26529.39
510.63	27072.10
510.83	27154.02
511.04	26994.28
511.24	27022.95
511.44	27102.82
511.65	27004.52
511.85	26959.46
512.06	27262.56
512.26	27235.94
512.47	27668.06
512.67	27561.56
512.88	27184.74
513.08	27010.66
513.29	27725.40
513.49	27434.59
513.69	27698.78
513.90	27672.15
514.10	27623.00
514.31	27938.39
514.51	27932.25
514.72	27858.52
514.92	27594.33
515.13	27727.45
515.33	28255.82
515.53	27952.73
515.74	28124.75
515.94	28415.57
516.15	28087.89
516.35	28091.99
516.56	28257.87
516.76	28044.88
516.96	28225.11
517.17	28853.83
517.37	28233.30
517.58	28315.22
517.78	28550.73
517.99	28481.10
518.19	28927.56
518.39	28950.09
518.60	28937.80
518.80	28526.16
519.01	29081.16
519.21	28989.00
519.41	28816.97
519.62	28708.43
519.82	29052.48
520.03	29242.95
520.23	29142.60
520.43	29251.14
520.64	29486.65
520.84	29701.69
521.05	29494.85
521.25	29378.11
521.45	29613.63
521.66	29787.71
521.86	29519.42
522.07	29730.36
522.27	29765.18
522.47	29660.73
522.68	29822.52
522.88	29677.12
523.08	30211.64
523.29	30041.65
523.49	30164.53
523.70	30318.13
523.90	30449.20
524.10	30250.55
524.31	30449.20
524.51	30352.94
524.71	30707.24
524.92	30832.17
525.12	30602.80
525.33	31012.39
525.53	31075.88
525.73	31180.32
525.94	31364.64
526.14	31106.60
526.34	30938.66
526.55	31184.42
526.75	31598.11
526.95	31540.77
527.16	31755.80
527.36	31637.02
527.56	31895.07
527.77	32067.09
527.97	32099.86
528.17	31637.02
528.38	31981.08
528.58	31987.22
528.78	32204.31
528.99	32333.33
529.19	32171.54
529.39	32114.20
529.60	32405.01
529.80	32601.61
530.00	32491.02
530.21	32806.41
530.41	33177.09
530.61	32529.94
530.82	32716.30
531.02	32818.70
531.22	32931.34
531.43	33281.54
531.63	33316.36
531.83	33717.76
532.04	33709.57
532.24	33631.74
532.44	33771.00
532.64	33830.40
532.85	33730.05
533.05	33949.18
533.25	34256.37
533.46	34014.71
533.66	34283.00
533.86	34584.05
534.07	34768.37
534.27	34176.50
534.47	34946.54
534.67	34629.10
534.88	34391.54
535.08	35104.23
535.28	34819.56
535.49	35151.34
535.69	35202.53
535.89	35474.91
536.09	35491.30
536.30	36001.24
536.50	35565.03
536.70	36015.58
536.91	35773.92
537.11	35806.69
537.31	36146.65
537.51	35919.32
537.72	36072.92
537.92	35923.42
538.12	36746.70
538.32	36079.07
538.53	36679.12
538.73	36285.91
538.93	36052.44
539.13	36279.77
539.34	36640.21
539.54	36656.59
539.74	37006.80
539.94	36873.68
540.15	36912.59
540.35	37819.84
540.55	37383.62
540.75	37690.82
540.96	37463.49
541.16	37610.95
541.36	37598.66
541.56	37686.72
541.77	37922.24
541.97	37713.34
542.17	38256.06
542.37	38129.08
542.58	37979.58
542.78	38030.78
542.98	38190.52
543.18	38458.81
543.38	38745.52
543.59	38694.32
543.79	38698.42
543.99	38360.50
544.19	39007.66
544.40	38995.37
544.60	39290.28
544.80	38864.30
545.00	39054.76
545.20	39472.55
545.41	39108.01
545.61	39310.76
545.81	39832.99
546.01	39577.00
546.21	39468.45
546.42	39673.25
546.62	39904.67
546.82	39835.04
547.02	39759.27
547.22	39933.34
547.43	39646.63
547.63	39974.30
547.83	40433.05
548.03	40015.26
548.23	40326.55
548.44	39974.30
548.64	40177.05
548.84	40650.13
549.04	40707.47
549.24	41092.49
549.45	40856.98
549.65	40658.32
549.85	40879.50
550.05	40773.01
550.25	40627.60
550.45	41704.84
550.66	40947.09
550.86	40975.76
551.06	41291.15
551.26	41397.64
551.46	41375.11
551.66	41541.00
551.87	41059.73
552.07	41407.88
552.27	41518.47
552.47	41917.82
552.67	41770.37
552.87	41794.95
553.07	42089.85
553.28	42253.69
553.48	41911.68
553.68	41721.22
553.88	42411.38
554.08	42276.22
554.28	42349.95
554.48	42259.84
554.69	42536.31
554.89	42290.55
555.09	42384.76
555.29	42704.24
555.49	42861.94
555.69	42460.54
555.89	42321.27
556.10	42810.74
556.30	42562.93
556.50	43197.80
556.70	42607.99
556.90	43185.52
557.10	43337.07
557.30	43394.41
557.50	43308.40
557.70	43255.15
557.91	43648.36
558.11	43189.61
558.31	43685.22
558.51	43130.22
558.71	43486.57
558.91	43496.81
559.11	43314.54
559.31	43576.68
559.51	43277.68
559.72	43584.87
559.92	43965.79
560.12	43521.38
560.32	43650.41
560.52	43736.42
560.72	43605.35
560.92	44055.90
561.12	43812.20
561.32	44246.36
561.52	44111.20
561.72	44490.07
561.93	44148.06
562.13	44258.65
562.33	44393.82
562.53	44688.73
562.73	44057.95
562.93	44191.07
563.13	44332.38
563.33	44338.52
563.53	44461.40
563.73	44225.89
563.93	44391.77
564.13	44754.26
564.33	45051.22
564.53	44348.76
564.74	45299.02
564.94	44295.52
565.14	44602.71
565.34	44582.23
565.54	44596.57
565.74	44782.93
565.94	45270.35
566.14	44995.92
566.34	44936.53
566.54	45098.32
566.74	44926.29
566.94	45159.76
567.14	44885.33
567.34	45016.40
567.54	45372.75
567.74	45086.03
567.94	45258.06
568.14	45069.65
568.34	45702.47
568.54	45339.98
568.74	45387.08
568.94	45329.74
569.14	45716.81
569.34	45319.50
569.54	45151.57
569.75	45774.15
569.95	45034.83
570.15	45731.14
570.35	45546.82
570.55	45542.73
570.75	45622.60
570.95	45993.28
571.15	45999.43
571.35	45626.70
571.55	46204.22
571.75	45739.33
571.95	45538.63
572.15	45712.71
572.35	45929.80
572.55	46167.36
572.75	45942.08
572.95	45618.50
573.15	46241.09
573.35	45860.16
573.55	46069.06
573.75	45903.17
573.95	46206.27
574.15	45946.18
574.35	46492.99
574.55	46409.02
574.75	46329.15
574.95	46560.57
575.15	46236.99
575.34	46294.33
575.54	46488.89
575.74	46904.63
575.94	46708.02
576.14	46257.47
576.34	46822.71
576.54	46863.67
576.74	46890.29
576.94	46671.16
577.14	47029.55
577.34	47131.95
577.54	46732.60
577.74	46972.21
577.94	46890.29
578.14	47267.12
578.34	47322.41
578.54	46759.22
578.74	47109.43
578.94	47586.60
579.14	47090.99
579.34	46951.73
579.54	47209.78
579.74	47721.77
579.94	47400.24
580.13	47564.07
580.33	47258.93
580.53	47463.72
580.73	47912.23
580.93	47420.72
581.13	47553.83
581.33	47445.29
581.53	47527.21
581.73	47510.83
581.93	47963.43
582.13	47996.20
582.33	48157.99
582.53	47609.13
582.73	48088.35
582.92	48479.52
583.12	48053.54
583.32	47971.62
583.52	47596.84
583.72	47973.67
583.92	47916.32
584.12	48141.60
584.32	48735.51
584.52	48293.15
584.72	48035.11
584.92	48244.00
585.11	48862.49
585.31	48428.32
585.51	48297.25
585.71	48035.11
585.91	48950.55
586.11	48207.14
586.31	48069.92
586.51	48799.00
586.71	48420.13
586.91	48733.46
587.10	48557.34
587.30	48917.78
587.50	48909.59
587.70	48651.55
587.90	49014.04
588.10	49237.26
588.30	48710.94
588.50	49141.01
588.69	48862.49
588.89	49126.67
589.09	49067.28
589.29	48868.63
589.49	48829.72
589.69	48850.20
589.89	49530.12
590.08	49110.29
590.28	49362.19
590.48	49079.57
590.68	49192.21
590.88	49055.00
591.08	48934.17
591.28	48776.47
591.47	49644.81
591.67	49437.97
591.87	49194.26
592.07	50216.19
592.27	49460.49
592.47	49751.30
592.67	49616.14
592.86	49265.94
593.06	49452.30
593.26	49837.32
593.46	49964.29
593.66	50078.98
593.86	49753.35
594.05	49421.58
594.25	50263.30
594.45	49874.18
594.65	49870.09
594.85	49460.49
595.05	50242.82
595.24	50373.89
595.44	50398.46
595.64	49790.22
595.84	49943.81
596.04	50005.25
596.23	50369.79
596.43	50939.13
596.63	50164.99
596.83	50425.09
597.03	51240.18
597.22	50668.79
597.42	50431.23
597.62	50801.91
597.82	50615.55
598.02	51207.41
598.21	50855.16
598.41	50365.70
598.61	51074.29
598.81	51025.14
599.01	50961.65
599.20	51004.66
599.40	51066.10
599.60	51309.81
599.80	51059.96
600.00	51188.98
600.19	51496.17
600.39	51088.63
600.59	51541.23
600.79	51598.57
600.98	51270.90
601.18	51705.07
601.38	51682.54
601.58	52020.45
601.78	51404.02
601.97	51692.78
602.17	51977.45
602.37	52296.93
602.57	51938.54
602.76	52077.80
602.96	51676.40
603.16	52485.34
603.36	51946.73
603.55	52493.54
603.75	52020.45
603.95	52647.13
604.15	52229.35
604.34	52135.14
604.54	52626.65
604.74	52542.69
604.94	52669.66
605.13	52600.03
605.33	52843.74
605.53	52272.35
605.73	53292.24
605.92	52833.50
606.12	52942.04
606.32	53083.35
606.52	52505.82
606.71	52868.31
606.91	53609.68
607.11	53085.40
607.30	53421.26
607.50	53488.85
607.70	53562.57
607.90	53038.29
608.09	53103.83
608.29	53523.66
608.49	53468.37
608.68	53519.57
608.88	53155.03
609.08	53902.54
609.28	53861.58
609.47	53540.05
609.67	53822.67
609.87	53828.81
610.06	54265.03
610.26	54224.07
610.46	54195.40
610.66	53779.66
610.85	54146.25
611.05	54041.80
611.25	54228.16
611.44	54105.29
611.64	54117.57
611.84	54205.64
612.03	53920.97
612.23	54213.83
612.43	53966.02
612.62	54226.12
612.82	54336.71
613.02	54326.47
613.21	54746.30
613.41	54260.93
613.61	54076.61
613.80	54080.71
614.00	54432.96
614.20	54826.17
614.39	54559.94
614.59	54316.23
614.79	54742.20
614.98	54621.37
615.18	54637.76
615.38	54801.60
615.57	54424.77
615.77	54410.43
615.97	54473.92
616.16	54957.24
616.36	54957.24
616.56	54918.33
616.75	54983.86
616.95	54326.47
617.15	54506.69
617.34	54703.29
617.54	54445.25
617.74	55159.99
617.93	55301.30
618.13	54473.92
618.32	55035.06
618.52	54387.91
618.72	54957.24
618.91	55313.59
619.11	54891.71
619.31	54494.40
619.50	54883.51
619.70	55000.25
619.90	55145.65
620.09	54797.50
620.29	54641.85
620.48	55286.96
620.68	55377.08
620.88	54992.06
621.07	55045.30
621.27	55284.92
621.46	54582.46
621.66	55006.39
621.86	55397.55
622.05	54828.22
622.25	55559.34
622.44	55358.64
622.64	55293.11
622.84	55678.13
623.03	55104.70
623.23	55368.88
623.42	55278.77
623.62	55325.88
623.82	55557.30
624.01	55674.03
624.21	55551.15
624.40	55295.16
624.60	55641.26
624.80	55071.93
624.99	55467.19
625.19	55424.18
625.38	55702.70
625.58	55723.18
625.77	55647.41
625.97	55547.06
626.17	55479.47
626.36	55313.59
626.56	55577.78
626.75	54897.85
626.95	56255.65
627.14	55882.92
627.34	55743.66
627.54	55356.60
627.73	55815.34
627.93	55903.40
628.12	55002.30
628.32	55725.23
628.51	56026.28
628.71	55682.22
628.90	55960.75
629.10	55389.36
629.30	55704.75
629.49	56034.47
629.69	56130.73
629.88	55411.89
630.08	56235.17
630.27	56022.19
630.47	55454.90
630.66	55491.76
630.86	56167.59
631.05	55274.68
631.25	56313.00
631.44	55907.50
631.64	55686.32
631.84	55940.27
632.03	56626.34
632.23	56325.28
632.42	56460.45
632.62	56153.26
632.81	55631.02
633.01	55981.23
633.20	56573.09
633.40	55973.03
633.59	56390.82
633.79	55592.11
633.98	56583.33
634.18	56296.61
634.37	56282.28
634.57	56288.42
634.76	56577.18
634.96	56214.69
635.15	56386.72
635.35	55968.94
635.54	56173.73
635.74	56333.48
635.93	56175.78
636.13	56464.55
636.32	56433.83
636.52	56374.44
636.71	56558.75
636.91	57099.42
637.10	56945.82
637.30	55987.37
637.49	56779.93
637.69	56718.49
637.88	56521.89
638.08	56020.14
638.27	57136.28
638.46	56384.68
638.66	56251.56
638.85	56546.47
639.05	56640.67
639.24	56710.30
639.44	56485.03
639.63	56677.54
639.83	56657.06
640.02	56454.31
640.22	56417.44
640.41	56872.09
640.61	56685.73
640.80	56888.48
640.99	56759.45
641.19	57316.50
641.38	56714.40
641.58	56523.94
641.77	56829.08
641.97	56667.30
642.16	56847.52
642.36	57089.18
642.55	56839.32
642.74	56415.40
642.94	57445.52
643.13	57037.98
643.33	57365.65
643.52	57146.52
643.72	57181.34
643.91	56755.36
644.10	57283.73
644.30	57220.25
644.49	56943.77
644.69	56890.52
644.88	57212.06
645.08	57105.56
645.27	57189.53
645.46	56726.69
645.66	57068.70
645.85	56892.57
646.05	57169.05
646.24	57169.05
646.43	57005.21
646.63	57369.75
646.82	57742.48
647.02	57238.68
647.21	57040.03
647.40	57146.52
647.60	57101.46
647.79	57539.73
647.99	57212.06
648.18	57234.58
648.37	57586.83
648.57	57697.42
648.76	57705.62
648.96	57181.34
649.15	57558.16
649.34	57490.58
649.54	57509.01
649.73	57033.88
649.92	57085.08
650.12	57615.50
650.31	57414.80
650.51	57699.47
650.70	57756.81
650.89	57205.91
651.09	57805.97
651.28	57541.78
651.47	57449.62
651.67	57498.77
651.86	58012.81
652.06	56751.26
652.25	57423.00
652.44	57195.67
652.64	57324.69
652.83	57218.20
653.02	57420.95
653.22	57490.58
653.41	57130.14
653.60	57078.94
653.80	57121.94
653.99	57275.54
654.18	57343.12
654.38	57429.14
654.57	57816.21
654.76	57310.36
654.96	57515.15
655.15	57525.39
655.34	57177.24
655.54	57162.90
655.73	57203.86
655.92	57607.31
656.12	57476.24
656.31	57547.92
656.50	57111.70
656.70	57570.45
656.89	57517.20
657.08	57431.19
657.28	57353.36
657.47	57361.56
657.66	57406.61
657.86	57492.63
658.05	57283.73
658.24	57607.31
658.43	57300.12
658.63	57531.54
658.82	57199.77
659.01	57623.70
659.21	57728.14
659.40	57533.59
659.59	57377.94
659.79	56990.87
659.98	57558.16
660.17	57136.28
660.36	57324.69
660.56	57185.43
660.75	57906.32
660.94	57373.84
661.14	57287.83
661.33	57144.47
661.52	56757.41
661.71	57828.49
661.91	57255.06
662.10	57121.94
662.29	57257.11
662.49	57578.64
662.68	57007.26
662.87	57250.97
663.06	57177.24
663.26	57001.11
663.45	57461.91
663.64	56906.91
663.83	57844.88
664.03	57726.10
664.22	57257.11
664.41	57296.02
664.60	56888.48
664.80	56966.30
664.99	56931.48
665.18	57316.50
665.37	57033.88
665.57	56890.52
665.76	57056.41
665.95	57080.98
666.14	56833.18
666.34	56550.56
666.53	57173.14
666.72	56638.62
666.91	56464.55
667.11	56759.45
667.30	57050.27
667.49	56636.58
667.68	56749.21
667.87	56667.30
668.07	56868.00
668.26	56732.83
668.45	57142.42
668.64	56292.52
668.84	57296.02
669.03	56745.12
669.22	56812.70
669.41	57029.79
669.60	56837.28
669.80	56274.09
669.99	56636.58
670.18	56827.04
670.37	56689.82
670.57	56935.58
670.76	56286.37
670.95	56908.96
671.14	56489.12
671.33	55917.74
671.53	56655.01
671.72	56679.58
671.91	56532.13
672.10	56482.98
672.29	56900.76
672.48	56724.64
672.68	56898.72
672.87	56474.79
673.06	56437.92
673.25	55739.57
673.44	55887.02
673.64	56300.71
673.83	56079.53
674.02	56220.84
674.21	55913.64
674.40	56439.97
674.59	55895.21
674.79	55952.55
674.98	55854.25
675.17	55997.61
675.36	55858.35
675.55	56100.01
675.74	56124.58
675.94	56143.02
676.13	56278.18
676.32	56208.55
676.51	56491.17
676.70	55872.68
676.89	55999.66
677.08	56143.02
677.28	55829.68
677.47	56190.12
677.66	56181.93
677.85	56247.46
678.04	56116.39
678.23	56448.16
678.42	56110.25
678.62	55925.93
678.81	55743.66
679.00	55671.98
679.19	56581.28
679.38	56048.81
679.57	55710.89
679.76	56083.62
679.96	55872.68
680.15	56009.90
680.34	55833.77
680.53	55418.03
680.72	55784.62
680.91	56112.30
681.10	55760.05
681.29	56044.71
681.48	55702.70
681.68	55309.49
681.87	55778.48
682.06	55522.48
682.25	55157.94
682.44	55272.63
682.63	55424.18
682.82	55387.31
683.01	54940.86
683.20	55188.66
683.39	55792.81
683.59	55268.53
683.78	55168.18
683.97	54944.95
684.16	55473.33
684.35	55159.99
684.54	55606.45
684.73	54631.61
684.92	54701.25
685.11	54813.88
685.30	54949.05
685.49	55088.31
685.69	54527.17
685.88	55145.65
686.07	54979.77
686.26	54813.88
686.45	54887.61
686.64	55035.06
686.83	54951.10
687.02	55090.36
687.21	54770.88
687.40	54967.48
687.59	55268.53
687.78	54869.18
687.97	55291.06
688.16	54785.21
688.35	54959.29
688.54	54641.85
688.74	54564.03
688.93	54979.77
689.12	54525.12
689.31	54940.86
689.50	55289.01
689.69	54410.43
689.88	53939.40
690.07	54193.35
690.26	54629.57
690.45	54811.84
690.64	54533.31
690.83	54674.62
691.02	54467.78
691.21	54555.84
691.40	54564.03
691.59	54330.56
691.78	54238.40
691.97	54531.26
692.16	54529.22
692.35	54568.13
692.54	54551.74
692.73	54404.29
692.92	53871.82
693.11	54021.32
693.30	54351.04
693.49	54705.34
693.68	54287.56
693.87	53804.24
694.06	53667.02
694.25	53867.72
694.44	53810.38
694.63	53959.88
694.82	54226.12
695.01	54334.66
695.20	53847.24
695.39	54158.53
695.58	53855.43
695.77	54023.37
695.96	53621.97
696.15	54019.27
696.34	53935.30
696.53	53712.08
696.72	54193.35
696.91	53845.19
697.10	54308.04
697.29	53822.67
697.48	54146.25
697.67	53458.13
697.86	53834.95
698.05	53542.10
698.24	53941.45
698.43	53320.91
698.62	53650.64
698.81	53230.80
699.00	53740.75
699.19	53081.30
699.38	53712.08
699.57	53107.93
699.76	54213.83
699.95	53558.48
700.14	53378.26
700.32	53613.77
700.51	53482.70
700.70	53935.30
700.89	53585.10
701.08	53794.00
701.27	53726.41
701.46	53851.34
701.65	52944.09
701.84	53378.26
702.03	53279.96
702.22	53382.35
702.41	53509.33
702.60	53621.97
702.79	53320.91
702.98	52933.85
703.17	53503.18
703.35	53241.04
703.54	52118.76
703.73	53783.76
703.92	52962.52
704.11	52927.70
704.30	52937.94
704.49	52837.59
704.68	52595.93
704.87	53198.04
705.06	53015.77
705.25	52784.35
705.43	52770.01
705.62	53050.58
705.81	52540.64
706.00	52876.51
706.19	52851.93
706.38	52561.12
706.57	52309.22
706.76	53146.84
706.95	52442.34
707.14	52428.00
707.32	52675.80
707.51	52384.99
707.70	52614.37
707.89	52958.42
708.08	52905.18
708.27	52880.60
708.46	52729.05
708.65	52608.22
708.84	53161.17
709.02	52995.29
709.21	52813.02
709.40	52636.89
709.59	52837.59
709.78	52409.57
709.97	52718.81
710.16	52499.68
710.34	52581.60
710.53	52120.80
710.72	52442.34
710.91	52380.90
711.10	52411.62
711.29	52720.86
711.48	52262.11
711.66	52270.31
711.85	52638.94
712.04	52169.96
712.23	52458.72
712.42	52387.04
712.61	52364.51
712.80	52266.21
712.98	52477.15
713.17	52481.25
713.36	52696.28
713.55	52473.06
713.74	52124.90
713.93	52241.63
714.11	52024.55
714.30	52012.26
714.49	52008.17
714.68	52141.28
714.87	52518.11
715.06	52446.43
715.24	52002.02
715.43	51547.37
715.62	51660.01
715.81	51432.69
716.00	51356.91
716.18	51762.41
716.37	51328.24
716.56	51694.83
716.75	52139.24
716.94	52018.41
717.12	51508.46
717.31	52075.75
717.50	51625.20
717.69	51381.49
717.88	51516.65
718.06	51346.67
718.25	52012.26
718.44	51281.14
718.63	51709.16
718.82	51262.71
719.00	51485.93
719.19	51434.74
719.38	51309.81
719.57	50734.33
719.76	50963.70
719.94	50490.62
720.13	50912.50
720.32	50783.48
720.51	51209.46
720.69	51115.25
720.88	50545.92
721.07	50527.48
721.26	50676.99
721.44	50631.93
721.63	50691.32
721.82	50502.91
722.01	50332.93
722.20	50623.74
722.38	50605.31
722.57	50091.27
722.76	50347.26
722.95	50238.72
723.13	49765.64
723.32	50525.44
723.51	49984.77
723.70	49909.00
723.88	50064.64
724.07	49603.85
724.26	49972.49
724.44	49505.55
724.63	50298.11
724.82	50007.30
725.01	49913.09
725.19	49872.14
725.38	49945.86
725.57	49689.87
725.76	49902.85
725.94	49335.57
726.13	50050.31
726.32	49968.39
726.51	49614.09
726.69	49822.98
726.88	49845.51
727.07	49515.79
727.25	49564.94
727.44	49372.43
727.63	49487.12
727.82	49624.33
728.00	49470.73
728.19	49464.59
728.38	49712.39
728.56	49370.38
728.75	49853.70
728.94	49368.33
729.12	49730.83
729.31	50089.22
729.50	49896.71
729.69	49853.70
729.87	49603.85
730.06	49622.28
730.25	49534.22
730.43	49943.81
730.62	49018.13
730.81	49906.95
730.99	49689.87
731.18	49616.14
731.37	50005.25
731.55	49788.17
731.74	49767.69
731.93	49855.75
732.11	49456.40
732.30	49734.92
732.49	49865.99
732.67	49700.11
732.86	49388.81
733.05	49327.38
733.23	49437.97
733.42	49149.20
733.61	49515.79
733.79	49599.76
733.98	50021.64
734.17	49632.52
734.35	49519.88
734.54	49370.38
734.73	49452.30
734.91	49517.84
735.10	49177.87
735.29	49415.44
735.47	49202.45
735.66	49462.54
735.84	49546.51
736.03	49251.60
736.22	49839.37
736.40	49192.21
736.59	49583.37
736.78	49198.35
736.96	49009.94
737.15	49118.48
737.33	48901.40
737.52	49075.48
737.71	49415.44
737.89	49259.79
738.08	48461.08
738.27	48895.25
738.45	49323.28
738.64	49075.48
738.82	48928.02
739.01	49177.87
739.20	49304.85
739.38	49214.74
739.57	49337.62
739.75	49036.56
739.94	48596.25
740.13	48801.05
740.31	48917.78
740.50	48962.84
740.68	48860.44
740.87	48895.25
741.06	48842.01
741.24	48735.51
741.43	48346.40
741.61	49030.42
741.80	48297.25
741.99	48336.16
742.17	47930.66
742.36	48450.84
742.54	48264.48
742.73	48364.83
742.91	48837.91
743.10	48153.89
743.29	48497.95
743.47	48766.23
743.66	48203.04
743.84	48409.89
744.03	48018.72
744.21	48248.10
744.40	48391.45
744.59	47863.08
744.77	48117.03
744.96	48010.53
745.14	48078.11
745.33	48270.62
745.51	48278.82
745.70	47977.76
745.88	47668.52
746.07	48022.82
746.26	47535.40
746.44	47740.20
746.63	48174.37
746.81	48018.72
747.00	47959.33
747.18	47928.61
747.37	47777.06
747.55	47658.28
747.74	48596.25
747.92	47476.01
748.11	47811.88
748.29	47701.29
748.48	47910.18
748.66	47201.58
748.85	47318.32
749.03	47957.28
749.22	47633.71
749.41	47207.73
749.59	47244.59
749.78	46951.73
749.96	46908.72
750.15	47396.14
750.33	47322.41
750.52	47054.13
750.70	47250.74
750.89	47529.26
751.07	47093.04
751.26	46808.37
751.44	46794.04
751.63	47316.27
751.81	46959.92
752.00	46712.12
752.18	46900.53
752.37	46484.79
752.55	46366.01
752.74	46359.87
752.92	46718.26
753.10	46673.21
753.29	46789.94
753.47	46308.67
753.66	46140.74
753.84	46402.88
754.03	46146.88
754.21	45890.88
754.40	46124.35
754.58	46187.84
754.77	46443.84
754.95	45884.74
755.14	46327.10
755.32	45653.32
755.51	46036.29
755.69	46050.63
755.88	45886.79
756.06	46157.12
756.24	45960.51
756.43	45364.56
756.61	45512.01
756.80	45507.91
756.98	45262.16
757.17	45456.71
757.35	45638.98
757.54	45512.01
757.72	45538.63
757.90	45374.80
758.09	44993.87
758.27	45471.05
758.46	44897.62
758.64	45196.62
758.83	45751.62
759.01	45573.45
759.19	44940.63
759.38	45538.63
759.56	45372.75
759.75	45542.73
759.93	44793.17
760.12	44922.19
760.30	44965.20
760.48	44819.80
760.67	44885.33
760.85	44793.17
761.04	45159.76
761.22	44963.15
761.40	44676.44
761.59	44631.38
761.77	44387.67
761.96	44385.63
762.14	44402.01
762.32	44272.99
762.51	44541.27
762.69	44287.32
762.88	44127.58
763.06	43992.42
763.24	44103.01
763.43	44080.48
763.61	44051.81
763.80	44211.55
763.98	44346.72
764.16	44023.14
764.35	44131.68
764.53	43775.33
764.72	43781.48
764.90	44135.77
765.08	43533.67
765.27	43521.38
765.45	43484.52
765.63	43226.48
765.82	43691.37
766.00	43183.47
766.18	43429.23
766.37	43599.21
766.55	42982.77
766.74	43693.41
766.92	42747.25
767.10	43087.21
767.29	43197.80
767.47	42796.40
767.65	43283.82
767.84	42683.76
768.02	43070.83
768.20	42415.48
768.39	42798.45
768.57	43042.16
768.75	42526.07
768.94	42603.89
769.12	42466.68
769.30	42380.67
769.49	42335.61
769.67	42452.34
769.85	42186.11
770.04	42184.06
770.22	42231.16
770.40	42159.48
770.59	41598.34
770.77	42108.29
770.95	42065.28
771.14	41727.36
771.32	41747.84
771.50	41268.62
771.69	41842.05
771.87	42093.95
772.05	41397.64
772.24	41356.68
772.42	41442.70
772.60	41532.81
772.78	41252.23
772.97	41270.67
773.15	41368.97
773.33	41010.57
773.52	41522.57
773.70	41153.93
773.88	41018.77
774.07	41051.53
774.25	41285.00
774.43	41260.43
774.61	41303.43
774.80	41207.18
774.98	41008.53
775.16	41526.66
775.34	41168.27
775.53	41057.68
775.71	41401.74
775.89	41440.65
776.08	40924.56
776.26	41319.82
776.44	41149.84
776.62	40967.57
776.81	40865.17
776.99	41545.09
777.17	41287.05
777.35	41076.11
777.54	41522.57
777.72	41241.99
777.90	41610.63
778.08	41522.57
778.27	41338.25
778.45	41598.34
778.63	41678.21
778.81	41129.36
779.00	41833.86
779.18	41149.84
779.36	41878.91
779.54	41835.91
779.73	41614.72
779.91	41657.73
780.09	41444.74
780.27	41483.66
780.46	41706.88
780.64	41209.23
780.82	41354.63
781.00	41524.61
781.19	42022.27
781.37	41790.85
781.55	41780.61
781.73	42014.08
781.91	41659.78
782.10	41356.68
782.28	41772.42
782.46	41366.92
782.64	41956.74
782.82	41686.40
783.01	41907.58
783.19	41885.06
783.37	41766.27
783.55	41696.64
783.74	41723.27
783.92	41606.53
784.10	41903.49
784.28	41928.06
784.46	41090.44
784.64	41448.84
784.83	42022.27
785.01	41780.61
785.19	41338.25
785.37	41534.85
785.55	41844.10
785.74	41698.69
785.92	41231.75
786.10	41407.88
786.28	41788.80
786.46	41600.39
786.64	41205.13
786.83	41303.43
787.01	41391.50
787.19	40949.14
787.37	41475.46
787.55	41205.13
787.74	40879.50
787.92	41010.57
788.10	41026.96
788.28	40533.40
788.46	40727.95
788.64	40684.95
788.82	41440.65
789.01	40793.49
789.19	40766.87
789.37	40312.22
789.55	40396.18
789.73	40725.91
789.91	40334.74
790.09	40537.49
790.28	40035.74
790.46	40158.62
790.64	40392.09
790.82	40076.70
791.00	39871.90
791.18	40015.26
791.36	40039.84
791.55	39894.43
791.73	39826.85
791.91	39378.34
792.09	39814.56
792.27	39536.04
792.45	39370.15
792.63	39060.91
792.81	39318.95
793.00	39134.63
793.18	39142.83
793.36	39210.41
793.54	38874.54
793.72	38864.30
793.90	38524.34
794.08	38489.52
794.26	39046.57
794.44	38131.13
794.62	38356.41
794.81	38679.99
794.99	38106.55
795.17	38165.95
795.35	38286.78
795.53	38325.69
795.71	38434.23
795.89	37815.74
796.07	37838.27
796.25	37801.41
796.43	37422.53
796.61	37402.05
796.80	37021.13
796.98	37150.15
797.16	37389.77
797.34	37139.91
797.52	36840.91
797.70	37459.40
797.88	37010.89
798.06	37137.87
798.24	37219.78
798.42	36965.84
798.60	36924.88
798.78	36767.18
798.96	36888.01
799.14	36595.15
799.32	36646.35
799.51	36132.31
799.69	36515.28
799.87	36392.40
800.05	36068.83
800.23	36242.90
800.41	35958.24
800.59	35999.19
800.77	35667.42
800.95	35497.44
801.13	35503.59
801.31	35452.39
801.49	35687.90
801.67	35419.62
801.85	35386.85
802.03	35210.73
802.21	34731.50
802.39	35284.45
802.57	34825.71
802.75	34735.60
802.93	34915.82
803.11	34848.24
803.29	34942.44
803.47	34391.54
803.65	34393.59
803.83	34438.64
804.01	34301.43
804.19	34082.30
804.37	34276.85
804.55	34278.90
804.73	33691.13
804.91	33785.34
805.09	34160.12
805.27	33758.72
805.45	34002.43
805.63	33977.85
805.81	33572.35
805.99	33742.33
806.17	33762.81
806.35	33154.57
806.53	33607.17
806.71	33564.16
806.89	33201.67
807.07	33203.72
807.25	33332.74
807.43	32824.84
807.61	33115.65
807.79	32957.96
807.97	33123.85
808.15	32884.23
808.33	32605.71
808.51	32953.87
808.69	32505.36
808.87	32607.76
809.05	32300.56
809.23	32318.99
809.41	32089.62
809.59	32177.68
809.77	31929.88
809.95	32116.25
810.13	32304.66
810.31	31843.87
810.49	32175.64
810.67	31903.26
810.84	32042.52
811.02	31847.96
811.20	31622.69
811.38	31561.25
811.56	31575.58
811.74	31516.19
811.92	31317.54
812.10	31366.69
812.28	31807.00
812.46	31458.85
812.64	31682.08
812.82	31120.93
813.00	31338.02
813.18	31069.73
813.36	30764.59
813.53	30797.35
813.71	30887.46
813.89	31051.30
814.07	30801.45
814.25	30797.35
814.43	30719.53
814.61	30760.49
814.79	30613.04
814.97	30654.00
815.15	30586.41
815.33	30078.52
815.50	30238.26
815.68	30498.35
815.86	30701.10
816.04	30311.99
816.22	30139.96
816.40	30154.29
816.58	30015.03
816.76	29498.94
816.94	29931.06
817.11	29785.66
817.29	30193.20
817.47	29730.36
817.65	29695.55
817.83	29638.20
818.01	29591.10
818.19	29574.72
818.37	29584.96
818.54	29414.98
818.72	29365.82
818.90	29277.76
819.08	29175.36
819.26	29394.50
819.44	29460.03
819.62	29032.00
819.80	29183.55
819.97	29214.27
820.15	28999.24
820.33	29130.31
820.51	29105.73
820.69	28788.30
820.87	29062.72
821.05	29081.16
821.22	28810.82
821.40	28980.81
821.58	28776.01
821.76	28767.82
821.94	28753.48
822.12	28563.02
822.29	28786.25
822.47	28395.09
822.65	28673.61
822.83	28608.08
823.01	28485.20
823.19	28407.37
823.36	28120.66
823.54	27965.01
823.72	27971.16
823.90	28352.08
824.08	27829.85
824.25	28034.64
824.43	27860.57
824.61	27764.31
824.79	28016.21
824.97	27768.41
825.15	28165.71
825.32	28077.65
825.50	27764.31
825.68	27739.74
825.86	27879.00
826.04	28132.95
826.21	27866.71
826.39	27612.76
826.57	27424.35
826.75	27387.49
826.93	27025.00
827.10	27086.43
827.28	27463.26
827.46	27520.60
827.64	27606.62
827.81	27405.92
827.99	27278.94
828.17	27254.37
828.35	27182.69
828.53	27184.74
828.70	27043.43
828.88	26750.57
829.06	27211.36
829.24	27014.76
829.41	27035.24
829.59	27348.57
829.77	26924.65
829.95	26752.62
830.12	26809.96
830.30	26977.89
830.48	27166.31
830.66	26836.58
830.84	26666.60
831.01	26517.10
831.19	26533.48
831.37	26846.82
831.55	26515.05
831.72	26582.63
831.90	26590.83
832.08	26568.30
832.25	26508.91
832.43	26470.00
832.61	26201.71
832.79	26615.40
832.96	26381.93
833.14	26281.58
833.32	26402.41
833.50	26353.26
833.67	26465.90
833.85	26302.06
834.03	26117.75
834.20	26363.50
834.38	26025.59
834.56	26363.50
834.74	25882.23
834.91	26353.26
835.09	25994.87
835.27	25642.62
835.44	26041.97
835.62	25542.27
835.80	25642.62
835.98	25839.22
836.15	25910.90
836.33	25958.00
836.51	25771.64
836.68	25710.20
836.86	25937.52
837.04	25837.17
837.21	25372.28
837.39	25558.65
837.57	25863.80
837.75	25564.79
837.92	25544.31
838.10	25120.38
838.28	25235.07
838.45	25388.67
838.63	25112.19
838.81	25280.13
838.98	25185.92
839.16	24921.73
839.34	25237.12
839.51	25038.47
839.69	25054.85
839.87	24823.43
840.04	25120.38
840.22	25167.49
840.40	25069.19
840.57	24862.34
840.75	25153.15
840.93	24657.54
841.10	24907.40
841.28	25259.65
841.46	24921.73
841.63	24934.02
841.81	25130.62
841.98	25056.90
842.16	24880.77
842.34	24655.50
842.51	24829.57
842.69	24899.20
842.87	24544.91
843.04	24745.61
843.22	24405.64
843.40	24409.74
843.57	24675.98
843.75	24524.43
843.92	24528.52
844.10	24559.24
844.28	24587.91
844.45	24487.56
844.63	24641.16
844.81	24307.34
844.98	24628.87
845.16	24532.62
845.33	24383.12
845.51	24424.08
845.69	24456.84
845.86	24114.83
846.04	24157.84
846.21	24391.31
846.39	24024.72
846.57	23994.00
846.74	24196.75
846.92	23838.36
847.09	23885.46
847.27	23965.33
847.45	23869.08
847.62	23924.37
847.80	24041.11
847.97	23785.11
848.15	23828.12
848.32	23666.33
848.50	23731.86
848.68	23781.01
848.85	23824.02
849.03	23623.32
849.20	23561.88
849.38	23762.58
849.56	23586.46
849.73	23488.15
849.91	23459.48
850.08	23940.75
850.26	23246.49
850.43	23545.50
850.61	23475.87
850.78	23127.71
850.96	23510.68
851.14	22990.50
851.31	23369.37
851.49	23088.80
851.66	23314.08
851.84	23152.29
852.01	23570.07
852.19	23295.64
852.36	23271.07
852.54	23355.04
852.71	23312.03
852.89	23297.69
853.07	23080.61
853.24	23365.28
853.42	23232.16
853.59	23105.18
853.77	23365.28
853.94	23195.29
854.12	23219.87
854.29	22630.05
854.47	22992.55
854.64	22832.80
854.82	22869.67
854.99	22939.30
855.17	23025.31
855.34	22847.14
855.52	22744.74
855.69	23113.38
855.87	22484.65
856.04	22550.18
856.22	22505.13
856.39	22400.68
856.57	22681.25
856.74	22486.70
856.92	22652.58
857.09	22001.33
857.27	22513.32
857.44	22521.51
857.62	22539.94
857.79	22398.63
857.97	22316.72
858.14	22410.92
858.32	22433.45
858.49	22449.83
858.67	22242.99
858.84	22367.91
859.02	22359.72
859.19	22124.21
859.37	22179.50
859.54	22294.19
859.72	22234.80
859.89	22124.21
860.06	22116.01
860.24	22103.73
860.41	22210.22
860.59	21749.43
860.76	21886.64
860.94	21956.27
861.11	22259.37
861.29	22199.98
861.46	21931.70
861.64	21747.38
861.81	21722.80
861.98	21710.52
862.16	21962.42
862.33	21475.00
862.51	21800.63
862.68	22058.67
862.86	21436.09
863.03	21489.34
863.21	21589.69
863.38	21272.25
863.55	21622.45
863.73	21587.64
863.90	21659.32
864.08	21368.51
864.25	21356.22
864.43	21370.55
864.60	21321.40
864.77	21202.62
864.95	21343.93
865.12	21337.79
865.30	21171.90
865.47	20850.37
865.64	21022.40
865.82	21206.72
865.99	21135.04
866.17	20930.24
866.34	21305.02
866.51	20793.03
866.69	20817.60
866.86	21104.32
867.04	20827.84
867.21	20909.76
867.38	20707.01
867.56	20899.52
867.73	20602.57
867.91	20571.85
868.08	20612.81
868.25	20876.99
868.43	20807.36
868.60	20586.18
868.78	20698.82
868.95	20707.01
869.12	20381.38
869.30	20391.62
869.47	20590.28
869.64	20463.30
869.82	20512.46
869.99	20299.47
870.16	20434.63
870.34	20240.08
870.51	20315.85
870.69	20334.28
870.86	19975.89
871.03	20401.86
871.21	20154.06
871.38	20367.05
871.55	19908.30
871.73	20053.71
871.90	19760.85
872.07	20297.42
872.25	20004.56
872.42	19685.08
872.59	19857.10
872.77	19812.05
872.94	19779.28
873.11	20041.42
873.29	19586.77
873.46	19711.70
873.63	19666.64
873.81	19818.19
873.98	19668.69
874.15	19607.25
874.33	19332.82
874.50	19209.95
874.67	19427.03
874.85	19680.98
875.02	19345.11
875.19	19168.99
875.37	19478.23
875.54	19465.94
875.71	19123.93
875.88	19310.30
876.06	19224.28
876.23	19023.58
876.40	19070.68
876.58	19048.16
876.75	19207.90
876.92	18783.97
877.10	19302.11
877.27	18933.47
877.44	18822.88
877.61	18861.79
877.79	18773.73
877.96	18822.88
878.13	18673.38
878.31	18370.28
878.48	18573.03
878.65	18382.57
878.82	18368.23
879.00	18599.65
879.17	18607.84
879.34	18433.77
879.51	18396.90
879.69	18413.29
879.86	18255.59
880.03	18237.16
880.21	18337.51
880.38	18179.82
880.55	18378.47
880.72	17958.64
880.90	18099.95
881.07	18192.11
881.24	18114.28
881.41	18024.17
881.59	17784.56
881.76	18048.75
881.93	17942.25
882.10	17770.22
882.28	17897.20
882.45	17936.11
882.62	17782.51
882.79	17915.63
882.96	17669.87
883.14	18018.03
883.31	18001.65
883.48	17721.07
883.65	17766.13
883.83	17766.13
884.00	17686.26
884.17	17483.51
884.34	17598.20
884.51	17397.49
884.69	17651.44
884.86	17321.72
885.03	17549.04
885.20	17506.04
885.38	17585.91
885.55	17231.61
885.72	17596.15
885.89	17454.84
886.06	17565.43
886.24	17274.62
886.41	17309.43
886.58	17491.70
886.75	17540.85
886.92	17069.82
887.10	17284.86
887.27	17383.16
887.44	17166.07
887.61	17508.08
887.78	17309.43
887.95	17309.43
888.13	17149.69
888.30	17008.38
888.47	17057.53
888.64	17094.40
888.81	17104.64
888.99	16924.41
889.16	16867.07
889.33	16914.17
889.50	16781.06
889.67	16715.52
889.84	16748.29
890.01	16582.40
890.19	16703.23
890.36	16760.58
890.53	16899.84
890.70	16480.00
890.87	16477.96
891.04	16783.10
891.22	16580.36
891.39	16602.88
891.56	16518.92
891.73	16643.84
891.90	16537.35
892.07	16260.87
892.24	16269.06
892.42	16168.71
892.59	16228.10
892.76	16191.24
892.93	16037.64
893.10	16170.76
893.27	16224.01
893.44	16224.01
893.61	16213.77
893.79	16244.49
893.96	16140.04
894.13	16320.26
894.30	16357.13
894.47	16275.21
894.64	16295.69
894.81	16295.69
894.98	16346.89
895.15	16299.78
895.33	16129.80
895.50	15853.33
895.67	16127.75
895.84	16080.65
896.01	16072.46
896.18	15959.82
896.35	16244.49
896.52	16076.55
896.69	15855.37
896.86	16041.74
897.04	16226.06
897.21	15879.95
897.38	16162.57
897.55	15988.49
897.72	15959.82
897.89	16125.71
898.06	16035.60
898.23	15894.29
898.40	16027.40
898.57	15910.67
898.74	15859.47
898.91	15810.32
899.08	15900.43
899.26	15982.35
899.43	15816.46
899.60	15943.44
899.77	15838.99
899.94	15787.79
900.11	15607.57
900.28	15832.85
900.45	15763.22
900.62	15820.56
900.79	15931.15
900.96	15965.96
901.13	15830.80
901.30	15587.09
901.47	15890.19
901.64	15781.65
901.81	15830.80
901.98	15488.79
902.15	15759.12
902.32	15906.57
902.49	15845.13
902.66	15613.71
902.83	15957.77
903.01	15828.75
903.18	15752.98
903.35	15922.96
903.52	15750.93
903.69	15873.81
903.86	15716.11
904.03	15642.39
904.20	15957.77
904.37	15552.27
904.54	15400.72
904.71	15656.72
904.88	15738.64
905.05	15798.03
905.22	15732.50
905.39	15521.56
905.56	15775.50
905.73	15619.86
905.90	15671.06
906.07	15730.45
906.24	15671.06
906.41	15587.09
906.58	15695.63
906.75	15791.89
906.92	15634.19
907.09	15636.24
907.26	15558.42
907.43	15619.86
907.60	15564.56
907.77	15765.26
907.93	15585.04
908.10	15718.16
908.27	15714.06
908.44	15390.49
908.61	15419.16
908.78	15562.51
908.95	15605.52
909.12	15327.00
909.29	15460.12
909.46	15466.26
909.63	15531.80
909.80	15550.23
909.97	15456.02
910.14	15281.94
910.31	15310.61
910.48	15367.96
910.65	15341.33
910.82	15462.16
910.99	15277.85
911.16	15423.25
911.33	15472.40
911.50	15392.53
911.66	15195.93
911.83	15441.68
912.00	15357.72
912.17	15177.50
912.34	15066.91
912.51	15191.83
912.68	14716.70
912.85	15150.87
913.02	15146.78
913.19	14815.01
913.36	14980.89
913.53	15030.04
913.70	14620.45
913.86	15173.40
914.03	14901.02
914.20	14757.66
914.37	14700.32
914.54	14737.18
914.71	14929.69
914.88	14896.92
915.05	14827.29
915.22	14941.98
915.39	14675.74
915.55	14544.67
915.72	14468.90
915.89	14708.51
916.06	14479.14
916.23	14452.52
916.40	14538.53
916.57	14354.21
916.74	14212.90
916.91	14364.45
917.07	13922.09
917.24	14321.45
917.41	14180.14
917.58	14374.69
917.75	14184.23
917.92	13954.86
918.09	13889.32
918.26	13944.62
918.42	13942.57
918.59	14073.64
918.76	14006.06
918.93	13741.87
919.10	13727.53
919.27	13895.47
919.44	13819.69
919.60	13903.66
919.77	13676.34
919.94	13397.81
920.11	13553.46
920.28	13518.64
920.45	13526.83
920.61	13293.37
920.78	13569.84
920.95	13453.11
921.12	13195.06
921.29	13203.25
921.46	13178.68
921.62	13104.95
921.79	13100.86
921.96	13051.70
922.13	12984.12
922.30	13084.47
922.47	12646.21
922.63	12853.05
922.80	12808.00
922.97	12703.55
923.14	12648.26
923.31	12767.04
923.47	12513.09
923.64	12836.67
923.81	12390.21
923.98	12533.57
924.15	12543.81
924.32	12588.86
924.48	12502.85
924.65	12582.72
924.82	12111.69
924.99	12379.97
925.15	12072.78
925.32	12089.16
925.49	11892.55
925.66	12001.10
925.83	12048.20
925.99	11843.40
926.16	12015.43
926.33	11908.94
926.50	11571.02
926.67	11962.19
926.83	11482.96
927.00	11601.74
927.17	11384.66
927.34	11308.88
927.50	11460.43
927.67	11485.01
927.84	11482.96
928.01	11337.56
928.17	11243.35
928.34	11190.10
928.51	11024.22
928.68	11157.33
928.84	11046.74
929.01	10876.76
929.18	11030.36
929.35	10786.65
929.51	11044.70
929.68	10839.90
929.85	10860.38
930.02	10819.42
930.18	10719.07
930.35	10780.51
930.52	10665.82
930.69	10702.68
930.85	10575.71
931.02	10499.94
931.19	10514.27
931.36	10424.16
931.52	10524.51
931.69	10340.19
931.86	10291.04
932.02	10225.51
932.19	10231.65
932.36	10084.20
932.53	9975.66
932.69	9838.44
932.86	10037.09
933.03	9975.66
933.19	9938.79
933.36	9727.85
933.53	9914.22
933.70	9934.70
933.86	9764.72
934.03	9766.76
934.20	9621.36
934.36	9647.98
934.53	9496.43
934.70	9314.16
934.86	9244.53
935.03	9353.07
935.20	9090.93
935.36	9068.41
935.53	9174.90
935.70	9013.11
935.86	8996.73
936.03	8849.27
936.20	8687.48
936.36	8726.39
936.53	8755.07
936.70	8572.80
936.86	8802.17
937.03	8578.94
937.20	8284.03
937.36	8298.37
937.53	7868.30
937.70	8013.70
937.86	8077.19
938.03	7968.65
938.20	8128.39
938.36	7681.93
938.53	7759.75
938.70	7544.72
938.86	7591.82
939.03	7425.93
939.20	7362.45
939.36	7325.58
939.53	7352.21
939.70	7468.94
939.86	7030.68
940.03	7036.82
940.19	6811.54
940.36	6836.12
940.53	6893.46
940.69	6547.36
940.86	6637.47
941.03	6621.08
941.19	6442.91
941.36	6477.73
941.52	6369.18
941.69	6371.23
941.86	6270.88
942.02	6041.51
942.19	6270.88
942.35	6066.08
942.52	5986.21
942.69	6066.08
942.85	5846.95
943.02	5949.35
943.18	5951.40
943.35	5865.38
943.52	5853.09
943.68	5666.73
943.85	5658.54
944.01	5787.56
944.18	5654.44
944.35	5670.83
944.51	5576.62
944.68	5547.95
944.84	5496.75
945.01	5476.27
945.17	5451.69
945.34	5711.78
945.51	5463.98
945.67	5425.07
945.84	5527.47
946.00	5253.04
946.17	5314.48
946.33	5296.05
946.50	5302.19
946.67	5349.29
946.83	5390.25
947.00	5369.77
947.16	5277.62
947.33	5322.67
947.49	5283.76
947.66	5326.77
947.82	5476.27
947.99	5357.49
948.16	5357.49
948.32	5302.19
948.49	5304.24
948.65	5459.88
948.82	5304.24
948.98	5205.94
949.15	5322.67
949.31	5275.57
949.48	5250.99
949.64	5230.51
949.81	5294.00
949.97	5210.03
950.14	5357.49
950.30	5140.40
950.47	5445.55
950.63	5199.79
950.80	5261.23
950.96	5210.03
951.13	5220.27
951.30	5429.17
951.46	5400.49
951.63	5277.62
951.79	5322.67
951.96	5359.53
952.12	5253.04
952.29	5320.62
952.45	5253.04
952.62	5363.63
952.78	5355.44
952.94	5263.28
953.11	5398.45
953.27	5261.23
953.44	5558.19
953.60	5334.96
953.77	5588.91
953.93	5484.46
954.10	5425.07
954.26	5392.30
954.43	5394.35
954.59	5351.34
954.76	5447.60
954.92	5306.29
955.09	5382.06
955.25	5345.20
955.42	5394.35
955.58	5445.55
955.75	5445.55
955.91	5240.75
956.07	5449.64
956.24	5400.49
956.40	5494.70
956.57	5412.78
956.73	5404.59
956.90	5380.01
957.06	5296.05
957.23	5439.40
957.39	5431.21
957.56	5244.85
957.72	5310.38
957.88	5287.86
958.05	5463.98
958.21	5476.27
958.38	5498.80
958.54	5357.49
958.71	5576.62
958.87	5554.09
959.03	5357.49
959.20	5416.88
959.36	5386.16
959.53	5531.56
959.69	5285.81
959.85	5416.88
960.02	5506.99
960.18	5388.21
960.35	5451.69
960.51	5537.71
960.68	5439.40
960.84	5420.97
961.00	5412.78
961.17	5377.97
961.33	5433.26
961.50	5416.88
961.66	5664.68
961.82	5416.88
961.99	5511.08
962.15	5406.64
962.31	5449.64
962.48	5371.82
962.64	5406.64
962.81	5410.73
962.97	5375.92
963.13	5480.36
963.30	5330.86
963.46	5216.18
963.62	5382.06
963.79	5164.98
963.95	5234.61
964.12	5341.10
964.28	5273.52
964.44	5250.99
964.61	5394.35
964.77	5414.83
964.93	5287.86
965.10	5248.94
965.26	5248.94
965.42	5281.71
965.59	5345.20
965.75	5310.38
965.92	5267.38
966.08	5296.05
966.24	5269.42
966.41	5212.08
966.57	5271.47
966.73	5201.84
966.90	5222.32
967.06	5083.06
967.22	5234.61
967.39	5175.22
967.55	5074.87
967.71	5156.79
967.88	5121.97
968.04	5154.74
968.20	5072.82
968.37	5173.17
968.53	5031.86
968.69	5089.20
968.85	5136.31
969.02	5103.54
969.18	5212.08
969.34	5015.48
969.51	5095.35
969.67	5197.74
969.83	5066.67
970.00	4988.85
970.16	5109.68
970.32	4974.52
970.48	5023.67
970.65	5027.76
970.81	4941.75
970.97	4997.04
971.14	4968.37
971.30	5150.64
971.46	4861.88
971.63	4933.56
971.79	4876.21
971.95	4923.32
972.11	4845.49
972.28	4816.82
972.44	4915.12
972.60	4921.27
972.76	4880.31
972.93	4865.97
973.09	4794.29
973.25	5007.28
973.42	4794.29
973.58	4884.41
973.74	4853.69
973.90	4888.50
974.07	4788.15
974.23	4874.17
974.39	4796.34
974.55	4851.64
974.72	4788.15
974.88	4698.04
975.04	4833.21
975.20	4644.79
975.37	4714.42
975.53	4704.18
975.69	4759.48
975.85	4685.75
976.01	4706.23
976.18	4587.45
976.34	4644.79
976.50	4739.00
976.66	4777.91
976.83	4595.64
976.99	4652.98
977.15	4714.42
977.31	4425.66
977.47	4562.87
977.64	4558.78
977.80	4665.27
977.96	4534.20
978.12	4589.50
978.29	4548.54
978.45	4386.75
978.61	4370.37
978.77	4464.57
978.93	4462.52
979.10	4538.30
979.26	4380.61
979.42	4489.15
979.58	4341.69
979.74	4364.22
979.91	4290.49
980.07	4407.23
980.23	4270.01
980.39	4376.51
980.55	4554.68
980.71	4366.27
980.88	4452.28
981.04	4399.04
981.20	4382.65
981.36	4476.86
981.52	4431.80
981.68	4351.93
981.85	4306.88
982.01	4265.92
982.17	4126.66
982.33	4272.06
982.49	4417.47
982.65	4257.73
982.82	4259.78
982.98	4331.45
983.14	4048.83
983.30	4296.64
983.46	4241.34
983.62	4237.25
983.79	4184.00
983.95	4179.90
984.11	4138.94
984.27	4227.01
984.43	4122.56
984.59	4169.66
984.75	4255.68
984.91	4161.47
985.08	4091.84
985.24	4081.60
985.40	4022.21
985.56	4067.27
985.72	4171.71
985.88	4128.70
986.04	4018.11
986.20	4014.02
986.37	4038.59
986.53	4079.55
986.69	3975.11
986.85	3925.96
987.01	3936.20
987.17	4095.94
987.33	3934.15
987.49	3864.52
987.65	3887.04
987.82	3872.71
987.98	3784.65
988.14	3979.20
988.30	3921.86
988.46	3809.22
988.62	3971.01
988.78	3829.70
988.94	3864.52
989.10	3766.21
989.26	3764.17
989.42	3729.35
989.59	3643.34
989.75	3712.97
989.91	3850.18
990.07	3801.03
990.23	3784.65
990.39	3829.70
990.55	3887.04
990.71	3719.11
990.87	3755.97
991.03	3739.59
991.19	3731.40
991.35	3737.54
991.51	3760.07
991.67	3739.59
991.83	3780.55
992.00	3739.59
992.16	3739.59
992.32	3715.02
992.48	3739.59
992.64	3579.85
992.80	3723.21
992.96	3631.05
993.12	3651.53
993.28	3618.76
993.44	3633.10
993.60	3604.42
993.76	3588.04
993.92	3678.15
994.08	3581.90
994.24	3624.90
994.40	3639.24
994.56	3577.80
994.72	3456.97
994.88	3518.41
995.04	3542.99
995.20	3510.22
995.36	3583.95
995.52	3510.22
995.68	3567.56
995.84	3383.24
996.00	3534.79
996.16	3530.70
996.32	3459.02
996.48	3426.25
996.64	3428.30
996.80	3452.88
996.96	3368.91
997.12	3389.39
997.28	3440.59
997.44	3330.00
997.60	3352.52
997.76	3413.96
997.92	3434.44
998.08	3321.81
998.24	3325.90
998.40	3370.96
998.56	3430.35
998.72	3293.13
998.88	3209.17
999.04	3200.98
999.20	3383.24
999.36	3174.35
999.52	3338.19
999.68	3194.83
999.84	3375.05
1000.00	3176.40
1000.16	3348.43
1000.32	3121.10
1000.48	3291.09
1000.64	3215.31
1000.80	3170.26
1000.95	3086.29
1001.11	3231.69
1001.27	3131.34
1001.43	3227.60
1001.59	3041.23
1001.75	3145.68
1001.91	3239.89
1002.07	3026.90
1002.23	2998.23
1002.39	3166.16
1002.55	3157.97
1002.71	3100.62
1002.87	2987.99
1003.03	3080.14
1003.19	2959.31
1003.34	3092.43
1003.50	3030.99
1003.66	3139.54
1003.82	2990.03
1003.98	3076.05
1004.14	2971.60
1004.30	2942.93
1004.46	2906.07
1004.62	3092.43
1004.78	2936.79
1004.94	3008.47
1005.09	3098.58
1005.25	2961.36
1005.41	3071.95
1005.57	2975.70
1005.73	2899.92
1005.89	2983.89
1006.05	2953.17
1006.21	3006.42
1006.37	2965.46
1006.52	2910.16
1006.68	2871.25
1006.84	3010.51
1007.00	2848.72
1007.16	2944.98
1007.32	2834.39
1007.48	2869.20
1007.64	2908.12
1007.79	2768.85
1007.95	2883.54
1008.11	2969.55
1008.27	2830.29
1008.43	2887.64
1008.59	2746.33
1008.75	2865.11
1008.91	2826.20
1009.06	2824.15
1009.22	2824.15
1009.38	2787.29
1009.54	2736.09
1009.70	2779.09
1009.86	2691.03
1010.01	2770.90
1010.17	2783.19
1010.33	2832.34
1010.49	2731.99
1010.65	2805.72
1010.81	2637.78
1010.96	2717.65
1011.12	2707.41
1011.28	2721.75
1011.44	2789.33
1011.60	2650.07
1011.76	2660.31
1011.91	2729.94
1012.07	2627.54
1012.23	2527.19
1012.39	2564.06
1012.55	2662.36
1012.71	2615.26
1012.86	2652.12
1013.02	2523.10
1013.18	2613.21
1013.34	2492.38
1013.50	2666.46
1013.65	2662.36
1013.81	2516.95
1013.97	2557.91
1014.13	2598.87
1014.29	2682.84
1014.44	2713.56
1014.60	2578.39
1014.76	2494.43
1014.92	2576.34
1015.07	2570.20
1015.23	2607.06
1015.39	2445.27
1015.55	2465.75
1015.71	2443.23
1015.86	2482.14
1016.02	2482.14
1016.18	2414.56
1016.34	2422.75
1016.49	2512.86
1016.65	2527.19
1016.81	2457.56
1016.97	2467.80
1017.12	2553.82
1017.28	2385.88
1017.44	2328.54
1017.60	2437.08
1017.75	2443.23
1017.91	2346.97
1018.07	2422.75
1018.23	2504.67
1018.38	2373.60
1018.54	2418.65
1018.70	2334.68
1018.86	2392.03
1019.01	2420.70
1019.17	2373.60
1019.33	2488.28
1019.49	2443.23
1019.64	2379.74
1019.80	2398.17
1019.96	2383.84
1020.12	2420.70
1020.27	2344.92
1020.43	2338.78
1020.59	2430.94
1020.74	2404.32
1020.90	2392.03
1021.06	2293.72
1021.22	2289.63
1021.37	2359.26
1021.53	2273.25
1021.69	2394.08
1021.84	2328.54
1022.00	2308.06
1022.16	2289.63
1022.31	2289.63
1022.47	2289.63
1022.63	2351.07
1022.79	2342.88
1022.94	2256.86
1023.10	2314.20
1023.26	2232.29
1023.41	2228.19
1023.57	2146.27
1023.73	2297.82
1023.88	2213.85
1024.04	2297.82
1024.20	2226.14
1024.35	2224.09
1024.51	2308.06
1024.67	2228.19
1024.82	2232.29
1024.98	2260.96
1025.14	2269.15
1025.29	2193.37
1025.45	2344.92
1025.61	2181.09
1025.76	2222.05
1025.92	2123.74
1026.08	2207.71
1026.23	2217.95
1026.39	2222.05
1026.55	2129.89
1026.70	2187.23
1026.86	2123.74
1027.02	2136.03
1027.17	2119.65
1027.33	2174.94
1027.48	2117.60
1027.64	2183.13
1027.80	2113.50
1027.95	2166.75
1028.11	2054.11
1028.27	2140.13
1028.42	2162.66
1028.58	2076.64
1028.73	2088.93
1028.89	2164.70
1029.05	2193.37
1029.20	2119.65
>>>>>End Processed Spectral Data<<<<<
