SpectraSuite Data File
++++++++++++++++++++++++++++++++++++
Date: Fri Jun 02 14:53:34 CEST 2017
User: INFO_000
Dark Spectrum Present: No
Reference Spectrum Present: No
Number of Sampled Component Spectra: 1
Spectrometers: USB4H00879
Integration Time (usec): 80000 (USB4H00879)
Spectra Averaged: 1 (USB4H00879)
Boxcar Smoothing: 0 (USB4H00879)
Correct for Electrical Dark: No (USB4H00879)
Strobe/Lamp Enabled: No (USB4H00879)
Correct for Detector Non-linearity: No (USB4H00879)
Correct for Stray Light: No (USB4H00879)
Number of Pixels in Processed Spectrum: 3648
>>>>>Begin Processed Spectral Data<<<<<
345.13	1251.31
345.34	1251.31
345.56	1251.31
345.78	1298.41
345.99	1245.16
346.21	1746.92
346.42	1679.33
346.64	1691.62
346.86	1818.60
347.07	1630.18
347.29	1677.29
347.50	1624.04
347.72	1734.63
347.94	1832.93
348.15	1601.51
348.37	1581.03
348.59	1748.97
348.80	1646.57
349.02	1808.36
349.23	1912.80
349.45	1953.76
349.67	1914.85
349.88	1834.98
350.10	1896.42
350.31	1900.52
350.53	1849.32
350.75	1912.80
350.96	1755.11
351.18	1925.09
351.39	1847.27
351.61	1744.87
351.82	1902.56
352.04	1841.12
352.26	1855.46
352.47	1859.56
352.69	1966.05
352.90	1794.02
353.12	1880.04
353.34	1845.22
353.55	1935.33
353.77	1910.75
353.98	1839.08
354.20	1894.37
354.41	1949.67
354.63	2025.44
354.85	1986.53
355.06	1837.03
355.28	1839.08
355.49	1861.60
355.71	1896.42
355.92	1880.04
356.14	1994.72
356.35	1851.36
356.57	1849.32
356.79	1873.89
357.00	1869.80
357.22	1959.91
357.43	1810.40
357.65	1957.86
357.86	1912.80
358.08	2017.25
358.29	1951.71
358.51	1943.52
358.72	2002.91
358.94	1949.67
359.16	1929.19
359.37	1966.05
359.59	1982.43
359.80	1968.10
360.02	1837.03
360.23	1982.43
360.45	2074.59
360.66	1970.15
360.88	1859.56
361.09	1871.84
361.31	1972.19
361.52	1943.52
361.74	2084.83
361.95	2037.73
362.17	1935.33
362.38	2129.89
362.60	2080.74
362.81	1996.77
363.03	1970.15
363.24	1910.75
363.46	2082.78
363.67	2004.96
363.89	2011.11
364.10	1935.33
364.32	1968.10
364.53	1992.67
364.75	1910.75
364.96	1990.63
365.18	2011.11
365.39	1986.53
365.61	2058.21
365.82	2160.61
366.04	2103.26
366.25	1955.81
366.47	2074.59
366.68	1957.86
366.90	1941.47
367.11	2093.02
367.33	2105.31
367.54	2103.26
367.76	1976.29
367.97	2109.41
368.19	1970.15
368.40	2019.30
368.62	1953.76
368.83	1957.86
369.05	2039.78
369.26	1990.63
369.48	1968.10
369.69	2033.63
369.91	1988.58
370.12	2082.78
370.33	2240.48
370.55	2017.25
370.76	2111.46
370.98	2068.45
371.19	2105.31
371.41	2086.88
371.62	2015.20
371.84	1978.34
372.05	2183.13
372.27	2015.20
372.48	2062.30
372.69	2136.03
372.91	2142.18
373.12	2176.99
373.34	2117.60
373.55	2150.37
373.77	2236.38
373.98	2224.09
374.20	2183.13
374.41	2244.57
374.62	2101.22
374.84	2146.27
375.05	2203.61
375.27	2201.57
375.48	2158.56
375.70	2142.18
375.91	2140.13
376.12	2269.15
376.34	2185.18
376.55	2119.65
376.77	2250.72
376.98	2093.02
377.19	2107.36
377.41	2154.46
377.62	2183.13
377.84	2279.39
378.05	2385.88
378.27	2314.20
378.48	2260.96
378.69	2381.79
378.91	2293.72
379.12	2318.30
379.34	2291.68
379.55	2267.10
379.76	2201.57
379.98	2303.96
380.19	2324.44
380.41	2252.77
380.62	2299.87
380.83	2224.09
381.05	2312.16
381.26	2441.18
381.47	2246.62
381.69	2265.05
381.90	2459.61
382.12	2361.31
382.33	2248.67
382.54	2318.30
382.76	2367.45
382.97	2394.08
383.19	2269.15
383.40	2371.55
383.61	2306.01
383.83	2334.68
384.04	2248.67
384.25	2402.27
384.47	2428.89
384.68	2392.03
384.89	2379.74
385.11	2353.12
385.32	2385.88
385.54	2381.79
385.75	2379.74
385.96	2375.64
386.18	2420.70
386.39	2355.16
386.60	2338.78
386.82	2422.75
387.03	2402.27
387.24	2543.58
387.46	2504.67
387.67	2486.23
387.88	2498.52
388.10	2465.75
388.31	2510.81
388.52	2574.30
388.74	2666.46
388.95	2465.75
389.16	2539.48
389.38	2486.23
389.59	2584.54
389.80	2623.45
390.02	2555.86
390.23	2572.25
390.44	2557.91
390.66	2617.30
390.87	2533.34
391.08	2578.39
391.30	2787.29
391.51	2670.55
391.72	2645.98
391.94	2709.46
392.15	2666.46
392.36	2580.44
392.58	2615.26
392.79	2713.56
393.00	2750.42
393.22	2742.23
393.43	2795.48
393.64	2861.01
393.85	2758.61
394.07	2764.76
394.28	2727.89
394.49	2717.65
394.71	2764.76
394.92	2762.71
395.13	2686.94
395.35	2713.56
395.56	2818.00
395.77	2801.62
395.98	2904.02
396.20	2895.83
396.41	2799.57
396.62	2848.72
396.84	2844.63
397.05	2750.42
397.26	2877.40
397.47	3002.32
397.69	2813.91
397.90	3006.42
398.11	2938.84
398.32	2869.20
398.54	2836.44
398.75	2934.74
398.96	2899.92
399.18	3074.00
399.39	2967.51
399.60	3004.37
399.81	2979.79
400.03	3069.91
400.24	3264.46
400.45	2985.94
400.66	3170.26
400.88	3022.80
401.09	3112.91
401.30	2928.60
401.51	3174.35
401.73	3178.45
401.94	3172.30
402.15	3147.73
402.36	3174.35
402.58	3141.58
402.79	3207.12
403.00	3147.73
403.21	3162.06
403.43	3276.75
403.64	3350.48
403.85	3114.96
404.06	3186.64
404.27	3123.15
404.49	3252.17
404.70	3225.55
404.91	3286.99
405.12	3323.85
405.34	3293.13
405.55	3330.00
405.76	3141.58
405.97	3313.61
406.19	3360.72
406.40	3274.70
406.61	3313.61
406.82	3432.40
407.03	3387.34
407.25	3260.37
407.46	3420.11
407.67	3377.10
407.88	3495.88
408.09	3321.81
408.31	3313.61
408.52	3471.31
408.73	3401.68
408.94	3411.92
409.15	3493.83
409.37	3590.09
409.58	3573.71
409.79	3542.99
410.00	3565.51
410.21	3452.88
410.43	3596.23
410.64	3438.54
410.85	3522.51
411.06	3493.83
411.27	3575.75
411.48	3659.72
411.70	3506.12
411.91	3538.89
412.12	3649.48
412.33	3667.91
412.54	3692.49
412.76	3702.73
412.97	3661.77
413.18	3594.19
413.39	3661.77
413.60	3676.10
413.81	3688.39
414.03	3667.91
414.24	3590.09
414.45	3852.23
414.66	3686.34
414.87	3721.16
415.08	3719.11
415.30	3725.26
415.51	3850.18
415.72	3735.50
415.93	3755.97
416.14	3794.89
416.35	3876.80
416.56	3772.36
416.78	3764.17
416.99	3895.24
417.20	3882.95
417.41	3921.86
417.62	3940.29
417.83	3932.10
418.04	3854.28
418.26	4038.59
418.47	3870.66
418.68	3911.62
418.89	4050.88
419.10	4177.86
419.31	4124.61
419.52	4032.45
419.73	4052.93
419.95	4128.70
420.16	4079.55
420.37	4057.03
420.58	4067.27
420.79	4063.17
421.00	4018.11
421.21	4216.77
421.42	4087.75
421.63	4190.14
421.85	4083.65
422.06	4296.64
422.27	4390.84
422.48	4220.86
422.69	4278.21
422.90	4308.93
423.11	4323.26
423.32	4349.89
423.53	4427.71
423.75	4370.37
423.96	4575.16
424.17	4483.00
424.38	4556.73
424.59	4452.28
424.80	4540.35
425.01	4523.96
425.22	4487.10
425.43	4507.58
425.64	4810.68
425.85	4689.85
426.06	4751.29
426.28	4708.28
426.49	4616.12
426.70	4536.25
426.91	4587.45
427.12	4755.38
427.33	4786.10
427.54	4798.39
427.75	4700.09
427.96	4886.45
428.17	4710.33
428.38	4888.50
428.59	4970.42
428.80	4759.48
429.01	4925.36
429.23	4868.02
429.44	5072.82
429.65	5052.34
429.86	5087.15
430.07	4810.68
430.28	4904.89
430.49	5031.86
430.70	5095.35
430.91	5250.99
431.12	5105.59
431.33	5212.08
431.54	5224.37
431.75	5236.66
431.96	5240.75
432.17	5105.59
432.38	5171.12
432.59	5361.58
432.80	5169.07
433.01	5330.86
433.22	5357.49
433.43	5355.44
433.64	5275.57
433.85	5285.81
434.06	5435.31
434.27	5416.88
434.49	5418.93
434.70	5615.53
434.91	5449.64
435.12	5570.48
435.33	5418.93
435.54	5285.81
435.75	5427.12
435.96	5496.75
436.17	5441.45
436.38	5527.47
436.59	5584.81
436.80	5468.08
437.01	5742.50
437.22	5810.09
437.43	5760.94
437.64	5566.38
437.85	5789.61
438.06	5767.08
438.27	5562.28
438.48	5621.67
438.69	5949.35
438.90	5750.70
439.11	5670.83
439.32	5947.30
439.53	5941.16
439.74	5810.09
439.95	5949.35
440.16	5900.20
440.37	5910.44
440.57	5820.33
440.78	5953.45
440.99	5941.16
441.20	5973.92
441.41	5869.48
441.62	6119.33
441.83	5781.42
442.04	6066.08
442.25	6072.23
442.46	6006.69
442.67	6270.88
442.88	6442.91
443.09	6045.60
443.30	6086.56
443.51	6289.31
443.72	6420.38
443.93	6125.47
444.14	6537.12
444.35	6139.81
444.56	6432.67
444.77	6213.54
444.98	6387.61
445.19	6451.10
445.40	6461.34
445.61	6381.47
445.81	6416.29
446.02	6483.87
446.23	6594.46
446.44	6369.18
446.65	6592.41
446.86	6653.85
447.07	6625.18
447.28	6770.58
447.49	6764.44
447.70	6578.08
447.91	6633.37
448.12	6664.09
448.33	6999.96
448.54	6739.87
448.74	6762.39
448.95	6799.26
449.16	6832.02
449.37	7079.83
449.58	6754.20
449.79	6959.00
450.00	6793.11
450.21	6975.38
450.42	6999.96
450.63	6971.29
450.84	7004.05
451.05	7004.05
451.25	7073.68
451.46	6909.85
451.67	7036.82
451.88	7167.89
452.09	7262.10
452.30	7112.60
452.51	7114.64
452.72	7186.32
452.93	7360.40
453.13	7208.85
453.34	7278.48
453.55	7317.39
453.76	7387.02
453.97	7671.69
454.18	7356.30
454.39	7546.76
454.60	7387.02
454.81	7628.68
455.01	7718.79
455.22	7479.18
455.43	7651.21
455.64	7849.86
455.85	7954.31
456.06	8028.04
456.27	7872.39
456.48	7849.86
456.68	8023.94
456.89	7919.50
457.10	7962.50
457.31	8146.82
457.52	7948.17
457.73	8210.31
457.94	8179.59
458.14	8011.65
458.35	8335.23
458.56	8353.66
458.77	8345.47
458.98	8576.89
459.19	8384.38
459.39	8503.17
459.60	8644.48
459.81	8521.60
460.02	8738.68
460.23	8535.93
460.44	8871.80
460.65	8884.09
460.85	8791.93
461.06	8986.49
461.27	8589.18
461.48	8943.48
461.69	9154.42
461.89	8793.98
462.10	8968.06
462.31	8970.10
462.52	8853.37
462.73	9019.25
462.94	9295.73
463.14	9256.82
463.35	9140.08
463.56	9850.73
463.77	9346.93
463.98	9344.88
464.18	9582.45
464.39	9570.16
464.60	9971.56
464.81	9772.91
465.02	9836.39
465.23	9987.94
465.43	9797.48
465.64	10035.05
465.85	9916.26
466.06	9801.58
466.27	10172.26
466.47	10114.92
466.68	10213.22
466.89	10278.76
467.10	10276.71
467.30	10250.08
467.51	10424.16
467.72	10710.88
467.93	10354.53
468.14	10368.87
468.34	10626.91
468.55	10641.25
468.76	10766.17
468.97	10442.59
469.17	10913.63
469.38	10970.97
469.59	11038.55
469.80	10997.59
470.01	10954.58
470.21	10880.86
470.42	11081.56
470.63	11321.17
470.84	11401.04
471.04	11487.06
471.25	11558.74
471.46	11403.09
471.67	11810.64
471.87	11589.46
472.08	11818.83
472.29	11808.59
472.50	11757.39
472.70	11771.72
472.91	11919.18
473.12	12037.96
473.33	12185.41
473.53	12250.95
473.74	12255.04
473.95	12316.48
474.16	12697.41
474.36	12580.67
474.57	12754.75
474.78	12701.50
474.99	12758.85
475.19	12601.15
475.40	12971.83
475.61	13039.42
475.81	13170.49
476.02	13322.04
476.23	13063.99
476.44	13338.42
476.64	13555.51
476.85	13688.62
477.06	13518.64
477.27	13821.74
477.47	13754.16
477.68	14059.31
477.89	14274.34
478.09	14159.66
478.30	14272.29
478.51	14268.20
478.71	14458.66
478.92	14528.29
479.13	14454.56
479.34	14655.26
479.54	14737.18
479.75	14673.70
479.96	14919.45
480.16	14884.64
480.37	15040.28
480.58	15138.58
480.78	15482.64
480.99	15177.50
481.20	15423.25
481.41	15666.96
481.61	15752.98
481.82	16019.21
482.03	15769.36
482.23	15615.76
482.44	15757.07
482.65	16158.47
482.85	16060.17
483.06	16076.55
483.27	16353.03
483.47	16363.27
483.68	16529.16
483.89	16660.23
484.09	16369.41
484.30	16781.06
484.51	16951.04
484.71	17053.44
484.92	17090.30
485.13	17057.53
485.33	17100.54
485.54	17299.19
485.75	17467.13
485.95	17561.33
486.16	17516.28
486.37	17706.74
486.57	17553.14
486.78	17835.76
486.98	17856.24
487.19	18147.05
487.40	17960.69
487.60	18204.39
487.81	18265.83
488.02	18310.89
488.22	17870.58
488.43	18685.67
488.64	18624.23
488.84	18695.91
489.05	18898.66
489.25	18591.46
489.46	19134.17
489.67	18747.11
489.87	19095.26
490.08	19103.45
490.29	19130.08
490.49	19719.89
490.70	19562.20
490.90	19574.49
491.11	19703.51
491.32	19816.15
491.52	19572.44
491.73	19793.62
491.94	19775.19
492.14	19930.83
492.35	20301.51
492.55	20235.98
492.76	20307.66
492.97	20651.72
493.17	20303.56
493.38	20580.04
493.58	20747.97
493.79	20582.09
494.00	20549.32
494.20	20911.81
494.41	21290.68
494.61	21223.10
494.82	21083.84
495.02	20829.89
495.23	21362.36
495.44	21683.89
495.64	21548.73
495.85	21470.90
496.05	21515.96
496.26	21520.06
496.47	22101.68
496.67	21614.26
496.88	21986.99
497.08	22023.86
497.29	22376.11
497.49	22156.97
497.70	22427.31
497.91	22458.03
498.11	22351.53
498.32	22595.24
498.52	22668.97
498.73	22775.46
498.93	22752.93
499.14	23260.83
499.34	22687.40
499.55	23019.17
499.76	22884.00
499.96	23068.32
500.17	23221.92
500.37	23287.45
500.58	23295.64
500.78	23283.36
500.99	23467.67
501.19	23629.46
501.40	23600.79
501.60	23711.38
501.81	23760.53
502.02	23881.36
502.22	23735.96
502.43	23967.38
502.63	24155.79
502.84	24192.65
503.04	23787.16
503.25	24057.49
503.45	24297.10
503.66	24422.03
503.86	24293.01
504.07	24401.55
504.27	24235.66
504.48	24549.00
504.68	24618.63
504.89	24721.03
505.09	24653.45
505.30	24878.72
505.50	25147.01
505.71	25044.61
505.91	25325.18
506.12	25120.38
506.32	25153.15
506.53	25163.39
506.73	25204.35
506.94	25484.92
507.14	25435.77
507.35	25386.62
507.55	25742.97
507.76	25835.13
507.96	25450.11
508.17	25831.03
508.37	25597.56
508.58	26103.41
508.78	25941.62
508.99	26388.08
509.19	26357.36
509.40	25949.81
509.60	26332.78
509.81	26375.79
510.01	26281.58
510.22	26211.95
510.42	26416.75
510.63	26594.92
510.83	26513.00
511.04	26490.48
511.24	26445.42
511.44	26799.72
511.65	26910.31
511.85	26752.62
512.06	26818.15
512.26	26990.18
512.47	27051.62
512.67	27012.71
512.88	27203.17
513.08	27254.37
513.29	27297.38
513.49	27246.18
513.69	27111.01
513.90	27549.28
514.10	27485.79
514.31	27424.35
514.51	27317.86
514.72	27616.86
514.92	27690.59
515.13	27782.74
515.33	27889.24
515.53	28081.75
515.74	28132.95
515.94	27979.35
516.15	27887.19
516.35	27901.53
516.56	28370.51
516.76	28188.24
516.96	28210.77
517.17	28538.44
517.37	28413.52
517.58	28710.47
517.78	28939.85
517.99	28589.64
518.19	28849.74
518.39	28847.69
518.60	28896.84
518.80	28927.56
519.01	29230.66
519.21	29087.30
519.41	29404.74
519.62	29154.88
519.82	29488.70
520.03	29374.02
520.23	29533.76
520.43	29625.92
520.64	29486.65
520.84	29605.44
521.05	29685.31
521.25	30080.56
521.45	29838.90
521.66	30187.06
521.86	29939.26
522.07	30123.57
522.27	30174.77
522.47	30201.40
522.68	30449.20
522.88	30723.63
523.08	30707.24
523.29	30385.71
523.49	30455.34
523.70	30725.68
523.90	30897.70
524.10	30850.60
524.31	30912.04
524.51	30834.22
524.71	31407.65
524.92	31292.96
525.12	31321.63
525.33	31313.44
525.53	31421.98
525.73	31735.32
525.94	32026.14
526.14	31680.03
526.34	31931.93
526.55	31979.03
526.75	31882.78
526.95	32112.15
527.16	32112.15
527.36	31841.82
527.56	32472.59
527.77	32392.72
527.97	32122.39
528.17	32411.15
528.38	32742.92
528.58	32683.53
528.78	33009.16
528.99	32611.85
529.19	33224.20
529.39	32525.84
529.60	33263.11
529.80	33363.46
530.00	33230.34
530.21	33275.40
530.41	33418.75
530.61	33682.94
530.82	33410.56
531.02	33983.99
531.22	33699.33
531.43	34276.85
531.63	34483.70
531.83	34008.57
532.04	34452.98
532.24	34227.70
532.44	34784.75
532.64	34508.27
532.85	35007.98
533.05	34858.48
533.25	34915.82
533.46	34758.13
533.66	35079.66
533.86	34915.82
534.07	35714.53
534.27	34958.83
534.47	35577.31
534.67	35673.57
534.88	35263.97
535.08	35589.60
535.28	35874.27
535.49	35763.68
535.69	35976.67
535.89	36001.24
536.09	36494.80
536.30	36369.88
536.50	36195.80
536.70	36570.58
536.91	36396.50
537.11	36511.19
537.31	36537.81
537.51	36386.26
537.72	36996.56
537.92	36916.68
538.12	36963.79
538.32	36853.20
538.53	37416.39
538.73	37096.91
538.93	37359.05
539.13	37213.64
539.34	37227.98
539.54	37488.07
539.74	37643.71
539.94	37621.19
540.15	37307.85
540.35	37780.93
540.55	38127.03
540.75	38278.58
540.96	38041.02
541.16	37744.06
541.36	38344.12
541.56	38092.22
541.77	38100.41
541.97	38432.18
542.17	38325.69
542.37	38696.37
542.58	38579.64
542.78	38827.44
542.98	38815.15
543.18	38788.53
543.38	39130.54
543.59	38972.85
543.79	38954.41
543.99	39040.43
544.19	38884.78
544.40	39112.11
544.60	39480.74
544.80	39105.96
545.00	39329.19
545.20	39357.86
545.41	38917.55
545.61	39126.44
545.81	39728.55
546.01	39794.08
546.21	39542.18
546.42	39413.16
546.62	39755.17
546.82	39548.32
547.02	40035.74
547.22	39849.38
547.43	39564.71
547.63	40197.53
547.83	40267.16
548.03	40074.65
548.23	40330.65
548.44	40105.37
548.64	40428.95
548.84	40496.53
549.04	40625.56
549.24	40537.49
549.45	40588.69
549.65	40506.77
549.85	40252.83
550.05	41008.53
550.25	40809.87
550.45	41145.74
550.66	41145.74
550.86	41045.39
551.06	41033.10
551.26	41133.45
551.46	40762.77
551.66	41041.29
551.87	40891.79
552.07	40932.75
552.27	41080.21
552.47	41276.81
552.67	41649.54
552.87	41467.27
553.07	41088.40
553.28	41596.29
553.48	41788.80
553.68	41817.47
553.88	41874.82
554.08	41897.34
554.28	42167.68
554.48	41532.81
554.69	41809.28
554.89	41571.72
555.09	41907.58
555.29	41889.15
555.49	41887.10
555.69	42296.70
555.89	41813.38
556.10	42005.89
556.30	41846.15
556.50	42376.57
556.70	41811.33
556.90	42407.29
557.10	42349.95
557.30	42128.77
557.50	42222.97
557.70	42442.10
557.91	42431.86
558.11	42530.17
558.31	42835.31
558.51	42354.04
558.71	42767.73
558.91	42564.98
559.11	42642.81
559.31	42671.48
559.51	42562.93
559.72	42927.47
559.92	43079.02
560.12	42646.90
560.32	42694.00
560.52	42741.11
560.72	42984.82
560.92	43429.23
561.12	43226.48
561.32	42786.16
561.52	43167.09
561.72	43578.73
561.93	43203.95
562.13	43111.79
562.33	43111.79
562.53	44041.57
562.73	42966.38
562.93	42972.53
563.13	43308.40
563.33	43005.30
563.53	43484.52
563.73	43140.46
563.93	43316.59
564.13	44082.53
564.33	43804.00
564.53	43400.55
564.74	43965.79
564.94	43558.25
565.14	43634.02
565.34	43554.15
565.54	43742.56
565.74	43711.84
565.94	44301.66
566.14	43861.35
566.34	43607.40
566.54	44438.87
566.74	43617.64
566.94	44002.66
567.14	44385.63
567.34	44111.20
567.54	44225.89
567.74	43939.17
567.94	44051.81
568.14	44242.27
568.34	44762.45
568.54	44260.70
568.74	44442.97
568.94	44393.82
569.14	44567.90
569.34	44528.98
569.54	44569.94
569.75	44250.46
569.95	44864.85
570.15	44694.87
570.35	44369.24
570.55	45040.98
570.75	44729.69
570.95	44842.32
571.15	44799.32
571.35	44713.30
571.55	44899.67
571.75	44551.51
571.95	45264.21
572.15	45090.13
572.35	45053.26
572.55	45149.52
572.75	45065.55
572.95	45241.68
573.15	45495.63
573.35	45251.92
573.55	45339.98
573.75	45071.70
573.95	45573.45
574.15	45342.03
574.35	45528.39
574.55	45768.01
574.75	45630.79
574.95	45417.80
575.15	45638.98
575.34	46001.47
575.54	45634.89
575.74	45792.58
575.94	46075.20
576.14	45485.39
576.34	46001.47
576.54	46095.68
576.74	46245.18
576.94	45856.07
577.14	46388.54
577.34	46525.75
577.54	45931.84
577.74	45878.60
577.94	46581.05
578.14	46122.30
578.34	46964.02
578.54	46087.49
578.74	46288.19
578.94	46609.72
579.14	46679.35
579.34	46196.03
579.54	46878.00
579.74	47127.86
579.94	46742.84
580.13	47383.85
580.33	47062.32
580.53	47291.69
580.73	46796.09
580.93	47179.06
581.13	47160.62
581.33	47703.34
581.53	47545.64
581.73	47293.74
581.93	47832.36
582.13	47383.85
582.33	47242.54
582.53	47410.48
582.73	47637.80
582.92	47596.84
583.12	48252.19
583.32	47936.80
583.52	47134.00
583.72	48102.69
583.92	47947.04
584.12	48172.32
584.32	48407.84
584.52	48123.17
584.72	47912.23
584.92	48252.19
585.11	48643.35
585.31	48452.89
585.51	48518.43
585.71	48448.80
585.91	48452.89
586.11	48776.47
586.31	48092.45
586.51	48571.67
586.71	48866.58
586.91	48854.29
587.10	48854.29
587.30	48663.83
587.50	49220.88
587.70	49339.66
587.90	49282.32
588.10	48901.40
588.30	49370.38
588.50	49048.85
588.69	49507.60
588.89	48995.60
589.09	49698.06
589.29	49427.73
589.49	49921.29
589.69	49388.81
589.89	49773.83
590.08	49782.02
590.28	49605.90
590.48	49906.95
590.68	49419.53
590.88	49665.29
591.08	49898.76
591.28	49835.27
591.47	49988.87
591.67	49952.01
591.87	49675.53
592.07	49845.51
592.27	50148.61
592.47	50197.76
592.67	50027.78
592.86	50103.56
593.06	50715.90
593.26	50324.74
593.46	51035.38
593.66	50443.52
593.86	50697.47
594.05	50486.53
594.25	50971.89
594.45	50365.70
594.65	50709.75
594.85	50644.22
595.05	50975.99
595.24	51086.58
595.44	50975.99
595.64	50597.12
595.84	51162.36
596.04	50959.61
596.23	50920.70
596.43	51139.83
596.63	51088.63
596.83	51444.98
597.03	51463.41
597.22	51803.37
597.42	51393.78
597.62	51811.56
597.82	51895.53
598.02	51287.28
598.21	51813.61
598.41	51696.88
598.61	51651.82
598.81	51717.35
599.01	52176.10
599.20	51948.78
599.40	51856.62
599.60	52315.36
599.80	51893.48
600.00	52276.45
600.19	52434.14
600.39	51909.86
600.59	52735.20
600.79	52278.50
600.98	52167.91
601.18	52411.62
601.38	52423.90
601.58	52692.19
601.78	53003.48
601.97	52993.24
602.17	53077.21
602.37	53118.17
602.57	53329.11
602.76	53325.01
602.96	52817.11
603.16	53107.93
603.36	52868.31
603.55	53294.29
603.75	53202.13
603.95	53284.05
604.15	53353.68
604.34	53339.35
604.54	53750.99
604.74	53761.23
604.94	53986.50
605.13	53896.39
605.33	53667.02
605.53	53355.73
605.73	53822.67
605.92	53562.57
606.12	54045.90
606.32	54293.70
606.52	54176.97
606.71	54060.23
606.91	53933.26
607.11	53843.15
607.30	53873.87
607.50	53841.10
607.70	54260.93
607.90	54273.22
608.09	54047.94
608.29	54379.71
608.49	54449.35
608.68	54326.47
608.88	54629.57
609.08	54490.30
609.28	54301.89
609.47	54711.49
609.67	55100.60
609.87	54717.63
610.06	54801.60
610.26	54719.68
610.46	55000.25
610.66	54779.07
610.85	54662.33
611.05	54750.40
611.25	54801.60
611.44	55045.30
611.64	55139.51
611.84	54598.85
612.03	54731.96
612.23	55159.99
612.43	54899.90
612.62	54777.02
612.82	55465.14
613.02	54820.03
613.21	55286.96
613.41	54936.76
613.61	55350.45
613.80	54758.59
614.00	55106.74
614.20	55123.13
614.39	55178.42
614.59	54891.71
614.79	55444.66
614.98	55149.75
615.18	55375.03
615.38	55067.83
615.57	55237.81
615.77	55391.41
615.97	55571.63
616.16	54965.43
616.36	55262.39
616.56	54916.28
616.75	54820.03
616.95	55004.34
617.15	55282.87
617.34	55037.11
617.54	55671.98
617.74	55176.37
617.93	55860.40
618.13	54750.40
618.32	55762.09
618.52	55055.54
618.72	55620.78
618.91	55049.40
619.11	54727.87
619.31	55268.53
619.50	55307.44
619.70	55186.61
619.90	55153.85
620.09	54895.80
620.29	55301.30
620.48	54985.91
620.68	55508.14
620.88	54924.47
621.07	55461.04
621.27	55205.05
621.46	55151.80
621.66	55532.72
621.86	55239.86
622.05	54975.67
622.25	55950.51
622.44	55551.15
622.64	54977.72
622.84	55706.80
623.03	55008.44
623.23	54860.99
623.42	55198.90
623.62	55432.37
623.82	55592.11
624.01	55188.66
624.21	55020.73
624.40	54963.39
624.60	55252.15
624.80	55219.38
624.99	55125.17
625.19	54817.98
625.38	55547.06
625.58	55522.48
625.77	55190.71
625.97	55368.88
626.17	55385.27
626.36	55413.94
626.56	55497.91
626.75	54799.55
626.95	55471.28
627.14	55522.48
627.34	55237.81
627.54	54846.65
627.73	55327.92
627.93	55395.51
628.12	55186.61
628.32	55225.53
628.51	55366.84
628.71	55786.67
628.90	55358.64
629.10	55334.07
629.30	55231.67
629.49	55538.86
629.69	54768.83
629.88	55217.33
630.08	55428.27
630.27	55620.78
630.47	55438.51
630.66	55268.53
630.86	55418.03
631.05	54688.96
631.25	55940.27
631.44	55553.20
631.64	55465.14
631.84	55438.51
632.03	55911.59
632.23	55309.49
632.42	55694.51
632.62	55403.70
632.81	55450.80
633.01	55680.17
633.20	55733.42
633.40	55706.80
633.59	55518.38
633.79	55055.54
633.98	55624.88
634.18	55731.37
634.37	55669.93
634.57	55559.34
634.76	56073.38
634.96	55831.72
635.15	55491.76
635.35	55164.09
635.54	55704.75
635.74	56063.14
635.93	55651.50
636.13	55780.52
636.32	55645.36
636.52	55465.14
636.71	55471.28
636.91	55516.34
637.10	55602.35
637.30	55592.11
637.49	55616.69
637.69	55571.63
637.88	56163.50
638.08	55415.99
638.27	56063.14
638.46	55747.76
638.66	55514.29
638.85	55581.87
639.05	55706.80
639.24	55919.79
639.44	54971.58
639.63	55721.13
639.83	55667.89
640.02	55694.51
640.22	56081.58
640.41	55946.41
640.61	55399.60
640.80	55647.41
640.99	55940.27
641.19	56028.33
641.38	55973.03
641.58	55567.54
641.77	55743.66
641.97	55823.53
642.16	56016.04
642.36	55952.55
642.55	56315.04
642.74	55289.01
642.94	56079.53
643.13	55796.91
643.33	56022.19
643.52	55948.46
643.72	56095.91
643.91	55925.93
644.10	56059.05
644.30	56317.09
644.49	55899.31
644.69	56001.71
644.88	55837.87
645.08	55661.74
645.27	55639.22
645.46	56018.09
645.66	56145.06
645.85	55866.54
646.05	56173.73
646.24	56095.91
646.43	56251.56
646.63	56808.61
646.82	56501.41
647.02	56376.48
647.21	56503.46
647.40	56126.63
647.60	56233.13
647.79	56571.04
647.99	56052.90
648.18	56140.97
648.37	56374.44
648.57	56306.85
648.76	56673.44
648.96	56013.99
649.15	56224.93
649.34	56505.51
649.54	56323.24
649.73	55919.79
649.92	56554.66
650.12	56337.57
650.31	56796.32
650.51	56726.69
650.70	56722.59
650.89	56579.23
651.09	57236.63
651.28	56698.01
651.47	56673.44
651.67	56663.20
651.86	56949.92
652.06	56134.82
652.25	56114.34
652.44	56634.53
652.64	56118.44
652.83	56687.78
653.02	56239.27
653.22	56833.18
653.41	56720.54
653.60	56224.93
653.80	56065.19
653.99	56980.63
654.18	56702.11
654.38	56612.00
654.57	56749.21
654.76	56478.88
654.96	56980.63
655.15	56472.74
655.34	56898.72
655.54	56300.71
655.73	56200.36
655.92	56906.91
656.12	56675.49
656.31	56857.76
656.50	57040.03
656.70	56247.46
656.89	56530.08
657.08	56489.12
657.28	56337.57
657.47	56937.63
657.66	56788.13
657.86	56540.32
658.05	56562.85
658.24	56685.73
658.43	56358.05
658.63	56560.80
658.82	56472.74
659.01	57060.51
659.21	57101.46
659.40	56530.08
659.59	56439.97
659.79	56857.76
659.98	56880.28
660.17	56972.44
660.36	56964.25
660.56	56874.14
660.75	56652.96
660.94	56609.95
661.14	56765.60
661.33	56753.31
661.52	56190.12
661.71	57056.41
661.91	56353.96
662.10	56597.66
662.29	56853.66
662.49	56644.77
662.68	56454.31
662.87	56544.42
663.06	56679.58
663.26	56704.16
663.45	57033.88
663.64	56546.47
663.83	57472.15
664.03	56812.70
664.22	57162.90
664.41	57121.94
664.60	56853.66
664.80	57099.42
664.99	56695.97
665.18	56876.19
665.37	56943.77
665.57	57027.74
665.76	56595.62
665.95	56775.84
666.14	56583.33
666.34	57357.46
666.53	56605.86
666.72	56411.30
666.91	56358.05
667.11	56562.85
667.30	56472.74
667.49	56403.11
667.68	56917.15
667.87	56589.47
668.07	56894.62
668.26	56874.14
668.45	56548.51
668.64	56591.52
668.84	57201.82
669.03	57083.03
669.22	57052.31
669.41	56642.72
669.60	56919.20
669.80	56738.97
669.99	56804.51
670.18	56861.85
670.37	56906.91
670.57	56931.48
670.76	56589.47
670.95	56921.24
671.14	56505.51
671.33	56497.31
671.53	56538.27
671.72	57007.26
671.91	56755.36
672.10	56706.21
672.29	56841.37
672.48	56462.50
672.68	57021.59
672.87	56200.36
673.06	56761.50
673.25	56276.13
673.44	56929.44
673.64	56403.11
673.83	56505.51
674.02	56399.01
674.21	56411.30
674.40	56718.49
674.59	56192.17
674.79	56157.35
674.98	56347.81
675.17	56421.54
675.36	55911.59
675.55	56812.70
675.74	56259.75
675.94	56106.15
676.13	56734.88
676.32	56513.70
676.51	56874.14
676.70	56427.68
676.89	56288.42
677.08	56562.85
677.28	55585.97
677.47	56495.27
677.66	56906.91
677.85	56231.08
678.04	56315.04
678.23	56896.67
678.42	56448.16
678.62	56186.02
678.81	56489.12
679.00	56317.09
679.19	56917.15
679.38	56349.86
679.57	56394.92
679.76	56456.35
679.96	56792.22
680.15	56212.65
680.34	56444.07
680.53	56343.72
680.72	56616.10
680.91	56358.05
681.10	56421.54
681.29	56726.69
681.48	56038.57
681.68	56134.82
681.87	56024.23
682.06	56196.26
682.25	55571.63
682.44	56091.82
682.63	56446.11
682.82	55768.24
683.01	56167.59
683.20	55764.14
683.39	56024.23
683.59	55604.40
683.78	55960.75
683.97	55977.13
684.16	56097.96
684.35	55999.66
684.54	56179.88
684.73	55760.05
684.92	55588.02
685.11	55493.81
685.30	56001.71
685.49	55753.90
685.69	56112.30
685.88	55870.64
686.07	55608.50
686.26	55260.34
686.45	55702.70
686.64	55612.59
686.83	55882.92
687.02	55784.62
687.21	55559.34
687.40	55970.99
687.59	55616.69
687.78	55858.35
687.97	56022.19
688.16	55735.47
688.35	55919.79
688.54	55514.29
688.74	55696.56
688.93	55798.96
689.12	55452.85
689.31	55686.32
689.50	55563.44
689.69	55653.55
689.88	54828.22
690.07	55467.19
690.26	55159.99
690.45	55760.05
690.64	55534.77
690.83	55051.45
691.02	55129.27
691.21	55065.78
691.40	55157.94
691.59	55284.92
691.78	55370.93
691.97	55499.95
692.16	55243.96
692.35	55467.19
692.54	55487.67
692.73	55147.70
692.92	54772.92
693.11	55096.50
693.30	54891.71
693.49	54889.66
693.68	54860.99
693.87	54858.94
694.06	54648.00
694.25	54437.06
694.44	54516.93
694.63	54672.57
694.82	54711.49
695.01	54736.06
695.20	54734.01
695.39	54965.43
695.58	54885.56
695.77	54301.89
695.96	54498.50
696.15	54432.96
696.34	54416.58
696.53	54650.05
696.72	54795.45
696.91	54213.83
697.10	55147.70
697.29	54473.92
697.48	54871.23
697.67	54260.93
697.86	54424.77
698.05	54000.84
698.24	54600.89
698.43	54039.75
698.62	54279.36
698.81	54273.22
699.00	54305.99
699.19	54281.41
699.38	54230.21
699.57	53908.68
699.76	54627.52
699.95	53779.66
700.14	53933.26
700.32	53728.46
700.51	54117.57
700.70	55010.49
700.89	54369.47
701.08	54326.47
701.27	53787.85
701.46	54627.52
701.65	53519.57
701.84	53818.57
702.03	53583.05
702.22	53914.83
702.41	53660.88
702.60	53802.19
702.79	53437.65
702.98	53572.81
703.17	53744.84
703.35	53234.90
703.54	53621.97
703.73	53841.10
703.92	53673.16
704.11	53681.36
704.30	53544.14
704.49	53466.32
704.68	53408.98
704.87	53261.52
705.06	53699.79
705.25	53116.12
705.43	53413.07
705.62	53441.74
705.81	53390.55
706.00	53343.44
706.19	53003.48
706.38	53339.35
706.57	53404.88
706.76	53150.93
706.95	53150.93
707.14	53056.73
707.32	53007.58
707.51	52997.34
707.70	52755.68
707.89	53482.70
708.08	53130.45
708.27	53400.79
708.46	53310.67
708.65	53253.33
708.84	53011.67
709.02	52995.29
709.21	53220.56
709.40	53019.86
709.59	52868.31
709.78	52507.87
709.97	53419.22
710.16	52575.45
710.34	52931.80
710.53	52753.63
710.72	52622.56
710.91	53040.34
711.10	52903.13
711.29	53081.30
711.48	52298.98
711.66	52864.22
711.85	52413.66
712.04	52245.73
712.23	52696.28
712.42	52434.14
712.61	52141.28
712.80	52737.24
712.98	52305.12
713.17	52290.79
713.36	52264.16
713.55	52131.04
713.74	52430.05
713.93	52286.69
714.11	52145.38
714.30	51885.29
714.49	51766.51
714.68	52387.04
714.87	52092.13
715.06	52085.99
715.24	51590.38
715.43	51928.30
715.62	51457.26
715.81	51844.33
716.00	52008.17
716.18	51977.45
716.37	51676.40
716.56	51297.52
716.75	51780.84
716.94	51461.36
717.12	51229.94
717.31	51801.32
717.50	51610.86
717.69	51535.09
717.88	51225.84
718.06	51610.86
718.25	51995.88
718.44	51123.44
718.63	51246.32
718.82	51066.10
719.00	51090.68
719.19	50849.02
719.38	50785.53
719.57	50793.72
719.76	50418.94
719.94	50597.12
720.13	50601.21
720.32	50560.25
720.51	50574.59
720.69	50812.15
720.88	50529.53
721.07	50431.23
721.26	50576.64
721.44	50681.08
721.63	50154.75
721.82	49779.98
722.01	49898.76
722.20	50476.29
722.38	50007.30
722.57	50023.68
722.76	50361.60
722.95	50150.66
723.13	49585.42
723.32	49890.57
723.51	49642.76
723.70	49476.88
723.88	49923.33
724.07	49517.84
724.26	49863.94
724.44	49454.35
724.63	50074.88
724.82	49648.91
725.01	49390.86
725.19	49462.54
725.38	49370.38
725.57	49736.97
725.76	49732.87
725.94	49042.71
726.13	48981.27
726.32	49177.87
726.51	49030.42
726.69	49505.55
726.88	49435.92
727.07	49292.56
727.25	49138.96
727.44	49509.64
727.63	49126.67
727.82	48911.64
728.00	48956.69
728.19	48600.35
728.38	49243.41
728.56	48712.98
728.75	49202.45
728.94	49251.60
729.12	49001.75
729.31	49218.83
729.50	49143.06
729.69	48530.72
729.87	48739.61
730.06	48723.22
730.25	49575.18
730.43	48936.21
730.62	48878.87
730.81	48919.83
730.99	49102.10
731.18	48651.55
731.37	48747.80
731.55	49067.28
731.74	49143.06
731.93	49605.90
732.11	49100.05
732.30	49288.46
732.49	48934.17
732.67	48586.01
732.86	48684.31
733.05	48860.44
733.23	48684.31
733.42	48563.48
733.61	48463.13
733.79	48921.88
733.98	48895.25
734.17	48964.88
734.35	48903.45
734.54	48555.29
734.73	48817.43
734.91	48866.58
735.10	48428.32
735.29	48665.88
735.47	48426.27
735.66	48438.56
735.84	48993.56
736.03	48405.79
736.22	48928.02
736.40	48604.44
736.59	49044.76
736.78	48461.08
736.96	48174.37
737.15	48622.87
737.33	48151.84
737.52	48252.19
737.71	48334.11
737.89	48436.51
738.08	47785.25
738.27	48080.16
738.45	48524.57
738.64	48278.82
738.82	48459.04
739.01	48125.22
739.20	47981.86
739.38	48205.09
739.57	48168.22
739.75	48112.93
739.94	48321.82
740.13	48033.06
740.31	48041.25
740.50	47947.04
740.68	47940.90
740.87	48090.40
741.06	48135.46
741.24	47787.30
741.43	47795.49
741.61	47967.52
741.80	48045.35
741.99	47711.53
742.17	47953.19
742.36	47281.45
742.54	47537.45
742.73	47805.73
742.91	47891.75
743.10	47609.13
743.29	47701.29
743.47	47838.50
743.66	47703.34
743.84	47629.61
744.03	47756.58
744.21	47559.98
744.40	48065.83
744.59	47332.65
744.77	46966.07
744.96	47035.70
745.14	47306.03
745.33	47555.88
745.51	47373.61
745.70	47537.45
745.88	47166.77
746.07	46886.20
746.26	47695.14
746.44	47355.18
746.63	47039.79
746.81	47271.21
747.00	47029.55
747.18	47015.22
747.37	47031.60
747.55	47189.30
747.74	47101.23
747.92	46703.93
748.11	46708.02
748.29	47240.50
748.48	46579.00
748.66	46802.23
748.85	46861.62
749.03	46646.58
749.22	46576.95
749.41	46517.56
749.59	46869.81
749.78	46339.39
749.96	45725.00
750.15	46089.54
750.33	46552.38
750.52	46337.34
750.70	46339.39
750.89	46198.08
751.07	46011.71
751.26	46449.98
751.44	46105.92
751.63	46220.61
751.81	46157.12
752.00	45770.05
752.18	46527.80
752.37	46153.02
752.55	45882.69
752.74	45851.97
752.92	45907.27
753.10	45725.00
753.29	46028.10
753.47	45612.36
753.66	45598.02
753.84	45940.04
754.03	45507.91
754.21	45274.45
754.40	45696.33
754.58	46060.87
754.77	45421.90
754.95	45253.97
755.14	45034.83
755.32	45526.35
755.51	45235.53
755.69	45043.02
755.88	44877.14
756.06	45284.68
756.24	45280.59
756.43	44881.24
756.61	44748.12
756.80	44954.96
756.98	44969.30
757.17	45161.81
757.35	45131.09
757.54	44784.98
757.72	44875.09
757.90	44832.08
758.09	44545.37
758.27	44615.00
758.46	44418.39
758.64	44670.29
758.83	45129.04
759.01	44717.40
759.19	45086.03
759.38	44422.49
759.56	45079.89
759.75	44864.85
759.93	44621.14
760.12	44463.45
760.30	44447.07
760.48	44461.40
760.67	44221.79
760.85	44143.97
761.04	44502.36
761.22	44246.36
761.40	44539.22
761.59	43949.41
761.77	44135.77
761.96	44322.14
762.14	43869.54
762.32	43384.17
762.51	43806.05
762.69	44160.35
762.88	43816.29
763.06	44174.69
763.24	44010.85
763.43	43791.72
763.61	43763.04
763.80	43769.19
763.98	43418.99
764.16	43607.40
764.35	43384.17
764.53	43275.63
764.72	43300.20
764.90	43642.21
765.08	43265.39
765.27	43627.88
765.45	43341.16
765.63	42777.97
765.82	43390.31
766.00	42947.95
766.18	42818.93
766.37	43230.57
766.55	42837.36
766.74	42847.60
766.92	42800.50
767.10	43085.17
767.29	42763.64
767.47	42423.67
767.65	42966.38
767.84	42663.28
768.02	42915.19
768.20	42585.46
768.39	42292.60
768.57	42427.77
768.75	42382.71
768.94	42716.53
769.12	42605.94
769.30	41811.33
769.49	42153.34
769.67	42331.51
769.85	42210.68
770.04	41874.82
770.22	41999.74
770.40	41926.02
770.59	41432.46
770.77	41684.36
770.95	41766.27
771.14	41842.05
771.32	41377.16
771.50	41530.76
771.69	41670.02
771.87	41887.10
772.05	41610.63
772.24	41139.60
772.42	41549.19
772.60	41123.21
772.78	41559.43
772.97	41184.65
773.15	41528.71
773.33	41080.21
773.52	41014.67
773.70	40981.90
773.88	41201.04
774.07	41020.81
774.25	41072.01
774.43	41500.04
774.61	41080.21
774.80	41491.85
774.98	41110.92
775.16	41209.23
775.34	40922.51
775.53	41051.53
775.71	41260.43
775.89	41252.23
776.08	41407.88
776.26	41248.14
776.44	40889.74
776.62	40934.80
776.81	41213.32
776.99	41325.96
777.17	41299.34
777.35	41321.87
777.54	41616.77
777.72	41008.53
777.90	41268.62
778.08	41559.43
778.27	41405.83
778.45	41602.44
778.63	41809.28
778.81	41338.25
779.00	42001.79
779.18	41371.02
779.36	41846.15
779.54	41336.20
779.73	41721.22
779.91	42038.65
780.09	41629.06
780.27	41887.10
780.46	41938.30
780.64	41753.99
780.82	41665.92
781.00	41563.53
781.19	41846.15
781.37	42192.25
781.55	41721.22
781.73	41997.70
781.91	41723.27
782.10	41944.45
782.28	42190.20
782.46	41741.70
782.64	42220.92
782.82	41622.92
783.01	41966.98
783.19	41864.58
783.37	42335.61
783.55	42155.39
783.74	42126.72
783.92	41438.60
784.10	42501.50
784.28	42243.45
784.46	42057.09
784.64	41753.99
784.83	42325.37
785.01	42337.66
785.19	42073.47
785.37	42073.47
785.55	42061.18
785.74	41801.09
785.92	41551.24
786.10	41698.69
786.28	41706.88
786.46	41485.70
786.64	41260.43
786.83	41684.36
787.01	41682.31
787.19	41878.91
787.37	41604.49
787.55	41698.69
787.74	41430.41
787.92	41682.31
788.10	41172.36
788.28	41231.75
788.46	41670.02
788.64	41235.85
788.82	41491.85
789.01	41106.83
789.19	41457.03
789.37	41006.48
789.55	41276.81
789.73	40748.43
789.91	40607.12
790.09	40629.65
790.28	40426.90
790.46	40414.62
790.64	40666.52
790.82	40336.79
791.00	40402.33
791.18	40512.92
791.36	40347.03
791.55	40320.41
791.73	40371.61
791.91	40025.50
792.09	40209.82
792.27	40138.14
792.45	40127.90
792.63	39970.21
792.81	39730.59
793.00	39746.98
793.18	39712.16
793.36	39785.89
793.54	39607.72
793.72	39589.28
793.90	39230.89
794.08	39359.91
794.26	39243.18
794.44	38778.29
794.62	39114.16
794.81	38849.97
794.99	39093.68
795.17	39165.35
795.35	38915.50
795.53	38952.37
795.71	38686.13
795.89	38520.24
796.07	38401.46
796.25	38124.99
796.43	38481.33
796.61	37969.34
796.80	37922.24
796.98	37871.04
797.16	37789.12
797.34	37598.66
797.52	37877.18
797.70	37918.14
797.88	37688.77
798.06	37195.21
798.24	37823.93
798.42	37502.40
798.60	37295.56
798.78	37213.64
798.96	37404.10
799.14	37113.29
799.32	37135.82
799.51	36693.46
799.69	36730.32
799.87	37103.05
800.05	36396.50
800.23	36777.42
800.41	36470.23
800.59	36490.71
800.77	36263.38
800.95	35974.62
801.13	36146.65
801.31	36095.45
801.49	36249.05
801.67	36105.69
801.85	35882.46
802.03	35755.49
802.21	35630.56
802.39	35479.01
802.57	35347.94
802.75	35536.35
802.93	35321.32
803.11	35558.88
803.29	34926.06
803.47	35093.99
803.65	35116.52
803.83	34956.78
804.01	35003.88
804.19	34792.94
804.37	34663.92
804.55	34600.43
804.73	34487.79
804.91	34657.78
805.09	34700.78
805.27	34328.05
805.45	34414.07
805.63	34688.49
805.81	34754.03
805.99	34663.92
806.17	34631.15
806.35	33938.94
806.53	34063.86
806.71	33746.43
806.89	33752.57
807.07	33613.31
807.25	33775.10
807.43	33523.20
807.61	33768.96
807.79	33748.48
807.97	33611.26
808.15	33093.13
808.33	33238.53
808.51	33056.26
808.69	33373.70
808.87	32921.10
809.05	32986.63
809.23	32607.76
809.41	32661.01
809.59	32894.47
809.77	32996.87
809.95	32304.66
810.13	33021.45
810.31	32376.34
810.49	32536.08
810.67	32429.59
810.84	32392.72
811.02	32222.74
811.20	32069.14
811.38	32458.26
811.56	32228.88
811.74	32132.63
811.92	31993.37
812.10	32030.23
812.28	31866.39
812.46	31766.04
812.64	31845.91
812.82	31944.22
813.00	31723.04
813.18	31551.01
813.36	31491.62
813.53	31061.54
813.71	31295.01
813.89	31272.48
814.07	31067.69
814.25	31485.47
814.43	31026.73
814.61	30897.70
814.79	30891.56
814.97	30758.44
815.15	30559.79
815.33	30864.94
815.50	30520.88
815.68	30961.19
815.86	30567.98
816.04	30805.55
816.22	30455.34
816.40	30623.28
816.58	30836.27
816.76	30359.09
816.94	30365.23
817.11	30301.75
817.29	30099.00
817.47	30201.40
817.65	30289.46
817.83	30455.34
818.01	30236.21
818.19	30025.27
818.37	30174.77
818.54	29965.88
818.72	30019.13
818.90	29996.60
819.08	29822.52
819.26	29664.83
819.44	29638.20
819.62	29824.57
819.80	29769.27
819.97	29433.41
820.15	29519.42
820.33	29193.79
820.51	29548.09
820.69	29105.73
820.87	29425.22
821.05	29523.52
821.22	29218.37
821.40	28989.00
821.58	28927.56
821.76	29238.85
821.94	29185.60
822.12	28745.29
822.29	29011.53
822.47	28730.95
822.65	28989.00
822.83	29199.94
823.01	28872.26
823.19	28778.06
823.36	28481.10
823.54	28526.16
823.72	28722.76
823.90	28405.33
824.08	28520.01
824.25	28382.80
824.43	28110.42
824.61	28378.70
824.79	28425.81
824.97	28307.02
825.15	28485.20
825.32	27958.87
825.50	27962.97
825.68	28077.65
825.86	28079.70
826.04	28350.03
826.21	28077.65
826.39	27985.49
826.57	28120.66
826.75	27956.82
826.93	27823.70
827.10	27545.18
827.28	27575.90
827.46	27612.76
827.64	27612.76
827.81	27252.32
827.99	27823.70
828.17	27123.30
828.35	27358.81
828.53	27375.20
828.70	27371.10
828.88	27524.70
829.06	27393.63
829.24	27332.19
829.41	27299.42
829.59	27252.32
829.77	27170.40
829.95	27031.14
830.12	27278.94
830.30	27235.94
830.48	26957.41
830.66	27231.84
830.84	26930.79
831.01	26865.25
831.19	26938.98
831.37	27051.62
831.55	26470.00
831.72	26951.27
831.90	27006.56
832.08	26654.31
832.25	26375.79
832.43	26576.49
832.61	26318.45
832.79	26429.04
832.96	26273.39
833.14	26465.90
833.32	26848.87
833.50	26508.91
833.67	26639.98
833.85	26510.96
834.03	25851.51
834.20	26377.84
834.38	26429.04
834.56	26211.95
834.74	26068.59
834.91	26498.67
835.09	25900.66
835.27	25980.53
835.44	26140.27
835.62	25460.35
835.80	25894.52
835.98	25976.44
836.15	25808.50
836.33	25704.06
836.51	25796.21
836.68	26025.59
836.86	25747.06
837.04	25720.44
837.21	25423.48
837.39	25745.02
837.57	25638.52
837.75	25615.99
837.92	25695.86
838.10	25538.17
838.28	25101.95
838.45	25689.72
838.63	25433.72
838.81	25685.62
838.98	25067.14
839.16	25095.81
839.34	25190.02
839.51	25122.43
839.69	25065.09
839.87	25020.03
840.04	24917.64
840.22	25079.43
840.40	24749.70
840.57	24714.89
840.75	25251.45
840.93	24757.89
841.10	24891.01
841.28	25101.95
841.46	24811.14
841.63	24993.41
841.81	24454.79
841.98	24827.53
842.16	24786.57
842.34	24776.33
842.51	24360.59
842.69	24825.48
842.87	24534.67
843.04	24569.48
843.22	24368.78
843.40	24663.69
843.57	24419.98
843.75	24385.16
843.92	24311.44
844.10	24348.30
844.28	24553.10
844.45	24395.40
844.63	24469.13
844.81	24262.29
844.98	24303.25
845.16	24055.44
845.33	24247.95
845.51	24084.11
845.69	24235.66
845.86	24010.39
846.04	23907.99
846.21	24034.96
846.39	24026.77
846.57	23828.12
846.74	23957.14
846.92	23807.64
847.09	23672.47
847.27	23729.81
847.45	24086.16
847.62	24049.30
847.80	23731.86
847.97	23695.00
848.15	23608.98
848.32	23676.57
848.50	23570.07
848.68	23479.96
848.85	23482.01
849.03	23148.19
849.20	23592.60
849.38	23475.87
849.56	23635.61
849.73	23199.39
849.91	23549.59
850.08	23684.76
850.26	23101.09
850.43	23273.12
850.61	23180.96
850.78	22634.15
850.96	23123.62
851.14	22982.31
851.31	23010.98
851.49	23187.10
851.66	23416.47
851.84	23051.94
852.01	23072.42
852.19	23219.87
852.36	22896.29
852.54	22898.34
852.71	23027.36
852.89	23037.60
853.07	22902.43
853.24	22767.27
853.42	22810.28
853.59	23015.07
853.77	22900.39
853.94	22750.88
854.12	22816.42
854.29	22415.02
854.47	22757.03
854.64	22597.29
854.82	22726.31
854.99	22822.56
855.17	22759.08
855.34	22476.46
855.52	22472.36
855.69	22767.27
855.87	22171.31
856.04	22263.47
856.22	22265.52
856.39	22175.41
856.57	22544.04
856.74	22523.56
856.92	22326.96
857.09	22075.06
857.27	22275.76
857.44	22345.39
857.62	22245.04
857.79	22142.64
857.97	21952.18
858.14	22189.74
858.32	21917.36
858.49	21890.74
858.67	21952.18
858.84	21767.86
859.02	21624.50
859.19	21890.74
859.37	21651.13
859.54	21810.87
859.72	21821.11
859.89	21898.93
860.06	21960.37
860.24	21636.79
860.41	21776.05
860.59	21626.55
860.76	21575.35
860.94	21497.53
861.11	21642.93
861.29	21827.25
861.46	21667.51
861.64	21386.94
861.81	21003.97
861.98	21511.86
862.16	21581.49
862.33	21102.27
862.51	21176.00
862.68	21546.68
862.86	21401.27
863.03	21208.76
863.21	21094.08
863.38	20987.58
863.55	21151.42
863.73	21184.19
863.90	20934.34
864.08	20946.62
864.25	21071.55
864.43	21014.21
864.60	21089.98
864.77	20831.94
864.95	20928.19
865.12	20592.33
865.30	20866.75
865.47	20668.10
865.64	20651.72
865.82	20864.71
865.99	20872.90
866.17	20657.86
866.34	20668.10
866.51	20616.90
866.69	20682.44
866.86	20741.83
867.04	20565.70
867.21	20469.45
867.38	20461.26
867.56	20197.07
867.73	20647.62
867.91	20154.06
868.08	20688.58
868.25	20283.08
868.43	20213.45
868.60	20319.95
868.78	19826.39
868.95	20491.98
869.12	20195.02
869.30	20121.29
869.47	20129.48
869.64	19934.93
869.82	19986.13
869.99	20078.29
870.16	20309.71
870.34	20369.10
870.51	20025.04
870.69	19617.49
870.86	19906.26
871.03	19922.64
871.21	19920.59
871.38	19789.52
871.55	19680.98
871.73	19625.68
871.90	19775.19
872.07	19255.00
872.25	19447.51
872.42	19660.50
872.59	19314.39
872.77	19298.01
872.94	19508.95
873.11	19285.72
873.29	19283.67
873.46	19152.60
873.63	19298.01
873.81	19228.38
873.98	19113.69
874.15	19074.78
874.33	18956.00
874.50	18865.89
874.67	19044.06
874.85	18908.90
875.02	19031.77
875.19	18638.56
875.37	18826.98
875.54	18548.45
875.71	18933.47
875.88	18597.60
876.06	18691.81
876.23	18841.31
876.40	18611.94
876.58	18511.59
876.75	18585.32
876.92	18360.04
877.10	18413.29
877.27	18398.95
877.44	18175.72
877.61	18087.66
877.79	18237.16
877.96	18271.98
878.13	17999.60
878.31	18233.07
878.48	18095.85
878.65	18200.30
878.82	17895.15
879.00	17960.69
879.17	18161.39
879.34	18142.96
879.51	17860.34
879.69	17975.02
879.86	17952.49
880.03	17987.31
880.21	17821.42
880.38	17907.44
880.55	17825.52
880.72	17952.49
880.90	17647.35
881.07	17843.95
881.24	17542.90
881.41	17864.43
881.59	17747.70
881.76	17604.34
881.93	17448.69
882.10	17745.65
882.28	17741.55
882.45	17596.15
882.62	17530.61
882.79	17643.25
882.96	17096.44
883.14	17356.54
883.31	17385.21
883.48	17520.37
883.65	17590.00
883.83	17186.55
884.00	17325.82
884.17	17280.76
884.34	17168.12
884.51	17319.67
884.69	16926.46
884.86	17153.79
885.03	17143.55
885.20	16836.35
885.38	17254.14
885.55	17067.77
885.72	17229.56
885.89	17049.34
886.06	17114.87
886.24	16883.45
886.41	16977.66
886.58	17172.22
886.75	17225.47
886.92	16969.47
887.10	16992.00
887.27	16623.36
887.44	16703.23
887.61	16971.52
887.78	16867.07
887.95	17018.62
888.13	16817.92
888.30	16609.03
888.47	16701.19
888.64	16750.34
888.81	16731.90
888.99	16690.95
889.16	16310.02
889.33	16568.07
889.50	16461.57
889.67	16604.93
889.84	16486.15
890.01	16398.09
890.19	16668.42
890.36	16416.52
890.53	16158.47
890.70	16301.83
890.87	16152.33
891.04	16383.75
891.22	16297.74
891.39	16144.14
891.56	15992.59
891.73	16181.00
891.90	16033.55
892.07	15882.00
892.24	16191.24
892.42	16199.43
892.59	15845.13
892.76	15556.37
892.93	15763.22
893.10	15990.54
893.27	15869.71
893.44	15736.59
893.61	15859.47
893.79	16156.43
893.96	15795.98
894.13	15834.89
894.30	15871.76
894.47	15769.36
894.64	16037.64
894.81	15906.57
894.98	15789.84
895.15	15955.72
895.33	15851.28
895.50	15838.99
895.67	15740.69
895.84	16146.19
896.01	15808.27
896.18	15511.32
896.35	15734.54
896.52	15662.86
896.69	15709.97
896.86	15460.12
897.04	15888.14
897.21	15591.19
897.38	15486.74
897.55	15693.58
897.72	15595.28
897.89	15675.15
898.06	15554.32
898.23	15755.02
898.40	15570.71
898.57	15582.99
898.74	15902.48
898.91	15787.79
899.08	15787.79
899.26	15496.98
899.43	15746.83
899.60	15605.52
899.77	15658.77
899.94	15576.85
900.11	15347.48
900.28	15716.11
900.45	15539.99
900.62	15507.22
900.79	15752.98
900.96	15453.97
901.13	15390.49
901.30	15443.73
901.47	15324.95
901.64	15445.78
901.81	15666.96
901.98	15171.35
902.15	15642.39
902.32	15415.06
902.49	15386.39
902.66	15476.50
902.83	15480.60
903.01	15529.75
903.18	15578.90
903.35	15494.93
903.52	15480.60
903.69	15734.54
903.86	15503.12
904.03	15517.46
904.20	15697.68
904.37	15736.59
904.54	15351.57
904.71	15294.23
904.88	15380.25
905.05	15374.10
905.22	15550.23
905.39	15206.17
905.56	15331.09
905.73	15494.93
905.90	15658.77
906.07	15374.10
906.24	15386.39
906.41	15378.20
906.58	15453.97
906.75	15511.32
906.92	15484.69
907.09	15208.22
907.26	15449.88
907.43	15277.85
907.60	15251.22
907.77	15462.16
907.93	15431.44
908.10	15449.88
908.27	15486.74
908.44	15292.18
908.61	15120.15
908.78	15327.00
908.95	15195.93
909.12	15140.63
909.29	15273.75
909.46	15482.64
909.63	15367.96
909.80	15503.12
909.97	15456.02
910.14	14987.04
910.31	15181.59
910.48	15290.13
910.65	15259.42
910.82	15118.11
910.99	15298.33
911.16	15128.35
911.33	15046.43
911.50	15298.33
911.66	14905.12
911.83	15304.47
912.00	14886.68
912.17	14806.81
912.34	15023.90
912.51	15001.37
912.68	14872.35
912.85	15005.47
913.02	14958.36
913.19	14946.08
913.36	15013.66
913.53	14804.77
913.70	14876.44
913.86	14829.34
914.03	14948.12
914.20	14671.65
914.37	14591.78
914.54	14608.16
914.71	14733.09
914.88	14663.46
915.05	14757.66
915.22	14577.44
915.39	14602.02
915.55	14573.35
915.72	14614.30
915.89	14407.46
916.06	14423.84
916.23	14376.74
916.40	14409.51
916.57	14266.15
916.74	14364.45
916.91	14120.74
917.07	14135.08
917.24	13995.82
917.41	14124.84
917.58	14079.79
917.75	14143.27
917.92	13815.60
918.09	14116.65
918.26	13834.03
918.42	14001.96
918.59	13930.28
918.76	13608.75
918.93	13686.58
919.10	13764.40
919.27	13553.46
919.44	13807.41
919.60	13578.03
919.77	13684.53
919.94	13406.00
920.11	13539.12
920.28	13430.58
920.45	13135.67
920.61	13383.48
920.78	13231.93
920.95	13338.42
921.12	13289.27
921.29	13254.45
921.46	13182.77
921.62	13008.70
921.79	13158.20
921.96	13006.65
922.13	13086.52
922.30	13072.18
922.47	13029.18
922.63	12760.89
922.80	12664.64
922.97	12724.03
923.14	12691.26
923.31	12730.17
923.47	12416.83
923.64	12834.62
923.81	12502.85
923.98	12529.47
924.15	12347.20
924.32	12443.46
924.48	12543.81
924.65	12414.79
924.82	12111.69
924.99	12375.88
925.15	11900.75
925.32	12128.07
925.49	12060.49
925.66	12011.34
925.83	11896.65
925.99	11859.79
926.16	11968.33
926.33	11849.55
926.50	11685.71
926.67	11939.66
926.83	11788.11
927.00	11603.79
927.17	11575.12
927.34	11411.28
927.50	11525.97
927.67	11681.61
927.84	11439.95
928.01	11476.82
928.17	11341.65
928.34	11351.89
928.51	11194.20
928.68	11145.05
928.84	11175.77
929.01	11132.76
929.18	11089.75
929.35	11065.18
929.51	10979.16
929.68	10827.61
929.85	10800.99
930.02	10698.59
930.18	10809.18
930.35	10846.04
930.52	10774.36
930.69	10600.29
930.85	10657.63
931.02	10561.37
931.19	10825.56
931.36	10420.06
931.52	10608.48
931.69	10501.98
931.86	10366.82
932.02	10184.55
932.19	10278.76
932.36	10137.45
932.53	10278.76
932.69	10030.95
932.86	10137.45
933.03	9899.88
933.19	10022.76
933.36	9957.22
933.53	10100.58
933.70	9729.90
933.86	9738.09
934.03	9740.14
934.20	9455.47
934.36	9789.29
934.53	9482.10
934.70	9299.83
934.86	9633.64
935.03	9437.04
935.20	9277.30
935.36	9203.57
935.53	8955.77
935.70	9097.08
935.86	9045.88
936.03	8888.18
936.20	8597.37
936.36	8718.20
936.53	8734.59
936.70	8726.39
936.86	8742.78
937.03	8591.23
937.20	8447.87
937.36	8458.11
937.53	8099.72
937.70	8175.49
937.86	8118.15
938.03	7993.22
938.20	8042.37
938.36	7815.05
938.53	7884.68
938.70	7692.17
938.86	7792.52
939.03	7544.72
939.20	7413.65
939.36	7421.84
939.53	7141.27
939.70	7530.38
939.86	7165.84
940.03	7020.44
940.19	6879.13
940.36	7083.92
940.53	6971.29
940.69	6737.82
940.86	6752.15
941.03	6573.98
941.19	6565.79
941.36	6506.40
941.52	6500.25
941.69	6375.33
941.86	6379.42
942.02	6242.21
942.19	6299.55
942.35	6231.97
942.52	6141.86
942.69	6135.71
942.85	6066.08
943.02	5930.92
943.18	5996.45
943.35	5863.33
943.52	5816.23
943.68	5771.18
943.85	5906.34
944.01	5758.89
944.18	5654.44
944.35	5861.29
944.51	5562.28
944.68	5564.33
944.84	5599.15
945.01	5496.75
945.17	5451.69
945.34	5506.99
945.51	5627.82
945.67	5580.71
945.84	5392.30
946.00	5347.25
946.17	5570.48
946.33	5451.69
946.50	5402.54
946.67	5504.94
946.83	5371.82
947.00	5560.24
947.16	5371.82
947.33	5486.51
947.49	5457.84
947.66	5361.58
947.82	5547.95
947.99	5318.57
948.16	5302.19
948.32	5210.03
948.49	5443.50
948.65	5472.17
948.82	5427.12
948.98	5267.38
949.15	5224.37
949.31	5466.03
949.48	5476.27
949.64	5363.63
949.81	5398.45
949.97	5429.17
950.14	5351.34
950.30	5326.77
950.47	5564.33
950.63	5410.73
950.80	5418.93
950.96	5388.21
951.13	5519.28
951.30	5457.84
951.46	5394.35
951.63	5455.79
951.79	5482.41
951.96	5435.31
952.12	5492.65
952.29	5513.13
952.45	5375.92
952.62	5435.31
952.78	5554.09
952.94	5466.03
953.11	5515.18
953.27	5302.19
953.44	5615.53
953.60	5543.85
953.77	5566.38
953.93	5525.42
954.10	5513.13
954.26	5408.69
954.43	5562.28
954.59	5482.41
954.76	5703.59
954.92	5427.12
955.09	5572.52
955.25	5371.82
955.42	5425.07
955.58	5654.44
955.75	5441.45
955.91	5343.15
956.07	5590.95
956.24	5640.11
956.40	5513.13
956.57	5701.54
956.73	5502.89
956.90	5597.10
957.06	5472.17
957.23	5455.79
957.39	5349.29
957.56	5576.62
957.72	5472.17
957.88	5511.08
958.05	5492.65
958.21	5527.47
958.38	5586.86
958.54	5459.88
958.71	5646.25
958.87	5351.34
959.03	5515.18
959.20	5539.76
959.36	5511.08
959.53	5574.57
959.69	5455.79
959.85	5631.91
960.02	5423.02
960.18	5478.32
960.35	5472.17
960.51	5609.39
960.68	5441.45
960.84	5461.93
961.00	5449.64
961.17	5416.88
961.33	5603.24
961.50	5517.23
961.66	5615.53
961.82	5437.36
961.99	5484.46
962.15	5498.80
962.31	5365.68
962.48	5449.64
962.64	5627.82
962.81	5535.66
962.97	5429.17
963.13	5533.61
963.30	5529.52
963.46	5418.93
963.62	5412.78
963.79	5472.17
963.95	5484.46
964.12	5435.31
964.28	5408.69
964.44	5496.75
964.61	5367.73
964.77	5482.41
964.93	5482.41
965.10	5474.22
965.26	5294.00
965.42	5431.21
965.59	5427.12
965.75	5324.72
965.92	5373.87
966.08	5363.63
966.24	5427.12
966.41	5324.72
966.57	5425.07
966.73	5326.77
966.90	5361.58
967.06	5375.92
967.22	5279.66
967.39	5334.96
967.55	5353.39
967.71	5328.81
967.88	5146.55
968.04	5228.46
968.20	5326.77
968.37	5210.03
968.53	5187.50
968.69	5255.09
968.85	5261.23
969.02	5187.50
969.18	5369.77
969.34	5242.80
969.51	5294.00
969.67	5220.27
969.83	5128.11
970.00	5226.42
970.16	5242.80
970.32	5060.53
970.48	5134.26
970.65	5066.67
970.81	5074.87
970.97	5091.25
971.14	4802.49
971.30	5128.11
971.46	5019.57
971.63	4966.32
971.79	5162.93
971.95	5046.20
972.11	4878.26
972.28	5013.43
972.44	5013.43
972.60	4913.08
972.76	5060.53
972.93	4880.31
973.09	5007.28
973.25	4917.17
973.42	4804.53
973.58	4929.46
973.74	5048.24
973.90	4818.87
974.07	4888.50
974.23	4943.80
974.39	4876.21
974.55	4859.83
974.72	4704.18
974.88	4784.06
975.04	4872.12
975.20	4771.77
975.37	4831.16
975.53	4730.81
975.69	4859.83
975.85	4693.94
976.01	4722.62
976.18	4798.39
976.34	4745.14
976.50	4769.72
976.66	4837.30
976.83	4779.96
976.99	4693.94
977.15	4741.05
977.31	4685.75
977.47	4587.45
977.64	4679.61
977.80	4743.10
977.96	4734.90
978.12	4648.89
978.29	4614.07
978.45	4538.30
978.61	4564.92
978.77	4702.14
978.93	4454.33
979.10	4505.53
979.26	4464.57
979.42	4460.48
979.58	4480.96
979.74	4554.68
979.91	4507.58
980.07	4464.57
980.23	4425.66
980.39	4378.56
980.55	4448.19
980.71	4456.38
980.88	4440.00
981.04	4429.76
981.20	4464.57
981.36	4487.10
981.52	4339.65
981.68	4298.69
981.85	4442.04
982.01	4343.74
982.17	4386.75
982.33	4370.37
982.49	4433.85
982.65	4214.72
982.82	4370.37
982.98	4308.93
983.14	4265.92
983.30	4540.35
983.46	4231.10
983.62	4358.08
983.79	4140.99
983.95	4429.76
984.11	4104.13
984.27	4112.32
984.43	4210.62
984.59	4231.10
984.75	4280.25
984.91	4083.65
985.08	4290.49
985.24	4042.69
985.40	4075.46
985.56	4153.28
985.72	4155.33
985.88	4214.72
986.04	4032.45
986.20	4014.02
986.37	4081.60
986.53	3983.30
986.69	4138.94
986.85	3997.64
987.01	4030.40
987.17	4065.22
987.33	3962.82
987.49	3925.96
987.65	4022.21
987.82	3977.16
987.98	3999.68
988.14	3993.54
988.30	4011.97
988.46	3915.72
988.62	3993.54
988.78	3829.70
988.94	3991.49
989.10	3903.43
989.26	3835.85
989.42	3880.90
989.59	3880.90
989.75	3747.78
989.91	3940.29
990.07	3739.59
990.23	3682.25
990.39	3696.58
990.55	3874.76
990.71	3794.89
990.87	3839.94
991.03	3889.09
991.19	3717.06
991.35	3839.94
991.51	3743.69
991.67	3942.34
991.83	3817.41
992.00	3647.43
992.16	3739.59
992.32	3688.39
992.48	3639.24
992.64	3510.22
992.80	3788.74
992.96	3737.54
993.12	3696.58
993.28	3710.92
993.44	3688.39
993.60	3647.43
993.76	3755.97
993.92	3669.96
994.08	3801.03
994.24	3602.38
994.40	3530.70
994.56	3710.92
994.72	3538.89
994.88	3518.41
995.04	3626.95
995.20	3495.88
995.36	3526.60
995.52	3616.71
995.68	3436.49
995.84	3536.84
996.00	3624.90
996.16	3487.69
996.32	3405.77
996.48	3368.91
996.64	3514.31
996.80	3469.26
996.96	3534.79
997.12	3403.72
997.28	3284.94
997.44	3401.68
997.60	3280.85
997.76	3391.44
997.92	3456.97
998.08	3360.72
998.24	3280.85
998.40	3383.24
998.56	3348.43
998.72	3258.32
998.88	3362.76
999.04	3227.60
999.20	3420.11
999.36	3358.67
999.52	3403.72
999.68	3317.71
999.84	3352.52
1000.00	3196.88
1000.16	3387.34
1000.32	3278.80
1000.48	3192.78
1000.64	3346.38
1000.80	3153.87
1000.95	3096.53
1001.11	3272.65
1001.27	3151.82
1001.43	3213.26
1001.59	3162.06
1001.75	3229.65
1001.91	3215.31
1002.07	3082.19
1002.23	3217.36
1002.39	3059.67
1002.55	3057.62
1002.71	3151.82
1002.87	3147.73
1003.03	3104.72
1003.19	3141.58
1003.34	3209.17
1003.50	3030.99
1003.66	3153.87
1003.82	3086.29
1003.98	3108.82
1004.14	3045.33
1004.30	3008.47
1004.46	2910.16
1004.62	3012.56
1004.78	3055.57
1004.94	3035.09
1005.09	3010.51
1005.25	3143.63
1005.41	2985.94
1005.57	3057.62
1005.73	2955.22
1005.89	2953.17
1006.05	2979.79
1006.21	3033.04
1006.37	2897.88
1006.52	2934.74
1006.68	2891.73
1006.84	3026.90
1007.00	2971.60
1007.16	3102.67
1007.32	2932.69
1007.48	2875.35
1007.64	2951.12
1007.79	2901.97
1007.95	2785.24
1008.11	2852.82
1008.27	2867.16
1008.43	2934.74
1008.59	2861.01
1008.75	2877.40
1008.91	2883.54
1009.06	2736.09
1009.22	2953.17
1009.38	2803.67
1009.54	2756.57
1009.70	2758.61
1009.86	2660.31
1010.01	2865.11
1010.17	2680.79
1010.33	2809.81
1010.49	2701.27
1010.65	2840.53
1010.81	2705.37
1010.96	2836.44
1011.12	2619.35
1011.28	2754.52
1011.44	2756.57
1011.60	2736.09
1011.76	2607.06
1011.91	2754.52
1012.07	2639.83
1012.23	2525.15
1012.39	2650.07
1012.55	2682.84
1012.71	2564.06
1012.86	2652.12
1013.02	2660.31
1013.18	2605.02
1013.34	2578.39
1013.50	2615.26
1013.65	2678.74
1013.81	2564.06
1013.97	2598.87
1014.13	2557.91
1014.29	2553.82
1014.44	2590.68
1014.60	2559.96
1014.76	2607.06
1014.92	2607.06
1015.07	2660.31
1015.23	2631.64
1015.39	2562.01
1015.55	2525.15
1015.71	2570.20
1015.86	2529.24
1016.02	2504.67
1016.18	2457.56
1016.34	2588.63
1016.49	2410.46
1016.65	2480.09
1016.81	2504.67
1016.97	2521.05
1017.12	2510.81
1017.28	2459.61
1017.44	2455.51
1017.60	2478.04
1017.75	2510.81
1017.91	2525.15
1018.07	2521.05
1018.23	2471.90
1018.38	2371.55
1018.54	2435.03
1018.70	2512.86
1018.86	2453.47
1019.01	2351.07
1019.17	2365.40
1019.33	2451.42
1019.49	2447.32
1019.64	2529.24
1019.80	2430.94
1019.96	2381.79
1020.12	2394.08
1020.27	2279.39
1020.43	2365.40
1020.59	2398.17
1020.74	2488.28
1020.90	2402.27
1021.06	2361.31
1021.22	2367.45
1021.37	2314.20
1021.53	2351.07
1021.69	2394.08
1021.84	2271.20
1022.00	2338.78
1022.16	2314.20
1022.31	2263.01
1022.47	2301.92
1022.63	2396.12
1022.79	2252.77
1022.94	2277.34
1023.10	2357.21
1023.26	2260.96
1023.41	2203.61
1023.57	2179.04
1023.73	2291.68
1023.88	2176.99
1024.04	2154.46
1024.20	2158.56
1024.35	2320.35
1024.51	2224.09
1024.67	2207.71
1024.82	2293.72
1024.98	2256.86
1025.14	2312.16
1025.29	2252.77
1025.45	2265.05
1025.61	2215.90
1025.76	2220.00
1025.92	2224.09
1026.08	2240.48
1026.23	2287.58
1026.39	2269.15
1026.55	2185.18
1026.70	2187.23
1026.86	2138.08
1027.02	2187.23
1027.17	2224.09
1027.33	2146.27
1027.48	2183.13
1027.64	2138.08
1027.80	2113.50
1027.95	2191.33
1028.11	2002.91
1028.27	2140.13
1028.42	2238.43
1028.58	2105.31
1028.73	2043.87
1028.89	2064.35
1029.05	2168.80
1029.20	2117.60
>>>>>End Processed Spectral Data<<<<<
