SpectraSuite Data File
++++++++++++++++++++++++++++++++++++
Date: Fri Jun 02 14:53:33 CEST 2017
User: INFO_000
Dark Spectrum Present: No
Reference Spectrum Present: No
Number of Sampled Component Spectra: 1
Spectrometers: USB4H00879
Integration Time (usec): 80000 (USB4H00879)
Spectra Averaged: 1 (USB4H00879)
Boxcar Smoothing: 0 (USB4H00879)
Correct for Electrical Dark: No (USB4H00879)
Strobe/Lamp Enabled: No (USB4H00879)
Correct for Detector Non-linearity: No (USB4H00879)
Correct for Stray Light: No (USB4H00879)
Number of Pixels in Processed Spectrum: 3648
>>>>>Begin Processed Spectral Data<<<<<
345.13	1265.64
345.34	1265.64
345.56	1265.64
345.78	1296.36
345.99	1257.45
346.21	1689.57
346.42	1683.43
346.64	1632.23
346.86	1751.01
347.07	1699.81
347.29	1728.49
347.50	1619.94
347.72	1771.49
347.94	1734.63
348.15	1630.18
348.37	1617.90
348.59	1732.58
348.80	1697.77
349.02	1757.16
349.23	1806.31
349.45	1832.93
349.67	1877.99
349.88	1787.88
350.10	1888.23
350.31	1888.23
350.53	1753.06
350.75	2025.44
350.96	1767.40
351.18	1861.60
351.39	1923.04
351.61	1824.74
351.82	1945.57
352.04	1902.56
352.26	1834.98
352.47	1920.99
352.69	1916.90
352.90	1769.44
353.12	1886.18
353.34	1841.12
353.55	1974.24
353.77	1941.47
353.98	1841.12
354.20	1794.02
354.41	1943.52
354.63	1949.67
354.85	2019.30
355.06	1939.43
355.28	1853.41
355.49	1880.04
355.71	1845.22
355.92	1912.80
356.14	1984.48
356.35	1845.22
356.57	1865.70
356.79	1931.23
357.00	1779.68
357.22	2002.91
357.43	1824.74
357.65	2019.30
357.86	1855.46
358.08	1937.38
358.29	1949.67
358.51	1974.24
358.72	1988.58
358.94	1984.48
359.16	1968.10
359.37	1968.10
359.59	1875.94
359.80	1978.34
360.02	2027.49
360.23	1906.66
360.45	2021.35
360.66	1994.72
360.88	1855.46
361.09	1925.09
361.31	2052.06
361.52	1935.33
361.74	1984.48
361.95	2060.26
362.17	2031.58
362.38	2060.26
362.60	2009.06
362.81	2033.63
363.03	1984.48
363.24	1947.62
363.46	2084.83
363.67	2031.58
363.89	2007.01
364.10	2101.22
364.32	1937.38
364.53	2084.83
364.75	1851.36
364.96	1980.39
365.18	1990.63
365.39	1992.67
365.61	1933.28
365.82	2045.92
366.04	1986.53
366.25	1974.24
366.47	2074.59
366.68	1959.91
366.90	1900.52
367.11	2127.84
367.33	2166.75
367.54	2062.30
367.76	2017.25
367.97	2078.69
368.19	2107.36
368.40	2142.18
368.62	2000.87
368.83	1943.52
369.05	2129.89
369.26	1984.48
369.48	1957.86
369.69	2009.06
369.91	2095.07
370.12	2035.68
370.33	2166.75
370.55	2007.01
370.76	2017.25
370.98	2090.98
371.19	2017.25
371.41	2027.49
371.62	2041.82
371.84	2084.83
372.05	2095.07
372.27	2054.11
372.48	2097.12
372.69	2119.65
372.91	2148.32
373.12	2191.33
373.34	2078.69
373.55	2172.89
373.77	2164.70
373.98	2146.27
374.20	2138.08
374.41	2240.48
374.62	2170.85
374.84	2158.56
375.05	2179.04
375.27	2197.47
375.48	2107.36
375.70	2170.85
375.91	2174.94
376.12	2277.34
376.34	2215.90
376.55	2209.76
376.77	2232.29
376.98	2213.85
377.19	2133.98
377.41	2072.54
377.62	2256.86
377.84	2267.10
378.05	2447.32
378.27	2295.77
378.48	2363.36
378.69	2389.98
378.91	2344.92
379.12	2285.53
379.34	2271.20
379.55	2269.15
379.76	2279.39
379.98	2285.53
380.19	2252.77
380.41	2330.59
380.62	2353.12
380.83	2299.87
381.05	2226.14
381.26	2453.47
381.47	2353.12
381.69	2273.25
381.90	2351.07
382.12	2312.16
382.33	2232.29
382.54	2273.25
382.76	2256.86
382.97	2363.36
383.19	2256.86
383.40	2461.66
383.61	2295.77
383.83	2301.92
384.04	2351.07
384.25	2400.22
384.47	2457.56
384.68	2377.69
384.89	2387.93
385.11	2351.07
385.32	2416.60
385.54	2365.40
385.75	2349.02
385.96	2445.27
386.18	2369.50
386.39	2441.18
386.60	2420.70
386.82	2400.22
387.03	2437.08
387.24	2467.80
387.46	2498.52
387.67	2480.09
387.88	2547.67
388.10	2551.77
388.31	2592.73
388.52	2500.57
388.74	2582.49
388.95	2426.84
389.16	2674.65
389.38	2514.91
389.59	2596.82
389.80	2648.02
390.02	2619.35
390.23	2641.88
390.44	2531.29
390.66	2600.92
390.87	2514.91
391.08	2611.16
391.30	2654.17
391.51	2627.54
391.72	2701.27
391.94	2619.35
392.15	2627.54
392.36	2699.22
392.58	2539.48
392.79	2680.79
393.00	2699.22
393.22	2709.46
393.43	2754.52
393.64	2871.25
393.85	2729.94
394.07	2723.80
394.28	2682.84
394.49	2811.86
394.71	2822.10
394.92	2826.20
395.13	2729.94
395.35	2693.08
395.56	2791.38
395.77	2762.71
395.98	2746.33
396.20	2875.35
396.41	2768.85
396.62	2818.00
396.84	2869.20
397.05	2795.48
397.26	2930.64
397.47	2932.69
397.69	2813.91
397.90	2987.99
398.11	2924.50
398.32	2856.92
398.54	2910.16
398.75	2906.07
398.96	2998.23
399.18	2951.12
399.39	2955.22
399.60	3037.14
399.81	2891.73
400.03	2904.02
400.24	3131.34
400.45	3002.32
400.66	3151.82
400.88	3018.71
401.09	3166.16
401.30	2908.12
401.51	3217.36
401.73	3065.81
401.94	3094.48
402.15	3196.88
402.36	3166.16
402.58	3164.11
402.79	3180.50
403.00	3145.68
403.21	3250.13
403.43	3170.26
403.64	3248.08
403.85	3059.67
404.06	3311.57
404.27	3039.19
404.49	3291.09
404.70	3272.65
404.91	3248.08
405.12	3295.18
405.34	3252.17
405.55	3424.20
405.76	3172.30
405.97	3266.51
406.19	3350.48
406.40	3256.27
406.61	3420.11
406.82	3293.13
407.03	3264.46
407.25	3258.32
407.46	3405.77
407.67	3370.96
407.88	3551.18
408.09	3311.57
408.31	3475.40
408.52	3364.81
408.73	3391.44
408.94	3385.29
409.15	3467.21
409.37	3483.59
409.58	3518.41
409.79	3469.26
410.00	3594.19
410.21	3461.07
410.43	3391.44
410.64	3495.88
410.85	3547.08
411.06	3497.93
411.27	3542.99
411.48	3659.72
411.70	3559.37
411.91	3540.94
412.12	3743.69
412.33	3612.62
412.54	3653.58
412.76	3778.50
412.97	3780.55
413.18	3588.04
413.39	3688.39
413.60	3624.90
413.81	3686.34
414.03	3737.54
414.24	3655.62
414.45	3915.72
414.66	3715.02
414.87	3819.46
415.08	3764.17
415.30	3780.55
415.51	3823.56
415.72	3747.78
415.93	3786.69
416.14	3866.56
416.35	3876.80
416.56	3903.43
416.78	3819.46
416.99	4046.79
417.20	3798.98
417.41	4014.02
417.62	3958.72
417.83	3973.06
418.04	3948.48
418.26	4030.40
418.47	3936.20
418.68	4020.16
418.89	3964.87
419.10	4020.16
419.31	4014.02
419.52	4188.10
419.73	4069.31
419.95	4110.27
420.16	4016.07
420.37	4177.86
420.58	4067.27
420.79	3909.57
421.00	4087.75
421.21	4198.34
421.42	4171.71
421.63	4202.43
421.85	4257.73
422.06	4249.54
422.27	4270.01
422.48	4231.10
422.69	4433.85
422.90	4413.37
423.11	4329.41
423.32	4409.28
423.53	4421.56
423.75	4388.80
423.96	4585.40
424.17	4607.93
424.38	4573.11
424.59	4483.00
424.80	4607.93
425.01	4603.83
425.22	4612.03
425.43	4440.00
425.64	4687.80
425.85	4734.90
426.06	4702.14
426.28	4630.46
426.49	4607.93
426.70	4601.79
426.91	4689.85
427.12	4736.95
427.33	4704.18
427.54	4704.18
427.75	4745.14
427.96	4913.08
428.17	4884.41
428.38	4986.80
428.59	4878.26
428.80	4827.06
429.01	4906.93
429.23	4904.89
429.44	5085.11
429.65	5029.81
429.86	5025.72
430.07	5025.72
430.28	4980.66
430.49	5103.54
430.70	5181.36
430.91	5269.42
431.12	5103.54
431.33	5263.28
431.54	5234.61
431.75	5214.13
431.96	5224.37
432.17	5205.94
432.38	5175.22
432.59	5468.08
432.80	5248.94
433.01	5324.72
433.22	5398.45
433.43	5420.97
433.64	5410.73
433.85	5322.67
434.06	5545.90
434.27	5388.21
434.49	5570.48
434.70	5576.62
434.91	5533.61
435.12	5562.28
435.33	5474.22
435.54	5490.60
435.75	5443.50
435.96	5451.69
436.17	5380.01
436.38	5705.64
436.59	5603.24
436.80	5412.78
437.01	5762.98
437.22	5746.60
437.43	5767.08
437.64	5607.34
437.85	5726.12
438.06	5812.14
438.27	5625.77
438.48	5734.31
438.69	5928.87
438.90	5861.29
439.11	5746.60
439.32	6045.60
439.53	5947.30
439.74	5855.14
439.95	5941.16
440.16	6043.56
440.37	5928.87
440.57	5820.33
440.78	5953.45
440.99	5961.64
441.20	5918.63
441.41	5795.75
441.62	5865.38
441.83	5879.72
442.04	6039.46
442.25	5941.16
442.46	6014.88
442.67	6023.08
442.88	6459.29
443.09	5973.92
443.30	6135.71
443.51	6193.06
443.72	6365.09
443.93	6164.39
444.14	6442.91
444.35	6170.53
444.56	6309.79
444.77	6227.87
444.98	6299.55
445.19	6463.39
445.40	6270.88
445.61	6406.05
445.81	6291.36
446.02	6395.81
446.23	6365.09
446.44	6272.93
446.65	6471.58
446.86	6492.06
447.07	6539.16
447.28	6741.91
447.49	6559.64
447.70	6565.79
447.91	6670.23
448.12	6670.23
448.33	6784.92
448.54	6836.12
448.74	6422.43
448.95	6737.82
449.16	6600.60
449.37	7004.05
449.58	6680.47
449.79	6809.50
450.00	6811.54
450.21	6971.29
450.42	6915.99
450.63	6930.33
450.84	6852.50
451.05	7002.01
451.25	6989.72
451.46	6756.25
451.67	7085.97
451.88	7247.76
452.09	6856.60
452.30	6944.66
452.51	6961.05
452.72	7268.24
452.93	7446.41
453.13	7108.50
453.34	7223.19
453.55	7249.81
453.76	7290.77
453.97	7540.62
454.18	7440.27
454.39	7466.89
454.60	7505.81
454.81	7481.23
455.01	7509.90
455.22	7405.46
455.43	7634.83
455.64	7829.38
455.85	7913.35
456.06	7780.23
456.27	7694.22
456.48	7561.10
456.68	7786.38
456.89	7884.68
457.10	8036.23
457.31	8030.09
457.52	7915.40
457.73	7892.87
457.94	8234.88
458.14	7933.83
458.35	8464.25
458.56	8214.40
458.77	8161.16
458.98	8380.29
459.19	8302.47
459.39	8478.59
459.60	8390.53
459.81	8431.49
460.02	8413.06
460.23	8632.19
460.44	8712.06
460.65	8669.05
460.85	8646.52
461.06	8710.01
461.27	8601.47
461.48	9049.97
461.69	8941.43
461.89	8722.30
462.10	8755.07
462.31	8750.97
462.52	8859.51
462.73	8769.40
462.94	9170.80
463.14	9232.24
463.35	9015.16
463.56	9525.10
463.77	9437.04
463.98	9193.33
464.18	9301.87
464.39	9494.38
464.60	9738.09
464.81	9551.73
465.02	9611.12
465.23	9842.54
465.43	9801.58
465.64	10106.73
465.85	9734.00
466.06	9840.49
466.27	10096.49
466.47	9897.83
466.68	9992.04
466.89	10137.45
467.10	10215.27
467.30	10125.16
467.51	10356.58
467.72	10620.77
467.93	10274.66
468.14	10528.61
468.34	10674.01
468.55	10635.10
468.76	10667.87
468.97	10506.08
469.17	10862.43
469.38	10932.06
469.59	11013.98
469.80	10927.96
470.01	10913.63
470.21	11077.46
470.42	11331.41
470.63	11509.58
470.84	11284.31
471.04	11534.16
471.25	11503.44
471.46	11550.54
471.67	11599.70
471.87	11863.88
472.08	11788.11
472.29	12222.28
472.50	11708.24
472.70	11896.65
472.91	11865.93
473.12	11933.51
473.33	12232.52
473.53	12400.45
473.74	12312.39
473.95	12537.66
474.16	12681.02
474.36	12564.29
474.57	12980.03
474.78	12926.78
474.99	12898.11
475.19	13027.13
475.40	13164.34
475.61	13072.18
475.81	13272.89
476.02	13397.81
476.23	13344.56
476.44	13621.04
476.64	13795.12
476.85	13907.76
477.06	13838.12
477.27	14190.38
477.47	14362.40
477.68	14321.45
477.89	14221.10
478.09	14327.59
478.30	14489.38
478.51	14470.95
478.71	14739.23
478.92	14518.05
479.13	14724.90
479.34	14767.90
479.54	15138.58
479.75	15148.82
479.96	15095.58
480.16	14997.28
480.37	15208.22
480.58	15470.36
480.78	15812.37
480.99	15576.85
481.20	15611.67
481.41	15994.64
481.61	15978.25
481.82	16183.05
482.03	15949.58
482.23	16154.38
482.44	16281.35
482.65	16690.95
482.85	16365.32
483.06	16453.38
483.27	16723.71
483.47	16742.14
483.68	16662.27
483.89	16879.36
484.09	16813.82
484.30	17024.76
484.51	17374.97
484.71	17393.40
484.92	17442.55
485.13	17549.04
485.33	17444.60
485.54	17579.76
485.75	17796.85
485.95	17893.10
486.16	17841.90
486.37	18255.59
486.57	18138.86
486.78	18188.01
486.98	18278.12
487.19	18489.06
487.40	18659.04
487.60	18396.90
487.81	18634.47
488.02	18407.14
488.22	18405.10
488.43	19046.11
488.64	18781.92
488.84	19095.26
489.05	19154.65
489.25	19209.95
489.46	19265.24
489.67	19201.76
489.87	19703.51
490.08	19537.62
490.29	19570.39
490.49	20088.53
490.70	20049.61
490.90	19678.93
491.11	19922.64
491.32	19844.82
491.52	20258.51
491.73	20324.04
491.94	20365.00
492.14	20326.09
492.35	20637.38
492.55	20633.29
492.76	20375.24
492.97	20885.19
493.17	21077.69
493.38	21149.37
493.58	21325.50
493.79	21126.85
494.00	20727.49
494.20	21102.27
494.41	21231.29
494.61	21739.19
494.82	21352.12
495.02	21423.80
495.23	21626.55
495.44	21667.51
495.64	21786.29
495.85	21716.66
496.05	21851.83
496.26	21890.74
496.47	22189.74
496.67	21980.85
496.88	22269.61
497.08	22007.47
497.29	22429.35
497.49	22101.68
497.70	22439.59
497.91	22552.23
498.11	22601.38
498.32	22675.11
498.52	22838.95
498.73	22863.52
498.93	22988.45
499.14	23006.88
499.34	23037.60
499.55	23273.12
499.76	22961.83
499.96	23023.26
500.17	23375.52
500.37	23189.15
500.58	23643.80
500.78	23398.04
500.99	23469.72
501.19	23750.29
501.40	23647.90
501.60	23422.62
501.81	23725.72
502.02	23983.76
502.22	23680.66
502.43	23899.80
502.63	24184.46
502.84	24237.71
503.04	24065.68
503.25	24245.90
503.45	24252.05
503.66	24282.77
503.86	24250.00
504.07	24544.91
504.27	24086.16
504.48	24764.04
504.68	24489.61
504.89	24872.58
505.09	24819.33
505.30	25069.19
505.50	24772.23
505.71	24960.64
505.91	25017.99
506.12	24790.66
506.32	24938.12
506.53	24811.14
506.73	24981.12
506.94	25310.85
507.14	24997.51
507.35	24946.31
507.55	25392.76
507.76	25581.18
507.96	25343.61
508.17	25572.99
508.37	25493.12
508.58	25200.26
508.78	25400.96
508.99	25697.91
509.19	25824.89
509.40	25626.23
509.60	25869.94
509.81	25687.67
510.01	25904.76
510.22	25958.00
510.42	26101.36
510.63	26144.37
510.83	26146.42
511.04	26179.18
511.24	26367.60
511.44	26152.56
511.65	26377.84
511.85	26429.04
512.06	26310.25
512.26	26324.59
512.47	26394.22
512.67	26498.67
512.88	26607.21
513.08	26455.66
513.29	26646.12
513.49	26820.20
513.69	26375.79
513.90	26740.33
514.10	26943.08
514.31	26910.31
514.51	27008.61
514.72	27174.50
514.92	26850.92
515.13	27084.39
515.33	27168.35
515.53	27197.02
515.74	27307.62
515.94	27477.60
516.15	27309.66
516.35	27199.07
516.56	27635.29
516.76	27481.69
516.96	27596.38
517.17	28096.08
517.37	27414.11
517.58	27864.66
517.78	27749.98
517.99	27631.19
518.19	28096.08
518.39	28149.33
518.60	27944.53
518.80	28175.95
519.01	28444.24
519.21	28186.19
519.41	28735.05
519.62	28251.73
519.82	28411.47
520.03	28593.74
520.23	28782.15
520.43	28636.75
520.64	29087.30
520.84	28638.80
521.05	28694.09
521.25	29298.24
521.45	29152.84
521.66	29312.58
521.86	29511.23
522.07	29072.96
522.27	29423.17
522.47	29431.36
522.68	29761.08
522.88	29435.45
523.08	29779.51
523.29	29759.03
523.49	29693.50
523.70	29748.79
523.90	29863.48
524.10	30129.72
524.31	30428.72
524.51	30193.20
524.71	30488.11
524.92	30256.69
525.12	30527.02
525.33	30500.40
525.53	30817.83
525.73	31112.74
525.94	31075.88
526.14	31057.45
526.34	30950.95
526.55	31268.39
526.75	31223.33
526.95	31452.70
527.16	31344.16
527.36	31286.82
527.56	31446.56
527.77	31536.67
527.97	31733.28
528.17	31819.29
528.38	31741.47
528.58	31954.46
528.78	32288.28
528.99	31931.93
529.19	32493.07
529.39	32163.35
529.60	32556.56
529.80	32542.22
530.00	32407.06
530.21	32984.58
530.41	33025.54
530.61	32560.66
530.82	32652.81
531.02	32980.49
531.22	33283.59
531.43	33308.16
531.63	33650.17
531.83	33951.23
532.04	33963.51
532.24	33549.82
532.44	34057.72
532.64	34299.38
532.85	34616.82
533.05	34133.50
533.25	34555.38
533.46	34256.37
533.66	34706.93
533.86	34547.18
534.07	35196.39
534.27	34751.98
534.47	34758.13
534.67	34866.67
534.88	35032.55
535.08	34858.48
535.28	35806.69
535.49	35648.99
535.69	35786.21
535.89	35706.34
536.09	35966.43
536.30	36380.12
536.50	35784.16
536.70	36269.53
536.91	35919.32
537.11	36142.55
537.31	36490.71
537.51	36490.71
537.72	36894.16
537.92	36959.69
538.12	37287.37
538.32	36980.17
538.53	37250.50
538.73	37082.57
538.93	37176.78
539.13	37113.29
539.34	37373.38
539.54	37238.22
539.74	37424.58
539.94	37459.40
540.15	37660.10
540.35	37836.22
540.55	37848.51
540.75	37793.22
540.96	38006.20
541.16	38309.30
541.36	38356.41
541.56	38440.37
541.77	38888.88
541.97	38225.34
542.17	38598.07
542.37	38909.36
542.58	38929.84
542.78	38684.08
542.98	38755.76
543.18	39136.68
543.38	39380.39
543.59	39394.73
543.79	39007.66
543.99	39325.10
544.19	39503.27
544.40	39632.29
544.60	39452.07
544.80	39521.70
545.00	39628.20
545.20	40027.55
545.41	39785.89
545.61	39867.81
545.81	40394.14
546.01	40633.75
546.21	40285.59
546.42	40185.24
546.62	40355.22
546.82	40344.98
547.02	40179.10
547.22	40324.50
547.43	40539.54
547.63	40498.58
547.83	40885.65
548.03	40586.64
548.23	41094.54
548.44	40637.84
548.64	41278.86
548.84	41072.01
549.04	41211.28
549.24	41395.59
549.45	41584.01
549.65	41598.34
549.85	41471.37
550.05	42030.46
550.25	41635.20
550.45	41751.94
550.66	41704.84
550.86	41854.34
551.06	41745.80
551.26	42067.33
551.46	42096.00
551.66	42188.16
551.87	42225.02
552.07	42407.29
552.27	42272.12
552.47	42321.27
552.67	42454.39
552.87	42474.87
553.07	42759.54
553.28	42683.76
553.48	42906.99
553.68	42384.76
553.88	43095.41
554.08	42599.80
554.28	42495.35
554.48	42558.84
554.69	43070.83
554.89	42988.91
555.09	42968.43
555.29	42999.15
555.49	43036.02
555.69	43167.09
555.89	43437.42
556.10	43050.35
556.30	43025.78
556.50	43226.48
556.70	43431.27
556.90	43621.73
557.10	43750.76
557.30	43349.35
557.50	43761.00
557.70	43648.36
557.91	43808.10
558.11	43482.47
558.31	43834.72
558.51	43638.12
558.71	43717.99
558.91	44283.23
559.11	43763.04
559.31	44205.41
559.51	43662.69
559.72	44039.52
559.92	44135.77
560.12	43963.75
560.32	44062.05
560.52	43924.83
560.72	44068.19
560.92	44332.38
561.12	44455.26
561.32	44830.04
561.52	43953.51
561.72	44633.43
561.93	44438.87
562.13	44760.40
562.33	44434.78
562.53	44774.74
562.73	44320.09
562.93	44307.80
563.13	44430.68
563.33	44596.57
563.53	44959.06
563.73	44324.19
563.93	44645.72
564.13	45352.27
564.33	44709.21
564.53	44918.10
564.74	44926.29
564.94	44696.92
565.14	45231.44
565.34	45110.61
565.54	45167.95
565.74	44897.62
565.94	45102.42
566.14	45094.22
566.34	45471.05
566.54	45839.68
566.74	44625.24
566.94	45118.80
567.14	45477.19
567.34	45380.94
567.54	45116.75
567.74	45356.36
567.94	45643.08
568.14	45366.60
568.34	45425.99
568.54	45153.62
568.74	45749.57
568.94	45186.38
569.14	45434.19
569.34	45657.42
569.54	45772.10
569.75	45372.75
569.95	45622.60
570.15	46161.22
570.35	45745.48
570.55	45376.84
570.75	46073.15
570.95	46120.26
571.15	45983.04
571.35	45708.61
571.55	46357.82
571.75	45577.54
571.95	46245.18
572.15	45983.04
572.35	46245.18
572.55	45595.98
572.75	46077.25
572.95	45888.84
573.15	46075.20
573.35	46368.06
573.55	45940.04
573.75	46169.41
573.95	46521.66
574.15	46196.03
574.35	46906.68
574.55	46288.19
574.75	46257.47
574.95	46581.05
575.15	46445.88
575.34	46105.92
575.54	46374.20
575.74	46406.97
575.94	46595.38
576.14	46658.87
576.34	47037.75
576.54	46724.41
576.74	46886.20
576.94	46671.16
577.14	46794.04
577.34	47082.80
577.54	46398.78
577.74	46863.67
577.94	47228.21
578.14	47170.86
578.34	46865.72
578.54	46660.92
578.74	46722.36
578.94	47002.93
579.14	46695.74
579.34	47197.49
579.54	46900.53
579.74	47482.16
579.94	47367.47
580.13	46873.91
580.33	47523.11
580.53	47195.44
580.73	47418.67
580.93	47506.73
581.13	47330.61
581.33	47957.28
581.53	47834.41
581.73	47375.66
581.93	47762.73
582.13	47412.52
582.33	47426.86
582.53	47420.72
582.73	48006.44
582.92	47762.73
583.12	48239.90
583.32	48229.66
583.52	47916.32
583.72	48319.77
583.92	47858.98
584.12	48106.79
584.32	48289.06
584.52	47924.52
584.72	48135.46
584.92	48125.22
585.11	48567.58
585.31	48227.62
585.51	48543.00
585.71	48063.78
585.91	48860.44
586.11	48590.11
586.31	47994.15
586.51	48491.80
586.71	48567.58
586.91	48805.14
587.10	48364.83
587.30	48559.39
587.50	48237.86
587.70	48690.46
587.90	49050.90
588.10	48422.17
588.30	48643.35
588.50	48684.31
588.69	49294.61
588.89	48428.32
589.09	48870.68
589.29	48780.57
589.49	49247.50
589.69	48749.85
589.89	48944.41
590.08	48936.21
590.28	48784.66
590.48	49018.13
590.68	48930.07
590.88	49224.98
591.08	49044.76
591.28	48923.93
591.47	50009.35
591.67	49251.60
591.87	49384.72
592.07	49161.49
592.27	49263.89
592.47	49001.75
592.67	49280.27
592.86	49007.89
593.06	49829.13
593.26	49302.80
593.46	49513.74
593.66	49521.93
593.86	49599.76
594.05	49450.25
594.25	49784.07
594.45	49665.29
594.65	49800.46
594.85	49749.26
595.05	49913.09
595.24	49669.39
595.44	50066.69
595.64	49818.89
595.84	49976.58
596.04	50226.43
596.23	50042.12
596.43	49984.77
596.63	50353.41
596.83	50001.16
597.03	50359.55
597.22	50275.58
597.42	50146.56
597.62	50435.33
597.82	50476.29
598.02	50398.46
598.21	50582.78
598.41	49990.92
598.61	50414.85
598.81	50527.48
599.01	50826.49
599.20	50558.20
599.40	50083.08
599.60	50910.46
599.80	50697.47
600.00	51307.76
600.19	50996.47
600.39	50373.89
600.59	51211.51
600.79	50742.52
600.98	51010.81
601.18	51229.94
601.38	51277.04
601.58	51479.79
601.78	51154.16
601.97	51119.35
602.17	51674.35
602.37	51182.84
602.57	51365.10
602.76	51582.19
602.96	51201.27
603.16	51873.00
603.36	51338.48
603.55	52241.63
603.75	51154.16
603.95	52081.89
604.15	52188.39
604.34	51827.95
604.54	52073.70
604.74	52028.65
604.94	51862.76
605.13	52081.89
605.33	52090.09
605.53	52008.17
605.73	52581.60
605.92	52167.91
606.12	52495.58
606.32	52548.83
606.52	52176.10
606.71	52444.38
606.91	52716.76
607.11	52106.47
607.30	52589.79
607.50	52434.14
607.70	52640.99
607.90	52835.55
608.09	52473.06
608.29	52501.73
608.49	52505.82
608.68	52937.94
608.88	52956.38
609.08	53257.43
609.28	53036.25
609.47	52493.54
609.67	53101.78
609.87	53015.77
610.06	53257.43
610.26	52487.39
610.46	53255.38
610.66	53036.25
610.85	52997.34
611.05	53216.47
611.25	53818.57
611.44	53220.56
611.64	53322.96
611.84	53017.82
612.03	53118.17
612.23	53423.31
612.43	53503.18
612.62	53239.00
612.82	53449.94
613.02	53568.72
613.21	53675.21
613.41	53277.91
613.61	53808.33
613.80	53347.54
614.00	53554.38
614.20	53943.50
614.39	53470.42
614.59	54004.94
614.79	53605.58
614.98	53568.72
615.18	53763.28
615.38	53703.88
615.57	53288.15
615.77	53916.87
615.97	53501.14
616.16	53951.69
616.36	53630.16
616.56	53767.37
616.75	53867.72
616.95	53517.52
617.15	53787.85
617.34	53757.13
617.54	53914.83
617.74	54244.55
617.93	54336.71
618.13	53728.46
618.32	53951.69
618.52	53621.97
618.72	53888.20
618.91	54238.40
619.11	53855.43
619.31	54074.57
619.50	53531.86
619.70	53458.13
619.90	54148.29
620.09	53918.92
620.29	53916.87
620.48	53703.88
620.68	54604.99
620.88	53480.66
621.07	54197.44
621.27	53763.28
621.46	53990.60
621.66	53585.10
621.86	53939.40
622.05	53624.01
622.25	54082.76
622.44	54377.67
622.64	54000.84
622.84	54400.19
623.03	54138.05
623.23	54179.01
623.42	54211.78
623.62	54645.95
623.82	54441.15
624.01	54662.33
624.21	54633.66
624.40	53839.05
624.60	54592.70
624.80	54097.09
624.99	54066.38
625.19	53685.45
625.38	53920.97
625.58	54396.10
625.77	54248.64
625.97	54326.47
626.17	54076.61
626.36	54392.00
626.56	54293.70
626.75	53675.21
626.95	54934.71
627.14	54281.41
627.34	54510.78
627.54	54531.26
627.73	54445.25
627.93	54662.33
628.12	54355.14
628.32	54488.26
628.51	54203.59
628.71	54871.23
628.90	54734.01
629.10	54369.47
629.30	54410.43
629.49	54934.71
629.69	54863.03
629.88	54688.96
630.08	55366.84
630.27	54584.51
630.47	54506.69
630.66	54578.37
630.86	55116.98
631.05	54543.55
631.25	55047.35
631.44	55129.27
631.64	54676.67
631.84	55024.82
632.03	55096.50
632.23	55047.35
632.42	55583.92
632.62	55153.85
632.81	54555.84
633.01	55237.81
633.20	55344.31
633.40	55325.88
633.59	55442.61
633.79	54983.86
633.98	55385.27
634.18	55282.87
634.37	55139.51
634.57	55342.26
634.76	55581.87
634.96	55131.32
635.15	55211.19
635.35	54977.72
635.54	55235.77
635.74	55696.56
635.93	55645.36
636.13	55606.45
636.32	55960.75
636.52	55260.34
636.71	55383.22
636.91	55735.47
637.10	55938.22
637.30	55852.20
637.49	55264.44
637.69	55510.19
637.88	56018.09
638.08	55516.34
638.27	56243.37
638.46	55909.55
638.66	55395.51
638.85	55639.22
639.05	55909.55
639.24	55846.06
639.44	55471.28
639.63	56216.74
639.83	55844.01
640.02	56132.78
640.22	56075.43
640.41	56313.00
640.61	55882.92
640.80	56057.00
640.99	56054.95
641.19	56661.15
641.38	56534.18
641.58	56519.84
641.77	56126.63
641.97	56255.65
642.16	56079.53
642.36	56247.46
642.55	56702.11
642.74	56145.06
642.94	56843.42
643.13	56640.67
643.33	56786.08
643.52	56794.27
643.72	56566.94
643.91	56556.70
644.10	56988.83
644.30	57068.70
644.49	56562.85
644.69	56683.68
644.88	57033.88
645.08	56792.22
645.27	56485.03
645.46	56661.15
645.66	57078.94
645.85	56433.83
646.05	56820.89
646.24	56935.58
646.43	57078.94
646.63	57244.82
646.82	57302.17
647.02	56945.82
647.21	57160.86
647.40	57134.23
647.60	57562.26
647.79	56757.41
647.99	56972.44
648.18	57119.90
648.37	57646.22
648.57	57431.19
648.76	57418.90
648.96	57201.82
649.15	57783.44
649.34	57963.66
649.54	57556.11
649.73	57339.03
649.92	57586.83
650.12	58072.20
650.31	57570.45
650.51	57906.32
650.70	57861.26
650.89	57519.25
651.09	58748.03
651.28	58057.87
651.47	58016.91
651.67	57902.22
651.86	58176.65
652.06	57226.39
652.25	57949.32
652.44	57822.35
652.64	57638.03
652.83	57857.17
653.02	57758.86
653.22	57887.88
653.41	57820.30
653.60	57885.84
653.80	57414.80
653.99	58068.11
654.18	57644.18
654.38	58037.39
654.57	58184.84
654.76	57840.78
654.96	58156.17
655.15	57973.90
655.34	58356.87
655.54	58027.15
655.73	58236.04
655.92	58371.21
656.12	58041.48
656.31	58315.91
656.50	58258.57
656.70	58053.77
656.89	58643.59
657.08	58012.81
657.28	58287.24
657.47	58293.38
657.66	58184.84
657.86	57744.53
658.05	58213.51
658.24	58381.45
658.43	57889.93
658.63	58348.68
658.82	58211.46
659.01	58590.34
659.21	58750.08
659.40	58453.12
659.59	58113.16
659.79	58582.15
659.98	58352.77
660.17	58084.49
660.36	58766.46
660.56	58561.67
660.75	58610.82
660.94	58633.35
661.14	58686.59
661.33	58412.16
661.52	58350.73
661.71	58604.67
661.91	57881.74
662.10	58365.06
662.29	58418.31
662.49	58381.45
662.68	58332.29
662.87	58633.35
663.06	58494.08
663.26	58596.48
663.45	59329.65
663.64	58682.50
663.83	58973.31
664.03	58684.54
664.22	58432.64
664.41	58729.60
664.60	58356.87
664.80	58684.54
664.99	58649.73
665.18	59110.52
665.37	58651.78
665.57	58518.66
665.76	58328.20
665.95	58909.82
666.14	58393.73
666.34	58694.78
666.53	58403.97
666.72	58610.82
666.91	58559.62
667.11	58264.71
667.30	58217.61
667.49	58078.35
667.68	58487.94
667.87	57875.60
668.07	58619.01
668.26	58702.98
668.45	58432.64
668.64	58127.50
668.84	58840.19
669.03	59087.99
669.22	58956.92
669.41	58479.75
669.60	58801.28
669.80	58410.12
669.99	59012.22
670.18	58795.13
670.37	58344.58
670.57	58756.22
670.76	58823.81
670.95	58580.10
671.14	58713.22
671.33	58453.12
671.53	58795.13
671.72	58467.46
671.91	58598.53
672.10	58344.58
672.29	58236.04
672.48	58367.11
672.68	58799.23
672.87	58403.97
673.06	58098.83
673.25	58180.74
673.44	58420.36
673.64	58053.77
673.83	58700.93
674.02	58375.30
674.21	57853.07
674.40	58021.00
674.59	57896.08
674.79	58082.44
674.98	57992.33
675.17	57992.33
675.36	57787.53
675.55	58250.38
675.74	57865.36
675.94	57896.08
676.13	58242.18
676.32	58727.55
676.51	58324.10
676.70	58528.90
676.89	58127.50
677.08	58221.70
677.28	57906.32
677.47	58254.47
677.66	58133.64
677.85	58178.70
678.04	58569.86
678.23	58463.36
678.42	57750.67
678.62	58043.53
678.81	58070.15
679.00	57877.64
679.19	58489.99
679.38	58168.46
679.57	58178.70
679.76	57791.63
679.96	58195.08
680.15	58102.92
680.34	58115.21
680.53	58084.49
680.72	58150.02
680.91	58029.19
681.10	57728.14
681.29	57832.59
681.48	57793.68
681.68	57906.32
681.87	57607.31
682.06	58072.20
682.25	57656.46
682.44	57502.87
682.63	57480.34
682.82	57560.21
683.01	57242.77
683.20	57334.93
683.39	57275.54
683.59	56941.72
683.78	57316.50
683.97	56931.48
684.16	57035.93
684.35	56972.44
684.54	57365.65
684.73	57355.41
684.92	56984.73
685.11	57146.52
685.30	56788.13
685.49	57351.32
685.69	57134.23
685.88	56992.92
686.07	57027.74
686.26	56589.47
686.45	56917.15
686.64	57293.97
686.83	56534.18
687.02	56904.86
687.21	57257.11
687.40	56874.14
687.59	57248.92
687.78	57017.50
687.97	57095.32
688.16	56824.99
688.35	56392.87
688.54	56607.90
688.74	56515.75
688.93	56503.46
689.12	56612.00
689.31	56476.83
689.50	56843.42
689.69	55981.23
689.88	56136.87
690.07	56413.35
690.26	56132.78
690.45	56765.60
690.64	56095.91
690.83	55907.50
691.02	56235.17
691.21	55530.67
691.40	56067.24
691.59	56128.68
691.78	56396.96
691.97	56173.73
692.16	56077.48
692.35	55966.89
692.54	55876.78
692.73	56349.86
692.92	55547.06
693.11	55538.86
693.30	55454.90
693.49	55966.89
693.68	55598.26
693.87	55616.69
694.06	55415.99
694.25	55164.09
694.44	55133.37
694.63	55344.31
694.82	55440.56
695.01	55223.48
695.20	55090.36
695.39	55000.25
695.58	55284.92
695.77	55162.04
695.96	55295.16
696.15	55356.60
696.34	54627.52
696.53	55071.93
696.72	55272.63
696.91	55131.32
697.10	55094.46
697.29	55037.11
697.48	55284.92
697.67	54557.89
697.86	54774.97
698.05	54150.34
698.24	54809.79
698.43	54011.08
698.62	54572.22
698.81	54582.46
699.00	55252.15
699.19	54498.50
699.38	54750.40
699.57	53937.35
699.76	54887.61
699.95	54004.94
700.14	53783.76
700.32	54289.60
700.51	54365.38
700.70	54377.67
700.89	54658.24
701.08	54265.03
701.27	54305.99
701.46	54451.39
701.65	53513.42
701.84	53935.30
702.03	54107.33
702.22	53855.43
702.41	54056.14
702.60	53875.91
702.79	53906.63
702.98	53034.20
703.17	53634.25
703.35	53851.34
703.54	53507.28
703.73	53851.34
703.92	53351.63
704.11	53265.62
704.30	53163.22
704.49	53071.06
704.68	53232.85
704.87	53826.76
705.06	53445.84
705.25	53181.65
705.43	53116.12
705.62	53540.05
705.81	53122.26
706.00	52925.66
706.19	52485.34
706.38	52735.20
706.57	52690.14
706.76	52774.11
706.95	52917.46
707.14	52552.93
707.32	52229.35
707.51	52204.77
707.70	52792.54
707.89	52481.25
708.08	52311.27
708.27	52393.18
708.46	52548.83
708.65	52729.05
708.84	52921.56
709.02	52616.41
709.21	52810.97
709.40	52651.23
709.59	52319.46
709.78	51977.45
709.97	52540.64
710.16	51993.83
710.34	51971.30
710.53	52262.11
710.72	52184.29
710.91	52085.99
711.10	51533.04
711.29	52534.49
711.48	52182.24
711.66	51668.20
711.85	51485.93
712.04	51668.20
712.23	52079.85
712.42	51471.60
712.61	51864.81
712.80	51444.98
712.98	51246.32
713.17	51178.74
713.36	51561.71
713.55	51440.88
713.74	51617.00
713.93	50902.26
714.11	51383.54
714.30	51231.99
714.49	51500.27
714.68	51645.68
714.87	51231.99
715.06	51516.65
715.24	50971.89
715.43	51096.82
715.62	50814.20
715.81	50726.14
716.00	50998.52
716.18	50595.07
716.37	50568.44
716.56	50502.91
716.75	51221.75
716.94	50728.19
717.12	49779.98
717.31	50715.90
717.50	50351.36
717.69	50050.31
717.88	50236.67
718.06	50226.43
718.25	50590.97
718.44	50130.18
718.63	50197.76
718.82	50240.77
719.00	50306.30
719.19	49894.66
719.38	50136.32
719.57	49534.22
719.76	49343.76
719.94	49612.04
720.13	49429.77
720.32	49648.91
720.51	49497.36
720.69	49267.98
720.88	49540.36
721.07	49693.96
721.26	48846.10
721.44	49128.72
721.63	49577.23
721.82	49413.39
722.01	48968.98
722.20	49284.37
722.38	48653.59
722.57	48235.81
722.76	48309.53
722.95	48473.37
723.13	48047.39
723.32	48190.75
723.51	48319.77
723.70	48123.17
723.88	48336.16
724.07	47979.81
724.26	48411.93
724.44	47867.17
724.63	48270.62
724.82	48276.77
725.01	47783.21
725.19	48313.63
725.38	47666.47
725.57	48305.44
725.76	47924.52
725.94	47830.31
726.13	47848.74
726.32	47832.36
726.51	47543.59
726.69	48026.92
726.88	47721.77
727.07	48043.30
727.25	47426.86
727.44	47682.86
727.63	47410.48
727.82	47535.40
728.00	47799.59
728.19	47295.79
728.38	47449.39
728.56	46812.47
728.75	47844.65
728.94	47455.53
729.12	47871.27
729.31	47510.83
729.50	47506.73
729.69	47770.92
729.87	47533.35
730.06	47465.77
730.25	47467.82
730.43	47701.29
730.62	46753.08
730.81	47545.64
730.99	47541.55
731.18	47344.94
731.37	47662.38
731.55	47324.46
731.74	47623.47
731.93	47303.98
732.11	47379.76
732.30	47306.03
732.49	47361.33
732.67	47426.86
732.86	47203.63
733.05	47527.21
733.23	47205.68
733.42	47424.81
733.61	47363.37
733.79	47170.86
733.98	47639.85
734.17	47011.12
734.35	47336.75
734.54	46873.91
734.73	47236.40
734.91	47177.01
735.10	46751.03
735.29	47086.90
735.47	46232.89
735.66	46779.70
735.84	47115.57
736.03	46542.14
736.22	46986.55
736.40	46759.22
736.59	46990.64
736.78	46949.68
736.96	46564.67
737.15	46581.05
737.33	46445.88
737.52	46331.20
737.71	46263.61
737.89	46300.48
738.08	46073.15
738.27	46396.73
738.45	46857.52
738.64	46845.24
738.82	46445.88
739.01	46699.83
739.20	46568.76
739.38	46648.63
739.57	46882.10
739.75	46472.51
739.94	46028.10
740.13	46535.99
740.31	46347.58
740.50	45919.56
740.68	46200.13
740.87	46294.33
741.06	46349.63
741.24	46191.94
741.43	45913.41
741.61	46351.68
741.80	46040.39
741.99	45991.23
742.17	45618.50
742.36	46040.39
742.54	45630.79
742.73	46017.86
742.91	46011.71
743.10	45989.19
743.29	45962.56
743.47	46212.41
743.66	45536.59
743.84	46189.89
744.03	45534.54
744.21	45557.06
744.40	46097.73
744.59	45784.39
744.77	45516.11
744.96	45739.33
745.14	45591.88
745.33	45788.49
745.51	45876.55
745.70	45964.61
745.88	45532.49
746.07	45520.20
746.26	45317.45
746.44	45401.42
746.63	45323.60
746.81	45389.13
747.00	45233.49
747.18	45700.42
747.37	45219.15
747.55	45344.08
747.74	45583.69
747.92	45032.78
748.11	45454.67
748.29	45329.74
748.48	45126.99
748.66	45002.07
748.85	45268.30
749.03	45006.16
749.22	45227.34
749.41	45172.05
749.59	45133.14
749.78	44997.97
749.96	44549.46
750.15	44834.13
750.33	44729.69
750.52	44852.56
750.70	44715.35
750.89	44928.34
751.07	44608.86
751.26	44795.22
751.44	44422.49
751.63	44672.34
751.81	44610.90
752.00	44590.42
752.18	44739.93
752.37	44432.73
752.55	44016.99
752.74	44608.86
752.92	44490.07
753.10	44309.85
753.29	44533.08
753.47	44199.26
753.66	44225.89
753.84	44531.03
754.03	44393.82
754.21	44133.73
754.40	44066.14
754.58	44221.79
754.77	44397.91
754.95	44023.14
755.14	43836.77
755.32	43912.55
755.51	43959.65
755.69	43586.92
755.88	43672.93
756.06	44119.39
756.24	43513.19
756.43	43881.83
756.61	43627.88
756.80	43681.13
756.98	43818.34
757.17	44178.78
757.35	43687.27
757.54	43451.75
757.72	43818.34
757.90	43812.20
758.09	43552.10
758.27	43253.10
758.46	43582.82
758.64	43634.02
758.83	44070.24
759.01	43902.31
759.19	43713.89
759.38	43183.47
759.56	43584.87
759.75	43484.52
759.93	43310.44
760.12	43081.07
760.30	43566.44
760.48	43300.20
760.67	43259.24
760.85	43210.09
761.04	43287.92
761.22	43349.35
761.40	43179.37
761.59	42757.49
761.77	43146.61
761.96	42898.80
762.14	43214.19
762.32	42868.08
762.51	42841.46
762.69	43138.41
762.88	43134.32
763.06	43193.71
763.24	42997.10
763.43	42906.99
763.61	42538.36
763.80	42569.08
763.98	42710.39
764.16	42356.09
764.35	42976.62
764.53	42442.10
764.72	42241.40
764.90	42562.93
765.08	42771.83
765.27	42571.13
765.45	42376.57
765.63	42014.08
765.82	42698.10
766.00	42655.09
766.18	42358.14
766.37	42771.83
766.55	42173.82
766.74	42653.05
766.92	42198.40
767.10	42407.29
767.29	42136.96
767.47	41563.53
767.65	42317.18
767.84	41229.71
768.02	41823.62
768.20	42046.85
768.39	41543.05
768.57	41903.49
768.75	41774.47
768.94	41649.54
769.12	41491.85
769.30	41514.37
769.49	41770.37
769.67	41282.95
769.85	41332.11
770.04	41479.56
770.22	41377.16
770.40	41272.71
770.59	41497.99
770.77	41686.40
770.95	41477.51
771.14	40879.50
771.32	41000.33
771.50	40744.34
771.69	41133.45
771.87	41366.92
772.05	41137.55
772.24	40793.49
772.42	40926.61
772.60	40801.68
772.78	40736.15
772.97	40478.10
773.15	40734.10
773.33	40383.90
773.52	40646.04
773.70	40981.90
773.88	40531.35
774.07	40773.01
774.25	41024.91
774.43	40830.35
774.61	40973.71
774.80	40811.92
774.98	40940.94
775.16	40981.90
775.34	40914.32
775.53	40924.56
775.71	40856.98
775.89	40865.17
776.08	40697.24
776.26	41172.36
776.44	40752.53
776.62	41139.60
776.81	41102.73
776.99	41000.33
777.17	41121.16
777.35	41082.25
777.54	41280.91
777.72	41209.23
777.90	41241.99
778.08	41313.67
778.27	41399.69
778.45	41055.63
778.63	41772.42
778.81	41248.14
779.00	41620.87
779.18	41424.26
779.36	42003.84
779.54	41504.13
779.73	41393.54
779.91	41262.47
780.09	41395.59
780.27	41811.33
780.46	41606.53
780.64	42012.03
780.82	41962.88
781.00	41428.36
781.19	41848.19
781.37	41903.49
781.55	41811.33
781.73	42012.03
781.91	42079.61
782.10	41899.39
782.28	42149.24
782.46	42093.95
782.64	42063.23
782.82	41995.65
783.01	42214.78
783.19	42225.02
783.37	42489.21
783.55	41868.67
783.74	42354.04
783.92	41999.74
784.10	42513.78
784.28	42036.61
784.46	41663.88
784.64	41923.97
784.83	41883.01
785.01	42399.10
785.19	42249.60
785.37	42204.54
785.55	42141.05
785.74	42339.71
785.92	41874.82
786.10	42229.12
786.28	41854.34
786.46	42304.89
786.64	41647.49
786.83	42192.25
787.01	42139.00
787.19	41870.72
787.37	41956.74
787.55	42253.69
787.74	41618.82
787.92	41909.63
788.10	41805.19
788.28	41694.60
788.46	41860.48
788.64	41864.58
788.82	41950.59
789.01	41772.42
789.19	41799.04
789.37	41397.64
789.55	41463.18
789.73	41115.02
789.91	41328.01
790.09	41129.36
790.28	41287.05
790.46	40951.18
790.64	41575.81
790.82	41334.15
791.00	40951.18
791.18	40914.32
791.36	41010.57
791.55	41268.62
791.73	41035.15
791.91	40715.67
792.09	40990.09
792.27	40940.94
792.45	40629.65
792.63	40592.79
792.81	40957.33
793.00	40408.47
793.18	40351.13
793.36	40123.80
793.54	39912.86
793.72	39990.69
793.90	40115.61
794.08	40056.22
794.26	39959.97
794.44	39968.16
794.62	39620.00
794.81	40043.93
794.99	39980.45
795.17	39247.27
795.35	39269.80
795.53	39712.16
795.71	39660.96
795.89	39648.68
796.07	39085.48
796.25	38978.99
796.43	38774.19
796.61	38653.36
796.80	38755.76
796.98	38837.68
797.16	38647.22
797.34	38401.46
797.52	38495.67
797.70	38987.18
797.88	38467.00
798.06	38198.71
798.24	38305.21
798.42	38292.92
798.60	38034.88
798.78	38143.42
798.96	38174.14
799.14	38000.06
799.32	38112.70
799.51	37688.77
799.69	37721.54
799.87	37795.26
800.05	37496.26
800.23	37985.72
800.41	37305.80
800.59	37477.83
800.77	37184.97
800.95	36947.40
801.13	37283.27
801.31	37090.76
801.49	37168.58
801.67	37107.15
801.85	37135.82
802.03	36650.45
802.21	36775.37
802.39	36306.39
802.57	36726.22
802.75	36531.67
802.93	36363.73
803.11	36212.18
803.29	36044.25
803.47	35917.28
803.65	36154.84
803.83	36390.36
804.01	35927.52
804.19	36148.70
804.37	35374.56
804.55	35782.11
804.73	35712.48
804.91	35534.31
805.09	35782.11
805.27	35583.46
805.45	35536.35
805.63	35747.29
805.81	35147.24
805.99	35382.76
806.17	35333.60
806.35	35358.18
806.53	35001.83
806.71	35186.15
806.89	35087.85
807.07	34690.54
807.25	34926.06
807.43	34950.63
807.61	35110.38
807.79	34813.42
807.97	34125.30
808.15	34528.75
808.33	34344.44
808.51	34469.36
808.69	34125.30
808.87	34033.14
809.05	34313.72
809.23	33609.22
809.41	33764.86
809.59	33828.35
809.77	34305.52
809.95	33830.40
810.13	33598.98
810.31	33592.83
810.49	33771.00
810.67	33881.60
810.84	33752.57
811.02	33713.66
811.20	33367.55
811.38	33070.60
811.56	33291.78
811.74	33383.94
811.92	33162.76
812.10	32857.61
812.28	32763.40
812.46	33078.79
812.64	33103.37
812.82	32925.19
813.00	32947.72
813.18	32372.24
813.36	32880.14
813.53	32478.74
813.71	32687.63
813.89	32351.76
814.07	32570.90
814.25	32734.73
814.43	32204.31
814.61	32278.04
814.79	31880.73
814.97	32185.88
815.15	32499.22
815.33	31819.29
815.50	31720.99
815.68	32026.14
815.86	32108.05
816.04	31874.59
816.22	31661.60
816.40	31958.55
816.58	31833.63
816.76	31667.74
816.94	31657.50
817.11	31450.66
817.29	31671.84
817.47	31079.97
817.65	31118.89
817.83	31637.02
818.01	31362.59
818.19	31235.62
818.37	30983.72
818.54	30486.06
818.72	31317.54
818.90	31143.46
819.08	30844.46
819.26	31030.82
819.44	30703.15
819.62	30852.65
819.80	30862.89
819.97	30520.88
820.15	30654.00
820.33	30064.18
820.51	30801.45
820.69	30166.58
820.87	30557.74
821.05	30604.84
821.22	30385.71
821.40	30701.10
821.58	30072.37
821.76	30285.36
821.94	30154.29
822.12	30152.24
822.29	30346.80
822.47	30107.19
822.65	30535.21
822.83	29994.55
823.01	30062.13
823.19	29828.66
823.36	29793.85
823.54	29720.12
823.72	29537.85
823.90	29791.80
824.08	29224.51
824.25	29574.72
824.43	29419.07
824.61	29339.20
824.79	29529.66
824.97	29208.13
825.15	29462.08
825.32	29353.54
825.50	29242.95
825.68	29109.83
825.86	29335.10
826.04	29468.22
826.21	29023.81
826.39	29005.38
826.57	29099.59
826.75	28993.09
826.93	28520.01
827.10	28970.57
827.28	28573.26
827.46	29107.78
827.64	29017.67
827.81	28511.82
827.99	28675.66
828.17	28452.43
828.35	28735.05
828.53	28560.97
828.70	28462.67
828.88	28270.16
829.06	28352.08
829.24	28657.23
829.41	28241.49
829.59	28847.69
829.77	28390.99
829.95	28067.41
830.12	28053.08
830.30	28091.99
830.48	28495.44
830.66	28079.70
830.84	28118.61
831.01	27987.54
831.19	28053.08
831.37	27995.73
831.55	27889.24
831.72	28018.26
831.90	27493.98
832.08	28053.08
832.25	27541.08
832.43	27952.73
832.61	27893.33
832.79	27661.91
832.96	27811.42
833.14	27455.07
833.32	27713.11
833.50	27706.97
833.67	27670.11
833.85	27801.18
834.03	27123.30
834.20	27258.46
834.38	27205.22
834.56	27457.12
834.74	27266.66
834.91	27397.73
835.09	26971.75
835.27	26977.89
835.44	26867.30
835.62	26695.27
835.80	26992.23
835.98	27154.02
836.15	26900.07
836.33	26834.53
836.51	26838.63
836.68	26541.68
836.86	26891.88
837.04	26709.61
837.21	26818.15
837.39	26752.62
837.57	26953.32
837.75	26549.87
837.92	26308.21
838.10	26529.39
838.28	26365.55
838.45	26224.24
838.63	26185.33
838.81	26461.80
838.98	26504.81
839.16	25974.39
839.34	26084.98
839.51	26027.63
839.69	25736.82
839.87	25892.47
840.04	25788.02
840.22	26197.62
840.40	26187.38
840.57	25632.38
840.75	25869.94
840.93	25851.51
841.10	26066.55
841.28	26009.20
841.46	25740.92
841.63	25611.90
841.81	25648.76
841.98	25632.38
842.16	25826.93
842.34	25818.74
842.51	25753.21
842.69	25845.37
842.87	25650.81
843.04	25556.60
843.22	25579.13
843.40	25192.06
843.57	25138.82
843.75	25640.57
843.92	25253.50
844.10	25253.50
844.28	25355.90
844.45	25646.71
844.63	25110.14
844.81	25251.45
844.98	25241.21
845.16	25112.19
845.33	25360.00
845.51	25212.54
845.69	25058.95
845.86	24911.49
846.04	24723.08
846.21	25108.10
846.39	24917.64
846.57	24729.22
846.74	24782.47
846.92	24774.28
847.09	24608.39
847.27	24305.29
847.45	24401.55
847.62	24655.50
847.80	24508.04
847.97	24596.10
848.15	24534.67
848.32	24538.76
848.50	24358.54
848.68	24327.82
848.85	24434.32
849.03	23987.86
849.20	24389.26
849.38	24592.01
849.56	24325.77
849.73	24116.88
849.91	24229.52
850.08	24536.71
850.26	23873.17
850.43	23983.76
850.61	23772.82
850.78	23512.73
850.96	23989.91
851.14	23721.62
851.31	23875.22
851.49	23506.59
851.66	24032.91
851.84	23938.71
852.01	23676.57
852.19	23733.91
852.36	23682.71
852.54	23697.05
852.71	23701.14
852.89	23539.35
853.07	23686.81
853.24	23668.37
853.42	23529.11
853.59	23432.86
853.77	23559.83
853.94	23412.38
854.12	23664.28
854.29	23211.68
854.47	23590.55
854.64	23185.05
854.82	23271.07
854.99	23037.60
855.17	23150.24
855.34	23037.60
855.52	23348.89
855.69	23197.34
855.87	22877.86
856.04	23119.52
856.22	22789.80
856.39	22494.89
856.57	22654.63
856.74	22642.34
856.92	22922.91
857.09	22775.46
857.27	22841.00
857.44	22652.58
857.62	22775.46
857.79	22695.59
857.97	22591.14
858.14	22843.04
858.32	22378.15
858.49	22273.71
858.67	22511.27
858.84	22337.20
859.02	22535.85
859.19	22212.27
859.37	22322.86
859.54	21974.70
859.72	22245.04
859.89	22478.50
860.06	22294.19
860.24	22060.72
860.41	22132.40
860.59	22171.31
860.76	22161.07
860.94	21796.53
861.11	22279.85
861.29	21964.46
861.46	22046.38
861.64	21804.72
861.81	21604.02
861.98	21544.63
862.16	21687.99
862.33	21665.46
862.51	21731.00
862.68	21860.02
862.86	21479.10
863.03	21778.10
863.21	21731.00
863.38	21530.30
863.55	21378.75
863.73	21655.22
863.90	21468.86
864.08	21348.03
864.25	21339.83
864.43	21505.72
864.60	20977.34
864.77	21094.08
864.95	21434.04
865.12	20856.51
865.30	21077.69
865.47	21049.02
865.64	21278.40
865.82	21067.45
865.99	21143.23
866.17	21003.97
866.34	20846.27
866.51	20745.92
866.69	21116.61
866.86	21006.02
867.04	20856.51
867.21	20856.51
867.38	20829.89
867.56	20754.12
867.73	20725.44
867.91	20588.23
868.08	20506.31
868.25	20688.58
868.43	20219.60
868.60	20217.55
868.78	20164.30
868.95	20729.54
869.12	20397.77
869.30	20299.47
869.47	20412.10
869.64	19969.74
869.82	20174.54
869.99	20178.64
870.16	20317.90
870.34	20285.13
870.51	20137.68
870.69	19916.50
870.86	20109.01
871.03	20096.72
871.21	20106.96
871.38	19908.30
871.55	19916.50
871.73	20000.46
871.90	20022.99
872.07	19637.97
872.25	19668.69
872.42	19764.95
872.59	19758.80
872.77	19637.97
872.94	19590.87
873.11	19785.43
873.29	19752.66
873.46	19373.78
873.63	19539.67
873.81	19205.85
873.98	19164.89
874.15	19091.16
874.33	19267.29
874.50	18933.47
874.67	19121.88
874.85	18876.13
875.02	19146.46
875.19	19089.12
875.37	18886.37
875.54	18892.51
875.71	18792.16
875.88	18728.67
876.06	18876.13
876.23	18718.43
876.40	18800.35
876.58	18695.91
876.75	18499.30
876.92	18657.00
877.10	18667.24
877.27	18374.38
877.44	18353.90
877.61	18403.05
877.79	18407.14
877.96	18079.47
878.13	18210.54
878.31	18151.15
878.48	17960.69
878.65	17897.20
878.82	17725.17
879.00	18208.49
879.17	18075.37
879.34	18169.58
879.51	17747.70
879.69	18116.33
879.86	17829.62
880.03	17755.89
880.21	17690.35
880.38	17911.53
880.55	17962.73
880.72	17788.66
880.90	17334.01
881.07	17848.05
881.24	17608.44
881.41	17626.87
881.59	17331.96
881.76	17688.31
881.93	17583.86
882.10	17323.77
882.28	17458.93
882.45	17475.32
882.62	17350.39
882.79	17307.38
882.96	17258.23
883.14	17256.18
883.31	17270.52
883.48	17174.27
883.65	17073.92
883.83	17475.32
884.00	16955.13
884.17	17176.31
884.34	17116.92
884.51	17155.83
884.69	17159.93
884.86	16856.83
885.03	17059.58
885.20	17039.10
885.38	17045.24
885.55	16895.74
885.72	16955.13
885.89	16819.97
886.06	16893.69
886.24	17073.92
886.41	16776.96
886.58	17035.00
886.75	17026.81
886.92	16684.80
887.10	16830.21
887.27	16637.70
887.44	16867.07
887.61	16754.43
887.78	16877.31
887.95	16826.11
888.13	16627.46
888.30	16445.19
888.47	16480.00
888.64	16682.75
888.81	16678.66
888.99	16379.65
889.16	16273.16
889.33	16418.57
889.50	16320.26
889.67	16418.57
889.84	16133.90
890.01	16301.83
890.19	16082.70
890.36	15980.30
890.53	15961.87
890.70	16207.62
890.87	16000.78
891.04	15884.05
891.22	16082.70
891.39	15968.01
891.56	15816.46
891.73	15793.94
891.90	16070.41
892.07	15709.97
892.24	15775.50
892.42	16008.97
892.59	15812.37
892.76	15550.23
892.93	15652.63
893.10	15697.68
893.27	15503.12
893.44	15582.99
893.61	15398.68
893.79	15689.49
893.96	15589.14
894.13	15634.19
894.30	15709.97
894.47	15554.32
894.64	15623.95
894.81	15644.43
894.98	15421.20
895.15	15556.37
895.33	15546.13
895.50	15359.77
895.67	15640.34
895.84	15380.25
896.01	15626.00
896.18	15499.03
896.35	15421.20
896.52	15226.65
896.69	15398.68
896.86	15408.92
897.04	15441.68
897.21	15279.89
897.38	15302.42
897.55	15234.84
897.72	15169.30
897.89	15390.49
898.06	15421.20
898.23	15427.35
898.40	15474.45
898.57	15482.64
898.74	15314.71
898.91	15318.81
899.08	15263.51
899.26	15093.53
899.43	15320.85
899.60	15271.70
899.77	15300.37
899.94	15290.13
900.11	15116.06
900.28	15378.20
900.45	15128.35
900.62	15044.38
900.79	15316.76
900.96	15281.94
901.13	15259.42
901.30	15015.71
901.47	14847.77
901.64	15212.31
901.81	15240.98
901.98	15210.26
902.15	15378.20
902.32	15126.30
902.49	15130.39
902.66	15091.48
902.83	15204.12
903.01	15124.25
903.18	15101.72
903.35	15120.15
903.52	14970.65
903.69	15111.96
903.86	15191.83
904.03	14987.04
904.20	15140.63
904.37	15288.09
904.54	15052.57
904.71	14892.83
904.88	15015.71
905.05	15011.61
905.22	15124.25
905.39	15167.26
905.56	15050.52
905.73	14937.88
905.90	14884.64
906.07	14843.68
906.24	15054.62
906.41	15216.41
906.58	15132.44
906.75	15046.43
906.92	15009.56
907.09	14948.12
907.26	15097.63
907.43	14831.39
907.60	14876.44
907.77	14972.70
907.93	14905.12
908.10	15001.37
908.27	14958.36
908.44	14706.46
908.61	14798.62
908.78	14931.74
908.95	14958.36
909.12	14731.04
909.29	14905.12
909.46	14704.42
909.63	14976.80
909.80	14833.44
909.97	14886.68
910.14	14849.82
910.31	14855.97
910.48	14815.01
910.65	14624.54
910.82	14612.26
910.99	14698.27
911.16	14696.22
911.33	14933.79
911.50	14624.54
911.66	14550.82
911.83	14614.30
912.00	14724.90
912.17	14456.61
912.34	14634.78
912.51	14341.93
912.68	14280.49
912.85	14591.78
913.02	14776.09
913.19	14235.43
913.36	14452.52
913.53	14567.20
913.70	14186.28
913.86	14575.39
914.03	14141.22
914.20	14139.18
914.37	14358.31
914.54	14251.81
914.71	14231.33
914.88	14143.27
915.05	14153.51
915.22	14069.55
915.39	14305.06
915.55	14212.90
915.72	13918.00
915.89	13891.37
916.06	13829.93
916.23	14065.45
916.40	13686.58
916.57	13705.01
916.74	13831.98
916.91	13664.05
917.07	13487.92
917.24	13614.90
917.41	13741.87
917.58	13731.63
917.75	13520.69
917.92	13371.19
918.09	13741.87
918.26	13401.91
918.42	13569.84
918.59	13375.28
918.76	13203.25
918.93	13287.22
919.10	13041.46
919.27	13172.54
919.44	13281.08
919.60	13260.60
919.77	13061.94
919.94	13254.45
920.11	13012.79
920.28	12906.30
920.45	12932.92
920.61	12834.62
920.78	13029.18
920.95	12871.48
921.12	12660.54
921.29	12633.92
921.46	12488.51
921.62	12457.79
921.79	12721.98
921.96	12404.55
922.13	12504.90
922.30	12629.82
922.47	12549.95
922.63	12300.10
922.80	12474.18
922.97	12166.98
923.14	12009.29
923.31	12150.60
923.47	12013.38
923.64	12437.31
923.81	12130.12
923.98	12070.73
924.15	12046.15
924.32	11857.74
924.48	11814.73
924.65	12046.15
924.82	11822.92
924.99	11759.44
925.15	11642.70
925.32	11816.78
925.49	11564.88
925.66	11450.19
925.83	11431.76
925.99	11229.01
926.16	11626.32
926.33	11382.61
926.50	11061.08
926.67	11476.82
926.83	11335.51
927.00	11200.34
927.17	11265.88
927.34	10997.59
927.50	11110.23
927.67	11112.28
927.84	11110.23
928.01	11067.22
928.17	11007.83
928.34	11020.12
928.51	10811.23
928.68	10788.70
928.84	10694.49
929.01	10714.97
929.18	10452.83
929.35	10618.72
929.51	10463.07
929.68	10485.60
929.85	10436.45
930.02	10327.91
930.18	10594.14
930.35	10516.32
930.52	10225.51
930.69	10307.43
930.85	10354.53
931.02	10145.64
931.19	10065.77
931.36	10133.35
931.52	9830.25
931.69	10125.16
931.86	10033.00
932.02	9949.03
932.19	10014.57
932.36	9869.16
932.53	9938.79
932.69	9715.56
932.86	9932.65
933.03	9615.21
933.19	9586.54
933.36	9475.95
933.53	9506.67
933.70	9428.85
933.86	9555.82
934.03	9359.22
934.20	9207.67
934.36	9258.87
934.53	9283.44
934.70	9107.32
934.86	8988.53
935.03	8806.27
935.20	8832.89
935.36	8738.68
935.53	8843.13
935.70	8660.86
935.86	8859.51
936.03	8509.31
936.20	8474.49
936.36	8392.58
936.53	8398.72
936.70	8279.94
936.86	8421.25
937.03	8175.49
937.20	8122.24
937.36	8247.17
937.53	7645.07
937.70	7901.06
937.86	7745.42
938.03	7774.09
938.20	7745.42
938.36	7542.67
938.53	7647.12
938.70	7442.32
938.86	7458.70
939.03	7184.27
939.20	7116.69
939.36	7178.13
939.53	7063.44
939.70	7128.98
939.86	7057.30
940.03	6662.04
940.19	6651.80
940.36	6707.10
940.53	6772.63
940.69	6547.36
940.86	6506.40
941.03	6479.77
941.19	6340.51
941.36	6299.55
941.52	6252.45
941.69	6174.63
941.86	6131.62
942.02	6059.94
942.19	6148.00
942.35	6119.33
942.52	6072.23
942.69	5849.00
942.85	5783.46
943.02	5672.87
943.18	5861.29
943.35	5679.02
943.52	5738.41
943.68	5613.48
943.85	5656.49
944.01	5552.04
944.18	5427.12
944.35	5631.91
944.51	5484.46
944.68	5296.05
944.84	5453.74
945.01	5371.82
945.17	5337.01
945.34	5320.62
945.51	5410.73
945.67	5306.29
945.84	5257.14
946.00	5255.09
946.17	5443.50
946.33	5334.96
946.50	5478.32
946.67	5259.18
946.83	5220.27
947.00	5367.73
947.16	5152.69
947.33	5304.24
947.49	5089.20
947.66	5099.44
947.82	5240.75
947.99	5140.40
948.16	5349.29
948.32	5119.92
948.49	5277.62
948.65	5234.61
948.82	5234.61
948.98	5195.70
949.15	5033.91
949.31	5232.56
949.48	5181.36
949.64	5234.61
949.81	5300.14
949.97	5117.87
950.14	5216.18
950.30	5210.03
950.47	5357.49
950.63	5056.43
950.80	5306.29
950.96	5142.45
951.13	5271.47
951.30	5226.42
951.46	5271.47
951.63	5197.74
951.79	5273.52
951.96	5371.82
952.12	5357.49
952.29	5185.46
952.45	5199.79
952.62	5191.60
952.78	5296.05
952.94	5279.66
953.11	5238.70
953.27	5287.86
953.44	5468.08
953.60	5347.25
953.77	5408.69
953.93	5347.25
954.10	5162.93
954.26	5216.18
954.43	5265.33
954.59	5361.58
954.76	5423.02
954.92	5369.77
955.09	5257.14
955.25	5101.49
955.42	5314.48
955.58	5447.60
955.75	5330.86
955.91	5320.62
956.07	5365.68
956.24	5429.17
956.40	5447.60
956.57	5373.87
956.73	5351.34
956.90	5447.60
957.06	5300.14
957.23	5207.98
957.39	5423.02
957.56	5529.52
957.72	5404.59
957.88	5392.30
958.05	5459.88
958.21	5566.38
958.38	5388.21
958.54	5181.36
958.71	5386.16
958.87	5357.49
959.03	5238.70
959.20	5398.45
959.36	5242.80
959.53	5359.53
959.69	5275.57
959.85	5482.41
960.02	5357.49
960.18	5349.29
960.35	5392.30
960.51	5461.93
960.68	5263.28
960.84	5357.49
961.00	5294.00
961.17	5441.45
961.33	5386.16
961.50	5371.82
961.66	5529.52
961.82	5427.12
961.99	5312.43
962.15	5306.29
962.31	5273.52
962.48	5332.91
962.64	5347.25
962.81	5341.10
962.97	5363.63
963.13	5427.12
963.30	5388.21
963.46	5296.05
963.62	5222.32
963.79	5253.04
963.95	5246.90
964.12	5261.23
964.28	5304.24
964.44	5287.86
964.61	5488.56
964.77	5240.75
964.93	5468.08
965.10	5277.62
965.26	5281.71
965.42	5261.23
965.59	5355.44
965.75	5345.20
965.92	5244.85
966.08	5224.37
966.24	5296.05
966.41	5226.42
966.57	5181.36
966.73	5121.97
966.90	5300.14
967.06	5273.52
967.22	5246.90
967.39	5187.50
967.55	5246.90
967.71	5083.06
967.88	5076.91
968.04	5042.10
968.20	5240.75
968.37	4982.71
968.53	5179.31
968.69	5173.17
968.85	5218.22
969.02	5134.26
969.18	5173.17
969.34	5154.74
969.51	5060.53
969.67	5128.11
969.83	4992.95
970.00	4992.95
970.16	4976.56
970.32	5095.35
970.48	5283.76
970.65	5040.05
970.81	4911.03
970.97	5064.63
971.14	4788.15
971.30	5087.15
971.46	4927.41
971.63	4904.89
971.79	4919.22
971.95	4945.84
972.11	4835.25
972.28	4904.89
972.44	5054.39
972.60	4902.84
972.76	4931.51
972.93	4751.29
973.09	4857.78
973.25	4892.60
973.42	4857.78
973.58	4822.97
973.74	4859.83
973.90	4802.49
974.07	4822.97
974.23	4853.69
974.39	4853.69
974.55	4792.25
974.72	4779.96
974.88	4605.88
975.04	4806.58
975.20	4652.98
975.37	4771.77
975.53	4614.07
975.69	4702.14
975.85	4687.80
976.01	4718.52
976.18	4698.04
976.34	4663.22
976.50	4784.06
976.66	4667.32
976.83	4607.93
976.99	4556.73
977.15	4454.33
977.31	4466.62
977.47	4624.31
977.64	4616.12
977.80	4626.36
977.96	4544.44
978.12	4626.36
978.29	4536.25
978.45	4480.96
978.61	4454.33
978.77	4669.37
978.93	4501.44
979.10	4456.38
979.26	4470.72
979.42	4509.63
979.58	4300.73
979.74	4485.05
979.91	4526.01
980.07	4384.70
980.23	4452.28
980.39	4413.37
980.55	4419.52
980.71	4483.00
980.88	4421.56
981.04	4505.53
981.20	4327.36
981.36	4407.23
981.52	4460.48
981.68	4245.44
981.85	4493.24
982.01	4415.42
982.17	4315.07
982.33	4390.84
982.49	4353.98
982.65	4347.84
982.82	4167.62
982.98	4224.96
983.14	4229.06
983.30	4304.83
983.46	4356.03
983.62	4247.49
983.79	4097.99
983.95	4149.18
984.11	4171.71
984.27	4134.85
984.43	4169.66
984.59	4153.28
984.75	4153.28
984.91	4024.26
985.08	4294.59
985.24	4038.59
985.40	4059.07
985.56	4026.31
985.72	4198.34
985.88	4157.38
986.04	4100.03
986.20	4061.12
986.37	4046.79
986.53	4030.40
986.69	4087.75
986.85	3983.30
987.01	4020.16
987.17	4054.98
987.33	3983.30
987.49	3899.33
987.65	3964.87
987.82	3987.40
987.98	3866.56
988.14	4032.45
988.30	3936.20
988.46	3837.89
988.62	3942.34
988.78	3882.95
988.94	3803.08
989.10	3899.33
989.26	3868.61
989.42	3743.69
989.59	3751.88
989.75	3833.80
989.91	3788.74
990.07	3725.26
990.23	3743.69
990.39	3706.82
990.55	3823.56
990.71	3841.99
990.87	3784.65
991.03	3936.20
991.19	3731.40
991.35	3704.78
991.51	3639.24
991.67	3715.02
991.83	3735.50
992.00	3760.07
992.16	3715.02
992.32	3690.44
992.48	3739.59
992.64	3596.23
992.80	3712.97
992.96	3600.33
993.12	3629.00
993.28	3686.34
993.44	3633.10
993.60	3618.76
993.76	3651.53
993.92	3631.05
994.08	3729.35
994.24	3704.78
994.40	3516.36
994.56	3657.67
994.72	3512.27
994.88	3479.50
995.04	3459.02
995.20	3553.23
995.36	3590.09
995.52	3569.61
995.68	3569.61
995.84	3549.13
996.00	3491.79
996.16	3430.35
996.32	3563.47
996.48	3440.59
996.64	3559.37
996.80	3397.58
996.96	3497.93
997.12	3461.07
997.28	3334.09
997.44	3370.96
997.60	3438.54
997.76	3344.33
997.92	3450.83
998.08	3440.59
998.24	3383.24
998.40	3368.91
998.56	3395.53
998.72	3360.72
998.88	3272.65
999.04	3243.98
999.20	3317.71
999.36	3289.04
999.52	3325.90
999.68	3397.58
999.84	3344.33
1000.00	3356.62
1000.16	3389.39
1000.32	3264.46
1000.48	3424.20
1000.64	3162.06
1000.80	3141.58
1000.95	3203.02
1001.11	3323.85
1001.27	3100.62
1001.43	3192.78
1001.59	3190.74
1001.75	3123.15
1001.91	3182.54
1002.07	3149.78
1002.23	3137.49
1002.39	3221.45
1002.55	3100.62
1002.71	3125.20
1002.87	3078.10
1003.03	3133.39
1003.19	3194.83
1003.34	3203.02
1003.50	3090.38
1003.66	3182.54
1003.82	3088.34
1003.98	3055.57
1004.14	3067.86
1004.30	3057.62
1004.46	2981.84
1004.62	2983.89
1004.78	3059.67
1004.94	3129.30
1005.09	3094.48
1005.25	3016.66
1005.41	2920.40
1005.57	2994.13
1005.73	2924.50
1005.89	2944.98
1006.05	2963.41
1006.21	3051.47
1006.37	2850.77
1006.52	2838.48
1006.68	2875.35
1006.84	3094.48
1007.00	2813.91
1007.16	2877.40
1007.32	2826.20
1007.48	2975.70
1007.64	2967.51
1007.79	2854.87
1007.95	2818.00
1008.11	2947.03
1008.27	2861.01
1008.43	2918.36
1008.59	2891.73
1008.75	2871.25
1008.91	2912.21
1009.06	2895.83
1009.22	2889.68
1009.38	2875.35
1009.54	2826.20
1009.70	2811.86
1009.86	2764.76
1010.01	2879.44
1010.17	2760.66
1010.33	2787.29
1010.49	2811.86
1010.65	2885.59
1010.81	2688.98
1010.96	2709.46
1011.12	2641.88
1011.28	2699.22
1011.44	2795.48
1011.60	2740.18
1011.76	2594.78
1011.91	2713.56
1012.07	2594.78
1012.23	2600.92
1012.39	2619.35
1012.55	2717.65
1012.71	2668.50
1012.86	2631.64
1013.02	2668.50
1013.18	2678.74
1013.34	2621.40
1013.50	2703.32
1013.65	2740.18
1013.81	2566.10
1013.97	2578.39
1014.13	2625.50
1014.29	2539.48
1014.44	2680.79
1014.60	2541.53
1014.76	2519.00
1014.92	2543.58
1015.07	2596.82
1015.23	2674.65
1015.39	2453.47
1015.55	2553.82
1015.71	2555.86
1015.86	2621.40
1016.02	2449.37
1016.18	2412.51
1016.34	2537.43
1016.49	2512.86
1016.65	2516.95
1016.81	2516.95
1016.97	2516.95
1017.12	2469.85
1017.28	2482.14
1017.44	2533.34
1017.60	2469.85
1017.75	2486.23
1017.91	2484.19
1018.07	2588.63
1018.23	2457.56
1018.38	2375.64
1018.54	2500.57
1018.70	2422.75
1018.86	2389.98
1019.01	2439.13
1019.17	2387.93
1019.33	2484.19
1019.49	2369.50
1019.64	2379.74
1019.80	2498.52
1019.96	2414.56
1020.12	2375.64
1020.27	2412.51
1020.43	2424.80
1020.59	2396.12
1020.74	2430.94
1020.90	2449.37
1021.06	2338.78
1021.22	2326.49
1021.37	2369.50
1021.53	2279.39
1021.69	2326.49
1021.84	2267.10
1022.00	2359.26
1022.16	2277.34
1022.31	2340.83
1022.47	2326.49
1022.63	2351.07
1022.79	2226.14
1022.94	2258.91
1023.10	2412.51
1023.26	2299.87
1023.41	2332.64
1023.57	2142.18
1023.73	2277.34
1023.88	2285.53
1024.04	2263.01
1024.20	2230.24
1024.35	2279.39
1024.51	2181.09
1024.67	2154.46
1024.82	2303.96
1024.98	2160.61
1025.14	2240.48
1025.29	2133.98
1025.45	2297.82
1025.61	2197.47
1025.76	2181.09
1025.92	2197.47
1026.08	2267.10
1026.23	2271.20
1026.39	2136.03
1026.55	2207.71
1026.70	2154.46
1026.86	2168.80
1027.02	2248.67
1027.17	2232.29
1027.33	2260.96
1027.48	2148.32
1027.64	2117.60
1027.80	2234.33
1027.95	2148.32
1028.11	2113.50
1028.27	2195.42
1028.42	2117.60
1028.58	2119.65
1028.73	2066.40
1028.89	2093.02
1029.05	2133.98
1029.20	2099.17
>>>>>End Processed Spectral Data<<<<<
