SpectraSuite Data File
++++++++++++++++++++++++++++++++++++
Date: Fri Jun 02 14:53:30 CEST 2017
User: INFO_000
Dark Spectrum Present: No
Reference Spectrum Present: No
Number of Sampled Component Spectra: 1
Spectrometers: USB4H00879
Integration Time (usec): 80000 (USB4H00879)
Spectra Averaged: 1 (USB4H00879)
Boxcar Smoothing: 0 (USB4H00879)
Correct for Electrical Dark: No (USB4H00879)
Strobe/Lamp Enabled: No (USB4H00879)
Correct for Detector Non-linearity: No (USB4H00879)
Correct for Stray Light: No (USB4H00879)
Number of Pixels in Processed Spectrum: 3648
>>>>>Begin Processed Spectral Data<<<<<
345.13	1290.22
345.34	1290.22
345.56	1290.22
345.78	1275.88
345.99	1249.26
346.21	1673.19
346.42	1781.73
346.64	1738.73
346.86	1798.12
347.07	1636.33
347.29	1648.61
347.50	1628.14
347.72	1650.66
347.94	1705.96
348.15	1595.37
348.37	1617.90
348.59	1634.28
348.80	1634.28
349.02	1800.16
349.23	1814.50
349.45	1808.36
349.67	1888.23
349.88	1830.88
350.10	1986.53
350.31	1773.54
350.53	1796.07
350.75	1957.86
350.96	1810.40
351.18	1896.42
351.39	1894.37
351.61	1783.78
351.82	1890.28
352.04	1931.23
352.26	1841.12
352.47	1945.57
352.69	1935.33
352.90	1763.30
353.12	1896.42
353.34	1888.23
353.55	1894.37
353.77	1882.08
353.98	1828.84
354.20	1859.56
354.41	1904.61
354.63	1961.95
354.85	2084.83
355.06	1970.15
355.28	1783.78
355.49	1914.85
355.71	1869.80
355.92	1877.99
356.14	1871.84
356.35	1951.71
356.57	1884.13
356.79	1867.75
357.00	1802.21
357.22	2009.06
357.43	1875.94
357.65	2025.44
357.86	1880.04
358.08	1912.80
358.29	1837.03
358.51	1984.48
358.72	1875.94
358.94	1886.18
359.16	1916.90
359.37	1953.76
359.59	1949.67
359.80	1957.86
360.02	1972.19
360.23	1978.34
360.45	2037.73
360.66	1935.33
360.88	1863.65
361.09	1918.95
361.31	1937.38
361.52	1918.95
361.74	2088.93
361.95	2023.39
362.17	1966.05
362.38	2072.54
362.60	2029.54
362.81	1994.72
363.03	1966.05
363.24	2019.30
363.46	2035.68
363.67	2041.82
363.89	2013.15
364.10	2047.97
364.32	2045.92
364.53	2052.06
364.75	1904.61
364.96	2041.82
365.18	2033.63
365.39	2097.12
365.61	1941.47
365.82	2115.55
366.04	2019.30
366.25	2025.44
366.47	2088.93
366.68	2068.45
366.90	1953.76
367.11	2127.84
367.33	2109.41
367.54	2078.69
367.76	1998.82
367.97	2148.32
368.19	2000.87
368.40	2058.21
368.62	1980.39
368.83	2017.25
369.05	2033.63
369.26	1970.15
369.48	2015.20
369.69	2072.54
369.91	2080.74
370.12	1935.33
370.33	2162.66
370.55	1996.77
370.76	2052.06
370.98	2086.88
371.19	2095.07
371.41	2050.02
371.62	2156.51
371.84	2019.30
372.05	2224.09
372.27	2109.41
372.48	2144.22
372.69	2103.26
372.91	2174.94
373.12	2203.61
373.34	2015.20
373.55	2179.04
373.77	2117.60
373.98	2117.60
374.20	2131.94
374.41	2254.81
374.62	2176.99
374.84	2158.56
375.05	2265.05
375.27	2142.18
375.48	2244.57
375.70	2215.90
375.91	2228.19
376.12	2334.68
376.34	2133.98
376.55	2166.75
376.77	2254.81
376.98	2260.96
377.19	2115.55
377.41	2170.85
377.62	2209.76
377.84	2289.63
378.05	2344.92
378.27	2203.61
378.48	2269.15
378.69	2336.73
378.91	2375.64
379.12	2283.49
379.34	2316.25
379.55	2263.01
379.76	2314.20
379.98	2195.42
380.19	2287.58
380.41	2371.55
380.62	2420.70
380.83	2265.05
381.05	2260.96
381.26	2422.75
381.47	2297.82
381.69	2289.63
381.90	2428.89
382.12	2314.20
382.33	2191.33
382.54	2318.30
382.76	2334.68
382.97	2246.62
383.19	2263.01
383.40	2344.92
383.61	2338.78
383.83	2269.15
384.04	2416.60
384.25	2330.59
384.47	2396.12
384.68	2422.75
384.89	2320.35
385.11	2330.59
385.32	2369.50
385.54	2404.32
385.75	2373.60
385.96	2381.79
386.18	2502.62
386.39	2389.98
386.60	2412.51
386.82	2475.99
387.03	2461.66
387.24	2430.94
387.46	2394.08
387.67	2490.33
387.88	2508.76
388.10	2465.75
388.31	2455.51
388.52	2654.17
388.74	2570.20
388.95	2504.67
389.16	2486.23
389.38	2572.25
389.59	2607.06
389.80	2641.88
390.02	2529.24
390.23	2576.34
390.44	2564.06
390.66	2480.09
390.87	2572.25
391.08	2648.02
391.30	2688.98
391.51	2578.39
391.72	2709.46
391.94	2605.02
392.15	2656.22
392.36	2668.50
392.58	2590.68
392.79	2672.60
393.00	2746.33
393.22	2734.04
393.43	2805.72
393.64	2779.09
393.85	2752.47
394.07	2717.65
394.28	2719.70
394.49	2809.81
394.71	2742.23
394.92	2842.58
395.13	2789.33
395.35	2762.71
395.56	2781.14
395.77	2764.76
395.98	2840.53
396.20	2889.68
396.41	2906.07
396.62	2848.72
396.84	2813.91
397.05	2899.92
397.26	2947.03
397.47	3024.85
397.69	2846.68
397.90	3088.34
398.11	2949.08
398.32	2887.64
398.54	2992.08
398.75	3000.27
398.96	2944.98
399.18	3088.34
399.39	2973.65
399.60	3080.14
399.81	2959.31
400.03	2918.36
400.24	3303.37
400.45	2965.46
400.66	3090.38
400.88	2969.55
401.09	3289.04
401.30	3166.16
401.51	3192.78
401.73	3278.80
401.94	3133.39
402.15	3045.33
402.36	3149.78
402.58	3182.54
402.79	3182.54
403.00	3137.49
403.21	3276.75
403.43	3270.61
403.64	3334.09
403.85	3127.25
404.06	3362.76
404.27	3119.06
404.49	3200.98
404.70	3180.50
404.91	3352.52
405.12	3256.27
405.34	3334.09
405.55	3512.27
405.76	3172.30
405.97	3241.93
406.19	3344.33
406.40	3309.52
406.61	3334.09
406.82	3399.63
407.03	3311.57
407.25	3327.95
407.46	3450.83
407.67	3473.36
407.88	3432.40
408.09	3362.76
408.31	3407.82
408.52	3461.07
408.73	3348.43
408.94	3362.76
409.15	3553.23
409.37	3465.16
409.58	3411.92
409.79	3485.64
410.00	3639.24
410.21	3375.05
410.43	3612.62
410.64	3444.68
410.85	3590.09
411.06	3571.66
411.27	3538.89
411.48	3553.23
411.70	3661.77
411.91	3612.62
412.12	3622.86
412.33	3704.78
412.54	3569.61
412.76	3758.02
412.97	3678.15
413.18	3575.75
413.39	3657.67
413.60	3731.40
413.81	3672.01
414.03	3690.44
414.24	3674.06
414.45	3864.52
414.66	3626.95
414.87	3819.46
415.08	3743.69
415.30	3755.97
415.51	3749.83
415.72	3751.88
415.93	3727.30
416.14	3755.97
416.35	3835.85
416.56	3895.24
416.78	3846.09
416.99	3858.37
417.20	3899.33
417.41	3934.15
417.62	3831.75
417.83	3993.54
418.04	3882.95
418.26	3999.68
418.47	4044.74
418.68	4100.03
418.89	4073.41
419.10	4136.90
419.31	3954.63
419.52	4024.26
419.73	4030.40
419.95	4003.78
420.16	3975.11
420.37	4046.79
420.58	4108.23
420.79	4085.70
421.00	4259.78
421.21	4188.10
421.42	4034.50
421.63	4292.54
421.85	4138.94
422.06	4153.28
422.27	4417.47
422.48	4227.01
422.69	4401.08
422.90	4282.30
423.11	4243.39
423.32	4345.79
423.53	4353.98
423.75	4368.32
423.96	4470.72
424.17	4464.57
424.38	4476.86
424.59	4360.13
424.80	4566.97
425.01	4394.94
425.22	4435.90
425.43	4507.58
425.64	4603.83
425.85	4739.00
426.06	4493.24
426.28	4523.96
426.49	4521.92
426.70	4581.31
426.91	4714.42
427.12	4657.08
427.33	4714.42
427.54	4700.09
427.75	4704.18
427.96	4700.09
428.17	4870.07
428.38	4761.53
428.59	4947.89
428.80	4896.69
429.01	4939.70
429.23	4829.11
429.44	4941.75
429.65	5019.57
429.86	5015.48
430.07	4919.22
430.28	5005.24
430.49	5033.91
430.70	5066.67
430.91	5093.30
431.12	5044.15
431.33	5179.31
431.54	5111.73
431.75	5185.46
431.96	5179.31
432.17	5099.44
432.38	5074.87
432.59	5480.36
432.80	5353.39
433.01	5263.28
433.22	5433.26
433.43	5412.78
433.64	5341.10
433.85	5232.56
434.06	5480.36
434.27	5349.29
434.49	5345.20
434.70	5547.95
434.91	5449.64
435.12	5513.13
435.33	5576.62
435.54	5509.04
435.75	5398.45
435.96	5412.78
436.17	5337.01
436.38	5597.10
436.59	5701.54
436.80	5550.00
437.01	5740.46
437.22	5711.78
437.43	5754.79
437.64	5748.65
437.85	5920.68
438.06	5849.00
438.27	5824.42
438.48	5799.85
438.69	5812.14
438.90	5926.82
439.11	5668.78
439.32	5830.57
439.53	5975.97
439.74	5918.63
439.95	6025.12
440.16	5871.53
440.37	5975.97
440.57	5775.27
440.78	6139.81
440.99	6174.63
441.20	5990.31
441.41	5963.68
441.62	6184.87
441.83	5853.09
442.04	6092.71
442.25	6084.52
442.46	6201.25
442.67	6215.59
442.88	6778.78
443.09	6152.10
443.30	6295.46
443.51	6274.98
443.72	6528.92
443.93	6238.11
444.14	6565.79
444.35	6227.87
444.56	6375.33
444.77	6375.33
444.98	6334.37
445.19	6414.24
445.40	6406.05
445.61	6414.24
445.81	6631.32
446.02	6631.32
446.23	6494.11
446.44	6559.64
446.65	6602.65
446.86	6596.51
447.07	6713.24
447.28	6809.50
447.49	6846.36
447.70	6696.86
447.91	6612.89
448.12	6705.05
448.33	6932.37
448.54	6723.48
448.74	6725.53
448.95	6930.33
449.16	6795.16
449.37	7047.06
449.58	6881.18
449.79	7204.75
450.00	6969.24
450.21	7018.39
450.42	7096.21
450.63	7219.09
450.84	6922.13
451.05	7141.27
451.25	7147.41
451.46	6956.95
451.67	7337.87
451.88	7258.00
452.09	7286.67
452.30	7153.55
452.51	7249.81
452.72	7425.93
452.93	7610.25
453.13	7319.44
453.34	7470.99
453.55	7335.82
453.76	7176.08
453.97	7804.81
454.18	7382.93
454.39	7735.18
454.60	7425.93
454.81	7618.44
455.01	7847.82
455.22	7468.94
455.43	7647.12
455.64	7776.14
455.85	7839.62
456.06	8079.24
456.27	7747.47
456.48	7810.95
456.68	8023.94
456.89	8075.14
457.10	8114.05
457.31	7978.89
457.52	8030.09
457.73	8021.89
457.94	8345.47
458.14	8222.59
458.35	8478.59
458.56	8255.36
458.77	8253.31
458.98	8292.23
459.19	8226.69
459.39	8351.62
459.60	8591.23
459.81	8316.80
460.02	8503.17
460.23	8619.90
460.44	8802.17
460.65	8570.75
460.85	8662.91
461.06	8966.01
461.27	8513.41
461.48	8994.68
461.69	8941.43
461.89	8636.28
462.10	8859.51
462.31	8777.59
462.52	8789.88
462.73	8955.77
462.94	9160.56
463.14	9160.56
463.35	9133.94
463.56	9498.48
463.77	9490.29
463.98	9113.46
464.18	9269.11
464.39	9441.14
464.60	9662.32
464.81	9635.69
465.02	9705.32
465.23	9856.87
465.43	9666.41
465.64	9881.45
465.85	9707.37
466.06	9920.36
466.27	10133.35
466.47	10039.14
466.68	10084.20
466.89	9998.18
467.10	10227.56
467.30	10014.57
467.51	10405.73
467.72	10506.08
467.93	10231.65
468.14	10413.92
468.34	10379.11
468.55	10559.33
468.76	10653.53
468.97	10489.70
469.17	10717.02
469.38	10880.86
469.59	10940.25
469.80	10833.75
470.01	10864.47
470.21	10897.24
470.42	11212.63
470.63	11171.67
470.84	11171.67
471.04	11415.38
471.25	11210.58
471.46	11216.72
471.67	11546.45
471.87	11630.41
472.08	11577.17
472.29	11519.82
472.50	11597.65
472.70	11624.27
472.91	11595.60
473.12	11849.55
473.33	12062.54
473.53	12257.09
473.74	12134.21
473.95	12592.96
474.16	12377.92
474.36	12552.00
474.57	12431.17
474.78	12681.02
474.99	12578.62
475.19	12711.74
475.40	12969.79
475.61	13012.79
475.81	13018.94
476.02	13342.52
476.23	12906.30
476.44	13274.93
476.64	13731.63
476.85	13784.88
477.06	13504.31
477.27	13961.00
477.47	13961.00
477.68	14059.31
477.89	13934.38
478.09	13993.77
478.30	14167.85
478.51	13903.66
478.71	14204.71
478.92	14288.68
479.13	14370.60
479.34	14675.74
479.54	14718.75
479.75	14769.95
479.96	14894.88
480.16	14843.68
480.37	14878.49
480.58	15118.11
480.78	15294.23
480.99	15306.52
481.20	15560.47
481.41	15417.11
481.61	15634.19
481.82	15791.89
482.03	15728.40
482.23	15673.10
482.44	16398.09
482.65	16228.10
482.85	16185.10
483.06	16234.25
483.27	16465.67
483.47	16248.58
483.68	16377.61
483.89	16686.85
484.09	16824.06
484.30	16742.14
484.51	16973.56
484.71	17139.45
484.92	17204.99
485.13	16951.04
485.33	17446.65
485.54	17168.12
485.75	17487.61
485.95	17768.18
486.16	17577.72
486.37	18102.00
486.57	17794.80
486.78	17891.06
486.98	17981.17
487.19	18097.90
487.40	18276.07
487.60	18349.80
487.81	18595.56
488.02	18362.09
488.22	18269.93
488.43	18444.01
488.64	18806.50
488.84	18812.64
489.05	18927.33
489.25	18767.59
489.46	19074.78
489.67	18990.81
489.87	19533.53
490.08	19402.46
490.29	19285.72
490.49	20035.28
490.70	19932.88
490.90	19934.93
491.11	19627.73
491.32	19844.82
491.52	20266.70
491.73	20278.99
491.94	20260.55
492.14	20432.58
492.35	20776.64
492.55	20479.69
492.76	20680.39
492.97	20629.19
493.17	20805.31
493.38	21014.21
493.58	21202.62
493.79	21253.82
494.00	21042.88
494.20	21184.19
494.41	21284.54
494.61	21681.85
494.82	21575.35
495.02	21728.95
495.23	21692.08
495.44	21706.42
495.64	22060.72
495.85	21952.18
496.05	22169.26
496.26	22046.38
496.47	22435.50
496.67	22312.62
496.88	22541.99
497.08	21968.56
497.29	22613.67
497.49	22486.70
497.70	22904.48
497.91	22718.12
498.11	22834.85
498.32	22892.19
498.52	23013.02
498.73	23330.46
498.93	23342.75
499.14	23502.49
499.34	23162.53
499.55	23531.16
499.76	23111.33
499.96	23365.28
500.17	23807.64
500.37	23791.25
500.58	23740.05
500.78	23922.32
500.99	24026.77
501.19	24084.11
501.40	23985.81
501.60	23901.84
501.81	24424.08
502.02	24266.38
502.22	23871.12
502.43	24708.74
502.63	24501.90
502.84	24626.82
503.04	24549.00
503.25	24346.25
503.45	24727.17
503.66	24880.77
503.86	24768.13
504.07	25257.60
504.27	24827.53
504.48	25310.85
504.68	25069.19
504.89	25300.61
505.09	25067.14
505.30	25382.52
505.50	25400.96
505.71	25585.27
505.91	25646.71
506.12	25570.94
506.32	25462.40
506.53	25806.45
506.73	25769.59
506.94	26115.70
507.14	25706.10
507.35	25953.91
507.55	25726.58
507.76	26183.28
507.96	26271.34
508.17	26373.74
508.37	26400.37
508.58	26234.48
508.78	26728.04
508.99	26875.49
509.19	26517.10
509.40	26728.04
509.60	26472.04
509.81	26848.87
510.01	26680.94
510.22	26478.19
510.42	26857.06
510.63	26590.83
510.83	26756.71
511.04	26707.56
511.24	27104.87
511.44	27246.18
511.65	27190.88
511.85	27133.54
512.06	27008.61
512.26	27082.34
512.47	27221.60
512.67	27393.63
512.88	27569.76
513.08	27092.58
513.29	27770.46
513.49	27295.33
513.69	27618.91
513.90	27618.91
514.10	27246.18
514.31	27780.70
514.51	27758.17
514.72	27760.22
514.92	27612.76
515.13	27711.07
515.33	27913.81
515.53	27854.42
515.74	28085.84
515.94	28409.42
516.15	27985.49
516.35	27815.51
516.56	28223.06
516.76	28077.65
516.96	28231.25
517.17	28569.16
517.37	28294.74
517.58	28481.10
517.78	28679.75
517.99	28716.62
518.19	28935.75
518.39	28851.78
518.60	28974.66
518.80	28972.61
519.01	29036.10
519.21	29056.58
519.41	29165.12
519.62	29042.24
519.82	29496.89
520.03	29316.67
520.23	29259.33
520.43	29285.95
520.64	29554.24
520.84	29898.30
521.05	29541.95
521.25	29613.63
521.45	29615.68
521.66	29818.42
521.86	29808.19
522.07	30080.56
522.27	29722.17
522.47	30201.40
522.68	30375.47
522.88	30211.64
523.08	30262.83
523.29	30512.69
523.49	30574.13
523.70	30572.08
523.90	30451.25
524.10	30344.75
524.31	30694.96
524.51	30553.65
524.71	31221.28
524.92	31018.53
525.12	30903.85
525.33	31204.90
525.53	30783.02
525.73	31088.17
525.94	31559.20
526.14	31553.05
526.34	31565.34
526.55	31317.54
526.75	31249.96
526.95	32122.39
527.16	31690.27
527.36	31817.24
527.56	32036.38
527.77	32243.22
527.97	31847.96
528.17	32136.73
528.38	32396.82
528.58	32335.38
528.78	32216.60
528.99	32554.51
529.19	32990.73
529.39	32388.63
529.60	33039.88
529.80	32554.51
530.00	32802.32
530.21	32900.62
530.41	33650.17
530.61	32953.87
530.82	33175.05
531.02	33181.19
531.22	33312.26
531.43	33697.28
531.63	33472.00
531.83	33949.18
532.04	33965.56
532.24	33672.70
532.44	34162.17
532.64	34452.98
532.85	34098.68
533.05	34094.58
533.25	34522.61
533.46	34307.57
533.66	34889.20
533.86	34522.61
534.07	34973.16
534.27	34715.12
534.47	35055.08
534.67	35108.33
534.88	34829.80
535.08	34948.59
535.28	35470.82
535.49	35442.15
535.69	35648.99
535.89	35681.76
536.09	35614.18
536.30	35780.06
536.50	35663.33
536.70	35692.00
536.91	36365.78
537.11	36257.24
537.31	36259.29
537.51	36308.44
537.72	36541.91
537.92	36429.27
538.12	36916.68
538.32	36625.87
538.53	36957.64
538.73	36666.83
538.93	36582.87
539.13	36865.49
539.34	37070.28
539.54	36908.49
539.74	36955.60
539.94	37094.86
540.15	36967.88
540.35	37459.40
540.55	37494.21
540.75	37496.26
540.96	37541.32
541.16	37682.62
541.36	37539.27
541.56	37598.66
541.77	37817.79
541.97	37492.16
542.17	37795.26
542.37	37940.67
542.58	38305.21
542.78	38086.07
542.98	38133.18
543.18	38151.61
543.38	38727.09
543.59	38493.62
543.79	38493.62
543.99	38618.55
544.19	38745.52
544.40	38639.03
544.60	39208.36
544.80	38565.30
545.00	39263.66
545.20	39275.94
545.41	39267.75
545.61	38792.62
545.81	39867.81
546.01	39679.39
546.21	39671.20
546.42	39632.29
546.62	39665.06
546.82	39722.40
547.02	39755.17
547.22	40072.60
547.43	39912.86
547.63	40134.04
547.83	39785.89
548.03	40101.28
548.23	39992.73
548.44	40109.47
548.64	40347.03
548.84	40674.71
549.04	40021.41
549.24	40273.31
549.45	40852.88
549.65	40385.94
549.85	40562.07
550.05	40607.12
550.25	40527.25
550.45	41047.44
550.66	40617.36
550.86	40574.36
551.06	41280.91
551.26	41129.36
551.46	41104.78
551.66	40955.28
551.87	41100.68
552.07	41559.43
552.27	41252.23
552.47	41403.78
552.67	41592.20
552.87	41299.34
553.07	41477.51
553.28	41495.94
553.48	41651.59
553.68	41815.43
553.88	41817.47
554.08	42149.24
554.28	41901.44
554.48	42050.94
554.69	42130.81
554.89	41569.67
555.09	42091.90
555.29	41809.28
555.49	42124.67
555.69	42319.23
555.89	42112.38
556.10	42452.34
556.30	42395.00
556.50	42192.25
556.70	42296.70
556.90	43007.34
557.10	42462.58
557.30	42685.81
557.50	42759.54
557.70	42579.32
557.91	43001.20
558.11	42941.81
558.31	42921.33
558.51	42923.38
558.71	42970.48
558.91	43070.83
559.11	42964.34
559.31	42941.81
559.51	42626.42
559.72	42894.71
559.92	43521.38
560.12	43373.93
560.32	43605.35
560.52	42988.91
560.72	43799.91
560.92	43509.10
561.12	43509.10
561.32	43674.98
561.52	43535.72
561.72	43795.81
561.93	43687.27
562.13	43763.04
562.33	43750.76
562.53	43955.55
562.73	43625.83
562.93	43992.42
563.13	44025.18
563.33	43701.61
563.53	43969.89
563.73	43830.63
563.93	44574.04
564.13	44070.24
564.33	44088.67
564.53	44168.54
564.74	44674.39
564.94	44000.61
565.14	44316.00
565.34	43949.41
565.54	44434.78
565.74	44561.75
565.94	44936.53
566.14	44293.47
566.34	44655.96
566.54	44815.70
566.74	44574.04
566.94	44836.18
567.14	44932.43
567.34	44545.37
567.54	44909.91
567.74	44836.18
567.94	44807.51
568.14	45139.28
568.34	45350.22
568.54	45301.07
568.74	45286.73
568.94	45260.11
569.14	45442.38
569.34	45135.18
569.54	45610.31
569.75	45198.67
569.95	45393.23
570.15	46015.81
570.35	45448.52
570.55	45444.43
570.75	45798.73
570.95	45796.68
571.15	45430.09
571.35	45647.18
571.55	45847.88
571.75	45688.13
571.95	45681.99
572.15	45393.23
572.35	45944.13
572.55	45823.30
572.75	46095.68
572.95	46290.24
573.15	46480.70
573.35	45874.50
573.55	45915.46
573.75	46376.25
573.95	46312.77
574.15	45970.75
574.35	46529.85
574.55	46298.43
574.75	46388.54
574.95	46916.92
575.15	46417.21
575.34	46685.50
575.54	46767.41
575.74	47027.51
575.94	46818.61
576.14	47043.89
576.34	47111.47
576.54	47117.62
576.74	47142.19
576.94	46548.28
577.14	47402.28
577.34	47557.93
577.54	47007.03
577.74	47410.48
577.94	47711.53
578.14	47682.86
578.34	47719.72
578.54	47306.03
578.74	47168.82
578.94	47390.00
579.14	47549.74
579.34	47228.21
579.54	47887.65
579.74	48043.30
579.94	47742.25
580.13	47746.34
580.33	47914.28
580.53	48223.52
580.73	48010.53
580.93	47863.08
581.13	47904.04
581.33	48334.11
581.53	48436.51
581.73	48215.33
581.93	48495.90
582.13	48368.93
582.33	49024.28
582.53	48235.81
582.73	48661.79
582.92	48649.50
583.12	49061.14
583.32	48606.49
583.52	48469.28
583.72	48825.62
583.92	48741.66
584.12	49132.82
584.32	49722.63
584.52	49497.36
584.72	48956.69
584.92	49202.45
585.11	49511.69
585.31	49059.09
585.51	49530.12
585.71	49472.78
585.91	49700.11
586.11	49200.40
586.31	48909.59
586.51	49616.14
586.71	49478.92
586.91	49739.02
587.10	49784.07
587.30	50064.64
587.50	49992.97
587.70	50027.78
587.90	50083.08
588.10	49984.77
588.30	49730.83
588.50	50337.02
588.69	50164.99
588.89	49607.95
589.09	49904.90
589.29	50124.04
589.49	50480.38
589.69	50042.12
589.89	50164.99
590.08	50334.98
590.28	50427.13
590.48	49939.72
590.68	49900.81
590.88	50627.84
591.08	50734.33
591.28	49624.33
591.47	50707.71
591.67	50742.52
591.87	50263.30
592.07	50621.69
592.27	50779.39
592.47	50912.50
592.67	50986.23
592.86	50593.02
593.06	50865.40
593.26	50992.37
593.46	50932.98
593.66	50859.26
593.86	50664.70
594.05	50973.94
594.25	51336.43
594.45	50951.41
594.65	51274.99
594.85	50918.65
595.05	51498.22
595.24	51209.46
595.44	51500.27
595.64	51516.65
595.84	51047.67
596.04	51627.24
596.23	51543.28
596.43	51905.77
596.63	51614.96
596.83	51604.72
597.03	51762.41
597.22	52131.04
597.42	51918.06
597.62	52032.74
597.82	52126.95
598.02	52012.26
598.21	52024.55
598.41	51590.38
598.61	51944.68
598.81	51709.16
599.01	52114.66
599.20	52460.77
599.40	51877.10
599.60	52364.51
599.80	52065.51
600.00	52341.99
600.19	52749.53
600.39	52448.48
600.59	52675.80
600.79	52851.93
600.98	52724.96
601.18	52827.35
601.38	52663.52
601.58	52839.64
601.78	52704.48
601.97	53087.45
602.17	53101.78
602.37	52978.90
602.57	53159.12
602.76	53294.29
602.96	52684.00
603.16	53234.90
603.36	52950.23
603.55	53228.76
603.75	52794.59
603.95	53497.04
604.15	53550.29
604.34	53507.28
604.54	53193.94
604.74	53523.66
604.94	53245.14
605.13	53822.67
605.33	53480.66
605.53	53646.54
605.73	53826.76
605.92	53519.57
606.12	53900.49
606.32	53658.83
606.52	53609.68
606.71	54013.13
606.91	53953.74
607.11	53888.20
607.30	53834.95
607.50	53847.24
607.70	54232.26
607.90	53828.81
608.09	53597.39
608.29	54465.73
608.49	54287.56
608.68	54576.32
608.88	54500.54
609.08	54570.18
609.28	54744.25
609.47	54181.06
609.67	54533.31
609.87	54156.49
610.06	54760.64
610.26	54539.46
610.46	54678.72
610.66	54191.30
610.85	54500.54
611.05	54518.98
611.25	54475.97
611.44	54258.88
611.64	54320.32
611.84	54269.12
612.03	54326.47
612.23	54443.20
612.43	54545.60
612.62	54385.86
612.82	54826.17
613.02	54734.01
613.21	54486.21
613.41	54291.65
613.61	54686.91
613.80	54721.72
614.00	54746.30
614.20	54621.37
614.39	54549.70
614.59	54887.61
614.79	54850.75
614.98	54869.18
615.18	54906.04
615.38	54834.36
615.57	54375.62
615.77	54889.66
615.97	55012.54
616.16	54709.44
616.36	54478.02
616.56	54514.88
616.75	54809.79
616.95	54662.33
617.15	54160.58
617.34	54580.42
617.54	54559.94
617.74	54910.14
617.93	54992.06
618.13	54482.11
618.32	54660.29
618.52	54205.64
618.72	54787.26
618.91	54660.29
619.11	54299.84
619.31	54426.82
619.50	54228.16
619.70	54422.72
619.90	54830.27
620.09	55022.78
620.29	54731.96
620.48	54451.39
620.68	54774.97
620.88	54670.53
621.07	54516.93
621.27	54539.46
621.46	54129.86
621.66	54088.90
621.86	54547.65
622.05	54469.82
622.25	54901.95
622.44	54389.95
622.64	54447.30
622.84	54588.61
623.03	54285.51
623.23	54572.22
623.42	54596.80
623.62	54752.44
623.82	54869.18
624.01	54439.11
624.21	54633.66
624.40	54537.41
624.60	54631.61
624.80	54727.87
624.99	54494.40
625.19	54090.95
625.38	54619.33
625.58	54553.79
625.77	54660.29
625.97	54353.09
626.17	54320.32
626.36	54992.06
626.56	54770.88
626.75	53935.30
626.95	54498.50
627.14	54310.08
627.34	55231.67
627.54	54332.61
627.73	54494.40
627.93	54490.30
628.12	54334.66
628.32	54158.53
628.51	54764.73
628.71	54416.58
628.90	54385.86
629.10	54131.91
629.30	54035.66
629.49	54330.56
629.69	54463.68
629.88	54639.81
630.08	55061.69
630.27	54793.40
630.47	54437.06
630.66	54351.04
630.86	54744.25
631.05	54629.57
631.25	54611.13
631.44	54711.49
631.64	54127.81
631.84	54895.80
632.03	55342.26
632.23	54430.91
632.42	54844.60
632.62	54719.68
632.81	54252.74
633.01	54662.33
633.20	55426.23
633.40	54815.93
633.59	54549.70
633.79	54600.89
633.98	54484.16
634.18	55006.39
634.37	54781.12
634.57	54713.53
634.76	55424.18
634.96	54666.43
635.15	55112.89
635.35	54482.11
635.54	54559.94
635.74	54998.20
635.93	54392.00
636.13	55260.34
636.32	54820.03
636.52	54269.12
636.71	54940.86
636.91	54824.12
637.10	54973.63
637.30	54750.40
637.49	54617.28
637.69	54824.12
637.88	55305.40
638.08	54568.13
638.27	54711.49
638.46	55166.13
638.66	54531.26
638.85	54850.75
639.05	54734.01
639.24	55440.56
639.44	55065.78
639.63	54676.67
639.83	55358.64
640.02	55289.01
640.22	55155.89
640.41	55352.50
640.61	55010.49
640.80	55071.93
640.99	55301.30
641.19	55530.67
641.38	55264.44
641.58	55192.76
641.77	54957.24
641.97	54932.67
642.16	54901.95
642.36	55510.19
642.55	55760.05
642.74	55157.94
642.94	55889.07
643.13	55096.50
643.33	55641.26
643.52	55409.84
643.72	55889.07
643.91	55297.20
644.10	55874.73
644.30	56097.96
644.49	55334.07
644.69	56124.58
644.88	55223.48
645.08	55278.77
645.27	55198.90
645.46	55389.36
645.66	55766.19
645.85	55661.74
646.05	55495.86
646.24	55555.25
646.43	55870.64
646.63	55844.01
646.82	55872.68
647.02	56186.02
647.21	56372.39
647.40	55729.33
647.60	56267.94
647.79	55975.08
647.99	55977.13
648.18	55678.13
648.37	56267.94
648.57	56249.51
648.76	55934.12
648.96	56122.54
649.15	56155.30
649.34	56394.92
649.54	56464.55
649.73	55989.42
649.92	56356.00
650.12	56149.16
650.31	56587.42
650.51	56751.26
650.70	56784.03
650.89	55958.70
651.09	56790.17
651.28	56595.62
651.47	56439.97
651.67	57037.98
651.86	56806.56
652.06	56106.15
652.25	56517.79
652.44	56425.64
652.64	56153.26
652.83	56421.54
653.02	56243.37
653.22	56380.58
653.41	56210.60
653.60	56140.97
653.80	56575.14
653.99	56482.98
654.18	56505.51
654.38	56628.38
654.57	56810.65
654.76	56693.92
654.96	56493.22
655.15	56636.58
655.34	56425.64
655.54	56267.94
655.73	56925.34
655.92	56587.42
656.12	56960.15
656.31	56624.29
656.50	57269.40
656.70	56528.03
656.89	56517.79
657.08	56736.93
657.28	56941.72
657.47	56736.93
657.66	57554.07
657.86	56824.99
658.05	57312.41
658.24	56851.61
658.43	56489.12
658.63	56927.39
658.82	56898.72
659.01	57306.26
659.21	57336.98
659.40	57334.93
659.59	56880.28
659.79	56847.52
659.98	56956.06
660.17	57232.53
660.36	57504.91
660.56	57396.37
660.75	57365.65
660.94	57898.12
661.14	56816.80
661.33	57074.84
661.52	56292.52
661.71	57500.82
661.91	57017.50
662.10	56874.14
662.29	57351.32
662.49	57056.41
662.68	56933.53
662.87	57517.20
663.06	57318.55
663.26	56931.48
663.45	57627.79
663.64	57480.34
663.83	57832.59
664.03	57402.52
664.22	57334.93
664.41	57336.98
664.60	56915.10
664.80	57201.82
664.99	57296.02
665.18	57253.01
665.37	57423.00
665.57	57416.85
665.76	57402.52
665.95	57625.74
666.14	57400.47
666.34	57427.09
666.53	57277.59
666.72	57273.49
666.91	57564.31
667.11	57336.98
667.30	57312.41
667.49	57414.80
667.68	57752.72
667.87	57439.38
668.07	57353.36
668.26	57435.28
668.45	57765.01
668.64	57484.43
668.84	58297.48
669.03	57767.05
669.22	57722.00
669.41	57562.26
669.60	57463.96
669.80	57140.38
669.99	57889.93
670.18	57267.35
670.37	57687.18
670.57	57685.14
670.76	57695.38
670.95	57459.86
671.14	57283.73
671.33	57054.36
671.53	57740.43
671.72	57967.76
671.91	57017.50
672.10	57689.23
672.29	57795.73
672.48	57504.91
672.68	57554.07
672.87	57423.00
673.06	57332.89
673.25	57509.01
673.44	57578.64
673.64	57427.09
673.83	57392.28
674.02	57275.54
674.21	56921.24
674.40	57877.64
674.59	56929.44
674.79	57056.41
674.98	57406.61
675.17	57689.23
675.36	57564.31
675.55	57689.23
675.74	57197.72
675.94	57439.38
676.13	57560.21
676.32	57910.41
676.51	57400.47
676.70	57703.57
676.89	57390.23
677.08	57486.48
677.28	57451.67
677.47	58070.15
677.66	57863.31
677.85	57726.10
678.04	57754.77
678.23	57803.92
678.42	57623.70
678.62	57328.79
678.81	57889.93
679.00	57623.70
679.19	57855.12
679.38	57521.30
679.57	57611.41
679.76	57638.03
679.96	57846.93
680.15	57853.07
680.34	57912.46
680.53	57250.97
680.72	57894.03
680.91	57218.20
681.10	57078.94
681.29	57519.25
681.48	57838.73
681.68	57592.98
681.87	57253.01
682.06	57627.79
682.25	57007.26
682.44	56886.43
682.63	57222.29
682.82	57107.61
683.01	57248.92
683.20	57320.60
683.39	57373.84
683.59	57144.47
683.78	57029.79
683.97	56829.08
684.16	57425.04
684.35	56683.68
684.54	56964.25
684.73	57416.85
684.92	56648.86
685.11	56523.94
685.30	56984.73
685.49	57210.01
685.69	57226.39
685.88	56945.82
686.07	57226.39
686.26	56530.08
686.45	57549.97
686.64	56734.88
686.83	57210.01
687.02	56970.39
687.21	56898.72
687.40	56835.23
687.59	57250.97
687.78	57031.83
687.97	57300.12
688.16	56679.58
688.35	56855.71
688.54	56841.37
688.74	56908.96
688.93	56847.52
689.12	56675.49
689.31	56704.16
689.50	56685.73
689.69	56544.42
689.88	56153.26
690.07	56669.34
690.26	56616.10
690.45	56718.49
690.64	56894.62
690.83	56222.89
691.02	56607.90
691.21	56374.44
691.40	56763.55
691.59	56634.53
691.78	56816.80
691.97	56599.71
692.16	56552.61
692.35	56880.28
692.54	56419.49
692.73	56571.04
692.92	56399.01
693.11	56241.32
693.30	56243.37
693.49	56198.31
693.68	55962.79
693.87	56030.38
694.06	55706.80
694.25	55915.69
694.44	56296.61
694.63	56358.05
694.82	56155.30
695.01	55981.23
695.20	55479.47
695.39	55852.20
695.58	55940.27
695.77	55923.88
695.96	56106.15
696.15	56145.06
696.34	55940.27
696.53	55739.57
696.72	56456.35
696.91	55841.96
697.10	56323.24
697.29	55671.98
697.48	55755.95
697.67	55653.55
697.86	55669.93
698.05	55329.97
698.24	55661.74
698.43	55452.85
698.62	55583.92
698.81	55411.89
699.00	56018.09
699.19	55116.98
699.38	55479.47
699.57	55250.10
699.76	55989.42
699.95	55368.88
700.14	55295.16
700.32	55323.83
700.51	55307.44
700.70	55563.44
700.89	55694.51
701.08	55710.89
701.27	55477.43
701.46	55667.89
701.65	54908.09
701.84	54947.00
702.03	55399.60
702.22	54834.36
702.41	55364.79
702.60	55149.75
702.79	55082.17
702.98	54719.68
703.17	55055.54
703.35	54639.81
703.54	54912.19
703.73	54936.76
703.92	54729.92
704.11	54541.50
704.30	54101.19
704.49	54258.88
704.68	54547.65
704.87	54385.86
705.06	54664.38
705.25	54473.92
705.43	54252.74
705.62	54191.30
705.81	54654.14
706.00	54564.03
706.19	54047.94
706.38	54475.97
706.57	54064.33
706.76	54095.05
706.95	54475.97
707.14	54000.84
707.32	53968.07
707.51	53687.50
707.70	54019.27
707.89	53656.78
708.08	53841.10
708.27	54260.93
708.46	54328.52
708.65	53740.75
708.84	54193.35
709.02	54064.33
709.21	54105.29
709.40	53638.35
709.59	53744.84
709.78	53181.65
709.97	53951.69
710.16	53656.78
710.34	53531.86
710.53	53443.79
710.72	53216.47
710.91	53337.30
711.10	53855.43
711.29	53343.44
711.48	53015.77
711.66	53474.51
711.85	52698.33
712.04	53517.52
712.23	53494.99
712.42	53277.91
712.61	53282.00
712.80	53177.56
712.98	53128.41
713.17	52931.80
713.36	52929.75
713.55	52972.76
713.74	52716.76
713.93	52999.38
714.11	53011.67
714.30	52395.23
714.49	52737.24
714.68	53193.94
714.87	52608.22
715.06	52671.71
715.24	52557.02
715.43	52657.37
715.62	52253.92
715.81	52329.70
716.00	52223.20
716.18	52069.61
716.37	52362.46
716.56	52499.68
716.75	52755.68
716.94	51803.37
717.12	51569.90
717.31	51989.73
717.50	52219.11
717.69	51885.29
717.88	51829.99
718.06	51825.90
718.25	52411.62
718.44	51961.06
718.63	51774.70
718.82	51868.90
719.00	51584.24
719.19	51647.72
719.38	51821.80
719.57	51229.94
719.76	50715.90
719.94	50566.40
720.13	51225.84
720.32	51340.53
720.51	51033.33
720.69	50824.44
720.88	51274.99
721.07	50916.60
721.26	50468.09
721.44	50730.23
721.63	50810.10
721.82	50296.06
722.01	50707.71
722.20	50849.02
722.38	50412.80
722.57	50189.57
722.76	50568.44
722.95	50205.95
723.13	50265.34
723.32	50021.64
723.51	49573.13
723.70	49806.60
723.88	50091.27
724.07	49679.63
724.26	49986.82
724.44	49442.06
724.63	50015.49
724.82	49796.36
725.01	49665.29
725.19	49798.41
725.38	49366.29
725.57	49640.71
725.76	49640.71
725.94	49036.56
726.13	49321.23
726.32	49151.25
726.51	49026.32
726.69	49988.87
726.88	49138.96
727.07	49231.12
727.25	49020.18
727.44	49605.90
727.63	48915.73
727.82	48942.36
728.00	49421.58
728.19	48911.64
728.38	49456.40
728.56	48839.96
728.75	48940.31
728.94	48866.58
729.12	49069.33
729.31	49536.27
729.50	48792.86
729.69	49290.51
729.87	48874.77
730.06	48717.08
730.25	48700.70
730.43	49399.05
730.62	49222.93
730.81	49102.10
730.99	48813.34
731.18	48956.69
731.37	49081.62
731.55	49001.75
731.74	49296.66
731.93	49124.63
732.11	48968.98
732.30	48573.72
732.49	48747.80
732.67	48784.66
732.86	48846.10
733.05	48512.28
733.23	48471.32
733.42	48405.79
733.61	48229.66
733.79	48602.39
733.98	48702.74
734.17	48739.61
734.35	48315.68
734.54	48686.36
734.73	48583.96
734.91	48348.45
735.10	48301.34
735.29	48319.77
735.47	47887.65
735.66	48481.56
735.84	47908.13
736.03	48493.85
736.22	48760.09
736.40	48084.26
736.59	48350.49
736.78	48088.35
736.96	47813.93
737.15	47963.43
737.33	47852.84
737.52	47975.72
737.71	48112.93
737.89	47277.36
738.08	47615.27
738.27	47732.01
738.45	48076.07
738.64	48022.82
738.82	47781.16
739.01	47484.20
739.20	47842.60
739.38	47428.91
739.57	47670.57
739.75	47955.24
739.94	47351.09
740.13	47836.45
740.31	47338.80
740.50	47338.80
740.68	47553.83
740.87	47443.24
741.06	47879.46
741.24	47289.65
741.43	47351.09
741.61	47207.73
741.80	47070.51
741.99	47004.98
742.17	46912.82
742.36	47263.02
742.54	46744.89
742.73	47322.41
742.91	47019.31
743.10	47041.84
743.29	46810.42
743.47	47058.23
743.66	46677.30
743.84	47148.34
744.03	46640.44
744.21	46751.03
744.40	46796.09
744.59	46656.82
744.77	46482.75
744.96	46847.29
745.14	47070.51
745.33	46597.43
745.51	46564.67
745.70	46925.11
745.88	46470.46
746.07	46660.92
746.26	46064.96
746.44	46191.94
746.63	46708.02
746.81	46568.76
747.00	45964.61
747.18	46183.74
747.37	46441.79
747.55	46169.41
747.74	46673.21
747.92	46048.58
748.11	45964.61
748.29	46155.07
748.48	46282.05
748.66	45815.11
748.85	46142.78
749.03	46060.87
749.22	45563.21
749.41	45907.27
749.59	45966.66
749.78	45686.09
749.96	45292.88
750.15	45542.73
750.33	45868.36
750.52	45649.22
750.70	45712.71
750.89	45792.58
751.07	45348.17
751.26	45122.90
751.44	45006.16
751.63	45501.77
751.81	45045.07
752.00	45454.67
752.18	45806.92
752.37	45038.93
752.55	45329.74
752.74	44856.66
752.92	45149.52
753.10	44725.59
753.29	44965.20
753.47	44957.01
753.66	44815.70
753.84	45198.67
754.03	44772.69
754.21	44537.18
754.40	44957.01
754.58	44766.55
754.77	44682.58
754.95	44246.36
755.14	44551.51
755.32	44725.59
755.51	44227.93
755.69	44088.67
755.88	44336.48
756.06	44236.12
756.24	44035.42
756.43	44170.59
756.61	44250.46
756.80	43713.89
756.98	44152.16
757.17	44266.84
757.35	44086.62
757.54	43722.08
757.72	43990.37
757.90	43937.12
758.09	43644.26
758.27	44240.22
758.46	43429.23
758.64	44047.71
758.83	43930.98
759.01	44019.04
759.19	43849.06
759.38	43732.32
759.56	44137.82
759.75	43865.44
759.93	43414.89
760.12	43523.43
760.30	43328.87
760.48	43683.17
760.67	43754.85
760.85	43820.39
761.04	43392.36
761.22	43380.07
761.40	43584.87
761.59	43095.41
761.77	43193.71
761.96	43341.16
762.14	43226.48
762.32	42990.96
762.51	42861.94
762.69	42888.56
762.88	42800.50
763.06	42929.52
763.24	42974.58
763.43	43132.27
763.61	43144.56
763.80	42505.59
763.98	42351.99
764.16	42663.28
764.35	42947.95
764.53	42063.23
764.72	42530.17
764.90	42732.92
765.08	42134.91
765.27	42280.31
765.45	42515.83
765.63	42247.55
765.82	42476.92
766.00	42245.50
766.18	41891.20
766.37	42446.20
766.55	41850.24
766.74	42464.63
766.92	42349.95
767.10	41667.97
767.29	41829.76
767.47	41248.14
767.65	41995.65
767.84	41659.78
768.02	42188.16
768.20	41153.93
768.39	41629.06
768.57	41966.98
768.75	41448.84
768.94	41557.38
769.12	41768.32
769.30	41532.81
769.49	41115.02
769.67	41319.82
769.85	40809.87
770.04	41000.33
770.22	40850.83
770.40	40818.07
770.59	41026.96
770.77	41235.85
770.95	41217.42
771.14	41151.88
771.32	40457.62
771.50	40631.70
771.69	40615.32
771.87	41010.57
772.05	41014.67
772.24	40347.03
772.42	40387.99
772.60	40318.36
772.78	40191.39
772.97	40187.29
773.15	40682.90
773.33	40299.93
773.52	39835.04
773.70	40457.62
773.88	40344.98
774.07	40170.91
774.25	40189.34
774.43	40514.97
774.61	40449.43
774.80	40658.32
774.98	40588.69
775.16	40619.41
775.34	40385.94
775.53	40701.33
775.71	40779.15
775.89	40584.60
776.08	40072.60
776.26	40396.18
776.44	40562.07
776.62	40285.59
776.81	40508.82
776.99	40809.87
777.17	40613.27
777.35	40678.80
777.54	40762.77
777.72	40258.97
777.90	40408.47
778.08	41033.10
778.27	40746.39
778.45	41151.88
778.63	41072.01
778.81	40439.19
779.00	41403.78
779.18	40893.84
779.36	41223.56
779.54	41041.29
779.73	40703.38
779.91	41117.07
780.09	41049.49
780.27	41055.63
780.46	40961.42
780.64	41002.38
780.82	41082.25
781.00	41125.26
781.19	41385.35
781.37	41717.12
781.55	41313.67
781.73	41563.53
781.91	41082.25
782.10	41301.39
782.28	40904.08
782.46	41186.70
782.64	41344.39
782.82	41069.97
783.01	41710.98
783.19	41508.23
783.37	41280.91
783.55	41397.64
783.74	41416.07
783.92	41469.32
784.10	41573.77
784.28	41639.30
784.46	41407.88
784.64	41395.59
784.83	41538.95
785.01	41338.25
785.19	41414.02
785.37	41555.33
785.55	41407.88
785.74	40955.28
785.92	41031.05
786.10	41438.60
786.28	41524.61
786.46	41067.92
786.64	41047.44
786.83	41078.16
787.01	41344.39
787.19	40977.81
787.37	41520.52
787.55	41076.11
787.74	40895.89
787.92	41196.94
788.10	40830.35
788.28	40709.52
788.46	40799.63
788.64	40715.67
788.82	41342.35
789.01	40719.76
789.19	41043.34
789.37	40674.71
789.55	40717.71
789.73	40779.15
789.91	40553.88
790.09	40314.26
790.28	40494.49
790.46	39949.73
790.64	40494.49
790.82	40455.57
791.00	40486.29
791.18	39949.73
791.36	39996.83
791.55	40367.51
791.73	40199.58
791.91	39695.78
792.09	39859.62
792.27	39538.08
792.45	39771.55
792.63	39720.35
792.81	39316.90
793.00	39429.54
793.18	39036.33
793.36	39038.38
793.54	39429.54
793.72	38786.48
793.90	38981.04
794.08	38948.27
794.26	39112.11
794.44	38553.01
794.62	38501.81
794.81	38747.57
794.99	38464.95
795.17	38688.18
795.35	38718.90
795.53	38813.10
795.71	38376.89
795.89	38147.51
796.07	38331.83
796.25	37440.96
796.43	37967.29
796.61	37647.81
796.80	37785.02
796.98	37981.63
797.16	37815.74
797.34	38006.20
797.52	37283.27
797.70	37582.27
797.88	37275.08
798.06	37197.26
798.24	37268.94
798.42	37664.19
798.60	36994.51
798.78	36984.27
798.96	37578.18
799.14	36865.49
799.32	37021.13
799.51	36603.35
799.69	36726.22
799.87	36894.16
800.05	36888.01
800.23	36320.73
800.41	36371.92
800.59	36175.32
800.77	36273.62
800.95	35929.56
801.13	36169.18
801.31	36150.74
801.49	36267.48
801.67	35755.49
801.85	36105.69
802.03	35610.08
802.21	35513.83
802.39	35247.59
802.57	35855.84
802.75	35601.89
802.93	35302.89
803.11	35282.41
803.29	35579.36
803.47	35266.02
803.65	35034.60
803.83	35016.17
804.01	35093.99
804.19	34700.78
804.37	34434.55
804.55	34803.18
804.73	34743.79
804.91	34717.17
805.09	34776.56
805.27	34551.28
805.45	34590.19
805.63	34764.27
805.81	34358.77
805.99	34409.97
806.17	34350.58
806.35	34172.41
806.53	33820.16
806.71	34055.67
806.89	34168.31
807.07	33709.57
807.25	34057.72
807.43	34239.99
807.61	34106.87
807.79	33646.08
807.97	33340.93
808.15	33478.15
808.33	33535.49
808.51	33496.58
808.69	33285.64
808.87	33170.95
809.05	33125.89
809.23	33394.18
809.41	32968.20
809.59	32947.72
809.77	32767.50
809.95	32607.76
810.13	32730.64
810.31	32738.83
810.49	32364.05
810.67	32646.67
810.84	32867.85
811.02	32658.96
811.20	32650.77
811.38	32736.78
811.56	31991.32
811.74	32130.58
811.92	31956.50
812.10	32097.81
812.28	32427.54
812.46	32093.72
812.64	32747.02
812.82	31622.69
813.00	31944.22
813.18	31567.39
813.36	31659.55
813.53	31987.22
813.71	31909.40
813.89	31458.85
814.07	31587.87
814.25	31833.63
814.43	31647.26
814.61	31585.82
814.79	31415.84
814.97	31448.61
815.15	31557.15
815.33	30828.07
815.50	30797.35
815.68	31198.76
815.86	31196.71
816.04	30967.34
816.22	31049.25
816.40	30656.04
816.58	30858.79
816.76	30477.87
816.94	30918.18
817.11	30572.08
817.29	30438.96
817.47	30537.26
817.65	30361.14
817.83	30682.67
818.01	30629.42
818.19	30309.94
818.37	30641.71
818.54	30266.93
818.72	29871.67
818.90	30225.97
819.08	30357.04
819.26	29898.30
819.44	29861.43
819.62	30281.27
819.80	29974.07
819.97	30105.14
820.15	29943.35
820.33	29769.27
820.51	29548.09
820.69	29548.09
820.87	29560.38
821.05	29879.86
821.22	29445.69
821.40	29566.52
821.58	29640.25
821.76	29666.88
821.94	29435.45
822.12	29527.61
822.29	29580.86
822.47	29042.24
822.65	29785.66
822.83	29511.23
823.01	29249.09
823.19	29101.64
823.36	29294.14
823.54	29275.71
823.72	29150.79
823.90	29058.63
824.08	28911.17
824.25	29009.48
824.43	28855.88
824.61	28655.18
824.79	28909.13
824.97	28685.90
825.15	28481.10
825.32	28786.25
825.50	28274.26
825.68	28417.61
825.86	28761.67
826.04	28972.61
826.21	28345.94
826.39	28622.41
826.57	28243.54
826.75	28595.79
826.93	27790.94
827.10	28202.58
827.28	28231.25
827.46	27932.25
827.64	28153.43
827.81	27907.67
827.99	28034.64
828.17	28122.71
828.35	27782.74
828.53	28046.93
828.70	27729.50
828.88	27811.42
829.06	28331.60
829.24	28249.68
829.41	27999.83
829.59	27934.29
829.77	27760.22
829.95	27766.36
830.12	27649.63
830.30	27975.25
830.48	28018.26
830.66	27528.80
830.84	27747.93
831.01	27506.27
831.19	27360.86
831.37	27473.50
831.55	27168.35
831.72	27522.65
831.90	27344.48
832.08	27567.71
832.25	27151.97
832.43	27659.87
832.61	27082.34
832.79	27143.78
832.96	26881.64
833.14	26928.74
833.32	27143.78
833.50	27104.87
833.67	27217.50
833.85	27164.26
834.03	26756.71
834.20	26926.69
834.38	27086.43
834.56	27330.14
834.74	26902.12
834.91	26646.12
835.09	26682.98
835.27	26363.50
835.44	26570.35
835.62	26244.72
835.80	26484.33
835.98	26785.38
836.15	26728.04
836.33	26220.14
836.51	26662.51
836.68	26250.86
836.86	26543.72
837.04	26371.69
837.21	26408.56
837.39	26306.16
837.57	26611.31
837.75	26402.41
837.92	26193.52
838.10	26119.79
838.28	25970.29
838.45	25630.33
838.63	25919.09
838.81	26021.49
838.98	25843.32
839.16	25579.13
839.34	25654.90
839.51	25861.75
839.69	25790.07
839.87	25697.91
840.04	25888.37
840.22	25775.73
840.40	25925.24
840.57	25646.71
840.75	25691.77
840.93	25300.61
841.10	25669.24
841.28	25906.80
841.46	25665.14
841.63	25804.41
841.81	25278.08
841.98	25364.09
842.16	25450.11
842.34	25353.85
842.51	25296.51
842.69	25415.29
842.87	25175.68
843.04	25290.37
843.22	25130.62
843.40	24989.31
843.57	25077.38
843.75	25333.37
843.92	25099.90
844.10	24925.83
844.28	25038.47
844.45	25171.58
844.63	25300.61
844.81	25144.96
844.98	25507.45
845.16	24878.72
845.33	24874.63
845.51	24759.94
845.69	24555.15
845.86	24544.91
846.04	24956.55
846.21	24637.06
846.39	24620.68
846.57	24907.40
846.74	24616.58
846.92	24350.35
847.09	24618.63
847.27	24237.71
847.45	24690.31
847.62	24454.79
847.80	24288.91
847.97	24522.38
848.15	24356.49
848.32	24364.68
848.50	24483.47
848.68	23852.69
848.85	24315.53
849.03	23871.12
849.20	24020.63
849.38	24135.31
849.56	23924.37
849.73	23813.78
849.91	24262.29
850.08	24280.72
850.26	24071.82
850.43	24059.54
850.61	23897.75
850.78	23692.95
850.96	23611.03
851.14	23471.77
851.31	23645.85
851.49	23670.42
851.66	23897.75
851.84	23619.22
852.01	23799.44
852.19	23621.27
852.36	23500.44
852.54	23137.95
852.71	23766.68
852.89	23565.98
853.07	23336.60
853.24	23516.83
853.42	23035.55
853.59	23279.26
853.77	23506.59
853.94	23340.70
854.12	23787.16
854.29	23146.14
854.47	23406.23
854.64	23254.69
854.82	23490.20
854.99	23131.81
855.17	23174.81
855.34	23213.73
855.52	23064.22
855.69	23322.27
855.87	23035.55
856.04	22759.08
856.22	23113.38
856.39	22824.61
856.57	22896.29
856.74	22746.79
856.92	23086.75
857.09	22564.52
857.27	22742.69
857.44	23117.47
857.62	22779.56
857.79	22992.55
857.97	22886.05
858.14	22787.75
858.32	22507.18
858.49	22867.62
858.67	22165.17
858.84	22208.17
859.02	22306.48
859.19	22173.36
859.37	22464.17
859.54	22267.56
859.72	22544.04
859.89	22576.81
860.06	22482.60
860.24	22267.56
860.41	22333.10
860.59	22208.17
860.76	22236.84
860.94	21974.70
861.11	22357.67
861.29	21970.61
861.46	22105.77
861.64	21913.27
861.81	21921.46
861.98	21962.42
862.16	21827.25
862.33	21726.90
862.51	21989.04
862.68	21929.65
862.86	21597.88
863.03	21728.95
863.21	21790.39
863.38	21917.36
863.55	21784.24
863.73	21616.31
863.90	21503.67
864.08	21561.02
864.25	21507.77
864.43	21436.09
864.60	21552.82
864.77	21219.00
864.95	21497.53
865.12	21448.38
865.30	21339.83
865.47	21401.27
865.64	21216.96
865.82	21358.27
865.99	21524.15
866.17	21159.61
866.34	21120.70
866.51	21126.85
866.69	21063.36
866.86	21126.85
867.04	21137.09
867.21	20899.52
867.38	21247.68
867.56	20846.27
867.73	20827.84
867.91	20766.40
868.08	20643.52
868.25	20862.66
868.43	20883.14
868.60	20797.12
868.78	20616.90
868.95	20958.91
869.12	20549.32
869.30	20606.66
869.47	20678.34
869.64	20451.02
869.82	20215.50
869.99	20563.65
870.16	20590.28
870.34	20580.04
870.51	20414.15
870.69	20463.30
870.86	20238.03
871.03	20405.96
871.21	20135.63
871.38	20088.53
871.55	20256.46
871.73	20029.13
871.90	20068.05
872.07	20020.94
872.25	19889.87
872.42	19750.61
872.59	20248.27
872.77	20045.52
872.94	19756.75
873.11	19719.89
873.29	20012.75
873.46	19896.02
873.63	19941.07
873.81	19728.08
873.98	19586.77
874.15	19574.49
874.33	19445.46
874.50	19347.16
874.67	19629.78
874.85	19398.36
875.02	19328.73
875.19	19177.18
875.37	19246.81
875.54	19085.02
875.71	19162.84
875.88	19252.95
876.06	19287.77
876.23	19068.64
876.40	18775.78
876.58	19177.18
876.75	19044.06
876.92	19068.64
877.10	19044.06
877.27	18845.41
877.44	18708.19
877.61	19021.53
877.79	18599.65
877.96	18759.39
878.13	18853.60
878.31	18437.86
878.48	18689.76
878.65	18534.12
878.82	18454.25
879.00	18429.67
879.17	18263.79
879.34	18513.64
879.51	18448.10
879.69	18167.53
879.86	18450.15
880.03	18421.48
880.21	18231.02
880.38	18589.41
880.55	18102.00
880.72	18206.44
880.90	18134.76
881.07	18149.10
881.24	18040.56
881.41	18097.90
881.59	18015.98
881.76	18214.63
881.93	17796.85
882.10	17714.93
882.28	17938.16
882.45	18071.28
882.62	17571.57
882.79	17964.78
882.96	17710.83
883.14	17766.13
883.31	17639.15
883.48	17409.78
883.65	17563.38
883.83	17852.14
884.00	17540.85
884.17	17450.74
884.34	17702.64
884.51	17551.09
884.69	17432.31
884.86	17426.17
885.03	17346.30
885.20	17188.60
885.38	17383.16
885.55	17278.71
885.72	17096.44
885.89	17192.70
886.06	17383.16
886.24	17250.04
886.41	17196.79
886.58	17237.75
886.75	17436.41
886.92	17022.72
887.10	17348.34
887.27	16824.06
887.44	17166.07
887.61	17362.68
887.78	17141.50
887.95	17331.96
888.13	17043.20
888.30	17016.57
888.47	16860.93
888.64	16699.14
888.81	16768.77
888.99	16850.69
889.16	16705.28
889.33	16641.79
889.50	16672.51
889.67	16588.55
889.84	16248.58
890.01	16760.58
890.19	16428.81
890.36	16604.93
890.53	16684.80
890.70	16389.89
890.87	16709.38
891.04	16463.62
891.22	16557.83
891.39	16471.81
891.56	16109.32
891.73	16226.06
891.90	16209.67
892.07	16170.76
892.24	16318.22
892.42	16162.57
892.59	16271.11
892.76	15920.91
892.93	16224.01
893.10	16318.22
893.27	16224.01
893.44	16103.18
893.61	16058.12
893.79	16183.05
893.96	16097.03
894.13	16076.55
894.30	15949.58
894.47	16205.58
894.64	15951.63
894.81	15761.17
894.98	16021.26
895.15	16086.79
895.33	15976.20
895.50	15660.82
895.67	16123.66
895.84	15781.65
896.01	15810.32
896.18	15779.60
896.35	15933.20
896.52	15849.23
896.69	15789.84
896.86	16049.93
897.04	15800.08
897.21	16019.21
897.38	15838.99
897.55	15660.82
897.72	15961.87
897.89	15810.32
898.06	15951.63
898.23	15769.36
898.40	15707.92
898.57	15787.79
898.74	15961.87
898.91	15720.21
899.08	15611.67
899.26	15718.16
899.43	15642.39
899.60	15728.40
899.77	15605.52
899.94	15617.81
900.11	15531.80
900.28	15603.47
900.45	15830.80
900.62	15294.23
900.79	15673.10
900.96	15640.34
901.13	15675.15
901.30	15552.27
901.47	15423.25
901.64	15535.89
901.81	15720.21
901.98	15515.41
902.15	15634.19
902.32	15548.18
902.49	15503.12
902.66	15654.67
902.83	15677.20
903.01	15449.88
903.18	15632.15
903.35	15859.47
903.52	15304.47
903.69	15443.73
903.86	15574.80
904.03	15570.71
904.20	15771.41
904.37	15654.67
904.54	15621.91
904.71	15578.90
904.88	15671.06
905.05	15253.27
905.22	15576.85
905.39	15421.20
905.56	15429.40
905.73	15275.80
905.90	15582.99
906.07	15394.58
906.24	15695.63
906.41	15453.97
906.58	15408.92
906.75	15396.63
906.92	15394.58
907.09	15390.49
907.26	15437.59
907.43	15355.67
907.60	15388.44
907.77	15648.53
907.93	15351.57
908.10	15413.01
908.27	15525.65
908.44	15302.42
908.61	15218.46
908.78	15214.36
908.95	15353.62
909.12	15333.14
909.29	15400.72
909.46	15415.06
909.63	15380.25
909.80	15517.46
909.97	15286.04
910.14	15068.95
910.31	15154.97
910.48	15236.89
910.65	15304.47
910.82	15134.49
910.99	15032.09
911.16	15089.43
911.33	15331.09
911.50	15167.26
911.66	15240.98
911.83	14978.84
912.00	14855.97
912.17	14866.21
912.34	14726.94
912.51	15003.42
912.68	14974.75
912.85	14812.96
913.02	15048.47
913.19	14849.82
913.36	15007.52
913.53	14870.30
913.70	14780.19
913.86	14903.07
914.03	14794.53
914.20	14655.26
914.37	14673.70
914.54	14628.64
914.71	14792.48
914.88	14712.61
915.05	14427.94
915.22	14610.21
915.39	14503.71
915.55	14442.28
915.72	14407.46
915.89	14622.50
916.06	14341.93
916.23	14196.52
916.40	14393.12
916.57	14057.26
916.74	14257.96
916.91	14311.21
917.07	14100.26
917.24	14020.39
917.41	14008.11
917.58	13860.65
917.75	13756.21
917.92	13918.00
918.09	13788.97
918.26	13764.40
918.42	14018.35
918.59	13838.12
918.76	13418.29
918.93	13606.70
919.10	13397.81
919.27	13465.39
919.44	13748.01
919.60	13555.51
919.77	13289.27
919.94	13285.17
920.11	13170.49
920.28	13315.89
920.45	13537.07
920.61	13172.54
920.78	13107.00
920.95	13281.08
921.12	13004.60
921.29	13270.84
921.46	12996.41
921.62	12840.76
921.79	12928.83
921.96	12984.12
922.13	12855.10
922.30	12701.50
922.47	12764.99
922.63	12887.87
922.80	12545.86
922.97	12617.54
923.14	12595.01
923.31	12666.69
923.47	12588.86
923.64	12922.68
923.81	12459.84
923.98	12549.95
924.15	12461.89
924.32	12326.72
924.48	12320.58
924.65	12277.57
924.82	11958.09
924.99	11978.57
925.15	12046.15
925.32	12154.69
925.49	11970.38
925.66	12111.69
925.83	11695.95
925.99	11839.31
926.16	11822.92
926.33	11865.93
926.50	11511.63
926.67	11669.33
926.83	11677.52
927.00	11548.50
927.17	11503.44
927.34	11362.13
927.50	11333.46
927.67	11611.98
927.84	11294.55
928.01	11310.93
928.17	11337.56
928.34	10987.35
928.51	11061.08
928.68	11140.95
928.84	11157.33
929.01	10846.04
929.18	10936.15
929.35	10708.83
929.51	10901.34
929.68	10483.55
929.85	10807.13
930.02	10610.53
930.18	10530.66
930.35	10639.20
930.52	10553.18
930.69	10614.62
930.85	10493.79
931.02	10403.68
931.19	10508.13
931.36	10420.06
931.52	10366.82
931.69	10329.95
931.86	10207.08
932.02	10116.97
932.19	10155.88
932.36	10006.38
932.53	10030.95
932.69	9903.98
932.86	10043.24
933.03	9949.03
933.19	9811.82
933.36	9846.63
933.53	9996.14
933.70	9688.94
933.86	9693.04
934.03	9729.90
934.20	9504.62
934.36	9699.18
934.53	9408.37
934.70	9357.17
934.86	9303.92
935.03	9195.38
935.20	9060.21
935.36	9080.69
935.53	8951.67
935.70	8949.62
935.86	8949.62
936.03	8912.76
936.20	8609.66
936.36	8779.64
936.53	8554.37
936.70	8566.65
936.86	8634.24
937.03	8468.35
937.20	8347.52
937.36	8390.53
937.53	7929.74
937.70	7991.17
937.86	7825.29
938.03	7921.54
938.20	7964.55
938.36	7581.58
938.53	7841.67
938.70	7460.75
938.86	7604.11
939.03	7479.18
939.20	7286.67
939.36	7352.21
939.53	7184.27
939.70	7221.14
939.86	7004.05
940.03	6942.61
940.19	6913.94
940.36	6793.11
940.53	6832.02
940.69	6700.95
940.86	6651.80
941.03	6453.15
941.19	6485.92
941.36	6420.38
941.52	6410.14
941.69	6244.26
941.86	6197.15
942.02	6277.02
942.19	6141.86
942.35	6229.92
942.52	6111.14
942.69	6057.89
942.85	5795.75
943.02	5885.86
943.18	5861.29
943.35	5779.37
943.52	5769.13
943.68	5797.80
943.85	5513.13
944.01	5650.35
944.18	5597.10
944.35	5633.96
944.51	5570.48
944.68	5541.80
944.84	5494.70
945.01	5468.08
945.17	5322.67
945.34	5535.66
945.51	5410.73
945.67	5502.89
945.84	5466.03
946.00	5240.75
946.17	5490.60
946.33	5410.73
946.50	5423.02
946.67	5478.32
946.83	5345.20
947.00	5322.67
947.16	5281.71
947.33	5298.10
947.49	5435.31
947.66	5197.74
947.82	5410.73
947.99	5400.49
948.16	5207.98
948.32	5384.11
948.49	5318.57
948.65	5418.93
948.82	5228.46
948.98	5283.76
949.15	5201.84
949.31	5337.01
949.48	5296.05
949.64	5394.35
949.81	5320.62
949.97	5316.53
950.14	5361.58
950.30	5316.53
950.47	5410.73
950.63	5287.86
950.80	5398.45
950.96	5341.10
951.13	5365.68
951.30	5320.62
951.46	5345.20
951.63	5343.15
951.79	5423.02
951.96	5398.45
952.12	5392.30
952.29	5363.63
952.45	5334.96
952.62	5377.97
952.78	5382.06
952.94	5392.30
953.11	5271.47
953.27	5228.46
953.44	5566.38
953.60	5294.00
953.77	5533.61
953.93	5261.23
954.10	5392.30
954.26	5459.88
954.43	5482.41
954.59	5527.47
954.76	5566.38
954.92	5418.93
955.09	5400.49
955.25	5349.29
955.42	5423.02
955.58	5506.99
955.75	5492.65
955.91	5377.97
956.07	5459.88
956.24	5513.13
956.40	5457.84
956.57	5408.69
956.73	5517.23
956.90	5466.03
957.06	5435.31
957.23	5359.53
957.39	5343.15
957.56	5402.54
957.72	5476.27
957.88	5377.97
958.05	5547.95
958.21	5449.64
958.38	5500.84
958.54	5490.60
958.71	5636.01
958.87	5451.69
959.03	5558.19
959.20	5416.88
959.36	5341.10
959.53	5320.62
959.69	5377.97
959.85	5394.35
960.02	5373.87
960.18	5470.12
960.35	5361.58
960.51	5420.97
960.68	5414.83
960.84	5427.12
961.00	5279.66
961.17	5418.93
961.33	5380.01
961.50	5443.50
961.66	5500.84
961.82	5355.44
961.99	5443.50
962.15	5480.36
962.31	5431.21
962.48	5412.78
962.64	5390.25
962.81	5435.31
962.97	5476.27
963.13	5554.09
963.30	5365.68
963.46	5449.64
963.62	5287.86
963.79	5310.38
963.95	5322.67
964.12	5416.88
964.28	5406.64
964.44	5285.81
964.61	5328.81
964.77	5144.50
964.93	5367.73
965.10	5289.90
965.26	5328.81
965.42	5156.79
965.59	5210.03
965.75	5279.66
965.92	5287.86
966.08	5320.62
966.24	5287.86
966.41	5218.22
966.57	5265.33
966.73	5271.47
966.90	5218.22
967.06	5359.53
967.22	5248.94
967.39	5154.74
967.55	5185.46
967.71	5291.95
967.88	5085.11
968.04	5156.79
968.20	5029.81
968.37	5062.58
968.53	4966.32
968.69	5197.74
968.85	5189.55
969.02	5121.97
969.18	5175.22
969.34	5203.89
969.51	5078.96
969.67	5203.89
969.83	5031.86
970.00	5185.46
970.16	5042.10
970.32	5035.96
970.48	5058.48
970.65	4958.13
970.81	4949.94
970.97	4976.56
971.14	4804.53
971.30	5095.35
971.46	5138.35
971.63	4863.93
971.79	5025.72
971.95	4872.12
972.11	4839.35
972.28	4919.22
972.44	5013.43
972.60	4820.92
972.76	5078.96
972.93	4808.63
973.09	4923.32
973.25	4880.31
973.42	4964.28
973.58	4906.93
973.74	4913.08
973.90	4872.12
974.07	4822.97
974.23	4804.53
974.39	4796.34
974.55	4911.03
974.72	4728.76
974.88	4650.94
975.04	4687.80
975.20	4784.06
975.37	4825.01
975.53	4607.93
975.69	4837.30
975.85	4650.94
976.01	4687.80
976.18	4700.09
976.34	4675.51
976.50	4749.24
976.66	4769.72
976.83	4698.04
976.99	4628.41
977.15	4706.23
977.31	4472.76
977.47	4700.09
977.64	4558.78
977.80	4573.11
977.96	4550.59
978.12	4593.59
978.29	4521.92
978.45	4589.50
978.61	4493.24
978.77	4718.52
978.93	4579.26
979.10	4585.40
979.26	4519.87
979.42	4521.92
979.58	4347.84
979.74	4544.44
979.91	4497.34
980.07	4382.65
980.23	4429.76
980.39	4470.72
980.55	4280.25
980.71	4411.32
980.88	4249.54
981.04	4284.35
981.20	4411.32
981.36	4380.61
981.52	4245.44
981.68	4247.49
981.85	4313.02
982.01	4337.60
982.17	4360.13
982.33	4120.51
982.49	4384.70
982.65	4235.20
982.82	4323.26
982.98	4179.90
983.14	4145.09
983.30	4306.88
983.46	4243.39
983.62	4292.54
983.79	4239.30
983.95	4134.85
984.11	4050.88
984.27	4261.82
984.43	4151.23
984.59	4018.11
984.75	4251.58
984.91	4036.55
985.08	4253.63
985.24	3944.39
985.40	4112.32
985.56	3966.92
985.72	4233.15
985.88	4192.19
986.04	4083.65
986.20	4018.11
986.37	4038.59
986.53	3946.44
986.69	4009.92
986.85	3946.44
987.01	4100.03
987.17	4059.07
987.33	3948.48
987.49	3999.68
987.65	4069.31
987.82	3952.58
987.98	3878.85
988.14	4005.83
988.30	4011.97
988.46	3850.18
988.62	3925.96
988.78	3854.28
988.94	3846.09
989.10	3876.80
989.26	3817.41
989.42	3794.89
989.59	3737.54
989.75	3846.09
989.91	3878.85
990.07	3649.48
990.23	3862.47
990.39	3893.19
990.55	3768.26
990.71	3678.15
990.87	3780.55
991.03	3895.24
991.19	3641.29
991.35	3772.36
991.51	3665.86
991.67	3702.73
991.83	3739.59
992.00	3649.48
992.16	3755.97
992.32	3661.77
992.48	3725.26
992.64	3688.39
992.80	3755.97
992.96	3579.85
993.12	3686.34
993.28	3631.05
993.44	3678.15
993.60	3686.34
993.76	3538.89
993.92	3553.23
994.08	3690.44
994.24	3657.67
994.40	3590.09
994.56	3753.93
994.72	3592.14
994.88	3538.89
995.04	3542.99
995.20	3385.29
995.36	3418.06
995.52	3473.36
995.68	3491.79
995.84	3418.06
996.00	3524.55
996.16	3440.59
996.32	3360.72
996.48	3448.78
996.64	3420.11
996.80	3487.69
996.96	3424.20
997.12	3469.26
997.28	3270.61
997.44	3299.28
997.60	3432.40
997.76	3395.53
997.92	3450.83
998.08	3375.05
998.24	3362.76
998.40	3377.10
998.56	3368.91
998.72	3282.89
998.88	3252.17
999.04	3301.33
999.20	3362.76
999.36	3317.71
999.52	3327.95
999.68	3370.96
999.84	3243.98
1000.00	3235.79
1000.16	3284.94
1000.32	3151.82
1000.48	3334.09
1000.64	3141.58
1000.80	3143.63
1000.95	2947.03
1001.11	3297.23
1001.27	3178.45
1001.43	3207.12
1001.59	3182.54
1001.75	3221.45
1001.91	3299.28
1002.07	3030.99
1002.23	3147.73
1002.39	3082.19
1002.55	3096.53
1002.71	3078.10
1002.87	2979.79
1003.03	2998.23
1003.19	3069.91
1003.34	3028.95
1003.50	3067.86
1003.66	3215.31
1003.82	3045.33
1003.98	3151.82
1004.14	3071.95
1004.30	3041.23
1004.46	2908.12
1004.62	3006.42
1004.78	3006.42
1004.94	3039.19
1005.09	3047.38
1005.25	3065.81
1005.41	3012.56
1005.57	2971.60
1005.73	3082.19
1005.89	2906.07
1006.05	2987.99
1006.21	3033.04
1006.37	2953.17
1006.52	2910.16
1006.68	2842.58
1006.84	3043.28
1007.00	2912.21
1007.16	2977.75
1007.32	2834.39
1007.48	2838.48
1007.64	2838.48
1007.79	2770.90
1007.95	2832.34
1008.11	2979.79
1008.27	2854.87
1008.43	2891.73
1008.59	2803.67
1008.75	2877.40
1008.91	2914.26
1009.06	2830.29
1009.22	2813.91
1009.38	2803.67
1009.54	2844.63
1009.70	2807.77
1009.86	2799.57
1010.01	2832.34
1010.17	2670.55
1010.33	2842.58
1010.49	2764.76
1010.65	2885.59
1010.81	2590.68
1010.96	2699.22
1011.12	2678.74
1011.28	2684.89
1011.44	2734.04
1011.60	2686.94
1011.76	2723.80
1011.91	2678.74
1012.07	2668.50
1012.23	2574.30
1012.39	2588.63
1012.55	2711.51
1012.71	2572.25
1012.86	2539.48
1013.02	2611.16
1013.18	2549.72
1013.34	2623.45
1013.50	2723.80
1013.65	2623.45
1013.81	2676.70
1013.97	2564.06
1014.13	2676.70
1014.29	2582.49
1014.44	2625.50
1014.60	2559.96
1014.76	2549.72
1014.92	2607.06
1015.07	2529.24
1015.23	2652.12
1015.39	2475.99
1015.55	2580.44
1015.71	2631.64
1015.86	2523.10
1016.02	2412.51
1016.18	2461.66
1016.34	2555.86
1016.49	2555.86
1016.65	2635.74
1016.81	2492.38
1016.97	2473.95
1017.12	2488.28
1017.28	2377.69
1017.44	2414.56
1017.60	2371.55
1017.75	2467.80
1017.91	2387.93
1018.07	2416.60
1018.23	2371.55
1018.38	2344.92
1018.54	2447.32
1018.70	2383.84
1018.86	2297.82
1019.01	2416.60
1019.17	2410.46
1019.33	2578.39
1019.49	2469.85
1019.64	2416.60
1019.80	2373.60
1019.96	2412.51
1020.12	2353.12
1020.27	2502.62
1020.43	2392.03
1020.59	2400.22
1020.74	2394.08
1020.90	2453.47
1021.06	2338.78
1021.22	2377.69
1021.37	2351.07
1021.53	2265.05
1021.69	2400.22
1021.84	2246.62
1022.00	2281.44
1022.16	2265.05
1022.31	2244.57
1022.47	2285.53
1022.63	2318.30
1022.79	2203.61
1022.94	2377.69
1023.10	2408.41
1023.26	2258.91
1023.41	2338.78
1023.57	2273.25
1023.73	2402.27
1023.88	2283.49
1024.04	2248.67
1024.20	2183.13
1024.35	2242.53
1024.51	2242.53
1024.67	2289.63
1024.82	2318.30
1024.98	2144.22
1025.14	2150.37
1025.29	2189.28
1025.45	2279.39
1025.61	2119.65
1025.76	2197.47
1025.92	2205.66
1026.08	2246.62
1026.23	2250.72
1026.39	2215.90
1026.55	2176.99
1026.70	2158.56
1026.86	2136.03
1027.02	2265.05
1027.17	2127.84
1027.33	2203.61
1027.48	2174.94
1027.64	2201.57
1027.80	2156.51
1027.95	2236.38
1028.11	1992.67
1028.27	2193.37
1028.42	2183.13
1028.58	2166.75
1028.73	2107.36
1028.89	2115.55
1029.05	2207.71
1029.20	2154.46
>>>>>End Processed Spectral Data<<<<<
