SpectraSuite Data File
++++++++++++++++++++++++++++++++++++
Date: Fri Jun 02 14:53:30 CEST 2017
User: INFO_000
Dark Spectrum Present: No
Reference Spectrum Present: No
Number of Sampled Component Spectra: 1
Spectrometers: USB4H00879
Integration Time (usec): 80000 (USB4H00879)
Spectra Averaged: 1 (USB4H00879)
Boxcar Smoothing: 0 (USB4H00879)
Correct for Electrical Dark: No (USB4H00879)
Strobe/Lamp Enabled: No (USB4H00879)
Correct for Detector Non-linearity: No (USB4H00879)
Correct for Stray Light: No (USB4H00879)
Number of Pixels in Processed Spectrum: 3648
>>>>>Begin Processed Spectral Data<<<<<
345.13	1302.51
345.34	1302.51
345.56	1302.51
345.78	1277.93
345.99	1327.08
346.21	1689.57
346.42	1681.38
346.64	1695.72
346.86	1791.97
347.07	1734.63
347.29	1691.62
347.50	1630.18
347.72	1685.48
347.94	1726.44
348.15	1605.61
348.37	1628.14
348.59	1714.15
348.80	1742.82
349.02	1773.54
349.23	1896.42
349.45	1818.60
349.67	1906.66
349.88	1824.74
350.10	1894.37
350.31	1834.98
350.53	1789.92
350.75	1947.62
350.96	1761.25
351.18	1955.81
351.39	1808.36
351.61	1804.26
351.82	1904.61
352.04	1990.63
352.26	1828.84
352.47	1896.42
352.69	1890.28
352.90	1742.82
353.12	1810.40
353.34	1910.75
353.55	1923.04
353.77	1873.89
353.98	1935.33
354.20	1865.70
354.41	1978.34
354.63	1902.56
354.85	2045.92
355.06	2000.87
355.28	1814.50
355.49	1916.90
355.71	1902.56
355.92	1896.42
356.14	1953.76
356.35	1875.94
356.57	1880.04
356.79	1927.14
357.00	1794.02
357.22	1982.43
357.43	1802.21
357.65	1847.27
357.86	1939.43
358.08	1900.52
358.29	1939.43
358.51	2007.01
358.72	1957.86
358.94	1886.18
359.16	1871.84
359.37	2002.91
359.59	1896.42
359.80	1976.29
360.02	1994.72
360.23	1955.81
360.45	1986.53
360.66	1990.63
360.88	1847.27
361.09	1931.23
361.31	1972.19
361.52	1976.29
361.74	2097.12
361.95	2056.16
362.17	1972.19
362.38	2082.78
362.60	2015.20
362.81	1892.32
363.03	1953.76
363.24	1927.14
363.46	2035.68
363.67	2056.16
363.89	1929.19
364.10	2060.26
364.32	1882.08
364.53	2052.06
364.75	1949.67
364.96	1992.67
365.18	2039.78
365.39	2031.58
365.61	1966.05
365.82	2080.74
366.04	1986.53
366.25	1988.58
366.47	2097.12
366.68	2058.21
366.90	1972.19
367.11	2078.69
367.33	2117.60
367.54	2207.71
367.76	2021.35
367.97	2080.74
368.19	2117.60
368.40	2058.21
368.62	1994.72
368.83	2021.35
369.05	2066.40
369.26	1968.10
369.48	1994.72
369.69	2068.45
369.91	2011.11
370.12	2033.63
370.33	2166.75
370.55	2013.15
370.76	2080.74
370.98	2105.31
371.19	2068.45
371.41	2000.87
371.62	2062.30
371.84	2039.78
372.05	2179.04
372.27	2068.45
372.48	2054.11
372.69	2066.40
372.91	2267.10
373.12	2125.79
373.34	2107.36
373.55	2041.82
373.77	2203.61
373.98	2045.92
374.20	2176.99
374.41	2228.19
374.62	2164.70
374.84	2242.53
375.05	2176.99
375.27	2140.13
375.48	2144.22
375.70	2187.23
375.91	2197.47
376.12	2289.63
376.34	2222.05
376.55	2125.79
376.77	2224.09
376.98	2152.42
377.19	2176.99
377.41	2125.79
377.62	2248.67
377.84	2342.88
378.05	2344.92
378.27	2193.37
378.48	2334.68
378.69	2357.21
378.91	2295.77
379.12	2308.06
379.34	2195.42
379.55	2324.44
379.76	2312.16
379.98	2236.38
380.19	2197.47
380.41	2287.58
380.62	2301.92
380.83	2381.79
381.05	2242.53
381.26	2369.50
381.47	2293.72
381.69	2324.44
381.90	2510.81
382.12	2336.73
382.33	2359.26
382.54	2287.58
382.76	2342.88
382.97	2316.25
383.19	2271.20
383.40	2349.02
383.61	2330.59
383.83	2240.48
384.04	2371.55
384.25	2363.36
384.47	2502.62
384.68	2355.16
384.89	2330.59
385.11	2389.98
385.32	2367.45
385.54	2220.00
385.75	2435.03
385.96	2475.99
386.18	2375.64
386.39	2465.75
386.60	2334.68
386.82	2490.33
387.03	2533.34
387.24	2498.52
387.46	2424.80
387.67	2523.10
387.88	2574.30
388.10	2482.14
388.31	2508.76
388.52	2506.71
388.74	2596.82
388.95	2580.44
389.16	2576.34
389.38	2525.15
389.59	2572.25
389.80	2691.03
390.02	2555.86
390.23	2738.13
390.44	2578.39
390.66	2531.29
390.87	2533.34
391.08	2596.82
391.30	2641.88
391.51	2668.50
391.72	2758.61
391.94	2719.70
392.15	2658.26
392.36	2641.88
392.58	2547.67
392.79	2680.79
393.00	2756.57
393.22	2783.19
393.43	2736.09
393.64	2854.87
393.85	2764.76
394.07	2725.85
394.28	2672.60
394.49	2785.24
394.71	2799.57
394.92	2727.89
395.13	2705.37
395.35	2803.67
395.56	2764.76
395.77	2873.30
395.98	2858.96
396.20	2879.44
396.41	2791.38
396.62	2899.92
396.84	2867.16
397.05	2770.90
397.26	2938.84
397.47	2985.94
397.69	2813.91
397.90	3014.61
398.11	3047.38
398.32	2887.64
398.54	2828.24
398.75	2871.25
398.96	2920.40
399.18	3059.67
399.39	3033.04
399.60	3043.28
399.81	3022.80
400.03	2871.25
400.24	3409.87
400.45	3012.56
400.66	3178.45
400.88	3071.95
401.09	3254.22
401.30	2979.79
401.51	3141.58
401.73	3123.15
401.94	3182.54
402.15	3065.81
402.36	3059.67
402.58	3160.02
402.79	3151.82
403.00	3182.54
403.21	3157.97
403.43	3270.61
403.64	3311.57
403.85	3117.01
404.06	3270.61
404.27	3129.30
404.49	3200.98
404.70	3129.30
404.91	3233.74
405.12	3330.00
405.34	3248.08
405.55	3405.77
405.76	3137.49
405.97	3272.65
406.19	3356.62
406.40	3213.26
406.61	3319.76
406.82	3391.44
407.03	3354.57
407.25	3270.61
407.46	3352.52
407.67	3461.07
407.88	3575.75
408.09	3309.52
408.31	3315.66
408.52	3467.21
408.73	3336.14
408.94	3307.47
409.15	3461.07
409.37	3485.64
409.58	3448.78
409.79	3479.50
410.00	3551.18
410.21	3366.86
410.43	3571.66
410.64	3420.11
410.85	3487.69
411.06	3485.64
411.27	3571.66
411.48	3612.62
411.70	3426.25
411.91	3631.05
412.12	3616.71
412.33	3629.00
412.54	3637.19
412.76	3573.71
412.97	3665.86
413.18	3588.04
413.39	3737.54
413.60	3739.59
413.81	3680.20
414.03	3743.69
414.24	3645.38
414.45	3811.27
414.66	3567.56
414.87	3766.21
415.08	3743.69
415.30	3624.90
415.51	3682.25
415.72	3790.79
415.93	3758.02
416.14	3854.28
416.35	3907.52
416.56	3882.95
416.78	3899.33
416.99	3841.99
417.20	3852.23
417.41	4018.11
417.62	3915.72
417.83	4061.12
418.04	3780.55
418.26	3942.34
418.47	3880.90
418.68	4034.50
418.89	3997.64
419.10	4097.99
419.31	4009.92
419.52	3999.68
419.73	4085.70
419.95	4206.53
420.16	3968.96
420.37	4048.83
420.58	4093.89
420.79	4032.45
421.00	4009.92
421.21	4169.66
421.42	4075.46
421.63	4100.03
421.85	4216.77
422.06	4335.55
422.27	4263.87
422.48	4118.47
422.69	4239.30
422.90	4403.13
423.11	4315.07
423.32	4372.41
423.53	4423.61
423.75	4358.08
423.96	4636.60
424.17	4521.92
424.38	4589.50
424.59	4497.34
424.80	4624.31
425.01	4540.35
425.22	4550.59
425.43	4489.15
425.64	4714.42
425.85	4782.01
426.06	4706.23
426.28	4624.31
426.49	4478.91
426.70	4698.04
426.91	4612.03
427.12	4749.24
427.33	4755.38
427.54	4673.46
427.75	4773.82
427.96	4919.22
428.17	4765.62
428.38	4964.28
428.59	4890.55
428.80	4790.20
429.01	4999.09
429.23	4876.21
429.44	5140.40
429.65	5160.88
429.86	5111.73
430.07	4947.89
430.28	4878.26
430.49	5160.88
430.70	5078.96
430.91	5212.08
431.12	5066.67
431.33	5193.65
431.54	5302.19
431.75	5238.70
431.96	5197.74
432.17	5183.41
432.38	5294.00
432.59	5457.84
432.80	5347.25
433.01	5425.07
433.22	5402.54
433.43	5304.24
433.64	5541.80
433.85	5316.53
434.06	5459.88
434.27	5326.77
434.49	5547.95
434.70	5545.90
434.91	5629.87
435.12	5590.95
435.33	5611.43
435.54	5627.82
435.75	5515.18
435.96	5476.27
436.17	5527.47
436.38	5719.98
436.59	5838.76
436.80	5701.54
437.01	5967.78
437.22	5879.72
437.43	5771.18
437.64	5719.98
437.85	5853.09
438.06	5881.77
438.27	5793.70
438.48	5844.90
438.69	5920.68
438.90	5851.05
439.11	5973.92
439.32	6008.74
439.53	5988.26
439.74	6004.64
439.95	5883.81
440.16	5822.38
440.37	5967.78
440.57	5775.27
440.78	6045.60
440.99	6061.99
441.20	6145.95
441.41	6096.80
441.62	6078.37
441.83	6068.13
442.04	6154.15
442.25	6107.04
442.46	6135.71
442.67	6408.09
442.88	6723.48
443.09	6025.12
443.30	6135.71
443.51	6223.78
443.72	6487.96
443.93	6121.38
444.14	6567.84
444.35	6326.18
444.56	6313.89
444.77	6326.18
444.98	6365.09
445.19	6516.64
445.40	6520.73
445.61	6363.04
445.81	6520.73
446.02	6494.11
446.23	6504.35
446.44	6262.69
446.65	6522.78
446.86	6598.56
447.07	6649.75
447.28	6754.20
447.49	6746.01
447.70	6694.81
447.91	6850.46
448.12	6727.58
448.33	6682.52
448.54	6875.03
448.74	6981.53
448.95	6756.25
449.16	6612.89
449.37	7038.87
449.58	6725.53
449.79	6969.24
450.00	6739.87
450.21	6754.20
450.42	7045.01
450.63	6954.90
450.84	6909.85
451.05	6918.04
451.25	7016.34
451.46	6883.22
451.67	7266.19
451.88	7192.47
452.09	7214.99
452.30	7100.31
452.51	7188.37
452.72	7243.67
452.93	7606.16
453.13	7010.20
453.34	7165.84
453.55	7468.94
453.76	7233.43
453.97	7557.00
454.18	7387.02
454.39	7501.71
454.60	7335.82
454.81	7358.35
455.01	7647.12
455.22	7313.30
455.43	7407.50
455.64	7841.67
455.85	7698.31
456.06	7995.27
456.27	7765.90
456.48	7724.94
456.68	7835.53
456.89	7724.94
457.10	7829.38
457.31	7917.45
457.52	7880.58
457.73	7978.89
457.94	8206.21
458.14	7886.73
458.35	8392.58
458.56	7942.02
458.77	8140.68
458.98	8390.53
459.19	8179.59
459.39	8281.99
459.60	8380.29
459.81	8208.26
460.02	8507.26
460.23	8519.55
460.44	8607.61
460.65	8472.45
460.85	8755.07
461.06	8730.49
461.27	8396.67
461.48	8957.82
461.69	8982.39
461.89	8589.18
462.10	8687.48
462.31	8765.31
462.52	8818.55
462.73	8916.86
462.94	9103.22
463.14	8996.73
463.35	8957.82
463.56	9424.75
463.77	9367.41
463.98	8941.43
464.18	9160.56
464.39	9447.28
464.60	9598.83
464.81	9615.21
465.02	9506.67
465.23	9701.23
465.43	9527.15
465.64	9770.86
465.85	9715.56
466.06	9693.04
466.27	10047.33
466.47	10002.28
466.68	9928.55
466.89	9910.12
467.10	10174.31
467.30	10080.10
467.51	10166.12
467.72	10350.43
467.93	10073.96
468.14	10278.76
468.34	10684.25
468.55	10624.86
468.76	10692.44
468.97	10626.91
469.17	10633.05
469.38	10923.87
469.59	10903.39
469.80	10686.30
470.01	10864.47
470.21	10964.82
470.42	11044.70
470.63	11216.72
470.84	10827.61
471.04	11202.39
471.25	11075.42
471.46	11419.47
471.67	11738.96
471.87	11564.88
472.08	11839.31
472.29	11929.42
472.50	11542.35
472.70	11609.93
472.91	11630.41
473.12	12152.65
473.33	11978.57
473.53	12316.48
473.74	12072.78
473.95	12216.13
474.16	12388.16
474.36	12498.75
474.57	12851.00
474.78	12904.25
474.99	12937.02
475.19	12894.01
475.40	12967.74
475.61	13012.79
475.81	13080.38
476.02	13332.28
476.23	13465.39
476.44	13561.65
476.64	13684.53
476.85	13766.45
477.06	13754.16
477.27	13829.93
477.47	14059.31
477.68	13928.24
477.89	14288.68
478.09	14399.27
478.30	14229.29
478.51	14597.92
478.71	14485.28
478.92	14526.24
479.13	14630.69
479.34	14548.77
479.54	14821.15
479.75	14964.51
479.96	14913.31
480.16	15191.83
480.37	15202.07
480.58	15154.97
480.78	15503.12
480.99	15648.53
481.20	15849.23
481.41	15857.42
481.61	15968.01
481.82	15961.87
482.03	15836.94
482.23	15912.72
482.44	16295.69
482.65	16539.40
482.85	16344.84
483.06	16369.41
483.27	16295.69
483.47	16561.92
483.68	16701.19
483.89	17035.00
484.09	16799.49
484.30	17192.70
484.51	17354.49
484.71	17336.06
484.92	17446.65
485.13	17499.89
485.33	17716.98
485.54	17667.83
485.75	17884.91
485.95	17800.94
486.16	18108.14
486.37	18280.17
486.57	18028.27
486.78	18122.48
486.98	18417.38
487.19	18411.24
487.40	18722.53
487.60	18689.76
487.81	18874.08
488.02	18753.25
488.22	19085.02
488.43	19093.21
488.64	18904.80
488.84	19177.18
489.05	19181.28
489.25	19275.48
489.46	19558.10
489.67	19556.05
489.87	19926.74
490.08	19613.40
490.29	20037.33
490.49	20299.47
490.70	20143.82
490.90	20319.95
491.11	20129.48
491.32	20340.43
491.52	20405.96
491.73	20575.94
491.94	20278.99
492.14	20565.70
492.35	20983.49
492.55	20811.46
492.76	20946.62
492.97	20948.67
493.17	21092.03
493.38	21546.68
493.58	21456.57
493.79	21354.17
494.00	21591.73
494.20	21542.58
494.41	21948.08
494.61	21624.50
494.82	21743.28
495.02	21763.76
495.23	21745.33
495.44	21933.75
495.64	22202.03
495.85	21790.39
496.05	22527.66
496.26	22130.35
496.47	22265.52
496.67	22488.74
496.88	22492.84
497.08	22249.13
497.29	22804.13
497.49	22662.82
497.70	22566.57
497.91	22828.71
498.11	23131.81
498.32	22945.44
498.52	23185.05
498.73	23443.10
498.93	23283.36
499.14	23506.59
499.34	23629.46
499.55	23342.75
499.76	23234.21
499.96	23525.02
500.17	23928.47
500.37	23969.43
500.58	23705.24
500.78	23961.23
500.99	23996.05
501.19	24383.12
501.40	24159.89
501.60	24147.60
501.81	23922.32
502.02	24333.96
502.22	23924.37
502.43	24278.67
502.63	24534.67
502.84	24583.82
503.04	24110.74
503.25	24446.60
503.45	24934.02
503.66	24757.89
503.86	24690.31
504.07	24813.19
504.27	24805.00
504.48	25101.95
504.68	24774.28
504.89	25521.79
505.09	24903.30
505.30	24981.12
505.50	25134.72
505.71	25316.99
505.91	25239.17
506.12	25529.98
506.32	25421.44
506.53	25450.11
506.73	25415.29
506.94	25755.26
507.14	25548.41
507.35	25595.51
507.55	25714.30
507.76	25908.85
507.96	25679.48
508.17	26039.92
508.37	25765.49
508.58	25785.97
508.78	26031.73
508.99	25960.05
509.19	26056.31
509.40	26513.00
509.60	26326.64
509.81	26236.53
510.01	26398.32
510.22	26439.28
510.42	26369.65
510.63	26596.97
510.83	26410.60
511.04	26574.44
511.24	26453.61
511.44	26564.20
511.65	26578.54
511.85	26777.19
512.06	26744.42
512.26	26748.52
512.47	26869.35
512.67	26906.21
512.88	27111.01
513.08	26682.98
513.29	27084.39
513.49	27061.86
513.69	27115.11
513.90	27172.45
514.10	27504.22
514.31	27166.31
514.51	27250.27
514.72	27399.77
514.92	27246.18
515.13	26883.69
515.33	27369.05
515.53	27362.91
515.74	27721.30
515.94	27547.23
516.15	27688.54
516.35	27571.80
516.56	27973.21
516.76	27686.49
516.96	27897.43
517.17	27866.71
517.37	27829.85
517.58	27706.97
517.78	27946.58
517.99	27788.89
518.19	28200.53
518.39	28032.60
518.60	28405.33
518.80	28124.75
519.01	28388.94
519.21	28380.75
519.41	28608.08
519.62	28304.98
519.82	28577.36
520.03	28943.94
520.23	28681.80
520.43	28782.15
520.64	29267.52
520.84	29165.12
521.05	28694.09
521.25	28952.13
521.45	29249.09
521.66	29281.86
521.86	29322.82
522.07	29345.34
522.27	29341.25
522.47	29535.81
522.68	29427.26
522.88	29337.15
523.08	30062.13
523.29	29603.39
523.49	29466.17
523.70	29865.53
523.90	29802.04
524.10	30135.86
524.31	30105.14
524.51	29863.48
524.71	30379.57
524.92	30111.28
525.12	30240.31
525.33	30221.87
525.53	30230.07
525.73	30819.88
525.94	30592.56
526.14	30823.98
526.34	30918.18
526.55	31182.37
526.75	31120.93
526.95	31254.05
527.16	30819.88
527.36	31366.69
527.56	31399.46
527.77	31587.87
527.97	31286.82
528.17	31618.59
528.38	31895.07
528.58	31608.35
528.78	31893.02
528.99	31858.20
529.19	32048.66
529.39	31718.94
529.60	32415.25
529.80	32132.63
530.00	32224.79
530.21	32638.48
530.41	32798.22
530.61	32480.78
530.82	32804.36
531.02	33084.94
531.22	32962.06
531.43	32988.68
531.63	33297.92
531.83	33353.22
532.04	33580.54
532.24	33127.94
532.44	33312.26
532.64	33750.52
532.85	33824.25
533.05	33615.36
533.25	33533.44
533.46	33715.71
533.66	34053.62
533.86	33932.79
534.07	34080.25
534.27	34393.59
534.47	34457.07
534.67	34733.55
534.88	34586.10
535.08	34735.60
535.28	35128.81
535.49	35687.90
535.69	35419.62
535.89	35210.73
536.09	35425.76
536.30	35534.31
536.50	35411.43
536.70	35665.38
536.91	35419.62
537.11	36193.75
537.31	35837.41
537.51	35835.36
537.72	36005.34
537.92	36275.67
538.12	36488.66
538.32	35999.19
538.53	36668.88
538.73	36457.94
538.93	36607.44
539.13	36482.52
539.34	36744.66
539.54	36773.33
539.74	37600.71
539.94	36926.92
540.15	37342.66
540.35	37383.62
540.55	37152.20
540.75	37330.37
540.96	37789.12
541.16	37651.91
541.36	37639.62
541.56	37821.89
541.77	37909.95
541.97	37809.60
542.17	38159.80
542.37	38211.00
542.58	38200.76
542.78	38292.92
542.98	38047.16
543.18	38790.58
543.38	38729.14
543.59	39155.11
543.79	38829.49
543.99	38679.99
544.19	38991.28
544.40	38991.28
544.60	39194.03
544.80	39069.10
545.00	39196.07
545.20	39523.75
545.41	39411.11
545.61	39404.97
545.81	39624.10
546.01	39826.85
546.21	39617.96
546.42	39466.41
546.62	40035.74
546.82	39585.19
547.02	39855.52
547.22	40220.06
547.43	39746.98
547.63	40607.12
547.83	40498.58
548.03	39820.70
548.23	40721.81
548.44	40596.88
548.64	40439.19
548.84	40553.88
549.04	40418.71
549.24	40904.08
549.45	41129.36
549.65	40693.14
549.85	41074.06
550.05	41430.41
550.25	41184.65
550.45	41817.47
550.66	41178.51
550.86	41178.51
551.06	41809.28
551.26	41377.16
551.46	41854.34
551.66	42147.20
551.87	41667.97
552.07	41786.75
552.27	42034.56
552.47	42392.95
552.67	42087.81
552.87	42179.96
553.07	42487.16
553.28	42020.22
553.48	42370.43
553.68	42526.07
553.88	42524.02
554.08	42208.64
554.28	42390.91
554.48	42403.19
554.69	43003.25
554.89	42780.02
555.09	43036.02
555.29	42335.61
555.49	42710.39
555.69	42816.88
555.89	43406.70
556.10	43113.84
556.30	42898.80
556.50	42990.96
556.70	43302.25
556.90	43298.16
557.10	43488.62
557.30	42986.86
557.50	43568.49
557.70	43537.77
557.91	43507.05
558.11	43425.13
558.31	43834.72
558.51	43711.84
558.71	43804.00
558.91	44057.95
559.11	43793.76
559.31	44084.58
559.51	43885.92
559.72	43914.59
559.92	43859.30
560.12	44025.18
560.32	44113.25
560.52	44053.86
560.72	44438.87
560.92	44211.55
561.12	44090.72
561.32	44432.73
561.52	43941.22
561.72	44782.93
561.93	44471.64
562.13	44449.11
562.33	43984.22
562.53	45061.46
562.73	44387.67
562.93	44815.70
563.13	44850.52
563.33	44627.29
563.53	44883.28
563.73	44692.82
563.93	44815.70
564.13	45331.79
564.33	44571.99
564.53	44891.48
564.74	45501.77
564.94	45040.98
565.14	45542.73
565.34	44940.63
565.54	45299.02
565.74	45061.46
565.94	45692.23
566.14	45096.27
566.34	45036.88
566.54	45626.70
566.74	45217.10
566.94	45446.47
567.14	45667.66
567.34	45370.70
567.54	46087.49
567.74	45659.46
567.94	45546.82
568.14	46067.01
568.34	46144.83
568.54	45958.47
568.74	45880.64
568.94	45679.94
569.14	46085.44
569.34	45995.33
569.54	46077.25
569.75	45925.70
569.95	46028.10
570.15	46648.63
570.35	46126.40
570.55	45942.08
570.75	46314.81
570.95	46404.92
571.15	46437.69
571.35	46312.77
571.55	46941.49
571.75	46650.68
571.95	46552.38
572.15	46667.06
572.35	46378.30
572.55	46107.97
572.75	46548.28
572.95	46755.13
573.15	46726.46
573.35	46824.76
573.55	46185.79
573.75	46755.13
573.95	46929.20
574.15	46400.83
574.35	47072.56
574.55	46998.83
574.75	46728.50
574.95	46619.96
575.15	46579.00
575.34	47062.32
575.54	47314.22
575.74	47306.03
575.94	47045.94
576.14	46798.13
576.34	47306.03
576.54	47594.79
576.74	47414.57
576.94	47420.72
577.14	47516.97
577.34	48340.25
577.54	47547.69
577.74	47531.31
577.94	47703.34
578.14	47752.49
578.34	48067.87
578.54	47678.76
578.74	47887.65
578.94	48151.84
579.14	47838.50
579.34	47820.07
579.54	47686.95
579.74	48121.12
579.94	48020.77
580.13	48149.79
580.33	48373.02
580.53	48389.41
580.73	48203.04
580.93	48284.96
581.13	48252.19
581.33	48633.11
581.53	48422.17
581.73	48588.06
581.93	48882.97
582.13	48356.64
582.33	48454.94
582.53	48596.25
582.73	49050.90
582.92	48405.79
583.12	48846.10
583.32	48801.05
583.52	48215.33
583.72	49026.32
583.92	48610.59
584.12	48702.74
584.32	49673.48
584.52	48907.54
584.72	49288.46
584.92	48960.79
585.11	49380.62
585.31	49141.01
585.51	49329.42
585.71	49079.57
585.91	49272.08
586.11	49100.05
586.31	49063.19
586.51	49122.58
586.71	49517.84
586.91	49403.15
587.10	49315.09
587.30	49147.15
587.50	49704.20
587.70	49698.06
587.90	50035.97
588.10	49902.85
588.30	49753.35
588.50	49476.88
588.69	49540.36
588.89	49120.53
589.09	50246.91
589.29	49925.38
589.49	49906.95
589.69	49452.30
589.89	49878.28
590.08	49825.03
590.28	49878.28
590.48	49325.33
590.68	49507.60
590.88	50038.02
591.08	49726.73
591.28	49972.49
591.47	50244.87
591.67	49917.19
591.87	50042.12
592.07	50138.37
592.27	50371.84
592.47	49775.88
592.67	50380.03
592.86	50210.05
593.06	50572.54
593.26	50820.34
593.46	50574.59
593.66	50425.09
593.86	50314.50
594.05	50511.10
594.25	50468.09
594.45	50035.97
594.65	50296.06
594.85	50730.23
595.05	50930.93
595.24	50971.89
595.44	50361.60
595.64	50609.40
595.84	50883.83
596.04	50578.68
596.23	50584.83
596.43	51205.36
596.63	50578.68
596.83	50793.72
597.03	50812.15
597.22	51313.90
597.42	50470.14
597.62	51107.06
597.82	50859.26
598.02	51111.16
598.21	51496.17
598.41	50945.27
598.61	51318.00
598.81	50818.30
599.01	51274.99
599.20	51229.94
599.40	51258.61
599.60	51320.05
599.80	51379.44
600.00	51318.00
600.19	51582.19
600.39	51006.71
600.59	51401.97
600.79	51311.86
600.98	51076.34
601.18	51358.96
601.38	51588.33
601.58	51705.07
601.78	51803.37
601.97	51936.49
602.17	51969.26
602.37	51993.83
602.57	51762.41
602.76	51729.64
602.96	51944.68
603.16	52274.40
603.36	51768.55
603.55	52163.81
603.75	52030.69
603.95	52118.76
604.15	52188.39
604.34	51885.29
604.54	52131.04
604.74	52356.32
604.94	51989.73
605.13	52102.37
605.33	52692.19
605.53	52174.05
605.73	52569.31
605.92	52045.03
606.12	52155.62
606.32	52708.57
606.52	52612.32
606.71	52786.39
606.91	52923.61
607.11	52554.97
607.30	52939.99
607.50	52329.70
607.70	53249.24
607.90	52776.15
608.09	52821.21
608.29	52993.24
608.49	52925.66
608.68	52583.65
608.88	52978.90
609.08	53370.07
609.28	53294.29
609.47	53073.11
609.67	53482.70
609.87	53249.24
610.06	53327.06
610.26	53177.56
610.46	53341.39
610.66	52745.44
610.85	53191.89
611.05	53095.64
611.25	53269.72
611.44	53046.49
611.64	53353.68
611.84	53320.91
612.03	53243.09
612.23	53365.97
612.43	53630.16
612.62	53124.31
612.82	53357.78
613.02	53462.22
613.21	53652.69
613.41	53165.27
613.61	53306.58
613.80	52757.72
614.00	53445.84
614.20	53925.07
614.39	53425.36
614.59	53558.48
614.79	53478.61
614.98	53400.79
615.18	53773.52
615.38	53834.95
615.57	53392.59
615.77	54015.18
615.97	53755.08
616.16	53689.55
616.36	53095.64
616.56	53880.01
616.75	53796.04
616.95	53427.41
617.15	53378.26
617.34	53759.18
617.54	53343.44
617.74	53920.97
617.93	53849.29
618.13	53523.66
618.32	53296.34
618.52	53591.25
618.72	53429.46
618.91	53892.30
619.11	53662.93
619.31	53613.77
619.50	53994.70
619.70	53171.41
619.90	53435.60
620.09	53746.89
620.29	53228.76
620.48	53556.43
620.68	54133.96
620.88	53507.28
621.07	53712.08
621.27	53472.46
621.46	53433.55
621.66	54158.53
621.86	53773.52
622.05	53538.00
622.25	53771.47
622.44	53667.02
622.64	53163.22
622.84	53712.08
623.03	53523.66
623.23	53378.26
623.42	53898.44
623.62	53531.86
623.82	54162.63
624.01	53830.86
624.21	53937.35
624.40	53669.07
624.60	53433.55
624.80	53705.93
624.99	53724.36
625.19	53269.72
625.38	53714.12
625.58	53505.23
625.77	53845.19
625.97	54078.66
626.17	53556.43
626.36	53716.17
626.56	54113.48
626.75	53654.73
626.95	54514.88
627.14	53486.80
627.34	54076.61
627.54	53597.39
627.73	54025.42
627.93	53759.18
628.12	53462.22
628.32	54340.80
628.51	54025.42
628.71	53241.04
628.90	54058.18
629.10	54000.84
629.30	54078.66
629.49	54127.81
629.69	54039.75
629.88	53955.78
630.08	54551.74
630.27	54320.32
630.47	54181.06
630.66	53871.82
630.86	54244.55
631.05	53996.74
631.25	54639.81
631.44	54340.80
631.64	54260.93
631.84	54453.44
632.03	55004.34
632.23	54578.37
632.42	54420.67
632.62	54428.87
632.81	54359.23
633.01	54381.76
633.20	54811.84
633.40	54922.43
633.59	54705.34
633.79	54289.60
633.98	54392.00
634.18	54668.48
634.37	54801.60
634.57	54412.48
634.76	54826.17
634.96	54682.81
635.15	54846.65
635.35	54301.89
635.54	54789.31
635.74	54924.47
635.93	54756.54
636.13	55116.98
636.32	54926.52
636.52	54635.71
636.71	54752.44
636.91	54828.22
637.10	55010.49
637.30	54486.21
637.49	54654.14
637.69	54867.13
637.88	55332.02
638.08	54512.83
638.27	55383.22
638.46	55018.68
638.66	54777.02
638.85	54678.72
639.05	55542.96
639.24	55577.78
639.44	55002.30
639.63	55192.76
639.83	55188.66
640.02	55370.93
640.22	55708.85
640.41	55655.60
640.61	54731.96
640.80	55207.09
640.99	55522.48
641.19	56251.56
641.38	55538.86
641.58	55635.12
641.77	55585.97
641.97	55391.41
642.16	55372.98
642.36	55903.40
642.55	56181.93
642.74	55282.87
642.94	56194.21
643.13	55153.85
643.33	55880.88
643.52	56034.47
643.72	55966.89
643.91	55801.00
644.10	55655.60
644.30	56245.41
644.49	55919.79
644.69	55950.51
644.88	55631.02
645.08	55833.77
645.27	56038.57
645.46	55876.78
645.66	56054.95
645.85	55925.93
646.05	56329.38
646.24	56333.48
646.43	56224.93
646.63	56376.48
646.82	56761.50
647.02	56415.40
647.21	56462.50
647.40	56540.32
647.60	56368.29
647.79	56890.52
647.99	56542.37
648.18	56513.70
648.37	57283.73
648.57	56796.32
648.76	56898.72
648.96	56177.83
649.15	56964.25
649.34	57193.62
649.54	57210.01
649.73	56515.75
649.92	56644.77
650.12	56519.84
650.31	57171.10
650.51	57160.86
650.70	57244.82
650.89	57130.14
651.09	57500.82
651.28	57042.07
651.47	57334.93
651.67	57177.24
651.86	57429.14
652.06	56988.83
652.25	57582.74
652.44	57148.57
652.64	57441.43
652.83	57478.29
653.02	57283.73
653.22	57308.31
653.41	57164.95
653.60	57164.95
653.80	57531.54
653.99	57509.01
654.18	57664.66
654.38	57537.68
654.57	57652.37
654.76	57132.18
654.96	57613.46
655.15	57693.33
655.34	57601.17
655.54	57580.69
655.73	57662.61
655.92	57701.52
656.12	57808.01
656.31	57463.96
656.50	57910.41
656.70	57552.02
656.89	57597.07
657.08	57908.36
657.28	57492.63
657.47	57877.64
657.66	58029.19
657.86	57816.21
658.05	58102.92
658.24	58147.98
658.43	58027.15
658.63	57683.09
658.82	58190.98
659.01	57877.64
659.21	58195.08
659.40	57975.95
659.59	57840.78
659.79	58225.80
659.98	58195.08
660.17	58193.03
660.36	58254.47
660.56	58363.01
660.75	58354.82
660.94	58139.78
661.14	58307.72
661.33	57793.68
661.52	57750.67
661.71	58334.34
661.91	58086.54
662.10	57975.95
662.29	58365.06
662.49	58209.42
662.68	58336.39
662.87	58336.39
663.06	58715.26
663.26	57867.40
663.45	58782.85
663.64	58653.82
663.83	59030.65
664.03	58897.53
664.22	58619.01
664.41	58647.68
664.60	58207.37
664.80	58596.48
664.99	58205.32
665.18	58406.02
665.37	58541.19
665.57	58451.08
665.76	58414.21
665.95	58573.95
666.14	57941.13
666.34	58475.65
666.53	58045.58
666.72	58471.56
666.91	58537.09
667.11	58432.64
667.30	58268.81
667.49	58190.98
667.68	58446.98
667.87	58668.16
668.07	58717.31
668.26	58494.08
668.45	58635.39
668.64	58307.72
668.84	58946.68
669.03	58881.15
669.22	59094.14
669.41	58866.81
669.60	58850.43
669.80	58459.27
669.99	58803.33
670.18	58709.12
670.37	58979.45
670.57	59042.94
670.76	58588.29
670.95	59292.79
671.14	58567.81
671.33	58535.04
671.53	59221.11
671.72	58758.27
671.91	58436.74
672.10	58647.68
672.29	58629.25
672.48	58324.10
672.68	59069.56
672.87	58520.71
673.06	58756.22
673.25	58621.06
673.44	58133.64
673.64	58694.78
673.83	58539.14
674.02	58641.54
674.21	58301.57
674.40	58289.29
674.59	58520.71
674.79	58506.37
674.98	58729.60
675.17	58479.75
675.36	57865.36
675.55	58784.90
675.74	58147.98
675.94	58174.60
676.13	58705.02
676.32	58979.45
676.51	58678.40
676.70	58668.16
676.89	58707.07
677.08	58973.31
677.28	58152.07
677.47	58604.67
677.66	58842.24
677.85	58299.53
678.04	58674.30
678.23	58670.21
678.42	58541.19
678.62	58489.99
678.81	58985.60
679.00	58766.46
679.19	59223.16
679.38	58578.05
679.57	58317.96
679.76	58119.31
679.96	58561.67
680.15	58397.83
680.34	58315.91
680.53	58133.64
680.72	58385.54
680.91	59004.03
681.10	58082.44
681.29	58219.66
681.48	58360.97
681.68	58301.57
681.87	58121.35
682.06	58143.88
682.25	57500.82
682.44	57728.14
682.63	58530.95
682.82	58010.76
683.01	57869.45
683.20	57939.08
683.39	58520.71
683.59	57881.74
683.78	57773.20
683.97	57795.73
684.16	57703.57
684.35	57257.11
684.54	57455.76
684.73	57816.21
684.92	57382.04
685.11	57760.91
685.30	57349.27
685.49	58332.29
685.69	57664.66
685.88	57619.60
686.07	57431.19
686.26	57676.94
686.45	57572.50
686.64	57805.97
686.83	57365.65
687.02	57939.08
687.21	58049.67
687.40	57316.50
687.59	57803.92
687.78	57740.43
687.97	57851.02
688.16	57220.25
688.35	57373.84
688.54	57160.86
688.74	57144.47
688.93	56974.49
689.12	57128.09
689.31	57005.21
689.50	57480.34
689.69	56669.34
689.88	57007.26
690.07	56820.89
690.26	56468.64
690.45	57007.26
690.64	56990.87
690.83	56820.89
691.02	56798.37
691.21	56394.92
691.40	56298.66
691.59	56603.81
691.78	56677.54
691.97	56997.02
692.16	56784.03
692.35	56929.44
692.54	56693.92
692.73	56833.18
692.92	56464.55
693.11	56726.69
693.30	56310.95
693.49	56247.46
693.68	56181.93
693.87	56188.07
694.06	56024.23
694.25	56194.21
694.44	55915.69
694.63	56253.61
694.82	56616.10
695.01	56100.01
695.20	56259.75
695.39	55940.27
695.58	55983.27
695.77	55776.43
695.96	56005.80
696.15	55991.47
696.34	55573.68
696.53	55973.03
696.72	56032.42
696.91	55727.28
697.10	55915.69
697.29	55428.27
697.48	56372.39
697.67	55768.24
697.86	55219.38
698.05	55495.86
698.24	55975.08
698.43	55270.58
698.62	55803.05
698.81	55389.36
699.00	55884.97
699.19	55192.76
699.38	55444.66
699.57	55401.65
699.76	55825.58
699.95	55051.45
700.14	54981.82
700.32	55104.70
700.51	55145.65
700.70	55250.10
700.89	55485.62
701.08	55059.64
701.27	55055.54
701.46	55401.65
701.65	54525.12
701.84	54813.88
702.03	55084.22
702.22	54789.31
702.41	54879.42
702.60	54662.33
702.79	54668.48
702.98	54672.57
703.17	54797.50
703.35	54387.91
703.54	54043.85
703.73	54426.82
703.92	54903.99
704.11	54101.19
704.30	54394.05
704.49	54023.37
704.68	53834.95
704.87	54023.37
705.06	54392.00
705.25	53851.34
705.43	53898.44
705.62	53892.30
705.81	53923.02
706.00	53652.69
706.19	53445.84
706.38	53421.26
706.57	53509.33
706.76	53531.86
706.95	53335.25
707.14	53408.98
707.32	53327.06
707.51	53101.78
707.70	53148.88
707.89	53259.48
708.08	53880.01
708.27	53564.62
708.46	53898.44
708.65	53257.43
708.84	53615.82
709.02	53429.46
709.21	53200.08
709.40	53132.50
709.59	53171.41
709.78	52692.19
709.97	53449.94
710.16	52970.71
710.34	52872.41
710.53	53261.52
710.72	52610.27
710.91	53040.34
711.10	52907.22
711.29	52413.66
711.48	52878.55
711.66	52628.70
711.85	52739.29
712.04	52442.34
712.23	52452.58
712.42	52397.28
712.61	52258.02
712.80	51901.67
712.98	52532.45
713.17	52245.73
713.36	52264.16
713.55	52364.51
713.74	51950.82
713.93	51961.06
714.11	52212.96
714.30	51786.99
714.49	52124.90
714.68	52112.61
714.87	51561.71
715.06	52102.37
715.24	51692.78
715.43	51522.80
715.62	51442.93
715.81	51582.19
716.00	51975.40
716.18	51203.31
716.37	51127.54
716.56	51066.10
716.75	51594.48
716.94	51303.67
717.12	51354.86
717.31	51328.24
717.50	51225.84
717.69	50574.59
717.88	51164.40
718.06	51422.45
718.25	51328.24
718.44	50527.48
718.63	51102.96
718.82	50689.27
719.00	50683.13
719.19	50494.72
719.38	50728.19
719.57	50156.80
719.76	50058.50
719.94	50169.09
720.13	50246.91
720.32	50281.73
720.51	49960.20
720.69	49954.05
720.88	49771.78
721.07	50222.34
721.26	49530.12
721.44	49560.84
721.63	49706.25
721.82	49276.18
722.01	49456.40
722.20	49554.70
722.38	49220.88
722.57	49624.33
722.76	49052.95
722.95	49374.48
723.13	48760.09
723.32	48872.73
723.51	48768.28
723.70	48973.08
723.88	48981.27
724.07	48706.84
724.26	49055.00
724.44	48538.91
724.63	48938.26
724.82	48772.38
725.01	48284.96
725.19	48471.32
725.38	48516.38
725.57	48473.37
725.76	48770.33
725.94	48678.17
726.13	48297.25
726.32	48358.69
726.51	47930.66
726.69	48479.52
726.88	48370.97
727.07	47901.99
727.25	48170.27
727.44	47938.85
727.63	47719.72
727.82	48160.03
728.00	48332.06
728.19	47531.31
728.38	48121.12
728.56	47320.37
728.75	47830.31
728.94	47619.37
729.12	48094.50
729.31	47695.14
729.50	47631.66
729.69	48350.49
729.87	47734.06
730.06	47635.75
730.25	47502.64
730.43	47938.85
730.62	47734.06
730.81	47887.65
730.99	48121.12
731.18	48114.98
731.37	47449.39
731.55	47453.48
731.74	47781.16
731.93	48250.14
732.11	47732.01
732.30	47734.06
732.49	47504.68
732.67	47312.17
732.86	47480.11
733.05	47488.30
733.23	46867.76
733.42	47412.52
733.61	47490.35
733.79	47537.45
733.98	47865.13
734.17	47334.70
734.35	47220.02
734.54	47527.21
734.73	47449.39
734.91	47174.96
735.10	47283.50
735.29	47721.77
735.47	46978.36
735.66	47568.17
735.84	47234.35
736.03	47314.22
736.22	47592.75
736.40	47586.60
736.59	47127.86
736.78	47015.22
736.96	46894.39
737.15	46974.26
737.33	46961.97
737.52	46699.83
737.71	46959.92
737.89	46333.24
738.08	46486.84
738.27	46507.32
738.45	47134.00
738.64	46591.29
738.82	46316.86
739.01	46411.07
739.20	46630.20
739.38	46746.93
739.57	46959.92
739.75	46732.60
739.94	46271.81
740.13	46290.24
740.31	46271.81
740.50	46675.26
740.68	46495.03
740.87	46642.49
741.06	47119.66
741.24	46300.48
741.43	45907.27
741.61	46093.63
741.80	45993.28
741.99	45620.55
742.17	46341.44
742.36	46069.06
742.54	45958.47
742.73	45831.49
742.91	46535.99
743.10	45991.23
743.29	46220.61
743.47	45770.05
743.66	45993.28
743.84	46130.50
744.03	45968.71
744.21	45571.40
744.40	46167.36
744.59	46089.54
744.77	45557.06
744.96	45968.71
745.14	46136.64
745.33	46005.57
745.51	45786.44
745.70	45718.85
745.88	45806.92
746.07	45552.97
746.26	45208.91
746.44	45716.81
746.63	45208.91
746.81	45292.88
747.00	45243.73
747.18	45638.98
747.37	45421.90
747.55	45487.43
747.74	45763.91
747.92	45239.63
748.11	45018.45
748.29	45225.29
748.48	45372.75
748.66	44979.54
748.85	45249.87
749.03	45194.57
749.22	45303.12
749.41	44901.71
749.59	44971.35
749.78	44705.11
749.96	44776.79
750.15	44473.69
750.33	44696.92
750.52	44494.17
750.70	44784.98
750.89	44512.60
751.07	44424.54
751.26	44741.97
751.44	44373.34
751.63	44467.55
751.81	44537.18
752.00	44023.14
752.18	44483.93
752.37	44787.03
752.55	44113.25
752.74	44279.13
752.92	44094.82
753.10	43982.18
753.29	44180.83
753.47	44021.09
753.66	43816.29
753.84	44307.80
754.03	43912.55
754.21	44109.15
754.40	43941.22
754.58	43851.11
754.77	43902.31
754.95	43806.05
755.14	43922.79
755.32	43859.30
755.51	43472.23
755.69	43171.18
755.88	43505.00
756.06	43826.53
756.24	43281.77
756.43	43566.44
756.61	43509.10
756.80	43429.23
756.98	43474.28
757.17	43283.82
757.35	43636.07
757.54	43445.61
757.72	43476.33
757.90	43396.46
758.09	43068.78
758.27	43390.31
758.46	43201.90
758.64	43269.48
758.83	43566.44
759.01	43119.98
759.19	43355.50
759.38	42915.19
759.56	43656.55
759.75	43408.75
759.93	43154.80
760.12	42724.72
760.30	43132.27
760.48	42837.36
760.67	42988.91
760.85	43101.55
761.04	43081.07
761.22	42855.79
761.40	42913.14
761.59	42857.84
761.77	42331.51
761.96	42642.81
762.14	42689.91
762.32	42567.03
762.51	42511.74
762.69	42552.69
762.88	42304.89
763.06	42718.58
763.24	42765.68
763.43	42788.21
763.61	42417.53
763.80	42208.64
763.98	42190.20
764.16	42284.41
764.35	42067.33
764.53	42212.73
764.72	42169.72
764.90	41995.65
765.08	41690.50
765.27	41954.69
765.45	41964.93
765.63	41659.78
765.82	41899.39
766.00	41897.34
766.18	41885.06
766.37	41790.85
766.55	41698.69
766.74	41741.70
766.92	41565.57
767.10	41772.42
767.29	41594.25
767.47	41325.96
767.65	41758.08
767.84	41364.87
768.02	41563.53
768.20	41325.96
768.39	41493.89
768.57	41198.99
768.75	40856.98
768.94	41420.17
769.12	41543.05
769.30	41053.58
769.49	40926.61
769.67	41192.84
769.85	40850.83
770.04	41031.05
770.22	40777.11
770.40	40826.26
770.59	40410.52
770.77	41252.23
770.95	40986.00
771.14	40805.78
771.32	40557.97
771.50	40183.19
771.69	40590.74
771.87	40721.81
772.05	40648.08
772.24	40207.77
772.42	40641.94
772.60	40379.80
772.78	40189.34
772.97	39820.70
773.15	40461.72
773.33	40385.94
773.52	40021.41
773.70	40224.15
773.88	40934.80
774.07	40113.56
774.25	40043.93
774.43	40596.88
774.61	40162.72
774.80	40265.11
774.98	40416.66
775.16	40287.64
775.34	40893.84
775.53	40107.42
775.71	40461.72
775.89	40795.54
776.08	40256.92
776.26	40730.00
776.44	40816.02
776.62	40576.40
776.81	40142.24
776.99	40783.25
777.17	40467.86
777.35	40277.40
777.54	41010.57
777.72	40742.29
777.90	40619.41
778.08	40641.94
778.27	40562.07
778.45	40830.35
778.63	41133.45
778.81	40648.08
779.00	41606.53
779.18	40891.79
779.36	41266.57
779.54	41080.21
779.73	40899.98
779.91	41129.36
780.09	41192.84
780.27	41194.89
780.46	41078.16
780.64	41172.36
780.82	41205.13
781.00	41127.31
781.19	41565.57
781.37	41287.05
781.55	41563.53
781.73	41905.54
781.91	41223.56
782.10	41493.89
782.28	41571.72
782.46	41840.00
782.64	41848.19
782.82	41502.09
783.01	41590.15
783.19	41624.96
783.37	41784.71
783.55	41571.72
783.74	42141.05
783.92	41612.68
784.10	42120.57
784.28	41772.42
784.46	41442.70
784.64	41561.48
784.83	41821.57
785.01	42222.97
785.19	41487.75
785.37	41766.27
785.55	41766.27
785.74	41139.60
785.92	41211.28
786.10	41670.02
786.28	41981.31
786.46	41239.95
786.64	41579.91
786.83	41207.18
787.01	41502.09
787.19	41493.89
787.37	41809.28
787.55	41375.11
787.74	41502.09
787.92	41127.31
788.10	41549.19
788.28	41213.32
788.46	41833.86
788.64	40904.08
788.82	41311.63
789.01	41278.86
789.19	41448.84
789.37	41420.17
789.55	40895.89
789.73	40977.81
789.91	41029.01
790.09	40517.01
790.28	40768.91
790.46	40752.53
790.64	40934.80
790.82	40803.73
791.00	40539.54
791.18	40545.69
791.36	40785.30
791.55	40592.79
791.73	40293.79
791.91	40287.64
792.09	39998.88
792.27	40383.90
792.45	40244.63
792.63	39810.46
792.81	39712.16
793.00	39703.97
793.18	39876.00
793.36	39441.83
793.54	39523.75
793.72	39765.41
793.90	39529.89
794.08	39398.82
794.26	39669.15
794.44	38929.84
794.62	39374.25
794.81	39142.83
794.99	39370.15
795.17	38919.60
795.35	39060.91
795.53	39138.73
795.71	39513.51
795.89	38915.50
796.07	38632.88
796.25	38745.52
796.43	38464.95
796.61	38503.86
796.80	38553.01
796.98	38497.72
797.16	38184.38
797.34	38075.84
797.52	37995.96
797.70	38589.88
797.88	38030.78
798.06	37969.34
798.24	38075.84
798.42	38108.60
798.60	37471.68
798.78	37563.84
798.96	37629.38
799.14	37627.33
799.32	37731.78
799.51	37270.98
799.69	37074.38
799.87	37354.95
800.05	36828.62
800.23	37160.39
800.41	36916.68
800.59	36998.60
800.77	36912.59
800.95	36859.34
801.13	36701.65
801.31	36437.46
801.49	37090.76
801.67	36371.92
801.85	36910.54
802.03	35927.52
802.21	36353.49
802.39	36099.55
802.57	36099.55
802.75	36244.95
802.93	36111.83
803.11	36146.65
803.29	35608.03
803.47	35646.94
803.65	35851.74
803.83	35728.86
804.01	35773.92
804.19	35814.88
804.37	35323.36
804.55	35411.43
804.73	35147.24
804.91	35204.58
805.09	35233.25
805.27	35003.88
805.45	35401.19
805.63	35395.04
805.81	35079.66
805.99	35042.79
806.17	34932.20
806.35	34926.06
806.53	34668.02
806.71	35208.68
806.89	34256.37
807.07	34479.60
807.25	34528.75
807.43	34391.54
807.61	34516.47
807.79	34221.56
807.97	33830.40
808.15	34242.04
808.33	34285.04
808.51	33938.94
808.69	34149.88
808.87	33900.03
809.05	33873.40
809.23	33623.55
809.41	33588.74
809.59	33725.95
809.77	33750.52
809.95	33281.54
810.13	33478.15
810.31	33570.30
810.49	33275.40
810.67	33347.08
810.84	33277.44
811.02	33269.25
811.20	33218.05
811.38	33023.50
811.56	32714.25
811.74	32853.51
811.92	32839.18
812.10	32781.84
812.28	32853.51
812.46	32732.68
812.64	32618.00
812.82	32480.78
813.00	32857.61
813.18	32767.50
813.36	32300.56
813.53	32312.85
813.71	32413.20
813.89	32249.36
814.07	32622.09
814.25	32484.88
814.43	32095.77
814.61	32300.56
814.79	31915.54
814.97	32204.31
815.15	31690.27
815.33	31956.50
815.50	31479.33
815.68	31979.03
815.86	32081.43
816.04	31512.10
816.22	31594.01
816.40	31905.31
816.58	31241.76
816.76	31438.37
816.94	31071.78
817.11	31383.07
817.29	31190.56
817.47	31118.89
817.65	31405.60
817.83	31546.91
818.01	31225.38
818.19	31020.58
818.37	30897.70
818.54	30551.60
818.72	31018.53
818.90	30633.52
819.08	30959.14
819.26	30844.46
819.44	30529.07
819.62	30895.66
819.80	30578.22
819.97	30797.35
820.15	30524.97
820.33	30228.02
820.51	30684.72
820.69	29859.38
820.87	30596.65
821.05	30228.02
821.22	29894.20
821.40	30240.31
821.58	30166.58
821.76	30314.03
821.94	30172.72
822.12	30137.91
822.29	30148.15
822.47	30053.94
822.65	30412.34
822.83	30072.37
823.01	30142.00
823.19	29668.92
823.36	29451.84
823.54	29613.63
823.72	29527.61
823.90	29503.04
824.08	29374.02
824.25	29507.13
824.43	29242.95
824.61	29535.81
824.79	29261.38
824.97	29163.08
825.15	29191.75
825.32	29244.99
825.50	29281.86
825.68	29099.59
825.86	29427.26
826.04	29535.81
826.21	28935.75
826.39	28862.02
826.57	28847.69
826.75	28878.41
826.93	28905.03
827.10	28755.53
827.28	28712.52
827.46	28739.15
827.64	28804.68
827.81	28571.21
827.99	28681.80
828.17	28542.54
828.35	28407.37
828.53	28427.85
828.70	28577.36
828.88	28143.19
829.06	28415.57
829.24	28663.37
829.41	28182.10
829.59	28474.96
829.77	28345.94
829.95	28063.32
830.12	28208.72
830.30	28122.71
830.48	28696.14
830.66	27950.68
830.84	28278.35
831.01	27876.95
831.19	28302.93
831.37	28053.08
831.55	27725.40
831.72	27813.46
831.90	27745.88
832.08	27893.33
832.25	27582.04
832.43	27885.14
832.61	27772.50
832.79	27502.17
832.96	27668.06
833.14	28126.80
833.32	27833.94
833.50	27655.77
833.67	27524.70
833.85	27680.35
834.03	27178.59
834.20	27575.90
834.38	27401.82
834.56	27672.15
834.74	27166.31
834.91	27145.83
835.09	27328.10
835.27	26828.39
835.44	26717.80
835.62	26725.99
835.80	26926.69
835.98	27156.07
836.15	27145.83
836.33	26977.89
836.51	27121.25
836.68	26797.67
836.86	26818.15
837.04	26900.07
837.21	26764.90
837.39	26949.22
837.57	26771.05
837.75	26895.97
837.92	26590.83
838.10	26707.56
838.28	26363.50
838.45	26697.32
838.63	26109.55
838.81	26465.90
838.98	26324.59
839.16	26173.04
839.34	25908.85
839.51	26328.69
839.69	26316.40
839.87	26277.49
840.04	25996.92
840.22	26234.48
840.40	25996.92
840.57	25876.09
840.75	26115.70
840.93	25683.58
841.10	25851.51
841.28	26232.43
841.46	25857.65
841.63	25828.98
841.81	25761.40
841.98	25882.23
842.16	25630.33
842.34	26254.96
842.51	25509.50
842.69	25994.87
842.87	25476.73
843.04	25781.88
843.22	25470.59
843.40	25671.29
843.57	25534.07
843.75	25482.88
843.92	25831.03
844.10	25474.68
844.28	25515.64
844.45	25441.92
844.63	25368.19
844.81	25443.96
844.98	25577.08
845.16	25273.98
845.33	25071.23
845.51	25327.23
845.69	25056.90
845.86	24901.25
846.04	25196.16
846.21	25013.89
846.39	24821.38
846.57	24800.90
846.74	24882.82
846.92	25032.32
847.09	24866.44
847.27	24671.88
847.45	24927.88
847.62	24630.92
847.80	24829.57
847.97	24868.48
848.15	24630.92
848.32	24553.10
848.50	24477.32
848.68	24399.50
848.85	24727.17
849.03	24252.05
849.20	24501.90
849.38	24215.18
849.56	24524.43
849.73	23897.75
849.91	24315.53
850.08	24401.55
850.26	24190.61
850.43	24034.96
850.61	24295.05
850.78	23815.83
850.96	24129.17
851.14	23932.56
851.31	24129.17
851.49	24067.73
851.66	23834.26
851.84	24104.59
852.01	23856.79
852.19	23926.42
852.36	23879.32
852.54	23662.23
852.71	23678.61
852.89	23781.01
853.07	23701.14
853.24	23586.46
853.42	23752.34
853.59	23477.91
853.77	23297.69
853.94	23893.65
854.12	23801.49
854.29	23295.64
854.47	23406.23
854.64	23570.07
854.82	23527.06
854.99	23420.57
855.17	23318.17
855.34	23213.73
855.52	23453.34
855.69	23645.85
855.87	23191.20
856.04	23025.31
856.22	23469.72
856.39	23142.05
856.57	23084.70
856.74	22865.57
856.92	23197.34
857.09	22892.19
857.27	22720.17
857.44	23113.38
857.62	22609.58
857.79	22892.19
857.97	22953.63
858.14	22918.82
858.32	22914.72
858.49	22691.49
858.67	22720.17
858.84	22394.54
859.02	22824.61
859.19	22574.76
859.37	22642.34
859.54	22675.11
859.72	22568.62
859.89	22259.37
860.06	22435.50
860.24	22290.09
860.41	22593.19
860.59	22187.69
860.76	22306.48
860.94	22042.29
861.11	22298.28
861.29	22023.86
861.46	22245.04
861.64	21905.07
861.81	22212.27
861.98	22013.62
862.16	21843.63
862.33	21649.08
862.51	21692.08
862.68	22030.00
862.86	21831.35
863.03	21692.08
863.21	21501.62
863.38	21790.39
863.55	21984.94
863.73	21677.75
863.90	21401.27
864.08	21649.08
864.25	21733.04
864.43	21761.72
864.60	21429.94
864.77	21372.60
864.95	21589.69
865.12	21155.52
865.30	21407.42
865.47	21259.96
865.64	21292.73
865.82	21636.79
865.99	21597.88
866.17	21438.14
866.34	21278.40
866.51	20956.86
866.69	21339.83
866.86	21393.08
867.04	21225.15
867.21	21077.69
867.38	20946.62
867.56	20743.88
867.73	20836.03
867.91	20684.48
868.08	20993.73
868.25	20543.17
868.43	20463.30
868.60	20518.60
868.78	20553.41
868.95	20948.67
869.12	20537.03
869.30	20448.97
869.47	20790.98
869.64	20539.08
869.82	20451.02
869.99	20422.34
870.16	20686.53
870.34	20367.05
870.51	20627.14
870.69	20125.39
870.86	20334.28
871.03	20211.40
871.21	20254.41
871.38	20381.38
871.55	19898.06
871.73	20086.48
871.90	20004.56
872.07	20006.61
872.25	19777.23
872.42	19930.83
872.59	19941.07
872.77	20094.67
872.94	19877.58
873.11	19879.63
873.29	19771.09
873.46	19640.02
873.63	19750.61
873.81	19922.64
873.98	19556.05
874.15	19504.85
874.33	19355.35
874.50	19158.75
874.67	19549.91
874.85	19343.06
875.02	19111.64
875.19	19271.39
875.37	19230.43
875.54	19085.02
875.71	18999.01
875.88	19134.17
876.06	18917.09
876.23	18935.52
876.40	18960.09
876.58	19031.77
876.75	19248.86
876.92	18757.35
877.10	18906.85
877.27	18458.34
877.44	18804.45
877.61	18392.81
877.79	18437.86
877.96	18337.51
878.13	18401.00
878.31	18085.61
878.48	18444.01
878.65	18341.61
878.82	18329.32
879.00	18245.35
879.17	18267.88
879.34	18392.81
879.51	18007.79
879.69	18271.98
879.86	18112.24
880.03	18112.24
880.21	17737.46
880.38	18145.00
880.55	18046.70
880.72	17843.95
880.90	17755.89
881.07	17901.29
881.24	17790.70
881.41	17938.16
881.59	17723.12
881.76	17680.11
881.93	17835.76
882.10	17802.99
882.28	17528.56
882.45	17671.92
882.62	17739.51
882.79	17895.15
882.96	17252.09
883.14	17770.22
883.31	17772.27
883.48	17350.39
883.65	17649.39
883.83	17532.66
884.00	17508.08
884.17	17366.78
884.34	17764.08
884.51	17555.19
884.69	17301.24
884.86	17325.82
885.03	17270.52
885.20	17061.63
885.38	17336.06
885.55	17127.16
885.72	17121.02
885.89	17209.08
886.06	17106.68
886.24	17235.70
886.41	16856.83
886.58	17114.87
886.75	17211.13
886.92	16647.94
887.10	17020.67
887.27	16789.25
887.44	16819.97
887.61	17078.01
887.78	16910.08
887.95	17102.59
888.13	16850.69
888.30	16625.41
888.47	16889.60
888.64	16795.39
888.81	16637.70
888.99	16684.80
889.16	16400.13
889.33	16523.01
889.50	16539.40
889.67	16414.47
889.84	16402.18
890.01	16643.84
890.19	16422.66
890.36	16402.18
890.53	16408.33
890.70	16340.74
890.87	16353.03
891.04	16092.94
891.22	16187.14
891.39	16267.02
891.56	16043.79
891.73	16166.67
891.90	16002.83
892.07	15978.25
892.24	15943.44
892.42	15890.19
892.59	15841.04
892.76	15742.74
892.93	15787.79
893.10	15879.95
893.27	15974.16
893.44	16047.88
893.61	15886.09
893.79	16076.55
893.96	15763.22
894.13	15925.00
894.30	15808.27
894.47	15773.46
894.64	16033.55
894.81	15757.07
894.98	15822.61
895.15	15871.76
895.33	15705.87
895.50	15722.26
895.67	15617.81
895.84	15843.09
896.01	15769.36
896.18	15445.78
896.35	15818.51
896.52	15535.89
896.69	15558.42
896.86	15699.73
897.04	15677.20
897.21	15509.27
897.38	15417.11
897.55	15582.99
897.72	15521.56
897.89	15599.38
898.06	15675.15
898.23	15294.23
898.40	15480.60
898.57	15693.58
898.74	15681.30
898.91	15404.82
899.08	15253.27
899.26	15345.43
899.43	15599.38
899.60	15470.36
899.77	15537.94
899.94	15202.07
900.11	15413.01
900.28	15177.50
900.45	15470.36
900.62	15261.46
900.79	15353.62
900.96	15267.61
901.13	15392.53
901.30	15425.30
901.47	15052.57
901.64	15761.17
901.81	15462.16
901.98	15316.76
902.15	15349.53
902.32	15040.28
902.49	15544.08
902.66	15327.00
902.83	15484.69
903.01	15234.84
903.18	15195.93
903.35	15564.56
903.52	15240.98
903.69	15419.16
903.86	15322.90
904.03	15204.12
904.20	15408.92
904.37	15441.68
904.54	15240.98
904.71	15177.50
904.88	15154.97
905.05	15009.56
905.22	15200.02
905.39	15148.82
905.56	15277.85
905.73	15327.00
905.90	15275.80
906.07	15105.82
906.24	15099.67
906.41	15249.18
906.58	15451.92
906.75	15466.26
906.92	14972.70
907.09	15105.82
907.26	15169.30
907.43	15150.87
907.60	15109.91
907.77	15273.75
907.93	15189.78
908.10	15234.84
908.27	15228.70
908.44	14993.18
908.61	14898.97
908.78	14974.75
908.95	15009.56
909.12	14944.03
909.29	15003.42
909.46	14964.51
909.63	15417.11
909.80	14878.49
909.97	15249.18
910.14	15146.78
910.31	14843.68
910.48	14753.57
910.65	15193.88
910.82	15071.00
910.99	14786.33
911.16	15075.10
911.33	14778.14
911.50	14872.35
911.66	14876.44
911.83	14782.24
912.00	14575.39
912.17	14591.78
912.34	14565.15
912.51	14679.84
912.68	14679.84
912.85	14516.00
913.02	14520.10
913.19	14698.27
913.36	14530.34
913.53	14753.57
913.70	14411.56
913.86	14577.44
914.03	14243.62
914.20	14360.36
914.37	14339.88
914.54	14583.59
914.71	14298.92
914.88	14429.99
915.05	14159.66
915.22	14214.95
915.39	14155.56
915.55	14341.93
915.72	14210.86
915.89	13852.46
916.06	14239.53
916.23	14030.63
916.40	14034.73
916.57	13647.66
916.74	13881.13
916.91	13801.26
917.07	13799.21
917.24	13655.86
917.41	13643.57
917.58	14016.30
917.75	13692.72
917.92	13582.13
918.09	13281.08
918.26	13504.31
918.42	13373.24
918.59	13485.87
918.76	13350.71
918.93	13293.37
919.10	13156.15
919.27	13199.16
919.44	13358.90
919.60	13272.89
919.77	13150.01
919.94	13242.17
920.11	13025.08
920.28	13195.06
920.45	12898.11
920.61	12963.64
920.78	12973.88
920.95	12756.80
921.12	13008.70
921.29	12728.13
921.46	12906.30
921.62	12492.61
921.79	12801.85
921.96	12746.56
922.13	12672.83
922.30	12515.14
922.47	12711.74
922.63	12590.91
922.80	12373.83
922.97	12496.71
923.14	12279.62
923.31	12373.83
923.47	12312.39
923.64	12267.33
923.81	12040.01
923.98	12228.42
924.15	12040.01
924.32	12121.93
924.48	12072.78
924.65	12044.10
924.82	11923.27
924.99	11691.85
925.15	11630.41
925.32	11929.42
925.49	11632.46
925.66	11734.86
925.83	11534.16
925.99	11616.08
926.16	11644.75
926.33	11370.32
926.50	11278.16
926.67	11659.09
926.83	11458.39
927.00	11470.67
927.17	11233.11
927.34	10952.54
927.50	11022.17
927.67	11304.79
927.84	10932.06
928.01	11052.89
928.17	10882.91
928.34	11020.12
928.51	11028.31
928.68	10661.73
928.84	10788.70
929.01	10678.11
929.18	10612.57
929.35	10540.90
929.51	10647.39
929.68	10438.50
929.85	10415.97
930.02	10522.46
930.18	10665.82
930.35	10555.23
930.52	10428.26
930.69	10274.66
930.85	10149.73
931.02	10139.49
931.19	10422.11
931.36	10145.64
931.52	10096.49
931.69	10198.88
931.86	10090.34
932.02	9922.41
932.19	10088.29
932.36	10039.14
932.53	9981.80
932.69	9680.75
932.86	9922.41
933.03	9596.78
933.19	9561.97
933.36	9600.88
933.53	9693.04
933.70	9578.35
933.86	9445.23
934.03	9566.06
934.20	9400.18
934.36	9494.38
934.53	9127.80
934.70	9072.50
934.86	9125.75
935.03	9152.37
935.20	8963.96
935.36	8908.66
935.53	8783.74
935.70	8621.95
935.86	8906.62
936.03	8744.83
936.20	8449.92
936.36	8576.89
936.53	8468.35
936.70	8464.25
936.86	8624.00
937.03	8275.84
937.20	8171.40
937.36	8249.22
937.53	7712.65
937.70	7864.20
937.86	7743.37
938.03	7712.65
938.20	7866.25
938.36	7630.73
938.53	7669.64
938.70	7456.65
938.86	7530.38
939.03	7376.78
939.20	7157.65
939.36	7165.84
939.53	7112.60
939.70	7104.40
939.86	6899.61
940.03	6803.35
940.19	6662.04
940.36	6678.43
940.53	6774.68
940.69	6379.42
940.86	6588.32
941.03	6344.61
941.19	6211.49
941.36	6424.48
941.52	6414.24
941.69	6279.07
941.86	6107.04
942.02	6078.37
942.19	6092.71
942.35	6012.84
942.52	5982.12
942.69	5765.03
942.85	5799.85
943.02	5949.35
943.18	5844.90
943.35	5660.59
943.52	5638.06
943.68	5554.09
943.85	5558.19
944.01	5550.00
944.18	5353.39
944.35	5560.24
944.51	5455.79
944.68	5414.83
944.84	5388.21
945.01	5433.26
945.17	5384.11
945.34	5435.31
945.51	5343.15
945.67	5396.40
945.84	5304.24
946.00	5113.78
946.17	5361.58
946.33	5177.26
946.50	5279.66
946.67	5218.22
946.83	5396.40
947.00	5201.84
947.16	5255.09
947.33	5447.60
947.49	5218.22
947.66	5275.57
947.82	5300.14
947.99	5195.70
948.16	5377.97
948.32	5083.06
948.49	5185.46
948.65	5310.38
948.82	5300.14
948.98	5287.86
949.15	5062.58
949.31	5103.54
949.48	5156.79
949.64	5173.17
949.81	5146.55
949.97	5130.16
950.14	5218.22
950.30	5121.97
950.47	5296.05
950.63	5148.59
950.80	5214.13
950.96	5261.23
951.13	5253.04
951.30	5228.46
951.46	5439.40
951.63	5396.40
951.79	5201.84
951.96	5300.14
952.12	5296.05
952.29	5390.25
952.45	5130.16
952.62	5183.41
952.78	5322.67
952.94	5330.86
953.11	5275.57
953.27	5250.99
953.44	5394.35
953.60	5412.78
953.77	5324.72
953.93	5371.82
954.10	5302.19
954.26	5242.80
954.43	5308.34
954.59	5287.86
954.76	5314.48
954.92	5394.35
955.09	5394.35
955.25	5463.98
955.42	5310.38
955.58	5576.62
955.75	5427.12
955.91	5361.58
956.07	5320.62
956.24	5365.68
956.40	5384.11
956.57	5373.87
956.73	5373.87
956.90	5345.20
957.06	5377.97
957.23	5332.91
957.39	5394.35
957.56	5289.90
957.72	5242.80
957.88	5355.44
958.05	5410.73
958.21	5513.13
958.38	5377.97
958.54	5257.14
958.71	5539.76
958.87	5279.66
959.03	5380.01
959.20	5361.58
959.36	5224.37
959.53	5337.01
959.69	5400.49
959.85	5377.97
960.02	5400.49
960.18	5294.00
960.35	5429.17
960.51	5490.60
960.68	5361.58
960.84	5261.23
961.00	5361.58
961.17	5341.10
961.33	5357.49
961.50	5457.84
961.66	5463.98
961.82	5277.62
961.99	5441.45
962.15	5347.25
962.31	5277.62
962.48	5480.36
962.64	5644.20
962.81	5365.68
962.97	5435.31
963.13	5472.17
963.30	5410.73
963.46	5300.14
963.62	5410.73
963.79	5377.97
963.95	5117.87
964.12	5312.43
964.28	5285.81
964.44	5281.71
964.61	5240.75
964.77	5162.93
964.93	5351.34
965.10	5275.57
965.26	5302.19
965.42	5279.66
965.59	5218.22
965.75	5263.28
965.92	5263.28
966.08	5152.69
966.24	5339.05
966.41	5244.85
966.57	5255.09
966.73	5250.99
966.90	5298.10
967.06	5334.96
967.22	5195.70
967.39	5189.55
967.55	5068.72
967.71	5050.29
967.88	4984.76
968.04	5193.65
968.20	5136.31
968.37	5136.31
968.53	5042.10
968.69	5054.39
968.85	5267.38
969.02	5162.93
969.18	5107.63
969.34	5058.48
969.51	5066.67
969.67	5099.44
969.83	4954.04
970.00	4968.37
970.16	5019.57
970.32	4986.80
970.48	4966.32
970.65	4868.02
970.81	4931.51
970.97	4943.80
971.14	4806.58
971.30	5119.92
971.46	4847.54
971.63	5011.38
971.79	5021.62
971.95	4923.32
972.11	4904.89
972.28	4845.49
972.44	4919.22
972.60	4884.41
972.76	4868.02
972.93	4827.06
973.09	5001.14
973.25	4788.15
973.42	4847.54
973.58	4913.08
973.74	4865.97
973.90	4763.58
974.07	4681.66
974.23	4726.71
974.39	4868.02
974.55	4714.42
974.72	4745.14
974.88	4685.75
975.04	4665.27
975.20	4755.38
975.37	4646.84
975.53	4800.44
975.69	4724.66
975.85	4700.09
976.01	4702.14
976.18	4722.62
976.34	4708.28
976.50	4718.52
976.66	4720.57
976.83	4509.63
976.99	4669.37
977.15	4622.27
977.31	4396.99
977.47	4632.51
977.64	4546.49
977.80	4609.98
977.96	4585.40
978.12	4491.20
978.29	4485.05
978.45	4399.04
978.61	4470.72
978.77	4564.92
978.93	4460.48
979.10	4442.04
979.26	4374.46
979.42	4417.47
979.58	4347.84
979.74	4497.34
979.91	4415.42
980.07	4431.80
980.23	4429.76
980.39	4448.19
980.55	4497.34
980.71	4347.84
980.88	4300.73
981.04	4282.30
981.20	4407.23
981.36	4411.32
981.52	4306.88
981.68	4300.73
981.85	4409.28
982.01	4253.63
982.17	4235.20
982.33	4392.89
982.49	4454.33
982.65	4306.88
982.82	4296.64
982.98	4196.29
983.14	4224.96
983.30	4331.45
983.46	4358.08
983.62	4333.50
983.79	4112.32
983.95	4114.37
984.11	4097.99
984.27	4040.64
984.43	4186.05
984.59	4085.70
984.75	4095.94
984.91	4138.94
985.08	4214.72
985.24	4169.66
985.40	4145.09
985.56	3981.25
985.72	4077.51
985.88	4147.14
986.04	4108.23
986.20	3934.15
986.37	4044.74
986.53	3880.90
986.69	4007.87
986.85	3887.04
987.01	3934.15
987.17	4030.40
987.33	3942.34
987.49	3940.29
987.65	3948.48
987.82	3923.91
987.98	3846.09
988.14	3809.22
988.30	3786.69
988.46	3844.04
988.62	3827.65
988.78	3907.52
988.94	3817.41
989.10	3721.16
989.26	3786.69
989.42	3817.41
989.59	3762.12
989.75	3723.21
989.91	3903.43
990.07	3704.78
990.23	3794.89
990.39	3815.37
990.55	3737.54
990.71	3631.05
990.87	3780.55
991.03	3907.52
991.19	3663.82
991.35	3702.73
991.51	3739.59
991.67	3762.12
991.83	3772.36
992.00	3813.32
992.16	3633.10
992.32	3835.85
992.48	3837.89
992.64	3510.22
992.80	3655.62
992.96	3657.67
993.12	3667.91
993.28	3655.62
993.44	3622.86
993.60	3606.47
993.76	3549.13
993.92	3624.90
994.08	3653.58
994.24	3704.78
994.40	3588.04
994.56	3553.23
994.72	3567.56
994.88	3522.51
995.04	3485.64
995.20	3583.95
995.36	3469.26
995.52	3573.71
995.68	3499.98
995.84	3420.11
996.00	3641.29
996.16	3399.63
996.32	3434.44
996.48	3497.93
996.64	3540.94
996.80	3366.86
996.96	3514.31
997.12	3456.97
997.28	3407.82
997.44	3399.63
997.60	3291.09
997.76	3401.68
997.92	3403.72
998.08	3430.35
998.24	3268.56
998.40	3325.90
998.56	3413.96
998.72	3268.56
998.88	3334.09
999.04	3215.31
999.20	3403.72
999.36	3319.76
999.52	3360.72
999.68	3215.31
999.84	3336.14
1000.00	3248.08
1000.16	3416.01
1000.32	3293.13
1000.48	3272.65
1000.64	3133.39
1000.80	3215.31
1000.95	3121.10
1001.11	3168.21
1001.27	3092.43
1001.43	3166.16
1001.59	3133.39
1001.75	3082.19
1001.91	3164.11
1002.07	3153.87
1002.23	3074.00
1002.39	3190.74
1002.55	3117.01
1002.71	3127.25
1002.87	3188.69
1003.03	3080.14
1003.19	3180.50
1003.34	3076.05
1003.50	3102.67
1003.66	3006.42
1003.82	3162.06
1003.98	3067.86
1004.14	3086.29
1004.30	3039.19
1004.46	3016.66
1004.62	2951.12
1004.78	3051.47
1004.94	3039.19
1005.09	3059.67
1005.25	3039.19
1005.41	3061.71
1005.57	2936.79
1005.73	2953.17
1005.89	2897.88
1006.05	3047.38
1006.21	2959.31
1006.37	2869.20
1006.52	2920.40
1006.68	2922.45
1006.84	3067.86
1007.00	2881.49
1007.16	2979.79
1007.32	2897.88
1007.48	2918.36
1007.64	3061.71
1007.79	2887.64
1007.95	2889.68
1008.11	2844.63
1008.27	2848.72
1008.43	2740.18
1008.59	2846.68
1008.75	2846.68
1008.91	2815.96
1009.06	2889.68
1009.22	2844.63
1009.38	2904.02
1009.54	2770.90
1009.70	2744.28
1009.86	2893.78
1010.01	2779.09
1010.17	2742.23
1010.33	2723.80
1010.49	2752.47
1010.65	2836.44
1010.81	2684.89
1010.96	2652.12
1011.12	2750.42
1011.28	2703.32
1011.44	2818.00
1011.60	2744.28
1011.76	2695.13
1011.91	2676.70
1012.07	2615.26
1012.23	2621.40
1012.39	2654.17
1012.55	2607.06
1012.71	2674.65
1012.86	2609.11
1013.02	2551.77
1013.18	2519.00
1013.34	2588.63
1013.50	2605.02
1013.65	2707.41
1013.81	2531.29
1013.97	2533.34
1014.13	2553.82
1014.29	2574.30
1014.44	2652.12
1014.60	2557.91
1014.76	2576.34
1014.92	2562.01
1015.07	2502.62
1015.23	2629.59
1015.39	2609.11
1015.55	2533.34
1015.71	2609.11
1015.86	2494.43
1016.02	2371.55
1016.18	2504.67
1016.34	2514.91
1016.49	2564.06
1016.65	2596.82
1016.81	2385.88
1016.97	2508.76
1017.12	2459.61
1017.28	2469.85
1017.44	2435.03
1017.60	2457.56
1017.75	2449.37
1017.91	2490.33
1018.07	2541.53
1018.23	2410.46
1018.38	2406.36
1018.54	2412.51
1018.70	2410.46
1018.86	2412.51
1019.01	2365.40
1019.17	2377.69
1019.33	2473.95
1019.49	2453.47
1019.64	2404.32
1019.80	2394.08
1019.96	2340.83
1020.12	2322.40
1020.27	2318.30
1020.43	2346.97
1020.59	2363.36
1020.74	2338.78
1020.90	2383.84
1021.06	2297.82
1021.22	2355.16
1021.37	2306.01
1021.53	2375.64
1021.69	2338.78
1021.84	2174.94
1022.00	2314.20
1022.16	2314.20
1022.31	2287.58
1022.47	2297.82
1022.63	2267.10
1022.79	2240.48
1022.94	2197.47
1023.10	2324.44
1023.26	2260.96
1023.41	2312.16
1023.57	2254.81
1023.73	2295.77
1023.88	2297.82
1024.04	2213.85
1024.20	2230.24
1024.35	2215.90
1024.51	2273.25
1024.67	2256.86
1024.82	2273.25
1024.98	2181.09
1025.14	2195.42
1025.29	2260.96
1025.45	2326.49
1025.61	2209.76
1025.76	2224.09
1025.92	2217.95
1026.08	2133.98
1026.23	2158.56
1026.39	2234.33
1026.55	2199.52
1026.70	2119.65
1026.86	2209.76
1027.02	2189.28
1027.17	2203.61
1027.33	2197.47
1027.48	2199.52
1027.64	2136.03
1027.80	2154.46
1027.95	2242.53
1028.11	2068.45
1028.27	2084.83
1028.42	2105.31
1028.58	2111.46
1028.73	2095.07
1028.89	2129.89
1029.05	2260.96
1029.20	2166.75
>>>>>End Processed Spectral Data<<<<<
