SpectraSuite Data File
++++++++++++++++++++++++++++++++++++
Date: Fri Jun 02 14:53:28 CEST 2017
User: INFO_000
Dark Spectrum Present: No
Reference Spectrum Present: No
Number of Sampled Component Spectra: 1
Spectrometers: USB4H00879
Integration Time (usec): 80000 (USB4H00879)
Spectra Averaged: 1 (USB4H00879)
Boxcar Smoothing: 0 (USB4H00879)
Correct for Electrical Dark: No (USB4H00879)
Strobe/Lamp Enabled: No (USB4H00879)
Correct for Detector Non-linearity: No (USB4H00879)
Correct for Stray Light: No (USB4H00879)
Number of Pixels in Processed Spectrum: 3648
>>>>>Begin Processed Spectral Data<<<<<
345.13	1245.16
345.34	1245.16
345.56	1245.16
345.78	1284.08
345.99	1277.93
346.21	1660.90
346.42	1712.10
346.64	1593.32
346.86	1757.16
347.07	1646.57
347.29	1673.19
347.50	1624.04
347.72	1679.33
347.94	1757.16
348.15	1669.09
348.37	1607.66
348.59	1777.64
348.80	1677.29
349.02	1701.86
349.23	1775.59
349.45	1773.54
349.67	1806.31
349.88	1738.73
350.10	1871.84
350.31	1716.20
350.53	1648.61
350.75	1794.02
350.96	1673.19
351.18	1765.35
351.39	1724.39
351.61	1689.57
351.82	1763.30
352.04	1794.02
352.26	1673.19
352.47	1810.40
352.69	1765.35
352.90	1599.46
353.12	1677.29
353.34	1734.63
353.55	1806.31
353.77	1757.16
353.98	1673.19
354.20	1638.38
354.41	1697.77
354.63	1757.16
354.85	1927.14
355.06	1781.73
355.28	1660.90
355.49	1734.63
355.71	1726.44
355.92	1673.19
356.14	1748.97
356.35	1708.01
356.57	1681.38
356.79	1771.49
357.00	1617.90
357.22	1834.98
357.43	1685.48
357.65	1757.16
357.86	1667.05
358.08	1738.73
358.29	1779.68
358.51	1855.46
358.72	1746.92
358.94	1675.24
359.16	1757.16
359.37	1679.33
359.59	1714.15
359.80	1683.43
360.02	1732.58
360.23	1683.43
360.45	1765.35
360.66	1701.86
360.88	1722.34
361.09	1732.58
361.31	1710.05
361.52	1740.77
361.74	1734.63
361.95	1828.84
362.17	1675.24
362.38	1773.54
362.60	1796.07
362.81	1630.18
363.03	1683.43
363.24	1671.14
363.46	1810.40
363.67	1734.63
363.89	1748.97
364.10	1761.25
364.32	1693.67
364.53	1875.94
364.75	1667.05
364.96	1701.86
365.18	1740.77
365.39	1667.05
365.61	1740.77
365.82	1851.36
366.04	1691.62
366.25	1763.30
366.47	1767.40
366.68	1710.05
366.90	1648.61
367.11	1789.92
367.33	1771.49
367.54	1675.24
367.76	1656.81
367.97	1810.40
368.19	1679.33
368.40	1759.21
368.62	1691.62
368.83	1662.95
369.05	1765.35
369.26	1691.62
369.48	1712.10
369.69	1654.76
369.91	1802.21
370.12	1656.81
370.33	1775.59
370.55	1656.81
370.76	1716.20
370.98	1757.16
371.19	1693.67
371.41	1648.61
371.62	1683.43
371.84	1662.95
372.05	1849.32
372.27	1691.62
372.48	1724.39
372.69	1695.72
372.91	1798.12
373.12	1775.59
373.34	1708.01
373.55	1804.26
373.77	1716.20
373.98	1732.58
374.20	1783.78
374.41	1853.41
374.62	1660.90
374.84	1736.68
375.05	1712.10
375.27	1865.70
375.48	1724.39
375.70	1681.38
375.91	1712.10
376.12	1767.40
376.34	1699.81
376.55	1757.16
376.77	1730.53
376.98	1654.76
377.19	1683.43
377.41	1673.19
377.62	1728.49
377.84	1824.74
378.05	1808.36
378.27	1744.87
378.48	1837.03
378.69	1845.22
378.91	1777.64
379.12	1763.30
379.34	1705.96
379.55	1796.07
379.76	1777.64
379.98	1677.29
380.19	1738.73
380.41	1757.16
380.62	1775.59
380.83	1769.44
381.05	1632.23
381.26	1769.44
381.47	1615.85
381.69	1603.56
381.90	1796.07
382.12	1824.74
382.33	1710.05
382.54	1687.53
382.76	1703.91
382.97	1712.10
383.19	1726.44
383.40	1738.73
383.61	1714.15
383.83	1574.89
384.04	1695.72
384.25	1761.25
384.47	1773.54
384.68	1744.87
384.89	1626.09
385.11	1589.22
385.32	1691.62
385.54	1687.53
385.75	1624.04
385.96	1748.97
386.18	1697.77
386.39	1732.58
386.60	1673.19
386.82	1705.96
387.03	1658.85
387.24	1708.01
387.46	1738.73
387.67	1777.64
387.88	1816.55
388.10	1738.73
388.31	1722.34
388.52	1806.31
388.74	1816.55
388.95	1714.15
389.16	1710.05
389.38	1656.81
389.59	1830.88
389.80	1810.40
390.02	1708.01
390.23	1824.74
390.44	1748.97
390.66	1630.18
390.87	1675.24
391.08	1665.00
391.30	1851.36
391.51	1796.07
391.72	1771.49
391.94	1822.69
392.15	1708.01
392.36	1621.99
392.58	1710.05
392.79	1783.78
393.00	1789.92
393.22	1804.26
393.43	1796.07
393.64	1857.51
393.85	1781.73
394.07	1656.81
394.28	1708.01
394.49	1738.73
394.71	1734.63
394.92	1863.65
395.13	1699.81
395.35	1703.91
395.56	1611.75
395.77	1779.68
395.98	1724.39
396.20	1798.12
396.41	1783.78
396.62	1832.93
396.84	1785.83
397.05	1630.18
397.26	1667.05
397.47	1812.45
397.69	1753.06
397.90	1873.89
398.11	1765.35
398.32	1732.58
398.54	1710.05
398.75	1712.10
398.96	1759.21
399.18	1810.40
399.39	1744.87
399.60	1830.88
399.81	1744.87
400.03	1658.85
400.24	1976.29
400.45	1794.02
400.66	1794.02
400.88	1769.44
401.09	1908.71
401.30	1683.43
401.51	1845.22
401.73	1757.16
401.94	1822.69
402.15	1816.55
402.36	1820.64
402.58	1794.02
402.79	1855.46
403.00	1785.83
403.21	1781.73
403.43	1777.64
403.64	1830.88
403.85	1744.87
404.06	1890.28
404.27	1699.81
404.49	1748.97
404.70	1757.16
404.91	1796.07
405.12	1748.97
405.34	1847.27
405.55	1783.78
405.76	1693.67
405.97	1806.31
406.19	1886.18
406.40	1724.39
406.61	1804.26
406.82	1705.96
407.03	1755.11
407.25	1738.73
407.46	1839.08
407.67	1806.31
407.88	1964.00
408.09	1839.08
408.31	1757.16
408.52	1787.88
408.73	1785.83
408.94	1761.25
409.15	1769.44
409.37	1910.75
409.58	1871.84
409.79	1742.82
410.00	1996.77
410.21	1798.12
410.43	1777.64
410.64	1667.05
410.85	1902.56
411.06	1779.68
411.27	1724.39
411.48	1798.12
411.70	1841.12
411.91	1851.36
412.12	1918.95
412.33	1894.37
412.54	1724.39
412.76	1892.32
412.97	1920.99
413.18	1761.25
413.39	1724.39
413.60	1908.71
413.81	1822.69
414.03	1722.34
414.24	1724.39
414.45	1961.95
414.66	1763.30
414.87	1820.64
415.08	1806.31
415.30	1773.54
415.51	1781.73
415.72	1775.59
415.93	1824.74
416.14	1849.32
416.35	1863.65
416.56	1841.12
416.78	1847.27
416.99	1781.73
417.20	1820.64
417.41	1931.23
417.62	1888.23
417.83	1810.40
418.04	1828.84
418.26	1959.91
418.47	1863.65
418.68	1814.50
418.89	1910.75
419.10	2031.58
419.31	1863.65
419.52	1896.42
419.73	1822.69
419.95	1982.43
420.16	1800.16
420.37	1708.01
420.58	1843.17
420.79	1671.14
421.00	1789.92
421.21	1751.01
421.42	1834.98
421.63	1837.03
421.85	1882.08
422.06	1712.10
422.27	1888.23
422.48	1847.27
422.69	1781.73
422.90	1982.43
423.11	1699.81
423.32	1972.19
423.53	1894.37
423.75	1849.32
423.96	1935.33
424.17	1968.10
424.38	2050.02
424.59	1941.47
424.80	1777.64
425.01	1918.95
425.22	1789.92
425.43	1951.71
425.64	1957.86
425.85	2115.55
426.06	2033.63
426.28	1892.32
426.49	1779.68
426.70	1802.21
426.91	1839.08
427.12	1935.33
427.33	2033.63
427.54	1947.62
427.75	2013.15
427.96	2019.30
428.17	2021.35
428.38	1851.36
428.59	1931.23
428.80	1894.37
429.01	1953.76
429.23	1826.79
429.44	1859.56
429.65	1988.58
429.86	1961.95
430.07	2095.07
430.28	1886.18
430.49	2007.01
430.70	1974.24
430.91	2158.56
431.12	2043.87
431.33	2000.87
431.54	2080.74
431.75	1959.91
431.96	2031.58
432.17	1976.29
432.38	2119.65
432.59	2099.17
432.80	2162.66
433.01	2037.73
433.22	1898.47
433.43	1974.24
433.64	2199.52
433.85	2033.63
434.06	2062.30
434.27	2015.20
434.49	1992.67
434.70	2090.98
434.91	2060.26
435.12	2117.60
435.33	2068.45
435.54	2052.06
435.75	1918.95
435.96	1959.91
436.17	2050.02
436.38	2080.74
436.59	2111.46
436.80	1896.42
437.01	2066.40
437.22	2185.18
437.43	2156.51
437.64	2060.26
437.85	2115.55
438.06	2322.40
438.27	1914.85
438.48	2146.27
438.69	2101.22
438.90	2146.27
439.11	2113.50
439.32	2367.45
439.53	2013.15
439.74	2160.61
439.95	2160.61
440.16	2013.15
440.37	2078.69
440.57	2107.36
440.78	2248.67
440.99	2326.49
441.20	1994.72
441.41	2156.51
441.62	2136.03
441.83	2148.32
442.04	2117.60
442.25	2187.23
442.46	2183.13
442.67	2119.65
442.88	2265.05
443.09	2146.27
443.30	2056.16
443.51	2099.17
443.72	2263.01
443.93	2203.61
444.14	2379.74
444.35	2066.40
444.56	2068.45
444.77	2068.45
444.98	2363.36
445.19	2504.67
445.40	2215.90
445.61	2310.11
445.81	2265.05
446.02	2400.22
446.23	2265.05
446.44	2256.86
446.65	2424.80
446.86	2523.10
447.07	2703.32
447.28	2265.05
447.49	2236.38
447.70	2424.80
447.91	2480.09
448.12	2260.96
448.33	2504.67
448.54	2402.27
448.74	2344.92
448.95	2473.95
449.16	2387.93
449.37	2385.88
449.58	2486.23
449.79	2492.38
450.00	2424.80
450.21	2498.52
450.42	2568.15
450.63	2498.52
450.84	2328.54
451.05	2484.19
451.25	2295.77
451.46	2346.97
451.67	2695.13
451.88	2648.02
452.09	2445.27
452.30	2297.82
452.51	2424.80
452.72	2492.38
452.93	2852.82
453.13	2314.20
453.34	2437.08
453.55	2766.81
453.76	2543.58
453.97	2793.43
454.18	2244.57
454.39	2510.81
454.60	2418.65
454.81	2572.25
455.01	2475.99
455.22	2240.48
455.43	2668.50
455.64	2783.19
455.85	2752.47
456.06	2674.65
456.27	2697.17
456.48	2633.69
456.68	2656.22
456.89	2836.44
457.10	2715.61
457.31	2598.87
457.52	2494.43
457.73	2674.65
457.94	2781.14
458.14	2627.54
458.35	3084.24
458.56	2662.36
458.77	2801.62
458.98	2775.00
459.19	2879.44
459.39	2918.36
459.60	3012.56
459.81	2766.81
460.02	3018.71
460.23	2944.98
460.44	3039.19
460.65	2850.77
460.85	2793.43
461.06	2854.87
461.27	2877.40
461.48	2944.98
461.69	3012.56
461.89	2811.86
462.10	2824.15
462.31	2734.04
462.52	3180.50
462.73	3151.82
462.94	3213.26
463.14	3096.53
463.35	3141.58
463.56	3432.40
463.77	3307.47
463.98	3188.69
464.18	2977.75
464.39	3555.27
464.60	3477.45
464.81	3254.22
465.02	3416.01
465.23	3467.21
465.43	3512.27
465.64	3383.24
465.85	3049.43
466.06	3391.44
466.27	3618.76
466.47	3682.25
466.68	3538.89
466.89	3452.88
467.10	3446.73
467.30	3268.56
467.51	3813.32
467.72	3532.75
467.93	3444.68
468.14	3606.47
468.34	4093.89
468.55	3557.32
468.76	3854.28
468.97	3547.08
469.17	3952.58
469.38	3723.21
469.59	3911.62
469.80	3682.25
470.01	4014.02
470.21	3717.06
470.42	4061.12
470.63	4048.83
470.84	4032.45
471.04	3917.76
471.25	4280.25
471.46	4048.83
471.67	4435.90
471.87	4059.07
472.08	3999.68
472.29	4153.28
472.50	4108.23
472.70	4366.27
472.91	4026.31
473.12	4259.78
473.33	4159.42
473.53	4466.62
473.74	4235.20
473.95	4485.05
474.16	4437.95
474.36	4378.56
474.57	4663.22
474.78	4691.90
474.99	4724.66
475.19	4345.79
475.40	4851.64
475.61	4882.36
475.81	4548.54
476.02	4618.17
476.23	4739.00
476.44	4859.83
476.64	4915.12
476.85	5087.15
477.06	4816.82
477.27	5263.28
477.47	5128.11
477.68	5242.80
477.89	5081.01
478.09	5021.62
478.30	4984.76
478.51	5015.48
478.71	5076.91
478.92	5289.90
479.13	5357.49
479.34	5396.40
479.54	5515.18
479.75	5386.16
479.96	5629.87
480.16	5373.87
480.37	5550.00
480.58	5631.91
480.78	5785.51
480.99	5586.86
481.20	5500.84
481.41	5435.31
481.61	5865.38
481.82	6006.69
482.03	5832.62
482.23	5644.20
482.44	5822.38
482.65	6242.21
482.85	6143.91
483.06	6104.99
483.27	6029.22
483.47	6150.05
483.68	5978.02
483.89	5994.40
484.09	6148.00
484.30	6246.30
484.51	6221.73
484.71	6408.09
484.92	6492.06
485.13	6477.73
485.33	6360.99
485.54	6320.03
485.75	6393.76
485.95	6565.79
486.16	6604.70
486.37	6623.13
486.57	6449.05
486.78	6471.58
486.98	6840.22
487.19	6621.08
487.40	6807.45
487.60	6868.89
487.81	6934.42
488.02	6748.06
488.22	6739.87
488.43	6920.09
488.64	6915.99
488.84	6948.76
489.05	7067.54
489.25	7014.29
489.46	7032.72
489.67	7249.81
489.87	7333.78
490.08	7124.88
490.29	7344.02
490.49	7321.49
490.70	7489.42
490.90	7446.41
491.11	7323.54
491.32	7464.85
491.52	7364.50
491.73	7333.78
491.94	7370.64
492.14	7473.04
492.35	7692.17
492.55	7616.40
492.76	7792.52
492.97	7614.35
493.17	7849.86
493.38	7716.75
493.58	7780.23
493.79	7800.71
494.00	7765.90
494.20	7800.71
494.41	8152.96
494.61	8001.41
494.82	8011.65
495.02	7933.83
495.23	8161.16
495.44	8081.28
495.64	8091.52
495.85	8112.00
496.05	8265.60
496.26	8394.62
496.47	8169.35
496.67	8275.84
496.88	8517.50
497.08	8148.87
497.29	8368.00
497.49	8398.72
497.70	8370.05
497.91	8507.26
498.11	8462.21
498.32	8568.70
498.52	8593.28
498.73	8591.23
498.93	8834.94
499.14	8630.14
499.34	8736.63
499.55	8798.07
499.76	8632.19
499.96	8990.58
500.17	8765.31
500.37	8658.81
500.58	8654.72
500.78	8818.55
500.99	8857.46
501.19	9072.50
501.40	9070.45
501.60	8785.79
501.81	8875.90
502.02	9078.65
502.22	8859.51
502.43	9115.51
502.63	9121.65
502.84	9213.81
503.04	9043.83
503.25	9248.63
503.45	9115.51
503.66	9154.42
503.86	9207.67
504.07	9162.61
504.27	9383.79
504.48	9109.36
504.68	9303.92
504.89	9455.47
505.09	9287.54
505.30	9346.93
505.50	9416.56
505.71	9418.61
505.91	9594.73
506.12	9537.39
506.32	9332.59
506.53	9502.58
506.73	9561.97
506.94	9588.59
507.14	9359.22
507.35	9627.50
507.55	9443.18
507.76	9506.67
507.96	9494.38
508.17	9830.25
508.37	9543.53
508.58	9834.35
508.78	9621.36
508.99	10002.28
509.19	9697.13
509.40	9772.91
509.60	9848.68
509.81	9846.63
510.01	9621.36
510.22	9817.96
510.42	9973.61
510.63	10102.63
510.83	9791.34
511.04	9899.88
511.24	10180.45
511.44	9922.41
511.65	10096.49
511.85	10041.19
512.06	9961.32
512.26	10194.79
512.47	10211.17
512.67	10186.60
512.88	10123.11
513.08	10037.09
513.29	10418.02
513.49	10403.68
513.69	10176.36
513.90	10041.19
514.10	10358.63
514.31	10399.59
514.51	10217.32
514.72	10245.99
514.92	10125.16
515.13	10215.27
515.33	10233.70
515.53	10407.78
515.74	10395.49
515.94	10444.64
516.15	10553.18
516.35	10194.79
516.56	10592.09
516.76	10342.24
516.96	10569.57
517.17	10571.61
517.37	10633.05
517.58	10727.26
517.78	10579.81
517.99	10665.82
518.19	10915.67
518.39	10723.16
518.60	10825.56
518.80	10975.06
519.01	10866.52
519.21	10551.14
519.41	10813.28
519.62	10624.86
519.82	10897.24
520.03	10866.52
520.23	10862.43
520.43	10962.78
520.64	11239.25
520.84	11204.44
521.05	10934.11
521.25	11124.57
521.45	11210.58
521.66	11173.72
521.86	11102.04
522.07	11206.48
522.27	11186.01
522.47	10993.50
522.68	11349.84
522.88	11132.76
523.08	11415.38
523.29	11149.14
523.49	11233.11
523.70	11409.23
523.90	11355.99
524.10	11272.02
524.31	11487.06
524.51	11308.88
524.71	11552.59
524.92	11571.02
525.12	11319.12
525.33	11544.40
525.53	11554.64
525.73	11698.00
525.94	11585.36
526.14	11650.89
526.34	11736.91
526.55	11771.72
526.75	11644.75
526.95	11927.37
527.16	11601.74
527.36	11878.22
527.56	11935.56
527.77	11786.06
527.97	11896.65
528.17	12162.89
528.38	11949.90
528.58	11958.09
528.78	12310.34
528.99	11917.13
529.19	12070.73
529.39	11962.19
529.60	12101.45
529.80	12126.02
530.00	12080.97
530.21	12269.38
530.41	12289.86
530.61	12472.13
530.82	12482.37
531.02	12298.05
531.22	12316.48
531.43	12232.52
531.63	12324.68
531.83	12775.23
532.04	12613.44
532.24	12449.60
532.44	12474.18
532.64	12611.39
532.85	12678.97
533.05	12601.15
533.25	12693.31
533.46	12838.72
533.66	12648.26
533.86	12912.44
534.07	12955.45
534.27	12695.36
534.47	12812.09
534.67	12955.45
534.88	13055.80
535.08	13119.29
535.28	12963.64
535.49	12945.21
535.69	13414.20
535.89	13145.91
536.09	13170.49
536.30	13256.50
536.50	13363.00
536.70	13356.85
536.91	13135.67
537.11	13201.21
537.31	13262.65
537.51	13287.22
537.72	13506.35
537.92	13414.20
538.12	13520.69
538.32	13352.76
538.53	13541.17
538.73	13633.33
538.93	13698.86
539.13	13453.11
539.34	13707.05
539.54	13659.95
539.74	13688.62
539.94	13825.84
540.15	13838.12
540.35	13827.88
540.55	13786.93
540.75	13735.73
540.96	13723.44
541.16	13797.17
541.36	13999.91
541.56	13801.26
541.77	14044.97
541.97	14044.97
542.17	13862.70
542.37	14141.22
542.58	14044.97
542.78	14100.26
542.98	14065.45
543.18	14217.00
543.38	14307.11
543.59	14425.89
543.79	13872.94
543.99	13950.76
544.19	14305.06
544.40	14270.25
544.60	14120.74
544.80	14182.18
545.00	14217.00
545.20	14366.50
545.41	14489.38
545.61	14294.82
545.81	14446.37
546.01	14491.43
546.21	14618.40
546.42	14485.28
546.62	14659.36
546.82	14483.24
547.02	14604.07
547.22	14626.59
547.43	14485.28
547.63	14622.50
547.83	14710.56
548.03	14454.56
548.23	14839.58
548.44	14774.05
548.64	14599.97
548.84	14708.51
549.04	14751.52
549.24	14925.60
549.45	15023.90
549.65	14655.26
549.85	14929.69
550.05	15122.20
550.25	14733.09
550.45	15161.11
550.66	15036.19
550.86	14722.85
551.06	14960.41
551.26	15005.47
551.46	15091.48
551.66	15089.43
551.87	15058.71
552.07	15189.78
552.27	15443.73
552.47	15052.57
552.67	15265.56
552.87	15085.34
553.07	15421.20
553.28	15210.26
553.48	15130.39
553.68	15279.89
553.88	15482.64
554.08	15466.26
554.28	15281.94
554.48	14962.46
554.69	15308.57
554.89	15150.87
555.09	15130.39
555.29	15095.58
555.49	15271.70
555.69	15470.36
555.89	15226.65
556.10	15400.72
556.30	15396.63
556.50	15427.35
556.70	15226.65
556.90	15482.64
557.10	15505.17
557.30	15275.80
557.50	15542.03
557.70	15384.34
557.91	15486.74
558.11	15484.69
558.31	15654.67
558.51	15787.79
558.71	15531.80
558.91	15562.51
559.11	15449.88
559.31	15533.84
559.51	15394.58
559.72	15861.52
559.92	15767.31
560.12	15562.51
560.32	15808.27
560.52	15472.40
560.72	15613.71
560.92	16068.36
561.12	15740.69
561.32	15984.40
561.52	15845.13
561.72	15898.38
561.93	15816.46
562.13	15793.94
562.33	15724.30
562.53	16113.42
562.73	15691.54
562.93	15783.70
563.13	15994.64
563.33	15996.68
563.53	16303.88
563.73	16109.32
563.93	15904.53
564.13	16240.39
564.33	15894.29
564.53	15968.01
564.74	15937.29
564.94	15802.13
565.14	16068.36
565.34	16070.41
565.54	16097.03
565.74	16080.65
565.94	16152.33
566.14	15957.77
566.34	16201.48
566.54	16344.84
566.74	16033.55
566.94	16338.69
567.14	16113.42
567.34	16154.38
567.54	16324.36
567.74	16256.78
567.94	16418.57
568.14	16287.50
568.34	16531.20
568.54	16326.41
568.74	16301.83
568.94	16451.33
569.14	16844.54
569.34	16461.57
569.54	16310.02
569.75	16232.20
569.95	16441.09
570.15	16525.06
570.35	16174.86
570.55	16355.08
570.75	16346.89
570.95	16797.44
571.15	16627.46
571.35	16463.62
571.55	16643.84
571.75	16441.09
571.95	16670.47
572.15	16383.75
572.35	16516.87
572.55	16588.55
572.75	16557.83
572.95	16697.09
573.15	16731.90
573.35	16535.30
573.55	16551.68
573.75	16518.92
573.95	16611.07
574.15	16504.58
574.35	16748.29
574.55	16602.88
574.75	16860.93
574.95	16568.07
575.15	16715.52
575.34	16983.80
575.54	17145.59
575.74	16869.12
575.94	17084.16
576.14	16807.68
576.34	16942.85
576.54	16946.94
576.74	16969.47
576.94	16996.09
577.14	17053.44
577.34	16998.14
577.54	16770.82
577.74	17002.24
577.94	16936.70
578.14	17073.92
578.34	17012.48
578.54	16813.82
578.74	17041.15
578.94	17051.39
579.14	16987.90
579.34	16918.27
579.54	17319.67
579.74	17139.45
579.94	17112.83
580.13	17282.81
580.33	17168.12
580.53	17307.38
580.73	17299.19
580.93	17323.77
581.13	17426.17
581.33	17329.91
581.53	17202.94
581.73	17487.61
581.93	17540.85
582.13	17258.23
582.33	17714.93
582.53	17424.12
582.73	17385.21
582.92	17381.11
583.12	17600.24
583.32	17598.20
583.52	17403.64
583.72	17608.44
583.92	17635.06
584.12	17374.97
584.32	17719.03
584.52	17370.87
584.72	17596.15
584.92	17800.94
585.11	17886.96
585.31	18052.84
585.51	17899.25
585.71	17712.88
585.91	17958.64
586.11	17684.21
586.31	17952.49
586.51	17612.53
586.71	17946.35
586.91	17727.22
587.10	17790.70
587.30	18085.61
587.50	18163.43
587.70	17940.21
587.90	17950.45
588.10	17940.21
588.30	17688.31
588.50	17995.50
588.69	18153.20
588.89	18036.46
589.09	17923.82
589.29	17909.49
589.49	18167.53
589.69	18085.61
589.89	18196.20
590.08	18126.57
590.28	18036.46
590.48	18058.99
590.68	18405.10
590.88	18079.47
591.08	18147.05
591.28	18093.80
591.47	18237.16
591.67	18296.55
591.87	18022.12
592.07	18542.31
592.27	18296.55
592.47	18145.00
592.67	18405.10
592.86	18276.07
593.06	18370.28
593.26	18476.77
593.46	18468.58
593.66	18409.19
593.86	18773.73
594.05	18683.62
594.25	18505.45
594.45	18413.29
594.65	18855.65
594.85	18255.59
595.05	18687.71
595.24	18378.47
595.44	18489.06
595.64	18241.26
595.84	18679.52
596.04	18534.12
596.23	18693.86
596.43	18798.31
596.63	18652.90
596.83	18558.69
597.03	19015.39
597.22	18702.05
597.42	18820.83
597.62	18491.11
597.82	19009.25
598.02	19072.73
598.21	18771.68
598.41	18841.31
598.61	18945.76
598.81	18962.14
599.01	19021.53
599.20	18941.66
599.40	18728.67
599.60	19168.99
599.80	18874.08
600.00	19455.70
600.19	19119.84
600.39	18947.81
600.59	19130.08
600.79	18923.23
600.98	18951.90
601.18	19189.47
601.38	19310.30
601.58	19115.74
601.78	18939.62
601.97	19230.43
602.17	19478.23
602.37	19463.90
602.57	19478.23
602.76	19361.50
602.96	19234.52
603.16	19257.05
603.36	19441.37
603.55	19482.33
603.75	19418.84
603.95	19513.05
604.15	19764.95
604.34	19199.71
604.54	19338.97
604.74	19441.37
604.94	19877.58
605.13	19730.13
605.33	19508.95
605.53	19312.35
605.73	19601.11
605.92	19480.28
606.12	19543.77
606.32	19648.21
606.52	19861.20
606.71	19877.58
606.91	19762.90
607.11	19680.98
607.30	19652.31
607.50	19539.67
607.70	20055.76
607.90	19850.96
608.09	19785.43
608.29	19695.32
608.49	19951.31
608.68	19713.75
608.88	19922.64
609.08	20094.67
609.28	20010.70
609.47	19773.14
609.67	19977.94
609.87	19982.03
610.06	19988.18
610.26	19828.43
610.46	20133.58
610.66	20043.47
610.85	19803.86
611.05	20072.14
611.25	20109.01
611.44	19838.67
611.64	20086.48
611.84	20010.70
612.03	19910.35
612.23	20098.77
612.43	20084.43
612.62	20039.37
612.82	20164.30
613.02	20002.51
613.21	20098.77
613.41	19810.00
613.61	20072.14
613.80	19883.73
614.00	20141.77
614.20	19953.36
614.39	20176.59
614.59	20344.52
614.79	20182.73
614.98	20100.81
615.18	20135.63
615.38	20287.18
615.57	20168.40
615.77	20164.30
615.97	20014.80
616.16	20123.34
616.36	19975.89
616.56	20031.18
616.75	20238.03
616.95	20373.19
617.15	20321.99
617.34	19793.62
617.54	20041.42
617.74	20315.85
617.93	20244.17
618.13	20149.96
618.32	20311.75
618.52	20100.81
618.72	20029.13
618.91	20270.79
619.11	19893.97
619.31	20137.68
619.50	20041.42
619.70	20104.91
619.90	20309.71
620.09	19971.79
620.29	19922.64
620.48	20119.24
620.68	20379.34
620.88	19928.78
621.07	20324.04
621.27	19994.32
621.46	19947.22
621.66	20063.95
621.86	20211.40
622.05	20043.47
622.25	20315.85
622.44	20053.71
622.64	20238.03
622.84	20350.67
623.03	20119.24
623.23	20205.26
623.42	20334.28
623.62	20332.23
623.82	20362.95
624.01	20066.00
624.21	20106.96
624.40	20172.49
624.60	19988.18
624.80	20092.62
624.99	20289.23
625.19	19779.28
625.38	20049.61
625.58	20213.45
625.77	20256.46
625.97	20053.71
626.17	19853.01
626.36	20178.64
626.56	20164.30
626.75	20031.18
626.95	20170.44
627.14	20033.23
627.34	20262.60
627.54	20223.69
627.73	20326.09
627.93	20483.78
628.12	19955.41
628.32	20321.99
628.51	20252.36
628.71	20205.26
628.90	20309.71
629.10	20197.07
629.30	19900.11
629.49	20321.99
629.69	20152.01
629.88	20080.33
630.08	20149.96
630.27	20397.77
630.47	20145.87
630.66	20213.45
630.86	20414.15
631.05	20078.29
631.25	20182.73
631.44	20199.12
631.64	20319.95
631.84	20057.81
632.03	20463.30
632.23	20002.51
632.42	20131.53
632.62	20137.68
632.81	20162.25
633.01	20047.57
633.20	20334.28
633.40	20215.50
633.59	20240.08
633.79	20442.82
633.98	20072.14
634.18	20330.19
634.37	20324.04
634.57	20360.91
634.76	20319.95
634.96	20428.49
635.15	20453.06
635.35	20182.73
635.54	20100.81
635.74	20373.19
635.93	20453.06
636.13	20582.09
636.32	20336.33
636.52	20188.88
636.71	20240.08
636.91	20444.87
637.10	20512.46
637.30	20117.20
637.49	20383.43
637.69	20371.15
637.88	20555.46
638.08	20332.23
638.27	20276.94
638.46	20344.52
638.66	20227.79
638.85	20391.62
639.05	20377.29
639.24	20336.33
639.44	20491.98
639.63	20315.85
639.83	20442.82
640.02	20342.47
640.22	20299.47
640.41	20631.24
640.61	20092.62
640.80	20444.87
640.99	20504.26
641.19	20684.48
641.38	20532.93
641.58	20281.03
641.77	20217.55
641.97	20379.34
642.16	20430.54
642.36	20659.91
642.55	20502.22
642.74	20256.46
642.94	20659.91
643.13	20393.67
643.33	20586.18
643.52	20586.18
643.72	20707.01
643.91	20580.04
644.10	20664.00
644.30	20211.40
644.49	20299.47
644.69	20596.42
644.88	20502.22
645.08	20504.26
645.27	20727.49
645.46	20502.22
645.66	20666.05
645.85	20270.79
646.05	20510.41
646.24	20549.32
646.43	20539.08
646.63	20643.52
646.82	20639.43
647.02	20846.27
647.21	20735.68
647.40	20702.92
647.60	20479.69
647.79	20813.51
647.99	20731.59
648.18	20807.36
648.37	20737.73
648.57	20760.26
648.76	20573.89
648.96	20408.01
649.15	20764.36
649.34	20887.23
649.54	20795.07
649.73	20489.93
649.92	20876.99
650.12	20414.15
650.31	20575.94
650.51	20915.90
650.70	20944.58
650.89	20551.37
651.09	20942.53
651.28	20754.12
651.47	20829.89
651.67	20950.72
651.86	20911.81
652.06	20569.80
652.25	20913.86
652.44	20610.76
652.64	20682.44
652.83	20870.85
653.02	20498.12
653.22	20917.95
653.41	20627.14
653.60	20774.60
653.80	20655.81
653.99	20944.58
654.18	20641.48
654.38	20874.95
654.57	20907.71
654.76	20717.25
654.96	20856.51
655.15	20704.96
655.34	20870.85
655.54	20625.09
655.73	20577.99
655.92	20942.53
656.12	20772.55
656.31	20676.29
656.50	20856.51
656.70	20848.32
656.89	20838.08
657.08	21089.98
657.28	20790.98
657.47	20936.38
657.66	20801.22
657.86	20790.98
658.05	21106.37
658.24	21067.45
658.43	20731.59
658.63	20883.14
658.82	20938.43
659.01	21077.69
659.21	21057.21
659.40	21098.17
659.59	21079.74
659.79	21132.99
659.98	20985.54
660.17	21038.78
660.36	21272.25
660.56	20958.91
660.75	20930.24
660.94	21046.97
661.14	20971.20
661.33	20844.23
661.52	21020.35
661.71	21419.71
661.91	20872.90
662.10	20451.02
662.29	21104.32
662.49	21012.16
662.68	21014.21
662.87	20692.68
663.06	21083.84
663.26	21046.97
663.45	21229.24
663.64	20817.60
663.83	21298.88
664.03	21057.21
664.22	21110.46
664.41	21253.82
664.60	21094.08
664.80	20948.67
664.99	20926.14
665.18	20827.84
665.37	21053.12
665.57	20971.20
665.76	20913.86
665.95	20971.20
666.14	20876.99
666.34	20946.62
666.53	21094.08
666.72	20801.22
666.91	21094.08
667.11	20807.36
667.30	21094.08
667.49	20799.17
667.68	21022.40
667.87	20924.10
668.07	21016.26
668.26	21118.65
668.45	20915.90
668.64	20852.42
668.84	21120.70
669.03	21124.80
669.22	20956.86
669.41	21100.22
669.60	20885.19
669.80	21079.74
669.99	21116.61
670.18	21001.92
670.37	21319.35
670.57	21182.14
670.76	20997.82
670.95	21114.56
671.14	20905.66
671.33	21264.06
671.53	20999.87
671.72	21176.00
671.91	21112.51
672.10	21044.93
672.29	20758.21
672.48	20879.04
672.68	20950.72
672.87	20719.30
673.06	21001.92
673.25	20999.87
673.44	20985.54
673.64	20926.14
673.83	21112.51
674.02	20766.40
674.21	20901.57
674.40	21016.26
674.59	20909.76
674.79	20956.86
674.98	20909.76
675.17	20864.71
675.36	20776.64
675.55	20823.75
675.74	20901.57
675.94	21089.98
676.13	20899.52
676.32	21030.59
676.51	21147.33
676.70	20903.62
676.89	20833.99
677.08	21040.83
677.28	20786.88
677.47	21176.00
677.66	20977.34
677.85	20842.18
678.04	21014.21
678.23	21085.89
678.42	21024.45
678.62	20790.98
678.81	21044.93
679.00	20616.90
679.19	21165.76
679.38	20790.98
679.57	20805.31
679.76	20793.03
679.96	20688.58
680.15	20999.87
680.34	20606.66
680.53	20846.27
680.72	20940.48
680.91	20799.17
681.10	20891.33
681.29	20686.53
681.48	20909.76
681.68	20903.62
681.87	21022.40
682.06	20858.56
682.25	20717.25
682.44	20844.23
682.63	20827.84
682.82	20391.62
683.01	20575.94
683.20	20555.46
683.39	20819.65
683.59	20639.43
683.78	20778.69
683.97	20446.92
684.16	20627.14
684.35	20707.01
684.54	20819.65
684.73	20502.22
684.92	20584.13
685.11	20817.60
685.30	20786.88
685.49	20688.58
685.69	20670.15
685.88	20643.52
686.07	20489.93
686.26	20543.17
686.45	20432.58
686.64	20428.49
686.83	20682.44
687.02	20494.02
687.21	20756.16
687.40	20752.07
687.59	20860.61
687.78	20440.78
687.97	20758.21
688.16	20549.32
688.35	20641.48
688.54	20358.86
688.74	20770.50
688.93	20432.58
689.12	20580.04
689.31	20643.52
689.50	20754.12
689.69	20293.32
689.88	20506.31
690.07	20725.44
690.26	20379.34
690.45	20563.65
690.64	20205.26
690.83	20387.53
691.02	20287.18
691.21	20485.83
691.40	20358.86
691.59	20381.38
691.78	20494.02
691.97	20608.71
692.16	20342.47
692.35	20731.59
692.54	20418.25
692.73	20618.95
692.92	20481.74
693.11	20457.16
693.30	20319.95
693.49	20229.84
693.68	20432.58
693.87	20436.68
694.06	20033.23
694.25	20297.42
694.44	20367.05
694.63	20260.55
694.82	20188.88
695.01	20352.71
695.20	20223.69
695.39	19992.27
695.58	20231.88
695.77	20502.22
695.96	20321.99
696.15	20172.49
696.34	20274.89
696.53	20174.54
696.72	20199.12
696.91	20012.75
697.10	20299.47
697.29	20022.99
697.48	20360.91
697.67	20223.69
697.86	20223.69
698.05	20010.70
698.24	20256.46
698.43	19896.02
698.62	20211.40
698.81	19934.93
699.00	20403.91
699.19	20088.53
699.38	20123.34
699.57	19947.22
699.76	20246.22
699.95	19830.48
700.14	19707.60
700.32	20145.87
700.51	20027.09
700.70	20209.36
700.89	20215.50
701.08	20309.71
701.27	20092.62
701.46	20104.91
701.65	19648.21
701.84	19828.43
702.03	20260.55
702.22	19871.44
702.41	20022.99
702.60	19998.41
702.79	20121.29
702.98	19883.73
703.17	19746.51
703.35	19707.60
703.54	19746.51
703.73	19924.69
703.92	19840.72
704.11	19666.64
704.30	19586.77
704.49	19777.23
704.68	19588.82
704.87	19869.39
705.06	19955.41
705.25	19392.22
705.43	19781.33
705.62	19879.63
705.81	20080.33
706.00	19623.64
706.19	19658.45
706.38	19433.18
706.57	19642.07
706.76	19494.61
706.95	19689.17
707.14	19883.73
707.32	19713.75
707.51	19803.86
707.70	19613.40
707.89	19394.26
708.08	19756.75
708.27	19369.69
708.46	19773.14
708.65	19287.77
708.84	19465.94
709.02	19406.55
709.21	19250.91
709.40	19576.53
709.59	19810.00
709.78	19560.15
709.97	19599.06
710.16	19414.74
710.34	19588.82
710.53	19433.18
710.72	19427.03
710.91	19437.27
711.10	19533.53
711.29	19590.87
711.48	19394.26
711.66	19416.79
711.85	19615.44
712.04	19486.42
712.23	19539.67
712.42	19371.74
712.61	19447.51
712.80	19281.63
712.98	19293.91
713.17	19263.19
713.36	19224.28
713.55	19308.25
713.74	19220.19
713.93	19488.47
714.11	19310.30
714.30	19031.77
714.49	19351.26
714.68	19205.85
714.87	19150.56
715.06	19371.74
715.24	19281.63
715.43	19093.21
715.62	18921.18
715.81	19039.97
716.00	19146.46
716.18	19060.45
716.37	18984.67
716.56	18826.98
716.75	19042.01
716.94	18978.53
717.12	19033.82
717.31	18882.27
717.50	18884.32
717.69	18814.69
717.88	18872.03
718.06	18941.66
718.25	18863.84
718.44	18994.91
718.63	19203.80
718.82	18886.37
719.00	18720.48
719.19	18732.77
719.38	18867.94
719.57	18568.93
719.76	18679.52
719.94	18626.28
720.13	18919.14
720.32	18796.26
720.51	18505.45
720.69	18763.49
720.88	19027.68
721.07	18697.95
721.26	18638.56
721.44	18802.40
721.63	18495.21
721.82	18439.91
722.01	18448.10
722.20	18620.13
722.38	18808.54
722.57	18403.05
722.76	18374.38
722.95	18224.87
723.13	18589.41
723.32	18300.65
723.51	18165.48
723.70	18376.42
723.88	18302.70
724.07	18110.19
724.26	18499.30
724.44	17999.60
724.63	18517.73
724.82	18562.79
725.01	18110.19
725.19	18370.28
725.38	18216.68
725.57	17886.96
725.76	18298.60
725.94	18245.35
726.13	18140.91
726.32	18134.76
726.51	18054.89
726.69	18173.67
726.88	18241.26
727.07	18167.53
727.25	18056.94
727.44	17843.95
727.63	18042.60
727.82	17995.50
728.00	18104.04
728.19	18058.99
728.38	17999.60
728.56	17821.42
728.75	18202.35
728.94	18018.03
729.12	17936.11
729.31	17905.39
729.50	17991.41
729.69	17848.05
729.87	18147.05
730.06	17929.97
730.25	17952.49
730.43	18155.24
730.62	17946.35
730.81	18050.80
730.99	18063.08
731.18	17886.96
731.37	18073.32
731.55	18007.79
731.74	18177.77
731.93	18048.75
732.11	18054.89
732.30	17983.21
732.49	17993.45
732.67	17823.47
732.86	17944.30
733.05	18056.94
733.23	17737.46
733.42	18058.99
733.61	18026.22
733.79	17731.31
733.98	17889.01
734.17	17813.23
734.35	18075.37
734.54	17891.06
734.73	17876.72
734.91	17780.46
735.10	17786.61
735.29	18091.76
735.47	17719.03
735.66	17667.83
735.84	17862.38
736.03	17856.24
736.22	17897.20
736.40	17846.00
736.59	17899.25
736.78	17776.37
736.96	17764.08
737.15	17633.01
737.33	17985.26
737.52	17563.38
737.71	17805.04
737.89	17706.74
738.08	17602.29
738.27	17917.68
738.45	17923.82
738.64	17659.63
738.82	17737.46
739.01	17542.90
739.20	17368.82
739.38	17899.25
739.57	17802.99
739.75	17850.10
739.94	17807.09
740.13	17702.64
740.31	17667.83
740.50	17751.79
740.68	17604.34
740.87	17592.05
741.06	17667.83
741.24	17598.20
741.43	17514.23
741.61	17678.07
741.80	17628.92
741.99	17397.49
742.17	17557.24
742.36	17503.99
742.54	17381.11
742.73	17424.12
742.91	17628.92
743.10	17336.06
743.29	17676.02
743.47	17700.59
743.66	17250.04
743.84	17751.79
744.03	17514.23
744.21	17530.61
744.40	17704.69
744.59	17325.82
744.77	17422.07
744.96	17420.02
745.14	17399.54
745.33	17252.09
745.51	17385.21
745.70	17557.24
745.88	17247.99
746.07	17448.69
746.26	17250.04
746.44	17280.76
746.63	17436.41
746.81	17340.15
747.00	17389.30
747.18	17309.43
747.37	17415.93
747.55	17350.39
747.74	17633.01
747.92	17026.81
748.11	17186.55
748.29	17372.92
748.48	17237.75
748.66	16971.52
748.85	17254.14
749.03	17106.68
749.22	16965.37
749.41	17125.11
749.59	17391.35
749.78	16877.31
749.96	16867.07
750.15	17190.65
750.33	17051.39
750.52	17086.20
750.70	16971.52
750.89	17086.20
751.07	16828.16
751.26	16940.80
751.44	16860.93
751.63	17069.82
751.81	17022.72
752.00	16598.79
752.18	17096.44
752.37	17180.41
752.55	16654.08
752.74	16811.78
752.92	16768.77
753.10	16813.82
753.29	16938.75
753.47	16731.90
753.66	16480.00
753.84	17045.24
754.03	16742.14
754.21	16594.69
754.40	16897.79
754.58	16914.17
754.77	16654.08
754.95	16635.65
755.14	16621.31
755.32	16557.83
755.51	16615.17
755.69	16729.86
755.88	16590.59
756.06	16629.51
756.24	16611.07
756.43	16527.11
756.61	16606.98
756.80	16387.85
756.98	16475.91
757.17	16480.00
757.35	16695.04
757.54	16584.45
757.72	16457.48
757.90	16455.43
758.09	16527.11
758.27	16383.75
758.46	16336.65
758.64	16416.52
758.83	16533.25
759.01	16615.17
759.19	16654.08
759.38	16426.76
759.56	16527.11
759.75	16584.45
759.93	16561.92
760.12	16224.01
760.30	16578.31
760.48	16592.64
760.67	16232.20
760.85	16310.02
761.04	16377.61
761.22	16322.31
761.40	16148.23
761.59	16144.14
761.77	16164.62
761.96	16451.33
762.14	16070.41
762.32	16142.09
762.51	16004.88
762.69	16289.54
762.88	16027.40
763.06	16207.62
763.24	16273.16
763.43	16121.61
763.61	16199.43
763.80	16246.54
763.98	16193.29
764.16	16119.56
764.35	15980.30
764.53	16144.14
764.72	15945.48
764.90	16271.11
765.08	15890.19
765.27	16019.21
765.45	15771.41
765.63	15965.96
765.82	15742.74
766.00	15908.62
766.18	15965.96
766.37	15789.84
766.55	15761.17
766.74	15959.82
766.92	15589.14
767.10	15795.98
767.29	15892.24
767.47	15572.75
767.65	15834.89
767.84	15466.26
768.02	15929.10
768.20	15773.46
768.39	15955.72
768.57	15865.61
768.75	15789.84
768.94	15773.46
769.12	15748.88
769.30	15712.02
769.49	15578.90
769.67	15574.80
769.85	15230.74
770.04	15527.70
770.22	15361.81
770.40	15554.32
770.59	15632.15
770.77	15494.93
770.95	15603.47
771.14	15341.33
771.32	15126.30
771.50	15167.26
771.69	15433.49
771.87	15451.92
772.05	15402.77
772.24	15333.14
772.42	15421.20
772.60	15372.05
772.78	15068.95
772.97	15322.90
773.15	15255.32
773.33	15429.40
773.52	15101.72
773.70	15331.09
773.88	15361.81
774.07	15302.42
774.25	15185.69
774.43	15462.16
774.61	15312.66
774.80	15261.46
774.98	15329.05
775.16	15384.34
775.34	14997.28
775.53	15294.23
775.71	15273.75
775.89	15443.73
776.08	15218.46
776.26	15380.25
776.44	15486.74
776.62	15279.89
776.81	15413.01
776.99	15343.38
777.17	15410.96
777.35	15171.35
777.54	15390.49
777.72	15327.00
777.90	15361.81
778.08	15304.47
778.27	15173.40
778.45	15327.00
778.63	15451.92
778.81	15437.59
779.00	15683.34
779.18	15304.47
779.36	15660.82
779.54	15292.18
779.73	15273.75
779.91	15503.12
780.09	15316.76
780.27	15662.86
780.46	15548.18
780.64	15433.49
780.82	15386.39
781.00	15132.44
781.19	15539.99
781.37	15529.75
781.55	15439.64
781.73	15779.60
781.91	15533.84
782.10	15546.13
782.28	15718.16
782.46	15617.81
782.64	15726.35
782.82	15519.51
783.01	15578.90
783.19	15677.20
783.37	15732.50
783.55	15445.78
783.74	15900.43
783.92	15566.61
784.10	15474.45
784.28	15642.39
784.46	15494.93
784.64	15652.63
784.83	15724.30
785.01	15937.29
785.19	15523.60
785.37	15789.84
785.55	15292.18
785.74	15605.52
785.92	15609.62
786.10	15468.31
786.28	15578.90
786.46	15582.99
786.64	15404.82
786.83	15585.04
787.01	15453.97
787.19	15505.17
787.37	15802.13
787.55	15046.43
787.74	15408.92
787.92	15511.32
788.10	15638.29
788.28	15318.81
788.46	15523.60
788.64	15365.91
788.82	15398.68
789.01	15120.15
789.19	15400.72
789.37	15187.74
789.55	15253.27
789.73	15410.96
789.91	15111.96
790.09	15288.09
790.28	15179.54
790.46	15208.22
790.64	15054.62
790.82	15204.12
791.00	15122.20
791.18	15124.25
791.36	15150.87
791.55	15013.66
791.73	15048.47
791.91	14817.05
792.09	14939.93
792.27	14903.07
792.45	14911.26
792.63	14841.63
792.81	14915.36
793.00	14755.61
793.18	14769.95
793.36	14937.88
793.54	14524.19
793.72	14917.40
793.90	14704.42
794.08	14528.29
794.26	14808.86
794.44	14481.19
794.62	14626.59
794.81	14511.91
794.99	14544.67
795.17	14772.00
795.35	14356.26
795.53	14507.81
795.71	14423.84
795.89	14321.45
796.07	14436.13
796.25	14245.67
796.43	14280.49
796.61	14212.90
796.80	14307.11
796.98	14325.54
797.16	14163.75
797.34	14098.22
797.52	14204.71
797.70	14075.69
797.88	14231.33
798.06	14112.55
798.24	14208.81
798.42	13995.82
798.60	14350.12
798.78	14001.96
798.96	14090.02
799.14	13909.80
799.32	13891.37
799.51	13817.65
799.69	13961.00
799.87	13930.28
800.05	13670.19
800.23	13662.00
800.41	13836.08
800.59	13702.96
800.77	13500.21
800.95	13526.83
801.13	13436.72
801.31	13506.35
801.49	13741.87
801.67	13436.72
801.85	13434.68
802.03	13442.87
802.21	13283.13
802.39	13416.24
802.57	13416.24
802.75	13444.91
802.93	13377.33
803.11	13158.20
803.29	13422.39
803.47	13186.87
803.65	13109.05
803.83	13324.08
804.01	13221.69
804.19	12994.36
804.37	13143.86
804.55	13143.86
804.73	12990.27
804.91	12851.00
805.09	13213.49
805.27	13223.73
805.45	12971.83
805.63	12982.07
805.81	12676.93
805.99	12953.40
806.17	13066.04
806.35	12920.63
806.53	12867.39
806.71	12846.91
806.89	12781.37
807.07	12855.10
807.25	12832.57
807.43	12726.08
807.61	12785.47
807.79	12738.37
807.97	12713.79
808.15	12805.95
808.33	12588.86
808.51	12541.76
808.69	12660.54
808.87	12443.46
809.05	12300.10
809.23	12349.25
809.41	12369.73
809.59	12273.48
809.77	12554.05
809.95	12527.42
810.13	12459.84
810.31	12429.12
810.49	12453.70
810.67	12279.62
810.84	12222.28
811.02	12052.30
811.20	12273.48
811.38	12529.47
811.56	11964.23
811.74	12169.03
811.92	12105.54
812.10	11980.62
812.28	12300.10
812.46	12113.74
812.64	12103.50
812.82	11994.95
813.00	12050.25
813.18	11923.27
813.36	11958.09
813.53	12052.30
813.71	12103.50
813.89	11910.99
814.07	11949.90
814.25	11917.13
814.43	11722.57
814.61	11790.16
814.79	11681.61
814.97	11743.05
815.15	11888.46
815.33	11710.29
815.50	11767.63
815.68	11743.05
815.86	11792.20
816.04	11652.94
816.22	11757.39
816.40	11759.44
816.58	11431.76
816.76	11462.48
816.94	11538.26
817.11	11495.25
817.29	11663.18
817.47	11599.70
817.65	11530.06
817.83	11573.07
818.01	11384.66
818.19	11390.80
818.37	11511.63
818.54	11540.30
818.72	11296.60
818.90	11437.91
819.08	11321.17
819.26	11341.65
819.44	11364.18
819.62	11108.18
819.80	11245.40
819.97	11204.44
820.15	11251.54
820.33	11274.07
820.51	11145.05
820.69	11116.37
820.87	11093.85
821.05	11069.27
821.22	11034.46
821.40	11145.05
821.58	11210.58
821.76	11233.11
821.94	11079.51
822.12	11253.59
822.29	11136.85
822.47	11026.26
822.65	11196.25
822.83	10979.16
823.01	11059.03
823.19	10612.57
823.36	10864.47
823.54	10991.45
823.72	10800.99
823.90	10805.08
824.08	10790.75
824.25	10960.73
824.43	10817.37
824.61	10874.71
824.79	10862.43
824.97	10721.12
825.15	11079.51
825.32	10827.61
825.50	10798.94
825.68	10577.76
825.86	10889.05
826.04	10606.43
826.21	10766.17
826.39	10696.54
826.57	10925.91
826.75	10833.75
826.93	10780.51
827.10	10731.36
827.28	10602.33
827.46	10614.62
827.64	10860.38
827.81	10579.81
827.99	10563.42
828.17	10424.16
828.35	10243.94
828.53	10252.13
828.70	10553.18
828.88	10555.23
829.06	10422.11
829.24	10309.47
829.41	10424.16
829.59	10624.86
829.77	10458.98
829.95	10532.70
830.12	10370.91
830.30	10542.94
830.48	10538.85
830.66	10465.12
830.84	10350.43
831.01	10469.22
831.19	10338.15
831.37	10467.17
831.55	10213.22
831.72	10284.90
831.90	10258.28
832.08	10483.55
832.25	10166.12
832.43	10286.95
832.61	10254.18
832.79	10125.16
832.96	10110.82
833.14	10362.72
833.32	10366.82
833.50	10342.24
833.67	10303.33
833.85	10043.24
834.03	10008.42
834.20	10196.84
834.38	10319.71
834.56	10280.80
834.74	10061.67
834.91	10123.11
835.09	10102.63
835.27	9934.70
835.44	10022.76
835.62	9756.52
835.80	9899.88
835.98	9930.60
836.15	10172.26
836.33	9897.83
836.51	9959.27
836.68	9985.90
836.86	10047.33
837.04	10123.11
837.21	10045.29
837.39	9799.53
837.57	10020.71
837.75	9998.18
837.92	9965.42
838.10	9873.26
838.28	9836.39
838.45	9791.34
838.63	9690.99
838.81	9826.15
838.98	9774.95
839.16	9555.82
839.34	9502.58
839.51	9721.71
839.69	9625.45
839.87	9498.48
840.04	9568.11
840.22	10014.57
840.40	9594.73
840.57	9535.34
840.75	9602.93
840.93	9547.63
841.10	9604.97
841.28	9908.07
841.46	9549.68
841.63	9641.84
841.81	9379.70
841.98	9379.70
842.16	9613.17
842.34	9625.45
842.51	9537.39
842.69	9420.66
842.87	9414.51
843.04	9498.48
843.22	9402.22
843.40	9420.66
843.57	9252.72
843.75	9365.36
843.92	9525.10
844.10	9394.03
844.28	9424.75
844.45	9422.70
844.63	9391.98
844.81	9455.47
844.98	9492.34
845.16	9453.42
845.33	9594.73
845.51	9172.85
845.69	9187.19
845.86	9291.63
846.04	9021.30
846.21	9305.97
846.39	9256.82
846.57	9074.55
846.74	9133.94
846.92	9330.55
847.09	8910.71
847.27	8949.62
847.45	9119.60
847.62	9150.32
847.80	9146.23
847.97	9152.37
848.15	9097.08
848.32	9121.65
848.50	8966.01
848.68	9076.60
848.85	9119.60
849.03	9031.54
849.20	8914.81
849.38	8978.30
849.56	9129.84
849.73	8728.44
849.91	9029.49
850.08	9144.18
850.26	8841.08
850.43	8910.71
850.61	8879.99
850.78	8753.02
850.96	8857.46
851.14	8855.42
851.31	9125.75
851.49	8828.79
851.66	9117.56
851.84	8892.28
852.01	8857.46
852.19	8867.70
852.36	8624.00
852.54	8765.31
852.71	8910.71
852.89	8918.90
853.07	8689.53
853.24	8771.45
853.42	9092.98
853.59	8863.61
853.77	8923.00
853.94	8916.86
854.12	9023.35
854.29	8734.59
854.47	8503.17
854.64	8802.17
854.82	8576.89
854.99	8873.85
855.17	8617.85
855.34	8634.24
855.52	8662.91
855.69	8904.57
855.87	8818.55
856.04	8435.58
856.22	8712.06
856.39	8327.04
856.57	8656.76
856.74	8599.42
856.92	8521.60
857.09	8355.71
857.27	8642.43
857.44	8646.52
857.62	8574.85
857.79	8628.09
857.97	8515.45
858.14	8337.28
858.32	8335.23
858.49	8470.40
858.67	8503.17
858.84	8386.43
859.02	8566.65
859.19	8333.18
859.37	8435.58
859.54	8284.03
859.72	8425.34
859.89	8347.52
860.06	8390.53
860.24	8327.04
860.41	8234.88
860.59	8187.78
860.76	8308.61
860.94	7989.13
861.11	8298.37
861.29	8437.63
861.46	8187.78
861.64	8304.51
861.81	8363.90
861.98	8183.68
862.16	8112.00
862.33	7937.93
862.51	8060.80
862.68	8220.55
862.86	8159.11
863.03	8226.69
863.21	7942.02
863.38	8007.56
863.55	7966.60
863.73	8048.52
863.90	7980.93
864.08	7985.03
864.25	8138.63
864.43	8058.76
864.60	7968.65
864.77	8050.57
864.95	8173.44
865.12	7942.02
865.30	8042.37
865.47	7950.21
865.64	7989.13
865.82	7874.44
865.99	8165.25
866.17	8011.65
866.34	8044.42
866.51	7792.52
866.69	7882.63
866.86	8171.40
867.04	7786.38
867.21	7776.14
867.38	7849.86
867.56	7667.60
867.73	7851.91
867.91	7733.13
868.08	7735.18
868.25	7722.89
868.43	7823.24
868.60	7790.47
868.78	7716.75
868.95	7673.74
869.12	7538.57
869.30	7694.22
869.47	7794.57
869.64	7563.15
869.82	7569.29
869.99	7552.91
870.16	7675.79
870.34	7759.75
870.51	7909.26
870.69	7544.72
870.86	7460.75
871.03	7659.40
871.21	7610.25
871.38	7757.71
871.55	7399.31
871.73	7489.42
871.90	7298.96
872.07	7503.76
872.25	7344.02
872.42	7364.50
872.59	7233.43
872.77	7341.97
872.94	7366.54
873.11	7552.91
873.29	7464.85
873.46	7387.02
873.63	7415.69
873.81	7262.10
873.98	7581.58
874.15	7253.91
874.33	7171.99
874.50	7085.97
874.67	7288.72
874.85	7159.70
875.02	7145.36
875.19	7020.44
875.37	7255.95
875.54	7010.20
875.71	7135.12
875.88	7157.65
876.06	7135.12
876.23	6932.37
876.40	6981.53
876.58	7174.03
876.75	7182.23
876.92	6985.62
877.10	7290.77
877.27	7038.87
877.44	6862.74
877.61	6729.63
877.79	7065.49
877.96	6860.70
878.13	7153.55
878.31	7004.05
878.48	6993.81
878.65	7012.24
878.82	6854.55
879.00	7018.39
879.17	6815.64
879.34	6819.74
879.51	6782.87
879.69	6461.34
879.86	6721.43
880.03	6694.81
880.21	6750.10
880.38	6817.69
880.55	6817.69
880.72	6801.30
880.90	6639.51
881.07	6535.07
881.24	6786.97
881.41	6508.44
881.59	6791.06
881.76	6786.97
881.93	6680.47
882.10	6682.52
882.28	6563.74
882.45	6512.54
882.62	6541.21
882.79	6721.43
882.96	6426.53
883.14	6627.23
883.31	6387.61
883.48	6545.31
883.65	6453.15
883.83	6528.92
884.00	6557.60
884.17	6399.90
884.34	6649.75
884.51	6688.67
884.69	6487.96
884.86	6457.25
885.03	6375.33
885.20	6242.21
885.38	6659.99
885.55	6244.26
885.72	6598.56
885.89	6453.15
886.06	6354.85
886.24	6209.44
886.41	6301.60
886.58	6608.80
886.75	6709.15
886.92	6338.46
887.10	6305.70
887.27	6016.93
887.44	6608.80
887.61	6434.72
887.78	6299.55
887.95	6315.94
888.13	6137.76
888.30	6205.35
888.47	6199.20
888.64	6358.94
888.81	6535.07
888.99	6121.38
889.16	6297.50
889.33	6068.13
889.50	6111.14
889.67	6061.99
889.84	6125.47
890.01	6041.51
890.19	6274.98
890.36	6164.39
890.53	6197.15
890.70	6014.88
890.87	6246.30
891.04	6143.91
891.22	6145.95
891.39	5996.45
891.56	5859.24
891.73	6221.73
891.90	5939.11
892.07	5771.18
892.24	6043.56
892.42	5935.01
892.59	6008.74
892.76	6113.19
892.93	5875.62
893.10	5955.49
893.27	5943.21
893.44	5803.94
893.61	5859.24
893.79	6057.89
893.96	5801.90
894.13	5912.49
894.30	5951.40
894.47	6127.52
894.64	6221.73
894.81	5762.98
894.98	6053.80
895.15	5975.97
895.33	6039.46
895.50	5869.48
895.67	5982.12
895.84	5808.04
896.01	5853.09
896.18	5746.60
896.35	6113.19
896.52	5719.98
896.69	5638.06
896.86	5744.55
897.04	6031.27
897.21	5822.38
897.38	5779.37
897.55	5834.66
897.72	5754.79
897.89	5650.35
898.06	6088.61
898.23	5851.05
898.40	5883.81
898.57	5793.70
898.74	5732.26
898.91	5777.32
899.08	5556.14
899.26	5992.36
899.43	6012.84
899.60	5609.39
899.77	5959.59
899.94	5693.35
900.11	5666.73
900.28	5740.46
900.45	5744.55
900.62	5812.14
900.79	5849.00
900.96	5828.52
901.13	5799.85
901.30	5619.63
901.47	5574.57
901.64	5652.39
901.81	5744.55
901.98	5705.64
902.15	5865.38
902.32	5683.11
902.49	5785.51
902.66	5715.88
902.83	5791.66
903.01	5715.88
903.18	5797.80
903.35	5476.27
903.52	5498.80
903.69	5681.07
903.86	5615.53
904.03	5697.45
904.20	5840.81
904.37	5699.50
904.54	5670.83
904.71	5652.39
904.88	5754.79
905.05	5377.97
905.22	5738.41
905.39	5613.48
905.56	5654.44
905.73	5728.17
905.90	5777.32
906.07	5588.91
906.24	5554.09
906.41	5656.49
906.58	5965.73
906.75	5707.69
906.92	5693.35
907.09	5531.56
907.26	5611.43
907.43	5633.96
907.60	5541.80
907.77	5789.61
907.93	5713.83
908.10	5599.15
908.27	5683.11
908.44	5451.69
908.61	5420.97
908.78	5560.24
908.95	5787.56
909.12	5732.26
909.29	5455.79
909.46	5588.91
909.63	5795.75
909.80	5892.01
909.97	5574.57
910.14	5646.25
910.31	5545.90
910.48	5703.59
910.65	5672.87
910.82	5711.78
910.99	5816.23
911.16	5851.05
911.33	5646.25
911.50	5365.68
911.66	5304.24
911.83	5666.73
912.00	5652.39
912.17	5351.34
912.34	5343.15
912.51	5525.42
912.68	5341.10
912.85	5746.60
913.02	5490.60
913.19	5308.34
913.36	5193.65
913.53	5562.28
913.70	5124.02
913.86	5695.40
914.03	5496.75
914.20	5357.49
914.37	5566.38
914.54	5484.46
914.71	5152.69
914.88	5402.54
915.05	5246.90
915.22	5377.97
915.39	5396.40
915.55	5445.55
915.72	5404.59
915.89	5126.07
916.06	5377.97
916.23	5347.25
916.40	5169.07
916.57	5132.21
916.74	5109.68
916.91	5179.31
917.07	4923.32
917.24	4997.04
917.41	5136.31
917.58	5173.17
917.75	5113.78
917.92	4935.60
918.09	5060.53
918.26	5023.67
918.42	5060.53
918.59	5052.34
918.76	4870.07
918.93	4714.42
919.10	4741.05
919.27	4923.32
919.44	5050.29
919.60	5083.06
919.77	4921.27
919.94	4878.26
920.11	5019.57
920.28	4911.03
920.45	4849.59
920.61	4827.06
920.78	4923.32
920.95	5050.29
921.12	4843.45
921.29	4741.05
921.46	4491.20
921.62	4399.04
921.79	4628.41
921.96	4753.34
922.13	4743.10
922.30	4466.62
922.47	4468.67
922.63	4466.62
922.80	4401.08
922.97	4601.79
923.14	4294.59
923.31	4310.97
923.47	4636.60
923.64	4782.01
923.81	4761.53
923.98	4173.76
924.15	4552.63
924.32	4399.04
924.48	4351.93
924.65	4655.03
924.82	4147.14
924.99	4321.21
925.15	4190.14
925.32	4503.48
925.49	4181.95
925.66	4704.18
925.83	4257.73
925.99	4091.84
926.16	4437.95
926.33	4306.88
926.50	3868.61
926.67	4011.97
926.83	4222.91
927.00	4212.67
927.17	4200.38
927.34	3858.37
927.50	4231.10
927.67	3985.35
927.84	4167.62
928.01	4151.23
928.17	3821.51
928.34	3821.51
928.51	3905.48
928.68	3968.96
928.84	3741.64
929.01	3753.93
929.18	3778.50
929.35	3749.83
929.51	3831.75
929.68	3633.10
929.85	3655.62
930.02	3747.78
930.18	3760.07
930.35	3602.38
930.52	3717.06
930.69	3690.44
930.85	3753.93
931.02	3803.08
931.19	3706.82
931.36	3631.05
931.52	3512.27
931.69	3651.53
931.86	3739.59
932.02	3356.62
932.19	3256.27
932.36	3604.42
932.53	3411.92
932.69	3424.20
932.86	3471.31
933.03	3547.08
933.19	3313.61
933.36	3262.41
933.53	3311.57
933.70	3592.14
933.86	3370.96
934.03	3309.52
934.20	3131.34
934.36	3356.62
934.53	2953.17
934.70	3014.61
934.86	3330.00
935.03	2992.08
935.20	3243.98
935.36	3190.74
935.53	2822.10
935.70	2641.88
935.86	3100.62
936.03	2766.81
936.20	2633.69
936.36	2727.89
936.53	2897.88
936.70	2934.74
936.86	3129.30
937.03	3018.71
937.20	2758.61
937.36	3004.37
937.53	2435.03
937.70	2721.75
937.86	2539.48
938.03	2643.93
938.20	3276.75
938.36	2662.36
938.53	2691.03
938.70	2230.24
938.86	2676.70
939.03	2363.36
939.20	2426.84
939.36	2265.05
939.53	2418.65
939.70	2516.95
939.86	2463.71
940.03	2412.51
940.19	2355.16
940.36	2306.01
940.53	2473.95
940.69	2195.42
940.86	2383.84
941.03	2189.28
941.19	2164.70
941.36	2238.43
941.52	2052.06
941.69	2156.51
941.86	2222.05
942.02	2480.09
942.19	2183.13
942.35	2158.56
942.52	2117.60
942.69	2158.56
942.85	2000.87
943.02	1931.23
943.18	1980.39
943.35	2095.07
943.52	1933.28
943.68	2023.39
943.85	2127.84
944.01	2074.59
944.18	1912.80
944.35	2035.68
944.51	1941.47
944.68	1955.81
944.84	1798.12
945.01	2043.87
945.17	2031.58
945.34	2105.31
945.51	2029.54
945.67	2007.01
945.84	1904.61
946.00	1806.31
946.17	2015.20
946.33	1845.22
946.50	2037.73
946.67	1964.00
946.83	1896.42
947.00	1978.34
947.16	1966.05
947.33	1904.61
947.49	2019.30
947.66	1857.51
947.82	1986.53
947.99	1851.36
948.16	2058.21
948.32	1957.86
948.49	2033.63
948.65	2123.74
948.82	1923.04
948.98	1832.93
949.15	1751.01
949.31	1976.29
949.48	1959.91
949.64	1931.23
949.81	1998.82
949.97	1826.79
950.14	1986.53
950.30	1746.92
950.47	2056.16
950.63	1873.89
950.80	1935.33
950.96	1875.94
951.13	1949.67
951.30	2043.87
951.46	1837.03
951.63	2039.78
951.79	2027.49
951.96	2183.13
952.12	1945.57
952.29	2076.64
952.45	1845.22
952.62	1970.15
952.78	2033.63
952.94	1927.14
953.11	1976.29
953.27	1757.16
953.44	2027.49
953.60	2037.73
953.77	2002.91
953.93	1998.82
954.10	1957.86
954.26	1894.37
954.43	1966.05
954.59	2115.55
954.76	2080.74
954.92	2101.22
955.09	1931.23
955.25	1904.61
955.42	1894.37
955.58	2215.90
955.75	1992.67
955.91	1826.79
956.07	1912.80
956.24	2054.11
956.40	1941.47
956.57	1986.53
956.73	1910.75
956.90	2113.50
957.06	2007.01
957.23	1880.04
957.39	1904.61
957.56	2015.20
957.72	1861.60
957.88	1789.92
958.05	2060.26
958.21	2133.98
958.38	1920.99
958.54	2039.78
958.71	2080.74
958.87	1945.57
959.03	1902.56
959.20	2011.11
959.36	1740.77
959.53	1994.72
959.69	1847.27
959.85	2064.35
960.02	1880.04
960.18	1927.14
960.35	1961.95
960.51	2045.92
960.68	1906.66
960.84	1955.81
961.00	1839.08
961.17	1869.80
961.33	1964.00
961.50	1947.62
961.66	1996.77
961.82	1875.94
961.99	1961.95
962.15	1884.13
962.31	1898.47
962.48	1974.24
962.64	1964.00
962.81	1982.43
962.97	1869.80
963.13	2117.60
963.30	1927.14
963.46	1896.42
963.62	1765.35
963.79	1935.33
963.95	1859.56
964.12	1839.08
964.28	2101.22
964.44	1867.75
964.61	2029.54
964.77	1906.66
964.93	2174.94
965.10	1900.52
965.26	1976.29
965.42	1849.32
965.59	1886.18
965.75	1871.84
965.92	1982.43
966.08	1896.42
966.24	1955.81
966.41	1855.46
966.57	1902.56
966.73	2027.49
966.90	2060.26
967.06	1986.53
967.22	1877.99
967.39	1920.99
967.55	1904.61
967.71	1882.08
967.88	1826.79
968.04	2013.15
968.20	1933.28
968.37	1943.52
968.53	1771.49
968.69	1896.42
968.85	1982.43
969.02	1941.47
969.18	1918.95
969.34	1845.22
969.51	1945.57
969.67	2007.01
969.83	1746.92
970.00	2064.35
970.16	1920.99
970.32	1916.90
970.48	2230.24
970.65	1925.09
970.81	1843.17
970.97	1982.43
971.14	1775.59
971.30	2031.58
971.46	1851.36
971.63	1931.23
971.79	1933.28
971.95	1957.86
972.11	1834.98
972.28	1927.14
972.44	1806.31
972.60	1748.97
972.76	1849.32
972.93	1767.40
973.09	1988.58
973.25	1873.89
973.42	1843.17
973.58	2017.25
973.74	1861.60
973.90	1947.62
974.07	1796.07
974.23	1925.09
974.39	1996.77
974.55	1875.94
974.72	1894.37
974.88	1785.83
975.04	1882.08
975.20	1888.23
975.37	1863.65
975.53	1898.47
975.69	1953.76
975.85	1855.46
976.01	1855.46
976.18	1757.16
976.34	1886.18
976.50	1910.75
976.66	1880.04
976.83	1865.70
976.99	1781.73
977.15	1937.38
977.31	1626.09
977.47	1904.61
977.64	1822.69
977.80	1806.31
977.96	1871.84
978.12	1902.56
978.29	1796.07
978.45	1777.64
978.61	1841.12
978.77	1839.08
978.93	1798.12
979.10	1802.21
979.26	1773.54
979.42	1861.60
979.58	1658.85
979.74	1785.83
979.91	1798.12
980.07	1832.93
980.23	1755.11
980.39	1779.68
980.55	1759.21
980.71	1800.16
980.88	1734.63
981.04	1765.35
981.20	1830.88
981.36	1814.50
981.52	1773.54
981.68	1689.57
981.85	2019.30
982.01	1658.85
982.17	1691.62
982.33	1740.77
982.49	1904.61
982.65	1765.35
982.82	1679.33
982.98	1759.21
983.14	1691.62
983.30	1810.40
983.46	1834.98
983.62	1886.18
983.79	1789.92
983.95	1693.67
984.11	1644.52
984.27	1869.80
984.43	1771.49
984.59	1847.27
984.75	1894.37
984.91	1773.54
985.08	1820.64
985.24	1742.82
985.40	1679.33
985.56	1695.72
985.72	1828.84
985.88	1785.83
986.04	1794.02
986.20	1753.06
986.37	1806.31
986.53	1753.06
986.69	1806.31
986.85	1734.63
987.01	1746.92
987.17	1765.35
987.33	1736.68
987.49	1789.92
987.65	1757.16
987.82	1703.91
987.98	1705.96
988.14	1802.21
988.30	1759.21
988.46	1751.01
988.62	1740.77
988.78	1665.00
988.94	1781.73
989.10	1685.48
989.26	1697.77
989.42	1697.77
989.59	1705.96
989.75	1705.96
989.91	1787.88
990.07	1720.29
990.23	1746.92
990.39	1714.15
990.55	1785.83
990.71	1744.87
990.87	1791.97
991.03	1775.59
991.19	1648.61
991.35	1669.09
991.51	1730.53
991.67	1863.65
991.83	1748.97
992.00	1638.38
992.16	1732.58
992.32	1822.69
992.48	1720.29
992.64	1601.51
992.80	1761.25
992.96	1720.29
993.12	1744.87
993.28	1806.31
993.44	1658.85
993.60	1712.10
993.76	1744.87
993.92	1669.09
994.08	1806.31
994.24	1736.68
994.40	1710.05
994.56	1796.07
994.72	1712.10
994.88	1644.52
995.04	1681.38
995.20	1669.09
995.36	1673.19
995.52	1863.65
995.68	1615.85
995.84	1669.09
996.00	1863.65
996.16	1693.67
996.32	1708.01
996.48	1732.58
996.64	1726.44
996.80	1771.49
996.96	1703.91
997.12	1708.01
997.28	1697.77
997.44	1648.61
997.60	1656.81
997.76	1675.24
997.92	1689.57
998.08	1708.01
998.24	1652.71
998.40	1699.81
998.56	1826.79
998.72	1644.52
998.88	1624.04
999.04	1738.73
999.20	1761.25
999.36	1607.66
999.52	1818.60
999.68	1689.57
999.84	1761.25
1000.00	1687.53
1000.16	1716.20
1000.32	1671.14
1000.48	1722.34
1000.64	1587.18
1000.80	1644.52
1000.95	1638.38
1001.11	1724.39
1001.27	1628.14
1001.43	1662.95
1001.59	1699.81
1001.75	1675.24
1001.91	1748.97
1002.07	1660.90
1002.23	1597.42
1002.39	1658.85
1002.55	1642.47
1002.71	1646.57
1002.87	1773.54
1003.03	1687.53
1003.19	1576.94
1003.34	1777.64
1003.50	1585.13
1003.66	1660.90
1003.82	1665.00
1003.98	1654.76
1004.14	1781.73
1004.30	1642.47
1004.46	1677.29
1004.62	1652.71
1004.78	1654.76
1004.94	1705.96
1005.09	1738.73
1005.25	1779.68
1005.41	1748.97
1005.57	1673.19
1005.73	1650.66
1005.89	1652.71
1006.05	1632.23
1006.21	1708.01
1006.37	1607.66
1006.52	1609.70
1006.68	1550.31
1006.84	1779.68
1007.00	1656.81
1007.16	1632.23
1007.32	1660.90
1007.48	1644.52
1007.64	1705.96
1007.79	1613.80
1007.95	1638.38
1008.11	1689.57
1008.27	1626.09
1008.43	1587.18
1008.59	1720.29
1008.75	1732.58
1008.91	1689.57
1009.06	1650.66
1009.22	1671.14
1009.38	1722.34
1009.54	1677.29
1009.70	1603.56
1009.86	1644.52
1010.01	1703.91
1010.17	1615.85
1010.33	1718.25
1010.49	1683.43
1010.65	1716.20
1010.81	1562.60
1010.96	1681.38
1011.12	1640.42
1011.28	1628.14
1011.44	1730.53
1011.60	1665.00
1011.76	1673.19
1011.91	1673.19
1012.07	1656.81
1012.23	1535.98
1012.39	1574.89
1012.55	1728.49
1012.71	1624.04
1012.86	1636.33
1013.02	1593.32
1013.18	1648.61
1013.34	1689.57
1013.50	1685.48
1013.65	1744.87
1013.81	1648.61
1013.97	1644.52
1014.13	1671.14
1014.29	1591.27
1014.44	1708.01
1014.60	1642.47
1014.76	1605.61
1014.92	1687.53
1015.07	1630.18
1015.23	1757.16
1015.39	1665.00
1015.55	1638.38
1015.71	1611.75
1015.86	1568.74
1016.02	1585.13
1016.18	1585.13
1016.34	1535.98
1016.49	1646.57
1016.65	1671.14
1016.81	1615.85
1016.97	1595.37
1017.12	1736.68
1017.28	1570.79
1017.44	1556.46
1017.60	1638.38
1017.75	1677.29
1017.91	1705.96
1018.07	1609.70
1018.23	1673.19
1018.38	1558.50
1018.54	1662.95
1018.70	1630.18
1018.86	1568.74
1019.01	1566.70
1019.17	1654.76
1019.33	1724.39
1019.49	1689.57
1019.64	1648.61
1019.80	1689.57
1019.96	1673.19
1020.12	1636.33
1020.27	1628.14
1020.43	1626.09
1020.59	1662.95
1020.74	1679.33
1020.90	1695.72
1021.06	1632.23
1021.22	1636.33
1021.37	1593.32
1021.53	1597.42
1021.69	1693.67
1021.84	1595.37
1022.00	1615.85
1022.16	1640.42
1022.31	1583.08
1022.47	1658.85
1022.63	1689.57
1022.79	1531.88
1022.94	1591.27
1023.10	1714.15
1023.26	1699.81
1023.41	1554.41
1023.57	1644.52
1023.73	1679.33
1023.88	1593.32
1024.04	1593.32
1024.20	1583.08
1024.35	1728.49
1024.51	1626.09
1024.67	1589.22
1024.82	1703.91
1024.98	1542.12
1025.14	1695.72
1025.29	1538.02
1025.45	1662.95
1025.61	1562.60
1025.76	1617.90
1025.92	1570.79
1026.08	1679.33
1026.23	1677.29
1026.39	1710.05
1026.55	1646.57
1026.70	1660.90
1026.86	1667.05
1027.02	1695.72
1027.17	1693.67
1027.33	1632.23
1027.48	1675.24
1027.64	1626.09
1027.80	1607.66
1027.95	1757.16
1028.11	1587.18
1028.27	1708.01
1028.42	1724.39
1028.58	1601.51
1028.73	1566.70
1028.89	1605.61
1029.05	1832.93
1029.20	1734.63
>>>>>End Processed Spectral Data<<<<<
