SpectraSuite Data File
++++++++++++++++++++++++++++++++++++
Date: Fri Jun 02 14:53:30 CEST 2017
User: INFO_000
Dark Spectrum Present: No
Reference Spectrum Present: No
Number of Sampled Component Spectra: 1
Spectrometers: USB4H00879
Integration Time (usec): 80000 (USB4H00879)
Spectra Averaged: 1 (USB4H00879)
Boxcar Smoothing: 0 (USB4H00879)
Correct for Electrical Dark: No (USB4H00879)
Strobe/Lamp Enabled: No (USB4H00879)
Correct for Detector Non-linearity: No (USB4H00879)
Correct for Stray Light: No (USB4H00879)
Number of Pixels in Processed Spectrum: 3648
>>>>>Begin Processed Spectral Data<<<<<
345.13	1269.74
345.34	1269.74
345.56	1269.74
345.78	1286.12
345.99	1318.89
346.21	1740.77
346.42	1683.43
346.64	1675.24
346.86	1806.31
347.07	1605.61
347.29	1683.43
347.50	1650.66
347.72	1636.33
347.94	1789.92
348.15	1503.21
348.37	1687.53
348.59	1687.53
348.80	1630.18
349.02	1812.45
349.23	1900.52
349.45	1839.08
349.67	1908.71
349.88	1816.55
350.10	1970.15
350.31	1916.90
350.53	1847.27
350.75	1937.38
350.96	1794.02
351.18	1892.32
351.39	1908.71
351.61	1718.25
351.82	1945.57
352.04	1951.71
352.26	1796.07
352.47	1949.67
352.69	1892.32
352.90	1757.16
353.12	1857.51
353.34	1806.31
353.55	1931.23
353.77	1912.80
353.98	1847.27
354.20	1847.27
354.41	1927.14
354.63	1941.47
354.85	2054.11
355.06	1906.66
355.28	1875.94
355.49	1953.76
355.71	1982.43
355.92	1894.37
356.14	1964.00
356.35	1875.94
356.57	1839.08
356.79	1918.95
357.00	1908.71
357.22	2002.91
357.43	1869.80
357.65	1955.81
357.86	1875.94
358.08	1859.56
358.29	1996.77
358.51	2023.39
358.72	1929.19
358.94	1978.34
359.16	1990.63
359.37	1931.23
359.59	1904.61
359.80	1990.63
360.02	1959.91
360.23	1914.85
360.45	2076.64
360.66	1880.04
360.88	1873.89
361.09	2017.25
361.31	1941.47
361.52	1900.52
361.74	1992.67
361.95	2072.54
362.17	1935.33
362.38	2047.97
362.60	1968.10
362.81	1980.39
363.03	1953.76
363.24	1988.58
363.46	2060.26
363.67	2035.68
363.89	1976.29
364.10	2031.58
364.32	1970.15
364.53	2084.83
364.75	1933.28
364.96	2068.45
365.18	2090.98
365.39	1970.15
365.61	2007.01
365.82	2222.05
366.04	2013.15
366.25	1982.43
366.47	2064.35
366.68	2045.92
366.90	1953.76
367.11	2131.94
367.33	2138.08
367.54	2078.69
367.76	1964.00
367.97	2019.30
368.19	2054.11
368.40	2088.93
368.62	2021.35
368.83	2093.02
369.05	2095.07
369.26	2031.58
369.48	1945.57
369.69	1980.39
369.91	2117.60
370.12	2068.45
370.33	2088.93
370.55	1933.28
370.76	1947.62
370.98	2164.70
371.19	2013.15
371.41	2068.45
371.62	2045.92
371.84	2021.35
372.05	2197.47
372.27	2070.50
372.48	2021.35
372.69	2156.51
372.91	2131.94
373.12	2136.03
373.34	2019.30
373.55	2150.37
373.77	2131.94
373.98	2191.33
374.20	2093.02
374.41	2244.57
374.62	2162.66
374.84	2172.89
375.05	2189.28
375.27	2183.13
375.48	2205.66
375.70	2162.66
375.91	2195.42
376.12	2383.84
376.34	2189.28
376.55	2217.95
376.77	2246.62
376.98	2076.64
377.19	2248.67
377.41	2113.50
377.62	2201.57
377.84	2203.61
378.05	2420.70
378.27	2197.47
378.48	2273.25
378.69	2361.31
378.91	2293.72
379.12	2336.73
379.34	2170.85
379.55	2312.16
379.76	2328.54
379.98	2342.88
380.19	2326.49
380.41	2269.15
380.62	2404.32
380.83	2248.67
381.05	2222.05
381.26	2379.74
381.47	2289.63
381.69	2271.20
381.90	2420.70
382.12	2330.59
382.33	2361.31
382.54	2299.87
382.76	2271.20
382.97	2351.07
383.19	2244.57
383.40	2408.41
383.61	2326.49
383.83	2215.90
384.04	2287.58
384.25	2369.50
384.47	2437.08
384.68	2473.95
384.89	2332.64
385.11	2357.21
385.32	2285.53
385.54	2371.55
385.75	2365.40
385.96	2459.61
386.18	2459.61
386.39	2473.95
386.60	2318.30
386.82	2342.88
387.03	2389.98
387.24	2502.62
387.46	2426.84
387.67	2478.04
387.88	2572.25
388.10	2486.23
388.31	2432.99
388.52	2453.47
388.74	2523.10
388.95	2461.66
389.16	2523.10
389.38	2437.08
389.59	2623.45
389.80	2584.54
390.02	2527.19
390.23	2680.79
390.44	2557.91
390.66	2574.30
390.87	2451.42
391.08	2613.21
391.30	2619.35
391.51	2748.37
391.72	2668.50
391.94	2648.02
392.15	2625.50
392.36	2602.97
392.58	2519.00
392.79	2691.03
393.00	2693.08
393.22	2762.71
393.43	2785.24
393.64	2826.20
393.85	2723.80
394.07	2703.32
394.28	2697.17
394.49	2721.75
394.71	2813.91
394.92	2883.54
395.13	2693.08
395.35	2764.76
395.56	2801.62
395.77	2856.92
395.98	2797.53
396.20	2973.65
396.41	2899.92
396.62	2865.11
396.84	2844.63
397.05	2807.77
397.26	2893.78
397.47	2947.03
397.69	2885.59
397.90	3049.43
398.11	2998.23
398.32	2891.73
398.54	2885.59
398.75	2981.84
398.96	2891.73
399.18	3125.20
399.39	2967.51
399.60	3186.64
399.81	3026.90
400.03	3008.47
400.24	3180.50
400.45	2885.59
400.66	3104.72
400.88	2983.89
401.09	3217.36
401.30	3149.78
401.51	3151.82
401.73	3186.64
401.94	3211.22
402.15	3143.63
402.36	3248.08
402.58	3237.84
402.79	3203.02
403.00	3129.30
403.21	3213.26
403.43	3211.22
403.64	3248.08
403.85	3170.26
404.06	3282.89
404.27	3114.96
404.49	3286.99
404.70	3209.17
404.91	3270.61
405.12	3280.85
405.34	3334.09
405.55	3358.67
405.76	3205.07
405.97	3276.75
406.19	3444.68
406.40	3270.61
406.61	3387.34
406.82	3393.48
407.03	3268.56
407.25	3346.38
407.46	3368.91
407.67	3360.72
407.88	3592.14
408.09	3256.27
408.31	3403.72
408.52	3463.12
408.73	3461.07
408.94	3403.72
409.15	3350.48
409.37	3489.74
409.58	3491.79
409.79	3522.51
410.00	3522.51
410.21	3452.88
410.43	3542.99
410.64	3491.79
410.85	3600.33
411.06	3520.46
411.27	3563.47
411.48	3719.11
411.70	3604.42
411.91	3596.23
412.12	3717.06
412.33	3575.75
412.54	3669.96
412.76	3792.84
412.97	3657.67
413.18	3665.86
413.39	3663.82
413.60	3643.34
413.81	3614.66
414.03	3721.16
414.24	3665.86
414.45	3921.86
414.66	3624.90
414.87	3846.09
415.08	3772.36
415.30	3729.35
415.51	3811.27
415.72	3831.75
415.93	3762.12
416.14	3790.79
416.35	3823.56
416.56	3778.50
416.78	3823.56
416.99	3737.54
417.20	3870.66
417.41	3837.89
417.62	3948.48
417.83	3946.44
418.04	3911.62
418.26	4120.51
418.47	3917.76
418.68	3921.86
418.89	3921.86
419.10	4140.99
419.31	4097.99
419.52	4104.13
419.73	4143.04
419.95	4190.14
420.16	3938.24
420.37	4026.31
420.58	4061.12
420.79	3938.24
421.00	4157.38
421.21	4220.86
421.42	4106.18
421.63	4188.10
421.85	4136.90
422.06	4222.91
422.27	4214.72
422.48	4298.69
422.69	4149.18
422.90	4329.41
423.11	4231.10
423.32	4253.63
423.53	4407.23
423.75	4403.13
423.96	4495.29
424.17	4542.39
424.38	4636.60
424.59	4431.80
424.80	4671.42
425.01	4509.63
425.22	4478.91
425.43	4526.01
425.64	4687.80
425.85	4767.67
426.06	4712.38
426.28	4616.12
426.49	4431.80
426.70	4591.55
426.91	4609.98
427.12	4665.27
427.33	4687.80
427.54	4636.60
427.75	4640.70
427.96	4839.35
428.17	4859.83
428.38	4784.06
428.59	5048.24
428.80	4814.77
429.01	4904.89
429.23	4884.41
429.44	5126.07
429.65	4941.75
429.86	5042.10
430.07	4857.78
430.28	4925.36
430.49	4968.37
430.70	5113.78
430.91	5103.54
431.12	5048.24
431.33	5111.73
431.54	5250.99
431.75	5070.77
431.96	5085.11
432.17	5124.02
432.38	5160.88
432.59	5433.26
432.80	5128.11
433.01	5158.83
433.22	5357.49
433.43	5513.13
433.64	5439.40
433.85	5185.46
434.06	5349.29
434.27	5398.45
434.49	5396.40
434.70	5502.89
434.91	5386.16
435.12	5484.46
435.33	5476.27
435.54	5572.52
435.75	5357.49
435.96	5488.56
436.17	5353.39
436.38	5441.45
436.59	5656.49
436.80	5513.13
437.01	5887.91
437.22	5781.42
437.43	5730.22
437.64	5324.72
437.85	5824.42
438.06	5801.90
438.27	5740.46
438.48	5846.95
438.69	6004.64
438.90	5803.94
439.11	5836.71
439.32	5963.68
439.53	5818.28
439.74	5945.25
439.95	5900.20
440.16	5918.63
440.37	6094.76
440.57	5791.66
440.78	5941.16
440.99	6012.84
441.20	6209.44
441.41	5871.53
441.62	6012.84
441.83	5996.45
442.04	6213.54
442.25	6045.60
442.46	6021.03
442.67	6358.94
442.88	6545.31
443.09	6051.75
443.30	6242.21
443.51	6231.97
443.72	6393.76
443.93	6199.20
444.14	6516.64
444.35	6121.38
444.56	6463.39
444.77	6283.17
444.98	6393.76
445.19	6500.25
445.40	6533.02
445.61	6485.92
445.81	6580.12
446.02	6524.83
446.23	6623.13
446.44	6322.08
446.65	6533.02
446.86	6645.66
447.07	6659.99
447.28	6844.31
447.49	6752.15
447.70	6713.24
447.91	6815.64
448.12	6746.01
448.33	6823.83
448.54	6795.16
448.74	6918.04
448.95	6872.98
449.16	6795.16
449.37	7180.18
449.58	6840.22
449.79	7110.55
450.00	6905.75
450.21	6903.70
450.42	7317.39
450.63	7157.65
450.84	7061.40
451.05	7108.50
451.25	7032.72
451.46	7282.58
451.67	7352.21
451.88	7462.80
452.09	7165.84
452.30	7231.38
452.51	7499.66
452.72	7442.32
452.93	7686.03
453.13	7350.16
453.34	7315.34
453.55	7407.50
453.76	7401.36
453.97	7876.49
454.18	7528.33
454.39	7638.92
454.60	7579.53
454.81	7585.68
455.01	7896.97
455.22	7470.99
455.43	7804.81
455.64	7995.27
455.85	7884.68
456.06	8040.33
456.27	7939.97
456.48	7858.06
456.68	7925.64
456.89	8056.71
457.10	8122.24
457.31	8093.57
457.52	8013.70
457.73	8161.16
457.94	8261.51
458.14	8011.65
458.35	8460.16
458.56	8267.65
458.77	8159.11
458.98	8527.74
459.19	8476.54
459.39	8540.03
459.60	8566.65
459.81	8343.42
460.02	8882.04
460.23	8736.63
460.44	8925.05
460.65	8722.30
460.85	8830.84
461.06	8861.56
461.27	8603.52
461.48	9146.23
461.69	9181.04
461.89	8789.88
462.10	8832.89
462.31	8959.86
462.52	9074.55
462.73	9068.41
462.94	9222.00
463.14	9344.88
463.35	9084.79
463.56	9615.21
463.77	9488.24
463.98	9398.13
464.18	9410.42
464.39	9731.95
464.60	9817.96
464.81	9521.01
465.02	9662.32
465.23	9828.20
465.43	9766.76
465.64	9942.89
465.85	9867.11
466.06	9697.13
466.27	10205.03
466.47	10045.29
466.68	10166.12
466.89	10131.30
467.10	10200.93
467.30	9895.78
467.51	10440.54
467.72	10575.71
467.93	10250.08
468.14	10569.57
468.34	10710.88
468.55	10497.89
468.76	10616.67
468.97	10393.44
469.17	10678.11
469.38	10876.76
469.59	10956.63
469.80	10864.47
470.01	11136.85
470.21	11167.57
470.42	11321.17
470.63	11128.66
470.84	11151.19
471.04	11540.30
471.25	11398.99
471.46	11233.11
471.67	11675.47
471.87	11593.55
472.08	11732.81
472.29	11921.23
472.50	11372.37
472.70	11790.16
472.91	11997.00
473.12	11923.27
473.33	12089.16
473.53	12212.04
473.74	12009.29
473.95	12289.86
474.16	12654.40
474.36	12508.99
474.57	12558.14
474.78	12738.37
474.99	12332.87
475.19	12791.61
475.40	13045.56
475.61	13107.00
475.81	13307.70
476.02	13449.01
476.23	13201.21
476.44	13301.56
476.64	13512.50
476.85	13649.71
477.06	13555.51
477.27	13791.02
477.47	13852.46
477.68	13870.89
477.89	14116.65
478.09	13684.53
478.30	14040.87
478.51	14221.10
478.71	14358.31
478.92	14589.73
479.13	14438.18
479.34	14487.33
479.54	14505.76
479.75	14698.27
479.96	14790.43
480.16	14743.33
480.37	15042.33
480.58	14991.13
480.78	15197.98
480.99	15181.59
481.20	15478.55
481.41	15550.23
481.61	15648.53
481.82	15888.14
482.03	15722.26
482.23	15601.43
482.44	16049.93
482.65	16230.15
482.85	16117.51
483.06	15974.16
483.27	16219.91
483.47	16281.35
483.68	16498.44
483.89	16465.67
484.09	16449.28
484.30	16809.73
484.51	16838.40
484.71	16975.61
484.92	16703.23
485.13	17143.55
485.33	17172.22
485.54	17141.50
485.75	17493.75
485.95	17428.21
486.16	17397.49
486.37	17489.65
486.57	17698.55
486.78	17532.66
486.98	18058.99
487.19	17917.68
487.40	18024.17
487.60	17966.83
487.81	18310.89
488.02	18185.96
488.22	18376.42
488.43	18519.78
488.64	18812.64
488.84	18736.87
489.05	18929.38
489.25	18716.39
489.46	19109.60
489.67	19001.05
489.87	19494.61
490.08	19275.48
490.29	19185.37
490.49	19947.22
490.70	19818.19
490.90	19609.30
491.11	19693.27
491.32	19734.23
491.52	19656.40
491.73	19951.31
491.94	20010.70
492.14	20043.47
492.35	20090.57
492.55	20485.83
492.76	20211.40
492.97	20707.01
493.17	20647.62
493.38	20502.22
493.58	20905.66
493.79	21096.13
494.00	20917.95
494.20	20922.05
494.41	21083.84
494.61	21487.29
494.82	21274.30
495.02	21374.65
495.23	21518.01
495.44	21714.61
495.64	21618.36
495.85	21948.08
496.05	21706.42
496.26	21935.79
496.47	22173.36
496.67	22304.43
496.88	22374.06
497.08	21995.18
497.29	22095.53
497.49	22324.91
497.70	22388.39
497.91	22525.61
498.11	22650.53
498.32	22904.48
498.52	22953.63
498.73	23383.71
498.93	22947.49
499.14	22914.72
499.34	23103.14
499.55	23338.65
499.76	23402.14
499.96	23187.10
500.17	23467.67
500.37	23451.29
500.58	23799.44
500.78	23748.25
500.99	23615.13
501.19	24000.15
501.40	23862.93
501.60	23588.50
501.81	24092.30
502.02	24043.15
502.22	23828.12
502.43	23957.14
502.63	24432.27
502.84	24331.92
503.04	24493.71
503.25	24161.94
503.45	24628.87
503.66	24913.54
503.86	24794.76
504.07	24811.14
504.27	24538.76
504.48	25198.21
504.68	25028.23
504.89	25138.82
505.09	25249.41
505.30	24905.35
505.50	25337.47
505.71	25435.77
505.91	25425.53
506.12	25220.74
506.32	25507.45
506.53	25464.44
506.73	25525.88
506.94	25529.98
507.14	25734.78
507.35	25611.90
507.55	26082.93
507.76	25677.43
507.96	25945.72
508.17	26076.79
508.37	26388.08
508.58	26263.15
508.78	26019.44
508.99	26457.71
509.19	26265.20
509.40	26584.68
509.60	26232.43
509.81	26504.81
510.01	26406.51
510.22	26406.51
510.42	26781.29
510.63	27012.71
510.83	27104.87
511.04	26654.31
511.24	27442.78
511.44	27006.56
511.65	27158.11
511.85	27096.67
512.06	27301.47
512.26	27156.07
512.47	27504.22
512.67	27571.80
512.88	27369.05
513.08	27371.10
513.29	27571.80
513.49	27147.87
513.69	27375.20
513.90	27919.96
514.10	27733.59
514.31	27743.83
514.51	28091.99
514.72	27903.57
514.92	28079.70
515.13	27803.22
515.33	28044.88
515.53	28042.84
515.74	28204.63
515.94	28460.62
516.15	28294.74
516.35	28233.30
516.56	28417.61
516.76	28110.42
516.96	28364.37
517.17	28485.20
517.37	28628.56
517.58	28470.86
517.78	28878.41
517.99	28878.41
518.19	28753.48
518.39	28952.13
518.60	29128.26
518.80	28849.74
519.01	29228.61
519.21	29365.82
519.41	29044.29
519.62	29353.54
519.82	29531.71
520.03	29580.86
520.23	29640.25
520.43	29226.56
520.64	30068.28
520.84	29865.53
521.05	29961.78
521.25	29793.85
521.45	30246.45
521.66	30154.29
521.86	30142.00
522.07	30121.52
522.27	29988.41
522.47	30207.54
522.68	30406.19
522.88	30354.99
523.08	30641.71
523.29	30430.77
523.49	30934.57
523.70	30832.17
523.90	31036.97
524.10	30766.63
524.31	31137.32
524.51	30973.48
524.71	31405.60
524.92	31061.54
525.12	31290.91
525.33	31516.19
525.53	31561.25
525.73	31837.72
525.94	31852.06
526.14	31417.89
526.34	31663.64
526.55	31913.50
526.75	31671.84
526.95	32149.01
527.16	31866.39
527.36	32230.93
527.56	32224.79
527.77	32325.14
527.97	32519.70
528.17	32747.02
528.38	32525.84
528.58	32597.52
528.78	32701.96
528.99	32628.24
529.19	32706.06
529.39	32790.03
529.60	33299.97
529.80	33164.81
530.00	33441.28
530.21	33164.81
530.41	33570.30
530.61	33347.08
530.82	33428.99
531.02	33650.17
531.22	33566.21
531.43	33947.13
531.63	33920.51
531.83	34375.16
532.04	34444.79
532.24	33961.47
532.44	34510.32
532.64	34711.02
532.85	34735.60
533.05	34653.68
533.25	34534.90
533.46	34563.57
533.66	35077.61
533.86	34887.15
534.07	35427.81
534.27	34950.63
534.47	35579.36
534.67	35452.39
534.88	35452.39
535.08	35552.74
535.28	35562.98
535.49	36181.46
535.69	35898.84
535.89	35943.90
536.09	35970.52
536.30	36177.37
536.50	36060.63
536.70	36255.19
536.91	36214.23
537.11	36591.06
537.31	36548.05
537.51	36523.47
537.72	36967.88
537.92	36996.56
538.12	36969.93
538.32	36853.20
538.53	36836.81
538.73	37328.33
538.93	36873.68
539.13	37320.13
539.34	37187.02
539.54	37180.87
539.74	37586.37
539.94	37324.23
540.15	37418.44
540.35	37498.31
540.55	37545.41
540.75	37737.92
540.96	37457.35
541.16	37918.14
541.36	38124.99
541.56	37725.63
541.77	38401.46
541.97	38280.63
542.17	38421.94
542.37	38458.81
542.58	38254.01
542.78	38376.89
542.98	38397.37
543.18	38561.20
543.38	38761.90
543.59	38931.89
543.79	38432.18
543.99	38729.14
544.19	38966.70
544.40	38598.07
544.60	39226.79
544.80	39142.83
545.00	39308.71
545.20	39605.67
545.41	39366.06
545.61	39464.36
545.81	39624.10
546.01	39757.22
546.21	39687.59
546.42	39204.27
546.62	39706.02
546.82	39499.17
547.02	39636.39
547.22	39785.89
547.43	40205.72
547.63	40060.32
547.83	39771.55
548.03	39804.32
548.23	40228.25
548.44	40267.16
548.64	40207.77
548.84	40142.24
549.04	40265.11
549.24	40535.45
549.45	40908.18
549.65	40338.84
549.85	40500.63
550.05	40789.39
550.25	40562.07
550.45	41291.15
550.66	40603.03
550.86	40367.51
551.06	40951.18
551.26	41100.68
551.46	41182.60
551.66	41065.87
551.87	40865.17
552.07	40959.38
552.27	41127.31
552.47	41655.68
552.67	41524.61
552.87	41520.52
553.07	41878.91
553.28	41639.30
553.48	41829.76
553.68	41317.77
553.88	41743.75
554.08	42003.84
554.28	41563.53
554.48	41717.12
554.69	42083.71
554.89	41932.16
555.09	41541.00
555.29	41819.52
555.49	41926.02
555.69	42298.75
555.89	42179.96
556.10	42415.48
556.30	41801.09
556.50	42184.06
556.70	42038.65
556.90	42489.21
557.10	42425.72
557.30	42036.61
557.50	42812.79
557.70	42468.73
557.91	42759.54
558.11	42417.53
558.31	42966.38
558.51	42503.54
558.71	42610.04
558.91	43169.13
559.11	42724.72
559.31	42556.79
559.51	42538.36
559.72	42669.43
559.92	43185.52
560.12	42804.59
560.32	43218.28
560.52	42853.75
560.72	42915.19
560.92	42845.55
561.12	43072.88
561.32	43085.17
561.52	43126.13
561.72	43255.15
561.93	43267.44
562.13	43130.22
562.33	43165.04
562.53	44125.53
562.73	43332.97
562.93	43320.68
563.13	43396.46
563.33	43238.76
563.53	43957.60
563.73	43513.19
563.93	43119.98
564.13	43955.55
564.33	44033.38
564.53	43822.44
564.74	44078.43
564.94	43980.13
565.14	43881.83
565.34	43832.68
565.54	44014.94
565.74	43763.04
565.94	44518.74
566.14	44053.86
566.34	43933.03
566.54	44432.73
566.74	43939.17
566.94	44483.93
567.14	44512.60
567.34	44178.78
567.54	44248.41
567.74	44561.75
567.94	44150.11
568.14	44641.62
568.34	44891.48
568.54	44809.56
568.74	44684.63
568.94	44479.83
569.14	44961.11
569.34	44881.24
569.54	45047.12
569.75	44479.83
569.95	44696.92
570.15	45161.81
570.35	45141.33
570.55	45311.31
570.75	44766.55
570.95	45241.68
571.15	45178.19
571.35	45040.98
571.55	45290.83
571.75	45247.82
571.95	45258.06
572.15	45133.14
572.35	45360.46
572.55	45364.56
572.75	45632.84
572.95	45452.62
573.15	45733.19
573.35	45591.88
573.55	45374.80
573.75	45550.92
573.95	45860.16
574.15	45471.05
574.35	46019.91
574.55	45778.25
574.75	45628.74
574.95	45870.40
575.15	45712.71
575.34	45905.22
575.54	46196.03
575.74	46200.13
575.94	46490.94
576.14	46228.80
576.34	46753.08
576.54	46800.18
576.74	46441.79
576.94	46517.56
577.14	46613.82
577.34	47017.27
577.54	46259.52
577.74	46535.99
577.94	46699.83
578.14	46740.79
578.34	47252.78
578.54	46574.91
578.74	47138.10
578.94	47195.44
579.14	46587.19
579.34	46818.61
579.54	46632.25
579.74	46968.12
579.94	47207.73
580.13	47609.13
580.33	47197.49
580.53	47932.71
580.73	47723.82
580.93	47236.40
581.13	47875.37
581.33	47682.86
581.53	47725.86
581.73	47682.86
581.93	47828.26
582.13	48063.78
582.33	48143.65
582.53	48018.72
582.73	48141.60
582.92	47940.90
583.12	48362.78
583.32	48182.56
583.52	47904.04
583.72	48102.69
583.92	48123.17
584.12	48452.89
584.32	48788.76
584.52	48411.93
584.72	48366.88
584.92	48698.65
585.11	49329.42
585.31	49169.68
585.51	48751.90
585.71	48729.37
585.91	49446.16
586.11	48774.42
586.31	48821.53
586.51	48993.56
586.71	49151.25
586.91	49505.55
587.10	49411.34
587.30	49028.37
587.50	48891.16
587.70	49716.49
587.90	49556.75
588.10	49337.62
588.30	49337.62
588.50	49882.37
588.69	49693.96
588.89	49622.28
589.09	49718.54
589.29	49870.09
589.49	50083.08
589.69	49310.99
589.89	50081.03
590.08	49782.02
590.28	50345.22
590.48	50058.50
590.68	50320.64
590.88	50158.85
591.08	50187.52
591.28	49739.02
591.47	50140.42
591.67	50162.95
591.87	50453.76
592.07	50681.08
592.27	50283.78
592.47	50189.57
592.67	50457.85
592.86	50535.68
593.06	50656.51
593.26	51193.07
593.46	50590.97
593.66	50758.91
593.86	50957.56
594.05	50597.12
594.25	51062.00
594.45	50930.93
594.65	50877.69
594.85	51277.04
595.05	51328.24
595.24	51272.95
595.44	51385.58
595.64	51037.43
595.84	50541.82
596.04	51057.91
596.23	51234.03
596.43	51574.00
596.63	51289.33
596.83	51594.48
597.03	51922.15
597.22	52264.16
597.42	51948.78
597.62	52049.13
597.82	51614.96
598.02	52174.05
598.21	51891.43
598.41	51602.67
598.61	51926.25
598.81	51893.48
599.01	52511.97
599.20	52032.74
599.40	51401.97
599.60	52065.51
599.80	52440.29
600.00	52212.96
600.19	52286.69
600.39	52061.41
600.59	52604.13
600.79	52638.94
600.98	52511.97
601.18	52700.38
601.38	53261.52
601.58	53417.17
601.78	52468.96
601.97	52835.55
602.17	53398.74
602.37	52929.75
602.57	53169.36
602.76	53472.46
602.96	52782.30
603.16	53300.43
603.36	53097.69
603.55	53292.24
603.75	53095.64
603.95	53554.38
604.15	53679.31
604.34	53316.82
604.54	53337.30
604.74	53957.83
604.94	53855.43
605.13	53517.52
605.33	53869.77
605.53	53769.42
605.73	54265.03
605.92	53843.15
606.12	54416.58
606.32	54244.55
606.52	53867.72
606.71	54039.75
606.91	54027.46
607.11	54293.70
607.30	53832.91
607.50	54310.08
607.70	54330.56
607.90	54047.94
608.09	54199.49
608.29	54342.85
608.49	54756.54
608.68	54543.55
608.88	54781.12
609.08	54510.78
609.28	55039.16
609.47	54461.63
609.67	55047.35
609.87	54172.87
610.06	54645.95
610.26	54883.51
610.46	55018.68
610.66	54871.23
610.85	54944.95
611.05	54486.21
611.25	55575.73
611.44	54686.91
611.64	55186.61
611.84	54695.10
612.03	54903.99
612.23	54809.79
612.43	55458.99
612.62	54680.77
612.82	55436.47
613.02	55002.30
613.21	55313.59
613.41	54918.33
613.61	55108.79
613.80	54854.84
614.00	55186.61
614.20	55215.29
614.39	55469.23
614.59	55196.85
614.79	55506.10
614.98	54903.99
615.18	55135.41
615.38	55096.50
615.57	55127.22
615.77	55108.79
615.97	55473.33
616.16	55256.24
616.36	55338.16
616.56	55284.92
616.75	55540.91
616.95	55403.70
617.15	55518.38
617.34	55370.93
617.54	54951.10
617.74	55749.81
617.93	54981.82
618.13	55002.30
618.32	55260.34
618.52	55166.13
618.72	55186.61
618.91	55473.33
619.11	55174.33
619.31	55028.92
619.50	55186.61
619.70	54486.21
619.90	55420.08
620.09	55448.75
620.29	55272.63
620.48	55016.63
620.68	55700.65
620.88	55131.32
621.07	54975.67
621.27	55139.51
621.46	54936.76
621.66	55192.76
621.86	55153.85
622.05	55563.44
622.25	55456.95
622.44	55100.60
622.64	54856.89
622.84	55194.81
623.03	55219.38
623.23	55520.43
623.42	55452.85
623.62	55604.40
623.82	55411.89
624.01	55155.89
624.21	55098.55
624.40	55116.98
624.60	55127.22
624.80	55207.09
624.99	55239.86
625.19	54715.58
625.38	55493.81
625.58	55669.93
625.77	55317.68
625.97	55438.51
626.17	55289.01
626.36	55383.22
626.56	55346.36
626.75	54547.65
626.95	55047.35
627.14	55252.15
627.34	55377.08
627.54	55289.01
627.73	55542.96
627.93	55246.00
628.12	54772.92
628.32	55317.68
628.51	55094.46
628.71	55432.37
628.90	55276.72
629.10	55008.44
629.30	55442.61
629.49	55102.65
629.69	54721.72
629.88	55215.29
630.08	55407.79
630.27	55637.17
630.47	55522.48
630.66	55368.88
630.86	55526.58
631.05	55213.24
631.25	55895.21
631.44	55657.65
631.64	55229.62
631.84	55579.82
632.03	55415.99
632.23	55426.23
632.42	55674.03
632.62	55313.59
632.81	54867.13
633.01	55915.69
633.20	55719.09
633.40	55538.86
633.59	55415.99
633.79	54951.10
633.98	55844.01
634.18	55596.21
634.37	55633.07
634.57	55131.32
634.76	55811.24
634.96	55604.40
635.15	55565.49
635.35	55532.72
635.54	54998.20
635.74	55592.11
635.93	55483.57
636.13	55899.31
636.32	55899.31
636.52	55243.96
636.71	55207.09
636.91	55571.63
637.10	55702.70
637.30	55305.40
637.49	55291.06
637.69	55309.49
637.88	55669.93
638.08	55477.43
638.27	55817.39
638.46	55567.54
638.66	55377.08
638.85	56048.81
639.05	55735.47
639.24	55786.67
639.44	55473.33
639.63	55792.81
639.83	55891.12
640.02	55844.01
640.22	55729.33
640.41	56093.86
640.61	55415.99
640.80	56016.04
640.99	55678.13
641.19	56358.05
641.38	55477.43
641.58	55495.86
641.77	55446.71
641.97	55213.24
642.16	55567.54
642.36	55997.61
642.55	56239.27
642.74	55276.72
642.94	56165.54
643.13	55858.35
643.33	55917.74
643.52	55846.06
643.72	56564.90
643.91	56063.14
644.10	55979.18
644.30	55993.51
644.49	56120.49
644.69	55997.61
644.88	55956.65
645.08	55803.05
645.27	55565.49
645.46	55735.47
645.66	56253.61
645.85	56153.26
646.05	56026.28
646.24	56173.73
646.43	56421.54
646.63	56575.14
646.82	56136.87
647.02	56229.03
647.21	56226.98
647.40	56224.93
647.60	56267.94
647.79	56310.95
647.99	56542.37
648.18	56112.30
648.37	56626.34
648.57	56792.22
648.76	56415.40
648.96	55876.78
649.15	56966.30
649.34	56550.56
649.54	56775.84
649.73	56235.17
649.92	56929.44
650.12	56284.33
650.31	56638.62
650.51	56620.19
650.70	56818.84
650.89	56233.13
651.09	56788.13
651.28	56736.93
651.47	56865.95
651.67	56638.62
651.86	57132.18
652.06	56214.69
652.25	56601.76
652.44	56267.94
652.64	56444.07
652.83	56546.47
653.02	56206.50
653.22	56693.92
653.41	56351.91
653.60	56331.43
653.80	56808.61
653.99	56890.52
654.18	56296.61
654.38	57070.75
654.57	56831.13
654.76	56388.77
654.96	56642.72
655.15	55973.03
655.34	56337.57
655.54	56308.90
655.73	56550.56
655.92	57181.34
656.12	57054.36
656.31	56835.23
656.50	56698.01
656.70	56612.00
656.89	56546.47
657.08	56988.83
657.28	56759.45
657.47	56802.46
657.66	56882.33
657.86	56317.09
658.05	56767.65
658.24	56984.73
658.43	56421.54
658.63	57205.91
658.82	56980.63
659.01	57095.32
659.21	57324.69
659.40	56738.97
659.59	56685.73
659.79	57410.71
659.98	57009.31
660.17	57212.06
660.36	57058.46
660.56	56951.96
660.75	57382.04
660.94	57330.84
661.14	57193.62
661.33	56808.61
661.52	56751.26
661.71	57177.24
661.91	56822.94
662.10	57019.55
662.29	56904.86
662.49	56890.52
662.68	56616.10
662.87	57259.16
663.06	56980.63
663.26	56616.10
663.45	57382.04
663.64	56669.34
663.83	57474.20
664.03	56759.45
664.22	57128.09
664.41	56911.00
664.60	56947.87
664.80	56945.82
664.99	56788.13
665.18	57093.27
665.37	56874.14
665.57	57283.73
665.76	57203.86
665.95	57320.60
666.14	57328.79
666.34	57248.92
666.53	56753.31
666.72	56927.39
666.91	57033.88
667.11	56874.14
667.30	57054.36
667.49	56618.14
667.68	56853.66
667.87	56765.60
668.07	56937.63
668.26	56337.57
668.45	56835.23
668.64	56712.35
668.84	57226.39
669.03	57382.04
669.22	56734.88
669.41	56845.47
669.60	57013.40
669.80	57238.68
669.99	57212.06
670.18	56812.70
670.37	56753.31
670.57	56933.53
670.76	56732.83
670.95	57056.41
671.14	57029.79
671.33	56845.47
671.53	57234.58
671.72	57386.13
671.91	57003.16
672.10	56665.25
672.29	56892.57
672.48	57160.86
672.68	57238.68
672.87	56804.51
673.06	57119.90
673.25	56698.01
673.44	57005.21
673.64	56573.09
673.83	55925.93
674.02	56573.09
674.21	56067.24
674.40	56896.67
674.59	56042.66
674.79	56597.66
674.98	56458.40
675.17	56403.11
675.36	56603.81
675.55	56530.08
675.74	56108.20
675.94	56403.11
676.13	56607.90
676.32	56579.23
676.51	57158.81
676.70	56495.27
676.89	56706.21
677.08	56982.68
677.28	56777.89
677.47	56980.63
677.66	57058.46
677.85	56743.07
678.04	57179.29
678.23	56888.48
678.42	57115.80
678.62	56734.88
678.81	56761.50
679.00	56202.41
679.19	56714.40
679.38	56847.52
679.57	56808.61
679.76	56525.99
679.96	57279.64
680.15	56202.41
680.34	56640.67
680.53	56362.15
680.72	56767.65
680.91	56644.77
681.10	56173.73
681.29	56509.60
681.48	56267.94
681.68	56102.06
681.87	56491.17
682.06	56186.02
682.25	56247.46
682.44	56472.74
682.63	56435.87
682.82	56034.47
683.01	55813.29
683.20	55858.35
683.39	56046.76
683.59	56255.65
683.78	56059.05
683.97	56235.17
684.16	56108.20
684.35	56057.00
684.54	56095.91
684.73	56050.86
684.92	55952.55
685.11	55927.98
685.30	55766.19
685.49	56050.86
685.69	55694.51
685.88	55813.29
686.07	55815.34
686.26	55555.25
686.45	56038.57
686.64	56231.08
686.83	55872.68
687.02	56079.53
687.21	56009.90
687.40	55923.88
687.59	55919.79
687.78	56210.60
687.97	56237.22
688.16	55540.91
688.35	55608.50
688.54	55866.54
688.74	55919.79
688.93	55764.14
689.12	55942.31
689.31	55807.15
689.50	55891.12
689.69	55565.49
689.88	55268.53
690.07	55817.39
690.26	55377.08
690.45	55985.32
690.64	55407.79
690.83	55264.44
691.02	55051.45
691.21	55475.38
691.40	55141.56
691.59	55485.62
691.78	55356.60
691.97	55866.54
692.16	55248.05
692.35	55628.98
692.54	55463.09
692.73	55286.96
692.92	55344.31
693.11	55149.75
693.30	55340.21
693.49	55268.53
693.68	55315.64
693.87	54957.24
694.06	54648.00
694.25	54770.88
694.44	54750.40
694.63	55186.61
694.82	55131.32
695.01	55368.88
695.20	55047.35
695.39	54949.05
695.58	55205.05
695.77	54981.82
695.96	54555.84
696.15	54897.85
696.34	54930.62
696.53	54836.41
696.72	54891.71
696.91	54486.21
697.10	54791.36
697.29	54916.28
697.48	54523.07
697.67	54607.04
697.86	54551.74
698.05	54529.22
698.24	54635.71
698.43	54277.32
698.62	54830.27
698.81	54164.68
699.00	54965.43
699.19	54064.33
699.38	54768.83
699.57	54392.00
699.76	55069.88
699.95	54512.83
700.14	54201.54
700.32	54502.59
700.51	54230.21
700.70	54637.76
700.89	54822.08
701.08	54641.85
701.27	53947.59
701.46	54217.92
701.65	53687.50
701.84	54275.27
702.03	54355.14
702.22	54002.89
702.41	54176.97
702.60	54179.01
702.79	53849.29
702.98	53949.64
703.17	53941.45
703.35	54052.04
703.54	53822.67
703.73	53589.20
703.92	53877.96
704.11	53877.96
704.30	53286.10
704.49	53671.12
704.68	53527.76
704.87	53834.95
705.06	53542.10
705.25	53224.66
705.43	53308.63
705.62	53523.66
705.81	54086.85
706.00	53392.59
706.19	53183.70
706.38	53583.05
706.57	53390.55
706.76	53187.80
706.95	53447.89
707.14	53138.65
707.32	53183.70
707.51	52864.22
707.70	53445.84
707.89	52819.16
708.08	53048.53
708.27	53382.35
708.46	53699.79
708.65	52862.17
708.84	53638.35
709.02	53540.05
709.21	53210.32
709.40	53087.45
709.59	53249.24
709.78	52747.48
709.97	53441.74
710.16	52860.12
710.34	52933.85
710.53	53427.41
710.72	52753.63
710.91	52815.07
711.10	53042.39
711.29	53058.77
711.48	53150.93
711.66	52782.30
711.85	52829.40
712.04	52679.90
712.23	52618.46
712.42	52571.36
712.61	52747.48
712.80	52647.13
712.98	52880.60
713.17	52428.00
713.36	52591.84
713.55	52526.30
713.74	52399.33
713.93	52391.14
714.11	52133.09
714.30	52040.93
714.49	52264.16
714.68	52143.33
714.87	52157.67
715.06	52436.19
715.24	52339.94
715.43	52194.53
715.62	51926.25
715.81	51963.11
716.00	52102.37
716.18	51332.34
716.37	51567.85
716.56	51815.66
716.75	52141.28
716.94	51582.19
717.12	51762.41
717.31	51954.92
717.50	51533.04
717.69	51578.09
717.88	51238.13
718.06	52116.71
718.25	52004.07
718.44	51389.68
718.63	51309.81
718.82	51457.26
719.00	51256.56
719.19	51084.53
719.38	50908.41
719.57	50509.05
719.76	50537.72
719.94	50423.04
720.13	50754.81
720.32	50928.89
720.51	51066.10
720.69	50722.04
720.88	50986.23
721.07	50808.06
721.26	50398.46
721.44	50674.94
721.63	50576.64
721.82	50107.65
722.01	50537.72
722.20	50490.62
722.38	50074.88
722.57	49911.05
722.76	50291.97
722.95	50033.92
723.13	49952.01
723.32	50255.11
723.51	49653.00
723.70	50052.36
723.88	49628.43
724.07	49706.25
724.26	49927.43
724.44	49691.91
724.63	49853.70
724.82	49730.83
725.01	49753.35
725.19	49896.71
725.38	49407.25
725.57	49374.48
725.76	49620.23
725.94	49190.16
726.13	49476.88
726.32	49210.64
726.51	49194.26
726.69	49902.85
726.88	49427.73
727.07	49263.89
727.25	49026.32
727.44	49313.04
727.63	48952.60
727.82	49409.29
728.00	49540.36
728.19	48960.79
728.38	49526.03
728.56	48782.62
728.75	49034.52
728.94	48618.78
729.12	49415.44
729.31	48895.25
729.50	49048.85
729.69	49272.08
729.87	49239.31
730.06	48950.55
730.25	48897.30
730.43	49440.01
730.62	48678.17
730.81	49204.50
730.99	49308.94
731.18	48866.58
731.37	49274.13
731.55	49405.20
731.74	49386.77
731.93	49261.84
732.11	49288.46
732.30	48999.70
732.49	48657.69
732.67	49300.75
732.86	48930.07
733.05	48805.14
733.23	48839.96
733.42	49177.87
733.61	48639.26
733.79	48923.93
733.98	49188.11
734.17	49063.19
734.35	49294.61
734.54	48860.44
734.73	49102.10
734.91	49198.35
735.10	48411.93
735.29	48723.22
735.47	48704.79
735.66	48743.70
735.84	48786.71
736.03	48735.51
736.22	49196.31
736.40	48930.07
736.59	48796.95
736.78	48602.39
736.96	48485.66
737.15	48401.69
737.33	48059.68
737.52	48129.31
737.71	48370.97
737.89	48133.41
738.08	48043.30
738.27	48184.61
738.45	48833.81
738.64	48299.30
738.82	48133.41
739.01	48227.62
739.20	48444.70
739.38	48270.62
739.57	48221.47
739.75	48444.70
739.94	48051.49
740.13	48239.90
740.31	48059.68
740.50	48047.39
740.68	48203.04
740.87	48067.87
741.06	48241.95
741.24	47744.30
741.43	47709.48
741.61	48006.44
741.80	47340.85
741.99	47854.89
742.17	47539.50
742.36	47861.03
742.54	47844.65
742.73	47895.85
742.91	47713.58
743.10	47629.61
743.29	47846.69
743.47	47447.34
743.66	47529.26
743.84	47750.44
744.03	47912.23
744.21	47615.27
744.40	47783.21
744.59	47521.07
744.77	47387.95
744.96	47533.35
745.14	47899.94
745.33	47699.24
745.51	47174.96
745.70	47555.88
745.88	47078.71
746.07	47637.80
746.26	47445.29
746.44	47316.27
746.63	47054.13
746.81	47168.82
747.00	47535.40
747.18	47160.62
747.37	47308.08
747.55	47066.42
747.74	47445.29
747.92	46386.49
748.11	46880.05
748.29	46865.72
748.48	46890.29
748.66	46419.26
748.85	46757.17
749.03	46660.92
749.22	46636.34
749.41	46789.94
749.59	46779.70
749.78	46564.67
749.96	46241.09
750.15	46189.89
750.33	46558.52
750.52	46771.51
750.70	46366.01
750.89	46294.33
751.07	46230.85
751.26	46269.76
751.44	46103.87
751.63	46202.18
751.81	46232.89
752.00	45917.51
752.18	46519.61
752.37	45946.18
752.55	45919.56
752.74	45993.28
752.92	45890.88
753.10	45581.64
753.29	46208.32
753.47	45610.31
753.66	45540.68
753.84	45856.07
754.03	45970.75
754.21	45260.11
754.40	45710.66
754.58	45712.71
754.77	45505.87
754.95	45350.22
755.14	45251.92
755.32	45403.47
755.51	45233.49
755.69	45229.39
755.88	45143.38
756.06	45344.08
756.24	45092.18
756.43	45006.16
756.61	45460.81
756.80	44883.28
756.98	45126.99
757.17	45280.59
757.35	45278.54
757.54	44690.77
757.72	45456.71
757.90	45028.69
758.09	45053.26
758.27	45081.94
758.46	44803.41
758.64	44766.55
758.83	44586.33
759.01	45022.54
759.19	44488.03
759.38	44807.51
759.56	45206.86
759.75	44914.00
759.93	44426.59
760.12	44502.36
760.30	44549.46
760.48	44107.10
760.67	44356.96
760.85	44664.15
761.04	44645.72
761.22	44299.61
761.40	44123.49
761.59	44340.57
761.77	43881.83
761.96	44105.06
762.14	44156.25
762.32	43660.65
762.51	44088.67
762.69	44002.66
762.88	43904.35
763.06	43517.29
763.24	43887.97
763.43	44037.47
763.61	43785.57
763.80	43548.01
763.98	43531.62
764.16	43697.51
764.35	43363.69
764.53	43203.95
764.72	43597.16
764.90	43361.64
765.08	43447.66
765.27	43384.17
765.45	43146.61
765.63	42919.28
765.82	43386.22
766.00	43326.83
766.18	43187.56
766.37	43500.90
766.55	43345.26
766.74	43201.90
766.92	43019.63
767.10	42915.19
767.29	42542.45
767.47	42532.22
767.65	42950.00
767.84	42530.17
768.02	42988.91
768.20	42169.72
768.39	43029.87
768.57	42425.72
768.75	42417.53
768.94	42573.17
769.12	42276.22
769.30	42149.24
769.49	42108.29
769.67	42050.94
769.85	41821.57
770.04	42108.29
770.22	41833.86
770.40	42145.15
770.59	41854.34
770.77	41934.21
770.95	41934.21
771.14	41411.98
771.32	41500.04
771.50	41471.37
771.69	41579.91
771.87	41850.24
772.05	41358.73
772.24	41317.77
772.42	41168.27
772.60	41112.97
772.78	41176.46
772.97	40838.54
773.15	41170.32
773.33	41545.09
773.52	41016.72
773.70	41123.21
773.88	41133.45
774.07	40785.30
774.25	41194.89
774.43	41678.21
774.61	41465.22
774.80	41260.43
774.98	41350.54
775.16	41313.67
775.34	41266.57
775.53	40756.63
775.71	41483.66
775.89	41041.29
776.08	41364.87
776.26	41254.28
776.44	41248.14
776.62	40916.37
776.81	41131.40
776.99	41375.11
777.17	41753.99
777.35	41428.36
777.54	41774.47
777.72	41190.80
777.90	41102.73
778.08	41911.68
778.27	41547.14
778.45	41694.60
778.63	41487.75
778.81	41022.86
779.00	42077.57
779.18	41821.57
779.36	41885.06
779.54	41641.35
779.73	41375.11
779.91	41848.19
780.09	41653.64
780.27	42270.08
780.46	41696.64
780.64	41801.09
780.82	42087.81
781.00	41594.25
781.19	41852.29
781.37	42108.29
781.55	41936.26
781.73	42372.47
781.91	41874.82
782.10	41563.53
782.28	42030.46
782.46	42231.16
782.64	41862.53
782.82	41698.69
783.01	42177.92
783.19	41887.10
783.37	42235.26
783.55	41723.27
783.74	42153.34
783.92	41913.73
784.10	42227.07
784.28	42231.16
784.46	41936.26
784.64	41733.51
784.83	42155.39
785.01	42065.28
785.19	42052.99
785.37	42313.08
785.55	41796.99
785.74	41633.16
785.92	41502.09
786.10	41713.03
786.28	41741.70
786.46	42188.16
786.64	41278.86
786.83	42048.89
787.01	41878.91
787.19	41485.70
787.37	41637.25
787.55	41571.72
787.74	41151.88
787.92	41743.75
788.10	41590.15
788.28	41041.29
788.46	41538.95
788.64	41440.65
788.82	41428.36
789.01	41385.35
789.19	41291.15
789.37	41387.40
789.55	41448.84
789.73	40443.29
789.91	41018.77
790.09	41022.86
790.28	40996.24
790.46	40387.99
790.64	40981.90
790.82	40682.90
791.00	40308.12
791.18	40555.93
791.36	40320.41
791.55	40101.28
791.73	40490.39
791.91	39910.82
792.09	40117.66
792.27	40211.87
792.45	39988.64
792.63	40037.79
792.81	39476.65
793.00	39591.33
793.18	39548.32
793.36	39796.13
793.54	39263.66
793.72	39321.00
793.90	39372.20
794.08	39337.38
794.26	39290.28
794.44	38741.42
794.62	38735.28
794.81	39478.69
794.99	38755.76
795.17	38716.85
795.35	38503.86
795.53	38585.78
795.71	38921.65
795.89	38901.17
796.07	38397.37
796.25	38129.08
796.43	38153.66
796.61	38049.21
796.80	38499.76
796.98	37811.65
797.16	37674.43
797.34	38041.02
797.52	37684.67
797.70	38010.30
797.88	37715.39
798.06	37510.60
798.24	37430.72
798.42	37432.77
798.60	37549.51
798.78	36881.87
798.96	37137.87
799.14	36857.29
799.32	37152.20
799.51	36662.74
799.69	37182.92
799.87	37127.63
800.05	36560.34
800.23	36529.62
800.41	36535.76
800.59	36490.71
800.77	36660.69
800.95	36130.26
801.13	35904.99
801.31	35980.76
801.49	36476.37
801.67	35909.08
801.85	35636.70
802.03	35585.50
802.21	35800.54
802.39	35872.22
802.57	35753.44
802.75	35421.67
802.93	35583.46
803.11	35335.65
803.29	35206.63
803.47	35014.12
803.65	35083.75
803.83	35188.20
804.01	35112.42
804.19	34870.76
804.37	34964.97
804.55	34778.61
804.73	34657.78
804.91	34788.85
805.09	34442.74
805.27	34711.02
805.45	34596.34
805.63	34375.16
805.81	34571.76
805.99	34395.64
806.17	34838.00
806.35	34340.34
806.53	33629.69
806.71	34045.43
806.89	33996.28
807.07	33908.22
807.25	34237.94
807.43	33662.46
807.61	33738.24
807.79	33605.12
807.97	33558.02
808.15	33730.05
808.33	33209.86
808.51	33138.18
808.69	33347.08
808.87	33046.02
809.05	32802.32
809.23	33000.97
809.41	32628.24
809.59	32851.47
809.77	33000.97
809.95	32400.91
810.13	33103.37
810.31	32396.82
810.49	32783.88
810.67	32398.87
810.84	32106.01
811.02	32353.81
811.20	32163.35
811.38	32251.41
811.56	32091.67
811.74	32017.94
811.92	31911.45
812.10	31809.05
812.28	31725.08
812.46	32001.56
812.64	32187.92
812.82	31698.46
813.00	32202.26
813.18	31622.69
813.36	32048.66
813.53	31362.59
813.71	31747.61
813.89	31477.28
814.07	31458.85
814.25	31598.11
814.43	31270.43
814.61	31360.55
814.79	31432.22
814.97	30873.13
815.15	31024.68
815.33	30854.70
815.50	30340.66
815.68	31178.28
815.86	30801.45
816.04	30537.26
816.22	30453.30
816.40	30463.54
816.58	30768.68
816.76	30422.58
816.94	30557.74
817.11	30428.72
817.29	30135.86
817.47	30072.37
817.65	30371.38
817.83	30389.81
818.01	29875.77
818.19	30174.77
818.37	30121.52
818.54	29883.96
818.72	29664.83
818.90	29969.97
819.08	29746.75
819.26	29425.22
819.44	29529.66
819.62	29666.88
819.80	29695.55
819.97	29658.68
820.15	29617.72
820.33	29435.45
820.51	29296.19
820.69	28921.41
820.87	29247.04
821.05	29277.76
821.22	29320.77
821.40	29310.53
821.58	28859.98
821.76	29032.00
821.94	29079.11
822.12	29120.07
822.29	29232.71
822.47	28591.69
822.65	28933.70
822.83	29052.48
823.01	28984.90
823.19	28397.13
823.36	28460.62
823.54	28573.26
823.72	28577.36
823.90	28769.86
824.08	28339.79
824.25	28440.14
824.43	28331.60
824.61	28247.63
824.79	28489.29
824.97	28065.36
825.15	28366.42
825.32	28161.62
825.50	27962.97
825.68	28112.47
825.86	28434.00
826.04	28214.87
826.21	28223.06
826.39	28005.97
826.57	27907.67
826.75	27827.80
826.93	27692.63
827.10	27754.07
827.28	27625.05
827.46	27541.08
827.64	27758.17
827.81	27301.47
827.99	27887.19
828.17	27375.20
828.35	27332.19
828.53	27782.74
828.70	27246.18
828.88	27571.80
829.06	27508.32
829.24	27305.57
829.41	27289.18
829.59	27147.87
829.77	27012.71
829.95	27319.90
830.12	26836.58
830.30	27131.49
830.48	27219.55
830.66	26898.02
830.84	27424.35
831.01	26914.41
831.19	26924.65
831.37	26863.21
831.55	26603.11
831.72	26869.35
831.90	26975.84
832.08	26586.73
832.25	26736.23
832.43	26842.73
832.61	26340.97
832.79	26707.56
832.96	26467.95
833.14	26326.64
833.32	26582.63
833.50	26893.93
833.67	26564.20
833.85	26648.17
834.03	26340.97
834.20	26277.49
834.38	26277.49
834.56	26285.68
834.74	25734.78
834.91	26003.06
835.09	26072.69
835.27	25966.20
835.44	25978.48
835.62	25896.56
835.80	25822.84
835.98	26191.47
836.15	25816.69
836.33	25871.99
836.51	26050.16
836.68	25945.72
836.86	25955.96
837.04	25806.45
837.21	25724.54
837.39	25630.33
837.57	25863.80
837.75	25605.75
837.92	25388.67
838.10	25421.44
838.28	25523.83
838.45	25548.41
838.63	25200.26
838.81	25517.69
838.98	25179.78
839.16	25095.81
839.34	25212.54
839.51	25325.18
839.69	25069.19
839.87	25104.00
840.04	24931.97
840.22	25280.13
840.40	25130.62
840.57	24805.00
840.75	25013.89
840.93	24669.83
841.10	25116.29
841.28	24936.07
841.46	24999.55
841.63	24731.27
841.81	24833.67
841.98	24860.29
842.16	24917.64
842.34	24694.41
842.51	24397.45
842.69	24800.90
842.87	24546.95
843.04	24338.06
843.22	24696.46
843.40	24530.57
843.57	24340.11
843.75	24434.32
843.92	24546.95
844.10	24141.46
844.28	24510.09
844.45	24649.35
844.63	24716.93
844.81	24229.52
844.98	24221.33
845.16	24362.64
845.33	24258.19
845.51	24258.19
845.69	24149.65
845.86	24317.58
846.04	23719.57
846.21	24176.27
846.39	23875.22
846.57	23801.49
846.74	23991.95
846.92	24034.96
847.09	23905.94
847.27	23547.54
847.45	23828.12
847.62	23695.00
847.80	24030.87
847.97	23881.36
848.15	23377.56
848.32	23539.35
848.50	23680.66
848.68	23404.19
848.85	23418.52
849.03	23664.28
849.20	23619.22
849.38	23553.69
849.56	23508.63
849.73	23518.87
849.91	23404.19
850.08	23711.38
850.26	23262.88
850.43	23158.43
850.61	23324.32
850.78	23162.53
850.96	23099.04
851.14	23039.65
851.31	23316.12
851.49	23117.47
851.66	23211.68
851.84	23053.98
852.01	23246.49
852.19	23166.62
852.36	22963.87
852.54	23199.39
852.71	22918.82
852.89	22988.45
853.07	23226.01
853.24	23099.04
853.42	22912.67
853.59	22967.97
853.77	22967.97
853.94	23013.02
854.12	22742.69
854.29	22691.49
854.47	22662.82
854.64	22605.48
854.82	22591.14
854.99	22515.37
855.17	22537.90
855.34	22492.84
855.52	22429.35
855.69	22662.82
855.87	22402.73
856.04	22388.39
856.22	22566.57
856.39	22261.42
856.57	22501.03
856.74	22304.43
856.92	22306.48
857.09	21903.03
857.27	22488.74
857.44	22314.67
857.62	22148.78
857.79	22038.19
857.97	22116.01
858.14	22208.17
858.32	22142.64
858.49	22070.96
858.67	21866.16
858.84	21952.18
859.02	21792.44
859.19	21677.75
859.37	21788.34
859.54	21931.70
859.72	21989.04
859.89	21802.68
860.06	21849.78
860.24	21599.93
860.41	22017.71
860.59	21608.12
860.76	21794.48
860.94	21419.71
861.11	21804.72
861.29	21505.72
861.46	21288.64
861.64	21339.83
861.81	21567.16
861.98	21546.68
862.16	21378.75
862.33	21116.61
862.51	21149.37
862.68	21544.63
862.86	21161.66
863.03	21348.03
863.21	21368.51
863.38	21225.15
863.55	21026.50
863.73	21188.28
863.90	20973.25
864.08	21184.19
864.25	21065.41
864.43	21255.87
864.60	21010.11
864.77	20885.19
864.95	21096.13
865.12	20915.90
865.30	20860.61
865.47	20989.63
865.64	20631.24
865.82	20872.90
865.99	20573.89
866.17	20807.36
866.34	20774.60
866.51	20422.34
866.69	20848.32
866.86	20833.99
867.04	20553.41
867.21	20686.53
867.38	20541.13
867.56	20211.40
867.73	20514.50
867.91	20334.28
868.08	20412.10
868.25	20293.32
868.43	19979.98
868.60	20092.62
868.78	20039.37
868.95	20188.88
869.12	20176.59
869.30	20102.86
869.47	20221.64
869.64	19918.54
869.82	20102.86
869.99	20066.00
870.16	20102.86
870.34	20051.66
870.51	20129.48
870.69	20031.18
870.86	19900.11
871.03	19918.54
871.21	19873.49
871.38	20057.81
871.55	19556.05
871.73	19867.34
871.90	19568.34
872.07	19816.15
872.25	19543.77
872.42	19484.37
872.59	19451.61
872.77	19291.87
872.94	19279.58
873.11	19418.84
873.29	19470.04
873.46	19562.20
873.63	19390.17
873.81	19623.64
873.98	19326.68
874.15	19199.71
874.33	18865.89
874.50	18906.85
874.67	19001.05
874.85	18999.01
875.02	18917.09
875.19	18730.72
875.37	18822.88
875.54	18710.24
875.71	18620.13
875.88	18751.20
876.06	18671.33
876.23	18747.11
876.40	18415.34
876.58	18677.48
876.75	18603.75
876.92	18489.06
877.10	18503.40
877.27	18411.24
877.44	18452.20
877.61	18550.50
877.79	18403.05
877.96	18239.21
878.13	18091.76
878.31	17960.69
878.48	18214.63
878.65	17919.73
878.82	17936.11
879.00	18202.35
879.17	18038.51
879.34	18155.24
879.51	17669.87
879.69	17837.81
879.86	18026.22
880.03	17694.45
880.21	18015.98
880.38	17874.67
880.55	17807.09
880.72	17745.65
880.90	17956.59
881.07	17645.30
881.24	17983.21
881.41	17700.59
881.59	17520.37
881.76	17645.30
881.93	17680.11
882.10	17420.02
882.28	17520.37
882.45	17526.52
882.62	17305.34
882.79	17678.07
882.96	17331.96
883.14	17645.30
883.31	17305.34
883.48	17428.21
883.65	17450.74
883.83	17297.14
884.00	17139.45
884.17	17235.70
884.34	17043.20
884.51	17450.74
884.69	17164.03
884.86	17397.49
885.03	17454.84
885.20	17006.33
885.38	17313.53
885.55	17051.39
885.72	17200.89
885.89	16885.50
886.06	17078.01
886.24	16934.65
886.41	17024.76
886.58	17139.45
886.75	16967.42
886.92	16819.97
887.10	17059.58
887.27	16713.47
887.44	16989.95
887.61	17065.72
887.78	16871.17
887.95	16998.14
888.13	16639.75
888.30	16645.89
888.47	16695.04
888.64	16762.62
888.81	16692.99
888.99	16584.45
889.16	16697.09
889.33	16414.47
889.50	16750.34
889.67	16418.57
889.84	16535.30
890.01	16471.81
890.19	16582.40
890.36	16307.98
890.53	16328.45
890.70	16129.80
890.87	16279.30
891.04	16170.76
891.22	16371.46
891.39	16310.02
891.56	16267.02
891.73	16035.60
891.90	16209.67
892.07	16119.56
892.24	16041.74
892.42	15851.28
892.59	16258.82
892.76	15990.54
892.93	16056.08
893.10	15953.68
893.27	15972.11
893.44	15920.91
893.61	16021.26
893.79	15933.20
893.96	15957.77
894.13	16064.27
894.30	16002.83
894.47	15820.56
894.64	15642.39
894.81	15779.60
894.98	15933.20
895.15	15843.09
895.33	15724.30
895.50	15994.64
895.67	15912.72
895.84	15976.20
896.01	15965.96
896.18	15863.57
896.35	15894.29
896.52	15828.75
896.69	15552.27
896.86	15734.54
897.04	15507.22
897.21	15552.27
897.38	15892.24
897.55	15736.59
897.72	15841.04
897.89	15720.21
898.06	15882.00
898.23	15595.28
898.40	15822.61
898.57	15398.68
898.74	15851.28
898.91	15675.15
899.08	15591.19
899.26	15531.80
899.43	15585.04
899.60	15591.19
899.77	15630.10
899.94	15486.74
900.11	15576.85
900.28	15447.83
900.45	15548.18
900.62	15380.25
900.79	15634.19
900.96	15548.18
901.13	15683.34
901.30	15570.71
901.47	15345.43
901.64	15398.68
901.81	15216.41
901.98	15587.09
902.15	15746.83
902.32	15425.30
902.49	15464.21
902.66	15345.43
902.83	15617.81
903.01	15605.52
903.18	15449.88
903.35	15607.57
903.52	15443.73
903.69	15523.60
903.86	15601.43
904.03	15562.51
904.20	15734.54
904.37	15718.16
904.54	15523.60
904.71	15527.70
904.88	15496.98
905.05	15398.68
905.22	15396.63
905.39	15376.15
905.56	15312.66
905.73	15499.03
905.90	15394.58
906.07	15439.64
906.24	15660.82
906.41	15453.97
906.58	15525.65
906.75	15527.70
906.92	15351.57
907.09	15286.04
907.26	15511.32
907.43	15402.77
907.60	15370.01
907.77	15652.63
907.93	15306.52
908.10	15197.98
908.27	15626.00
908.44	15286.04
908.61	15191.83
908.78	15314.71
908.95	15445.78
909.12	15410.96
909.29	15171.35
909.46	15341.33
909.63	15595.28
909.80	15494.93
909.97	15298.33
910.14	15275.80
910.31	15453.97
910.48	15140.63
910.65	15501.08
910.82	15230.74
910.99	15243.03
911.16	15218.46
911.33	15257.37
911.50	15068.95
911.66	14911.26
911.83	14980.89
912.00	15093.53
912.17	14944.03
912.34	14960.41
912.51	14997.28
912.68	14960.41
912.85	15157.02
913.02	15071.00
913.19	14868.25
913.36	15089.43
913.53	15183.64
913.70	14896.92
913.86	14749.47
914.03	14823.20
914.20	14708.51
914.37	14724.90
914.54	14683.94
914.71	14802.72
914.88	14614.30
915.05	14737.18
915.22	14487.33
915.39	14792.48
915.55	14362.40
915.72	14429.99
915.89	14485.28
916.06	14307.11
916.23	14403.36
916.40	14147.37
916.57	14257.96
916.74	14135.08
916.91	14176.04
917.07	14247.72
917.24	14161.70
917.41	14323.49
917.58	14079.79
917.75	14032.68
917.92	13840.17
918.09	13924.14
918.26	13913.90
918.42	13930.28
918.59	13831.98
918.76	13899.56
918.93	13549.36
919.10	13625.14
919.27	13920.04
919.44	13643.57
919.60	13715.25
919.77	13543.22
919.94	13424.44
920.11	13715.25
920.28	13586.22
920.45	13365.04
920.61	13385.52
920.78	13305.65
920.95	13248.31
921.12	13213.49
921.29	13115.19
921.46	13031.23
921.62	12973.88
921.79	13342.52
921.96	13135.67
922.13	12787.52
922.30	13068.09
922.47	13006.65
922.63	12937.02
922.80	12863.29
922.97	12988.22
923.14	12812.09
923.31	12795.71
923.47	12625.73
923.64	12889.92
923.81	12396.35
923.98	12613.44
924.15	12377.92
924.32	12529.47
924.48	12656.45
924.65	12300.10
924.82	12220.23
924.99	12431.17
925.15	12177.22
925.32	12222.28
925.49	11997.00
925.66	12214.09
925.83	11923.27
925.99	12107.59
926.16	11878.22
926.33	11874.12
926.50	11677.52
926.67	11935.56
926.83	11863.88
927.00	11855.69
927.17	11667.28
927.34	11683.66
927.50	11626.32
927.67	11468.62
927.84	11536.21
928.01	11415.38
928.17	11368.27
928.34	11294.55
928.51	11364.18
928.68	11116.37
928.84	11284.31
929.01	10960.73
929.18	11218.77
929.35	11024.22
929.51	10942.30
929.68	10911.58
929.85	10997.59
930.02	10819.42
930.18	10727.26
930.35	10848.09
930.52	10688.35
930.69	10465.12
930.85	10719.07
931.02	10665.82
931.19	10577.76
931.36	10508.13
931.52	10504.03
931.69	10458.98
931.86	10364.77
932.02	10047.33
932.19	10284.90
932.36	10313.57
932.53	10254.18
932.69	9985.90
932.86	10168.16
933.03	10282.85
933.19	9961.32
933.36	9969.51
933.53	10039.14
933.70	9621.36
933.86	9838.44
934.03	9699.18
934.20	9434.99
934.36	9762.67
934.53	9480.05
934.70	9428.85
934.86	9283.44
935.03	9379.70
935.20	9252.72
935.36	9334.64
935.53	9105.27
935.70	9033.59
935.86	9138.04
936.03	8900.47
936.20	8945.53
936.36	8722.30
936.53	8834.94
936.70	8892.28
936.86	8730.49
937.03	8728.44
937.20	8355.71
937.36	8595.32
937.53	8261.51
937.70	8097.67
937.86	8044.42
938.03	8148.87
938.20	8095.62
938.36	7878.54
938.53	7901.06
938.70	7640.97
938.86	7749.51
939.03	7573.39
939.20	7526.29
939.36	7606.16
939.53	7325.58
939.70	7368.59
939.86	7106.45
940.03	7112.60
940.19	6999.96
940.36	7163.79
940.53	6999.96
940.69	6727.58
940.86	6725.53
941.03	6600.60
941.19	6584.22
941.36	6504.35
941.52	6438.81
941.69	6369.18
941.86	6467.49
942.02	6242.21
942.19	6184.87
942.35	6313.89
942.52	5982.12
942.69	6043.56
942.85	6131.62
943.02	6143.91
943.18	6229.92
943.35	6074.28
943.52	6078.37
943.68	5674.92
943.85	5947.30
944.01	5724.07
944.18	5707.69
944.35	5822.38
944.51	5621.67
944.68	5558.19
944.84	5734.31
945.01	5558.19
945.17	5527.47
945.34	5543.85
945.51	5539.76
945.67	5418.93
945.84	5574.57
946.00	5525.42
946.17	5427.12
946.33	5414.83
946.50	5543.85
946.67	5443.50
946.83	5382.06
947.00	5371.82
947.16	5382.06
947.33	5433.26
947.49	5404.59
947.66	5216.18
947.82	5482.41
947.99	5392.30
948.16	5326.77
948.32	5377.97
948.49	5480.36
948.65	5515.18
948.82	5300.14
948.98	5427.12
949.15	5222.32
949.31	5398.45
949.48	5476.27
949.64	5373.87
949.81	5531.56
949.97	5365.68
950.14	5490.60
950.30	5343.15
950.47	5457.84
950.63	5377.97
950.80	5429.17
950.96	5373.87
951.13	5453.74
951.30	5377.97
951.46	5418.93
951.63	5466.03
951.79	5492.65
951.96	5494.70
952.12	5373.87
952.29	5490.60
952.45	5449.64
952.62	5449.64
952.78	5484.46
952.94	5326.77
953.11	5296.05
953.27	5414.83
953.44	5480.36
953.60	5558.19
953.77	5523.37
953.93	5554.09
954.10	5451.69
954.26	5533.61
954.43	5427.12
954.59	5670.83
954.76	5713.83
954.92	5574.57
955.09	5672.87
955.25	5564.33
955.42	5509.04
955.58	5611.43
955.75	5644.20
955.91	5633.96
956.07	5443.50
956.24	5498.80
956.40	5472.17
956.57	5566.38
956.73	5380.01
956.90	5531.56
957.06	5566.38
957.23	5578.67
957.39	5451.69
957.56	5599.15
957.72	5490.60
957.88	5441.45
958.05	5578.67
958.21	5734.31
958.38	5564.33
958.54	5697.45
958.71	5773.22
958.87	5705.64
959.03	5539.76
959.20	5685.16
959.36	5509.04
959.53	5601.19
959.69	5541.80
959.85	5513.13
960.02	5425.07
960.18	5527.47
960.35	5537.71
960.51	5590.95
960.68	5468.08
960.84	5504.94
961.00	5509.04
961.17	5470.12
961.33	5431.21
961.50	5441.45
961.66	5539.76
961.82	5441.45
961.99	5576.62
962.15	5539.76
962.31	5337.01
962.48	5484.46
962.64	5564.33
962.81	5517.23
962.97	5474.22
963.13	5435.31
963.30	5492.65
963.46	5369.77
963.62	5455.79
963.79	5478.32
963.95	5545.90
964.12	5531.56
964.28	5543.85
964.44	5382.06
964.61	5474.22
964.77	5500.84
964.93	5468.08
965.10	5398.45
965.26	5377.97
965.42	5451.69
965.59	5410.73
965.75	5345.20
965.92	5283.76
966.08	5453.74
966.24	5406.64
966.41	5285.81
966.57	5437.36
966.73	5361.58
966.90	5443.50
967.06	5234.61
967.22	5244.85
967.39	5310.38
967.55	5382.06
967.71	5226.42
967.88	5248.94
968.04	5207.98
968.20	5300.14
968.37	5193.65
968.53	5334.96
968.69	5169.07
968.85	5144.50
969.02	5121.97
969.18	5300.14
969.34	5214.13
969.51	5179.31
969.67	5240.75
969.83	5099.44
970.00	5298.10
970.16	5218.22
970.32	5334.96
970.48	5271.47
970.65	5021.62
970.81	5081.01
970.97	5113.78
971.14	4997.04
971.30	5128.11
971.46	5017.52
971.63	5033.91
971.79	5185.46
971.95	5105.59
972.11	5044.15
972.28	5031.86
972.44	5164.98
972.60	5003.19
972.76	5054.39
972.93	4941.75
973.09	5021.62
973.25	4970.42
973.42	4865.97
973.58	4818.87
973.74	4988.85
973.90	4992.95
974.07	4931.51
974.23	5021.62
974.39	5072.82
974.55	4919.22
974.72	4818.87
974.88	4851.64
975.04	4919.22
975.20	4798.39
975.37	4984.76
975.53	4687.80
975.69	4833.21
975.85	4818.87
976.01	4769.72
976.18	4720.57
976.34	4763.58
976.50	4884.41
976.66	4880.31
976.83	4739.00
976.99	4665.27
977.15	4749.24
977.31	4534.20
977.47	4779.96
977.64	4677.56
977.80	4724.66
977.96	4712.38
978.12	4624.31
978.29	4673.46
978.45	4483.00
978.61	4601.79
978.77	4665.27
978.93	4521.92
979.10	4614.07
979.26	4601.79
979.42	4642.75
979.58	4442.04
979.74	4616.12
979.91	4632.51
980.07	4511.68
980.23	4526.01
980.39	4460.48
980.55	4593.59
980.71	4442.04
980.88	4442.04
981.04	4507.58
981.20	4440.00
981.36	4366.27
981.52	4423.61
981.68	4280.25
981.85	4530.11
982.01	4343.74
982.17	4390.84
982.33	4321.21
982.49	4464.57
982.65	4376.51
982.82	4450.24
982.98	4368.32
983.14	4315.07
983.30	4274.11
983.46	4331.45
983.62	4284.35
983.79	4224.96
983.95	4323.26
984.11	4128.70
984.27	4249.54
984.43	4220.86
984.59	4249.54
984.75	4263.87
984.91	4198.34
985.08	4288.45
985.24	4272.06
985.40	4169.66
985.56	4057.03
985.72	4165.57
985.88	4169.66
986.04	4177.86
986.20	4114.37
986.37	4132.80
986.53	3991.49
986.69	4079.55
986.85	4089.79
987.01	4083.65
987.17	4108.23
987.33	3964.87
987.49	3977.16
987.65	4114.37
987.82	3907.52
987.98	3985.35
988.14	4046.79
988.30	3942.34
988.46	3919.81
988.62	3942.34
988.78	3891.14
988.94	3897.28
989.10	3878.85
989.26	3794.89
989.42	3923.91
989.59	3864.52
989.75	3848.13
989.91	3901.38
990.07	3637.19
990.23	3727.30
990.39	3792.84
990.55	3796.93
990.71	3825.61
990.87	3755.97
991.03	3774.41
991.19	3882.95
991.35	3821.51
991.51	3821.51
991.67	3897.28
991.83	3774.41
992.00	3778.50
992.16	3700.68
992.32	3694.54
992.48	3649.48
992.64	3608.52
992.80	3678.15
992.96	3661.77
993.12	3723.21
993.28	3696.58
993.44	3583.95
993.60	3715.02
993.76	3696.58
993.92	3649.48
994.08	3727.30
994.24	3700.68
994.40	3643.34
994.56	3667.91
994.72	3456.97
994.88	3573.71
995.04	3624.90
995.20	3530.70
995.36	3499.98
995.52	3547.08
995.68	3571.66
995.84	3661.77
996.00	3518.41
996.16	3440.59
996.32	3432.40
996.48	3499.98
996.64	3596.23
996.80	3362.76
996.96	3469.26
997.12	3473.36
997.28	3411.92
997.44	3461.07
997.60	3497.93
997.76	3211.22
997.92	3352.52
998.08	3338.19
998.24	3362.76
998.40	3377.10
998.56	3493.83
998.72	3286.99
998.88	3381.20
999.04	3299.28
999.20	3342.28
999.36	3338.19
999.52	3456.97
999.68	3321.81
999.84	3434.44
1000.00	3299.28
1000.16	3299.28
1000.32	3282.89
1000.48	3297.23
1000.64	3168.21
1000.80	3198.93
1000.95	3186.64
1001.11	3215.31
1001.27	3311.57
1001.43	3250.13
1001.59	3133.39
1001.75	3239.89
1001.91	3168.21
1002.07	3180.50
1002.23	3067.86
1002.39	3133.39
1002.55	3209.17
1002.71	3080.14
1002.87	3102.67
1003.03	3078.10
1003.19	3114.96
1003.34	3137.49
1003.50	3067.86
1003.66	3172.30
1003.82	3121.10
1003.98	3041.23
1004.14	2940.88
1004.30	2918.36
1004.46	3037.14
1004.62	3026.90
1004.78	3125.20
1004.94	2934.74
1005.09	2961.36
1005.25	2953.17
1005.41	3055.57
1005.57	3071.95
1005.73	3074.00
1005.89	2926.55
1006.05	2949.08
1006.21	2959.31
1006.37	2895.83
1006.52	2938.84
1006.68	2904.02
1006.84	3010.51
1007.00	2873.30
1007.16	2992.08
1007.32	2863.06
1007.48	2936.79
1007.64	2912.21
1007.79	2914.26
1007.95	2826.20
1008.11	2887.64
1008.27	2836.44
1008.43	2916.31
1008.59	2891.73
1008.75	2934.74
1008.91	2961.36
1009.06	2768.85
1009.22	2901.97
1009.38	2877.40
1009.54	2813.91
1009.70	2820.05
1009.86	2725.85
1010.01	2887.64
1010.17	2770.90
1010.33	2805.72
1010.49	2822.10
1010.65	2822.10
1010.81	2633.69
1010.96	2752.47
1011.12	2707.41
1011.28	2721.75
1011.44	2832.34
1011.60	2691.03
1011.76	2699.22
1011.91	2742.23
1012.07	2592.73
1012.23	2633.69
1012.39	2621.40
1012.55	2740.18
1012.71	2699.22
1012.86	2668.50
1013.02	2621.40
1013.18	2559.96
1013.34	2775.00
1013.50	2654.17
1013.65	2674.65
1013.81	2623.45
1013.97	2637.78
1014.13	2619.35
1014.29	2592.73
1014.44	2660.31
1014.60	2502.62
1014.76	2506.71
1014.92	2609.11
1015.07	2537.43
1015.23	2627.54
1015.39	2486.23
1015.55	2588.63
1015.71	2508.76
1015.86	2484.19
1016.02	2478.04
1016.18	2478.04
1016.34	2531.29
1016.49	2545.63
1016.65	2521.05
1016.81	2469.85
1016.97	2519.00
1017.12	2519.00
1017.28	2463.71
1017.44	2371.55
1017.60	2531.29
1017.75	2379.74
1017.91	2465.75
1018.07	2394.08
1018.23	2500.57
1018.38	2416.60
1018.54	2488.28
1018.70	2494.43
1018.86	2480.09
1019.01	2394.08
1019.17	2398.17
1019.33	2435.03
1019.49	2435.03
1019.64	2428.89
1019.80	2394.08
1019.96	2455.51
1020.12	2328.54
1020.27	2383.84
1020.43	2392.03
1020.59	2342.88
1020.74	2398.17
1020.90	2443.23
1021.06	2383.84
1021.22	2318.30
1021.37	2336.73
1021.53	2234.33
1021.69	2338.78
1021.84	2230.24
1022.00	2303.96
1022.16	2301.92
1022.31	2308.06
1022.47	2357.21
1022.63	2420.70
1022.79	2236.38
1022.94	2234.33
1023.10	2338.78
1023.26	2281.44
1023.41	2236.38
1023.57	2256.86
1023.73	2338.78
1023.88	2279.39
1024.04	2146.27
1024.20	2152.42
1024.35	2222.05
1024.51	2234.33
1024.67	2191.33
1024.82	2293.72
1024.98	2133.98
1025.14	2306.01
1025.29	2197.47
1025.45	2256.86
1025.61	2195.42
1025.76	2254.81
1025.92	2117.60
1026.08	2230.24
1026.23	2263.01
1026.39	2306.01
1026.55	2158.56
1026.70	2160.61
1026.86	2220.00
1027.02	2199.52
1027.17	2201.57
1027.33	2150.37
1027.48	2113.50
1027.64	2185.18
1027.80	2062.30
1027.95	2189.28
1028.11	2107.36
1028.27	2127.84
1028.42	2224.09
1028.58	2099.17
1028.73	2111.46
1028.89	1996.77
1029.05	2156.51
1029.20	2158.56
>>>>>End Processed Spectral Data<<<<<
