SpectraSuite Data File
++++++++++++++++++++++++++++++++++++
Date: Fri Jun 02 14:53:34 CEST 2017
User: INFO_000
Dark Spectrum Present: No
Reference Spectrum Present: No
Number of Sampled Component Spectra: 1
Spectrometers: USB4H00879
Integration Time (usec): 80000 (USB4H00879)
Spectra Averaged: 1 (USB4H00879)
Boxcar Smoothing: 0 (USB4H00879)
Correct for Electrical Dark: No (USB4H00879)
Strobe/Lamp Enabled: No (USB4H00879)
Correct for Detector Non-linearity: No (USB4H00879)
Correct for Stray Light: No (USB4H00879)
Number of Pixels in Processed Spectrum: 3648
>>>>>Begin Processed Spectral Data<<<<<
345.13	1243.12
345.34	1243.12
345.56	1243.12
345.78	1318.89
345.99	1312.75
346.21	1669.09
346.42	1710.05
346.64	1675.24
346.86	1722.34
347.07	1732.58
347.29	1734.63
347.50	1605.61
347.72	1701.86
347.94	1703.91
348.15	1624.04
348.37	1589.22
348.59	1683.43
348.80	1636.33
349.02	1794.02
349.23	1822.69
349.45	1851.36
349.67	1888.23
349.88	1759.21
350.10	1964.00
350.31	1794.02
350.53	1818.60
350.75	1931.23
350.96	1820.64
351.18	1898.47
351.39	1871.84
351.61	1751.01
351.82	1912.80
352.04	1912.80
352.26	1832.93
352.47	1871.84
352.69	1892.32
352.90	1757.16
353.12	1808.36
353.34	1845.22
353.55	1863.65
353.77	1834.98
353.98	1824.74
354.20	1837.03
354.41	1904.61
354.63	1970.15
354.85	2056.16
355.06	1892.32
355.28	1789.92
355.49	1877.99
355.71	1918.95
355.92	1955.81
356.14	1916.90
356.35	1890.28
356.57	1886.18
356.79	1923.04
357.00	1902.56
357.22	1939.43
357.43	1853.41
357.65	1945.57
357.86	1918.95
358.08	1972.19
358.29	1923.04
358.51	2007.01
358.72	2031.58
358.94	1968.10
359.16	1964.00
359.37	1910.75
359.59	1994.72
359.80	1927.14
360.02	1929.19
360.23	2015.20
360.45	2035.68
360.66	1916.90
360.88	1918.95
361.09	1906.66
361.31	1986.53
361.52	1961.95
361.74	2052.06
361.95	2062.30
362.17	1984.48
362.38	2109.41
362.60	2000.87
362.81	1947.62
363.03	1957.86
363.24	1900.52
363.46	2045.92
363.67	2027.49
363.89	2002.91
364.10	1992.67
364.32	2004.96
364.53	1929.19
364.75	1892.32
364.96	2025.44
365.18	2107.36
365.39	1935.33
365.61	1906.66
365.82	2138.08
366.04	1976.29
366.25	2007.01
366.47	2050.02
366.68	2047.97
366.90	1923.04
367.11	2045.92
367.33	2111.46
367.54	2084.83
367.76	1974.24
367.97	2072.54
368.19	1953.76
368.40	2115.55
368.62	1927.14
368.83	1974.24
369.05	2027.49
369.26	2015.20
369.48	2039.78
369.69	1996.77
369.91	2095.07
370.12	2090.98
370.33	2066.40
370.55	2007.01
370.76	1976.29
370.98	2119.65
371.19	2033.63
371.41	2013.15
371.62	2109.41
371.84	1937.38
372.05	2203.61
372.27	2101.22
372.48	2095.07
372.69	2152.42
372.91	2168.80
373.12	2150.37
373.34	2113.50
373.55	2136.03
373.77	2115.55
373.98	2041.82
374.20	2220.00
374.41	2209.76
374.62	2125.79
374.84	2105.31
375.05	2174.94
375.27	2185.18
375.48	2166.75
375.70	2234.33
375.91	2187.23
376.12	2338.78
376.34	2248.67
376.55	2205.66
376.77	2174.94
376.98	2142.18
377.19	2140.13
377.41	2181.09
377.62	2187.23
377.84	2201.57
378.05	2320.35
378.27	2166.75
378.48	2344.92
378.69	2334.68
378.91	2281.44
379.12	2283.49
379.34	2224.09
379.55	2312.16
379.76	2338.78
379.98	2303.96
380.19	2285.53
380.41	2355.16
380.62	2334.68
380.83	2291.68
381.05	2252.77
381.26	2447.32
381.47	2242.53
381.69	2318.30
381.90	2408.41
382.12	2271.20
382.33	2351.07
382.54	2308.06
382.76	2293.72
382.97	2363.36
383.19	2248.67
383.40	2336.73
383.61	2297.82
383.83	2250.72
384.04	2385.88
384.25	2351.07
384.47	2338.78
384.68	2367.45
384.89	2306.01
385.11	2338.78
385.32	2330.59
385.54	2293.72
385.75	2402.27
385.96	2424.80
386.18	2482.14
386.39	2500.57
386.60	2306.01
386.82	2453.47
387.03	2435.03
387.24	2463.71
387.46	2588.63
387.67	2652.12
387.88	2516.95
388.10	2525.15
388.31	2539.48
388.52	2611.16
388.74	2621.40
388.95	2512.86
389.16	2631.64
389.38	2533.34
389.59	2633.69
389.80	2633.69
390.02	2592.73
390.23	2572.25
390.44	2629.59
390.66	2508.76
390.87	2582.49
391.08	2580.44
391.30	2727.89
391.51	2600.92
391.72	2682.84
391.94	2650.07
392.15	2635.74
392.36	2680.79
392.58	2633.69
392.79	2699.22
393.00	2676.70
393.22	2805.72
393.43	2770.90
393.64	2846.68
393.85	2770.90
394.07	2699.22
394.28	2811.86
394.49	2781.14
394.71	2787.29
394.92	2838.48
395.13	2752.47
395.35	2684.89
395.56	2895.83
395.77	2844.63
395.98	2863.06
396.20	2885.59
396.41	2901.97
396.62	2961.36
396.84	2850.77
397.05	2797.53
397.26	2971.60
397.47	2953.17
397.69	2918.36
397.90	3141.58
398.11	2926.55
398.32	2981.84
398.54	2969.55
398.75	3008.47
398.96	2994.13
399.18	3186.64
399.39	2920.40
399.60	3092.43
399.81	3049.43
400.03	3006.42
400.24	3256.27
400.45	3108.82
400.66	3071.95
400.88	3039.19
401.09	3217.36
401.30	3088.34
401.51	3313.61
401.73	3102.67
401.94	3215.31
402.15	3194.83
402.36	3030.99
402.58	3223.50
402.79	3248.08
403.00	3237.84
403.21	3268.56
403.43	3295.18
403.64	3227.60
403.85	3080.14
404.06	3303.37
404.27	3090.38
404.49	3215.31
404.70	3145.68
404.91	3241.93
405.12	3307.47
405.34	3262.41
405.55	3469.26
405.76	3229.65
405.97	3243.98
406.19	3364.81
406.40	3305.42
406.61	3416.01
406.82	3413.96
407.03	3317.71
407.25	3278.80
407.46	3434.44
407.67	3477.45
407.88	3545.03
408.09	3319.76
408.31	3360.72
408.52	3373.00
408.73	3465.16
408.94	3360.72
409.15	3469.26
409.37	3553.23
409.58	3530.70
409.79	3549.13
410.00	3526.60
410.21	3420.11
410.43	3430.35
410.64	3436.49
410.85	3645.38
411.06	3506.12
411.27	3577.80
411.48	3733.45
411.70	3684.30
411.91	3608.52
412.12	3770.31
412.33	3581.90
412.54	3450.83
412.76	3801.03
412.97	3676.10
413.18	3569.61
413.39	3532.75
413.60	3631.05
413.81	3629.00
414.03	3674.06
414.24	3559.37
414.45	3772.36
414.66	3559.37
414.87	3813.32
415.08	3751.88
415.30	3647.43
415.51	3676.10
415.72	3721.16
415.93	3735.50
416.14	3747.78
416.35	3858.37
416.56	3694.54
416.78	3846.09
416.99	3948.48
417.20	3848.13
417.41	3901.38
417.62	3952.58
417.83	3958.72
418.04	3735.50
418.26	4003.78
418.47	3934.15
418.68	3938.24
418.89	3975.11
419.10	4218.82
419.31	4073.41
419.52	4020.16
419.73	3973.06
419.95	4091.84
420.16	4020.16
420.37	4102.08
420.58	3981.25
420.79	3913.67
421.00	4112.32
421.21	4157.38
421.42	4108.23
421.63	4208.58
421.85	4192.19
422.06	4188.10
422.27	4294.59
422.48	4208.58
422.69	4220.86
422.90	4257.73
423.11	4280.25
423.32	4286.40
423.53	4417.47
423.75	4390.84
423.96	4442.04
424.17	4362.17
424.38	4399.04
424.59	4474.81
424.80	4521.92
425.01	4562.87
425.22	4523.96
425.43	4554.68
425.64	4624.31
425.85	4636.60
426.06	4624.31
426.28	4528.06
426.49	4454.33
426.70	4663.22
426.91	4648.89
427.12	4665.27
427.33	4646.84
427.54	4675.51
427.75	4794.29
427.96	4859.83
428.17	4724.66
428.38	4825.01
428.59	4915.12
428.80	4837.30
429.01	4982.71
429.23	4812.73
429.44	5017.52
429.65	5038.00
429.86	5058.48
430.07	4829.11
430.28	4960.18
430.49	5074.87
430.70	5302.19
430.91	5111.73
431.12	5058.48
431.33	5197.74
431.54	5330.86
431.75	5132.21
431.96	5189.55
432.17	5167.03
432.38	5167.03
432.59	5463.98
432.80	5294.00
433.01	5308.34
433.22	5304.24
433.43	5349.29
433.64	5365.68
433.85	5402.54
434.06	5447.60
434.27	5476.27
434.49	5478.32
434.70	5500.84
434.91	5584.81
435.12	5490.60
435.33	5580.71
435.54	5527.47
435.75	5380.01
435.96	5488.56
436.17	5574.57
436.38	5554.09
436.59	5734.31
436.80	5654.44
437.01	5967.78
437.22	5658.54
437.43	5820.33
437.64	5525.42
437.85	5832.62
438.06	5951.40
438.27	5791.66
438.48	5965.73
438.69	5803.94
438.90	5846.95
439.11	5894.05
439.32	6023.08
439.53	5881.77
439.74	5984.16
439.95	6006.69
440.16	5902.25
440.37	6080.42
440.57	6148.00
440.78	6133.67
440.99	6078.37
441.20	6084.52
441.41	6023.08
441.62	6113.19
441.83	5867.43
442.04	6221.73
442.25	6164.39
442.46	6041.51
442.67	6494.11
442.88	6592.41
443.09	6201.25
443.30	6295.46
443.51	6338.46
443.72	6510.49
443.93	6414.24
444.14	6569.88
444.35	6274.98
444.56	6584.22
444.77	6459.29
444.98	6522.78
445.19	6473.63
445.40	6522.78
445.61	6553.50
445.81	6729.63
446.02	6703.00
446.23	6543.26
446.44	6424.48
446.65	6748.06
446.86	6537.12
447.07	6754.20
447.28	6776.73
447.49	6793.11
447.70	6598.56
447.91	6926.23
448.12	6735.77
448.33	6832.02
448.54	6776.73
448.74	6729.63
448.95	6870.94
449.16	6920.09
449.37	7163.79
449.58	7071.64
449.79	7063.44
450.00	6776.73
450.21	7063.44
450.42	7200.66
450.63	7014.29
450.84	6944.66
451.05	7122.84
451.25	7098.26
451.46	7036.82
451.67	7249.81
451.88	7243.67
452.09	7290.77
452.30	7137.17
452.51	7184.27
452.72	7266.19
452.93	7530.38
453.13	7131.03
453.34	7243.67
453.55	7288.72
453.76	7438.22
453.97	7763.85
454.18	7438.22
454.39	7606.16
454.60	7622.54
454.81	7389.07
455.01	7550.86
455.22	7333.78
455.43	7597.96
455.64	7915.40
455.85	7980.93
456.06	8052.61
456.27	7833.48
456.48	7876.49
456.68	7909.26
456.89	7755.66
457.10	7901.06
457.31	7989.13
457.52	8032.13
457.73	8263.55
457.94	8216.45
458.14	7989.13
458.35	8546.17
458.56	8251.27
458.77	8021.89
458.98	8212.35
459.19	8265.60
459.39	8368.00
459.60	8382.34
459.81	8310.66
460.02	8421.25
460.23	8392.58
460.44	8677.24
460.65	8714.11
460.85	8568.70
461.06	8658.81
461.27	8234.88
461.48	9113.46
461.69	8882.04
461.89	8628.09
462.10	8871.80
462.31	8615.80
462.52	8781.69
462.73	8918.90
462.94	9213.81
463.14	8906.62
463.35	9039.73
463.56	9545.58
463.77	9465.71
463.98	9234.29
464.18	9172.85
464.39	9490.29
464.60	9547.63
464.81	9496.43
465.02	9557.87
465.23	9707.37
465.43	9451.38
465.64	9834.35
465.85	9703.28
466.06	9576.30
466.27	10047.33
466.47	9817.96
466.68	9822.06
466.89	9748.33
467.10	10039.14
467.30	9908.07
467.51	10041.19
467.72	10354.53
467.93	9889.64
468.14	10270.56
468.34	10295.14
468.55	10508.13
468.76	10366.82
468.97	10303.33
469.17	10694.49
469.38	10772.32
469.59	10880.86
469.80	10557.28
470.01	10747.74
470.21	10751.84
470.42	11183.96
470.63	11009.88
470.84	10989.40
471.04	11026.26
471.25	11347.79
471.46	11288.40
471.67	11489.10
471.87	11493.20
472.08	11650.89
472.29	11581.26
472.50	11657.04
472.70	11528.02
472.91	11595.60
473.12	11708.24
473.33	11816.78
473.53	11943.75
473.74	12111.69
473.95	12042.06
474.16	12224.33
474.36	12115.78
474.57	12617.54
474.78	12476.23
474.99	12339.01
475.19	12595.01
475.40	12601.15
475.61	13004.60
475.81	13086.52
476.02	13029.18
476.23	12818.24
476.44	13383.48
476.64	13285.17
476.85	13434.68
477.06	13467.44
477.27	13539.12
477.47	13924.14
477.68	13967.15
477.89	14100.26
478.09	14124.84
478.30	13889.32
478.51	13938.48
478.71	14163.75
478.92	14253.86
479.13	14219.05
479.34	14843.68
479.54	14536.48
479.75	14552.87
479.96	14790.43
480.16	14788.38
480.37	15001.37
480.58	15103.77
480.78	15392.53
480.99	15339.29
481.20	15427.35
481.41	15705.87
481.61	15757.07
481.82	15703.82
482.03	15652.63
482.23	15785.74
482.44	15955.72
482.65	16387.85
482.85	16443.14
483.06	16086.79
483.27	16183.05
483.47	16365.32
483.68	16371.46
483.89	16729.86
484.09	16666.37
484.30	16932.61
484.51	17131.26
484.71	17243.90
484.92	16934.65
485.13	17082.11
485.33	17305.34
485.54	17239.80
485.75	17594.10
485.95	17530.61
486.16	17663.73
486.37	17809.14
486.57	18097.90
486.78	18050.80
486.98	18120.43
487.19	18159.34
487.40	18165.48
487.60	18425.57
487.81	18591.46
488.02	18425.57
488.22	18611.94
488.43	18835.17
488.64	19101.40
488.84	19209.95
489.05	19037.92
489.25	19152.60
489.46	19306.20
489.67	19154.65
489.87	19693.27
490.08	19537.62
490.29	19580.63
490.49	20002.51
490.70	20131.53
490.90	20059.85
491.11	20053.71
491.32	20291.27
491.52	20508.36
491.73	20133.58
491.94	20346.57
492.14	20365.00
492.35	20778.69
492.55	21024.45
492.76	20774.60
492.97	20862.66
493.17	21024.45
493.38	21200.57
493.58	21333.69
493.79	21276.35
494.00	21118.65
494.20	21415.61
494.41	21712.56
494.61	21636.79
494.82	21647.03
495.02	21700.28
495.23	21855.92
495.44	21802.68
495.64	21974.70
495.85	22087.34
496.05	22372.01
496.26	22267.56
496.47	22484.65
496.67	22298.28
496.88	22830.76
497.08	22433.45
497.29	22750.88
497.49	22617.77
497.70	22705.83
497.91	23045.79
498.11	23047.84
498.32	23119.52
498.52	23244.45
498.73	23651.99
498.93	23494.30
499.14	23570.07
499.34	23527.06
499.55	23676.57
499.76	23647.90
499.96	23842.45
500.17	23666.33
500.37	24061.58
500.58	23799.44
500.78	24282.77
500.99	23701.14
501.19	24061.58
501.40	24387.21
501.60	24374.92
501.81	24370.83
502.02	24264.33
502.22	24260.24
502.43	24604.30
502.63	24561.29
502.84	24579.72
503.04	24585.86
503.25	24721.03
503.45	24575.62
503.66	25200.26
503.86	24970.88
504.07	25366.14
504.27	25212.54
504.48	25480.83
504.68	25108.10
504.89	25544.31
505.09	25601.66
505.30	25476.73
505.50	25507.45
505.71	25908.85
505.91	25904.76
506.12	25640.57
506.32	25800.31
506.53	25785.97
506.73	26175.09
506.94	26146.42
507.14	26031.73
507.35	26109.55
507.55	25976.44
507.76	26453.61
507.96	25642.62
508.17	26308.21
508.37	26326.64
508.58	26496.62
508.78	26459.76
508.99	26470.00
509.19	26580.59
509.40	26672.74
509.60	26308.21
509.81	26625.64
510.01	26476.14
510.22	26801.77
510.42	26676.84
510.63	26713.70
510.83	26938.98
511.04	26699.37
511.24	26981.99
511.44	27106.91
511.65	27057.76
511.85	26834.53
512.06	27201.12
512.26	27045.48
512.47	27242.08
512.67	27291.23
512.88	27364.96
513.08	27121.25
513.29	27592.28
513.49	27268.70
513.69	27266.66
513.90	27403.87
514.10	27782.74
514.31	27539.04
514.51	27534.94
514.72	27536.99
514.92	27481.69
515.13	27516.51
515.33	27692.63
515.53	27876.95
515.74	27799.13
515.94	28036.69
516.15	27960.92
516.35	27915.86
516.56	27979.35
516.76	28108.37
516.96	28122.71
517.17	28378.70
517.37	28620.36
517.58	28237.39
517.78	28458.57
517.99	28180.05
518.19	28298.83
518.39	28581.45
518.60	28847.69
518.80	28683.85
519.01	28618.32
519.21	28624.46
519.41	28931.65
519.62	28827.21
519.82	28753.48
520.03	28872.26
520.23	28939.85
520.43	29013.57
520.64	29132.36
520.84	29236.80
521.05	29314.62
521.25	29410.88
521.45	29259.33
521.66	29564.48
521.86	29343.30
522.07	29709.88
522.27	29732.41
522.47	29849.14
522.68	29941.30
522.88	29523.52
523.08	30064.18
523.29	29861.43
523.49	30062.13
523.70	30119.48
523.90	29935.16
524.10	30195.25
524.31	30477.87
524.51	30090.80
524.71	30746.15
524.92	30697.00
525.12	30809.64
525.33	30768.68
525.53	30709.29
525.73	31104.55
525.94	31014.44
526.14	31024.68
526.34	30866.98
526.55	30924.33
526.75	31073.83
526.95	31239.72
527.16	31321.63
527.36	31120.93
527.56	31462.94
527.77	31868.44
527.97	31546.91
528.17	31659.55
528.38	31753.76
528.58	31571.49
528.78	32337.43
528.99	32003.61
529.19	31983.13
529.39	31833.63
529.60	32484.88
529.80	32087.57
530.00	32345.62
530.21	32431.63
530.41	32450.06
530.61	32380.43
530.82	32249.36
531.02	32939.53
531.22	32998.92
531.43	32605.71
531.63	33089.03
531.83	33160.71
532.04	33433.09
532.24	33244.68
532.44	33736.19
532.64	33811.96
532.85	33764.86
533.05	33801.72
533.25	33789.44
533.46	33553.92
533.66	34153.97
533.86	34293.24
534.07	34428.40
534.27	34481.65
534.47	34555.38
534.67	34719.21
534.88	34426.35
535.08	34747.89
535.28	34606.58
535.49	34762.22
535.69	34977.26
535.89	35192.30
536.09	35220.97
536.30	35229.16
536.50	35225.06
536.70	35565.03
536.91	35229.16
537.11	35440.10
537.31	35669.47
537.51	35362.28
537.72	35816.93
537.92	35980.76
538.12	36048.35
538.32	35923.42
538.53	36324.82
538.73	35997.15
538.93	36216.28
539.13	36701.65
539.34	36263.38
539.54	36236.76
539.74	36914.64
539.94	37131.72
540.15	36591.06
540.35	36933.07
540.55	36595.15
540.75	36980.17
540.96	37508.55
541.16	37330.37
541.36	37492.16
541.56	37068.23
541.77	37991.87
541.97	37490.12
542.17	37539.27
542.37	37600.71
542.58	38043.07
542.78	37854.65
542.98	37793.22
543.18	38000.06
543.38	38620.59
543.59	38419.89
543.79	38098.36
543.99	38403.51
544.19	38346.17
544.40	38452.66
544.60	38821.30
544.80	38428.09
545.00	38598.07
545.20	39148.97
545.41	38778.29
545.61	38813.10
545.81	39323.05
546.01	39171.50
546.21	39138.73
546.42	39189.93
546.62	39333.29
546.82	39339.43
547.02	39318.95
547.22	39669.15
547.43	39239.08
547.63	39853.47
547.83	39450.02
548.03	39574.95
548.23	39957.92
548.44	39898.53
548.64	39759.27
548.84	40404.38
549.04	40258.97
549.24	40453.53
549.45	40377.75
549.65	40152.48
549.85	40555.93
550.05	40361.37
550.25	40758.67
550.45	41231.75
550.66	40742.29
550.86	40619.41
551.06	40838.54
551.26	41395.59
551.46	41409.93
551.66	41217.42
551.87	41086.35
552.07	41407.88
552.27	41131.40
552.47	41358.73
552.67	41235.85
552.87	41545.09
553.07	41559.43
553.28	41508.23
553.48	41774.47
553.68	41637.25
553.88	42016.13
554.08	41760.13
554.28	41887.10
554.48	41624.96
554.69	42235.26
554.89	42167.68
555.09	42456.44
555.29	42030.46
555.49	42612.09
555.69	42399.10
555.89	42313.08
556.10	42667.38
556.30	42384.76
556.50	42554.74
556.70	42728.82
556.90	42802.55
557.10	42913.14
557.30	42704.24
557.50	43103.60
557.70	42972.53
557.91	43134.32
558.11	43052.40
558.31	43515.24
558.51	42841.46
558.71	42853.75
558.91	43459.94
559.11	43146.61
559.31	43294.06
559.51	43275.63
559.72	43410.79
559.92	43605.35
560.12	43355.50
560.32	43748.71
560.52	43644.26
560.72	43453.80
560.92	44070.24
561.12	43750.76
561.32	44127.58
561.52	43527.53
561.72	44176.73
561.93	43478.38
562.13	44049.76
562.33	44014.94
562.53	44901.71
562.73	43955.55
562.93	44475.74
563.13	44420.44
563.33	44088.67
563.53	44643.67
563.73	43937.12
563.93	44475.74
564.13	44942.67
564.33	44635.48
564.53	44477.79
564.74	44797.27
564.94	44580.18
565.14	44836.18
565.34	44324.19
565.54	45014.35
565.74	44782.93
565.94	44983.63
566.14	44973.39
566.34	44668.25
566.54	45477.19
566.74	45026.64
566.94	45116.75
567.14	45434.19
567.34	45204.81
567.54	45118.80
567.74	45368.65
567.94	45307.21
568.14	45315.40
568.34	45577.54
568.54	45555.02
568.74	45765.96
568.94	45681.99
569.14	45671.75
569.34	45514.06
569.54	45819.20
569.75	45489.48
569.95	45305.16
570.15	45851.97
570.35	45626.70
570.55	45907.27
570.75	45954.37
570.95	45970.75
571.15	46257.47
571.35	46312.77
571.55	46396.73
571.75	46544.19
571.95	46497.08
572.15	45868.36
572.35	46257.47
572.55	46284.09
572.75	46777.65
572.95	46417.21
573.15	46464.32
573.35	46404.92
573.55	46335.29
573.75	46320.96
573.95	46593.34
574.15	46837.05
574.35	47271.21
574.55	46560.57
574.75	46615.86
574.95	46615.86
575.15	46998.83
575.34	46861.62
575.54	47152.43
575.74	47150.38
575.94	47152.43
576.14	46998.83
576.34	47506.73
576.54	47463.72
576.74	47684.90
576.94	47340.85
577.14	47447.34
577.34	47781.16
577.54	47430.96
577.74	47390.00
577.94	47783.21
578.14	47306.03
578.34	48014.63
578.54	47543.59
578.74	47734.06
578.94	48059.68
579.14	47562.03
579.34	47725.86
579.54	48268.58
579.74	47969.57
579.94	48194.85
580.13	48334.11
580.33	48379.17
580.53	47967.52
580.73	48276.77
580.93	47975.72
581.13	48145.70
581.33	48788.76
581.53	48483.61
581.73	48512.28
581.93	48508.19
582.13	48811.29
582.33	48825.62
582.53	48747.80
582.73	48870.68
582.92	48850.20
583.12	49276.18
583.32	49050.90
583.52	48583.96
583.72	48751.90
583.92	48809.24
584.12	48817.43
584.32	49341.71
584.52	49198.35
584.72	49267.98
584.92	49196.31
585.11	49747.21
585.31	49116.43
585.51	49349.90
585.71	49059.09
585.91	49419.53
586.11	49575.18
586.31	48852.25
586.51	49382.67
586.71	49446.16
586.91	49542.41
587.10	49534.22
587.30	49579.28
587.50	49865.99
587.70	49599.76
587.90	49589.52
588.10	49626.38
588.30	49736.97
588.50	49882.37
588.69	49909.00
588.89	49505.55
589.09	50181.38
589.29	49972.49
589.49	50349.31
589.69	49921.29
589.89	49790.22
590.08	50517.25
590.28	50291.97
590.48	50402.56
590.68	49777.93
590.88	50380.03
591.08	50181.38
591.28	50058.50
591.47	50779.39
591.67	49857.80
591.87	50279.68
592.07	50396.42
592.27	50373.89
592.47	50470.14
592.67	50390.27
592.86	50423.04
593.06	50689.27
593.26	50697.47
593.46	50459.90
593.66	50349.31
593.86	50728.19
594.05	50857.21
594.25	51272.95
594.45	50619.64
594.65	50586.88
594.85	50504.96
595.05	50803.96
595.24	51021.05
595.44	51000.57
595.64	51078.39
595.84	50832.63
596.04	50410.75
596.23	50945.27
596.43	51086.58
596.63	51049.72
596.83	50871.54
597.03	51246.32
597.22	51440.88
597.42	51246.32
597.62	51184.88
597.82	51135.73
598.02	51283.19
598.21	51365.10
598.41	51094.77
598.61	51483.89
598.81	51852.52
599.01	51764.46
599.20	51457.26
599.40	51584.24
599.60	51748.07
599.80	51643.63
600.00	51801.32
600.19	51809.51
600.39	51703.02
600.59	52237.54
600.79	52364.51
600.98	51922.15
601.18	51961.06
601.38	52221.16
601.58	51963.11
601.78	52430.05
601.97	52065.51
602.17	52501.73
602.37	52536.54
602.57	52212.96
602.76	52667.61
602.96	52481.25
603.16	52567.26
603.36	52331.75
603.55	52485.34
603.75	52755.68
603.95	52731.10
604.15	52597.98
604.34	52434.14
604.54	52946.14
604.74	52960.47
604.94	52919.51
605.13	53034.20
605.33	52827.35
605.53	52376.80
605.73	53097.69
605.92	52972.76
606.12	52720.86
606.32	53253.33
606.52	53200.08
606.71	53144.79
606.91	53386.45
607.11	52966.62
607.30	53341.39
607.50	53112.02
607.70	53075.16
607.90	53218.52
608.09	53286.10
608.29	53490.90
608.49	53441.74
608.68	53664.97
608.88	53355.73
609.08	53621.97
609.28	53632.21
609.47	52987.10
609.67	53884.11
609.87	53540.05
610.06	53736.65
610.26	53556.43
610.46	53845.19
610.66	53775.56
610.85	53882.06
611.05	53720.27
611.25	53712.08
611.44	53546.19
611.64	53687.50
611.84	53417.17
612.03	53716.17
612.23	53966.02
612.43	53794.00
612.62	53564.62
612.82	53861.58
613.02	53402.83
613.21	53859.53
613.41	53847.24
613.61	53966.02
613.80	53716.17
614.00	53798.09
614.20	54248.64
614.39	53691.60
614.59	54011.08
614.79	54060.23
614.98	53800.14
615.18	53904.59
615.38	53869.77
615.57	53624.01
615.77	54856.89
615.97	53644.49
616.16	53894.35
616.36	53839.05
616.56	53841.10
616.75	53882.06
616.95	53667.02
617.15	53841.10
617.34	54004.94
617.54	54150.34
617.74	54680.77
617.93	53867.72
618.13	53814.47
618.32	53814.47
618.52	53533.90
618.72	53972.17
618.91	53994.70
619.11	53763.28
619.31	53785.80
619.50	54115.53
619.70	53478.61
619.90	53712.08
620.09	54039.75
620.29	54199.49
620.48	54062.28
620.68	54426.82
620.88	54019.27
621.07	53906.63
621.27	54011.08
621.46	53589.20
621.66	54015.18
621.86	54027.46
622.05	53976.26
622.25	54379.71
622.44	54027.46
622.64	53724.36
622.84	53816.52
623.03	53638.35
623.23	54076.61
623.42	54033.61
623.62	54033.61
623.82	54361.28
624.01	54252.74
624.21	54334.66
624.40	53851.34
624.60	53970.12
624.80	54049.99
624.99	53853.39
625.19	53859.53
625.38	54150.34
625.58	53765.32
625.77	54090.95
625.97	54006.98
626.17	53589.20
626.36	54136.01
626.56	54467.78
626.75	53650.64
626.95	54258.88
627.14	53734.60
627.34	54351.04
627.54	53763.28
627.73	54179.01
627.93	54082.76
628.12	53902.54
628.32	54088.90
628.51	54015.18
628.71	54035.66
628.90	54332.61
629.10	53890.25
629.30	54273.22
629.49	54121.67
629.69	54017.22
629.88	54369.47
630.08	54414.53
630.27	54531.26
630.47	54555.84
630.66	53982.41
630.86	54240.45
631.05	54039.75
631.25	54650.05
631.44	54275.27
631.64	54199.49
631.84	54715.58
632.03	54852.80
632.23	54099.14
632.42	54854.84
632.62	54203.59
632.81	54047.94
633.01	54318.28
633.20	54453.44
633.40	54473.92
633.59	54424.77
633.79	54289.60
633.98	54889.66
634.18	54723.77
634.37	54297.80
634.57	54482.11
634.76	54754.49
634.96	54428.87
635.15	54875.32
635.35	54359.23
635.54	54508.74
635.74	55350.45
635.93	54543.55
636.13	55039.16
636.32	54967.48
636.52	54598.85
636.71	54697.15
636.91	55198.90
637.10	55141.56
637.30	54535.36
637.49	54578.37
637.69	54734.01
637.88	55100.60
638.08	54940.86
638.27	54926.52
638.46	54774.97
638.66	54830.27
638.85	55303.35
639.05	54852.80
639.24	54858.94
639.44	54875.32
639.63	55301.30
639.83	55174.33
640.02	55078.07
640.22	55401.65
640.41	55239.86
640.61	54596.80
640.80	55211.19
640.99	55463.09
641.19	56079.53
641.38	55250.10
641.58	55481.52
641.77	55311.54
641.97	55006.39
642.16	55178.42
642.36	55620.78
642.55	55790.76
642.74	55100.60
642.94	56181.93
643.13	55432.37
643.33	55583.92
643.52	55915.69
643.72	55798.96
643.91	55477.43
644.10	55762.09
644.30	56071.34
644.49	55567.54
644.69	55952.55
644.88	56065.19
645.08	55651.50
645.27	55717.04
645.46	55354.55
645.66	55954.60
645.85	55850.16
646.05	56054.95
646.24	56337.57
646.43	56079.53
646.63	56337.57
646.82	56306.85
647.02	56554.66
647.21	56310.95
647.40	56302.76
647.60	56216.74
647.79	56601.76
647.99	56317.09
648.18	55995.56
648.37	56568.99
648.57	56622.24
648.76	56276.13
648.96	56450.21
649.15	56714.40
649.34	56673.44
649.54	56759.45
649.73	56063.14
649.92	57042.07
650.12	56704.16
650.31	56640.67
650.51	56964.25
650.70	56917.15
650.89	56550.56
651.09	57144.47
651.28	56577.18
651.47	56741.02
651.67	56820.89
651.86	57463.96
652.06	56538.27
652.25	56816.80
652.44	56640.67
652.64	56911.00
652.83	57134.23
653.02	56939.68
653.22	57160.86
653.41	56399.01
653.60	56738.97
653.80	56767.65
653.99	57488.53
654.18	56947.87
654.38	56769.69
654.57	57058.46
654.76	56923.29
654.96	56691.87
655.15	57042.07
655.34	57013.40
655.54	56349.86
655.73	56827.04
655.92	57158.81
656.12	57046.17
656.31	57351.32
656.50	57308.31
656.70	57248.92
656.89	57271.45
657.08	57418.90
657.28	57230.49
657.47	56956.06
657.66	57033.88
657.86	57408.66
658.05	57169.05
658.24	57660.56
658.43	57349.27
658.63	57775.25
658.82	57515.15
659.01	57447.57
659.21	57762.96
659.40	57959.56
659.59	56900.76
659.79	57539.73
659.98	57472.15
660.17	57650.32
660.36	57625.74
660.56	58274.95
660.75	57771.15
660.94	57799.82
661.14	57394.32
661.33	57537.68
661.52	57439.38
661.71	57582.74
661.91	57687.18
662.10	57717.90
662.29	58053.77
662.49	57668.75
662.68	57451.67
662.87	57867.40
663.06	57701.52
663.26	57969.80
663.45	58188.94
663.64	57961.61
663.83	58457.22
664.03	57869.45
664.22	57595.03
664.41	57709.71
664.60	57439.38
664.80	57805.97
664.99	57541.78
665.18	58049.67
665.37	58307.72
665.57	58111.11
665.76	57707.66
665.95	58236.04
666.14	57908.36
666.34	57681.04
666.53	57785.49
666.72	57592.98
666.91	57466.00
667.11	57691.28
667.30	57429.14
667.49	57558.16
667.68	57713.81
667.87	57654.42
668.07	57740.43
668.26	58051.72
668.45	57963.66
668.64	57904.27
668.84	58508.42
669.03	58037.39
669.22	57760.91
669.41	57793.68
669.60	57758.86
669.80	57244.82
669.99	58127.50
670.18	57742.48
670.37	57775.25
670.57	58311.81
670.76	57635.98
670.95	58440.84
671.14	57670.80
671.33	58086.54
671.53	58059.91
671.72	58317.96
671.91	58147.98
672.10	57717.90
672.29	57924.75
672.48	57359.51
672.68	58021.00
672.87	57468.05
673.06	57926.80
673.25	57820.30
673.44	57803.92
673.64	57978.00
673.83	57328.79
674.02	57621.65
674.21	57259.16
674.40	57676.94
674.59	57269.40
674.79	57533.59
674.98	57816.21
675.17	57994.38
675.36	57853.07
675.55	57580.69
675.74	57515.15
675.94	57586.83
676.13	57539.73
676.32	57646.22
676.51	58137.74
676.70	57834.64
676.89	57742.48
677.08	57783.44
677.28	57586.83
677.47	57846.93
677.66	57932.94
677.85	57500.82
678.04	57902.22
678.23	57621.65
678.42	57830.54
678.62	57857.17
678.81	57562.26
679.00	57500.82
679.19	58143.88
679.38	57537.68
679.57	57652.37
679.76	57537.68
679.96	57881.74
680.15	57588.88
680.34	57732.24
680.53	57232.53
680.72	57840.78
680.91	57777.29
681.10	57359.51
681.29	57685.14
681.48	57359.51
681.68	57496.72
681.87	57095.32
682.06	57246.87
682.25	57064.60
682.44	56972.44
682.63	57730.19
682.82	56994.97
683.01	57255.06
683.20	57052.31
683.39	56974.49
683.59	57128.09
683.78	56546.47
683.97	56888.48
684.16	56800.41
684.35	57042.07
684.54	56589.47
684.73	56738.97
684.92	56687.78
685.11	56868.00
685.30	57113.75
685.49	57222.29
685.69	56745.12
685.88	56794.27
686.07	56827.04
686.26	56716.45
686.45	56724.64
686.64	57070.75
686.83	56896.67
687.02	57169.05
687.21	57009.31
687.40	56896.67
687.59	56853.66
687.78	57121.94
687.97	57162.90
688.16	56226.98
688.35	56319.14
688.54	57003.16
688.74	56558.75
688.93	56431.78
689.12	56143.02
689.31	56308.90
689.50	56233.13
689.69	55907.50
689.88	55948.46
690.07	56235.17
690.26	56057.00
690.45	57228.44
690.64	56786.08
690.83	56382.63
691.02	55895.21
691.21	56087.72
691.40	56147.11
691.59	56394.92
691.78	56009.90
691.97	56818.84
692.16	56212.65
692.35	55909.55
692.54	55907.50
692.73	56226.98
692.92	55862.44
693.11	56304.80
693.30	56204.45
693.49	56083.62
693.68	55696.56
693.87	55751.85
694.06	55403.70
694.25	55303.35
694.44	55620.78
694.63	55585.97
694.82	56067.24
695.01	55751.85
695.20	55448.75
695.39	55592.11
695.58	55522.48
695.77	55573.68
695.96	55168.18
696.15	55827.63
696.34	55164.09
696.53	55452.85
696.72	55829.68
696.91	55129.27
697.10	55446.71
697.29	55413.94
697.48	55706.80
697.67	55116.98
697.86	55076.02
698.05	55243.96
698.24	55317.68
698.43	54965.43
698.62	55039.16
698.81	55151.80
699.00	54887.61
699.19	54871.23
699.38	54768.83
699.57	54797.50
699.76	55583.92
699.95	55041.21
700.14	54850.75
700.32	54955.19
700.51	54662.33
700.70	55256.24
700.89	55370.93
701.08	54752.44
701.27	54963.39
701.46	54717.63
701.65	54445.25
701.84	54344.90
702.03	54985.91
702.22	54328.52
702.41	54676.67
702.60	54555.84
702.79	54355.14
702.98	53863.63
703.17	54260.93
703.35	54142.15
703.54	54174.92
703.73	54490.30
703.92	54125.77
704.11	54019.27
704.30	53818.57
704.49	53603.53
704.68	53796.04
704.87	53920.97
705.06	53558.48
705.25	53673.16
705.43	53900.49
705.62	53466.32
705.81	53482.70
706.00	53949.64
706.19	53826.76
706.38	53464.27
706.57	53544.14
706.76	53173.46
706.95	53454.03
707.14	52917.46
707.32	53707.98
707.51	53042.39
707.70	53306.58
707.89	53388.50
708.08	53458.13
708.27	53542.10
708.46	53388.50
708.65	53114.07
708.84	53359.83
709.02	53517.52
709.21	53093.59
709.40	53185.75
709.59	53503.18
709.78	52806.87
709.97	53071.06
710.16	52720.86
710.34	52491.49
710.53	52739.29
710.72	52819.16
710.91	52909.27
711.10	52978.90
711.29	52653.28
711.48	52720.86
711.66	52581.60
711.85	52237.54
712.04	52374.75
712.23	52731.10
712.42	52356.32
712.61	52716.76
712.80	52374.75
712.98	52260.07
713.17	52268.26
713.36	52221.16
713.55	52124.90
713.74	52163.81
713.93	52225.25
714.11	52272.35
714.30	51496.17
714.49	52030.69
714.68	51602.67
714.87	52397.28
715.06	52319.46
715.24	51778.79
715.43	51303.67
715.62	51270.90
715.81	51606.76
716.00	51895.53
716.18	51043.57
716.37	51580.14
716.56	51375.34
716.75	51795.18
716.94	51432.69
717.12	51236.08
717.31	51401.97
717.50	51231.99
717.69	51209.46
717.88	51281.14
718.06	51152.12
718.25	51373.30
718.44	51041.53
718.63	51227.89
718.82	50748.67
719.00	51361.01
719.19	50515.20
719.38	50566.40
719.57	50781.43
719.76	50150.66
719.94	50078.98
720.13	50095.36
720.32	50480.38
720.51	50189.57
720.69	49997.06
720.88	50355.46
721.07	50205.95
721.26	49865.99
721.44	49644.81
721.63	49861.90
721.82	49767.69
722.01	49493.26
722.20	50091.27
722.38	49818.89
722.57	49306.90
722.76	49657.10
722.95	49759.50
723.13	49003.80
723.32	49065.24
723.51	49300.75
723.70	48985.36
723.88	48981.27
724.07	49014.04
724.26	49128.72
724.44	48776.47
724.63	49321.23
724.82	48338.21
725.01	49118.48
725.19	48790.81
725.38	48514.33
725.57	48962.84
725.76	49001.75
725.94	48850.20
726.13	49138.96
726.32	48780.57
726.51	48479.52
726.69	49130.77
726.88	49044.76
727.07	48809.24
727.25	48770.33
727.44	48485.66
727.63	48258.34
727.82	48512.28
728.00	48729.37
728.19	47953.19
728.38	48456.99
728.56	48022.82
728.75	48352.54
728.94	48246.05
729.12	48555.29
729.31	48549.15
729.50	48504.09
729.69	48346.40
729.87	48416.03
730.06	48344.35
730.25	48090.40
730.43	48383.26
730.62	47938.85
730.81	48096.55
730.99	48037.16
731.18	48301.34
731.37	48139.55
731.55	48743.70
731.74	48016.68
731.93	48180.51
732.11	48633.11
732.30	48028.96
732.49	47658.28
732.67	48104.74
732.86	48147.75
733.05	48141.60
733.23	47686.95
733.42	48104.74
733.61	48149.79
733.79	47904.04
733.98	48080.16
734.17	47897.89
734.35	47621.42
734.54	47893.80
734.73	48370.97
734.91	48059.68
735.10	47770.92
735.29	48346.40
735.47	47412.52
735.66	47758.63
735.84	47971.62
736.03	47727.91
736.22	47979.81
736.40	47631.66
736.59	47377.71
736.78	47555.88
736.96	47740.20
737.15	47713.58
737.33	47390.00
737.52	47596.84
737.71	47564.07
737.89	47090.99
738.08	46841.14
738.27	47543.59
738.45	47490.35
738.64	47519.02
738.82	47134.00
739.01	47095.09
739.20	47496.49
739.38	47379.76
739.57	48084.26
739.75	47054.13
739.94	46927.16
740.13	47277.36
740.31	47105.33
740.50	46972.21
740.68	47215.92
740.87	47084.85
741.06	47052.08
741.24	47023.41
741.43	46726.46
741.61	47111.47
741.80	46636.34
741.99	46751.03
742.17	46431.55
742.36	46773.56
742.54	46878.00
742.73	46306.62
742.91	46841.14
743.10	46456.12
743.29	46425.40
743.47	46914.87
743.66	46691.64
743.84	46619.96
744.03	46513.47
744.21	46249.28
744.40	46849.33
744.59	46142.78
744.77	46298.43
744.96	46404.92
745.14	46517.56
745.33	46490.94
745.51	46380.35
745.70	46464.32
745.88	46372.16
746.07	46650.68
746.26	46120.26
746.44	45968.71
746.63	45876.55
746.81	46228.80
747.00	46091.58
747.18	46439.74
747.37	46175.55
747.55	45796.68
747.74	46380.35
747.92	45772.10
748.11	45878.60
748.29	46261.57
748.48	46060.87
748.66	45710.66
748.85	45878.60
749.03	45929.80
749.22	45626.70
749.41	45512.01
749.59	45600.07
749.78	45438.28
749.96	45489.48
750.15	45624.65
750.33	45604.17
750.52	45591.88
750.70	45399.37
750.89	45434.19
751.07	45028.69
751.26	45368.65
751.44	45202.77
751.63	45118.80
751.81	45079.89
752.00	44909.91
752.18	45282.64
752.37	45090.13
752.55	44926.29
752.74	44868.95
752.92	45020.50
753.10	44877.14
753.29	44895.57
753.47	44852.56
753.66	44727.64
753.84	44760.40
754.03	44602.71
754.21	44291.42
754.40	44643.67
754.58	44660.05
754.77	44361.05
754.95	44430.68
755.14	44680.53
755.32	44506.46
755.51	43914.59
755.69	44354.91
755.88	44287.32
756.06	44254.56
756.24	43943.27
756.43	44229.98
756.61	44133.73
756.80	44139.87
756.98	44223.84
757.17	44215.65
757.35	44455.26
757.54	43720.04
757.72	44254.56
757.90	43576.68
758.09	43513.19
758.27	43799.91
758.46	43722.08
758.64	43906.40
758.83	43992.42
759.01	43812.20
759.19	43914.59
759.38	43992.42
759.56	44244.32
759.75	43498.86
759.93	43849.06
760.12	43353.45
760.30	43840.87
760.48	43228.52
760.67	43717.99
760.85	43691.37
761.04	43740.52
761.22	43541.86
761.40	43515.24
761.59	43511.14
761.77	43531.62
761.96	43492.71
762.14	43449.70
762.32	42927.47
762.51	43156.85
762.69	43267.44
762.88	43210.09
763.06	43036.02
763.24	42939.76
763.43	43017.58
763.61	43232.62
763.80	43091.31
763.98	42847.60
764.16	42990.96
764.35	42681.72
764.53	42440.06
764.72	42589.56
764.90	42468.73
765.08	42708.34
765.27	42628.47
765.45	42493.30
765.63	42227.07
765.82	42595.70
766.00	41985.41
766.18	42552.69
766.37	42691.96
766.55	42515.83
766.74	42282.36
766.92	42255.74
767.10	42186.11
767.29	42329.47
767.47	41883.01
767.65	42065.28
767.84	41817.47
768.02	42089.85
768.20	41684.36
768.39	42034.56
768.57	41958.78
768.75	41604.49
768.94	41807.23
769.12	41891.20
769.30	41809.28
769.49	41905.54
769.67	41641.35
769.85	41174.41
770.04	41409.93
770.22	41344.39
770.40	41164.17
770.59	41149.84
770.77	41688.45
770.95	41270.67
771.14	40998.29
771.32	41276.81
771.50	40555.93
771.69	41151.88
771.87	41352.58
772.05	41014.67
772.24	40576.40
772.42	40932.75
772.60	40672.66
772.78	40531.35
772.97	40533.40
773.15	41248.14
773.33	40629.65
773.52	40279.45
773.70	40687.00
773.88	41254.28
774.07	40969.61
774.25	40969.61
774.43	40818.07
774.61	40547.73
774.80	40541.59
774.98	40420.76
775.16	40848.78
775.34	41162.12
775.53	40482.20
775.71	40680.85
775.89	40963.47
776.08	40912.27
776.26	40824.21
776.44	40914.32
776.62	40654.23
776.81	40836.50
776.99	40654.23
777.17	40834.45
777.35	41061.77
777.54	41256.33
777.72	41129.36
777.90	41014.67
778.08	41121.16
778.27	41158.03
778.45	41313.67
778.63	41463.18
778.81	41018.77
779.00	41612.68
779.18	41241.99
779.36	41700.74
779.54	41178.51
779.73	41121.16
779.91	41325.96
780.09	41254.28
780.27	41891.20
780.46	41270.67
780.64	41715.08
780.82	41471.37
781.00	41391.50
781.19	41776.51
781.37	41891.20
781.55	41657.73
781.73	41952.64
781.91	41829.76
782.10	41239.95
782.28	41739.65
782.46	41940.35
782.64	42130.81
782.82	41500.04
783.01	41944.45
783.19	42038.65
783.37	42087.81
783.55	41555.33
783.74	42161.53
783.92	41829.76
784.10	41962.88
784.28	42014.08
784.46	41788.80
784.64	41751.94
784.83	41880.96
785.01	41962.88
785.19	41809.28
785.37	41917.82
785.55	41829.76
785.74	41461.13
785.92	41332.11
786.10	41706.88
786.28	41618.82
786.46	41364.87
786.64	41338.25
786.83	41747.84
787.01	42001.79
787.19	41399.69
787.37	41567.62
787.55	41592.20
787.74	41414.02
787.92	41276.81
788.10	41317.77
788.28	41143.69
788.46	41530.76
788.64	41016.72
788.82	42036.61
789.01	41092.49
789.19	41295.24
789.37	41121.16
789.55	41385.35
789.73	40865.17
789.91	41059.73
790.09	41479.56
790.28	40885.65
790.46	40680.85
790.64	40754.58
790.82	40750.48
791.00	40662.42
791.18	40433.05
791.36	40816.02
791.55	40400.28
791.73	40213.91
791.91	40082.84
792.09	40125.85
792.27	40099.23
792.45	40023.45
792.63	40291.74
792.81	39953.82
793.00	40029.60
793.18	39716.26
793.36	39560.61
793.54	39067.05
793.72	39294.38
793.90	39519.65
794.08	39368.10
794.26	39577.00
794.44	38884.78
794.62	39228.84
794.81	39337.38
794.99	39167.40
795.17	38839.73
795.35	38753.71
795.53	39038.38
795.71	39306.66
795.89	38753.71
796.07	38225.34
796.25	38475.19
796.43	38227.38
796.61	38200.76
796.80	38127.03
796.98	38528.44
797.16	38057.40
797.34	38118.84
797.52	38071.74
797.70	38329.78
797.88	37717.44
798.06	37535.17
798.24	37957.05
798.42	37791.17
798.60	37481.92
798.78	37131.72
798.96	37449.16
799.14	37377.48
799.32	37557.70
799.51	36746.70
799.69	37053.90
799.87	37191.11
800.05	36826.57
800.23	36761.04
800.41	37029.32
800.59	36691.41
800.77	36433.36
800.95	36128.22
801.13	36648.40
801.31	36330.97
801.49	36494.80
801.67	36255.19
801.85	35945.95
802.03	35884.51
802.21	35866.08
802.39	35730.91
802.57	35868.12
802.75	35968.48
802.93	35911.13
803.11	35372.52
803.29	35503.59
803.47	35280.36
803.65	35653.09
803.83	35139.05
804.01	35692.00
804.19	34745.84
804.37	35098.09
804.55	35042.79
804.73	35079.66
804.91	34913.77
805.09	35098.09
805.27	34586.10
805.45	35067.37
805.63	34950.63
805.81	34999.79
805.99	34782.70
806.17	34885.10
806.35	34471.41
806.53	34342.39
806.71	34573.81
806.89	34072.06
807.07	34405.88
807.25	34180.60
807.43	33668.61
807.61	34235.89
807.79	33926.65
807.97	33607.17
808.15	33854.97
808.33	33529.34
808.51	33791.48
808.69	33637.89
808.87	33478.15
809.05	33285.64
809.23	33353.22
809.41	33189.38
809.59	33107.46
809.77	33277.44
809.95	33070.60
810.13	33381.89
810.31	32726.54
810.49	33070.60
810.67	32919.05
810.84	33261.06
811.02	32712.20
811.20	32615.95
811.38	32677.39
811.56	32210.45
811.74	32390.67
811.92	32417.30
812.10	32517.65
812.28	32413.20
812.46	32144.92
812.64	32474.64
812.82	32230.93
813.00	31966.74
813.18	31895.07
813.36	31854.11
813.53	31606.30
813.71	32011.80
813.89	31749.66
814.07	31905.31
814.25	31579.68
814.43	31378.98
814.61	31450.66
814.79	31641.12
814.97	31290.91
815.15	31454.75
815.33	31092.26
815.50	31272.48
815.68	31321.63
815.86	31391.26
816.04	30826.03
816.22	31295.01
816.40	31274.53
816.58	30858.79
816.76	30660.14
816.94	30783.02
817.11	30490.16
817.29	30754.35
817.47	30520.88
817.65	30664.24
817.83	30744.11
818.01	30594.61
818.19	30553.65
818.37	30506.54
818.54	30369.33
818.72	30029.37
818.90	30518.83
819.08	30336.56
819.26	29953.59
819.44	29773.37
819.62	30203.44
819.80	30033.46
819.97	29947.45
820.15	29961.78
820.33	30023.22
820.51	30002.74
820.69	29693.50
820.87	29734.46
821.05	30197.30
821.22	29318.72
821.40	29580.86
821.58	29656.64
821.76	29279.81
821.94	29466.17
822.12	29314.62
822.29	29650.49
822.47	29222.47
822.65	29556.28
822.83	29355.58
823.01	29148.74
823.19	28956.23
823.36	29279.81
823.54	29171.27
823.72	28786.25
823.90	28894.79
824.08	28802.63
824.25	28759.63
824.43	28679.75
824.61	28855.88
824.79	28773.96
824.97	28434.00
825.15	28911.17
825.32	28819.02
825.50	28593.74
825.68	28687.95
825.86	28618.32
826.04	28628.56
826.21	28313.17
826.39	28202.58
826.57	28268.11
826.75	28411.47
826.93	28286.54
827.10	27973.21
827.28	28198.48
827.46	28730.95
827.64	28485.20
827.81	28026.45
827.99	28352.08
828.17	27862.61
828.35	28030.55
828.53	27780.70
828.70	27639.39
828.88	28044.88
829.06	27688.54
829.24	28165.71
829.41	27651.67
829.59	27780.70
829.77	27567.71
829.95	27784.79
830.12	27493.98
830.30	27414.11
830.48	27569.76
830.66	27536.99
830.84	27676.25
831.01	27405.92
831.19	27342.43
831.37	27283.04
831.55	27217.50
831.72	27297.38
831.90	27174.50
832.08	27231.84
832.25	27364.96
832.43	27237.98
832.61	27154.02
832.79	27043.43
832.96	27010.66
833.14	27020.90
833.32	27407.97
833.50	26859.11
833.67	27098.72
833.85	26988.13
834.03	26531.44
834.20	26734.18
834.38	26771.05
834.56	26967.65
834.74	26535.53
834.91	26615.40
835.09	26648.17
835.27	26214.00
835.44	26426.99
835.62	26332.78
835.80	26240.62
835.98	26560.11
836.15	26357.36
836.33	26386.03
836.51	26490.48
836.68	26099.31
836.86	26508.91
837.04	25974.39
837.21	26044.02
837.39	26584.68
837.57	26459.76
837.75	26410.60
837.92	25921.14
838.10	25753.21
838.28	25796.21
838.45	25712.25
838.63	25474.68
838.81	25966.20
838.98	25966.20
839.16	25790.07
839.34	25554.55
839.51	25837.17
839.69	25474.68
839.87	25224.83
840.04	25761.40
840.22	25556.60
840.40	25085.57
840.57	25140.86
840.75	25503.35
840.93	25167.49
841.10	25566.84
841.28	25646.71
841.46	25157.25
841.63	25486.97
841.81	25167.49
841.98	24972.93
842.16	25241.21
842.34	25210.50
842.51	24909.44
842.69	24954.50
842.87	25376.38
843.04	25329.28
843.22	24764.04
843.40	25009.79
843.57	24936.07
843.75	24821.38
843.92	24989.31
844.10	24796.81
844.28	25060.99
844.45	24903.30
844.63	24977.03
844.81	24559.24
844.98	24598.15
845.16	24845.96
845.33	24688.26
845.51	24714.89
845.69	24856.20
845.86	24299.15
846.04	24534.67
846.21	24573.58
846.39	24491.66
846.57	24176.27
846.74	24348.30
846.92	24553.10
847.09	24374.92
847.27	24114.83
847.45	24325.77
847.62	24348.30
847.80	24229.52
847.97	24336.01
848.15	23903.89
848.32	24221.33
848.50	23942.80
848.68	23862.93
848.85	23998.10
849.03	23742.10
849.20	23916.18
849.38	23721.62
849.56	23981.71
849.73	23520.92
849.91	23631.51
850.08	23936.66
850.26	23746.20
850.43	23781.01
850.61	23760.53
850.78	23402.14
850.96	23561.88
851.14	23262.88
851.31	23656.09
851.49	23379.61
851.66	23821.97
851.84	23295.64
852.01	23588.50
852.19	23355.04
852.36	23129.76
852.54	23404.19
852.71	23242.40
852.89	23367.32
853.07	23258.78
853.24	23187.10
853.42	23217.82
853.59	23412.38
853.77	23283.36
853.94	23125.66
854.12	23432.86
854.29	23025.31
854.47	23125.66
854.64	23211.68
854.82	22849.19
854.99	22828.71
855.17	22980.26
855.34	22879.91
855.52	22814.37
855.69	22838.95
855.87	22898.34
856.04	22773.41
856.22	22605.48
856.39	22468.27
856.57	22546.09
856.74	22578.86
856.92	22609.58
857.09	22648.49
857.27	22286.00
857.44	22511.27
857.62	22535.85
857.79	22517.42
857.97	22296.24
858.14	22322.86
858.32	22568.62
858.49	22242.99
858.67	22128.30
858.84	22101.68
859.02	22263.47
859.19	22228.65
859.37	21993.14
859.54	22073.01
859.72	22097.58
859.89	22165.17
860.06	22138.54
860.24	22017.71
860.41	22185.65
860.59	21882.55
860.76	22206.13
860.94	21806.77
861.11	21892.79
861.29	21792.44
861.46	21784.24
861.64	21454.52
861.81	21704.37
861.98	21714.61
862.16	21616.31
862.33	21532.34
862.51	21272.25
862.68	21610.17
862.86	21624.50
863.03	21466.81
863.21	21436.09
863.38	21286.59
863.55	21335.74
863.73	21366.46
863.90	21114.56
864.08	21483.19
864.25	21210.81
864.43	21409.47
864.60	21325.50
864.77	20969.15
864.95	21092.03
865.12	20817.60
865.30	21264.06
865.47	20911.81
865.64	20727.49
865.82	21089.98
865.99	21071.55
866.17	20786.88
866.34	21391.03
866.51	20616.90
866.69	20799.17
866.86	20848.32
867.04	20811.46
867.21	20967.10
867.38	20586.18
867.56	20614.85
867.73	20586.18
867.91	20461.26
868.08	20641.48
868.25	20297.42
868.43	20541.13
868.60	20369.10
868.78	20158.16
868.95	20459.21
869.12	20100.81
869.30	20057.81
869.47	20164.30
869.64	20133.58
869.82	20127.44
869.99	20195.02
870.16	20326.09
870.34	20285.13
870.51	20164.30
870.69	20125.39
870.86	19842.77
871.03	20260.55
871.21	19760.85
871.38	20149.96
871.55	19719.89
871.73	20115.15
871.90	19545.81
872.07	19748.56
872.25	19556.05
872.42	19646.16
872.59	19603.16
872.77	19324.63
872.94	19658.45
873.11	19627.73
873.29	19285.72
873.46	19316.44
873.63	19379.93
873.81	19379.93
873.98	19162.84
874.15	19242.71
874.33	19062.49
874.50	18824.93
874.67	19386.07
874.85	19173.08
875.02	19150.56
875.19	18982.62
875.37	18806.50
875.54	18855.65
875.71	18566.88
875.88	18673.38
876.06	18566.88
876.23	19168.99
876.40	18517.73
876.58	18314.98
876.75	18493.16
876.92	18585.32
877.10	18921.18
877.27	18466.53
877.44	18323.18
877.61	18284.26
877.79	18419.43
877.96	18282.22
878.13	18341.61
878.31	18034.41
878.48	17905.39
878.65	18099.95
878.82	18050.80
879.00	17979.12
879.17	18222.83
879.34	17962.73
879.51	18009.84
879.69	18128.62
879.86	17780.46
880.03	18036.46
880.21	17925.87
880.38	17837.81
880.55	17968.88
880.72	17579.76
880.90	17983.21
881.07	17643.25
881.24	17852.14
881.41	17501.94
881.59	17692.40
881.76	17848.05
881.93	17602.29
882.10	17561.33
882.28	17516.28
882.45	17788.66
882.62	17774.32
882.79	17557.24
882.96	17204.99
883.14	17671.92
883.31	17485.56
883.48	17411.83
883.65	17327.86
883.83	17501.94
884.00	17323.77
884.17	17547.00
884.34	17411.83
884.51	17188.60
884.69	17176.31
884.86	17084.16
885.03	17078.01
885.20	17147.64
885.38	17346.30
885.55	17045.24
885.72	17219.32
885.89	16883.45
886.06	16838.40
886.24	16787.20
886.41	17059.58
886.58	17170.17
886.75	17168.12
886.92	16715.52
887.10	16910.08
887.27	16801.54
887.44	16713.47
887.61	16905.98
887.78	17028.86
887.95	16840.45
888.13	16803.58
888.30	16707.33
888.47	16641.79
888.64	16824.06
888.81	16699.14
888.99	16420.61
889.16	16563.97
889.33	16412.42
889.50	16555.78
889.67	16305.93
889.84	16353.03
890.01	16533.25
890.19	16488.20
890.36	16404.23
890.53	16156.43
890.70	16205.58
890.87	16168.71
891.04	16088.84
891.22	16230.15
891.39	16150.28
891.56	15908.62
891.73	16379.65
891.90	16140.04
892.07	16029.45
892.24	16080.65
892.42	15898.38
892.59	15777.55
892.76	15826.70
892.93	15836.94
893.10	15791.89
893.27	15945.48
893.44	15638.29
893.61	15605.52
893.79	15791.89
893.96	15769.36
894.13	15578.90
894.30	15746.83
894.47	15785.74
894.64	16025.36
894.81	15552.27
894.98	15855.37
895.15	15939.34
895.33	15779.60
895.50	15845.13
895.67	15884.05
895.84	15685.39
896.01	15613.71
896.18	15535.89
896.35	15879.95
896.52	15542.03
896.69	15550.23
896.86	15599.38
897.04	15765.26
897.21	15638.29
897.38	15617.81
897.55	15413.01
897.72	15697.68
897.89	15515.41
898.06	15410.96
898.23	15496.98
898.40	15542.03
898.57	15507.22
898.74	15560.47
898.91	15363.86
899.08	15283.99
899.26	15406.87
899.43	15386.39
899.60	15197.98
899.77	15372.05
899.94	15392.53
900.11	15370.01
900.28	15728.40
900.45	15300.37
900.62	15408.92
900.79	15482.64
900.96	15523.60
901.13	15294.23
901.30	15167.26
901.47	15327.00
901.64	15617.81
901.81	15431.44
901.98	15390.49
902.15	15431.44
902.32	15081.24
902.49	15435.54
902.66	15400.72
902.83	15466.26
903.01	15437.59
903.18	15527.70
903.35	15253.27
903.52	15365.91
903.69	15453.97
903.86	15386.39
904.03	15492.88
904.20	15488.79
904.37	15353.62
904.54	15173.40
904.71	15175.45
904.88	15525.65
905.05	15277.85
905.22	15451.92
905.39	15175.45
905.56	15623.95
905.73	15087.39
905.90	15304.47
906.07	15322.90
906.24	15511.32
906.41	14995.23
906.58	15370.01
906.75	15413.01
906.92	15138.58
907.09	15273.75
907.26	15228.70
907.43	15107.87
907.60	15261.46
907.77	15453.97
907.93	15480.60
908.10	15402.77
908.27	15259.42
908.44	15083.29
908.61	15054.62
908.78	15413.01
908.95	15077.15
909.12	14800.67
909.29	15036.19
909.46	15089.43
909.63	15337.24
909.80	14966.56
909.97	15265.56
910.14	15148.82
910.31	15054.62
910.48	15208.22
910.65	15138.58
910.82	15083.29
910.99	15091.48
911.16	14827.29
911.33	15056.67
911.50	15058.71
911.66	14958.36
911.83	15310.61
912.00	14911.26
912.17	14675.74
912.34	14806.81
912.51	14927.64
912.68	14696.22
912.85	14790.43
913.02	14659.36
913.19	14649.12
913.36	14825.25
913.53	14829.34
913.70	14495.52
913.86	14700.32
914.03	14642.98
914.20	14466.85
914.37	14651.17
914.54	14556.96
914.71	14456.61
914.88	14429.99
915.05	14540.58
915.22	14192.42
915.39	14235.43
915.55	14071.59
915.72	14206.76
915.89	14217.00
916.06	14145.32
916.23	14071.59
916.40	13913.90
916.57	14032.68
916.74	14126.89
916.91	13991.72
917.07	13836.08
917.24	13899.56
917.41	14030.63
917.58	13829.93
917.75	13999.91
917.92	13780.78
918.09	13983.53
918.26	13606.70
918.42	13874.99
918.59	13733.68
918.76	13455.15
918.93	13522.74
919.10	13516.59
919.27	13389.62
919.44	13455.15
919.60	13496.11
919.77	13365.04
919.94	13227.83
920.11	13406.00
920.28	13430.58
920.45	13276.98
920.61	13209.40
920.78	12961.59
920.95	12961.59
921.12	13238.07
921.29	12881.72
921.46	12826.43
921.62	12799.80
921.79	12949.31
921.96	12697.41
922.13	12883.77
922.30	12826.43
922.47	12740.41
922.63	12758.85
922.80	12660.54
922.97	12719.93
923.14	12336.96
923.31	12578.62
923.47	12408.64
923.64	12529.47
923.81	12267.33
923.98	12382.02
924.15	12160.84
924.32	12220.23
924.48	12236.61
924.65	12095.30
924.82	12042.06
924.99	11882.31
925.15	11802.44
925.32	11953.99
925.49	11822.92
925.66	11933.51
925.83	11710.29
925.99	11786.06
926.16	11722.57
926.33	11650.89
926.50	11568.98
926.67	11706.19
926.83	11407.19
927.00	11552.59
927.17	11308.88
927.34	11403.09
927.50	11390.80
927.67	11452.24
927.84	11265.88
928.01	11280.21
928.17	11102.04
928.34	10962.78
928.51	11159.38
928.68	11134.81
928.84	10925.91
929.01	10856.28
929.18	10778.46
929.35	10786.65
929.51	10811.23
929.68	10669.92
929.85	10766.17
930.02	10749.79
930.18	10725.21
930.35	10477.41
930.52	10686.30
930.69	10436.45
930.85	10524.51
931.02	10379.11
931.19	10159.97
931.36	10377.06
931.52	10342.24
931.69	10346.34
931.86	10278.76
932.02	10311.52
932.19	10166.12
932.36	10039.14
932.53	10024.81
932.69	9932.65
932.86	10155.88
933.03	9932.65
933.19	9400.18
933.36	9703.28
933.53	9785.19
933.70	9744.24
933.86	9758.57
934.03	9615.21
934.20	9539.44
934.36	9662.32
934.53	9514.86
934.70	9119.60
934.86	9234.29
935.03	9234.29
935.20	8941.43
935.36	9250.67
935.53	9076.60
935.70	8980.34
935.86	8982.39
936.03	8814.46
936.20	8712.06
936.36	8687.48
936.53	8689.53
936.70	8517.50
936.86	8613.76
937.03	8537.98
937.20	8382.34
937.36	8251.27
937.53	8028.04
937.70	8112.00
937.86	7978.89
938.03	7743.37
938.20	7995.27
938.36	7772.04
938.53	7673.74
938.70	7616.40
938.86	7585.68
939.03	7520.14
939.20	7235.47
939.36	7280.53
939.53	7096.21
939.70	7440.27
939.86	6915.99
940.03	6961.05
940.19	6909.85
940.36	6918.04
940.53	6915.99
940.69	6703.00
940.86	6651.80
941.03	6432.67
941.19	6438.81
941.36	6465.44
941.52	6467.49
941.69	6326.18
941.86	6234.02
942.02	6139.81
942.19	6111.14
942.35	6164.39
942.52	5992.36
942.69	6137.76
942.85	5920.68
943.02	6125.47
943.18	5969.83
943.35	5961.64
943.52	5795.75
943.68	5664.68
943.85	5676.97
944.01	5674.92
944.18	5668.78
944.35	5629.87
944.51	5648.30
944.68	5420.97
944.84	5515.18
945.01	5402.54
945.17	5427.12
945.34	5582.76
945.51	5570.48
945.67	5396.40
945.84	5486.51
946.00	5324.72
946.17	5345.20
946.33	5240.75
946.50	5461.93
946.67	5277.62
946.83	5435.31
947.00	5525.42
947.16	5369.77
947.33	5291.95
947.49	5257.14
947.66	5177.26
947.82	5291.95
947.99	5244.85
948.16	5414.83
948.32	5308.34
948.49	5322.67
948.65	5406.64
948.82	5273.52
948.98	5259.18
949.15	5220.27
949.31	5355.44
949.48	5181.36
949.64	5205.94
949.81	5369.77
949.97	5347.25
950.14	5298.10
950.30	5283.76
950.47	5259.18
950.63	5257.14
950.80	5347.25
950.96	5289.90
951.13	5406.64
951.30	5302.19
951.46	5195.70
951.63	5357.49
951.79	5474.22
951.96	5330.86
952.12	5472.17
952.29	5193.65
952.45	5224.37
952.62	5418.93
952.78	5437.36
952.94	5423.02
953.11	5402.54
953.27	5228.46
953.44	5599.15
953.60	5337.01
953.77	5351.34
953.93	5212.08
954.10	5304.24
954.26	5384.11
954.43	5341.10
954.59	5455.79
954.76	5560.24
954.92	5453.74
955.09	5562.28
955.25	5461.93
955.42	5445.55
955.58	5580.71
955.75	5468.08
955.91	5466.03
956.07	5431.21
956.24	5498.80
956.40	5339.05
956.57	5552.04
956.73	5287.86
956.90	5506.99
957.06	5392.30
957.23	5445.55
957.39	5375.92
957.56	5511.08
957.72	5402.54
957.88	5535.66
958.05	5691.31
958.21	5461.93
958.38	5310.38
958.54	5470.12
958.71	5531.56
958.87	5423.02
959.03	5476.27
959.20	5537.71
959.36	5396.40
959.53	5246.90
959.69	5285.81
959.85	5355.44
960.02	5234.61
960.18	5541.80
960.35	5574.57
960.51	5509.04
960.68	5351.34
960.84	5365.68
961.00	5388.21
961.17	5412.78
961.33	5527.47
961.50	5593.00
961.66	5535.66
961.82	5412.78
961.99	5322.67
962.15	5392.30
962.31	5406.64
962.48	5492.65
962.64	5543.85
962.81	5406.64
962.97	5345.20
963.13	5470.12
963.30	5455.79
963.46	5484.46
963.62	5392.30
963.79	5484.46
963.95	5269.42
964.12	5433.26
964.28	5277.62
964.44	5351.34
964.61	5476.27
964.77	5406.64
964.93	5384.11
965.10	5359.53
965.26	5271.47
965.42	5205.94
965.59	5275.57
965.75	5195.70
965.92	5306.29
966.08	5334.96
966.24	5281.71
966.41	5302.19
966.57	5363.63
966.73	5199.79
966.90	5296.05
967.06	5216.18
967.22	5236.66
967.39	5294.00
967.55	5171.12
967.71	5117.87
967.88	5124.02
968.04	5207.98
968.20	5105.59
968.37	5218.22
968.53	5210.03
968.69	5164.98
968.85	5162.93
969.02	5169.07
969.18	5097.39
969.34	5242.80
969.51	5181.36
969.67	5214.13
969.83	5038.00
970.00	5216.18
970.16	5136.31
970.32	5105.59
970.48	5253.04
970.65	5007.28
970.81	4960.18
970.97	5050.29
971.14	4984.76
971.30	5093.30
971.46	4982.71
971.63	5078.96
971.79	5083.06
971.95	5021.62
972.11	4872.12
972.28	4884.41
972.44	4947.89
972.60	4917.17
972.76	5117.87
972.93	4921.27
973.09	4999.09
973.25	4997.04
973.42	4943.80
973.58	4984.76
973.74	4841.40
973.90	4913.08
974.07	4779.96
974.23	4872.12
974.39	4745.14
974.55	4796.34
974.72	4974.52
974.88	4743.10
975.04	4818.87
975.20	4853.69
975.37	4900.79
975.53	4734.90
975.69	4777.91
975.85	4896.69
976.01	4712.38
976.18	4607.93
976.34	4745.14
976.50	4689.85
976.66	4773.82
976.83	4622.27
976.99	4612.03
977.15	4741.05
977.31	4540.35
977.47	4732.86
977.64	4720.57
977.80	4526.01
977.96	4695.99
978.12	4507.58
978.29	4601.79
978.45	4638.65
978.61	4448.19
978.77	4552.63
978.93	4536.25
979.10	4468.67
979.26	4603.83
979.42	4528.06
979.58	4460.48
979.74	4530.11
979.91	4495.29
980.07	4425.66
980.23	4380.61
980.39	4566.97
980.55	4472.76
980.71	4405.18
980.88	4491.20
981.04	4458.43
981.20	4288.45
981.36	4425.66
981.52	4437.95
981.68	4335.55
981.85	4417.47
982.01	4368.32
982.17	4321.21
982.33	4196.29
982.49	4388.80
982.65	4435.90
982.82	4294.59
982.98	4272.06
983.14	4218.82
983.30	4364.22
983.46	4294.59
983.62	4259.78
983.79	4145.09
983.95	4255.68
984.11	4100.03
984.27	4184.00
984.43	4186.05
984.59	4181.95
984.75	4167.62
984.91	4202.43
985.08	4122.56
985.24	4130.75
985.40	4118.47
985.56	4073.41
985.72	4294.59
985.88	4208.58
986.04	4102.08
986.20	4018.11
986.37	4075.46
986.53	3948.48
986.69	4063.17
986.85	3999.68
987.01	3930.05
987.17	3977.16
987.33	3860.42
987.49	3973.06
987.65	4067.27
987.82	3977.16
987.98	3977.16
988.14	3852.23
988.30	3928.00
988.46	3971.01
988.62	3891.14
988.78	3952.58
988.94	3874.76
989.10	3776.45
989.26	3813.32
989.42	3858.37
989.59	3729.35
989.75	3891.14
989.91	3753.93
990.07	3651.53
990.23	3710.92
990.39	3837.89
990.55	3932.10
990.71	3784.65
990.87	3659.72
991.03	3837.89
991.19	3657.67
991.35	3694.54
991.51	3794.89
991.67	3827.65
991.83	3796.93
992.00	3747.78
992.16	3788.74
992.32	3737.54
992.48	3721.16
992.64	3624.90
992.80	3647.43
992.96	3772.36
993.12	3633.10
993.28	3706.82
993.44	3663.82
993.60	3696.58
993.76	3575.75
993.92	3612.62
994.08	3702.73
994.24	3524.55
994.40	3567.56
994.56	3692.49
994.72	3540.94
994.88	3577.80
995.04	3561.42
995.20	3467.21
995.36	3493.83
995.52	3520.46
995.68	3467.21
995.84	3559.37
996.00	3637.19
996.16	3469.26
996.32	3475.40
996.48	3463.12
996.64	3577.80
996.80	3360.72
996.96	3489.74
997.12	3446.73
997.28	3368.91
997.44	3409.87
997.60	3289.04
997.76	3368.91
997.92	3475.40
998.08	3338.19
998.24	3379.15
998.40	3416.01
998.56	3547.08
998.72	3303.37
998.88	3305.42
999.04	3397.58
999.20	3432.40
999.36	3268.56
999.52	3432.40
999.68	3325.90
999.84	3383.24
1000.00	3270.61
1000.16	3471.31
1000.32	3221.45
1000.48	3272.65
1000.64	3241.93
1000.80	3178.45
1000.95	3194.83
1001.11	3344.33
1001.27	3133.39
1001.43	3178.45
1001.59	3131.34
1001.75	3110.86
1001.91	3139.54
1002.07	3174.35
1002.23	3145.68
1002.39	3024.85
1002.55	3157.97
1002.71	3166.16
1002.87	3102.67
1003.03	3059.67
1003.19	3067.86
1003.34	3131.34
1003.50	3043.28
1003.66	3155.92
1003.82	3153.87
1003.98	3086.29
1004.14	3053.52
1004.30	3051.47
1004.46	3016.66
1004.62	2871.25
1004.78	3082.19
1004.94	2949.08
1005.09	3080.14
1005.25	3020.75
1005.41	2975.70
1005.57	2981.84
1005.73	3043.28
1005.89	3000.27
1006.05	3006.42
1006.21	2904.02
1006.37	2895.83
1006.52	2971.60
1006.68	2906.07
1006.84	3026.90
1007.00	2924.50
1007.16	2981.84
1007.32	2797.53
1007.48	2967.51
1007.64	2938.84
1007.79	2893.78
1007.95	2883.54
1008.11	2951.12
1008.27	2803.67
1008.43	2875.35
1008.59	2891.73
1008.75	2781.14
1008.91	2852.82
1009.06	2869.20
1009.22	2783.19
1009.38	2846.68
1009.54	2861.01
1009.70	2709.46
1009.86	2764.76
1010.01	2895.83
1010.17	2766.81
1010.33	2760.66
1010.49	2664.41
1010.65	2852.82
1010.81	2820.05
1010.96	2781.14
1011.12	2652.12
1011.28	2576.34
1011.44	2834.39
1011.60	2770.90
1011.76	2727.89
1011.91	2709.46
1012.07	2656.22
1012.23	2590.68
1012.39	2748.37
1012.55	2785.24
1012.71	2664.41
1012.86	2629.59
1013.02	2613.21
1013.18	2619.35
1013.34	2645.98
1013.50	2731.99
1013.65	2568.15
1013.81	2654.17
1013.97	2484.19
1014.13	2590.68
1014.29	2574.30
1014.44	2643.93
1014.60	2725.85
1014.76	2631.64
1014.92	2635.74
1015.07	2607.06
1015.23	2670.55
1015.39	2527.19
1015.55	2564.06
1015.71	2486.23
1015.86	2480.09
1016.02	2516.95
1016.18	2475.99
1016.34	2600.92
1016.49	2480.09
1016.65	2621.40
1016.81	2478.04
1016.97	2514.91
1017.12	2551.77
1017.28	2496.47
1017.44	2428.89
1017.60	2521.05
1017.75	2478.04
1017.91	2398.17
1018.07	2428.89
1018.23	2426.84
1018.38	2410.46
1018.54	2389.98
1018.70	2471.90
1018.86	2369.50
1019.01	2314.20
1019.17	2392.03
1019.33	2449.37
1019.49	2303.96
1019.64	2435.03
1019.80	2455.51
1019.96	2387.93
1020.12	2381.79
1020.27	2267.10
1020.43	2410.46
1020.59	2387.93
1020.74	2336.73
1020.90	2312.16
1021.06	2332.64
1021.22	2359.26
1021.37	2439.13
1021.53	2295.77
1021.69	2369.50
1021.84	2377.69
1022.00	2406.36
1022.16	2297.82
1022.31	2324.44
1022.47	2306.01
1022.63	2336.73
1022.79	2244.57
1022.94	2174.94
1023.10	2385.88
1023.26	2277.34
1023.41	2271.20
1023.57	2303.96
1023.73	2308.06
1023.88	2232.29
1024.04	2306.01
1024.20	2232.29
1024.35	2222.05
1024.51	2275.29
1024.67	2166.75
1024.82	2336.73
1024.98	2201.57
1025.14	2189.28
1025.29	2179.04
1025.45	2254.81
1025.61	2144.22
1025.76	2170.85
1025.92	2152.42
1026.08	2244.57
1026.23	2160.61
1026.39	2220.00
1026.55	2193.37
1026.70	2115.55
1026.86	2215.90
1027.02	2211.81
1027.17	2125.79
1027.33	2248.67
1027.48	2164.70
1027.64	2209.76
1027.80	2101.22
1027.95	2164.70
1028.11	2066.40
1028.27	2183.13
1028.42	2107.36
1028.58	2056.16
1028.73	2140.13
1028.89	2050.02
1029.05	2230.24
1029.20	2093.02
>>>>>End Processed Spectral Data<<<<<
