SpectraSuite Data File
++++++++++++++++++++++++++++++++++++
Date: Fri Jun 02 14:53:30 CEST 2017
User: INFO_000
Dark Spectrum Present: No
Reference Spectrum Present: No
Number of Sampled Component Spectra: 1
Spectrometers: USB4H00879
Integration Time (usec): 80000 (USB4H00879)
Spectra Averaged: 1 (USB4H00879)
Boxcar Smoothing: 0 (USB4H00879)
Correct for Electrical Dark: No (USB4H00879)
Strobe/Lamp Enabled: No (USB4H00879)
Correct for Detector Non-linearity: No (USB4H00879)
Correct for Stray Light: No (USB4H00879)
Number of Pixels in Processed Spectrum: 3648
>>>>>Begin Processed Spectral Data<<<<<
345.13	1302.51
345.34	1302.51
345.56	1302.51
345.78	1142.77
345.99	1368.04
346.21	1665.00
346.42	1728.49
346.64	1681.38
346.86	1802.21
347.07	1611.75
347.29	1726.44
347.50	1591.27
347.72	1652.71
347.94	1722.34
348.15	1540.07
348.37	1634.28
348.59	1753.06
348.80	1687.53
349.02	1794.02
349.23	1859.56
349.45	1839.08
349.67	1927.14
349.88	1834.98
350.10	1949.67
350.31	1839.08
350.53	1802.21
350.75	1953.76
350.96	1839.08
351.18	1949.67
351.39	1859.56
351.61	1841.12
351.82	1955.81
352.04	1910.75
352.26	1839.08
352.47	1877.99
352.69	1959.91
352.90	1777.64
353.12	1906.66
353.34	1869.80
353.55	1935.33
353.77	1910.75
353.98	1906.66
354.20	1904.61
354.41	1877.99
354.63	1927.14
354.85	2047.97
355.06	1945.57
355.28	1796.07
355.49	1812.45
355.71	1886.18
355.92	1900.52
356.14	1976.29
356.35	1855.46
356.57	1910.75
356.79	1886.18
357.00	1892.32
357.22	2013.15
357.43	1875.94
357.65	2033.63
357.86	1851.36
358.08	1906.66
358.29	1957.86
358.51	2009.06
358.72	1945.57
358.94	1904.61
359.16	1916.90
359.37	1970.15
359.59	1916.90
359.80	2017.25
360.02	1996.77
360.23	1957.86
360.45	1990.63
360.66	1943.52
360.88	1898.47
361.09	1910.75
361.31	2041.82
361.52	1871.84
361.74	2023.39
361.95	2136.03
362.17	2000.87
362.38	2043.87
362.60	1978.34
362.81	2000.87
363.03	1935.33
363.24	1998.82
363.46	2103.26
363.67	1986.53
363.89	1961.95
364.10	2013.15
364.32	1990.63
364.53	2080.74
364.75	1949.67
364.96	1968.10
365.18	2062.30
365.39	1996.77
365.61	1988.58
365.82	2131.94
366.04	2025.44
366.25	2007.01
366.47	2054.11
366.68	1984.48
366.90	2021.35
367.11	2019.30
367.33	2140.13
367.54	2045.92
367.76	2045.92
367.97	2072.54
368.19	2056.16
368.40	2039.78
368.62	2052.06
368.83	1992.67
369.05	2074.59
369.26	1972.19
369.48	2035.68
369.69	2023.39
369.91	2041.82
370.12	2076.64
370.33	2086.88
370.55	2035.68
370.76	2047.97
370.98	2068.45
371.19	2076.64
371.41	1976.29
371.62	2093.02
371.84	2039.78
372.05	2224.09
372.27	2080.74
372.48	2066.40
372.69	2105.31
372.91	2199.52
373.12	2174.94
373.34	2125.79
373.55	2101.22
373.77	2185.18
373.98	2082.78
374.20	2248.67
374.41	2263.01
374.62	2099.17
374.84	2150.37
375.05	2195.42
375.27	2191.33
375.48	2189.28
375.70	2213.85
375.91	2201.57
376.12	2301.92
376.34	2193.37
376.55	2127.84
376.77	2240.48
376.98	2136.03
377.19	2121.70
377.41	2201.57
377.62	2160.61
377.84	2277.34
378.05	2332.64
378.27	2205.66
378.48	2342.88
378.69	2424.80
378.91	2250.72
379.12	2252.77
379.34	2197.47
379.55	2342.88
379.76	2289.63
379.98	2256.86
380.19	2220.00
380.41	2256.86
380.62	2306.01
380.83	2205.66
381.05	2275.29
381.26	2422.75
381.47	2189.28
381.69	2252.77
381.90	2410.46
382.12	2308.06
382.33	2242.53
382.54	2289.63
382.76	2396.12
382.97	2449.37
383.19	2189.28
383.40	2428.89
383.61	2351.07
383.83	2275.29
384.04	2322.40
384.25	2392.03
384.47	2418.65
384.68	2328.54
384.89	2314.20
385.11	2326.49
385.32	2361.31
385.54	2428.89
385.75	2365.40
385.96	2439.13
386.18	2484.19
386.39	2410.46
386.60	2369.50
386.82	2377.69
387.03	2371.55
387.24	2555.86
387.46	2445.27
387.67	2584.54
387.88	2486.23
388.10	2428.89
388.31	2570.20
388.52	2570.20
388.74	2494.43
388.95	2484.19
389.16	2584.54
389.38	2514.91
389.59	2545.63
389.80	2721.75
390.02	2594.78
390.23	2787.29
390.44	2609.11
390.66	2547.67
390.87	2516.95
391.08	2510.81
391.30	2691.03
391.51	2596.82
391.72	2641.88
391.94	2637.78
392.15	2576.34
392.36	2633.69
392.58	2519.00
392.79	2668.50
393.00	2695.13
393.22	2654.17
393.43	2799.57
393.64	2791.38
393.85	2822.10
394.07	2734.04
394.28	2787.29
394.49	2805.72
394.71	2781.14
394.92	2805.72
395.13	2703.32
395.35	2723.80
395.56	2867.16
395.77	2760.66
395.98	2906.07
396.20	2844.63
396.41	2772.95
396.62	2871.25
396.84	2854.87
397.05	2846.68
397.26	2901.97
397.47	2967.51
397.69	2793.43
397.90	3030.99
398.11	2994.13
398.32	2901.97
398.54	2912.21
398.75	2981.84
398.96	2842.58
399.18	3049.43
399.39	2951.12
399.60	3010.51
399.81	3030.99
400.03	2897.88
400.24	3223.50
400.45	2987.99
400.66	2977.75
400.88	2975.70
401.09	3108.82
401.30	3112.91
401.51	3096.53
401.73	2992.08
401.94	3180.50
402.15	3162.06
402.36	3092.43
402.58	3067.86
402.79	3217.36
403.00	3137.49
403.21	3215.31
403.43	3223.50
403.64	3313.61
403.85	3119.06
404.06	3229.65
404.27	3106.77
404.49	3250.13
404.70	3168.21
404.91	3205.07
405.12	3164.11
405.34	3217.36
405.55	3330.00
405.76	3102.67
405.97	3241.93
406.19	3297.23
406.40	3332.05
406.61	3317.71
406.82	3389.39
407.03	3321.81
407.25	3278.80
407.46	3327.95
407.67	3454.92
407.88	3422.16
408.09	3377.10
408.31	3483.59
408.52	3282.89
408.73	3248.08
408.94	3422.16
409.15	3454.92
409.37	3565.51
409.58	3594.19
409.79	3475.40
410.00	3542.99
410.21	3477.45
410.43	3426.25
410.64	3481.55
410.85	3510.22
411.06	3579.85
411.27	3629.00
411.48	3477.45
411.70	3616.71
411.91	3655.62
412.12	3739.59
412.33	3710.92
412.54	3592.14
412.76	3764.17
412.97	3602.38
413.18	3454.92
413.39	3721.16
413.60	3825.61
413.81	3770.31
414.03	3618.76
414.24	3712.97
414.45	3870.66
414.66	3745.73
414.87	3702.73
415.08	3811.27
415.30	3796.93
415.51	3856.33
415.72	3788.74
415.93	3831.75
416.14	3708.87
416.35	3790.79
416.56	3782.60
416.78	3942.34
416.99	3909.57
417.20	3831.75
417.41	3909.57
417.62	3925.96
417.83	4059.07
418.04	3934.15
418.26	3940.29
418.47	3952.58
418.68	3977.16
418.89	3983.30
419.10	4261.82
419.31	4097.99
419.52	4075.46
419.73	4081.60
419.95	4261.82
420.16	4028.35
420.37	4052.93
420.58	4097.99
420.79	3991.49
421.00	4167.62
421.21	4259.78
421.42	4155.33
421.63	4259.78
421.85	4310.97
422.06	4317.12
422.27	4321.21
422.48	4239.30
422.69	4278.21
422.90	4290.49
423.11	4366.27
423.32	4333.50
423.53	4636.60
423.75	4566.97
423.96	4689.85
424.17	4505.53
424.38	4702.14
424.59	4493.24
424.80	4655.03
425.01	4609.98
425.22	4501.44
425.43	4562.87
425.64	4757.43
425.85	4728.76
426.06	4609.98
426.28	4603.83
426.49	4591.55
426.70	4695.99
426.91	4523.96
427.12	4710.33
427.33	4704.18
427.54	4726.71
427.75	4802.49
427.96	4927.41
428.17	4829.11
428.38	4806.58
428.59	4865.97
428.80	4919.22
429.01	4968.37
429.23	4958.13
429.44	5060.53
429.65	5146.55
429.86	5148.59
430.07	4956.08
430.28	5062.58
430.49	5027.76
430.70	5160.88
430.91	5085.11
431.12	5220.27
431.33	5154.74
431.54	5244.85
431.75	5238.70
431.96	5326.77
432.17	5160.88
432.38	5181.36
432.59	5390.25
432.80	5386.16
433.01	5437.36
433.22	5468.08
433.43	5461.93
433.64	5375.92
433.85	5312.43
434.06	5441.45
434.27	5449.64
434.49	5441.45
434.70	5521.32
434.91	5443.50
435.12	5578.67
435.33	5453.74
435.54	5423.02
435.75	5351.34
435.96	5480.36
436.17	5468.08
436.38	5590.95
436.59	5724.07
436.80	5652.39
437.01	5828.52
437.22	5808.04
437.43	5799.85
437.64	5607.34
437.85	5615.53
438.06	5922.73
438.27	5621.67
438.48	5779.37
438.69	5740.46
438.90	5922.73
439.11	5644.20
439.32	5906.34
439.53	5760.94
439.74	5881.77
439.95	5984.16
440.16	5945.25
440.37	6035.36
440.57	5758.89
440.78	6037.41
440.99	6045.60
441.20	5941.16
441.41	5883.81
441.62	6121.38
441.83	5953.45
442.04	6121.38
442.25	6014.88
442.46	6084.52
442.67	6154.15
442.88	6383.52
443.09	5971.88
443.30	6023.08
443.51	6270.88
443.72	6440.86
443.93	6047.65
444.14	6303.65
444.35	6008.74
444.56	6360.99
444.77	6242.21
444.98	6418.33
445.19	6393.76
445.40	6307.74
445.61	6217.63
445.81	6420.38
446.02	6428.57
446.23	6471.58
446.44	6277.02
446.65	6520.73
446.86	6399.90
447.07	6485.92
447.28	6545.31
447.49	6516.64
447.70	6451.10
447.91	6719.39
448.12	6586.27
448.33	6840.22
448.54	6784.92
448.74	6711.19
448.95	6834.07
449.16	6559.64
449.37	7038.87
449.58	6823.83
449.79	7120.79
450.00	6725.53
450.21	6918.04
450.42	6903.70
450.63	7024.53
450.84	6959.00
451.05	6819.74
451.25	6907.80
451.46	6811.54
451.67	7055.25
451.88	7100.31
452.09	7278.48
452.30	7028.63
452.51	7131.03
452.72	7280.53
452.93	7427.98
453.13	7094.16
453.34	7311.25
453.55	7239.57
453.76	7149.46
453.97	7643.02
454.18	7331.73
454.39	7624.59
454.60	7630.73
454.81	7503.76
455.01	7716.75
455.22	7387.02
455.43	7600.01
455.64	7724.94
455.85	7825.29
456.06	7935.88
456.27	7829.38
456.48	7563.15
456.68	7792.52
456.89	7974.79
457.10	7757.71
457.31	8003.46
457.52	7952.26
457.73	8140.68
457.94	8163.20
458.14	8046.47
458.35	8454.02
458.56	8251.27
458.77	8036.23
458.98	8236.93
459.19	8232.83
459.39	8419.20
459.60	8433.54
459.81	8353.66
460.02	8566.65
460.23	8501.12
460.44	8525.69
460.65	8669.05
460.85	8650.62
461.06	8769.40
461.27	8474.49
461.48	9064.31
461.69	9086.84
461.89	8712.06
462.10	8859.51
462.31	8658.81
462.52	8865.66
462.73	8923.00
462.94	9281.39
463.14	9133.94
463.35	9041.78
463.56	9484.14
463.77	9437.04
463.98	9322.35
464.18	9527.15
464.39	9719.66
464.60	9746.28
464.81	9547.63
465.02	9494.38
465.23	9887.59
465.43	9799.53
465.64	9875.31
465.85	9850.73
466.06	9785.19
466.27	9869.16
466.47	10168.16
466.68	10194.79
466.89	10180.45
467.10	10299.23
467.30	10168.16
467.51	10506.08
467.72	10391.39
467.93	10293.09
468.14	10624.86
468.34	10620.77
468.55	10772.32
468.76	10850.14
468.97	10432.35
469.17	10757.98
469.38	10925.91
469.59	11120.47
469.80	10893.15
470.01	11018.07
470.21	11149.14
470.42	11198.29
470.63	11405.14
470.84	11272.02
471.04	11622.22
471.25	11454.29
471.46	11519.82
471.67	11784.01
471.87	11753.29
472.08	11908.94
472.29	12099.40
472.50	11712.33
472.70	12027.72
472.91	11935.56
473.12	12093.26
473.33	12363.59
473.53	12597.06
473.74	12222.28
473.95	12525.38
474.16	12822.33
474.36	12748.61
474.57	12955.45
474.78	12885.82
474.99	13012.79
475.19	12840.76
475.40	13276.98
475.61	13217.59
475.81	13350.71
476.02	13571.89
476.23	13471.54
476.44	13461.30
476.64	13848.36
476.85	13879.08
477.06	13743.92
477.27	13985.58
477.47	14047.02
477.68	14106.41
477.89	14397.22
478.09	14407.46
478.30	14403.36
478.51	14475.04
478.71	14567.20
478.92	14710.56
479.13	14860.06
479.34	14929.69
479.54	14819.10
479.75	14858.01
479.96	15408.92
480.16	15144.73
480.37	15253.27
480.58	15585.04
480.78	15779.60
480.99	15621.91
481.20	15951.63
481.41	15968.01
481.61	16037.64
481.82	16031.50
482.03	15871.76
482.23	16086.79
482.44	16373.51
482.65	16557.83
482.85	16733.95
483.06	16684.80
483.27	16613.12
483.47	16729.86
483.68	16703.23
483.89	16987.90
484.09	16733.95
484.30	17309.43
484.51	17442.55
484.71	17086.20
484.92	17368.82
485.13	17542.90
485.33	17698.55
485.54	17626.87
485.75	17997.55
485.95	17923.82
486.16	17833.71
486.37	17991.41
486.57	18142.96
486.78	18222.83
486.98	18302.70
487.19	18251.50
487.40	18521.83
487.60	18507.49
487.81	18648.80
488.02	18632.42
488.22	18722.53
488.43	18810.59
488.64	18685.67
488.84	19361.50
489.05	19451.61
489.25	19166.94
489.46	19347.16
489.67	19177.18
489.87	19590.87
490.08	19248.86
490.29	19560.15
490.49	19945.17
490.70	19971.79
490.90	20041.42
491.11	19912.40
491.32	20037.33
491.52	20061.90
491.73	20152.01
491.94	20348.62
492.14	20338.38
492.35	20522.69
492.55	20551.37
492.76	20817.60
492.97	20842.18
493.17	20811.46
493.38	20948.67
493.58	20965.06
493.79	21223.10
494.00	20928.19
494.20	21022.40
494.41	21477.05
494.61	21475.00
494.82	21737.14
495.02	21331.64
495.23	21673.65
495.44	21593.78
495.64	21814.96
495.85	21839.54
496.05	22005.42
496.26	21800.63
496.47	22269.61
496.67	22095.53
496.88	22335.15
497.08	21974.70
497.29	22214.32
497.49	22357.67
497.70	22619.81
497.91	22425.26
498.11	22896.29
498.32	22662.82
498.52	22709.93
498.73	22894.24
498.93	22804.13
499.14	23045.79
499.34	23269.02
499.55	23090.85
499.76	23066.27
499.96	23187.10
500.17	23068.32
500.37	23275.16
500.58	23281.31
500.78	23549.59
500.99	23332.51
501.19	23490.20
501.40	23639.70
501.60	23549.59
501.81	23680.66
502.02	23762.58
502.22	23545.50
502.43	24080.02
502.63	24120.98
502.84	24370.83
503.04	24102.54
503.25	24374.92
503.45	24280.72
503.66	24561.29
503.86	24397.45
504.07	24430.22
504.27	24360.59
504.48	24751.75
504.68	24637.06
504.89	24901.25
505.09	24704.65
505.30	24690.31
505.50	25147.01
505.71	25104.00
505.91	24981.12
506.12	25013.89
506.32	25235.07
506.53	24864.39
506.73	25177.73
506.94	25024.13
507.14	25222.78
507.35	25343.61
507.55	25265.79
507.76	25552.51
507.96	25263.74
508.17	25517.69
508.37	25751.16
508.58	25751.16
508.78	25486.97
508.99	25812.60
509.19	25955.96
509.40	25927.28
509.60	25896.56
509.81	25996.92
510.01	25775.73
510.22	25880.18
510.42	26078.83
510.63	26179.18
510.83	26246.77
511.04	26056.31
511.24	26306.16
511.44	26330.73
511.65	26273.39
511.85	26189.42
512.06	26312.30
512.26	26478.19
512.47	26838.63
512.67	26793.58
512.88	26725.99
513.08	26531.44
513.29	26725.99
513.49	26527.34
513.69	26781.29
513.90	26900.07
514.10	27203.17
514.31	27280.99
514.51	26855.01
514.72	26988.13
514.92	26793.58
515.13	27209.31
515.33	27053.67
515.53	26914.41
515.74	27201.12
515.94	27532.89
516.15	27029.09
516.35	27496.03
516.56	27643.48
516.76	27414.11
516.96	27838.04
517.17	27788.89
517.37	27733.59
517.58	27719.26
517.78	27795.03
517.99	27737.69
518.19	28485.20
518.39	28261.97
518.60	28253.78
518.80	28259.92
519.01	28315.22
519.21	28345.94
519.41	28466.77
519.62	28200.53
519.82	28499.53
520.03	28583.50
520.23	28446.29
520.43	28565.07
520.64	29029.96
520.84	29060.68
521.05	28905.03
521.25	29275.71
521.45	29378.11
521.66	29312.58
521.86	29292.10
522.07	29191.75
522.27	29316.67
522.47	29249.09
522.68	29574.72
522.88	29521.47
523.08	29720.12
523.29	29976.12
523.49	29931.06
523.70	30019.13
523.90	29990.45
524.10	30078.52
524.31	30113.33
524.51	29832.76
524.71	30504.49
524.92	30416.43
525.12	30236.21
525.33	30527.02
525.53	30838.31
525.73	30967.34
525.94	30928.42
526.14	30946.86
526.34	31127.08
526.55	31069.73
526.75	31268.39
526.95	31512.10
527.16	31526.43
527.36	31440.42
527.56	31442.46
527.77	31630.88
527.97	31983.13
528.17	32189.97
528.38	31792.67
528.58	31915.54
528.78	31958.55
528.99	31882.78
529.19	32560.66
529.39	32136.73
529.60	32706.06
529.80	32312.85
530.00	32503.31
530.21	32830.99
530.41	32953.87
530.61	32656.91
530.82	32736.78
531.02	32908.81
531.22	33342.98
531.43	33183.24
531.63	33299.97
531.83	33998.33
532.04	33949.18
532.24	33715.71
532.44	34192.89
532.64	34309.62
532.85	34326.00
533.05	34117.11
533.25	34268.66
533.46	34010.62
533.66	34938.35
533.86	34530.80
534.07	34967.02
534.27	34964.97
534.47	35464.67
534.67	35270.12
534.88	35022.31
535.08	35063.27
535.28	35560.93
535.49	35591.65
535.69	35866.08
535.89	35411.43
536.09	36003.29
536.30	36115.93
536.50	36171.22
536.70	36095.45
536.91	36373.97
537.11	36253.14
537.31	36449.75
537.51	36412.88
537.72	37295.56
537.92	36941.26
538.12	37520.84
538.32	36802.00
538.53	37254.60
538.73	36779.47
538.93	37305.80
539.13	37465.54
539.34	37610.95
539.54	37686.72
539.74	37352.90
539.94	37475.78
540.15	37608.90
540.35	38018.49
540.55	37778.88
540.75	38041.02
540.96	38442.42
541.16	38292.92
541.36	38553.01
541.56	38432.18
541.77	38512.05
541.97	38481.33
542.17	38782.38
542.37	38823.34
542.58	39155.11
542.78	38667.70
542.98	38895.02
543.18	39058.86
543.38	39402.92
543.59	38999.47
543.79	39202.22
543.99	39413.16
544.19	39675.30
544.40	39331.24
544.60	39740.83
544.80	39953.82
545.00	39507.37
545.20	40224.15
545.41	39726.50
545.61	40119.71
545.81	40297.88
546.01	39931.29
546.21	40066.46
546.42	39933.34
546.62	40584.60
546.82	40557.97
547.02	40324.50
547.22	40664.47
547.43	40605.08
547.63	40633.75
547.83	40818.07
548.03	40486.29
548.23	41086.35
548.44	41213.32
548.64	41424.26
548.84	41350.54
549.04	41088.40
549.24	41000.33
549.45	41534.85
549.65	41352.58
549.85	41706.88
550.05	41962.88
550.25	41366.92
550.45	41856.39
550.66	42304.89
550.86	42182.01
551.06	42173.82
551.26	41645.44
551.46	42210.68
551.66	42057.09
551.87	42100.09
552.07	41936.26
552.27	42184.06
552.47	42401.14
552.67	42417.53
552.87	42327.42
553.07	42663.28
553.28	42644.85
553.48	42790.26
553.68	42900.85
553.88	42847.60
554.08	43074.93
554.28	42988.91
554.48	42538.36
554.69	42915.19
554.89	42943.86
555.09	43040.11
555.29	42845.55
555.49	43150.70
555.69	43316.59
555.89	42847.60
556.10	43179.37
556.30	43195.76
556.50	43619.69
556.70	43427.18
556.90	43726.18
557.10	43455.85
557.30	43234.67
557.50	43543.91
557.70	43824.48
557.91	43930.98
558.11	43873.63
558.31	43824.48
558.51	43541.86
558.71	44027.23
558.91	43980.13
559.11	43689.32
559.31	44041.57
559.51	43986.27
559.72	44025.18
559.92	43812.20
560.12	44139.87
560.32	44402.01
560.52	44012.90
560.72	44262.75
560.92	44021.09
561.12	44320.09
561.32	44709.21
561.52	44049.76
561.72	44440.92
561.93	44426.59
562.13	44330.33
562.33	44205.41
562.53	44750.17
562.73	44146.01
562.93	44670.29
563.13	44897.62
563.33	44494.17
563.53	44850.52
563.73	44551.51
563.93	44780.88
564.13	45057.36
564.33	44748.12
564.53	44852.56
564.74	44766.55
564.94	44895.57
565.14	44791.12
565.34	44651.86
565.54	44893.52
565.74	45022.54
565.94	45493.58
566.14	45088.08
566.34	44895.57
566.54	45923.65
566.74	45143.38
566.94	45122.90
567.14	45458.76
567.34	45086.03
567.54	45395.28
567.74	45196.62
567.94	45274.45
568.14	45731.14
568.34	45536.59
568.54	45796.68
568.74	45874.50
568.94	45387.08
569.14	45653.32
569.34	45911.36
569.54	45761.86
569.75	45393.23
569.95	45421.90
570.15	46220.61
570.35	45598.02
570.55	45966.66
570.75	45862.21
570.95	46187.84
571.15	46015.81
571.35	45604.17
571.55	45935.94
571.75	45819.20
571.95	46185.79
572.15	45989.19
572.35	46011.71
572.55	45983.04
572.75	45884.74
572.95	45757.77
573.15	46169.41
573.35	45954.37
573.55	45978.95
573.75	46116.16
573.95	45897.03
574.15	46093.63
574.35	46611.77
574.55	46204.22
574.75	46497.08
574.95	46175.55
575.15	46249.28
575.34	46638.39
575.54	46615.86
575.74	46742.84
575.94	46722.36
576.14	46464.32
576.34	47062.32
576.54	46607.67
576.74	47183.15
576.94	46800.18
577.14	46912.82
577.34	46990.64
577.54	46941.49
577.74	47093.04
577.94	46699.83
578.14	46976.31
578.34	47250.74
578.54	46501.18
578.74	46880.05
578.94	47355.18
579.14	47269.17
579.34	47469.87
579.54	46957.88
579.74	47174.96
579.94	47396.14
580.13	47756.58
580.33	47797.54
580.53	47254.83
580.73	47834.41
580.93	47502.64
581.13	47404.33
581.33	47625.51
581.53	47875.37
581.73	47682.86
581.93	47682.86
582.13	47901.99
582.33	47633.71
582.53	47559.98
582.73	48078.11
582.92	48102.69
583.12	47961.38
583.32	47840.55
583.52	47789.35
583.72	48377.12
583.92	47863.08
584.12	47977.76
584.32	48497.95
584.52	48139.55
584.72	48061.73
584.92	47807.78
585.11	48526.62
585.31	47949.09
585.51	48213.28
585.71	48168.22
585.91	48821.53
586.11	47957.28
586.31	48127.27
586.51	48592.15
586.71	48276.77
586.91	48565.53
587.10	48522.52
587.30	48608.54
587.50	48928.02
587.70	48913.69
587.90	48485.66
588.10	48532.76
588.30	48629.02
588.50	49134.87
588.69	48672.03
588.89	48596.25
589.09	49067.28
589.29	49032.47
589.49	49468.69
589.69	48764.18
589.89	49360.14
590.08	49390.86
590.28	48878.87
590.48	49184.02
590.68	49098.00
590.88	48917.78
591.08	49192.21
591.28	49188.11
591.47	49259.79
591.67	49028.37
591.87	49065.24
592.07	49470.73
592.27	49540.36
592.47	49691.91
592.67	49710.35
592.86	49341.71
593.06	49298.70
593.26	49542.41
593.46	49399.05
593.66	49675.53
593.86	49857.80
594.05	49861.90
594.25	49800.46
594.45	49614.09
594.65	49757.45
594.85	49675.53
595.05	49995.01
595.24	50054.40
595.44	50126.08
595.64	49853.70
595.84	49732.87
596.04	50105.60
596.23	49958.15
596.43	50468.09
596.63	50007.30
596.83	50109.70
597.03	50087.17
597.22	50824.44
597.42	50361.60
597.62	50412.80
597.82	50443.52
598.02	50251.01
598.21	50679.03
598.41	50586.88
598.61	50668.79
598.81	50527.48
599.01	50879.74
599.20	50836.73
599.40	50484.48
599.60	50912.50
599.80	50828.54
600.00	50566.40
600.19	51074.29
600.39	50763.00
600.59	50992.37
600.79	50869.50
600.98	50818.30
601.18	51074.29
601.38	51526.89
601.58	51287.28
601.78	51530.99
601.97	51459.31
602.17	51844.33
602.37	51463.41
602.57	51596.52
602.76	51557.61
602.96	51324.14
603.16	52022.50
603.36	51619.05
603.55	51895.53
603.75	51582.19
603.95	52102.37
604.15	51766.51
604.34	52133.09
604.54	51920.10
604.74	52069.61
604.94	52186.34
605.13	52225.25
605.33	52376.80
605.53	51811.56
605.73	52198.63
605.92	52384.99
606.12	52417.76
606.32	52583.65
606.52	52516.06
606.71	52303.07
606.91	52559.07
607.11	52292.83
607.30	52655.32
607.50	52548.83
607.70	52845.79
607.90	52524.25
608.09	52698.33
608.29	52770.01
608.49	52667.61
608.68	53003.48
608.88	53271.76
609.08	52796.63
609.28	52618.46
609.47	52733.15
609.67	53464.27
609.87	53007.58
610.06	53531.86
610.26	53140.69
610.46	53628.11
610.66	52946.14
610.85	53138.65
611.05	53380.31
611.25	53617.87
611.44	53253.33
611.64	53195.99
611.84	53124.31
612.03	53370.07
612.23	53359.83
612.43	52980.95
612.62	53204.18
612.82	53572.81
613.02	53626.06
613.21	53538.00
613.41	53306.58
613.61	53617.87
613.80	53208.28
614.00	53499.09
614.20	53695.69
614.39	53963.98
614.59	54056.14
614.79	53908.68
614.98	53263.57
615.18	53646.54
615.38	53853.39
615.57	53216.47
615.77	53542.10
615.97	53849.29
616.16	53705.93
616.36	53904.59
616.56	53802.19
616.75	53564.62
616.95	53843.15
617.15	53421.26
617.34	54287.56
617.54	53857.48
617.74	54246.60
617.93	54363.33
618.13	53750.99
618.32	54162.63
618.52	53941.45
618.72	54082.76
618.91	54197.44
619.11	54322.37
619.31	53411.02
619.50	53945.54
619.70	53834.95
619.90	54111.43
620.09	53783.76
620.29	54039.75
620.48	54000.84
620.68	54412.48
620.88	53808.33
621.07	53957.83
621.27	53927.11
621.46	54031.56
621.66	54045.90
621.86	54150.34
622.05	53667.02
622.25	54195.40
622.44	54090.95
622.64	54090.95
622.84	54578.37
623.03	54084.81
623.23	54179.01
623.42	54105.29
623.62	54224.07
623.82	54588.61
624.01	54625.47
624.21	54494.40
624.40	54342.85
624.60	54287.56
624.80	54697.15
624.99	54037.70
625.19	54490.30
625.38	54330.56
625.58	54346.95
625.77	54457.54
625.97	54545.60
626.17	54473.92
626.36	54308.04
626.56	54699.20
626.75	54183.11
626.95	54416.58
627.14	54195.40
627.34	54903.99
627.54	54441.15
627.73	54670.53
627.93	54787.26
628.12	54406.34
628.32	54817.98
628.51	54484.16
628.71	54637.76
628.90	54516.93
629.10	54512.83
629.30	54908.09
629.49	54498.50
629.69	54707.39
629.88	55102.65
630.08	55106.74
630.27	55026.87
630.47	54535.36
630.66	54877.37
630.86	54744.25
631.05	54412.48
631.25	55190.71
631.44	55272.63
631.64	54832.32
631.84	54969.53
632.03	55399.60
632.23	55315.64
632.42	55381.17
632.62	54807.74
632.81	54869.18
633.01	55071.93
633.20	55348.40
633.40	55565.49
633.59	55008.44
633.79	55112.89
633.98	55301.30
634.18	55162.04
634.37	55514.29
634.57	55092.41
634.76	55831.72
634.96	55295.16
635.15	55848.11
635.35	55411.89
635.54	55164.09
635.74	55426.23
635.93	55006.39
636.13	55932.07
636.32	55409.84
636.52	55334.07
636.71	55344.31
636.91	55794.86
637.10	55686.32
637.30	55465.14
637.49	55657.65
637.69	55540.91
637.88	56143.02
638.08	55848.11
638.27	56169.64
638.46	55698.61
638.66	55458.99
638.85	55833.77
639.05	55942.31
639.24	55995.56
639.44	55727.28
639.63	55907.50
639.83	55751.85
640.02	55874.73
640.22	56384.68
640.41	56491.17
640.61	55915.69
640.80	56624.29
640.99	56261.80
641.19	56747.17
641.38	56325.28
641.58	55899.31
641.77	56267.94
641.97	55917.74
642.16	56433.83
642.36	57056.41
642.55	57121.94
642.74	55872.68
642.94	56736.93
643.13	56222.89
643.33	56777.89
643.52	56865.95
643.72	56847.52
643.91	56958.11
644.10	57111.70
644.30	57007.26
644.49	56583.33
644.69	57222.29
644.88	56759.45
645.08	57042.07
645.27	57013.40
645.46	56640.67
645.66	57339.03
645.85	56804.51
646.05	56906.91
646.24	57212.06
646.43	56685.73
646.63	57498.77
646.82	57185.43
647.02	56915.10
647.21	57558.16
647.40	56829.08
647.60	57142.42
647.79	57597.07
647.99	57382.04
648.18	56945.82
648.37	57803.92
648.57	57685.14
648.76	57439.38
648.96	57488.53
649.15	58197.13
649.34	57408.66
649.54	57635.98
649.73	57504.91
649.92	57732.24
650.12	57644.18
650.31	57496.72
650.51	58209.42
650.70	57732.24
650.89	57621.65
651.09	58537.09
651.28	57824.40
651.47	58059.91
651.67	58111.11
651.86	58231.94
652.06	57511.06
652.25	58004.62
652.44	57748.62
652.64	57840.78
652.83	57625.74
653.02	57611.41
653.22	58092.68
653.41	58121.35
653.60	57511.06
653.80	57896.08
653.99	58127.50
654.18	57562.26
654.38	57867.40
654.57	58635.39
654.76	58571.91
654.96	57988.24
655.15	57748.62
655.34	58078.35
655.54	57390.23
655.73	58287.24
655.92	58375.30
656.12	58266.76
656.31	58487.94
656.50	58174.60
656.70	58070.15
656.89	58156.17
657.08	57891.98
657.28	58264.71
657.47	58320.01
657.66	58168.46
657.86	58096.78
658.05	58446.98
658.24	58446.98
658.43	58297.48
658.63	58211.46
658.82	58496.13
659.01	58823.81
659.21	58567.81
659.40	58623.11
659.59	58662.02
659.79	58307.72
659.98	58643.59
660.17	58705.02
660.36	58840.19
660.56	58238.09
660.75	58504.32
660.94	58436.74
661.14	58367.11
661.33	58401.92
661.52	58123.40
661.71	58848.38
661.91	58283.14
662.10	58307.72
662.29	58655.87
662.49	58729.60
662.68	58442.88
662.87	58723.46
663.06	59153.53
663.26	58467.46
663.45	58799.23
663.64	58897.53
663.83	59022.46
664.03	59096.19
664.22	58946.68
664.41	58602.63
664.60	58365.06
664.80	58485.89
664.99	58418.31
665.18	58977.40
665.37	58524.80
665.57	58844.29
665.76	58924.16
665.95	59151.48
666.14	58784.90
666.34	58913.92
666.53	58580.10
666.72	58684.54
666.91	58297.48
667.11	58346.63
667.30	58274.95
667.49	58508.42
667.68	58420.36
667.87	58320.01
668.07	58735.74
668.26	58975.36
668.45	58590.34
668.64	58645.63
668.84	59120.76
669.03	58889.34
669.22	58678.40
669.41	59071.61
669.60	58664.06
669.80	58147.98
669.99	59020.41
670.18	58797.18
670.37	58561.67
670.57	58768.51
670.76	58600.58
670.95	58659.97
671.14	58670.21
671.33	58844.29
671.53	58823.81
671.72	58741.89
671.91	58549.38
672.10	58422.40
672.29	58621.06
672.48	58381.45
672.68	58817.66
672.87	58320.01
673.06	58778.75
673.25	57826.45
673.44	57971.85
673.64	58139.78
673.83	58174.60
674.02	58037.39
674.21	57887.88
674.40	57941.13
674.59	57910.41
674.79	58070.15
674.98	58119.31
675.17	58244.23
675.36	57930.89
675.55	58029.19
675.74	57861.26
675.94	57859.21
676.13	58127.50
676.32	58446.98
676.51	58387.59
676.70	58180.74
676.89	58111.11
677.08	58395.78
677.28	58021.00
677.47	58172.55
677.66	58195.08
677.85	57941.13
678.04	58299.53
678.23	58584.19
678.42	58064.01
678.62	58254.47
678.81	58629.25
679.00	58104.97
679.19	58571.91
679.38	58117.26
679.57	58240.14
679.76	57932.94
679.96	58559.62
680.15	57957.52
680.34	57922.70
680.53	57873.55
680.72	57943.18
680.91	57984.14
681.10	57969.80
681.29	58305.67
681.48	57732.24
681.68	57760.91
681.87	57701.52
682.06	57767.05
682.25	57357.46
682.44	57302.17
682.63	58098.83
682.82	57592.98
683.01	57601.17
683.20	56894.62
683.39	57490.58
683.59	57332.89
683.78	57087.13
683.97	56927.39
684.16	57138.33
684.35	57107.61
684.54	57250.97
684.73	57144.47
684.92	57003.16
685.11	56927.39
685.30	56765.60
685.49	57304.21
685.69	56497.31
685.88	57236.63
686.07	57066.65
686.26	57089.18
686.45	57095.32
686.64	56710.30
686.83	56747.17
687.02	56902.81
687.21	56755.36
687.40	56845.47
687.59	56661.15
687.78	57115.80
687.97	56583.33
688.16	56605.86
688.35	56413.35
688.54	56341.67
688.74	56407.20
688.93	56833.18
689.12	56726.69
689.31	56884.38
689.50	56923.29
689.69	56259.75
689.88	55645.36
690.07	56212.65
690.26	56358.05
690.45	56677.54
690.64	56100.01
690.83	56460.45
691.02	56329.38
691.21	56110.25
691.40	55747.76
691.59	55782.57
691.78	55833.77
691.97	56253.61
692.16	55983.27
692.35	55962.79
692.54	55776.43
692.73	55852.20
692.92	55612.59
693.11	55542.96
693.30	55827.63
693.49	55932.07
693.68	55493.81
693.87	55647.41
694.06	55551.15
694.25	55049.40
694.44	55096.50
694.63	55424.18
694.82	55778.48
695.01	55104.70
695.20	55334.07
695.39	55104.70
695.58	55352.50
695.77	55491.76
695.96	55121.08
696.15	55342.26
696.34	54787.26
696.53	55116.98
696.72	54736.06
696.91	54920.38
697.10	55143.61
697.29	55399.60
697.48	55121.08
697.67	54701.25
697.86	55131.32
698.05	54324.42
698.24	54762.68
698.43	54303.94
698.62	54899.90
698.81	54580.42
699.00	55078.07
699.19	54293.70
699.38	54287.56
699.57	54043.85
699.76	54856.89
699.95	54158.53
700.14	54392.00
700.32	54486.21
700.51	54060.23
700.70	54766.78
700.89	54535.36
701.08	54318.28
701.27	53826.76
701.46	54387.91
701.65	53650.64
701.84	53724.36
702.03	53900.49
702.22	53818.57
702.41	53548.24
702.60	53898.44
702.79	53867.72
702.98	53601.49
703.17	53796.04
703.35	53693.64
703.54	53501.14
703.73	53945.54
703.92	53341.39
704.11	53451.98
704.30	53390.55
704.49	53122.26
704.68	52870.36
704.87	53234.90
705.06	53159.12
705.25	53036.25
705.43	53073.11
705.62	53365.97
705.81	52845.79
706.00	53128.41
706.19	52471.01
706.38	52559.07
706.57	53157.08
706.76	52327.65
706.95	53202.13
707.14	52618.46
707.32	52597.98
707.51	52671.71
707.70	52985.05
707.89	52700.38
708.08	52583.65
708.27	52481.25
708.46	52827.35
708.65	52843.74
708.84	52655.32
709.02	52278.50
709.21	52432.10
709.40	52290.79
709.59	52548.83
709.78	52024.55
709.97	52264.16
710.16	52163.81
710.34	52272.35
710.53	52184.29
710.72	51643.63
710.91	52042.98
711.10	51721.45
711.29	52268.26
711.48	51893.48
711.66	51655.92
711.85	51537.13
712.04	51965.16
712.23	51735.79
712.42	51803.37
712.61	51778.79
712.80	51156.21
712.98	51954.92
713.17	51522.80
713.36	51440.88
713.55	51410.16
713.74	51379.44
713.93	51434.74
714.11	50928.89
714.30	50765.05
714.49	51158.26
714.68	51152.12
714.87	51205.36
715.06	51320.05
715.24	50769.15
715.43	51121.40
715.62	50775.29
715.81	50631.93
716.00	51002.61
716.18	50222.34
716.37	50902.26
716.56	50445.57
716.75	51004.66
716.94	50472.19
717.12	50093.32
717.31	50447.61
717.50	50502.91
717.69	50267.39
717.88	50586.88
718.06	50615.55
718.25	50724.09
718.44	49796.36
718.63	49886.47
718.82	50054.40
719.00	50035.97
719.19	49966.34
719.38	50046.21
719.57	49605.90
719.76	49452.30
719.94	49517.84
720.13	49648.91
720.32	49755.40
720.51	49718.54
720.69	49603.85
720.88	49476.88
721.07	49519.88
721.26	49067.28
721.44	49050.90
721.63	49108.24
721.82	48897.30
722.01	49046.80
722.20	48936.21
722.38	48688.41
722.57	48686.36
722.76	48477.47
722.95	48434.46
723.13	48110.88
723.32	48667.93
723.51	48397.60
723.70	48354.59
723.88	48631.07
724.07	48389.41
724.26	48471.32
724.44	47895.85
724.63	48313.63
724.82	48342.30
725.01	47895.85
725.19	47662.38
725.38	48000.29
725.57	48018.72
725.76	48160.03
725.94	48043.30
726.13	47981.86
726.32	48108.83
726.51	47482.16
726.69	47965.48
726.88	48049.44
727.07	47670.57
727.25	47588.65
727.44	47975.72
727.63	47586.60
727.82	47443.24
728.00	47959.33
728.19	47369.52
728.38	47953.19
728.56	47340.85
728.75	47564.07
728.94	47490.35
729.12	47420.72
729.31	47582.51
729.50	47580.46
729.69	47891.75
729.87	47584.55
730.06	47727.91
730.25	46933.30
730.43	47691.05
730.62	47299.89
730.81	47645.99
730.99	47498.54
731.18	47422.76
731.37	47224.11
731.55	47834.41
731.74	47488.30
731.93	47613.23
732.11	47478.06
732.30	47234.35
732.49	47220.02
732.67	47500.59
732.86	47592.75
733.05	47508.78
733.23	47150.38
733.42	47394.09
733.61	47365.42
733.79	47142.19
733.98	47674.66
734.17	47269.17
734.35	47125.81
734.54	47039.79
734.73	47811.88
734.91	47238.45
735.10	46882.10
735.29	47269.17
735.47	46757.17
735.66	46902.58
735.84	47066.42
736.03	46826.81
736.22	47363.37
736.40	46632.25
736.59	46837.05
736.78	46714.17
736.96	46656.82
737.15	46751.03
737.33	46470.46
737.52	46671.16
737.71	46566.71
737.89	46484.79
738.08	46374.20
738.27	46439.74
738.45	47238.45
738.64	46538.04
738.82	46830.90
739.01	46347.58
739.20	46112.06
739.38	46560.57
739.57	46738.74
739.75	46828.85
739.94	46816.57
740.13	46490.94
740.31	45925.70
740.50	46552.38
740.68	46671.16
740.87	46421.31
741.06	46298.43
741.24	46062.91
741.43	45972.80
741.61	46339.39
741.80	46392.64
741.99	46320.96
742.17	46173.50
742.36	46198.08
742.54	46210.37
742.73	45651.27
742.91	46415.16
743.10	46048.58
743.29	46079.30
743.47	46132.54
743.66	45864.26
743.84	46314.81
744.03	45956.42
744.21	45956.42
744.40	46064.96
744.59	46009.67
744.77	45786.44
744.96	45505.87
745.14	46026.05
745.33	45575.50
745.51	45585.74
745.70	45821.25
745.88	45733.19
746.07	45835.59
746.26	45647.18
746.44	45339.98
746.63	45239.63
746.81	45503.82
747.00	45311.31
747.18	45837.64
747.37	45479.24
747.55	45522.25
747.74	45835.59
747.92	45243.73
748.11	45290.83
748.29	45557.06
748.48	45491.53
748.66	45327.69
748.85	45165.90
749.03	45395.28
749.22	44944.72
749.41	45208.91
749.59	45399.37
749.78	44770.64
749.96	44727.64
750.15	45090.13
750.33	45282.64
750.52	44598.62
750.70	45079.89
750.89	44758.36
751.07	44459.35
751.26	44850.52
751.44	44492.12
751.63	44342.62
751.81	44369.24
752.00	44549.46
752.18	44932.43
752.37	44823.89
752.55	44361.05
752.74	44232.03
752.92	44332.38
753.10	43875.68
753.29	44449.11
753.47	44359.00
753.66	44352.86
753.84	44082.53
754.03	44252.51
754.21	43799.91
754.40	44430.68
754.58	43822.44
754.77	44057.95
754.95	43992.42
755.14	44176.73
755.32	44105.06
755.51	43627.88
755.69	43912.55
755.88	43812.20
756.06	43894.11
756.24	43877.73
756.43	44402.01
756.61	44229.98
756.80	44186.97
756.98	43668.84
757.17	43939.17
757.35	44096.86
757.54	43722.08
757.72	43857.25
757.90	43730.28
758.09	43283.82
758.27	43623.78
758.46	43271.53
758.64	43287.92
758.83	43744.61
759.01	43801.96
759.19	43332.97
759.38	43554.15
759.56	44053.86
759.75	43564.39
759.93	43517.29
760.12	43619.69
760.30	43535.72
760.48	43304.30
760.67	43175.28
760.85	43423.08
761.04	43773.28
761.22	43584.87
761.40	43418.99
761.59	43029.87
761.77	42835.31
761.96	42995.06
762.14	43255.15
762.32	42687.86
762.51	42847.60
762.69	42974.58
762.88	42734.96
763.06	43019.63
763.24	43218.28
763.43	43113.84
763.61	42739.06
763.80	42868.08
763.98	42929.52
764.16	42683.76
764.35	42636.66
764.53	42507.64
764.72	42491.26
764.90	42485.11
765.08	42487.16
765.27	42487.16
765.45	42452.34
765.63	42034.56
765.82	42739.06
766.00	42038.65
766.18	41985.41
766.37	42560.89
766.55	42020.22
766.74	42530.17
766.92	41569.67
767.10	42284.41
767.29	42177.92
767.47	42280.31
767.65	41821.57
767.84	42206.59
768.02	42055.04
768.20	41682.31
768.39	41991.55
768.57	41823.62
768.75	42073.47
768.94	41979.26
769.12	42016.13
769.30	41604.49
769.49	41751.94
769.67	41581.96
769.85	41311.63
770.04	41522.57
770.22	41233.80
770.40	41266.57
770.59	41225.61
770.77	41416.07
770.95	41461.13
771.14	41086.35
771.32	40666.52
771.50	40687.00
771.69	41072.01
771.87	41014.67
772.05	41407.88
772.24	40715.67
772.42	40885.65
772.60	41039.25
772.78	40488.34
772.97	40775.06
773.15	41115.02
773.33	41082.25
773.52	40805.78
773.70	40672.66
773.88	41129.36
774.07	40600.98
774.25	40486.29
774.43	40891.79
774.61	41158.03
774.80	40744.34
774.98	41162.12
775.16	40932.75
775.34	41031.05
775.53	40791.44
775.71	41203.08
775.89	41303.43
776.08	41002.38
776.26	41373.06
776.44	41047.44
776.62	40922.51
776.81	40715.67
776.99	41414.02
777.17	40955.28
777.35	41414.02
777.54	41643.40
777.72	41401.74
777.90	41137.55
778.08	41389.45
778.27	41090.44
778.45	41366.92
778.63	41663.88
778.81	41278.86
779.00	41897.34
779.18	41280.91
779.36	41913.73
779.54	41420.17
779.73	41577.86
779.91	42093.95
780.09	41987.46
780.27	41778.56
780.46	41497.99
780.64	42044.80
780.82	41758.08
781.00	41766.27
781.19	42169.72
781.37	42050.94
781.55	41944.45
781.73	42196.35
781.91	42059.13
782.10	41835.91
782.28	42177.92
782.46	42343.80
782.64	42163.58
782.82	41598.34
783.01	42536.31
783.19	42351.99
783.37	42282.36
783.55	42327.42
783.74	42392.95
783.92	41940.35
784.10	42671.48
784.28	42456.44
784.46	41919.87
784.64	41919.87
784.83	42167.68
785.01	42495.35
785.19	41993.60
785.37	42481.02
785.55	42235.26
785.74	41989.50
785.92	41829.76
786.10	42358.14
786.28	42126.72
786.46	41844.10
786.64	41993.60
786.83	42489.21
787.01	42198.40
787.19	41667.97
787.37	42122.62
787.55	42313.08
787.74	41999.74
787.92	42132.86
788.10	41825.67
788.28	41840.00
788.46	41913.73
788.64	41545.09
788.82	41985.41
789.01	42141.05
789.19	41923.97
789.37	41190.80
789.55	41948.54
789.73	41465.22
789.91	41590.15
790.09	41672.07
790.28	41606.53
790.46	41080.21
790.64	41403.78
790.82	41397.64
791.00	41022.86
791.18	40725.91
791.36	40961.42
791.55	41010.57
791.73	40859.02
791.91	40572.31
792.09	40846.74
792.27	40873.36
792.45	41102.73
792.63	40406.42
792.81	40441.24
793.00	40076.70
793.18	40465.81
793.36	40138.14
793.54	40056.22
793.72	39949.73
793.90	40289.69
794.08	40164.76
794.26	39763.36
794.44	39658.91
794.62	39437.73
794.81	40027.55
794.99	39593.38
795.17	39368.10
795.35	39570.85
795.53	39722.40
795.71	39458.21
795.89	39486.89
796.07	39548.32
796.25	39232.94
796.43	39259.56
796.61	38950.32
796.80	38794.67
796.98	38839.73
797.16	38870.45
797.34	38876.59
797.52	38628.79
797.70	38692.27
797.88	38374.84
798.06	38022.59
798.24	38669.75
798.42	38442.42
798.60	38368.69
798.78	38151.61
798.96	38348.21
799.14	37998.01
799.32	38192.57
799.51	37604.80
799.69	38026.68
799.87	37676.48
800.05	37610.95
800.23	37678.53
800.41	37328.33
800.59	37471.68
800.77	37481.92
800.95	37293.51
801.13	37526.98
801.31	37164.49
801.49	37178.82
801.67	36961.74
801.85	36869.58
802.03	36300.25
802.21	36437.46
802.39	36341.21
802.57	36541.91
802.75	36439.51
802.93	36283.86
803.11	36132.31
803.29	36400.60
803.47	35954.14
803.65	36244.95
803.83	36298.20
804.01	36240.86
804.19	36050.39
804.37	35603.94
804.55	35802.59
804.73	35814.88
804.91	35829.21
805.09	35847.64
805.27	35661.28
805.45	35790.30
805.63	35569.12
805.81	35763.68
805.99	35378.66
806.17	35696.10
806.35	35415.52
806.53	34991.59
806.71	35214.82
806.89	35065.32
807.07	34838.00
807.25	35419.62
807.43	34803.18
807.61	34721.26
807.79	34881.00
807.97	34684.40
808.15	34350.58
808.33	34201.08
808.51	34117.11
808.69	34487.79
808.87	34219.51
809.05	34233.85
809.23	34217.46
809.41	33775.10
809.59	33682.94
809.77	34330.10
809.95	33719.81
810.13	33908.22
810.31	33863.16
810.49	33883.64
810.67	33838.59
810.84	33740.29
811.02	33498.62
811.20	33170.95
811.38	33687.04
811.56	33302.02
811.74	33076.74
811.92	33191.43
812.10	33316.36
812.28	33396.23
812.46	33023.50
812.64	33140.23
812.82	32800.27
813.00	32880.14
813.18	33048.07
813.36	32921.10
813.53	32556.56
813.71	32525.84
813.89	32620.05
814.07	32253.46
814.25	32583.18
814.43	32536.08
814.61	32130.58
814.79	32237.08
814.97	32257.56
815.15	32028.18
815.33	31874.59
815.50	32005.66
815.68	32083.48
815.86	32263.70
816.04	31997.46
816.22	31946.26
816.40	31456.80
816.58	31747.61
816.76	31331.87
816.94	31739.42
817.11	31786.52
817.29	31401.50
817.47	31538.72
817.65	31350.31
817.83	31452.70
818.01	31151.65
818.19	31116.84
818.37	31229.48
818.54	30901.80
818.72	31094.31
818.90	31133.22
819.08	30953.00
819.26	30852.65
819.44	30907.94
819.62	30744.11
819.80	30641.71
819.97	30791.21
820.15	30625.32
820.33	30617.13
820.51	30508.59
820.69	30565.93
820.87	30449.20
821.05	30651.95
821.22	30387.76
821.40	30447.15
821.58	30256.69
821.76	29902.39
821.94	29967.93
822.12	30162.48
822.29	30285.36
822.47	29861.43
822.65	30201.40
822.83	29759.03
823.01	30088.76
823.19	29838.90
823.36	29759.03
823.54	29795.90
823.72	29562.43
823.90	29537.85
824.08	29374.02
824.25	29560.38
824.43	29447.74
824.61	29460.03
824.79	29556.28
824.97	29228.61
825.15	29191.75
825.32	29388.35
825.50	29070.92
825.68	29179.46
825.86	29365.82
826.04	29032.00
826.21	28945.99
826.39	29140.55
826.57	28937.80
826.75	29021.77
826.93	28743.24
827.10	28911.17
827.28	28855.88
827.46	29052.48
827.64	28649.03
827.81	28952.13
827.99	28882.50
828.17	28819.02
828.35	28669.51
828.53	28522.06
828.70	28565.07
828.88	28098.13
829.06	28282.45
829.24	28552.78
829.41	28274.26
829.59	28520.01
829.77	28151.38
829.95	28157.52
830.12	28247.63
830.30	28499.53
830.48	28421.71
830.66	27977.30
830.84	28102.23
831.01	27942.49
831.19	28225.11
831.37	27854.42
831.55	28288.59
831.72	27643.48
831.90	27858.52
832.08	27756.12
832.25	27563.61
832.43	27829.85
832.61	27475.55
832.79	27416.16
832.96	27442.78
833.14	27358.81
833.32	27698.78
833.50	27502.17
833.67	27387.49
833.85	27528.80
834.03	27407.97
834.20	27192.93
834.38	27412.06
834.56	27536.99
834.74	27256.42
834.91	27256.42
835.09	27057.76
835.27	26902.12
835.44	26957.41
835.62	26613.35
835.80	26812.01
835.98	27268.70
836.15	27037.28
836.33	26621.55
836.51	26644.07
836.68	26816.10
836.86	26734.18
837.04	27000.42
837.21	26752.62
837.39	26656.36
837.57	26791.53
837.75	26736.23
837.92	26300.01
838.10	26631.79
838.28	26150.51
838.45	26431.08
838.63	26261.10
838.81	26420.84
838.98	26412.65
839.16	26117.75
839.34	26154.61
839.51	25863.80
839.69	25970.29
839.87	26201.71
840.04	25855.61
840.22	26201.71
840.40	25785.97
840.57	25732.73
840.75	25761.40
840.93	25300.61
841.10	25884.28
841.28	26199.66
841.46	25968.24
841.63	26009.20
841.81	25820.79
841.98	25724.54
842.16	25886.32
842.34	25781.88
842.51	25745.02
842.69	25732.73
842.87	25425.53
843.04	25519.74
843.22	25339.52
843.40	25364.09
843.57	25099.90
843.75	25210.50
843.92	25454.20
844.10	25329.28
844.28	25269.89
844.45	25169.54
844.63	25489.02
844.81	25181.82
844.98	25443.96
845.16	25138.82
845.33	25235.07
845.51	24813.19
845.69	25009.79
845.86	24987.27
846.04	24815.24
846.21	24669.83
846.39	24645.26
846.57	24938.12
846.74	24981.12
846.92	24516.23
847.09	24800.90
847.27	24479.37
847.45	24583.82
847.62	24512.14
847.80	24508.04
847.97	24491.66
848.15	24731.27
848.32	24452.75
848.50	24698.50
848.68	24329.87
848.85	24301.20
849.03	23996.05
849.20	24223.37
849.38	24135.31
849.56	24186.51
849.73	24280.72
849.91	24120.98
850.08	24333.96
850.26	23813.78
850.43	24032.91
850.61	23887.51
850.78	23731.86
850.96	23781.01
851.14	23914.13
851.31	23893.65
851.49	23805.59
851.66	23969.43
851.84	23668.37
852.01	24014.48
852.19	23772.82
852.36	23752.34
852.54	23379.61
852.71	23731.86
852.89	23651.99
853.07	23723.67
853.24	23674.52
853.42	23559.83
853.59	23350.94
853.77	23516.83
853.94	23451.29
854.12	23633.56
854.29	23119.52
854.47	23168.67
854.64	23330.46
854.82	22945.44
854.99	23465.63
855.17	23199.39
855.34	22955.68
855.52	22935.20
855.69	23226.01
855.87	23019.17
856.04	22789.80
856.22	23008.93
856.39	22453.93
856.57	22978.21
856.74	22582.95
856.92	22838.95
857.09	22697.64
857.27	22687.40
857.44	22621.86
857.62	22963.87
857.79	22787.75
857.97	22900.39
858.14	22881.95
858.32	22613.67
858.49	22736.55
858.67	22337.20
858.84	22564.52
859.02	22566.57
859.19	22556.33
859.37	22302.38
859.54	22124.21
859.72	22193.84
859.89	22517.42
860.06	22136.49
860.24	22167.21
860.41	22480.55
860.59	21978.80
860.76	22263.47
860.94	21890.74
861.11	22054.58
861.29	22058.67
861.46	22167.21
861.64	21776.05
861.81	21622.45
861.98	21679.80
862.16	21806.77
862.33	21575.35
862.51	21769.91
862.68	21814.96
862.86	21319.35
863.03	21927.60
863.21	21669.56
863.38	21731.00
863.55	21501.62
863.73	21530.30
863.90	21481.14
864.08	21558.97
864.25	21298.88
864.43	21456.57
864.60	21374.65
864.77	20983.49
864.95	21157.57
865.12	20991.68
865.30	20928.19
865.47	21137.09
865.64	20991.68
865.82	21110.46
865.99	21163.71
866.17	21169.85
866.34	21157.57
866.51	21130.94
866.69	21192.38
866.86	21016.26
867.04	21032.64
867.21	21022.40
867.38	20960.96
867.56	20629.19
867.73	20657.86
867.91	20389.58
868.08	20555.46
868.25	20563.65
868.43	20426.44
868.60	20256.46
868.78	20338.38
868.95	20580.04
869.12	20184.78
869.30	20375.24
869.47	20606.66
869.64	20221.64
869.82	20141.77
869.99	20100.81
870.16	20225.74
870.34	20367.05
870.51	20293.32
870.69	19875.54
870.86	20008.65
871.03	20094.67
871.21	20059.85
871.38	19828.43
871.55	19967.70
871.73	19805.91
871.90	19549.91
872.07	19496.66
872.25	19605.20
872.42	19779.28
872.59	19640.02
872.77	19484.37
872.94	19498.71
873.11	19523.29
873.29	19545.81
873.46	19502.81
873.63	19156.70
873.81	19646.16
873.98	19398.36
874.15	19205.85
874.33	18917.09
874.50	19009.25
874.67	19119.84
874.85	18829.02
875.02	19222.23
875.19	18706.15
875.37	18800.35
875.54	18900.70
875.71	18769.63
875.88	18749.15
876.06	18779.87
876.23	18648.80
876.40	18726.63
876.58	18675.43
876.75	18640.61
876.92	18208.49
877.10	18786.02
877.27	18669.28
877.44	18347.75
877.61	18239.21
877.79	18339.56
877.96	18218.73
878.13	18259.69
878.31	17905.39
878.48	18122.48
878.65	18179.82
878.82	18048.75
879.00	18231.02
879.17	17964.78
879.34	18145.00
879.51	17927.92
879.69	17743.60
879.86	17669.87
880.03	17864.43
880.21	17983.21
880.38	17848.05
880.55	17669.87
880.72	17858.29
880.90	17563.38
881.07	17809.14
881.24	17753.84
881.41	17663.73
881.59	17483.51
881.76	17561.33
881.93	17395.45
882.10	17280.76
882.28	17352.44
882.45	17278.71
882.62	17471.22
882.79	17614.58
882.96	17129.21
883.14	17168.12
883.31	17524.47
883.48	17223.42
883.65	17174.27
883.83	17358.58
884.00	16989.95
884.17	16967.42
884.34	17338.10
884.51	17104.64
884.69	17168.12
884.86	16856.83
885.03	16992.00
885.20	16793.34
885.38	17215.23
885.55	16932.61
885.72	17004.28
885.89	16754.43
886.06	16895.74
886.24	16877.31
886.41	16649.99
886.58	16809.73
886.75	16865.02
886.92	16842.50
887.10	16881.41
887.27	16463.62
887.44	16437.00
887.61	16731.90
887.78	16598.79
887.95	16895.74
888.13	16310.02
888.30	16434.95
888.47	16484.10
888.64	16711.42
888.81	16588.55
888.99	16250.63
889.16	16355.08
889.33	16205.58
889.50	16221.96
889.67	16248.58
889.84	16131.85
890.01	16273.16
890.19	16234.25
890.36	16269.06
890.53	16092.94
890.70	16133.90
890.87	16117.51
891.04	16113.42
891.22	16140.04
891.39	15888.14
891.56	16000.78
891.73	15965.96
891.90	16076.55
892.07	15585.04
892.24	16025.36
892.42	15810.32
892.59	15990.54
892.76	15601.43
892.93	15509.27
893.10	15787.79
893.27	15816.46
893.44	15687.44
893.61	15484.69
893.79	15628.05
893.96	15603.47
894.13	15730.45
894.30	15621.91
894.47	15365.91
894.64	15818.51
894.81	15589.14
894.98	15787.79
895.15	15669.01
895.33	15449.88
895.50	15435.54
895.67	15464.21
895.84	15488.79
896.01	15460.12
896.18	15257.37
896.35	15673.10
896.52	15478.55
896.69	15451.92
896.86	15384.34
897.04	15427.35
897.21	15431.44
897.38	15327.00
897.55	15421.20
897.72	15267.61
897.89	15458.07
898.06	15527.70
898.23	15460.12
898.40	15382.29
898.57	15482.64
898.74	15210.26
898.91	15374.10
899.08	15290.13
899.26	15140.63
899.43	15130.39
899.60	15124.25
899.77	15261.46
899.94	15226.65
900.11	15013.66
900.28	15277.85
900.45	15290.13
900.62	15052.57
900.79	15376.15
900.96	15404.82
901.13	15365.91
901.30	15126.30
901.47	15019.80
901.64	15351.57
901.81	14929.69
901.98	15345.43
902.15	15042.33
902.32	15079.19
902.49	15120.15
902.66	15120.15
902.83	15015.71
903.01	15136.54
903.18	15118.11
903.35	15193.88
903.52	15157.02
903.69	15071.00
903.86	15116.06
904.03	15197.98
904.20	15048.47
904.37	15267.61
904.54	14980.89
904.71	15154.97
904.88	15130.39
905.05	14939.93
905.22	14896.92
905.39	15089.43
905.56	14989.08
905.73	14726.94
905.90	15304.47
906.07	15118.11
906.24	15189.78
906.41	14956.32
906.58	15091.48
906.75	14944.03
906.92	14935.84
907.09	15159.06
907.26	14896.92
907.43	14876.44
907.60	14872.35
907.77	15007.52
907.93	15027.99
908.10	14952.22
908.27	14974.75
908.44	14858.01
908.61	14825.25
908.78	14655.26
908.95	14858.01
909.12	14876.44
909.29	14868.25
909.46	14874.40
909.63	14937.88
909.80	15023.90
909.97	14815.01
910.14	14757.66
910.31	14669.60
910.48	14919.45
910.65	14556.96
910.82	14571.30
910.99	14700.32
911.16	14806.81
911.33	14669.60
911.50	14837.53
911.66	14767.90
911.83	14409.51
912.00	14616.35
912.17	14524.19
912.34	14554.91
912.51	14671.65
912.68	14128.94
912.85	14268.20
913.02	14581.54
913.19	14391.08
913.36	14710.56
913.53	14505.76
913.70	14298.92
913.86	14579.49
914.03	14479.14
914.20	14364.45
914.37	14305.06
914.54	14079.79
914.71	14184.23
914.88	14319.40
915.05	14264.10
915.22	14098.22
915.39	14077.74
915.55	13958.96
915.72	13983.53
915.89	13969.19
916.06	14051.11
916.23	13799.21
916.40	13868.84
916.57	13872.94
916.74	13774.64
916.91	13700.91
917.07	13692.72
917.24	13469.49
917.41	13723.44
917.58	13555.51
917.75	13489.97
917.92	13467.44
918.09	13326.13
918.26	13532.98
918.42	13369.14
918.59	13436.72
918.76	13336.37
918.93	12975.93
919.10	13121.34
919.27	13295.41
919.44	13354.80
919.60	13135.67
919.77	13186.87
919.94	13016.89
920.11	13086.52
920.28	13014.84
920.45	13004.60
920.61	12855.10
920.78	13066.04
920.95	12767.04
921.12	12664.64
921.29	12613.44
921.46	12824.38
921.62	12662.59
921.79	12525.38
921.96	12762.94
922.13	12445.51
922.30	12384.07
922.47	12597.06
922.63	12437.31
922.80	12396.35
922.97	12402.50
923.14	12023.62
923.31	12050.25
923.47	12080.97
923.64	12232.52
923.81	12083.02
923.98	12005.19
924.15	11927.37
924.32	12017.48
924.48	12074.82
924.65	12001.10
924.82	11853.64
924.99	11573.07
925.15	11503.44
925.32	11960.14
925.49	11519.82
925.66	11577.17
925.83	11485.01
925.99	11470.67
926.16	11437.91
926.33	11564.88
926.50	11368.27
926.67	11521.87
926.83	11300.69
927.00	11380.56
927.17	11159.38
927.34	11003.74
927.50	11218.77
927.67	11245.40
927.84	11161.43
928.01	11020.12
928.17	10774.36
928.34	10987.35
928.51	10946.39
928.68	10901.34
928.84	10764.12
929.01	10663.77
929.18	10549.09
929.35	10553.18
929.51	10665.82
929.68	10422.11
929.85	10463.07
930.02	10436.45
930.18	10354.53
930.35	10256.23
930.52	10239.84
930.69	10213.22
930.85	10432.35
931.02	10057.57
931.19	9985.90
931.36	10104.68
931.52	10047.33
931.69	10159.97
931.86	9852.78
932.02	9963.37
932.19	9781.10
932.36	9768.81
932.53	9914.22
932.69	9781.10
932.86	9844.59
933.03	9736.04
933.19	9457.52
933.36	9496.43
933.53	9373.55
933.70	9500.53
933.86	9285.49
934.03	9348.98
934.20	9353.07
934.36	9418.61
934.53	9097.08
934.70	9045.88
934.86	9113.46
935.03	8955.77
935.20	8890.23
935.36	8910.71
935.53	8824.70
935.70	8963.96
935.86	8724.35
936.03	8507.26
936.20	8519.55
936.36	8384.38
936.53	8460.16
936.70	8335.23
936.86	8368.00
937.03	8314.75
937.20	8019.85
937.36	8171.40
937.53	8021.89
937.70	7788.43
937.86	7813.00
938.03	7690.12
938.20	7741.32
938.36	7591.82
938.53	7577.48
938.70	7397.26
938.86	7356.30
939.03	7274.38
939.20	7008.15
939.36	7223.19
939.53	7153.55
939.70	7253.91
939.86	6981.53
940.03	6809.50
940.19	6614.94
940.36	6653.85
940.53	6789.02
940.69	6432.67
940.86	6588.32
941.03	6424.48
941.19	6438.81
941.36	6317.98
941.52	6186.91
941.69	6176.67
941.86	6188.96
942.02	6129.57
942.19	6055.84
942.35	6059.94
942.52	5849.00
942.69	5939.11
942.85	5791.66
943.02	5779.37
943.18	5902.25
943.35	5781.42
943.52	5660.59
943.68	5617.58
943.85	5638.06
944.01	5449.64
944.18	5537.71
944.35	5603.24
944.51	5416.88
944.68	5322.67
944.84	5365.68
945.01	5394.35
945.17	5367.73
945.34	5326.77
945.51	5390.25
945.67	5326.77
945.84	5390.25
946.00	5248.94
946.17	5197.74
946.33	5267.38
946.50	5298.10
946.67	5326.77
946.83	5214.13
947.00	5277.62
947.16	5271.47
947.33	5269.42
947.49	5087.15
947.66	5185.46
947.82	5255.09
947.99	5105.59
948.16	5332.91
948.32	5115.83
948.49	5191.60
948.65	5267.38
948.82	5181.36
948.98	5236.66
949.15	5113.78
949.31	5244.85
949.48	5222.32
949.64	5205.94
949.81	5302.19
949.97	5222.32
950.14	5171.12
950.30	5210.03
950.47	5240.75
950.63	5113.78
950.80	5212.08
950.96	5191.60
951.13	5134.26
951.30	5318.57
951.46	5144.50
951.63	5214.13
951.79	5361.58
951.96	5443.50
952.12	5324.72
952.29	5423.02
952.45	5298.10
952.62	5230.51
952.78	5273.52
952.94	5279.66
953.11	5230.51
953.27	5115.83
953.44	5384.11
953.60	5306.29
953.77	5431.21
953.93	5322.67
954.10	5353.39
954.26	5318.57
954.43	5437.36
954.59	5486.51
954.76	5345.20
954.92	5269.42
955.09	5468.08
955.25	5281.71
955.42	5375.92
955.58	5455.79
955.75	5320.62
955.91	5322.67
956.07	5423.02
956.24	5480.36
956.40	5390.25
956.57	5380.01
956.73	5312.43
956.90	5312.43
957.06	5226.42
957.23	5279.66
957.39	5390.25
957.56	5343.15
957.72	5230.51
957.88	5337.01
958.05	5494.70
958.21	5509.04
958.38	5265.33
958.54	5451.69
958.71	5443.50
958.87	5337.01
959.03	5322.67
959.20	5390.25
959.36	5275.57
959.53	5412.78
959.69	5435.31
959.85	5384.11
960.02	5218.22
960.18	5330.86
960.35	5394.35
960.51	5506.99
960.68	5285.81
960.84	5476.27
961.00	5205.94
961.17	5287.86
961.33	5306.29
961.50	5384.11
961.66	5377.97
961.82	5328.81
961.99	5384.11
962.15	5371.82
962.31	5328.81
962.48	5320.62
962.64	5334.96
962.81	5443.50
962.97	5314.48
963.13	5283.76
963.30	5509.04
963.46	5167.03
963.62	5259.18
963.79	5207.98
963.95	5175.22
964.12	5359.53
964.28	5347.25
964.44	5306.29
964.61	5382.06
964.77	5408.69
964.93	5414.83
965.10	5291.95
965.26	5210.03
965.42	5207.98
965.59	5160.88
965.75	5201.84
965.92	5308.34
966.08	5199.79
966.24	5181.36
966.41	5189.55
966.57	5248.94
966.73	5316.53
966.90	5179.31
967.06	5162.93
967.22	5156.79
967.39	5291.95
967.55	5033.91
967.71	5216.18
967.88	5072.82
968.04	5164.98
968.20	5164.98
968.37	5173.17
968.53	5023.67
968.69	5035.96
968.85	5148.59
969.02	5119.92
969.18	5087.15
969.34	5201.84
969.51	5087.15
969.67	5189.55
969.83	5017.52
970.00	5097.39
970.16	5003.19
970.32	5050.29
970.48	5162.93
970.65	4927.41
970.81	4900.79
970.97	4884.41
971.14	4921.27
971.30	5017.52
971.46	4917.17
971.63	5072.82
971.79	5099.44
971.95	5001.14
972.11	4837.30
972.28	4945.84
972.44	5019.57
972.60	4896.69
972.76	4954.04
972.93	4870.07
973.09	4943.80
973.25	4943.80
973.42	4865.97
973.58	4857.78
973.74	4749.24
973.90	4886.45
974.07	4652.98
974.23	4902.84
974.39	4794.29
974.55	4843.45
974.72	4775.86
974.88	4757.43
975.04	4814.77
975.20	4628.41
975.37	4837.30
975.53	4782.01
975.69	4728.76
975.85	4722.62
976.01	4716.47
976.18	4650.94
976.34	4640.70
976.50	4689.85
976.66	4839.35
976.83	4595.64
976.99	4687.80
977.15	4706.23
977.31	4577.21
977.47	4736.95
977.64	4657.08
977.80	4589.50
977.96	4616.12
978.12	4548.54
978.29	4517.82
978.45	4364.22
978.61	4513.72
978.77	4687.80
978.93	4419.52
979.10	4483.00
979.26	4489.15
979.42	4523.96
979.58	4431.80
979.74	4419.52
979.91	4409.28
980.07	4251.58
980.23	4399.04
980.39	4343.74
980.55	4474.81
980.71	4302.78
980.88	4378.56
981.04	4528.06
981.20	4378.56
981.36	4382.65
981.52	4358.08
981.68	4253.63
981.85	4292.54
982.01	4278.21
982.17	4259.78
982.33	4280.25
982.49	4462.52
982.65	4323.26
982.82	4351.93
982.98	4390.84
983.14	4063.17
983.30	4214.72
983.46	4173.76
983.62	4192.19
983.79	4120.51
983.95	4210.62
984.11	4097.99
984.27	4173.76
984.43	4175.81
984.59	4155.33
984.75	4116.42
984.91	4048.83
985.08	4253.63
985.24	4022.21
985.40	3928.00
985.56	4083.65
985.72	4065.22
985.88	4110.27
986.04	4030.40
986.20	4026.31
986.37	4110.27
986.53	3925.96
986.69	4034.50
986.85	3993.54
987.01	4014.02
987.17	3938.24
987.33	4050.88
987.49	3964.87
987.65	4059.07
987.82	3999.68
987.98	3915.72
988.14	3960.77
988.30	4057.03
988.46	3835.85
988.62	4038.59
988.78	3811.27
988.94	3913.67
989.10	3831.75
989.26	3727.30
989.42	3796.93
989.59	3788.74
989.75	3792.84
989.91	3801.03
990.07	3674.06
990.23	3721.16
990.39	3831.75
990.55	3891.14
990.71	3801.03
990.87	3813.32
991.03	3719.11
991.19	3694.54
991.35	3786.69
991.51	3696.58
991.67	3889.09
991.83	3723.21
992.00	3694.54
992.16	3786.69
992.32	3678.15
992.48	3706.82
992.64	3678.15
992.80	3624.90
992.96	3735.50
993.12	3649.48
993.28	3694.54
993.44	3592.14
993.60	3590.09
993.76	3639.24
993.92	3538.89
994.08	3637.19
994.24	3639.24
994.40	3528.65
994.56	3669.96
994.72	3657.67
994.88	3522.51
995.04	3499.98
995.20	3459.02
995.36	3518.41
995.52	3596.23
995.68	3549.13
995.84	3606.47
996.00	3694.54
996.16	3448.78
996.32	3559.37
996.48	3465.16
996.64	3588.04
996.80	3416.01
996.96	3508.17
997.12	3434.44
997.28	3387.34
997.44	3405.77
997.60	3301.33
997.76	3370.96
997.92	3403.72
998.08	3342.28
998.24	3391.44
998.40	3233.74
998.56	3526.60
998.72	3303.37
998.88	3311.57
999.04	3303.37
999.20	3352.52
999.36	3162.06
999.52	3424.20
999.68	3293.13
999.84	3256.27
1000.00	3278.80
1000.16	3284.94
1000.32	3180.50
1000.48	3348.43
1000.64	3151.82
1000.80	3213.26
1000.95	3076.05
1001.11	3327.95
1001.27	3137.49
1001.43	3129.30
1001.59	3082.19
1001.75	3168.21
1001.91	3065.81
1002.07	3137.49
1002.23	3139.54
1002.39	3117.01
1002.55	3147.73
1002.71	3033.04
1002.87	3053.52
1003.03	2990.03
1003.19	3033.04
1003.34	3172.30
1003.50	3198.93
1003.66	3096.53
1003.82	3104.72
1003.98	3104.72
1004.14	3059.67
1004.30	2944.98
1004.46	2967.51
1004.62	3035.09
1004.78	3000.27
1004.94	3049.43
1005.09	2983.89
1005.25	2957.27
1005.41	2930.64
1005.57	2996.18
1005.73	2932.69
1005.89	2936.79
1006.05	2998.23
1006.21	2906.07
1006.37	2940.88
1006.52	2934.74
1006.68	2869.20
1006.84	3033.04
1007.00	2957.27
1007.16	2901.97
1007.32	2826.20
1007.48	2930.64
1007.64	2914.26
1007.79	2830.29
1007.95	2811.86
1008.11	2940.88
1008.27	2818.00
1008.43	2795.48
1008.59	2928.60
1008.75	2838.48
1008.91	2912.21
1009.06	2775.00
1009.22	2908.12
1009.38	2830.29
1009.54	2822.10
1009.70	2805.72
1009.86	2807.77
1010.01	2734.04
1010.17	2662.36
1010.33	2838.48
1010.49	2832.34
1010.65	2797.53
1010.81	2668.50
1010.96	2738.13
1011.12	2717.65
1011.28	2691.03
1011.44	2811.86
1011.60	2742.23
1011.76	2631.64
1011.91	2770.90
1012.07	2738.13
1012.23	2613.21
1012.39	2568.15
1012.55	2699.22
1012.71	2619.35
1012.86	2648.02
1013.02	2703.32
1013.18	2531.29
1013.34	2639.83
1013.50	2627.54
1013.65	2699.22
1013.81	2559.96
1013.97	2637.78
1014.13	2668.50
1014.29	2592.73
1014.44	2670.55
1014.60	2619.35
1014.76	2658.26
1014.92	2596.82
1015.07	2625.50
1015.23	2568.15
1015.39	2566.10
1015.55	2543.58
1015.71	2525.15
1015.86	2432.99
1016.02	2488.28
1016.18	2416.60
1016.34	2555.86
1016.49	2588.63
1016.65	2596.82
1016.81	2498.52
1016.97	2498.52
1017.12	2525.15
1017.28	2414.56
1017.44	2379.74
1017.60	2527.19
1017.75	2488.28
1017.91	2453.47
1018.07	2412.51
1018.23	2379.74
1018.38	2430.94
1018.54	2371.55
1018.70	2439.13
1018.86	2344.92
1019.01	2353.12
1019.17	2295.77
1019.33	2535.39
1019.49	2439.13
1019.64	2539.48
1019.80	2424.80
1019.96	2420.70
1020.12	2351.07
1020.27	2289.63
1020.43	2396.12
1020.59	2439.13
1020.74	2439.13
1020.90	2338.78
1021.06	2367.45
1021.22	2394.08
1021.37	2377.69
1021.53	2297.82
1021.69	2344.92
1021.84	2222.05
1022.00	2310.11
1022.16	2377.69
1022.31	2293.72
1022.47	2324.44
1022.63	2269.15
1022.79	2170.85
1022.94	2363.36
1023.10	2412.51
1023.26	2297.82
1023.41	2265.05
1023.57	2248.67
1023.73	2342.88
1023.88	2252.77
1024.04	2236.38
1024.20	2172.89
1024.35	2324.44
1024.51	2330.59
1024.67	2242.53
1024.82	2312.16
1024.98	2193.37
1025.14	2242.53
1025.29	2197.47
1025.45	2289.63
1025.61	2121.70
1025.76	2199.52
1025.92	2185.18
1026.08	2224.09
1026.23	2232.29
1026.39	2179.04
1026.55	2150.37
1026.70	2109.41
1026.86	2226.14
1027.02	2222.05
1027.17	2150.37
1027.33	2250.72
1027.48	2224.09
1027.64	2154.46
1027.80	2111.46
1027.95	2238.43
1028.11	2076.64
1028.27	2191.33
1028.42	2164.70
1028.58	2074.59
1028.73	2164.70
1028.89	2144.22
1029.05	2207.71
1029.20	2052.06
>>>>>End Processed Spectral Data<<<<<
