SpectraSuite Data File
++++++++++++++++++++++++++++++++++++
Date: Fri Jun 02 14:53:31 CEST 2017
User: INFO_000
Dark Spectrum Present: No
Reference Spectrum Present: No
Number of Sampled Component Spectra: 1
Spectrometers: USB4H00879
Integration Time (usec): 80000 (USB4H00879)
Spectra Averaged: 1 (USB4H00879)
Boxcar Smoothing: 0 (USB4H00879)
Correct for Electrical Dark: No (USB4H00879)
Strobe/Lamp Enabled: No (USB4H00879)
Correct for Detector Non-linearity: No (USB4H00879)
Correct for Stray Light: No (USB4H00879)
Number of Pixels in Processed Spectrum: 3648
>>>>>Begin Processed Spectral Data<<<<<
345.13	1288.17
345.34	1288.17
345.56	1288.17
345.78	1265.64
345.99	1282.03
346.21	1757.16
346.42	1669.09
346.64	1603.56
346.86	1785.83
347.07	1691.62
347.29	1779.68
347.50	1601.51
347.72	1679.33
347.94	1763.30
348.15	1578.98
348.37	1556.46
348.59	1654.76
348.80	1609.70
349.02	1771.49
349.23	1828.84
349.45	1830.88
349.67	1843.17
349.88	1839.08
350.10	1978.34
350.31	1869.80
350.53	1787.88
350.75	1961.95
350.96	1830.88
351.18	1951.71
351.39	1890.28
351.61	1757.16
351.82	1935.33
352.04	2000.87
352.26	1804.26
352.47	1906.66
352.69	1859.56
352.90	1730.53
353.12	1896.42
353.34	1855.46
353.55	1982.43
353.77	1824.74
353.98	1806.31
354.20	1839.08
354.41	1890.28
354.63	1914.85
354.85	1961.95
355.06	1961.95
355.28	1789.92
355.49	1914.85
355.71	1927.14
355.92	1900.52
356.14	1961.95
356.35	1966.05
356.57	1773.54
356.79	1912.80
357.00	1877.99
357.22	1978.34
357.43	1904.61
357.65	1886.18
357.86	1853.41
358.08	1939.43
358.29	1931.23
358.51	1996.77
358.72	2062.30
358.94	1935.33
359.16	2000.87
359.37	1880.04
359.59	1955.81
359.80	1955.81
360.02	1959.91
360.23	1961.95
360.45	1978.34
360.66	1959.91
360.88	1851.36
361.09	1992.67
361.31	1986.53
361.52	1959.91
361.74	2035.68
361.95	2054.11
362.17	1949.67
362.38	2002.91
362.60	2013.15
362.81	2009.06
363.03	1886.18
363.24	2011.11
363.46	2127.84
363.67	1990.63
363.89	2023.39
364.10	2029.54
364.32	1992.67
364.53	2121.70
364.75	1937.38
364.96	2062.30
365.18	1982.43
365.39	2043.87
365.61	1929.19
365.82	2123.74
366.04	1982.43
366.25	1933.28
366.47	2013.15
366.68	2056.16
366.90	1994.72
367.11	2058.21
367.33	2146.27
367.54	2072.54
367.76	2013.15
367.97	2074.59
368.19	2109.41
368.40	2064.35
368.62	1978.34
368.83	1994.72
369.05	2082.78
369.26	2039.78
369.48	1933.28
369.69	1994.72
369.91	2066.40
370.12	2033.63
370.33	2183.13
370.55	1984.48
370.76	2045.92
370.98	2164.70
371.19	2111.46
371.41	2086.88
371.62	2060.26
371.84	2000.87
372.05	2209.76
372.27	2066.40
372.48	2070.50
372.69	2129.89
372.91	2174.94
373.12	2144.22
373.34	2084.83
373.55	2148.32
373.77	2222.05
373.98	2174.94
374.20	2142.18
374.41	2232.29
374.62	2090.98
374.84	2183.13
375.05	2220.00
375.27	2181.09
375.48	2117.60
375.70	2265.05
375.91	2263.01
376.12	2310.11
376.34	2176.99
376.55	2232.29
376.77	2256.86
376.98	2162.66
377.19	2199.52
377.41	2109.41
377.62	2127.84
377.84	2224.09
378.05	2351.07
378.27	2228.19
378.48	2318.30
378.69	2478.04
378.91	2320.35
379.12	2273.25
379.34	2240.48
379.55	2379.74
379.76	2306.01
379.98	2199.52
380.19	2265.05
380.41	2349.02
380.62	2293.72
380.83	2330.59
381.05	2265.05
381.26	2385.88
381.47	2213.85
381.69	2240.48
381.90	2463.71
382.12	2299.87
382.33	2254.81
382.54	2295.77
382.76	2375.64
382.97	2361.31
383.19	2285.53
383.40	2383.84
383.61	2299.87
383.83	2314.20
384.04	2303.96
384.25	2392.03
384.47	2406.36
384.68	2363.36
384.89	2265.05
385.11	2342.88
385.32	2330.59
385.54	2338.78
385.75	2375.64
385.96	2500.57
386.18	2330.59
386.39	2334.68
386.60	2398.17
386.82	2322.40
387.03	2404.32
387.24	2443.23
387.46	2516.95
387.67	2555.86
387.88	2516.95
388.10	2500.57
388.31	2469.85
388.52	2514.91
388.74	2541.53
388.95	2453.47
389.16	2521.05
389.38	2496.47
389.59	2682.84
389.80	2699.22
390.02	2594.78
390.23	2596.82
390.44	2562.01
390.66	2506.71
390.87	2488.28
391.08	2525.15
391.30	2695.13
391.51	2584.54
391.72	2711.51
391.94	2666.46
392.15	2660.31
392.36	2600.92
392.58	2613.21
392.79	2676.70
393.00	2699.22
393.22	2709.46
393.43	2797.53
393.64	2766.81
393.85	2811.86
394.07	2580.44
394.28	2756.57
394.49	2711.51
394.71	2867.16
394.92	2850.77
395.13	2760.66
395.35	2695.13
395.56	2682.84
395.77	2734.04
395.98	2856.92
396.20	2875.35
396.41	2783.19
396.62	2879.44
396.84	2813.91
397.05	2871.25
397.26	2916.31
397.47	2973.65
397.69	2942.93
397.90	2951.12
398.11	2985.94
398.32	2869.20
398.54	2887.64
398.75	2871.25
398.96	2951.12
399.18	3037.14
399.39	2996.18
399.60	3033.04
399.81	2883.54
400.03	3016.66
400.24	3196.88
400.45	3157.97
400.66	3063.76
400.88	3057.62
401.09	3209.17
401.30	3119.06
401.51	3086.29
401.73	3182.54
401.94	3141.58
402.15	3127.25
402.36	3203.02
402.58	3119.06
402.79	3155.92
403.00	3129.30
403.21	3133.39
403.43	3149.78
403.64	3278.80
403.85	3114.96
404.06	3342.28
404.27	3256.27
404.49	3239.89
404.70	3270.61
404.91	3327.95
405.12	3235.79
405.34	3200.98
405.55	3436.49
405.76	3119.06
405.97	3250.13
406.19	3420.11
406.40	3241.93
406.61	3315.66
406.82	3295.18
407.03	3286.99
407.25	3420.11
407.46	3557.32
407.67	3487.69
407.88	3526.60
408.09	3434.44
408.31	3342.28
408.52	3465.16
408.73	3489.74
408.94	3362.76
409.15	3450.83
409.37	3573.71
409.58	3540.94
409.79	3499.98
410.00	3622.86
410.21	3557.32
410.43	3553.23
410.64	3444.68
410.85	3508.17
411.06	3610.57
411.27	3596.23
411.48	3624.90
411.70	3600.33
411.91	3620.81
412.12	3831.75
412.33	3694.54
412.54	3590.09
412.76	3731.40
412.97	3758.02
413.18	3592.14
413.39	3706.82
413.60	3774.41
413.81	3715.02
414.03	3710.92
414.24	3770.31
414.45	3928.00
414.66	3651.53
414.87	3829.70
415.08	3780.55
415.30	3852.23
415.51	3805.13
415.72	3766.21
415.93	3755.97
416.14	3915.72
416.35	3870.66
416.56	3788.74
416.78	3911.62
416.99	3940.29
417.20	3895.24
417.41	3833.80
417.62	3876.80
417.83	4011.97
418.04	4048.83
418.26	3930.05
418.47	3981.25
418.68	4122.56
418.89	4165.57
419.10	4112.32
419.31	3991.49
419.52	4081.60
419.73	4044.74
419.95	4190.14
420.16	4050.88
420.37	4186.05
420.58	4147.14
420.79	3919.81
421.00	4057.03
421.21	4235.20
421.42	4138.94
421.63	4177.86
421.85	4319.17
422.06	4345.79
422.27	4179.90
422.48	4263.87
422.69	4329.41
422.90	4380.61
423.11	4294.59
423.32	4259.78
423.53	4507.58
423.75	4394.94
423.96	4595.64
424.17	4433.85
424.38	4585.40
424.59	4349.89
424.80	4626.36
425.01	4388.80
425.22	4589.50
425.43	4513.72
425.64	4722.62
425.85	4728.76
426.06	4630.46
426.28	4675.51
426.49	4636.60
426.70	4636.60
426.91	4616.12
427.12	4642.75
427.33	4755.38
427.54	4718.52
427.75	4704.18
427.96	4917.17
428.17	4722.62
428.38	4847.54
428.59	4888.50
428.80	4798.39
429.01	4964.28
429.23	4937.65
429.44	4962.23
429.65	4929.46
429.86	4966.32
430.07	4874.17
430.28	4935.60
430.49	5046.20
430.70	5130.16
430.91	5089.20
431.12	5097.39
431.33	5207.98
431.54	5337.01
431.75	5261.23
431.96	5113.78
432.17	5126.07
432.38	5119.92
432.59	5283.76
432.80	5220.27
433.01	5232.56
433.22	5306.29
433.43	5355.44
433.64	5154.74
433.85	5230.51
434.06	5343.15
434.27	5230.51
434.49	5523.37
434.70	5343.15
434.91	5414.83
435.12	5439.40
435.33	5386.16
435.54	5468.08
435.75	5322.67
435.96	5310.38
436.17	5373.87
436.38	5597.10
436.59	5404.59
436.80	5586.86
437.01	5722.02
437.22	5750.70
437.43	5724.07
437.64	5492.65
437.85	5644.20
438.06	5754.79
438.27	5629.87
438.48	5732.26
438.69	5910.44
438.90	5687.21
439.11	5674.92
439.32	5834.66
439.53	5773.22
439.74	5881.77
439.95	5762.98
440.16	5820.33
440.37	5935.01
440.57	5773.22
440.78	5980.07
440.99	5992.36
441.20	5824.42
441.41	5896.10
441.62	5889.96
441.83	5877.67
442.04	6039.46
442.25	6195.11
442.46	6053.80
442.67	6166.43
442.88	6498.20
443.09	5965.73
443.30	6074.28
443.51	6068.13
443.72	6262.69
443.93	6219.68
444.14	6395.81
444.35	6090.66
444.56	6258.59
444.77	6229.92
444.98	6301.60
445.19	6293.41
445.40	6285.22
445.61	6414.24
445.81	6459.29
446.02	6490.01
446.23	6621.08
446.44	6180.77
446.65	6582.17
446.86	6436.77
447.07	6664.09
447.28	6561.69
447.49	6645.66
447.70	6561.69
447.91	6668.19
448.12	6598.56
448.33	6762.39
448.54	6803.35
448.74	6518.68
448.95	6797.21
449.16	6612.89
449.37	6897.56
449.58	6776.73
449.79	7042.96
450.00	6717.34
450.21	7067.54
450.42	7024.53
450.63	7139.22
450.84	6973.33
451.05	7151.51
451.25	7112.60
451.46	7024.53
451.67	7063.44
451.88	7229.33
452.09	7067.54
452.30	7153.55
452.51	7202.71
452.72	7454.61
452.93	7655.31
453.13	7266.19
453.34	7432.08
453.55	7305.10
453.76	7206.80
453.97	7589.77
454.18	7561.10
454.39	7585.68
454.60	7456.65
454.81	7591.82
455.01	7700.36
455.22	7348.11
455.43	7733.13
455.64	7995.27
455.85	7892.87
456.06	8023.94
456.27	7829.38
456.48	7784.33
456.68	7823.24
456.89	7907.21
457.10	8179.59
457.31	8073.09
457.52	8013.70
457.73	8206.21
457.94	8374.14
458.14	8126.34
458.35	8576.89
458.56	8429.44
458.77	8243.07
458.98	8415.10
459.19	8515.45
459.39	8597.37
459.60	8662.91
459.81	8408.96
460.02	8707.96
460.23	8621.95
460.44	8808.31
460.65	8781.69
460.85	8824.70
461.06	8937.34
461.27	8777.59
461.48	9066.36
461.69	9193.33
461.89	8793.98
462.10	9052.02
462.31	8894.33
462.52	9025.40
462.73	9113.46
462.94	9385.84
463.14	9326.45
463.35	9172.85
463.56	9842.54
463.77	9770.86
463.98	9303.92
464.18	9387.89
464.39	9727.85
464.60	9975.66
464.81	9725.80
465.02	9639.79
465.23	10030.95
465.43	9908.07
465.64	10180.45
465.85	10080.10
466.06	9951.08
466.27	10223.46
466.47	10239.84
466.68	10274.66
466.89	10346.34
467.10	10446.69
467.30	10299.23
467.51	10561.37
467.72	10702.68
467.93	10432.35
468.14	10600.29
468.34	10682.20
468.55	10637.15
468.76	10829.66
468.97	10753.88
469.17	11022.17
469.38	11145.05
469.59	10907.48
469.80	11192.15
470.01	11018.07
470.21	11218.77
470.42	11394.90
470.63	11712.33
470.84	11460.43
471.04	11499.34
471.25	11728.72
471.46	11532.11
471.67	11921.23
471.87	11618.13
472.08	12209.99
472.29	12035.91
472.50	11820.88
472.70	11831.12
472.91	12148.55
473.12	12283.72
473.33	12400.45
473.53	12425.03
473.74	12191.56
473.95	12496.71
474.16	12627.78
474.36	12670.78
474.57	12875.58
474.78	13045.56
474.99	12816.19
475.19	12801.85
475.40	13262.65
475.61	13363.00
475.81	13354.80
476.02	13680.43
476.23	13487.92
476.44	13524.79
476.64	13643.57
476.85	13842.22
477.06	13690.67
477.27	13825.84
477.47	13946.67
477.68	13938.48
477.89	14184.23
478.09	14403.36
478.30	14405.41
478.51	14325.54
478.71	14507.81
478.92	14636.83
479.13	14751.52
479.34	14872.35
479.54	14886.68
479.75	14905.12
479.96	15085.34
480.16	15187.74
480.37	15226.65
480.58	15038.23
480.78	15673.10
480.99	15714.06
481.20	15429.40
481.41	15765.26
481.61	15847.18
481.82	16066.31
482.03	15767.31
482.23	15943.44
482.44	16439.05
482.65	16318.22
482.85	16299.78
483.06	16279.30
483.27	16381.70
483.47	16500.48
483.68	16529.16
483.89	16750.34
484.09	16535.30
484.30	16766.72
484.51	17276.66
484.71	17121.02
484.92	17157.88
485.13	17155.83
485.33	17346.30
485.54	17497.84
485.75	17581.81
485.95	17772.27
486.16	17739.51
486.37	17917.68
486.57	17770.22
486.78	17835.76
486.98	17841.90
487.19	18126.57
487.40	18302.70
487.60	17999.60
487.81	18607.84
488.02	18398.95
488.22	18570.98
488.43	18452.20
488.64	18581.22
488.84	18632.42
489.05	19027.68
489.25	18835.17
489.46	18927.33
489.67	19050.21
489.87	18861.79
490.08	19101.40
490.29	19431.13
490.49	19566.29
490.70	19545.81
490.90	19410.65
491.11	19496.66
491.32	19680.98
491.52	19781.33
491.73	19838.67
491.94	20182.73
492.14	20088.53
492.35	20305.61
492.55	20168.40
492.76	20299.47
492.97	20434.63
493.17	20672.20
493.38	20471.50
493.58	20893.38
493.79	20614.85
494.00	20655.81
494.20	21003.97
494.41	20967.10
494.61	21399.23
494.82	20979.39
495.02	21202.62
495.23	21151.42
495.44	21311.16
495.64	21421.75
495.85	21339.83
496.05	21614.26
496.26	21526.20
496.47	22185.65
496.67	21700.28
496.88	22171.31
497.08	21884.59
497.29	21976.75
497.49	21933.75
497.70	22314.67
497.91	22202.03
498.11	22044.34
498.32	22732.45
498.52	22574.76
498.73	23015.07
498.93	22623.91
499.14	22697.64
499.34	22642.34
499.55	23029.41
499.76	22722.21
499.96	22793.89
500.17	22990.50
500.37	23062.18
500.58	22892.19
500.78	23373.47
500.99	23058.08
501.19	23539.35
501.40	23674.52
501.60	23285.40
501.81	23705.24
502.02	23416.47
502.22	23664.28
502.43	23813.78
502.63	24037.01
502.84	23932.56
503.04	23846.55
503.25	24067.73
503.45	23998.10
503.66	24319.63
503.86	23938.71
504.07	24536.71
504.27	24192.65
504.48	24487.56
504.68	24491.66
504.89	24727.17
505.09	24628.87
505.30	24702.60
505.50	24354.44
505.71	24755.85
505.91	24641.16
506.12	24694.41
506.32	24776.33
506.53	24735.37
506.73	25153.15
506.94	25130.62
507.14	24925.83
507.35	25241.21
507.55	25398.91
507.76	25577.08
507.96	25198.21
508.17	25538.17
508.37	25517.69
508.58	25433.72
508.78	25695.86
508.99	25906.80
509.19	25953.91
509.40	25900.66
509.60	25489.02
509.81	25943.67
510.01	26029.68
510.22	26244.72
510.42	26529.39
510.63	26232.43
510.83	26449.52
511.04	26343.02
511.24	26476.14
511.44	26232.43
511.65	26478.19
511.85	26566.25
512.06	26320.49
512.26	26777.19
512.47	26533.48
512.67	26959.46
512.88	26787.43
513.08	26578.54
513.29	26910.31
513.49	26607.21
513.69	26820.20
513.90	26803.82
514.10	27154.02
514.31	27287.14
514.51	27340.38
514.72	27250.27
514.92	27690.59
515.13	27328.10
515.33	27487.84
515.53	27575.90
515.74	27950.68
515.94	27735.64
516.15	27772.50
516.35	27760.22
516.56	28108.37
516.76	27704.92
516.96	27981.40
517.17	28081.75
517.37	28149.33
517.58	27827.80
517.78	28227.15
517.99	28319.31
518.19	28302.93
518.39	28560.97
518.60	28419.66
518.80	28442.19
519.01	28646.99
519.21	28745.29
519.41	28864.07
519.62	28960.33
519.82	29107.78
520.03	29179.46
520.23	29034.05
520.43	28964.42
520.64	29564.48
520.84	29761.08
521.05	29201.99
521.25	29662.78
521.45	29687.36
521.66	29707.83
521.86	29664.83
522.07	29910.58
522.27	29906.49
522.47	29705.79
522.68	30187.06
522.88	29947.45
523.08	29998.65
523.29	30690.86
523.49	30623.28
523.70	30658.09
523.90	30459.44
524.10	30834.22
524.31	30729.77
524.51	30596.65
524.71	31049.25
524.92	30860.84
525.12	31612.45
525.33	31215.14
525.53	31280.67
525.73	31731.23
525.94	31446.56
526.14	31641.12
526.34	31825.43
526.55	31843.87
526.75	31952.41
526.95	32089.62
527.16	32011.80
527.36	31839.77
527.56	32265.75
527.77	32505.36
527.97	32439.82
528.17	32556.56
528.38	32693.77
528.58	32632.33
528.78	32421.39
528.99	32941.58
529.19	32912.91
529.39	33003.02
529.60	33187.33
529.80	33209.86
530.00	33242.63
530.21	33084.94
530.41	33775.10
530.61	33805.82
530.82	33502.72
531.02	33728.00
531.22	34010.62
531.43	33852.92
531.63	34354.68
531.83	34235.89
532.04	34692.59
532.24	34592.24
532.44	35116.52
532.64	34948.59
532.85	35239.40
533.05	34856.43
533.25	34932.20
533.46	34848.24
533.66	35489.25
533.86	35302.89
534.07	35646.94
534.27	35343.84
534.47	35837.41
534.67	35294.69
534.88	35642.85
535.08	35554.79
535.28	35974.62
535.49	36183.51
535.69	36490.71
535.89	36369.88
536.09	36607.44
536.30	36787.66
536.50	36996.56
536.70	36838.86
536.91	36779.47
537.11	37158.34
537.31	36896.20
537.51	36947.40
537.72	37377.48
537.92	37242.31
538.12	37467.59
538.32	37301.70
538.53	37545.41
538.73	37510.60
538.93	38020.54
539.13	37600.71
539.34	37631.43
539.54	37236.17
539.74	38348.21
539.94	38053.31
540.15	38184.38
540.35	38507.96
540.55	38393.27
540.75	38624.69
540.96	38471.09
541.16	38923.69
541.36	39136.68
541.56	38659.51
541.77	39226.79
541.97	38983.09
542.17	39177.64
542.37	38852.02
542.58	39277.99
542.78	38972.85
542.98	39538.08
543.18	39493.03
543.38	40185.24
543.59	40009.12
543.79	39427.49
543.99	39884.19
544.19	39708.07
544.40	40162.72
544.60	40340.89
544.80	40041.88
545.00	39959.97
545.20	40381.85
545.41	40080.80
545.61	40353.18
545.81	40555.93
546.01	40377.75
546.21	40019.36
546.42	40328.60
546.62	40469.91
546.82	40359.32
547.02	40887.70
547.22	40871.31
547.43	40803.73
547.63	40818.07
547.83	41145.74
548.03	41016.72
548.23	41260.43
548.44	41293.19
548.64	41088.40
548.84	41239.95
549.04	41258.38
549.24	41389.45
549.45	41438.60
549.65	41158.03
549.85	41553.29
550.05	41866.63
550.25	41737.60
550.45	41522.57
550.66	41979.26
550.86	41414.02
551.06	42163.58
551.26	41690.50
551.46	42149.24
551.66	41817.47
551.87	42093.95
552.07	41788.80
552.27	42139.00
552.47	42153.34
552.67	42372.47
552.87	42202.49
553.07	42380.67
553.28	42358.14
553.48	42667.38
553.68	42419.58
553.88	42614.13
554.08	43050.35
554.28	42564.98
554.48	42130.81
554.69	42698.10
554.89	42714.48
555.09	42915.19
555.29	42509.69
555.49	43154.80
555.69	42751.35
555.89	43058.54
556.10	43457.90
556.30	42974.58
556.50	43259.24
556.70	42818.93
556.90	43097.45
557.10	43011.44
557.30	42724.72
557.50	43378.03
557.70	43171.18
557.91	43369.83
558.11	43574.63
558.31	43777.38
558.51	43363.69
558.71	43453.80
558.91	43658.60
559.11	43367.79
559.31	43263.34
559.51	43316.59
559.72	43380.07
559.92	43611.49
560.12	43427.18
560.32	43797.86
560.52	43328.87
560.72	43636.07
560.92	43689.32
561.12	43849.06
561.32	43836.77
561.52	43799.91
561.72	44137.82
561.93	43795.81
562.13	43373.93
562.33	43445.61
562.53	44332.38
562.73	43361.64
562.93	43922.79
563.13	44037.47
563.33	43859.30
563.53	44189.02
563.73	43961.70
563.93	44174.69
564.13	44741.97
564.33	44158.30
564.53	44240.22
564.74	44297.56
564.94	44152.16
565.14	44141.92
565.34	44264.80
565.54	43990.37
565.74	44172.64
565.94	44440.92
566.14	44676.44
566.34	44293.47
566.54	45090.13
566.74	44356.96
566.94	44475.74
567.14	44791.12
567.34	44625.24
567.54	44678.49
567.74	44623.19
567.94	44336.48
568.14	44739.93
568.34	45106.51
568.54	44625.24
568.74	44903.76
568.94	44660.05
569.14	44836.18
569.34	44780.88
569.54	45024.59
569.75	44649.81
569.95	44739.93
570.15	45206.86
570.35	44899.67
570.55	44977.49
570.75	45077.84
570.95	45223.25
571.15	45286.73
571.35	45122.90
571.55	45016.40
571.75	44989.78
571.95	45282.64
572.15	44625.24
572.35	45309.26
572.55	45034.83
572.75	45319.50
572.95	45016.40
573.15	45536.59
573.35	45864.26
573.55	45303.12
573.75	45210.96
573.95	45391.18
574.15	45055.31
574.35	45487.43
574.55	45073.74
574.75	45430.09
574.95	45649.22
575.15	45456.71
575.34	46081.34
575.54	45741.38
575.74	45989.19
575.94	46054.72
576.14	45835.59
576.34	45933.89
576.54	45710.66
576.74	46249.28
576.94	46157.12
577.14	46189.89
577.34	46310.72
577.54	45901.12
577.74	46015.81
577.94	46134.59
578.14	45923.65
578.34	46040.39
578.54	45927.75
578.74	46075.20
578.94	46634.30
579.14	46327.10
579.34	46282.05
579.54	46417.21
579.74	46576.95
579.94	46413.12
580.13	46243.13
580.33	46945.59
580.53	46574.91
580.73	46517.56
580.93	46724.41
581.13	46966.07
581.33	46953.78
581.53	46880.05
581.73	47021.36
581.93	47060.27
582.13	46964.02
582.33	46791.99
582.53	47084.85
582.73	47361.33
582.92	47207.73
583.12	47355.18
583.32	47011.12
583.52	47023.41
583.72	47396.14
583.92	47441.20
584.12	47301.93
584.32	47990.05
584.52	47668.52
584.72	47592.75
584.92	47844.65
585.11	48147.75
585.31	48182.56
585.51	48018.72
585.71	48117.03
585.91	48510.24
586.11	47322.41
586.31	47562.03
586.51	48157.99
586.71	47930.66
586.91	48399.65
587.10	48227.62
587.30	48397.60
587.50	48405.79
587.70	48383.26
587.90	48411.93
588.10	48465.18
588.30	48411.93
588.50	48500.00
588.69	48465.18
588.89	48112.93
589.09	48495.90
589.29	48669.98
589.49	48719.13
589.69	48248.10
589.89	48674.07
590.08	48583.96
590.28	48592.15
590.48	48428.32
590.68	48682.27
590.88	48743.70
591.08	48950.55
591.28	48487.71
591.47	49214.74
591.67	49302.80
591.87	48928.02
592.07	48862.49
592.27	48874.77
592.47	49237.26
592.67	49202.45
592.86	48938.26
593.06	49360.14
593.26	49444.11
593.46	49327.38
593.66	49169.68
593.86	49413.39
594.05	49214.74
594.25	49630.47
594.45	49204.50
594.65	49427.73
594.85	49120.53
595.05	50175.23
595.24	50091.27
595.44	49607.95
595.64	49272.08
595.84	49538.32
596.04	49626.38
596.23	50234.63
596.43	50513.15
596.63	49960.20
596.83	50115.84
597.03	50339.07
597.22	50758.91
597.42	50287.87
597.62	50466.05
597.82	50357.50
598.02	50681.08
598.21	50642.17
598.41	50232.58
598.61	50799.86
598.81	50795.77
599.01	50377.98
599.20	50541.82
599.40	50556.16
599.60	50922.74
599.80	50916.60
600.00	51098.87
600.19	51481.84
600.39	50711.80
600.59	51225.84
600.79	51422.45
600.98	50828.54
601.18	51479.79
601.38	51574.00
601.58	51737.83
601.78	51528.94
601.97	51475.69
602.17	51856.62
602.37	52012.26
602.57	51926.25
602.76	52102.37
602.96	51303.67
603.16	52208.87
603.36	52034.79
603.55	51995.88
603.75	51707.12
603.95	52262.11
604.15	52577.50
604.34	51973.35
604.54	52479.20
604.74	52727.00
604.94	52215.01
605.13	52188.39
605.33	52163.81
605.53	52323.55
605.73	52860.12
605.92	52475.10
606.12	52962.52
606.32	53236.95
606.52	52602.08
606.71	52776.15
606.91	53073.11
607.11	52806.87
607.30	53085.40
607.50	53087.45
607.70	53511.38
607.90	53003.48
608.09	53374.16
608.29	53630.16
608.49	53511.38
608.68	53411.02
608.88	53744.84
609.08	53630.16
609.28	53712.08
609.47	53458.13
609.67	54461.63
609.87	53771.47
610.06	53935.30
610.26	53863.63
610.46	53914.83
610.66	53802.19
610.85	54183.11
611.05	54093.00
611.25	53961.93
611.44	53892.30
611.64	53923.02
611.84	53814.47
612.03	53247.19
612.23	53804.24
612.43	54140.10
612.62	54084.81
612.82	54260.93
613.02	54478.02
613.21	54281.41
613.41	53837.00
613.61	54547.65
613.80	54074.57
614.00	54392.00
614.20	54443.20
614.39	54809.79
614.59	54639.81
614.79	54551.74
614.98	54486.21
615.18	54869.18
615.38	54480.06
615.57	54267.08
615.77	54781.12
615.97	54473.92
616.16	54367.43
616.36	54740.16
616.56	54621.37
616.75	54277.32
616.95	54617.28
617.15	54613.18
617.34	55018.68
617.54	54635.71
617.74	54967.48
617.93	54557.89
618.13	54842.56
618.32	55061.69
618.52	54609.09
618.72	54828.22
618.91	54899.90
619.11	54578.37
619.31	54830.27
619.50	54959.29
619.70	54871.23
619.90	54703.29
620.09	54809.79
620.29	55092.41
620.48	54738.11
620.68	55104.70
620.88	54310.08
621.07	54797.50
621.27	55057.59
621.46	54729.92
621.66	55086.26
621.86	55098.55
622.05	54889.66
622.25	55688.37
622.44	55153.85
622.64	55286.96
622.84	55168.18
623.03	55176.37
623.23	55393.46
623.42	55233.72
623.62	55162.04
623.82	55475.38
624.01	55403.70
624.21	55125.17
624.40	54951.10
624.60	55188.66
624.80	55506.10
624.99	55231.67
625.19	55082.17
625.38	55153.85
625.58	55401.65
625.77	55620.78
625.97	55415.99
626.17	55184.57
626.36	55215.29
626.56	55420.08
626.75	54916.28
626.95	55835.82
627.14	55596.21
627.34	55714.99
627.54	55370.93
627.73	55610.54
627.93	55735.47
628.12	55233.72
628.32	55678.13
628.51	55932.07
628.71	55534.77
628.90	55524.53
629.10	55067.83
629.30	55803.05
629.49	55696.56
629.69	55852.20
629.88	55745.71
630.08	56247.46
630.27	56018.09
630.47	56138.92
630.66	55469.23
630.86	55588.02
631.05	55155.89
631.25	56157.35
631.44	55712.94
631.64	55526.58
631.84	55606.45
632.03	55950.51
632.23	55848.11
632.42	56368.29
632.62	55647.41
632.81	56013.99
633.01	56112.30
633.20	56235.17
633.40	56153.26
633.59	56485.03
633.79	55645.36
633.98	56595.62
634.18	56024.23
634.37	55997.61
634.57	56202.41
634.76	56368.29
634.96	56063.14
635.15	56208.55
635.35	56251.56
635.54	56480.93
635.74	56269.99
635.93	56188.07
636.13	56951.96
636.32	56501.41
636.52	56018.09
636.71	56317.09
636.91	56057.00
637.10	56272.04
637.30	56140.97
637.49	56470.69
637.69	56575.14
637.88	57033.88
638.08	56036.52
638.27	56736.93
638.46	56388.77
638.66	56353.96
638.85	56800.41
639.05	56515.75
639.24	56579.23
639.44	56231.08
639.63	56929.44
639.83	57054.36
640.02	56882.33
640.22	56749.21
640.41	57080.98
640.61	56517.79
640.80	56698.01
640.99	56640.67
641.19	57392.28
641.38	56831.13
641.58	57011.35
641.77	56841.37
641.97	57218.20
642.16	57033.88
642.36	57255.06
642.55	57582.74
642.74	56841.37
642.94	57724.05
643.13	56521.89
643.33	57392.28
643.52	57554.07
643.72	57136.28
643.91	56779.93
644.10	57228.44
644.30	57324.69
644.49	56808.61
644.69	57369.75
644.88	57648.27
645.08	57046.17
645.27	56675.49
645.46	57050.27
645.66	57455.76
645.85	57488.53
646.05	57623.70
646.24	57447.57
646.43	57283.73
646.63	57545.87
646.82	57562.26
647.02	57703.57
647.21	57863.31
647.40	57392.28
647.60	57832.59
647.79	58049.67
647.99	57898.12
648.18	57463.96
648.37	58135.69
648.57	57793.68
648.76	57756.81
648.96	57545.87
649.15	58193.03
649.34	58256.52
649.54	58260.62
649.73	57568.40
649.92	58317.96
650.12	58082.44
650.31	58295.43
650.51	58152.07
650.70	57820.30
650.89	57758.86
651.09	58545.28
651.28	57971.85
651.47	58277.00
651.67	58270.85
651.86	58158.22
652.06	57672.85
652.25	57730.19
652.44	58012.81
652.64	57773.20
652.83	57988.24
653.02	57461.91
653.22	57949.32
653.41	57810.06
653.60	58037.39
653.80	58166.41
653.99	58143.88
654.18	57984.14
654.38	58512.52
654.57	58397.83
654.76	57906.32
654.96	58119.31
655.15	57734.29
655.34	57685.14
655.54	57971.85
655.73	58256.52
655.92	58201.22
656.12	58305.67
656.31	58283.14
656.50	58344.58
656.70	58176.65
656.89	58229.90
657.08	58340.49
657.28	58512.52
657.47	57881.74
657.66	58477.70
657.86	58242.18
658.05	57934.99
658.24	58215.56
658.43	58213.51
658.63	58289.29
658.82	58315.91
659.01	58211.46
659.21	57924.75
659.40	58956.92
659.59	57808.01
659.79	58299.53
659.98	58598.53
660.17	58700.93
660.36	58252.42
660.56	58219.66
660.75	58715.26
660.94	57877.64
661.14	58332.29
661.33	58184.84
661.52	57869.45
661.71	58913.92
661.91	58027.15
662.10	58391.68
662.29	58932.35
662.49	58674.30
662.68	58078.35
662.87	58258.57
663.06	58152.07
663.26	58342.53
663.45	58942.59
663.64	58033.29
663.83	58852.48
664.03	58750.08
664.22	58164.36
664.41	58180.74
664.60	58270.85
664.80	58348.68
664.99	57836.69
665.18	58137.74
665.37	58193.03
665.57	58549.38
665.76	58190.98
665.95	58438.79
666.14	58195.08
666.34	58268.81
666.53	58078.35
666.72	58010.76
666.91	57932.94
667.11	57894.03
667.30	58111.11
667.49	57685.14
667.68	58168.46
667.87	57623.70
668.07	58369.16
668.26	58002.57
668.45	58070.15
668.64	57480.34
668.84	58750.08
669.03	57865.36
669.22	57746.57
669.41	58289.29
669.60	58240.14
669.80	57914.51
669.99	58252.42
670.18	57910.41
670.37	57775.25
670.57	58287.24
670.76	57904.27
670.95	57877.64
671.14	57891.98
671.33	57379.99
671.53	57932.94
671.72	57963.66
671.91	57834.64
672.10	57832.59
672.29	57529.49
672.48	58057.87
672.68	58209.42
672.87	57701.52
673.06	58076.30
673.25	57756.81
673.44	57824.40
673.64	57273.49
673.83	57631.89
674.02	57607.31
674.21	56945.82
674.40	57701.52
674.59	57250.97
674.79	57103.51
674.98	57238.68
675.17	57605.26
675.36	57511.06
675.55	57406.61
675.74	57183.38
675.94	57504.91
676.13	57320.60
676.32	57521.30
676.51	57885.84
676.70	57382.04
676.89	57449.62
677.08	57564.31
677.28	57111.70
677.47	57341.08
677.66	57635.98
677.85	57541.78
678.04	57468.05
678.23	57572.50
678.42	57210.01
678.62	57126.04
678.81	57341.08
679.00	56833.18
679.19	57695.38
679.38	57263.25
679.57	57269.40
679.76	57119.90
679.96	57762.96
680.15	57185.43
680.34	57154.71
680.53	56925.34
680.72	57431.19
680.91	57435.28
681.10	56732.83
681.29	57142.42
681.48	56865.95
681.68	56753.31
681.87	56861.85
682.06	56872.09
682.25	56212.65
682.44	56714.40
682.63	57093.27
682.82	56824.99
683.01	56247.46
683.20	56530.08
683.39	56444.07
683.59	56308.90
683.78	56337.57
683.97	56122.54
684.16	56077.48
684.35	56186.02
684.54	56335.52
684.73	56022.19
684.92	56075.43
685.11	56108.20
685.30	56564.90
685.49	56040.62
685.69	55966.89
685.88	56390.82
686.07	55956.65
686.26	56374.44
686.45	56128.68
686.64	56048.81
686.83	55948.46
687.02	56257.70
687.21	56231.08
687.40	56396.96
687.59	55907.50
687.78	55663.79
687.97	56143.02
688.16	55915.69
688.35	55786.67
688.54	55905.45
688.74	55946.41
688.93	55758.00
689.12	55737.52
689.31	55981.23
689.50	55446.71
689.69	55125.17
689.88	54940.86
690.07	55516.34
690.26	55456.95
690.45	55743.66
690.64	55579.82
690.83	55475.38
691.02	55176.37
691.21	54953.15
691.40	54826.17
691.59	55446.71
691.78	55172.28
691.97	55329.97
692.16	55180.47
692.35	55411.89
692.54	55456.95
692.73	55221.43
692.92	55047.35
693.11	55047.35
693.30	54973.63
693.49	55006.39
693.68	54883.51
693.87	54381.76
694.06	54514.88
694.25	54211.78
694.44	54224.07
694.63	54420.67
694.82	54754.49
695.01	54303.94
695.20	54539.46
695.39	54377.67
695.58	54656.19
695.77	54604.99
695.96	54320.32
696.15	54342.85
696.34	54203.59
696.53	54322.37
696.72	54439.11
696.91	54572.22
697.10	54318.28
697.29	54148.29
697.48	54441.15
697.67	53908.68
697.86	53988.55
698.05	53925.07
698.24	54195.40
698.43	53556.43
698.62	53925.07
698.81	53411.02
699.00	53980.36
699.19	53683.40
699.38	53716.17
699.57	53425.36
699.76	53863.63
699.95	53255.38
700.14	53658.83
700.32	53282.00
700.51	53294.29
700.70	53449.94
700.89	53478.61
701.08	53628.11
701.27	53263.57
701.46	53777.61
701.65	52843.74
701.84	53355.73
702.03	53296.34
702.22	53318.87
702.41	53292.24
702.60	53198.04
702.79	53333.20
702.98	53056.73
703.17	53134.55
703.35	52485.34
703.54	52894.94
703.73	53118.17
703.92	53032.15
704.11	52763.87
704.30	52751.58
704.49	52907.22
704.68	52853.98
704.87	52585.69
705.06	52999.38
705.25	52645.08
705.43	52577.50
705.62	52602.08
705.81	52397.28
706.00	52356.32
706.19	52337.89
706.38	52042.98
706.57	52065.51
706.76	52597.98
706.95	52274.40
707.14	52307.17
707.32	51870.95
707.51	51893.48
707.70	52208.87
707.89	52167.91
708.08	52077.80
708.27	52294.88
708.46	52786.39
708.65	52133.09
708.84	52147.43
709.02	51916.01
709.21	52141.28
709.40	51829.99
709.59	51721.45
709.78	51475.69
709.97	51750.12
710.16	51401.97
710.34	51416.30
710.53	51543.28
710.72	51068.15
710.91	51965.16
711.10	51629.29
711.29	52081.89
711.48	51414.26
711.66	51399.92
711.85	51584.24
712.04	51193.07
712.23	51504.37
712.42	51182.84
712.61	51352.82
712.80	51338.48
712.98	50959.61
713.17	51045.62
713.36	50961.65
713.55	50781.43
713.74	51008.76
713.93	50808.06
714.11	51084.53
714.30	50623.74
714.49	50932.98
714.68	50967.80
714.87	50875.64
715.06	51229.94
715.24	50765.05
715.43	50502.91
715.62	50693.37
715.81	50586.88
716.00	50275.58
716.18	50701.56
716.37	50210.05
716.56	49755.40
716.75	50578.68
716.94	50060.55
717.12	50320.64
717.31	50613.50
717.50	50091.27
717.69	50220.29
717.88	49902.85
718.06	50033.92
718.25	50085.12
718.44	49638.67
718.63	49784.07
718.82	49710.35
719.00	49882.37
719.19	49689.87
719.38	50001.16
719.57	49495.31
719.76	49272.08
719.94	49177.87
720.13	49677.58
720.32	49526.03
720.51	49392.91
720.69	49190.16
720.88	49519.88
721.07	49687.82
721.26	48889.11
721.44	49132.82
721.63	48979.22
721.82	49050.90
722.01	48856.34
722.20	48747.80
722.38	48813.34
722.57	48319.77
722.76	48848.15
722.95	48559.39
723.13	47930.66
723.32	48231.71
723.51	48327.97
723.70	48293.15
723.88	48334.11
724.07	48604.44
724.26	48676.12
724.44	47775.02
724.63	48352.54
724.82	48235.81
725.01	47449.39
725.19	48223.52
725.38	48090.40
725.57	47666.47
725.76	48309.53
725.94	47658.28
726.13	47424.81
726.32	47684.90
726.51	47834.41
726.69	48055.59
726.88	47977.76
727.07	48090.40
727.25	48035.11
727.44	47791.40
727.63	47568.17
727.82	47732.01
728.00	47779.11
728.19	47723.82
728.38	48033.06
728.56	47209.78
728.75	48014.63
728.94	47723.82
729.12	47772.97
729.31	47764.78
729.50	47453.48
729.69	47473.96
729.87	47568.17
730.06	47277.36
730.25	47621.42
730.43	47822.12
730.62	47293.74
730.81	47691.05
730.99	47494.44
731.18	47740.20
731.37	47486.25
731.55	47895.85
731.74	47988.00
731.93	47392.04
732.11	47572.27
732.30	47725.86
732.49	47357.23
732.67	47650.09
732.86	47533.35
733.05	47815.97
733.23	47070.51
733.42	47441.20
733.61	47076.66
733.79	47181.10
733.98	47955.24
734.17	47519.02
734.35	47592.75
734.54	47674.66
734.73	48067.87
734.91	47420.72
735.10	47387.95
735.29	47367.47
735.47	47037.75
735.66	47541.55
735.84	47445.29
736.03	47246.64
736.22	47566.12
736.40	46996.79
736.59	47750.44
736.78	47283.50
736.96	47193.39
737.15	46937.40
737.33	46800.18
737.52	46859.57
737.71	46978.36
737.89	46660.92
738.08	46654.78
738.27	46898.48
738.45	46898.48
738.64	47125.81
738.82	46984.50
739.01	47076.66
739.20	46845.24
739.38	46775.61
739.57	47244.59
739.75	47148.34
739.94	46607.67
740.13	47029.55
740.31	46855.48
740.50	46275.90
740.68	46724.41
740.87	46677.30
741.06	46742.84
741.24	46648.63
741.43	46454.08
741.61	46785.85
741.80	46337.34
741.99	46576.95
742.17	46200.13
742.36	46529.85
742.54	46243.13
742.73	46153.02
742.91	46775.61
743.10	46120.26
743.29	46269.76
743.47	46454.08
743.66	46073.15
743.84	46380.35
744.03	46255.42
744.21	46169.41
744.40	46624.06
744.59	46337.34
744.77	46497.08
744.96	46638.39
745.14	46601.53
745.33	46339.39
745.51	46304.57
745.70	46388.54
745.88	46312.77
746.07	46327.10
746.26	45845.83
746.44	46228.80
746.63	46656.82
746.81	46404.92
747.00	46021.95
747.18	46112.06
747.37	46165.31
747.55	45987.14
747.74	46038.34
747.92	45499.72
748.11	45942.08
748.29	46126.40
748.48	46226.75
748.66	45774.15
748.85	46003.52
749.03	45733.19
749.22	45221.20
749.41	45651.27
749.59	45751.62
749.78	45636.94
749.96	45327.69
750.15	45405.52
750.33	45469.00
750.52	45573.45
750.70	45055.31
750.89	45395.28
751.07	45167.95
751.26	45565.26
751.44	45237.58
751.63	45366.60
751.81	45425.99
752.00	45348.17
752.18	45194.57
752.37	45090.13
752.55	44762.45
752.74	45190.48
752.92	45206.86
753.10	45055.31
753.29	45182.29
753.47	45157.71
753.66	44916.05
753.84	45227.34
754.03	44844.37
754.21	44762.45
754.40	44987.73
754.58	45176.14
754.77	45083.98
754.95	44543.32
755.14	44725.59
755.32	44795.22
755.51	44930.39
755.69	44746.07
755.88	44410.20
756.06	44494.17
756.24	44488.03
756.43	44354.91
756.61	44465.50
756.80	44629.34
756.98	44135.77
757.17	44240.22
757.35	44334.43
757.54	44442.97
757.72	44250.46
757.90	44313.95
758.09	44043.62
758.27	44635.48
758.46	44225.89
758.64	44316.00
758.83	44574.04
759.01	44557.66
759.19	44111.20
759.38	44410.20
759.56	44492.12
759.75	44571.99
759.93	44154.21
760.12	43855.20
760.30	44184.93
760.48	43500.90
760.67	43656.55
760.85	44250.46
761.04	43984.22
761.22	44242.27
761.40	43838.82
761.59	44023.14
761.77	43838.82
761.96	43562.34
762.14	43871.59
762.32	43691.37
762.51	43593.06
762.69	43699.56
762.88	43761.00
763.06	43509.10
763.24	43713.89
763.43	43484.52
763.61	43464.04
763.80	43545.96
763.98	43437.42
764.16	43361.64
764.35	43468.14
764.53	42995.06
764.72	43072.88
764.90	43271.53
765.08	43361.64
765.27	43136.37
765.45	43054.45
765.63	43072.88
765.82	42845.55
766.00	42599.80
766.18	42759.54
766.37	43152.75
766.55	42794.36
766.74	43144.56
766.92	43019.63
767.10	42988.91
767.29	42749.30
767.47	42470.78
767.65	43165.04
767.84	42112.38
768.02	43216.24
768.20	42423.67
768.39	42646.90
768.57	42550.65
768.75	42659.19
768.94	42286.46
769.12	42663.28
769.30	42894.71
769.49	42521.98
769.67	42288.51
769.85	42005.89
770.04	42421.62
770.22	41815.43
770.40	42124.67
770.59	41858.43
770.77	42378.62
770.95	42014.08
771.14	41909.63
771.32	41772.42
771.50	41510.28
771.69	41557.38
771.87	42108.29
772.05	41491.85
772.24	41325.96
772.42	41639.30
772.60	41121.16
772.78	41463.18
772.97	41409.93
773.15	41942.40
773.33	41534.85
773.52	41366.92
773.70	41385.35
773.88	41530.76
774.07	41657.73
774.25	41035.15
774.43	41469.32
774.61	41704.84
774.80	41801.09
774.98	41610.63
775.16	41921.92
775.34	41696.64
775.53	41395.59
775.71	41788.80
775.89	41547.14
776.08	41649.54
776.26	41655.68
776.44	41803.14
776.62	41573.77
776.81	41672.07
776.99	42016.13
777.17	41801.09
777.35	41690.50
777.54	41979.26
777.72	41815.43
777.90	41786.75
778.08	42425.72
778.27	41756.03
778.45	42116.48
778.63	42282.36
778.81	41612.68
779.00	42620.28
779.18	42044.80
779.36	42503.54
779.54	42081.66
779.73	42165.63
779.91	42182.01
780.09	42257.79
780.27	42646.90
780.46	42145.15
780.64	42548.60
780.82	42431.86
781.00	42259.84
781.19	42513.78
781.37	42100.09
781.55	42532.22
781.73	42728.82
781.91	42786.16
782.10	42755.44
782.28	42657.14
782.46	42980.72
782.64	42964.34
782.82	42616.18
783.01	43007.34
783.19	42923.38
783.37	43019.63
783.55	42734.96
783.74	43101.55
783.92	42818.93
784.10	43062.64
784.28	42734.96
784.46	42526.07
784.64	42593.65
784.83	42669.43
785.01	43064.69
785.19	42933.62
785.37	43177.33
785.55	42988.91
785.74	42587.51
785.92	42661.24
786.10	42755.44
786.28	42718.58
786.46	42470.78
786.64	42241.40
786.83	42351.99
787.01	42673.52
787.19	42622.33
787.37	42210.68
787.55	42827.12
787.74	42245.50
787.92	42599.80
788.10	42497.40
788.28	41788.80
788.46	42816.88
788.64	42249.60
788.82	42810.74
789.01	42098.05
789.19	42444.15
789.37	41979.26
789.55	42288.51
789.73	42175.87
789.91	42268.03
790.09	42110.33
790.28	41993.60
790.46	41266.57
790.64	41932.16
790.82	41686.40
791.00	41657.73
791.18	41465.22
791.36	41614.72
791.55	41649.54
791.73	41633.16
791.91	41110.92
792.09	41536.90
792.27	41440.65
792.45	40983.95
792.63	41287.05
792.81	40942.99
793.00	40646.04
793.18	40752.53
793.36	40603.03
793.54	40431.00
793.72	40367.51
793.90	40514.97
794.08	40261.02
794.26	40922.51
794.44	40293.79
794.62	40082.84
794.81	40097.18
794.99	39859.62
795.17	40048.03
795.35	39568.80
795.53	40258.97
795.71	40326.55
795.89	39787.94
796.07	39517.60
796.25	39460.26
796.43	39308.71
796.61	39165.35
796.80	38962.61
796.98	39501.22
797.16	39042.48
797.34	39155.11
797.52	38897.07
797.70	38907.31
797.88	39122.35
798.06	38616.50
798.24	38911.41
798.42	38696.37
798.60	38901.17
798.78	38596.02
798.96	38221.24
799.14	38223.29
799.32	38399.41
799.51	37879.23
799.69	38073.79
799.87	37909.95
800.05	37608.90
800.23	37854.65
800.41	37782.98
800.59	37508.55
800.77	37569.99
800.95	37375.43
801.13	37510.60
801.31	37123.53
801.49	37291.46
801.67	37135.82
801.85	37148.11
802.03	36976.08
802.21	36752.85
802.39	36898.25
802.57	36828.62
802.75	36691.41
802.93	36752.85
803.11	36513.23
803.29	36421.08
803.47	36173.27
803.65	36412.88
803.83	36191.70
804.01	36124.12
804.19	35773.92
804.37	35894.75
804.55	36029.91
804.73	35931.61
804.91	35730.91
805.09	36148.70
805.27	35444.20
805.45	35823.07
805.63	35982.81
805.81	35368.42
805.99	35653.09
806.17	35855.84
806.35	35665.38
806.53	35024.36
806.71	35294.69
806.89	35284.45
807.07	35349.99
807.25	35388.90
807.43	34840.04
807.61	34559.47
807.79	34520.56
807.97	34665.97
808.15	34569.71
808.33	34569.71
808.51	34379.25
808.69	34635.25
808.87	34100.73
809.05	34342.39
809.23	34371.06
809.41	34399.73
809.59	34115.06
809.77	33676.80
809.95	33789.44
810.13	33897.98
810.31	33740.29
810.49	33742.33
810.67	33660.41
810.84	33596.93
811.02	33709.57
811.20	33115.65
811.38	33654.27
811.56	33408.51
811.74	33275.40
811.92	33093.13
812.10	33027.59
812.28	33123.85
812.46	33082.89
812.64	32933.39
812.82	33107.46
813.00	32960.01
813.18	32802.32
813.36	32579.09
813.53	32527.89
813.71	32685.58
813.89	32849.42
814.07	32849.42
814.25	32699.92
814.43	32069.14
814.61	32355.86
814.79	32427.54
814.97	31852.06
815.15	32122.39
815.33	31825.43
815.50	31755.80
815.68	31936.02
815.86	31946.26
816.04	31802.91
816.22	31917.59
816.40	31741.47
816.58	31524.38
816.76	31473.18
816.94	31456.80
817.11	31444.51
817.29	31442.46
817.47	31223.33
817.65	31272.48
817.83	31366.69
818.01	31526.43
818.19	31340.07
818.37	31331.87
818.54	30926.38
818.72	30719.53
818.90	31196.71
819.08	31014.44
819.26	30731.82
819.44	30610.99
819.62	30938.66
819.80	30805.55
819.97	30778.92
820.15	30633.52
820.33	30099.00
820.51	30455.34
820.69	30090.80
820.87	30619.18
821.05	30699.05
821.22	30346.80
821.40	29992.50
821.58	29990.45
821.76	29793.85
821.94	30064.18
822.12	30117.43
822.29	30060.09
822.47	30119.48
822.65	30176.82
822.83	30066.23
823.01	29677.12
823.19	29990.45
823.36	29591.10
823.54	29693.50
823.72	29519.42
823.90	29509.18
824.08	29445.69
824.25	29451.84
824.43	29441.60
824.61	29275.71
824.79	29562.43
824.97	29410.88
825.15	29378.11
825.32	29156.93
825.50	28948.04
825.68	28771.91
825.86	29247.04
826.04	29302.34
826.21	29113.92
826.39	28872.26
826.57	28810.82
826.75	28743.24
826.93	28509.77
827.10	28636.75
827.28	28628.56
827.46	28792.39
827.64	28419.66
827.81	28606.03
827.99	28423.76
828.17	28470.86
828.35	28245.58
828.53	28409.42
828.70	28218.96
828.88	27973.21
829.06	28501.58
829.24	28225.11
829.41	28112.47
829.59	27950.68
829.77	28419.66
829.95	28294.74
830.12	27936.34
830.30	27958.87
830.48	28212.82
830.66	28016.21
830.84	27975.25
831.01	27641.43
831.19	28202.58
831.37	27635.29
831.55	27520.60
831.72	27655.77
831.90	27647.58
832.08	27481.69
832.25	27436.64
832.43	27453.02
832.61	27387.49
832.79	27240.03
832.96	27301.47
833.14	27463.26
833.32	27500.12
833.50	27258.46
833.67	27326.05
833.85	27018.85
834.03	27149.92
834.20	27100.77
834.38	27104.87
834.56	27303.52
834.74	26883.69
834.91	27084.39
835.09	27211.36
835.27	26803.82
835.44	26795.62
835.62	26562.15
835.80	26842.73
835.98	26480.24
836.15	26898.02
836.33	26605.16
836.51	26758.76
836.68	26388.08
836.86	26599.02
837.04	26709.61
837.21	26455.66
837.39	26738.28
837.57	26537.58
837.75	26521.20
837.92	26191.47
838.10	26496.62
838.28	26037.87
838.45	26183.28
838.63	26039.92
838.81	26044.02
838.98	25769.59
839.16	25820.79
839.34	25915.00
839.51	26107.51
839.69	25560.70
839.87	25773.69
840.04	25634.42
840.22	26138.23
840.40	25644.66
840.57	25411.20
840.75	25605.75
840.93	25259.65
841.10	25599.61
841.28	25919.09
841.46	25570.94
841.63	25558.65
841.81	25423.48
841.98	25681.53
842.16	25587.32
842.34	25226.88
842.51	25464.44
842.69	25122.43
842.87	25351.81
843.04	25355.90
843.22	24880.77
843.40	25046.66
843.57	25142.91
843.75	24919.68
843.92	25540.22
844.10	25056.90
844.28	25167.49
844.45	25216.64
844.63	24909.44
844.81	25132.67
844.98	24870.53
845.16	25013.89
845.33	24915.59
845.51	24589.96
845.69	24786.57
845.86	24510.09
846.04	24643.21
846.21	24454.79
846.39	24495.75
846.57	24340.11
846.74	24391.31
846.92	24415.88
847.09	24049.30
847.27	23901.84
847.45	24467.08
847.62	24250.00
847.80	24243.85
847.97	24090.26
848.15	24084.11
848.32	23709.33
848.50	24067.73
848.68	23840.40
848.85	24053.39
849.03	23645.85
849.20	24120.98
849.38	24006.29
849.56	23916.18
849.73	23760.53
849.91	23799.44
850.08	24250.00
850.26	23383.71
850.43	23684.76
850.61	23778.97
850.78	23389.85
850.96	23672.47
851.14	23518.87
851.31	23387.80
851.49	23551.64
851.66	23535.26
851.84	23527.06
852.01	23430.81
852.19	23131.81
852.36	23365.28
852.54	23221.92
852.71	23309.98
852.89	23293.60
853.07	23297.69
853.24	23291.55
853.42	23221.92
853.59	23299.74
853.77	23522.97
853.94	23156.38
854.12	23336.60
854.29	22656.68
854.47	23017.12
854.64	23015.07
854.82	22685.35
854.99	22924.96
855.17	22949.54
855.34	22789.80
855.52	23109.28
855.69	23047.84
855.87	22347.44
856.04	22597.29
856.22	22597.29
856.39	22408.87
856.57	22279.85
856.74	22525.61
856.92	22736.55
857.09	22431.40
857.27	22177.45
857.44	22445.74
857.62	22496.94
857.79	22423.21
857.97	22242.99
858.14	22392.49
858.32	22214.32
858.49	22199.98
858.67	22107.82
858.84	22134.45
859.02	22128.30
859.19	22126.25
859.37	21487.29
859.54	21982.90
859.72	22046.38
859.89	21685.94
860.06	22179.50
860.24	21943.99
860.41	22118.06
860.59	21778.10
860.76	22189.74
860.94	21638.84
861.11	21952.18
861.29	21743.28
861.46	21704.37
861.64	21262.01
861.81	21384.89
861.98	21558.97
862.16	21477.05
862.33	21049.02
862.51	21313.21
862.68	21481.14
862.86	21165.76
863.03	21227.20
863.21	21587.64
863.38	21341.88
863.55	21171.90
863.73	21219.00
863.90	21176.00
864.08	21323.45
864.25	21032.64
864.43	21077.69
864.60	20985.54
864.77	20889.28
864.95	20989.63
865.12	20809.41
865.30	21085.89
865.47	20616.90
865.64	20723.40
865.82	20887.23
865.99	20952.77
866.17	20770.50
866.34	20815.55
866.51	20729.54
866.69	20561.61
866.86	20504.26
867.04	20471.50
867.21	20471.50
867.38	20559.56
867.56	20444.87
867.73	20201.16
867.91	20143.82
868.08	20543.17
868.25	20201.16
868.43	20289.23
868.60	20092.62
868.78	20070.09
868.95	20109.01
869.12	20160.20
869.30	20051.66
869.47	20002.51
869.64	20078.29
869.82	20033.23
869.99	20143.82
870.16	20133.58
870.34	20106.96
870.51	19879.63
870.69	19609.30
870.86	19834.58
871.03	19812.05
871.21	19619.54
871.38	19791.57
871.55	19803.86
871.73	19572.44
871.90	19562.20
872.07	19332.82
872.25	19527.38
872.42	19150.56
872.59	19386.07
872.77	19293.91
872.94	19386.07
873.11	19547.86
873.29	19285.72
873.46	19199.71
873.63	19160.80
873.81	19293.91
873.98	19267.29
874.15	18730.72
874.33	18667.24
874.50	18771.68
874.67	18829.02
874.85	18882.27
875.02	19089.12
875.19	18347.75
875.37	18423.53
875.54	18663.14
875.71	18564.84
875.88	18444.01
876.06	18679.52
876.23	18638.56
876.40	18052.84
876.58	18353.90
876.75	18403.05
876.92	18355.94
877.10	18464.49
877.27	18206.44
877.44	18126.57
877.61	18138.86
877.79	17915.63
877.96	17905.39
878.13	18048.75
878.31	17698.55
878.48	17895.15
878.65	17843.95
878.82	17854.19
879.00	18022.12
879.17	17780.46
879.34	18136.81
879.51	17807.09
879.69	17723.12
879.86	17741.55
880.03	17608.44
880.21	17676.02
880.38	17323.77
880.55	17420.02
880.72	17549.04
880.90	17524.47
881.07	17260.28
881.24	17585.91
881.41	17422.07
881.59	17479.41
881.76	17338.10
881.93	17346.30
882.10	17198.84
882.28	17291.00
882.45	17288.95
882.62	16994.04
882.79	17073.92
882.96	16834.30
883.14	17030.91
883.31	17024.76
883.48	17032.96
883.65	16948.99
883.83	17274.62
884.00	16844.54
884.17	17002.24
884.34	16799.49
884.51	16893.69
884.69	16961.28
884.86	16729.86
885.03	16885.50
885.20	16670.47
885.38	16932.61
885.55	16703.23
885.72	16779.01
885.89	16543.49
886.06	16475.91
886.24	16527.11
886.41	16502.53
886.58	16846.59
886.75	16871.17
886.92	16523.01
887.10	16410.37
887.27	16545.54
887.44	16527.11
887.61	16604.93
887.78	16406.28
887.95	16506.63
888.13	16414.47
888.30	16252.68
888.47	16361.22
888.64	16348.93
888.81	16531.20
888.99	16217.86
889.16	16125.71
889.33	16047.88
889.50	16084.75
889.67	16068.36
889.84	16090.89
890.01	16211.72
890.19	16185.10
890.36	16072.46
890.53	15828.75
890.70	15968.01
890.87	15945.48
891.04	15765.26
891.22	16127.75
891.39	16037.64
891.56	15646.48
891.73	15935.24
891.90	15703.82
892.07	15677.20
892.24	15632.15
892.42	15660.82
892.59	15617.81
892.76	15554.32
892.93	15386.39
893.10	15511.32
893.27	15355.67
893.44	15410.96
893.61	15517.46
893.79	15597.33
893.96	15505.17
894.13	15613.71
894.30	15460.12
894.47	15324.95
894.64	15724.30
894.81	15281.94
894.98	15621.91
895.15	15249.18
895.33	15474.45
895.50	15245.08
895.67	15556.37
895.84	15331.09
896.01	15322.90
896.18	15079.19
896.35	15464.21
896.52	15398.68
896.69	15351.57
896.86	15187.74
897.04	15146.78
897.21	15236.89
897.38	15103.77
897.55	15138.58
897.72	15447.83
897.89	15206.17
898.06	15212.31
898.23	15234.84
898.40	15183.64
898.57	15238.94
898.74	15103.77
898.91	15136.54
899.08	15173.40
899.26	14886.68
899.43	15216.41
899.60	15144.73
899.77	14958.36
899.94	15073.05
900.11	14978.84
900.28	15017.75
900.45	15050.52
900.62	15079.19
900.79	14993.18
900.96	15036.19
901.13	14933.79
901.30	14931.74
901.47	14915.36
901.64	15032.09
901.81	14946.08
901.98	14860.06
902.15	15251.22
902.32	14917.40
902.49	15204.12
902.66	15126.30
902.83	15146.78
903.01	15071.00
903.18	15120.15
903.35	14903.07
903.52	14948.12
903.69	14960.41
903.86	14941.98
904.03	14886.68
904.20	15091.48
904.37	15236.89
904.54	15109.91
904.71	15015.71
904.88	14946.08
905.05	14837.53
905.22	15036.19
905.39	14868.25
905.56	14946.08
905.73	14989.08
905.90	14989.08
906.07	14894.88
906.24	14948.12
906.41	14812.96
906.58	15023.90
906.75	14946.08
906.92	15036.19
907.09	14765.85
907.26	15093.53
907.43	14782.24
907.60	14855.97
907.77	14966.56
907.93	14913.31
908.10	14657.31
908.27	14991.13
908.44	14614.30
908.61	14726.94
908.78	14552.87
908.95	15005.47
909.12	14919.45
909.29	14690.08
909.46	14808.86
909.63	14896.92
909.80	14774.05
909.97	14724.90
910.14	14456.61
910.31	14548.77
910.48	14767.90
910.65	14690.08
910.82	14630.69
910.99	14565.15
911.16	14694.18
911.33	14606.11
911.50	14493.47
911.66	14497.57
911.83	14692.13
912.00	14264.10
912.17	14513.95
912.34	14257.96
912.51	14479.14
912.68	14270.25
912.85	14192.42
913.02	14524.19
913.19	14444.32
913.36	14597.92
913.53	14462.76
913.70	14001.96
913.86	14292.77
914.03	14266.15
914.20	14346.02
914.37	14264.10
914.54	14110.50
914.71	14106.41
914.88	14040.87
915.05	13987.63
915.22	14268.20
915.39	13944.62
915.55	13928.24
915.72	13899.56
915.89	13901.61
916.06	13979.43
916.23	13766.45
916.40	13887.28
916.57	13705.01
916.74	13668.14
916.91	13571.89
917.07	13524.79
917.24	13446.96
917.41	13643.57
917.58	13659.95
917.75	13580.08
917.92	13373.24
918.09	13442.87
918.26	13352.76
918.42	13471.54
918.59	13440.82
918.76	13121.34
918.93	13066.04
919.10	13195.06
919.27	13127.48
919.44	13100.86
919.60	13158.20
919.77	13340.47
919.94	13166.39
920.11	13113.14
920.28	13029.18
920.45	12816.19
920.61	12652.35
920.78	12836.67
920.95	12681.02
921.12	12777.28
921.29	12797.76
921.46	12642.11
921.62	12408.64
921.79	12541.76
921.96	12468.03
922.13	12500.80
922.30	12552.00
922.47	12437.31
922.63	12425.03
922.80	12412.74
922.97	12218.18
923.14	12283.72
923.31	12136.26
923.47	12136.26
923.64	12427.07
923.81	11865.93
923.98	11863.88
924.15	11929.42
924.32	11906.89
924.48	11921.23
924.65	11984.71
924.82	11706.19
924.99	11501.39
925.15	11640.65
925.32	11571.02
925.49	11622.22
925.66	11509.58
925.83	11528.02
925.99	11513.68
926.16	11456.34
926.33	11507.54
926.50	11487.06
926.67	11485.01
926.83	11327.32
927.00	11306.84
927.17	11095.89
927.34	10983.26
927.50	11022.17
927.67	11253.59
927.84	11040.60
928.01	10977.11
928.17	10868.57
928.34	10901.34
928.51	10792.80
928.68	10882.91
928.84	10827.61
929.01	10493.79
929.18	10573.66
929.35	10686.30
929.51	10465.12
929.68	10360.67
929.85	10391.39
930.02	10495.84
930.18	10491.74
930.35	10409.83
930.52	10272.61
930.69	10295.14
930.85	10305.38
931.02	10129.25
931.19	10080.10
931.36	9985.90
931.52	10147.69
931.69	10028.90
931.86	9981.80
932.02	9869.16
932.19	9891.69
932.36	9662.32
932.53	9957.22
932.69	9602.93
932.86	9875.31
933.03	9791.34
933.19	9578.35
933.36	9613.17
933.53	9760.62
933.70	9369.46
933.86	9469.81
934.03	9514.86
934.20	9269.11
934.36	9316.21
934.53	9138.04
934.70	9146.23
934.86	9045.88
935.03	8949.62
935.20	8890.23
935.36	8865.66
935.53	8834.94
935.70	8716.16
935.86	8802.17
936.03	8677.24
936.20	8560.51
936.36	8574.85
936.53	8431.49
936.70	8460.16
936.86	8484.73
937.03	8423.30
937.20	8085.38
937.36	8232.83
937.53	7915.40
937.70	7835.53
937.86	7579.53
938.03	7724.94
938.20	7901.06
938.36	7536.52
938.53	7700.36
938.70	7468.94
938.86	7321.49
939.03	7241.62
939.20	7384.98
939.36	7255.95
939.53	7063.44
939.70	7178.13
939.86	6842.26
940.03	6789.02
940.19	6705.05
940.36	6836.12
940.53	6746.01
940.69	6559.64
940.86	6485.92
941.03	6322.08
941.19	6277.02
941.36	6344.61
941.52	6293.41
941.69	6340.51
941.86	6193.06
942.02	6131.62
942.19	5959.59
942.35	6000.55
942.52	5978.02
942.69	5867.43
942.85	5812.14
943.02	5896.10
943.18	5844.90
943.35	5748.65
943.52	5666.73
943.68	5668.78
943.85	5683.11
944.01	5388.21
944.18	5615.53
944.35	5676.97
944.51	5529.52
944.68	5502.89
944.84	5427.12
945.01	5382.06
945.17	5351.34
945.34	5523.37
945.51	5451.69
945.67	5412.78
945.84	5392.30
946.00	5345.20
946.17	5289.90
946.33	5236.66
946.50	5341.10
946.67	5324.72
946.83	5179.31
947.00	5343.15
947.16	5302.19
947.33	5128.11
947.49	5195.70
947.66	5111.73
947.82	5369.77
947.99	5173.17
948.16	5334.96
948.32	5212.08
948.49	5214.13
948.65	5304.24
948.82	5250.99
948.98	5091.25
949.15	5126.07
949.31	5244.85
949.48	5322.67
949.64	5181.36
949.81	5255.09
949.97	5234.61
950.14	5339.05
950.30	5232.56
950.47	5081.01
950.63	5283.76
950.80	5250.99
950.96	5240.75
951.13	5400.49
951.30	5332.91
951.46	5347.25
951.63	5429.17
951.79	5433.26
951.96	5386.16
952.12	5418.93
952.29	5326.77
952.45	5146.55
952.62	5193.65
952.78	5414.83
952.94	5312.43
953.11	5261.23
953.27	5373.87
953.44	5564.33
953.60	5324.72
953.77	5431.21
953.93	5388.21
954.10	5328.81
954.26	5509.04
954.43	5390.25
954.59	5570.48
954.76	5595.05
954.92	5244.85
955.09	5357.49
955.25	5275.57
955.42	5457.84
955.58	5435.31
955.75	5609.39
955.91	5345.20
956.07	5506.99
956.24	5539.76
956.40	5355.44
956.57	5357.49
956.73	5355.44
956.90	5420.97
957.06	5341.10
957.23	5322.67
957.39	5232.56
957.56	5445.55
957.72	5291.95
957.88	5285.81
958.05	5521.32
958.21	5427.12
958.38	5463.98
958.54	5341.10
958.71	5564.33
958.87	5265.33
959.03	5472.17
959.20	5453.74
959.36	5345.20
959.53	5445.55
959.69	5361.58
959.85	5386.16
960.02	5322.67
960.18	5433.26
960.35	5423.02
960.51	5552.04
960.68	5355.44
960.84	5320.62
961.00	5410.73
961.17	5349.29
961.33	5390.25
961.50	5476.27
961.66	5423.02
961.82	5390.25
961.99	5425.07
962.15	5404.59
962.31	5410.73
962.48	5326.77
962.64	5427.12
962.81	5384.11
962.97	5484.46
963.13	5294.00
963.30	5519.28
963.46	5402.54
963.62	5355.44
963.79	5220.27
963.95	5271.47
964.12	5431.21
964.28	5363.63
964.44	5423.02
964.61	5357.49
964.77	5296.05
964.93	5509.04
965.10	5207.98
965.26	5353.39
965.42	5332.91
965.59	5377.97
965.75	5291.95
965.92	5427.12
966.08	5148.59
966.24	5294.00
966.41	5250.99
966.57	5328.81
966.73	5240.75
966.90	5304.24
967.06	5193.65
967.22	5136.31
967.39	5259.18
967.55	5164.98
967.71	5250.99
967.88	5097.39
968.04	5277.62
968.20	5066.67
968.37	5218.22
968.53	5189.55
968.69	5218.22
968.85	5013.43
969.02	5140.40
969.18	5081.01
969.34	5146.55
969.51	5191.60
969.67	5201.84
969.83	4958.13
970.00	5154.74
970.16	5148.59
970.32	5033.91
970.48	5138.35
970.65	4978.61
970.81	4968.37
970.97	4958.13
971.14	4827.06
971.30	5181.36
971.46	4917.17
971.63	5066.67
971.79	5101.49
971.95	5023.67
972.11	4851.64
972.28	4945.84
972.44	5038.00
972.60	4757.43
972.76	4855.73
972.93	4913.08
973.09	5050.29
973.25	4878.26
973.42	4874.17
973.58	4878.26
973.74	4882.36
973.90	4927.41
974.07	4804.53
974.23	4839.35
974.39	4886.45
974.55	4751.29
974.72	4884.41
974.88	4626.36
975.04	4825.01
975.20	4827.06
975.37	4904.89
975.53	4829.11
975.69	4673.46
975.85	4865.97
976.01	4777.91
976.18	4726.71
976.34	4679.61
976.50	4689.85
976.66	4933.56
976.83	4818.87
976.99	4761.53
977.15	4681.66
977.31	4546.49
977.47	4698.04
977.64	4628.41
977.80	4546.49
977.96	4536.25
978.12	4550.59
978.29	4566.97
978.45	4528.06
978.61	4458.43
978.77	4673.46
978.93	4454.33
979.10	4550.59
979.26	4509.63
979.42	4534.20
979.58	4327.36
979.74	4511.68
979.91	4415.42
980.07	4317.12
980.23	4499.39
980.39	4407.23
980.55	4390.84
980.71	4444.09
980.88	4417.47
981.04	4341.69
981.20	4452.28
981.36	4349.89
981.52	4380.61
981.68	4298.69
981.85	4421.56
982.01	4362.17
982.17	4227.01
982.33	4315.07
982.49	4339.65
982.65	4317.12
982.82	4282.30
982.98	4274.11
983.14	4274.11
983.30	4227.01
983.46	4278.21
983.62	4222.91
983.79	4157.38
983.95	4323.26
984.11	4169.66
984.27	4259.78
984.43	4270.01
984.59	4159.42
984.75	4300.73
984.91	4167.62
985.08	4245.44
985.24	4120.51
985.40	4069.31
985.56	4069.31
985.72	4227.01
985.88	4259.78
986.04	4079.55
986.20	3956.68
986.37	4165.57
986.53	4075.46
986.69	4124.61
986.85	4014.02
987.01	4065.22
987.17	4140.99
987.33	4106.18
987.49	4116.42
987.65	4114.37
987.82	3960.77
987.98	3872.71
988.14	3966.92
988.30	3991.49
988.46	3825.61
988.62	3862.47
988.78	3925.96
988.94	3850.18
989.10	3876.80
989.26	3903.43
989.42	3866.56
989.59	3870.66
989.75	3868.61
989.91	3872.71
990.07	3735.50
990.23	3766.21
990.39	3745.73
990.55	3823.56
990.71	3780.55
990.87	3723.21
991.03	3719.11
991.19	3715.02
991.35	3715.02
991.51	3741.64
991.67	3807.17
991.83	3809.22
992.00	3674.06
992.16	3870.66
992.32	3647.43
992.48	3590.09
992.64	3620.81
992.80	3692.49
992.96	3712.97
993.12	3735.50
993.28	3606.47
993.44	3672.01
993.60	3815.37
993.76	3678.15
993.92	3659.72
994.08	3698.63
994.24	3629.00
994.40	3540.94
994.56	3690.44
994.72	3557.32
994.88	3534.79
995.04	3557.32
995.20	3465.16
995.36	3622.86
995.52	3622.86
995.68	3581.90
995.84	3434.44
996.00	3620.81
996.16	3520.46
996.32	3450.83
996.48	3463.12
996.64	3489.74
996.80	3561.42
996.96	3448.78
997.12	3436.49
997.28	3493.83
997.44	3440.59
997.60	3395.53
997.76	3330.00
997.92	3504.07
998.08	3428.30
998.24	3358.67
998.40	3430.35
998.56	3436.49
998.72	3323.85
998.88	3416.01
999.04	3289.04
999.20	3418.06
999.36	3344.33
999.52	3420.11
999.68	3313.61
999.84	3397.58
1000.00	3235.79
1000.16	3295.18
1000.32	3227.60
1000.48	3379.15
1000.64	3135.44
1000.80	3209.17
1000.95	3182.54
1001.11	3313.61
1001.27	3151.82
1001.43	3192.78
1001.59	3131.34
1001.75	3223.50
1001.91	3260.37
1002.07	3141.58
1002.23	3102.67
1002.39	3002.32
1002.55	3088.34
1002.71	3131.34
1002.87	3080.14
1003.03	3033.04
1003.19	3139.54
1003.34	3258.32
1003.50	3053.52
1003.66	3157.97
1003.82	3088.34
1003.98	3041.23
1004.14	3141.58
1004.30	3096.53
1004.46	2979.79
1004.62	3004.37
1004.78	2947.03
1004.94	3020.75
1005.09	3076.05
1005.25	3131.34
1005.41	2963.41
1005.57	3049.43
1005.73	3082.19
1005.89	2877.40
1006.05	2996.18
1006.21	3030.99
1006.37	3010.51
1006.52	2940.88
1006.68	2914.26
1006.84	2973.65
1007.00	2932.69
1007.16	2953.17
1007.32	2949.08
1007.48	2926.55
1007.64	2947.03
1007.79	2906.07
1007.95	2846.68
1008.11	3033.04
1008.27	2867.16
1008.43	2799.57
1008.59	2809.81
1008.75	2908.12
1008.91	2906.07
1009.06	2818.00
1009.22	2965.46
1009.38	2885.59
1009.54	2875.35
1009.70	2809.81
1009.86	2799.57
1010.01	2895.83
1010.17	2775.00
1010.33	2846.68
1010.49	2740.18
1010.65	2856.92
1010.81	2772.95
1010.96	2793.43
1011.12	2813.91
1011.28	2693.08
1011.44	2756.57
1011.60	2748.37
1011.76	2727.89
1011.91	2770.90
1012.07	2633.69
1012.23	2658.26
1012.39	2656.22
1012.55	2711.51
1012.71	2596.82
1012.86	2633.69
1013.02	2697.17
1013.18	2559.96
1013.34	2666.46
1013.50	2664.41
1013.65	2781.14
1013.81	2711.51
1013.97	2592.73
1014.13	2688.98
1014.29	2578.39
1014.44	2662.36
1014.60	2559.96
1014.76	2506.71
1014.92	2625.50
1015.07	2594.78
1015.23	2590.68
1015.39	2564.06
1015.55	2521.05
1015.71	2486.23
1015.86	2635.74
1016.02	2475.99
1016.18	2486.23
1016.34	2510.81
1016.49	2502.62
1016.65	2590.68
1016.81	2551.77
1016.97	2564.06
1017.12	2541.53
1017.28	2441.18
1017.44	2428.89
1017.60	2506.71
1017.75	2437.08
1017.91	2467.80
1018.07	2447.32
1018.23	2498.52
1018.38	2420.70
1018.54	2359.26
1018.70	2338.78
1018.86	2387.93
1019.01	2402.27
1019.17	2480.09
1019.33	2537.43
1019.49	2428.89
1019.64	2430.94
1019.80	2494.43
1019.96	2389.98
1020.12	2418.65
1020.27	2306.01
1020.43	2410.46
1020.59	2344.92
1020.74	2492.38
1020.90	2449.37
1021.06	2232.29
1021.22	2437.08
1021.37	2301.92
1021.53	2342.88
1021.69	2412.51
1021.84	2334.68
1022.00	2369.50
1022.16	2336.73
1022.31	2306.01
1022.47	2283.49
1022.63	2306.01
1022.79	2314.20
1022.94	2287.58
1023.10	2510.81
1023.26	2299.87
1023.41	2232.29
1023.57	2363.36
1023.73	2267.10
1023.88	2322.40
1024.04	2250.72
1024.20	2293.72
1024.35	2308.06
1024.51	2310.11
1024.67	2260.96
1024.82	2287.58
1024.98	2289.63
1025.14	2240.48
1025.29	2263.01
1025.45	2242.53
1025.61	2107.36
1025.76	2224.09
1025.92	2248.67
1026.08	2273.25
1026.23	2263.01
1026.39	2310.11
1026.55	2138.08
1026.70	2154.46
1026.86	2174.94
1027.02	2211.81
1027.17	2187.23
1027.33	2203.61
1027.48	2111.46
1027.64	2170.85
1027.80	2181.09
1027.95	2193.37
1028.11	2052.06
1028.27	2148.32
1028.42	2150.37
1028.58	2152.42
1028.73	2103.26
1028.89	2068.45
1029.05	2187.23
1029.20	2240.48
>>>>>End Processed Spectral Data<<<<<
