SpectraSuite Data File
++++++++++++++++++++++++++++++++++++
Date: Fri Jun 02 14:53:32 CEST 2017
User: INFO_000
Dark Spectrum Present: No
Reference Spectrum Present: No
Number of Sampled Component Spectra: 1
Spectrometers: USB4H00879
Integration Time (usec): 80000 (USB4H00879)
Spectra Averaged: 1 (USB4H00879)
Boxcar Smoothing: 0 (USB4H00879)
Correct for Electrical Dark: No (USB4H00879)
Strobe/Lamp Enabled: No (USB4H00879)
Correct for Detector Non-linearity: No (USB4H00879)
Correct for Stray Light: No (USB4H00879)
Number of Pixels in Processed Spectrum: 3648
>>>>>Begin Processed Spectral Data<<<<<
345.13	1339.37
345.34	1339.37
345.56	1339.37
345.78	1243.12
345.99	1302.51
346.21	1728.49
346.42	1720.29
346.64	1683.43
346.86	1679.33
347.07	1624.04
347.29	1667.05
347.50	1665.00
347.72	1724.39
347.94	1746.92
348.15	1581.03
348.37	1640.42
348.59	1765.35
348.80	1675.24
349.02	1783.78
349.23	1896.42
349.45	1773.54
349.67	1847.27
349.88	1816.55
350.10	1990.63
350.31	1855.46
350.53	1830.88
350.75	1966.05
350.96	1781.73
351.18	1910.75
351.39	1869.80
351.61	1789.92
351.82	1912.80
352.04	1943.52
352.26	1859.56
352.47	1861.60
352.69	1830.88
352.90	1748.97
353.12	1822.69
353.34	1902.56
353.55	1884.13
353.77	1865.70
353.98	1877.99
354.20	1851.36
354.41	1935.33
354.63	1927.14
354.85	2011.11
355.06	1826.79
355.28	1779.68
355.49	1941.47
355.71	1828.84
355.92	1888.23
356.14	1980.39
356.35	1875.94
356.57	1875.94
356.79	1955.81
357.00	1837.03
357.22	2004.96
357.43	1869.80
357.65	2019.30
357.86	1857.51
358.08	2019.30
358.29	1880.04
358.51	1978.34
358.72	2043.87
358.94	1935.33
359.16	1931.23
359.37	1970.15
359.59	1845.22
359.80	1957.86
360.02	1980.39
360.23	1898.47
360.45	2009.06
360.66	1927.14
360.88	1845.22
361.09	2017.25
361.31	2023.39
361.52	2037.73
361.74	2062.30
361.95	2097.12
362.17	2054.11
362.38	2095.07
362.60	2039.78
362.81	1955.81
363.03	2007.01
363.24	1931.23
363.46	2193.37
363.67	2021.35
363.89	2017.25
364.10	2000.87
364.32	1964.00
364.53	2109.41
364.75	1957.86
364.96	2103.26
365.18	1970.15
365.39	1994.72
365.61	1949.67
365.82	2144.22
366.04	1998.82
366.25	1908.71
366.47	2103.26
366.68	2066.40
366.90	1865.70
367.11	2160.61
367.33	2088.93
367.54	2162.66
367.76	2025.44
367.97	2088.93
368.19	2052.06
368.40	2064.35
368.62	2002.91
368.83	1920.99
369.05	1994.72
369.26	1990.63
369.48	2025.44
369.69	1937.38
369.91	2088.93
370.12	2043.87
370.33	2129.89
370.55	2004.96
370.76	2039.78
370.98	2064.35
371.19	2035.68
371.41	2023.39
371.62	2082.78
371.84	2000.87
372.05	2168.80
372.27	2021.35
372.48	2097.12
372.69	2084.83
372.91	2228.19
373.12	2154.46
373.34	2035.68
373.55	2158.56
373.77	2148.32
373.98	2142.18
374.20	2115.55
374.41	2340.83
374.62	2099.17
374.84	2176.99
375.05	2215.90
375.27	2129.89
375.48	2256.86
375.70	2226.14
375.91	2236.38
376.12	2295.77
376.34	2195.42
376.55	2199.52
376.77	2232.29
376.98	2129.89
377.19	2195.42
377.41	2164.70
377.62	2332.64
377.84	2187.23
378.05	2269.15
378.27	2217.95
378.48	2260.96
378.69	2371.55
378.91	2283.49
379.12	2273.25
379.34	2256.86
379.55	2353.12
379.76	2310.11
379.98	2187.23
380.19	2211.81
380.41	2355.16
380.62	2248.67
380.83	2209.76
381.05	2312.16
381.26	2463.71
381.47	2189.28
381.69	2271.20
381.90	2439.13
382.12	2295.77
382.33	2222.05
382.54	2209.76
382.76	2273.25
382.97	2379.74
383.19	2301.92
383.40	2398.17
383.61	2299.87
383.83	2340.83
384.04	2367.45
384.25	2381.79
384.47	2437.08
384.68	2441.18
384.89	2346.97
385.11	2320.35
385.32	2312.16
385.54	2349.02
385.75	2398.17
385.96	2373.60
386.18	2453.47
386.39	2445.27
386.60	2357.21
386.82	2535.39
387.03	2322.40
387.24	2484.19
387.46	2453.47
387.67	2543.58
387.88	2502.62
388.10	2478.04
388.31	2514.91
388.52	2580.44
388.74	2559.96
388.95	2484.19
389.16	2572.25
389.38	2539.48
389.59	2570.20
389.80	2582.49
390.02	2576.34
390.23	2584.54
390.44	2539.48
390.66	2519.00
390.87	2510.81
391.08	2590.68
391.30	2756.57
391.51	2598.87
391.72	2682.84
391.94	2670.55
392.15	2648.02
392.36	2633.69
392.58	2645.98
392.79	2635.74
393.00	2686.94
393.22	2744.28
393.43	2770.90
393.64	2836.44
393.85	2793.43
394.07	2594.78
394.28	2797.53
394.49	2779.09
394.71	2883.54
394.92	2897.88
395.13	2678.74
395.35	2650.07
395.56	2762.71
395.77	2865.11
395.98	2795.48
396.20	2926.55
396.41	2873.30
396.62	2926.55
396.84	2871.25
397.05	2912.21
397.26	2916.31
397.47	3057.62
397.69	2838.48
397.90	3153.87
398.11	2944.98
398.32	2994.13
398.54	2953.17
398.75	2922.45
398.96	2942.93
399.18	3092.43
399.39	2908.12
399.60	2957.27
399.81	2842.58
400.03	2869.20
400.24	3295.18
400.45	3000.27
400.66	3018.71
400.88	3006.42
401.09	3227.60
401.30	3086.29
401.51	3211.22
401.73	3127.25
401.94	3041.23
402.15	3117.01
402.36	3094.48
402.58	3110.86
402.79	3289.04
403.00	3074.00
403.21	3262.41
403.43	3336.14
403.64	3272.65
403.85	3076.05
404.06	3368.91
404.27	3135.44
404.49	3133.39
404.70	3121.10
404.91	3383.24
405.12	3217.36
405.34	3235.79
405.55	3450.83
405.76	3272.65
405.97	3299.28
406.19	3401.68
406.40	3284.94
406.61	3370.96
406.82	3438.54
407.03	3313.61
407.25	3305.42
407.46	3436.49
407.67	3360.72
407.88	3502.03
408.09	3334.09
408.31	3383.24
408.52	3471.31
408.73	3413.96
408.94	3319.76
409.15	3416.01
409.37	3483.59
409.58	3489.74
409.79	3493.83
410.00	3528.65
410.21	3489.74
410.43	3514.31
410.64	3411.92
410.85	3522.51
411.06	3536.84
411.27	3489.74
411.48	3606.47
411.70	3512.27
411.91	3641.29
412.12	3629.00
412.33	3508.17
412.54	3655.62
412.76	3712.97
412.97	3645.38
413.18	3688.39
413.39	3710.92
413.60	3737.54
413.81	3645.38
414.03	3624.90
414.24	3678.15
414.45	3817.41
414.66	3678.15
414.87	3825.61
415.08	3798.98
415.30	3801.03
415.51	3747.78
415.72	3784.65
415.93	3717.06
416.14	3770.31
416.35	3751.88
416.56	3805.13
416.78	3850.18
416.99	3895.24
417.20	3950.53
417.41	3899.33
417.62	3940.29
417.83	4026.31
418.04	3827.65
418.26	3917.76
418.47	3954.63
418.68	4050.88
418.89	4052.93
419.10	4106.18
419.31	4120.51
419.52	4069.31
419.73	3919.81
419.95	4104.13
420.16	3989.44
420.37	4134.85
420.58	4110.27
420.79	3934.15
421.00	4057.03
421.21	4007.87
421.42	4091.84
421.63	4245.44
421.85	4202.43
422.06	4128.70
422.27	4237.25
422.48	4302.78
422.69	4409.28
422.90	4165.57
423.11	4249.54
423.32	4278.21
423.53	4433.85
423.75	4452.28
423.96	4509.63
424.17	4515.77
424.38	4501.44
424.59	4407.23
424.80	4638.65
425.01	4521.92
425.22	4399.04
425.43	4491.20
425.64	4618.17
425.85	4736.95
426.06	4646.84
426.28	4675.51
426.49	4462.52
426.70	4566.97
426.91	4509.63
427.12	4710.33
427.33	4669.37
427.54	4464.57
427.75	4788.15
427.96	4931.51
428.17	4665.27
428.38	4724.66
428.59	4786.10
428.80	4849.59
429.01	4808.63
429.23	4751.29
429.44	5058.48
429.65	5025.72
429.86	4947.89
430.07	4884.41
430.28	4984.76
430.49	4939.70
430.70	4976.56
430.91	5115.83
431.12	4913.08
431.33	5099.44
431.54	5195.70
431.75	5128.11
431.96	5134.26
432.17	5021.62
432.38	5070.77
432.59	5339.05
432.80	5283.76
433.01	5347.25
433.22	5386.16
433.43	5369.77
433.64	5425.07
433.85	5298.10
434.06	5402.54
434.27	5334.96
434.49	5349.29
434.70	5550.00
434.91	5400.49
435.12	5599.15
435.33	5601.19
435.54	5441.45
435.75	5345.20
435.96	5582.76
436.17	5521.32
436.38	5560.24
436.59	5701.54
436.80	5672.87
437.01	5877.67
437.22	5877.67
437.43	5736.36
437.64	5562.28
437.85	5703.59
438.06	5875.62
438.27	5713.83
438.48	5687.21
438.69	5900.20
438.90	5795.75
439.11	5746.60
439.32	5947.30
439.53	5898.15
439.74	6037.41
439.95	5867.43
440.16	5971.88
440.37	5988.26
440.57	5930.92
440.78	5978.02
440.99	6086.56
441.20	5914.53
441.41	5941.16
441.62	5910.44
441.83	6043.56
442.04	6213.54
442.25	6129.57
442.46	6139.81
442.67	6178.72
442.88	6664.09
443.09	6191.01
443.30	6229.92
443.51	6274.98
443.72	6500.25
443.93	6227.87
444.14	6434.72
444.35	6174.63
444.56	6428.57
444.77	6481.82
444.98	6502.30
445.19	6479.77
445.40	6555.55
445.61	6418.33
445.81	6625.18
446.02	6686.62
446.23	6492.06
446.44	6406.05
446.65	6657.95
446.86	6539.16
447.07	6653.85
447.28	6832.02
447.49	6729.63
447.70	6608.80
447.91	6854.55
448.12	6789.02
448.33	6709.15
448.54	6911.89
448.74	6662.04
448.95	6918.04
449.16	6801.30
449.37	7026.58
449.58	6836.12
449.79	7069.59
450.00	6891.41
450.21	7040.92
450.42	7237.52
450.63	7059.35
450.84	7268.24
451.05	7122.84
451.25	6989.72
451.46	6971.29
451.67	7362.45
451.88	7192.47
452.09	7253.91
452.30	7034.77
452.51	7194.51
452.72	7344.02
452.93	7718.79
453.13	7321.49
453.34	7331.73
453.55	7485.33
453.76	7348.11
453.97	7675.79
454.18	7634.83
454.39	7675.79
454.60	7475.09
454.81	7493.52
455.01	7813.00
455.22	7514.00
455.43	7643.02
455.64	7847.82
455.85	7886.73
456.06	7964.55
456.27	7853.96
456.48	7774.09
456.68	7817.10
456.89	7876.49
457.10	7899.02
457.31	8015.75
457.52	7923.59
457.73	8161.16
457.94	8363.90
458.14	8050.57
458.35	8460.16
458.56	8390.53
458.77	8171.40
458.98	8507.26
459.19	8329.09
459.39	8370.05
459.60	8644.48
459.81	8245.12
460.02	8587.13
460.23	8497.02
460.44	8781.69
460.65	8740.73
460.85	8808.31
461.06	8818.55
461.27	8648.57
461.48	9072.50
461.69	9144.18
461.89	8742.78
462.10	9068.41
462.31	8945.53
462.52	8843.13
462.73	9000.82
462.94	9295.73
463.14	9009.01
463.35	9103.22
463.56	9535.34
463.77	9402.22
463.98	9406.32
464.18	9527.15
464.39	9398.13
464.60	9764.72
464.81	9754.48
465.02	9623.41
465.23	9846.63
465.43	9723.76
465.64	10076.01
465.85	9873.26
466.06	9740.14
466.27	10211.17
466.47	10002.28
466.68	9979.75
466.89	9977.70
467.10	10217.32
467.30	9916.26
467.51	10207.08
467.72	10346.34
467.93	10231.65
468.14	10321.76
468.34	10622.81
468.55	10579.81
468.76	10612.57
468.97	10637.15
469.17	10610.53
469.38	10831.71
469.59	10868.57
469.80	10739.55
470.01	10827.61
470.21	10874.71
470.42	11173.72
470.63	11120.47
470.84	11054.94
471.04	11171.67
471.25	11319.12
471.46	11435.86
471.67	11575.12
471.87	11337.56
472.08	11626.32
472.29	11859.79
472.50	11382.61
472.70	11628.37
472.91	11638.61
473.12	12033.86
473.33	12066.63
473.53	12255.04
473.74	11956.04
473.95	12296.00
474.16	12218.18
474.36	12339.01
474.57	12537.66
474.78	12683.07
474.99	12570.43
475.19	12672.83
475.40	12904.25
475.61	13072.18
475.81	13010.75
476.02	13393.72
476.23	13117.24
476.44	13227.83
476.64	13299.51
476.85	13541.17
477.06	13479.73
477.27	13707.05
477.47	13889.32
477.68	13807.41
477.89	13805.36
478.09	13975.34
478.30	14042.92
478.51	14153.51
478.71	14083.88
478.92	14376.74
479.13	14305.06
479.34	14587.68
479.54	14481.19
479.75	14638.88
479.96	14628.64
480.16	14634.78
480.37	14640.93
480.58	15038.23
480.78	15236.89
480.99	15355.67
481.20	15249.18
481.41	15435.54
481.61	15476.50
481.82	15642.39
482.03	15638.29
482.23	15613.71
482.44	15834.89
482.65	15904.53
482.85	16049.93
483.06	16238.34
483.27	16158.47
483.47	16072.46
483.68	16219.91
483.89	16484.10
484.09	16504.58
484.30	16594.69
484.51	16813.82
484.71	16561.92
484.92	16860.93
485.13	17090.30
485.33	17133.31
485.54	17194.75
485.75	17415.93
485.95	17551.09
486.16	17235.70
486.37	17606.39
486.57	17731.31
486.78	17594.10
486.98	17776.37
487.19	17977.07
487.40	17688.31
487.60	18087.66
487.81	18353.90
488.02	18058.99
488.22	18220.78
488.43	18691.81
488.64	18626.28
488.84	18562.79
489.05	18826.98
489.25	18564.84
489.46	18949.85
489.67	18902.75
489.87	19125.98
490.08	19328.73
490.29	19257.05
490.49	19846.87
490.70	19582.68
490.90	19625.68
491.11	19455.70
491.32	19777.23
491.52	19670.74
491.73	19750.61
491.94	20221.64
492.14	19982.03
492.35	20022.99
492.55	20203.21
492.76	20287.18
492.97	20700.87
493.17	20403.91
493.38	20612.81
493.58	20565.70
493.79	20588.23
494.00	20702.92
494.20	21055.17
494.41	21196.48
494.61	21266.11
494.82	21200.57
495.02	21094.08
495.23	21300.92
495.44	21548.73
495.64	21655.22
495.85	21618.36
496.05	21958.32
496.26	21554.87
496.47	22183.60
496.67	21941.94
496.88	22087.34
497.08	21919.41
497.29	22468.27
497.49	22337.20
497.70	22269.61
497.91	22492.84
498.11	22873.76
498.32	22814.37
498.52	22785.70
498.73	22959.78
498.93	22910.63
499.14	22900.39
499.34	23029.41
499.55	23531.16
499.76	23000.74
499.96	23187.10
500.17	23275.16
500.37	23357.08
500.58	23502.49
500.78	23492.25
500.99	23510.68
501.19	24221.33
501.40	23731.86
501.60	23979.67
501.81	23930.51
502.02	23979.67
502.22	23719.57
502.43	24227.47
502.63	24206.99
502.84	24430.22
503.04	24278.67
503.25	24084.11
503.45	24323.72
503.66	24616.58
503.86	24530.57
504.07	24768.13
504.27	24751.75
504.48	24979.07
504.68	25132.67
504.89	24968.84
505.09	25042.56
505.30	24923.78
505.50	25237.12
505.71	25118.34
505.91	25474.68
506.12	25157.25
506.32	25691.77
506.53	25484.92
506.73	25396.86
506.94	25730.68
507.14	25689.72
507.35	25730.68
507.55	25732.73
507.76	26091.12
507.96	26027.63
508.17	26013.30
508.37	26091.12
508.58	26058.35
508.78	26259.06
508.99	26177.14
509.19	25898.61
509.40	26375.79
509.60	26439.28
509.81	26453.61
510.01	26363.50
510.22	26398.32
510.42	26599.02
510.63	26955.36
510.83	26496.62
511.04	26515.05
511.24	27033.19
511.44	26719.85
511.65	27111.01
511.85	27008.61
512.06	27068.00
512.26	27133.54
512.47	27025.00
512.67	27391.58
512.88	27270.75
513.08	27192.93
513.29	27590.24
513.49	27379.29
513.69	27412.06
513.90	27649.63
514.10	27723.35
514.31	27743.83
514.51	27565.66
514.72	27678.30
514.92	28059.22
515.13	27792.98
515.33	27835.99
515.53	28028.50
515.74	28042.84
515.94	28223.06
516.15	28018.26
516.35	27862.61
516.56	28274.26
516.76	28182.10
516.96	28390.99
517.17	28409.42
517.37	28218.96
517.58	28419.66
517.78	28673.61
517.99	28726.86
518.19	28911.17
518.39	28974.66
518.60	29109.83
518.80	28632.65
519.01	29062.72
519.21	29150.79
519.41	29412.93
519.62	29118.02
519.82	29277.76
520.03	29552.19
520.23	29337.15
520.43	29374.02
520.64	29675.07
520.84	29718.07
521.05	29589.05
521.25	29896.25
521.45	29935.16
521.66	30322.23
521.86	29920.82
522.07	29912.63
522.27	30111.28
522.47	30205.49
522.68	30406.19
522.88	30307.89
523.08	30860.84
523.29	30459.44
523.49	30096.95
523.70	30541.36
523.90	30682.67
524.10	30469.68
524.31	31229.48
524.51	30883.37
524.71	31366.69
524.92	31004.20
525.12	31016.49
525.33	31262.24
525.53	31520.29
525.73	31299.11
525.94	31290.91
526.14	31292.96
526.34	31731.23
526.55	31690.27
526.75	31757.85
526.95	32259.60
527.16	31948.31
527.36	31600.16
527.56	32267.80
527.77	32355.86
527.97	32019.99
528.17	32462.35
528.38	32568.85
528.58	32345.62
528.78	33003.02
528.99	32663.05
529.19	32808.46
529.39	32701.96
529.60	32945.67
529.80	32792.08
530.00	33175.05
530.21	33201.67
530.41	33279.49
530.61	33674.75
530.82	33822.20
531.02	33310.21
531.22	33678.85
531.43	33453.57
531.63	33928.70
531.83	34192.89
532.04	34428.40
532.24	33924.60
532.44	34332.15
532.64	33986.04
532.85	34756.08
533.05	34551.28
533.25	34721.26
533.46	34446.83
533.66	35167.72
533.86	34645.49
534.07	35225.06
534.27	35022.31
534.47	35233.25
534.67	35147.24
534.88	35036.65
535.08	35118.57
535.28	35530.21
535.49	35550.69
535.69	35786.21
535.89	35597.79
536.09	35851.74
536.30	36023.77
536.50	36193.75
536.70	36210.14
536.91	36001.24
537.11	36355.54
537.31	36763.09
537.51	36328.92
537.72	36539.86
537.92	36533.71
538.12	37170.63
538.32	36595.15
538.53	36931.02
538.73	36865.49
538.93	37168.58
539.13	36959.69
539.34	37103.05
539.54	36959.69
539.74	37572.03
539.94	37369.29
540.15	37217.74
540.35	37871.04
540.55	37819.84
540.75	37600.71
540.96	38069.69
541.16	37905.85
541.36	37887.42
541.56	38278.58
541.77	38399.41
541.97	37637.57
542.17	38258.10
542.37	38079.93
542.58	38186.43
542.78	38327.74
542.98	38200.76
543.18	38536.63
543.38	38546.87
543.59	38532.53
543.79	38305.21
543.99	38553.01
544.19	38733.23
544.40	38999.47
544.60	38852.02
544.80	38788.53
545.00	39022.00
545.20	39368.10
545.41	39380.39
545.61	39433.64
545.81	39374.25
546.01	39415.21
546.21	39419.30
546.42	39613.86
546.62	39998.88
546.82	39433.64
547.02	39957.92
547.22	39589.28
547.43	39466.41
547.63	40113.56
547.83	39957.92
548.03	39794.08
548.23	40224.15
548.44	40463.77
548.64	40000.93
548.84	40101.28
549.04	39980.45
549.24	40529.30
549.45	40928.66
549.65	40482.20
549.85	40443.29
550.05	40560.02
550.25	40826.26
550.45	41020.81
550.66	40641.94
550.86	40535.45
551.06	41037.20
551.26	41051.53
551.46	41051.53
551.66	40998.29
551.87	40899.98
552.07	41008.53
552.27	41074.06
552.47	41504.13
552.67	41299.34
552.87	41194.89
553.07	41436.55
553.28	41573.77
553.48	41502.09
553.68	41293.19
553.88	42028.41
554.08	41461.13
554.28	41510.28
554.48	41680.26
554.69	41915.78
554.89	41913.73
555.09	41743.75
555.29	41899.39
555.49	42007.94
555.69	42253.69
555.89	41936.26
556.10	42354.04
556.30	42083.71
556.50	41966.98
556.70	42112.38
556.90	42292.60
557.10	42237.31
557.30	42259.84
557.50	42403.19
557.70	42491.26
557.91	42708.34
558.11	42417.53
558.31	42554.74
558.51	42571.13
558.71	42790.26
558.91	43224.43
559.11	42638.71
559.31	42753.40
559.51	42601.85
559.72	42583.41
559.92	42687.86
560.12	42567.03
560.32	43253.10
560.52	42601.85
560.72	43238.76
560.92	43375.98
561.12	43224.43
561.32	43298.16
561.52	43146.61
561.72	42911.09
561.93	42947.95
562.13	43294.06
562.33	42888.56
562.53	43210.09
562.73	43320.68
562.93	43146.61
563.13	43556.20
563.33	43242.86
563.53	43720.04
563.73	43341.16
563.93	43568.49
564.13	43724.13
564.33	43423.08
564.53	43447.66
564.74	43746.66
564.94	43742.56
565.14	44012.90
565.34	43472.23
565.54	43734.37
565.74	44332.38
565.94	44109.15
566.14	43701.61
566.34	44045.66
566.54	44463.45
566.74	44021.09
566.94	44084.58
567.14	44461.40
567.34	44111.20
567.54	44039.52
567.74	44195.17
567.94	44199.26
568.14	44526.94
568.34	44709.21
568.54	44692.82
568.74	44586.33
568.94	44371.29
569.14	44367.20
569.34	44684.63
569.54	44596.57
569.75	44471.64
569.95	44445.02
570.15	45059.41
570.35	44807.51
570.55	44623.19
570.75	44989.78
570.95	44815.70
571.15	44991.83
571.35	45172.05
571.55	45258.06
571.75	45159.76
571.95	44897.62
572.15	45055.31
572.35	45534.54
572.55	44901.71
572.75	45135.18
572.95	45253.97
573.15	45442.38
573.35	45571.40
573.55	45342.03
573.75	45643.08
573.95	45757.77
574.15	45137.23
574.35	45610.31
574.55	45751.62
574.75	45512.01
574.95	45933.89
575.15	45446.47
575.34	45702.47
575.54	45757.77
575.74	46073.15
575.94	46198.08
576.14	46024.00
576.34	46363.96
576.54	46261.57
576.74	46222.65
576.94	46552.38
577.14	46531.90
577.34	46443.84
577.54	46429.50
577.74	46228.80
577.94	46361.92
578.14	46331.20
578.34	46488.89
578.54	46224.70
578.74	46763.32
578.94	46736.69
579.14	46388.54
579.34	46845.24
579.54	46837.05
579.74	47226.16
579.94	46955.83
580.13	47007.03
580.33	47289.65
580.53	47033.65
580.73	46982.45
580.93	47209.78
581.13	47203.63
581.33	47506.73
581.53	47539.50
581.73	47207.73
581.93	47715.62
582.13	47893.80
582.33	47873.32
582.53	47213.87
582.73	47897.89
582.92	48035.11
583.12	48436.51
583.32	47879.46
583.52	47985.96
583.72	48270.62
583.92	47856.93
584.12	48061.73
584.32	48774.42
584.52	48192.80
584.72	48712.98
584.92	48229.66
585.11	48870.68
585.31	48362.78
585.51	48641.31
585.71	48436.51
585.91	48624.92
586.11	48315.68
586.31	48545.05
586.51	48512.28
586.71	48672.03
586.91	48620.83
587.10	48921.88
587.30	49173.78
587.50	48700.70
587.70	49552.65
587.90	48977.17
588.10	49308.94
588.30	48936.21
588.50	49515.79
588.69	49640.71
588.89	49102.10
589.09	49573.13
589.29	49163.54
589.49	49753.35
589.69	49175.83
589.89	49612.04
590.08	49501.45
590.28	49591.56
590.48	49675.53
590.68	49491.21
590.88	49511.69
591.08	49687.82
591.28	49474.83
591.47	49913.09
591.67	49876.23
591.87	49816.84
592.07	50322.69
592.27	50156.80
592.47	49898.76
592.67	50132.23
592.86	49650.95
593.06	50271.49
593.26	50298.11
593.46	50281.73
593.66	50164.99
593.86	50105.60
594.05	50689.27
594.25	50580.73
594.45	50242.82
594.65	50435.33
594.85	50599.16
595.05	50672.89
595.24	50980.09
595.44	50398.46
595.64	50681.08
595.84	50885.88
596.04	50928.89
596.23	50754.81
596.43	50853.11
596.63	50715.90
596.83	51483.89
597.03	51252.47
597.22	51789.03
597.42	51008.76
597.62	51494.13
597.82	51565.81
598.02	51160.31
598.21	51899.62
598.41	51660.01
598.61	51262.71
598.81	51576.04
599.01	51487.98
599.20	51344.62
599.40	51395.82
599.60	52090.09
599.80	51942.63
600.00	51858.66
600.19	52184.29
600.39	51743.98
600.59	52384.99
600.79	52135.14
600.98	52208.87
601.18	52268.26
601.38	52483.30
601.58	52573.41
601.78	52477.15
601.97	52905.18
602.17	52833.50
602.37	52581.60
602.57	52454.62
602.76	52954.33
602.96	52581.60
603.16	52847.83
603.36	52827.35
603.55	52974.81
603.75	52831.45
603.95	53103.83
604.15	53007.58
604.34	52909.27
604.54	53279.96
604.74	53134.55
604.94	53365.97
605.13	53368.02
605.33	53325.01
605.53	53230.80
605.73	53478.61
605.92	53589.20
606.12	54109.38
606.32	53896.39
606.52	53646.54
606.71	53449.94
606.91	54117.57
607.11	53322.96
607.30	53613.77
607.50	53916.87
607.70	53744.84
607.90	53951.69
608.09	53753.04
608.29	53796.04
608.49	54047.94
608.68	54027.46
608.88	54484.16
609.08	54441.15
609.28	54162.63
609.47	54136.01
609.67	54928.57
609.87	53961.93
610.06	54537.41
610.26	54207.68
610.46	54432.96
610.66	54539.46
610.85	54629.57
611.05	54144.20
611.25	54334.66
611.44	54426.82
611.64	54484.16
611.84	54523.07
612.03	54609.09
612.23	54572.22
612.43	54975.67
612.62	54506.69
612.82	54811.84
613.02	54359.23
613.21	54916.28
613.41	54719.68
613.61	54951.10
613.80	54287.56
614.00	54805.69
614.20	55010.49
614.39	55174.33
614.59	54979.77
614.79	54817.98
614.98	54416.58
615.18	54959.29
615.38	54977.72
615.57	54432.96
615.77	55256.24
615.97	55018.68
616.16	55043.26
616.36	54836.41
616.56	55456.95
616.75	54584.51
616.95	55125.17
617.15	54846.65
617.34	54834.36
617.54	55186.61
617.74	55600.30
617.93	55260.34
618.13	54441.15
618.32	54942.91
618.52	54908.09
618.72	54949.05
618.91	55223.48
619.11	54725.82
619.31	54996.15
619.50	54830.27
619.70	54596.80
619.90	54924.47
620.09	55356.60
620.29	55192.76
620.48	54707.39
620.68	55401.65
620.88	54944.95
621.07	54969.53
621.27	55157.94
621.46	54797.50
621.66	55057.59
621.86	55114.94
622.05	54854.84
622.25	55526.58
622.44	54830.27
622.64	54998.20
622.84	55395.51
623.03	55420.08
623.23	55178.42
623.42	55000.25
623.62	55344.31
623.82	55502.00
624.01	54858.94
624.21	54973.63
624.40	55176.37
624.60	54936.76
624.80	55350.45
624.99	55334.07
625.19	55102.65
625.38	55145.65
625.58	55231.67
625.77	55194.81
625.97	55469.23
626.17	54760.64
626.36	55639.22
626.56	55434.42
626.75	54910.14
626.95	55585.97
627.14	54754.49
627.34	55559.34
627.54	54895.80
627.73	55305.40
627.93	55010.49
628.12	55088.31
628.32	54922.43
628.51	55149.75
628.71	54973.63
628.90	54903.99
629.10	55057.59
629.30	55225.53
629.49	55465.14
629.69	55098.55
629.88	55063.74
630.08	55436.47
630.27	55448.75
630.47	55219.38
630.66	54957.24
630.86	55479.47
631.05	54934.71
631.25	55704.75
631.44	55594.16
631.64	55551.15
631.84	54777.02
632.03	55370.93
632.23	55284.92
632.42	55522.48
632.62	55307.44
632.81	55268.53
633.01	55424.18
633.20	55727.28
633.40	55686.32
633.59	55465.14
633.79	55278.77
633.98	55725.23
634.18	55360.69
634.37	55766.19
634.57	54924.47
634.76	55895.21
634.96	55282.87
635.15	55719.09
635.35	55413.94
635.54	55506.10
635.74	55864.49
635.93	55473.33
636.13	55841.96
636.32	55841.96
636.52	55272.63
636.71	55352.50
636.91	55676.08
637.10	55936.17
637.30	55327.92
637.49	55401.65
637.69	56007.85
637.88	55596.21
638.08	55674.03
638.27	56239.27
638.46	55553.20
638.66	55520.43
638.85	55520.43
639.05	55628.98
639.24	55600.30
639.44	55170.23
639.63	55694.51
639.83	55973.03
640.02	55780.52
640.22	55618.74
640.41	55934.12
640.61	55497.91
640.80	55762.09
640.99	55882.92
641.19	56210.60
641.38	56018.09
641.58	55825.58
641.77	55674.03
641.97	55731.37
642.16	55747.76
642.36	56108.20
642.55	56374.44
642.74	55764.14
642.94	56517.79
643.13	55768.24
643.33	56474.79
643.52	56274.09
643.72	56126.63
643.91	56013.99
644.10	56349.86
644.30	56153.26
644.49	55878.83
644.69	56394.92
644.88	56108.20
645.08	56018.09
645.27	55921.83
645.46	56126.63
645.66	56427.68
645.85	56134.82
646.05	56452.26
646.24	56116.39
646.43	56173.73
646.63	56491.17
646.82	56601.76
647.02	56394.92
647.21	56945.82
647.40	56579.23
647.60	56552.61
647.79	56583.33
647.99	56612.00
648.18	56284.33
648.37	56546.47
648.57	56855.71
648.76	56431.78
648.96	56151.21
649.15	56745.12
649.34	57156.76
649.54	56460.45
649.73	56290.47
649.92	56753.31
650.12	56796.32
650.31	57183.38
650.51	56956.06
650.70	57253.01
650.89	56859.80
651.09	57326.74
651.28	56988.83
651.47	56915.10
651.67	57005.21
651.86	57562.26
652.06	56573.09
652.25	56982.68
652.44	56521.89
652.64	56087.72
652.83	56980.63
653.02	56896.67
653.22	56614.05
653.41	56931.48
653.60	56462.50
653.80	56734.88
653.99	56992.92
654.18	56913.05
654.38	56917.15
654.57	57177.24
654.76	56759.45
654.96	56503.46
655.15	56468.64
655.34	57013.40
655.54	56550.56
655.73	56841.37
655.92	57193.62
656.12	57164.95
656.31	56964.25
656.50	56915.10
656.70	57029.79
656.89	57136.28
657.08	57255.06
657.28	56763.55
657.47	57009.31
657.66	57009.31
657.86	56937.63
658.05	56923.29
658.24	57207.96
658.43	56859.80
658.63	56970.39
658.82	56814.75
659.01	57195.67
659.21	57058.46
659.40	57369.75
659.59	57062.55
659.79	57150.62
659.98	57320.60
660.17	57312.41
660.36	57343.12
660.56	57291.93
660.75	57873.55
660.94	57535.63
661.14	57078.94
661.33	57136.28
661.52	56636.58
661.71	57207.96
661.91	56972.44
662.10	57070.75
662.29	57414.80
662.49	57148.57
662.68	57595.03
662.87	57717.90
663.06	57533.59
663.26	56923.29
663.45	57826.45
663.64	57377.94
663.83	57871.50
664.03	57466.00
664.22	57306.26
664.41	57009.31
664.60	56947.87
664.80	57146.52
664.99	56632.48
665.18	57533.59
665.37	57269.40
665.57	57678.99
665.76	57119.90
665.95	57390.23
666.14	57619.60
666.34	57384.08
666.53	57181.34
666.72	57177.24
666.91	57029.79
667.11	56954.01
667.30	57103.51
667.49	56890.52
667.68	57103.51
667.87	57011.35
668.07	57529.49
668.26	57263.25
668.45	57195.67
668.64	56757.41
668.84	57900.17
669.03	57316.50
669.22	57341.08
669.41	57230.49
669.60	57177.24
669.80	56743.07
669.99	57083.03
670.18	57142.42
670.37	57156.76
670.57	57187.48
670.76	56964.25
670.95	57406.61
671.14	57167.00
671.33	56487.07
671.53	57814.16
671.72	57015.45
671.91	57109.66
672.10	56632.48
672.29	57390.23
672.48	57093.27
672.68	57810.06
672.87	57171.10
673.06	56917.15
673.25	57025.69
673.44	56784.03
673.64	57058.46
673.83	56906.91
674.02	56931.48
674.21	56376.48
674.40	56528.03
674.59	57015.45
674.79	57054.36
674.98	56976.54
675.17	56972.44
675.36	56554.66
675.55	56790.17
675.74	56427.68
675.94	56532.13
676.13	57300.12
676.32	57189.53
676.51	57275.54
676.70	57218.20
676.89	57017.50
677.08	57158.81
677.28	56843.42
677.47	57134.23
677.66	57111.70
677.85	57302.17
678.04	57472.15
678.23	56980.63
678.42	57099.42
678.62	56399.01
678.81	57191.58
679.00	56466.59
679.19	57474.20
679.38	56853.66
679.57	56482.98
679.76	56949.92
679.96	57023.64
680.15	56761.50
680.34	56661.15
680.53	56476.83
680.72	56982.68
680.91	56820.89
681.10	56904.86
681.29	56872.09
681.48	56493.22
681.68	56601.76
681.87	56519.84
682.06	56353.96
682.25	55758.00
682.44	56132.78
682.63	56497.31
682.82	56237.22
683.01	56358.05
683.20	56161.45
683.39	56558.75
683.59	55952.55
683.78	56179.88
683.97	55981.23
684.16	56106.15
684.35	55801.00
684.54	56351.91
684.73	55864.49
684.92	55850.16
685.11	56071.34
685.30	56329.38
685.49	56038.57
685.69	55899.31
685.88	55993.51
686.07	55891.12
686.26	55964.84
686.45	56042.66
686.64	55889.07
686.83	55633.07
687.02	56091.82
687.21	56081.58
687.40	56011.95
687.59	55764.14
687.78	55626.93
687.97	55997.61
688.16	55596.21
688.35	55751.85
688.54	55786.67
688.74	55563.44
688.93	55717.04
689.12	56200.36
689.31	55549.10
689.50	56147.11
689.69	55219.38
689.88	55309.49
690.07	55596.21
690.26	55192.76
690.45	56100.01
690.64	55135.41
690.83	55551.15
691.02	54805.69
691.21	55141.56
691.40	55364.79
691.59	55221.43
691.78	55080.12
691.97	55753.90
692.16	55377.08
692.35	55270.58
692.54	55354.55
692.73	54891.71
692.92	55162.04
693.11	55407.79
693.30	55028.92
693.49	54711.49
693.68	55506.10
693.87	55129.27
694.06	54641.85
694.25	54525.12
694.44	54645.95
694.63	54914.23
694.82	54840.51
695.01	55164.09
695.20	54480.06
695.39	54604.99
695.58	54854.84
695.77	54711.49
695.96	54557.89
696.15	54877.37
696.34	54539.46
696.53	55022.78
696.72	54693.05
696.91	54351.04
697.10	54428.87
697.29	54559.94
697.48	54662.33
697.67	54271.17
697.86	53959.88
698.05	53755.08
698.24	54514.88
698.43	53611.73
698.62	54322.37
698.81	53974.22
699.00	54168.77
699.19	54002.89
699.38	54205.64
699.57	53841.10
699.76	54725.82
699.95	54279.36
700.14	54162.63
700.32	53968.07
700.51	54041.80
700.70	54277.32
700.89	54344.90
701.08	54125.77
701.27	53650.64
701.46	54441.15
701.65	53214.42
701.84	54023.37
702.03	53914.83
702.22	53562.57
702.41	53494.99
702.60	53744.84
702.79	53562.57
702.98	53165.27
703.17	53314.77
703.35	53374.16
703.54	53349.59
703.73	53494.99
703.92	53161.17
704.11	53075.16
704.30	52942.04
704.49	53130.45
704.68	53230.80
704.87	53019.86
705.06	53253.33
705.25	53699.79
705.43	52798.68
705.62	53275.86
705.81	53292.24
706.00	52944.09
706.19	53048.53
706.38	53028.05
706.57	52733.15
706.76	53066.97
706.95	52712.67
707.14	52696.28
707.32	52593.89
707.51	52663.52
707.70	52851.93
707.89	53023.96
708.08	52704.48
708.27	53005.53
708.46	52692.19
708.65	52063.46
708.84	52585.69
709.02	52614.37
709.21	52948.18
709.40	52798.68
709.59	52475.10
709.78	52579.55
709.97	52665.56
710.16	52251.87
710.34	52249.83
710.53	52286.69
710.72	52108.52
710.91	52329.70
711.10	52640.99
711.29	52462.82
711.48	52421.86
711.66	51926.25
711.85	51995.88
712.04	51981.54
712.23	52172.00
712.42	52030.69
712.61	52057.32
712.80	52065.51
712.98	51891.43
713.17	51522.80
713.36	51764.46
713.55	51594.48
713.74	51320.05
713.93	51825.90
714.11	51512.56
714.30	51569.90
714.49	51905.77
714.68	51530.99
714.87	51619.05
715.06	51643.63
715.24	51492.08
715.43	51571.95
715.62	51471.60
715.81	51254.51
716.00	51328.24
716.18	51217.65
716.37	50756.86
716.56	51315.95
716.75	51307.76
716.94	51281.14
717.12	50799.86
717.31	51455.21
717.50	51025.14
717.69	51107.06
717.88	51297.52
718.06	51283.19
718.25	50982.13
718.44	50873.59
718.63	50896.12
718.82	50423.04
719.00	50449.66
719.19	50431.23
719.38	50279.68
719.57	49788.17
719.76	50029.83
719.94	50246.91
720.13	50099.46
720.32	49960.20
720.51	50140.42
720.69	50445.57
720.88	49970.44
721.07	50287.87
721.26	49362.19
721.44	49657.10
721.63	49661.19
721.82	49440.01
722.01	49476.88
722.20	49829.13
722.38	49464.59
722.57	48819.48
722.76	49509.64
722.95	49374.48
723.13	48995.60
723.32	49186.07
723.51	49313.04
723.70	49069.33
723.88	49202.45
724.07	49181.97
724.26	49063.19
724.44	48397.60
724.63	48799.00
724.82	49124.63
725.01	49011.99
725.19	48839.96
725.38	49057.04
725.57	48907.54
725.76	48737.56
725.94	48459.04
726.13	48913.69
726.32	48426.27
726.51	48239.90
726.69	48794.90
726.88	48602.39
727.07	48870.68
727.25	48262.43
727.44	48665.88
727.63	48098.59
727.82	48217.38
728.00	48532.76
728.19	48516.38
728.38	48684.31
728.56	47793.45
728.75	48545.05
728.94	48397.60
729.12	48495.90
729.31	48403.74
729.50	48471.32
729.69	48610.59
729.87	48069.92
730.06	48356.64
730.25	48178.46
730.43	48258.34
730.62	48129.31
730.81	48753.94
730.99	48606.49
731.18	48497.95
731.37	48289.06
731.55	48559.39
731.74	48321.82
731.93	48555.29
732.11	49067.28
732.30	48233.76
732.49	48297.25
732.67	48461.08
732.86	48495.90
733.05	48049.44
733.23	47930.66
733.42	48045.35
733.61	48006.44
733.79	48295.20
733.98	48469.28
734.17	48133.41
734.35	48604.44
734.54	47992.10
734.73	48407.84
734.91	48153.89
735.10	47953.19
735.29	48373.02
735.47	47811.88
735.66	47662.38
735.84	47922.47
736.03	47580.46
736.22	48008.48
736.40	47748.39
736.59	47789.35
736.78	47854.89
736.96	47727.91
737.15	47678.76
737.33	47516.97
737.52	47961.38
737.71	47557.93
737.89	47568.17
738.08	47246.64
738.27	47269.17
738.45	47588.65
738.64	47504.68
738.82	47746.34
739.01	47512.88
739.20	47373.61
739.38	47529.26
739.57	47912.23
739.75	47332.65
739.94	47445.29
740.13	47756.58
740.31	47265.07
740.50	47283.50
740.68	47582.51
740.87	47627.56
741.06	47387.95
741.24	47273.26
741.43	47330.61
741.61	46896.44
741.80	47312.17
741.99	46718.26
742.17	46878.00
742.36	47074.61
742.54	46695.74
742.73	46923.06
742.91	47525.16
743.10	46945.59
743.29	47250.74
743.47	47068.47
743.66	47260.97
743.84	47283.50
744.03	47289.65
744.21	46859.57
744.40	46804.28
744.59	46947.64
744.77	46507.32
744.96	46759.22
745.14	46898.48
745.33	46896.44
745.51	46994.74
745.70	46855.48
745.88	46740.79
746.07	46710.07
746.26	46396.73
746.44	46241.09
746.63	46724.41
746.81	46609.72
747.00	46601.53
747.18	46507.32
747.37	46421.31
747.55	46052.67
747.74	46243.13
747.92	46296.38
748.11	46128.45
748.29	46030.15
748.48	45825.35
748.66	46163.26
748.85	46540.09
749.03	46374.20
749.22	46259.52
749.41	46198.08
749.59	45999.43
749.78	45479.24
749.96	45391.18
750.15	45622.60
750.33	46110.02
750.52	45557.06
750.70	45348.17
750.89	46042.43
751.07	45401.42
751.26	45718.85
751.44	45872.45
751.63	46161.22
751.81	45651.27
752.00	45679.94
752.18	45589.83
752.37	45565.26
752.55	45000.02
752.74	45471.05
752.92	45319.50
753.10	45047.12
753.29	45178.19
753.47	44774.74
753.66	44746.07
753.84	45346.12
754.03	45002.07
754.21	45049.17
754.40	45192.53
754.58	45368.65
754.77	44983.63
754.95	45167.95
755.14	44950.87
755.32	45323.60
755.51	44356.96
755.69	45006.16
755.88	44864.85
756.06	44647.77
756.24	44987.73
756.43	44789.08
756.61	44506.46
756.80	44651.86
756.98	44365.15
757.17	44832.08
757.35	44981.59
757.54	44512.60
757.72	45002.07
757.90	44334.43
758.09	44633.43
758.27	44633.43
758.46	44344.67
758.64	44275.04
758.83	44746.07
759.01	44612.95
759.19	44262.75
759.38	44180.83
759.56	44313.95
759.75	44471.64
759.93	44287.32
760.12	44320.09
760.30	44166.49
760.48	44023.14
760.67	44131.68
760.85	43857.25
761.04	44262.75
761.22	44184.93
761.40	43830.63
761.59	43775.33
761.77	43990.37
761.96	43724.13
762.14	44049.76
762.32	43605.35
762.51	43316.59
762.69	43838.82
762.88	43662.69
763.06	43750.76
763.24	43668.84
763.43	43478.38
763.61	43693.41
763.80	43560.30
763.98	43289.96
764.16	43355.50
764.35	43345.26
764.53	43226.48
764.72	43189.61
764.90	43113.84
765.08	43300.20
765.27	42900.85
765.45	43253.10
765.63	42478.97
765.82	43052.40
766.00	42796.40
766.18	42866.03
766.37	43079.02
766.55	42704.24
766.74	42669.43
766.92	42648.95
767.10	42462.58
767.29	42970.48
767.47	42263.93
767.65	43013.49
767.84	42259.84
768.02	42751.35
768.20	42384.76
768.39	42431.86
768.57	42573.17
768.75	42700.15
768.94	42280.31
769.12	42476.92
769.30	42114.43
769.49	41842.05
769.67	41713.03
769.85	41823.62
770.04	42136.96
770.22	41637.25
770.40	41719.17
770.59	41936.26
770.77	42077.57
770.95	42052.99
771.14	41803.14
771.32	41401.74
771.50	41379.21
771.69	41493.89
771.87	41751.94
772.05	41278.86
772.24	41235.85
772.42	41686.40
772.60	41145.74
772.78	41072.01
772.97	41155.98
773.15	41676.16
773.33	41221.52
773.52	41530.76
773.70	41190.80
773.88	41717.12
774.07	41061.77
774.25	41119.12
774.43	41332.11
774.61	41385.35
774.80	41080.21
774.98	41362.82
775.16	41362.82
775.34	41614.72
775.53	41065.87
775.71	41420.17
775.89	41106.83
776.08	41651.59
776.26	41481.61
776.44	41502.09
776.62	41538.95
776.81	40908.18
776.99	41772.42
777.17	41704.84
777.35	41500.04
777.54	42382.71
777.72	41461.13
777.90	41686.40
778.08	41764.23
778.27	41268.62
778.45	41592.20
778.63	41794.95
778.81	41524.61
779.00	42239.36
779.18	41592.20
779.36	42263.93
779.54	41633.16
779.73	41971.07
779.91	42079.61
780.09	41586.05
780.27	42327.42
780.46	41706.88
780.64	42122.62
780.82	42147.20
781.00	41983.36
781.19	42083.71
781.37	42270.08
781.55	42298.75
781.73	42558.84
781.91	41819.52
782.10	42237.31
782.28	42431.86
782.46	42415.48
782.64	42558.84
782.82	42233.21
783.01	42521.98
783.19	42610.04
783.37	42145.15
783.55	41954.69
783.74	42405.24
783.92	42063.23
784.10	42974.58
784.28	42544.50
784.46	42143.10
784.64	42438.01
784.83	42169.72
785.01	42327.42
785.19	42407.29
785.37	42378.62
785.55	42143.10
785.74	41725.32
785.92	42122.62
786.10	42083.71
786.28	42335.61
786.46	42231.16
786.64	41997.70
786.83	42153.34
787.01	42067.33
787.19	42032.51
787.37	42120.57
787.55	42308.99
787.74	41962.88
787.92	42128.77
788.10	41710.98
788.28	42067.33
788.46	41962.88
788.64	41471.37
788.82	42210.68
789.01	41624.96
789.19	41799.04
789.37	41561.48
789.55	41690.50
789.73	41448.84
789.91	41465.22
790.09	41276.81
790.28	41430.41
790.46	40850.83
790.64	41506.18
790.82	40969.61
791.00	41205.13
791.18	40736.15
791.36	40908.18
791.55	40813.97
791.73	40662.42
791.91	40261.02
792.09	40725.91
792.27	40508.82
792.45	40750.48
792.63	40029.60
792.81	40539.54
793.00	40115.61
793.18	39904.67
793.36	40052.12
793.54	39832.99
793.72	39857.57
793.90	39757.22
794.08	40041.88
794.26	39826.85
794.44	39267.75
794.62	39151.02
794.81	40064.41
794.99	39392.68
795.17	39030.19
795.35	39241.13
795.53	39372.20
795.71	39439.78
795.89	38874.54
796.07	38684.08
796.25	38722.99
796.43	38845.87
796.61	38542.77
796.80	38260.15
796.98	38516.15
797.16	38448.57
797.34	37879.23
797.52	38462.90
797.70	38499.76
797.88	38417.85
798.06	38038.97
798.24	37877.18
798.42	38184.38
798.60	37983.68
798.78	37791.17
798.96	37676.48
799.14	37486.02
799.32	37649.86
799.51	37293.51
799.69	37498.31
799.87	37336.52
800.05	37195.21
800.23	37137.87
800.41	37123.53
800.59	37340.61
800.77	36916.68
800.95	36931.02
801.13	36842.96
801.31	36589.01
801.49	36670.93
801.67	36306.39
801.85	36933.07
802.03	36148.70
802.21	36277.72
802.39	36056.54
802.57	36005.34
802.75	36376.02
802.93	36038.11
803.11	35999.19
803.29	35861.98
803.47	35671.52
803.65	35456.48
803.83	35546.59
804.01	35829.21
804.19	35515.87
804.37	35419.62
804.55	35298.79
804.73	35255.78
804.91	35376.61
805.09	35331.56
805.27	35042.79
805.45	35284.45
805.63	35143.14
805.81	35089.90
805.99	35177.96
806.17	34862.57
806.35	34964.97
806.53	34842.09
806.71	34526.71
806.89	34534.90
807.07	34555.38
807.25	34526.71
807.43	34117.11
807.61	34418.16
807.79	34004.47
807.97	34053.62
808.15	34383.35
808.33	33965.56
808.51	33660.41
808.69	33971.71
808.87	33742.33
809.05	33656.32
809.23	33496.58
809.41	33443.33
809.59	33211.91
809.77	33564.16
809.95	33324.55
810.13	33484.29
810.31	33504.77
810.49	33388.03
810.67	33267.20
810.84	33537.54
811.02	33052.17
811.20	32704.01
811.38	32876.04
811.56	32740.88
811.74	32640.53
811.92	32572.94
812.10	32366.10
812.28	32871.95
812.46	32388.63
812.64	32529.94
812.82	32343.57
813.00	32312.85
813.18	32460.30
813.36	32230.93
813.53	31655.45
813.71	32108.05
813.89	32007.70
814.07	32036.38
814.25	32335.38
814.43	32065.05
814.61	32118.29
814.79	31798.81
814.97	31733.28
815.15	31710.75
815.33	30981.67
815.50	31110.69
815.68	31522.34
815.86	31565.34
816.04	31264.29
816.22	30932.52
816.40	31628.83
816.58	31090.21
816.76	30725.68
816.94	30912.04
817.11	30909.99
817.29	30780.97
817.47	30694.96
817.65	30549.55
817.83	30785.07
818.01	30748.20
818.19	30674.48
818.37	30938.66
818.54	30494.25
818.72	30287.41
818.90	30838.31
819.08	30000.69
819.26	30299.70
819.44	30512.69
819.62	30473.78
819.80	29984.31
819.97	30015.03
820.15	30066.23
820.33	30127.67
820.51	29775.42
820.69	29615.68
820.87	30244.40
821.05	30264.88
821.22	29556.28
821.40	29414.98
821.58	29679.16
821.76	29435.45
821.94	29310.53
822.12	29593.15
822.29	29707.83
822.47	29511.23
822.65	29732.41
822.83	29634.11
823.01	29464.13
823.19	29382.21
823.36	29341.25
823.54	29253.19
823.72	29167.17
823.90	29363.78
824.08	29150.79
824.25	28831.30
824.43	29019.72
824.61	29034.05
824.79	28950.09
824.97	28577.36
825.15	28825.16
825.32	28839.50
825.50	28798.54
825.68	28483.15
825.86	28628.56
826.04	28704.33
826.21	28681.80
826.39	28661.32
826.57	28395.09
826.75	28524.11
826.93	28270.16
827.10	28397.13
827.28	28517.96
827.46	28325.46
827.64	28208.72
827.81	28259.92
827.99	28390.99
828.17	28286.54
828.35	27909.72
828.53	27924.05
828.70	27905.62
828.88	27895.38
829.06	28239.44
829.24	27934.29
829.41	27594.33
829.59	27991.64
829.77	27504.22
829.95	27915.86
830.12	27702.87
830.30	27752.02
830.48	27848.28
830.66	27600.47
830.84	27586.14
831.01	27340.38
831.19	27631.19
831.37	27205.22
831.55	27233.89
831.72	27143.78
831.90	27139.68
832.08	27410.01
832.25	27436.64
832.43	27201.12
832.61	27045.48
832.79	26680.94
832.96	27029.09
833.14	27088.48
833.32	26967.65
833.50	27268.70
833.67	27270.75
833.85	26836.58
834.03	26553.96
834.20	27084.39
834.38	26707.56
834.56	27002.47
834.74	26709.61
834.91	26832.49
835.09	26621.55
835.27	26322.54
835.44	26424.94
835.62	26205.81
835.80	26617.45
835.98	26234.48
836.15	26566.25
836.33	26381.93
836.51	26662.51
836.68	26465.90
836.86	26160.75
837.04	25974.39
837.21	26156.66
837.39	26203.76
837.57	26367.60
837.75	26236.53
837.92	26117.75
838.10	25634.42
838.28	25771.64
838.45	25917.04
838.63	25763.45
838.81	25902.71
838.98	25579.13
839.16	25749.11
839.34	25622.14
839.51	25568.89
839.69	25443.96
839.87	25405.05
840.04	25349.76
840.22	25736.82
840.40	25468.54
840.57	24962.69
840.75	25331.33
840.93	25212.54
841.10	25435.77
841.28	25335.42
841.46	25024.13
841.63	25595.51
841.81	25169.54
841.98	25259.65
842.16	25228.93
842.34	24831.62
842.51	24909.44
842.69	25261.69
842.87	24741.51
843.04	25296.51
843.22	24704.65
843.40	24602.25
843.57	24864.39
843.75	24723.08
843.92	25106.05
844.10	24587.91
844.28	24905.35
844.45	24782.47
844.63	24825.48
844.81	24643.21
844.98	24680.07
845.16	24637.06
845.33	24458.89
845.51	24571.53
845.69	24557.19
845.86	24440.46
846.04	24278.67
846.21	24553.10
846.39	24098.45
846.57	24397.45
846.74	24475.27
846.92	24075.92
847.09	24141.46
847.27	23973.52
847.45	24200.85
847.62	24239.76
847.80	23991.95
847.97	24104.59
848.15	24108.69
848.32	24088.21
848.50	23871.12
848.68	23776.92
848.85	23727.77
849.03	23424.67
849.20	23795.35
849.38	23492.25
849.56	23711.38
849.73	23447.19
849.91	23537.30
850.08	23627.42
850.26	23336.60
850.43	23582.36
850.61	23512.73
850.78	23400.09
850.96	23541.40
851.14	23140.00
851.31	23547.54
851.49	23234.21
851.66	23496.35
851.84	23606.94
852.01	23197.34
852.19	23035.55
852.36	23305.88
852.54	23199.39
852.71	22834.85
852.89	22990.50
853.07	23058.08
853.24	23043.74
853.42	23189.15
853.59	23094.94
853.77	23109.28
853.94	23297.69
854.12	23041.70
854.29	22871.72
854.47	23035.55
854.64	22834.85
854.82	22787.75
854.99	22857.38
855.17	22898.34
855.34	22427.31
855.52	22927.01
855.69	22705.83
855.87	22763.17
856.04	22326.96
856.22	22470.31
856.39	22265.52
856.57	22404.78
856.74	22333.10
856.92	22396.59
857.09	22326.96
857.27	22238.89
857.44	22226.60
857.62	22191.79
857.79	22054.58
857.97	22312.62
858.14	21933.75
858.32	21982.90
858.49	22060.72
858.67	22056.62
858.84	21860.02
859.02	22159.02
859.19	22034.10
859.37	22019.76
859.54	21921.46
859.72	21759.67
859.89	21731.00
860.06	21896.88
860.24	22103.73
860.41	22005.42
860.59	21595.83
860.76	21710.52
860.94	21472.95
861.11	21857.97
861.29	21659.32
861.46	21765.81
861.64	21518.01
861.81	21759.67
861.98	21290.68
862.16	21243.58
862.33	21323.45
862.51	21317.31
862.68	21376.70
862.86	21227.20
863.03	21321.40
863.21	21407.42
863.38	21491.38
863.55	21171.90
863.73	21198.52
863.90	21298.88
864.08	21145.28
864.25	21055.17
864.43	20920.00
864.60	20934.34
864.77	20870.85
864.95	21114.56
865.12	20721.35
865.30	20956.86
865.47	20858.56
865.64	20719.30
865.82	20829.89
865.99	20805.31
866.17	20690.63
866.34	20836.03
866.51	20358.86
866.69	20684.48
866.86	20776.64
867.04	20586.18
867.21	20395.72
867.38	20621.00
867.56	20453.06
867.73	20500.17
867.91	20303.56
868.08	20164.30
868.25	20111.05
868.43	20123.34
868.60	20016.85
868.78	19982.03
868.95	20252.36
869.12	20037.33
869.30	20109.01
869.47	19932.88
869.64	19871.44
869.82	20098.77
869.99	19766.99
870.16	20317.90
870.34	19791.57
870.51	20051.66
870.69	19766.99
870.86	19814.10
871.03	19846.87
871.21	19678.93
871.38	19949.26
871.55	19496.66
871.73	19525.33
871.90	19660.50
872.07	19494.61
872.25	19316.44
872.42	19386.07
872.59	19478.23
872.77	19549.91
872.94	19515.09
873.11	19334.87
873.29	19556.05
873.46	19113.69
873.63	19201.76
873.81	19134.17
873.98	19168.99
874.15	19132.12
874.33	18939.62
874.50	19076.83
874.67	18915.04
874.85	18788.07
875.02	18802.40
875.19	18517.73
875.37	18593.51
875.54	18439.91
875.71	18757.35
875.88	18616.04
876.06	18538.21
876.23	18648.80
876.40	18476.77
876.58	18552.55
876.75	18454.25
876.92	18392.81
877.10	18370.28
877.27	18511.59
877.44	18554.60
877.61	18452.20
877.79	18093.80
877.96	18204.39
878.13	18284.26
878.31	17966.83
878.48	17989.36
878.65	17958.64
878.82	17770.22
879.00	18177.77
879.17	17921.77
879.34	17895.15
879.51	17719.03
879.69	17657.59
879.86	17936.11
880.03	17903.34
880.21	17721.07
880.38	17581.81
880.55	17749.75
880.72	17581.81
880.90	17583.86
881.07	17557.24
881.24	17665.78
881.41	17661.68
881.59	17577.72
881.76	17229.56
881.93	17198.84
882.10	17262.33
882.28	17338.10
882.45	17282.81
882.62	17221.37
882.79	17383.16
882.96	16914.17
883.14	17200.89
883.31	17327.86
883.48	16826.11
883.65	17288.95
883.83	17278.71
884.00	17065.72
884.17	17075.96
884.34	16998.14
884.51	17112.83
884.69	16901.89
884.86	16873.21
885.03	17059.58
885.20	16682.75
885.38	17108.73
885.55	17127.16
885.72	16738.05
885.89	16736.00
886.06	16822.02
886.24	16779.01
886.41	16611.07
886.58	16948.99
886.75	16684.80
886.92	16797.44
887.10	16600.83
887.27	16396.04
887.44	16551.68
887.61	16656.13
887.78	16338.69
887.95	16518.92
888.13	16445.19
888.30	16269.06
888.47	16631.55
888.64	16535.30
888.81	16283.40
888.99	16344.84
889.16	16322.31
889.33	16264.97
889.50	16133.90
889.67	16189.19
889.84	16146.19
890.01	16295.69
890.19	16099.08
890.36	16209.67
890.53	16193.29
890.70	16045.84
890.87	15959.82
891.04	15869.71
891.22	16101.13
891.39	15787.79
891.56	15572.75
891.73	15908.62
891.90	15646.48
892.07	15697.68
892.24	15968.01
892.42	15607.57
892.59	15568.66
892.76	15568.66
892.93	15478.55
893.10	15591.19
893.27	15619.86
893.44	15509.27
893.61	15695.63
893.79	15626.00
893.96	15482.64
894.13	15707.92
894.30	15507.22
894.47	15994.64
894.64	15658.77
894.81	15656.72
894.98	15628.05
895.15	15574.80
895.33	15576.85
895.50	15228.70
895.67	15626.00
895.84	15525.65
896.01	15552.27
896.18	15447.83
896.35	15521.56
896.52	15499.03
896.69	15277.85
896.86	15243.03
897.04	15456.02
897.21	15300.37
897.38	15228.70
897.55	15279.89
897.72	15494.93
897.89	15093.53
898.06	15413.01
898.23	15310.61
898.40	15388.44
898.57	15550.23
898.74	15370.01
898.91	15212.31
899.08	15216.41
899.26	15208.22
899.43	15290.13
899.60	15427.35
899.77	15247.13
899.94	15150.87
900.11	14978.84
900.28	15296.28
900.45	15140.63
900.62	15232.79
900.79	15335.19
900.96	15298.33
901.13	15361.81
901.30	15177.50
901.47	15232.79
901.64	15384.34
901.81	15191.83
901.98	15347.48
902.15	15400.72
902.32	15040.28
902.49	15240.98
902.66	15253.27
902.83	15218.46
903.01	15202.07
903.18	15337.24
903.35	15335.19
903.52	15107.87
903.69	15111.96
903.86	15189.78
904.03	15189.78
904.20	15314.71
904.37	15245.08
904.54	15050.52
904.71	15204.12
904.88	15138.58
905.05	15159.06
905.22	15202.07
905.39	14939.93
905.56	15152.92
905.73	14933.79
905.90	15056.67
906.07	15044.38
906.24	15169.30
906.41	15058.71
906.58	15296.28
906.75	15042.33
906.92	14800.67
907.09	15040.28
907.26	15034.14
907.43	14698.27
907.60	15257.37
907.77	15165.21
907.93	14909.21
908.10	14886.68
908.27	15073.05
908.44	14993.18
908.61	14710.56
908.78	15015.71
908.95	15085.34
909.12	15116.06
909.29	15103.77
909.46	15122.20
909.63	15171.35
909.80	14937.88
909.97	15025.95
910.14	14849.82
910.31	14870.30
910.48	14966.56
910.65	15044.38
910.82	14690.08
910.99	14898.97
911.16	14642.98
911.33	14888.73
911.50	14626.59
911.66	14696.22
911.83	14743.33
912.00	14698.27
912.17	14505.76
912.34	14550.82
912.51	14413.60
912.68	14599.97
912.85	14452.52
913.02	14765.85
913.19	14360.36
913.36	14436.13
913.53	14616.35
913.70	14432.04
913.86	14552.87
914.03	14475.04
914.20	14346.02
914.37	14343.97
914.54	14479.14
914.71	14264.10
914.88	14280.49
915.05	14167.85
915.22	14176.04
915.39	14096.17
915.55	14028.59
915.72	14036.78
915.89	14096.17
916.06	13991.72
916.23	14026.54
916.40	13940.52
916.57	13911.85
916.74	13807.41
916.91	13883.18
917.07	13616.94
917.24	13676.34
917.41	13700.91
917.58	13569.84
917.75	13545.27
917.92	13637.42
918.09	13537.07
918.26	13492.02
918.42	13739.82
918.59	13492.02
918.76	13453.11
918.93	13154.10
919.10	13524.79
919.27	13342.52
919.44	13322.04
919.60	13289.27
919.77	13332.28
919.94	13102.90
920.11	13303.60
920.28	13184.82
920.45	12894.01
920.61	13020.99
920.78	12971.83
920.95	12910.40
921.12	13217.59
921.29	12781.37
921.46	12848.96
921.62	12687.17
921.79	12914.49
921.96	12779.32
922.13	12619.58
922.30	12840.76
922.47	12461.89
922.63	12185.41
922.80	12412.74
922.97	12513.09
923.14	12040.01
923.31	12437.31
923.47	12166.98
923.64	12486.47
923.81	12146.50
923.98	12209.99
924.15	12144.45
924.32	12146.50
924.48	12144.45
924.65	12242.76
924.82	11745.10
924.99	11804.49
925.15	11863.88
925.32	12064.58
925.49	11681.61
925.66	11677.52
925.83	11665.23
925.99	11657.04
926.16	11591.50
926.33	11628.37
926.50	11249.49
926.67	11734.86
926.83	11511.63
927.00	11310.93
927.17	11237.20
927.34	11159.38
927.50	11286.36
927.67	11528.02
927.84	11050.84
928.01	11118.42
928.17	11263.83
928.34	11046.74
928.51	11071.32
928.68	10870.62
928.84	11056.98
929.01	10622.81
929.18	10700.64
929.35	10504.03
929.51	10864.47
929.68	10526.56
929.85	10432.35
930.02	10592.09
930.18	10555.23
930.35	10401.63
930.52	10450.78
930.69	10469.22
930.85	10383.20
931.02	10274.66
931.19	10137.45
931.36	10280.80
931.52	10317.67
931.69	10182.50
931.86	10219.36
932.02	10076.01
932.19	10196.84
932.36	10000.23
932.53	9887.59
932.69	9822.06
932.86	9838.44
933.03	9928.55
933.19	9521.01
933.36	9643.88
933.53	9770.86
933.70	9559.92
933.86	9615.21
934.03	9664.36
934.20	9236.34
934.36	9637.74
934.53	9033.59
934.70	9187.19
934.86	9369.46
935.03	8953.72
935.20	9019.25
935.36	8910.71
935.53	8793.98
935.70	8830.84
935.86	8734.59
936.03	8562.56
936.20	8537.98
936.36	8490.88
936.53	8675.20
936.70	8554.37
936.86	8624.00
937.03	8331.14
937.20	8142.72
937.36	8365.95
937.53	8058.76
937.70	7989.13
937.86	7911.30
938.03	7964.55
938.20	7876.49
938.36	7468.94
938.53	7671.69
938.70	7382.93
938.86	7452.56
939.03	7348.11
939.20	7321.49
939.36	7253.91
939.53	7208.85
939.70	7311.25
939.86	6924.18
940.03	6838.17
940.19	6766.49
940.36	6934.42
940.53	6832.02
940.69	6674.33
940.86	6475.68
941.03	6414.24
941.19	6397.85
941.36	6430.62
941.52	6516.64
941.69	6377.37
941.86	6199.20
942.02	6121.38
942.19	6100.90
942.35	6107.04
942.52	5963.68
942.69	6027.17
942.85	5963.68
943.02	5902.25
943.18	5943.21
943.35	5937.06
943.52	5785.51
943.68	5652.39
943.85	5672.87
944.01	5603.24
944.18	5517.23
944.35	5558.19
944.51	5574.57
944.68	5474.22
944.84	5406.64
945.01	5341.10
945.17	5361.58
945.34	5498.80
945.51	5367.73
945.67	5439.40
945.84	5373.87
946.00	5140.40
946.17	5322.67
946.33	5302.19
946.50	5357.49
946.67	5228.46
946.83	5275.57
947.00	5425.07
947.16	5269.42
947.33	5226.42
947.49	5197.74
947.66	5212.08
947.82	5341.10
947.99	5203.89
948.16	5289.90
948.32	5220.27
948.49	5400.49
948.65	5289.90
948.82	5304.24
948.98	5267.38
949.15	5173.17
949.31	5390.25
949.48	5509.04
949.64	5224.37
949.81	5314.48
949.97	5236.66
950.14	5312.43
950.30	5195.70
950.47	5394.35
950.63	5302.19
950.80	5337.01
950.96	5306.29
951.13	5345.20
951.30	5349.29
951.46	5425.07
951.63	5418.93
951.79	5443.50
951.96	5349.29
952.12	5222.32
952.29	5425.07
952.45	5265.33
952.62	5283.76
952.78	5402.54
952.94	5320.62
953.11	5380.01
953.27	5197.74
953.44	5572.52
953.60	5439.40
953.77	5269.42
953.93	5488.56
954.10	5439.40
954.26	5492.65
954.43	5394.35
954.59	5425.07
954.76	5543.85
954.92	5425.07
955.09	5349.29
955.25	5416.88
955.42	5410.73
955.58	5595.05
955.75	5377.97
955.91	5312.43
956.07	5461.93
956.24	5418.93
956.40	5492.65
956.57	5398.45
956.73	5369.77
956.90	5556.14
957.06	5492.65
957.23	5371.82
957.39	5261.23
957.56	5529.52
957.72	5232.56
957.88	5355.44
958.05	5386.16
958.21	5502.89
958.38	5537.71
958.54	5410.73
958.71	5304.24
958.87	5449.64
959.03	5459.88
959.20	5439.40
959.36	5513.13
959.53	5558.19
959.69	5396.40
959.85	5504.94
960.02	5334.96
960.18	5324.72
960.35	5472.17
960.51	5457.84
960.68	5459.88
960.84	5433.26
961.00	5300.14
961.17	5509.04
961.33	5406.64
961.50	5435.31
961.66	5474.22
961.82	5377.97
961.99	5445.55
962.15	5433.26
962.31	5328.81
962.48	5402.54
962.64	5478.32
962.81	5367.73
962.97	5337.01
963.13	5521.32
963.30	5359.53
963.46	5267.38
963.62	5470.12
963.79	5326.77
963.95	5427.12
964.12	5353.39
964.28	5371.82
964.44	5351.34
964.61	5414.83
964.77	5197.74
964.93	5457.84
965.10	5406.64
965.26	5316.53
965.42	5353.39
965.59	5285.81
965.75	5298.10
965.92	5265.33
966.08	5314.48
966.24	5345.20
966.41	5283.76
966.57	5246.90
966.73	5205.94
966.90	5271.47
967.06	5246.90
967.22	5275.57
967.39	5189.55
967.55	5289.90
967.71	5183.41
967.88	5160.88
968.04	5154.74
968.20	5089.20
968.37	5068.72
968.53	5119.92
968.69	5234.61
968.85	5046.20
969.02	5242.80
969.18	5175.22
969.34	5162.93
969.51	5124.02
969.67	5128.11
969.83	5093.30
970.00	5115.83
970.16	5148.59
970.32	5142.45
970.48	5193.65
970.65	5054.39
970.81	4992.95
970.97	5019.57
971.14	5015.48
971.30	5124.02
971.46	4925.36
971.63	4951.99
971.79	5142.45
971.95	4970.42
972.11	4894.65
972.28	4921.27
972.44	5111.73
972.60	4825.01
972.76	4984.76
972.93	4820.92
973.09	4974.52
973.25	4941.75
973.42	4962.23
973.58	4968.37
973.74	4923.32
973.90	4917.17
974.07	4884.41
974.23	4698.04
974.39	4804.53
974.55	4779.96
974.72	4726.71
974.88	4700.09
975.04	4886.45
975.20	4771.77
975.37	4876.21
975.53	4839.35
975.69	4802.49
975.85	4755.38
976.01	4655.03
976.18	4822.97
976.34	4667.32
976.50	4745.14
976.66	4714.42
976.83	4683.70
976.99	4626.36
977.15	4663.22
977.31	4526.01
977.47	4712.38
977.64	4544.44
977.80	4630.46
977.96	4614.07
978.12	4587.45
978.29	4605.88
978.45	4491.20
978.61	4579.26
978.77	4663.22
978.93	4450.24
979.10	4358.08
979.26	4483.00
979.42	4472.76
979.58	4501.44
979.74	4419.52
979.91	4521.92
980.07	4536.25
980.23	4536.25
980.39	4321.21
980.55	4519.87
980.71	4392.89
980.88	4347.84
981.04	4347.84
981.20	4362.17
981.36	4382.65
981.52	4353.98
981.68	4261.82
981.85	4581.31
982.01	4261.82
982.17	4384.70
982.33	4343.74
982.49	4386.75
982.65	4390.84
982.82	4331.45
982.98	4345.79
983.14	4335.55
983.30	4282.30
983.46	4327.36
983.62	4358.08
983.79	4241.34
983.95	4204.48
984.11	4097.99
984.27	4214.72
984.43	4208.58
984.59	4222.91
984.75	4140.99
984.91	4163.52
985.08	4257.73
985.24	4057.03
985.40	4196.29
985.56	4106.18
985.72	4140.99
985.88	4138.94
986.04	4071.36
986.20	4128.70
986.37	4140.99
986.53	4122.56
986.69	3966.92
986.85	4085.70
987.01	4091.84
987.17	4067.27
987.33	3983.30
987.49	3977.16
987.65	3944.39
987.82	3968.96
987.98	3999.68
988.14	4044.74
988.30	3975.11
988.46	3897.28
988.62	3925.96
988.78	3880.90
988.94	3983.30
989.10	3796.93
989.26	3825.61
989.42	3850.18
989.59	3905.48
989.75	3938.24
989.91	3977.16
990.07	3823.56
990.23	3817.41
990.39	3827.65
990.55	4011.97
990.71	3786.69
990.87	3774.41
991.03	3876.80
991.19	3811.27
991.35	3839.94
991.51	3758.02
991.67	3848.13
991.83	3645.38
992.00	3784.65
992.16	3729.35
992.32	3747.78
992.48	3657.67
992.64	3672.01
992.80	3723.21
992.96	3581.90
993.12	3721.16
993.28	3733.45
993.44	3571.66
993.60	3712.97
993.76	3688.39
993.92	3678.15
994.08	3741.64
994.24	3631.05
994.40	3661.77
994.56	3676.10
994.72	3686.34
994.88	3459.02
995.04	3637.19
995.20	3667.91
995.36	3454.92
995.52	3547.08
995.68	3571.66
995.84	3538.89
996.00	3604.42
996.16	3436.49
996.32	3569.61
996.48	3428.30
996.64	3559.37
996.80	3471.31
996.96	3620.81
997.12	3432.40
997.28	3452.88
997.44	3424.20
997.60	3407.82
997.76	3516.36
997.92	3434.44
998.08	3411.92
998.24	3330.00
998.40	3325.90
998.56	3473.36
998.72	3274.70
998.88	3319.76
999.04	3243.98
999.20	3395.53
999.36	3264.46
999.52	3354.57
999.68	3383.24
999.84	3338.19
1000.00	3323.85
1000.16	3262.41
1000.32	3200.98
1000.48	3342.28
1000.64	3188.69
1000.80	3233.74
1000.95	3125.20
1001.11	3227.60
1001.27	3149.78
1001.43	3260.37
1001.59	3153.87
1001.75	3145.68
1001.91	3264.46
1002.07	3106.77
1002.23	3182.54
1002.39	3104.72
1002.55	3221.45
1002.71	3051.47
1002.87	3117.01
1003.03	3037.14
1003.19	3160.02
1003.34	3172.30
1003.50	3117.01
1003.66	3155.92
1003.82	3106.77
1003.98	2981.84
1004.14	3028.95
1004.30	3108.82
1004.46	2971.60
1004.62	3037.14
1004.78	2963.41
1004.94	3166.16
1005.09	3061.71
1005.25	3014.61
1005.41	2983.89
1005.57	2979.79
1005.73	3039.19
1005.89	2846.68
1006.05	2953.17
1006.21	3110.86
1006.37	2869.20
1006.52	3012.56
1006.68	2836.44
1006.84	3100.62
1007.00	3016.66
1007.16	3018.71
1007.32	2772.95
1007.48	2947.03
1007.64	2863.06
1007.79	2906.07
1007.95	2891.73
1008.11	2871.25
1008.27	2897.88
1008.43	2885.59
1008.59	2928.60
1008.75	2820.05
1008.91	2754.52
1009.06	2822.10
1009.22	2899.92
1009.38	2834.39
1009.54	2805.72
1009.70	2764.76
1009.86	2850.77
1010.01	2820.05
1010.17	2731.99
1010.33	2805.72
1010.49	2777.05
1010.65	2865.11
1010.81	2760.66
1010.96	2666.46
1011.12	2729.94
1011.28	2629.59
1011.44	2715.61
1011.60	2668.50
1011.76	2637.78
1011.91	2770.90
1012.07	2582.49
1012.23	2678.74
1012.39	2654.17
1012.55	2697.17
1012.71	2635.74
1012.86	2602.97
1013.02	2686.94
1013.18	2549.72
1013.34	2621.40
1013.50	2662.36
1013.65	2656.22
1013.81	2564.06
1013.97	2650.07
1014.13	2609.11
1014.29	2615.26
1014.44	2719.70
1014.60	2590.68
1014.76	2523.10
1014.92	2656.22
1015.07	2605.02
1015.23	2572.25
1015.39	2510.81
1015.55	2535.39
1015.71	2535.39
1015.86	2488.28
1016.02	2525.15
1016.18	2508.76
1016.34	2566.10
1016.49	2557.91
1016.65	2551.77
1016.81	2572.25
1016.97	2455.51
1017.12	2559.96
1017.28	2369.50
1017.44	2492.38
1017.60	2473.95
1017.75	2498.52
1017.91	2541.53
1018.07	2459.61
1018.23	2551.77
1018.38	2404.32
1018.54	2422.75
1018.70	2441.18
1018.86	2332.64
1019.01	2408.41
1019.17	2394.08
1019.33	2486.23
1019.49	2418.65
1019.64	2412.51
1019.80	2412.51
1019.96	2410.46
1020.12	2340.83
1020.27	2367.45
1020.43	2314.20
1020.59	2299.87
1020.74	2387.93
1020.90	2424.80
1021.06	2361.31
1021.22	2412.51
1021.37	2328.54
1021.53	2267.10
1021.69	2416.60
1021.84	2285.53
1022.00	2324.44
1022.16	2363.36
1022.31	2322.40
1022.47	2303.96
1022.63	2404.32
1022.79	2228.19
1022.94	2283.49
1023.10	2349.02
1023.26	2291.68
1023.41	2250.72
1023.57	2240.48
1023.73	2291.68
1023.88	2336.73
1024.04	2207.71
1024.20	2252.77
1024.35	2256.86
1024.51	2375.64
1024.67	2285.53
1024.82	2303.96
1024.98	2220.00
1025.14	2236.38
1025.29	2242.53
1025.45	2281.44
1025.61	2213.85
1025.76	2187.23
1025.92	2097.12
1026.08	2260.96
1026.23	2265.05
1026.39	2269.15
1026.55	2152.42
1026.70	2174.94
1026.86	2123.74
1027.02	2293.72
1027.17	2207.71
1027.33	2230.24
1027.48	2179.04
1027.64	2131.94
1027.80	2144.22
1027.95	2195.42
1028.11	2119.65
1028.27	2166.75
1028.42	2158.56
1028.58	2082.78
1028.73	2211.81
1028.89	1992.67
1029.05	2197.47
1029.20	2099.17
>>>>>End Processed Spectral Data<<<<<
