SpectraSuite Data File
++++++++++++++++++++++++++++++++++++
Date: Fri Jun 02 14:53:32 CEST 2017
User: INFO_000
Dark Spectrum Present: No
Reference Spectrum Present: No
Number of Sampled Component Spectra: 1
Spectrometers: USB4H00879
Integration Time (usec): 80000 (USB4H00879)
Spectra Averaged: 1 (USB4H00879)
Boxcar Smoothing: 0 (USB4H00879)
Correct for Electrical Dark: No (USB4H00879)
Strobe/Lamp Enabled: No (USB4H00879)
Correct for Detector Non-linearity: No (USB4H00879)
Correct for Stray Light: No (USB4H00879)
Number of Pixels in Processed Spectrum: 3648
>>>>>Begin Processed Spectral Data<<<<<
345.13	1232.88
345.34	1232.88
345.56	1232.88
345.78	1232.88
345.99	1261.55
346.21	1685.48
346.42	1710.05
346.64	1710.05
346.86	1759.21
347.07	1708.01
347.29	1714.15
347.50	1693.67
347.72	1679.33
347.94	1806.31
348.15	1581.03
348.37	1662.95
348.59	1738.73
348.80	1683.43
349.02	1716.20
349.23	1978.34
349.45	1896.42
349.67	1927.14
349.88	1808.36
350.10	1916.90
350.31	1822.69
350.53	1839.08
350.75	1953.76
350.96	1769.44
351.18	1910.75
351.39	1892.32
351.61	1787.88
351.82	1882.08
352.04	1880.04
352.26	1886.18
352.47	1900.52
352.69	1898.47
352.90	1775.59
353.12	1818.60
353.34	1871.84
353.55	1941.47
353.77	1822.69
353.98	1812.45
354.20	1896.42
354.41	1916.90
354.63	1947.62
354.85	2002.91
355.06	1970.15
355.28	1822.69
355.49	1830.88
355.71	1929.19
355.92	1828.84
356.14	1945.57
356.35	1890.28
356.57	1863.65
356.79	1992.67
357.00	1839.08
357.22	1916.90
357.43	1855.46
357.65	2029.54
357.86	1871.84
358.08	1939.43
358.29	1943.52
358.51	1968.10
358.72	1968.10
358.94	1886.18
359.16	1910.75
359.37	1980.39
359.59	1929.19
359.80	2027.49
360.02	1994.72
360.23	1933.28
360.45	1968.10
360.66	1902.56
360.88	1914.85
361.09	1941.47
361.31	1988.58
361.52	1957.86
361.74	2074.59
361.95	2047.97
362.17	1953.76
362.38	2146.27
362.60	2047.97
362.81	1974.24
363.03	1994.72
363.24	2019.30
363.46	2068.45
363.67	2011.11
363.89	1929.19
364.10	2023.39
364.32	1949.67
364.53	2039.78
364.75	1912.80
364.96	1949.67
365.18	2019.30
365.39	1966.05
365.61	1972.19
365.82	2183.13
366.04	2041.82
366.25	1990.63
366.47	2060.26
366.68	2007.01
366.90	1968.10
367.11	2045.92
367.33	2152.42
367.54	2142.18
367.76	2027.49
367.97	2050.02
368.19	2033.63
368.40	2097.12
368.62	1955.81
368.83	1914.85
369.05	2019.30
369.26	1941.47
369.48	1906.66
369.69	1970.15
369.91	2082.78
370.12	1986.53
370.33	2127.84
370.55	1976.29
370.76	1990.63
370.98	2121.70
371.19	2117.60
371.41	2037.73
371.62	2043.87
371.84	2037.73
372.05	2174.94
372.27	2035.68
372.48	2033.63
372.69	2115.55
372.91	2193.37
373.12	2203.61
373.34	2043.87
373.55	2097.12
373.77	2152.42
373.98	2099.17
374.20	2154.46
374.41	2260.96
374.62	2117.60
374.84	2172.89
375.05	2203.61
375.27	2152.42
375.48	2189.28
375.70	2160.61
375.91	2181.09
376.12	2246.62
376.34	2287.58
376.55	2158.56
376.77	2230.24
376.98	2101.22
377.19	2133.98
377.41	2168.80
377.62	2232.29
377.84	2240.48
378.05	2314.20
378.27	2144.22
378.48	2344.92
378.69	2379.74
378.91	2303.96
379.12	2287.58
379.34	2281.44
379.55	2279.39
379.76	2267.10
379.98	2252.77
380.19	2281.44
380.41	2267.10
380.62	2265.05
380.83	2271.20
381.05	2248.67
381.26	2392.03
381.47	2265.05
381.69	2273.25
381.90	2467.80
382.12	2414.56
382.33	2310.11
382.54	2299.87
382.76	2320.35
382.97	2285.53
383.19	2234.33
383.40	2387.93
383.61	2320.35
383.83	2340.83
384.04	2336.73
384.25	2340.83
384.47	2416.60
384.68	2338.78
384.89	2310.11
385.11	2320.35
385.32	2420.70
385.54	2338.78
385.75	2371.55
385.96	2424.80
386.18	2459.61
386.39	2461.66
386.60	2394.08
386.82	2346.97
387.03	2369.50
387.24	2478.04
387.46	2490.33
387.67	2469.85
387.88	2512.86
388.10	2471.90
388.31	2389.98
388.52	2611.16
388.74	2455.51
388.95	2529.24
389.16	2502.62
389.38	2447.32
389.59	2516.95
389.80	2611.16
390.02	2428.89
390.23	2699.22
390.44	2594.78
390.66	2539.48
390.87	2480.09
391.08	2611.16
391.30	2652.12
391.51	2613.21
391.72	2662.36
391.94	2650.07
392.15	2637.78
392.36	2611.16
392.58	2523.10
392.79	2693.08
393.00	2674.65
393.22	2643.93
393.43	2664.41
393.64	2811.86
393.85	2770.90
394.07	2605.02
394.28	2813.91
394.49	2742.23
394.71	2850.77
394.92	2934.74
395.13	2748.37
395.35	2697.17
395.56	2727.89
395.77	2731.99
395.98	2842.58
396.20	2760.66
396.41	2760.66
396.62	2840.53
396.84	2840.53
397.05	2828.24
397.26	2856.92
397.47	2959.31
397.69	2809.81
397.90	2990.03
398.11	3020.75
398.32	2955.22
398.54	2883.54
398.75	2934.74
398.96	2936.79
399.18	3030.99
399.39	2916.31
399.60	3006.42
399.81	2822.10
400.03	2996.18
400.24	3327.95
400.45	3076.05
400.66	3016.66
400.88	3024.85
401.09	3301.33
401.30	3178.45
401.51	3108.82
401.73	3190.74
401.94	3129.30
402.15	3168.21
402.36	3096.53
402.58	3362.76
402.79	3110.86
403.00	3108.82
403.21	3243.98
403.43	3254.22
403.64	3295.18
403.85	3053.52
404.06	3354.57
404.27	3190.74
404.49	3168.21
404.70	3198.93
404.91	3352.52
405.12	3305.42
405.34	3286.99
405.55	3452.88
405.76	3092.43
405.97	3289.04
406.19	3389.39
406.40	3305.42
406.61	3399.63
406.82	3352.52
407.03	3346.38
407.25	3305.42
407.46	3446.73
407.67	3385.29
407.88	3518.41
408.09	3317.71
408.31	3413.96
408.52	3370.96
408.73	3338.19
408.94	3424.20
409.15	3467.21
409.37	3504.07
409.58	3520.46
409.79	3542.99
410.00	3629.00
410.21	3479.50
410.43	3506.12
410.64	3514.31
410.85	3559.37
411.06	3575.75
411.27	3577.80
411.48	3590.09
411.70	3657.67
411.91	3547.08
412.12	3758.02
412.33	3649.48
412.54	3598.28
412.76	3698.63
412.97	3780.55
413.18	3547.08
413.39	3706.82
413.60	3723.21
413.81	3698.63
414.03	3743.69
414.24	3678.15
414.45	3866.56
414.66	3588.04
414.87	3792.84
415.08	3794.89
415.30	3737.54
415.51	3821.51
415.72	3788.74
415.93	3735.50
416.14	3893.19
416.35	3864.52
416.56	3850.18
416.78	3917.76
416.99	3946.44
417.20	3823.56
417.41	4036.55
417.62	3956.68
417.83	4020.16
418.04	3893.19
418.26	3956.68
418.47	4034.50
418.68	4077.51
418.89	3981.25
419.10	4085.70
419.31	3995.59
419.52	4077.51
419.73	3977.16
419.95	4110.27
420.16	4009.92
420.37	4126.66
420.58	4143.04
420.79	4026.31
421.00	4214.72
421.21	4257.73
421.42	4175.81
421.63	4214.72
421.85	4171.71
422.06	4249.54
422.27	4290.49
422.48	4198.34
422.69	4231.10
422.90	4243.39
423.11	4337.60
423.32	4280.25
423.53	4380.61
423.75	4313.02
423.96	4480.96
424.17	4317.12
424.38	4411.32
424.59	4401.08
424.80	4597.69
425.01	4448.19
425.22	4380.61
425.43	4509.63
425.64	4640.70
425.85	4612.03
426.06	4538.30
426.28	4634.55
426.49	4501.44
426.70	4480.96
426.91	4478.91
427.12	4667.32
427.33	4726.71
427.54	4714.42
427.75	4722.62
427.96	4841.40
428.17	4726.71
428.38	4833.21
428.59	4900.79
428.80	4790.20
429.01	4894.65
429.23	4751.29
429.44	5115.83
429.65	4943.80
429.86	4913.08
430.07	4839.35
430.28	4902.84
430.49	5015.48
430.70	5062.58
430.91	5101.49
431.12	5017.52
431.33	5300.14
431.54	5316.53
431.75	5132.21
431.96	5054.39
432.17	5101.49
432.38	5078.96
432.59	5316.53
432.80	5289.90
433.01	5447.60
433.22	5283.76
433.43	5246.90
433.64	5296.05
433.85	5197.74
434.06	5287.86
434.27	5187.50
434.49	5431.21
434.70	5363.63
434.91	5529.52
435.12	5568.43
435.33	5392.30
435.54	5410.73
435.75	5425.07
435.96	5431.21
436.17	5375.92
436.38	5529.52
436.59	5531.56
436.80	5629.87
437.01	5840.81
437.22	5754.79
437.43	5660.59
437.64	5451.69
437.85	5791.66
438.06	5590.95
438.27	5638.06
438.48	5769.13
438.69	5896.10
438.90	5775.27
439.11	5670.83
439.32	5930.92
439.53	5803.94
439.74	5838.76
439.95	5967.78
440.16	5926.82
440.37	5912.49
440.57	5797.80
440.78	5943.21
440.99	5920.68
441.20	5988.26
441.41	5808.04
441.62	6043.56
441.83	5779.37
442.04	6131.62
442.25	6078.37
442.46	6057.89
442.67	6162.34
442.88	6619.04
443.09	6041.51
443.30	6236.06
443.51	6258.59
443.72	6336.42
443.93	6205.35
444.14	6580.12
444.35	6184.87
444.56	6330.27
444.77	6279.07
444.98	6426.53
445.19	6268.83
445.40	6297.50
445.61	6393.76
445.81	6592.41
446.02	6578.08
446.23	6457.25
446.44	6186.91
446.65	6549.40
446.86	6475.68
447.07	6655.90
447.28	6782.87
447.49	6543.26
447.70	6477.73
447.91	6653.85
448.12	6604.70
448.33	6713.24
448.54	6786.97
448.74	6901.65
448.95	6836.12
449.16	6793.11
449.37	7069.59
449.58	6731.67
449.79	7153.55
450.00	6887.32
450.21	6963.09
450.42	6913.94
450.63	7020.44
450.84	6971.29
451.05	6989.72
451.25	7034.77
451.46	7108.50
451.67	7309.20
451.88	7135.12
452.09	7131.03
452.30	7051.16
452.51	7266.19
452.72	7206.80
452.93	7618.44
453.13	7198.61
453.34	7266.19
453.55	7384.98
453.76	7411.60
453.97	7640.97
454.18	7575.44
454.39	7649.16
454.60	7489.42
454.81	7557.00
455.01	7929.74
455.22	7458.70
455.43	7724.94
455.64	7946.12
455.85	7808.90
456.06	8189.83
456.27	7970.69
456.48	8005.51
456.68	7985.03
456.89	7886.73
457.10	7954.31
457.31	8165.25
457.52	8112.00
457.73	8101.76
457.94	8482.69
458.14	8175.49
458.35	8646.52
458.56	8324.99
458.77	8329.09
458.98	8564.61
459.19	8531.84
459.39	8374.14
459.60	8748.92
459.81	8365.95
460.02	8570.75
460.23	8626.04
460.44	8894.33
460.65	8910.71
460.85	8787.83
461.06	9015.16
461.27	8650.62
461.48	9078.65
461.69	9219.96
461.89	8640.38
462.10	9197.43
462.31	8970.10
462.52	9037.69
462.73	9199.48
462.94	9457.52
463.14	9248.63
463.35	9291.63
463.56	9586.54
463.77	9426.80
463.98	9408.37
464.18	9516.91
464.39	9621.36
464.60	9727.85
464.81	9764.72
465.02	9953.13
465.23	10045.29
465.43	9731.95
465.64	10039.14
465.85	10016.62
466.06	9908.07
466.27	10340.19
466.47	10243.94
466.68	10090.34
466.89	10227.56
467.10	10444.64
467.30	10172.26
467.51	10485.60
467.72	10612.57
467.93	10137.45
468.14	10565.47
468.34	10987.35
468.55	10631.01
468.76	10889.05
468.97	10686.30
469.17	10823.51
469.38	11173.72
469.59	11028.31
469.80	10839.90
470.01	11188.05
470.21	11145.05
470.42	11421.52
470.63	11480.91
470.84	11280.21
471.04	11626.32
471.25	11464.53
471.46	11583.31
471.67	11870.03
471.87	11626.32
472.08	11845.45
472.29	12240.71
472.50	11575.12
472.70	11880.27
472.91	11865.93
473.12	12203.85
473.33	12240.71
473.53	12529.47
473.74	12162.89
473.95	12302.15
474.16	12558.14
474.36	12627.78
474.57	12797.76
474.78	12988.22
474.99	12758.85
475.19	12660.54
475.40	12881.72
475.61	13428.53
475.81	13256.50
476.02	13436.72
476.23	13178.68
476.44	13291.32
476.64	13741.87
476.85	13600.56
477.06	13678.38
477.27	14151.46
477.47	14202.66
477.68	13895.47
477.89	14210.86
478.09	13993.77
478.30	14339.88
478.51	14368.55
478.71	14444.32
478.92	14716.70
479.13	14651.17
479.34	14665.50
479.54	14739.23
479.75	14597.92
479.96	14941.98
480.16	14776.09
480.37	14962.46
480.58	15036.19
480.78	15519.51
480.99	15335.19
481.20	15380.25
481.41	15468.31
481.61	15423.25
481.82	15542.03
482.03	15681.30
482.23	15744.78
482.44	15877.90
482.65	16424.71
482.85	16162.57
483.06	16195.34
483.27	16099.08
483.47	16226.06
483.68	16242.44
483.89	16815.87
484.09	16676.61
484.30	16697.09
484.51	16836.35
484.71	16858.88
484.92	16928.51
485.13	17354.49
485.33	17176.31
485.54	17258.23
485.75	17381.11
485.95	17596.15
486.16	17430.26
486.37	17614.58
486.57	17819.38
486.78	17594.10
486.98	17893.10
487.19	18130.67
487.40	18036.46
487.60	18018.03
487.81	18255.59
488.02	18378.47
488.22	18327.27
488.43	18564.84
488.64	18581.22
488.84	18452.20
489.05	18720.48
489.25	18599.65
489.46	18777.83
489.67	18849.50
489.87	18931.42
490.08	19179.23
490.29	19187.42
490.49	19572.44
490.70	19422.94
490.90	19578.58
491.11	19506.90
491.32	19672.79
491.52	19529.43
491.73	19680.98
491.94	19912.40
492.14	19816.15
492.35	20098.77
492.55	20061.90
492.76	20336.33
492.97	20453.06
493.17	20158.16
493.38	20444.87
493.58	20717.25
493.79	20719.30
494.00	20553.41
494.20	20547.27
494.41	20874.95
494.61	20891.33
494.82	21059.26
495.02	20752.07
495.23	21104.32
495.44	21300.92
495.64	21456.57
495.85	21675.70
496.05	21528.25
496.26	21237.44
496.47	21663.41
496.67	21728.95
496.88	22144.69
497.08	21827.25
497.29	22058.67
497.49	21831.35
497.70	22030.00
497.91	22048.43
498.11	22148.78
498.32	22369.96
498.52	22636.20
498.73	22496.94
498.93	22763.17
499.14	22845.09
499.34	22963.87
499.55	22619.81
499.76	22767.27
499.96	22834.85
500.17	23047.84
500.37	23088.80
500.58	23109.28
500.78	22990.50
500.99	23238.30
501.19	23580.31
501.40	23451.29
501.60	23172.77
501.81	23627.42
502.02	23492.25
502.22	23346.84
502.43	23713.43
502.63	24084.11
502.84	23846.55
503.04	23907.99
503.25	24131.22
503.45	24272.53
503.66	24227.47
503.86	23969.43
504.07	24284.81
504.27	24192.65
504.48	24747.65
504.68	24546.95
504.89	24802.95
505.09	24845.96
505.30	24647.30
505.50	24968.84
505.71	24794.76
505.91	24864.39
506.12	25052.80
506.32	24968.84
506.53	25065.09
506.73	25300.61
506.94	25489.02
507.14	25040.51
507.35	25052.80
507.55	25525.88
507.76	25448.06
507.96	25292.41
508.17	25456.25
508.37	25646.71
508.58	25896.56
508.78	25831.03
508.99	25894.52
509.19	26009.20
509.40	26093.17
509.60	26138.23
509.81	26125.94
510.01	26084.98
510.22	26187.38
510.42	25974.39
510.63	26525.29
510.83	26383.98
511.04	26539.63
511.24	26621.55
511.44	26371.69
511.65	26666.60
511.85	26500.72
512.06	26771.05
512.26	27014.76
512.47	27104.87
512.67	27199.07
512.88	27260.51
513.08	26879.59
513.29	27344.48
513.49	26812.01
513.69	27092.58
513.90	27395.68
514.10	27184.74
514.31	27256.42
514.51	27407.97
514.72	27618.91
514.92	27590.24
515.13	27393.63
515.33	27805.27
515.53	27694.68
515.74	27838.04
515.94	27858.52
516.15	27756.12
516.35	27711.07
516.56	28290.64
516.76	27866.71
516.96	28206.67
517.17	28468.81
517.37	28208.72
517.58	28245.58
517.78	28567.12
517.99	28517.96
518.19	28593.74
518.39	28724.81
518.60	28636.75
518.80	28614.22
519.01	29275.71
519.21	28806.73
519.41	29124.16
519.62	28841.54
519.82	29625.92
520.03	29527.61
520.23	29414.98
520.43	29062.72
520.64	29867.58
520.84	29546.05
521.05	29668.92
521.25	29910.58
521.45	29877.82
521.66	29890.10
521.86	29957.69
522.07	29865.53
522.27	30004.79
522.47	30363.18
522.68	30578.22
522.88	30197.30
523.08	30762.54
523.29	30598.70
523.49	30565.93
523.70	31008.29
523.90	30789.16
524.10	30776.87
524.31	30948.90
524.51	30438.96
524.71	31053.35
524.92	31073.83
525.12	31165.99
525.33	31133.22
525.53	31333.92
525.73	31888.92
525.94	31800.86
526.14	31710.75
526.34	31860.25
526.55	31807.00
526.75	32128.53
526.95	32067.09
527.16	32077.33
527.36	32034.33
527.56	32239.12
527.77	32564.75
527.97	32626.19
528.17	32478.74
528.38	32888.33
528.58	32902.67
528.78	32992.78
528.99	32792.08
529.19	32908.81
529.39	32763.40
529.60	33039.88
529.80	33506.82
530.00	33058.31
530.21	33486.34
530.41	33885.69
530.61	33705.47
530.82	33742.33
531.02	33594.88
531.22	34123.26
531.43	34065.91
531.63	34403.83
531.83	34283.00
532.04	34616.82
532.24	34518.51
532.44	34905.58
532.64	34719.21
532.85	35165.67
533.05	34897.39
533.25	35163.62
533.46	35026.41
533.66	35665.38
533.86	34958.83
534.07	35933.66
534.27	35560.93
534.47	35749.34
534.67	35890.65
534.88	35911.13
535.08	35763.68
535.28	36040.15
535.49	36023.77
535.69	36349.40
535.89	36419.03
536.09	36546.00
536.30	36531.67
536.50	36570.58
536.70	36928.97
536.91	36857.29
537.11	37174.73
537.31	37174.73
537.51	37129.67
537.72	36859.34
537.92	37582.27
538.12	37946.81
538.32	36912.59
538.53	37492.16
538.73	37209.54
538.93	37400.01
539.13	37631.43
539.34	37729.73
539.54	37842.37
539.74	38110.65
539.94	37854.65
540.15	37850.56
540.35	38245.82
540.55	37891.52
540.75	38143.42
540.96	38553.01
541.16	38479.28
541.36	38639.03
541.56	38514.10
541.77	39140.78
541.97	38690.23
542.17	38495.67
542.37	39181.74
542.58	39019.95
542.78	39003.56
542.98	38653.36
543.18	39280.04
543.38	39603.62
543.59	39759.27
543.79	39495.08
543.99	39237.03
544.19	39577.00
544.40	39650.72
544.60	39767.46
544.80	39785.89
545.00	39581.09
545.20	39925.15
545.41	39771.55
545.61	39980.45
545.81	40584.60
546.01	40328.60
546.21	40250.78
546.42	40070.56
546.62	40578.45
546.82	39988.64
547.02	40461.72
547.22	40609.17
547.43	40363.42
547.63	40412.57
547.83	40842.64
548.03	40439.19
548.23	40889.74
548.44	40766.87
548.64	40764.82
548.84	40574.36
549.04	41043.34
549.24	41016.72
549.45	41454.98
549.65	40854.93
549.85	41325.96
550.05	41565.57
550.25	41158.03
550.45	41729.41
550.66	41315.72
550.86	41647.49
551.06	41821.57
551.26	41289.10
551.46	41434.50
551.66	41526.66
551.87	41530.76
552.07	41799.04
552.27	41487.75
552.47	41905.54
552.67	42009.98
552.87	42108.29
553.07	42134.91
553.28	42089.85
553.48	42220.92
553.68	41895.30
553.88	42517.88
554.08	41979.26
554.28	42132.86
554.48	42091.90
554.69	42349.95
554.89	41821.57
555.09	42218.88
555.29	42483.06
555.49	42532.22
555.69	42098.05
555.89	42231.16
556.10	42628.47
556.30	42343.80
556.50	42532.22
556.70	42438.01
556.90	42741.11
557.10	42857.84
557.30	42046.85
557.50	42542.45
557.70	42673.52
557.91	42945.90
558.11	42540.41
558.31	42917.23
558.51	42999.15
558.71	42978.67
558.91	43162.99
559.11	42956.14
559.31	42710.39
559.51	42794.36
559.72	43226.48
559.92	42825.07
560.12	43095.41
560.32	43179.37
560.52	42669.43
560.72	43283.82
560.92	43162.99
561.12	43115.89
561.32	43308.40
561.52	43601.25
561.72	43670.89
561.93	43210.09
562.13	43523.43
562.33	43318.64
562.53	43734.37
562.73	43496.81
562.93	43171.18
563.13	43545.96
563.33	43611.49
563.53	43838.82
563.73	42945.90
563.93	43613.54
564.13	44053.86
564.33	43611.49
564.53	43677.03
564.74	44012.90
564.94	43693.41
565.14	43726.18
565.34	43609.45
565.54	43488.62
565.74	43722.08
565.94	44555.61
566.14	43679.08
566.34	44174.69
566.54	44412.25
566.74	43947.36
566.94	44254.56
567.14	44057.95
567.34	43763.04
567.54	44406.11
567.74	44459.35
567.94	43767.14
568.14	44176.73
568.34	44080.48
568.54	44545.37
568.74	44320.09
568.94	44152.16
569.14	44784.98
569.34	44238.17
569.54	44502.36
569.75	44275.04
569.95	44338.52
570.15	44997.97
570.35	44383.58
570.55	44612.95
570.75	44711.25
570.95	44287.32
571.15	44604.76
571.35	45071.70
571.55	45194.57
571.75	44936.53
571.95	45223.25
572.15	44625.24
572.35	44760.40
572.55	45028.69
572.75	44934.48
572.95	44967.25
573.15	45192.53
573.35	45106.51
573.55	44924.24
573.75	44940.63
573.95	45098.32
574.15	45098.32
574.35	45223.25
574.55	44973.39
574.75	44895.57
574.95	45372.75
575.15	45106.51
575.34	45352.27
575.54	45702.47
575.74	45626.70
575.94	45710.66
576.14	45456.71
576.34	46171.46
576.54	46032.19
576.74	45858.12
576.94	45911.36
577.14	46269.76
577.34	46114.11
577.54	45751.62
577.74	45704.52
577.94	45892.93
578.14	45858.12
578.34	46130.50
578.54	45845.83
578.74	46124.35
578.94	46312.77
579.14	45917.51
579.34	46138.69
579.54	46724.41
579.74	46347.58
579.94	46611.77
580.13	46359.87
580.33	46638.39
580.53	46636.34
580.73	46804.28
580.93	46853.43
581.13	46505.27
581.33	46998.83
581.53	46916.92
581.73	46904.63
581.93	47234.35
582.13	47015.22
582.33	47215.92
582.53	46994.74
582.73	47330.61
582.92	47156.53
583.12	47445.29
583.32	47283.50
583.52	46533.95
583.72	47787.30
583.92	47281.45
584.12	47510.83
584.32	47920.42
584.52	47645.99
584.72	47691.05
584.92	47756.58
585.11	48217.38
585.31	47711.53
585.51	47762.73
585.71	47486.25
585.91	48076.07
586.11	47928.61
586.31	47852.84
586.51	48143.65
586.71	48258.34
586.91	48391.45
587.10	47988.00
587.30	48440.60
587.50	48059.68
587.70	48379.17
587.90	48483.61
588.10	48528.67
588.30	48485.66
588.50	48751.90
588.69	48745.75
588.89	48600.35
589.09	48440.60
589.29	48805.14
589.49	48946.45
589.69	48344.35
589.89	48921.88
590.08	48915.73
590.28	49243.41
590.48	48313.63
590.68	48229.66
590.88	48905.49
591.08	48928.02
591.28	49196.31
591.47	49599.76
591.67	49372.43
591.87	49042.71
592.07	49392.91
592.27	49460.49
592.47	48993.56
592.67	49382.67
592.86	49138.96
593.06	49474.83
593.26	49626.38
593.46	49837.32
593.66	49665.29
593.86	50044.16
594.05	49902.85
594.25	50201.86
594.45	49960.20
594.65	49927.43
594.85	49458.45
595.05	50261.25
595.24	50437.37
595.44	50136.32
595.64	50134.28
595.84	50138.37
596.04	50152.71
596.23	50724.09
596.43	50445.57
596.63	50545.92
596.83	50851.06
597.03	50787.58
597.22	51143.92
597.42	50631.93
597.62	50996.47
597.82	50828.54
598.02	50593.02
598.21	51576.04
598.41	50568.44
598.61	51008.76
598.81	51074.29
599.01	51064.05
599.20	50969.85
599.40	50785.53
599.60	51410.16
599.80	51836.14
600.00	51522.80
600.19	51877.10
600.39	51479.79
600.59	51725.55
600.79	51557.61
600.98	51651.82
601.18	51823.85
601.38	51660.01
601.58	51727.59
601.78	52260.07
601.97	51942.63
602.17	52421.86
602.37	51842.28
602.57	52122.85
602.76	52534.49
602.96	52241.63
603.16	52370.66
603.36	52417.76
603.55	53030.10
603.75	52339.94
603.95	52647.13
604.15	52851.93
604.34	52743.39
604.54	53163.22
604.74	52630.75
604.94	53058.77
605.13	53578.96
605.33	53232.85
605.53	52489.44
605.73	53179.60
605.92	53134.55
606.12	53591.25
606.32	53519.57
606.52	53290.19
606.71	53501.14
606.91	54097.09
607.11	53705.93
607.30	53546.19
607.50	53646.54
607.70	54107.33
607.90	53662.93
608.09	54140.10
608.29	53777.61
608.49	54013.13
608.68	53746.89
608.88	54285.51
609.08	54076.61
609.28	54068.42
609.47	53884.11
609.67	54439.11
609.87	54129.86
610.06	54342.85
610.26	54303.94
610.46	54293.70
610.66	54150.34
610.85	54346.95
611.05	54021.32
611.25	54271.17
611.44	54310.08
611.64	54602.94
611.84	54260.93
612.03	54379.71
612.23	54789.31
612.43	54664.38
612.62	54373.57
612.82	54717.63
613.02	55096.50
613.21	54645.95
613.41	54850.75
613.61	54785.21
613.80	54772.92
614.00	55076.02
614.20	55188.66
614.39	55153.85
614.59	55063.74
614.79	55096.50
614.98	54881.47
615.18	54777.02
615.38	55219.38
615.57	54637.76
615.77	55372.98
615.97	55055.54
616.16	54772.92
616.36	55465.14
616.56	55493.81
616.75	55424.18
616.95	54869.18
617.15	54949.05
617.34	54875.32
617.54	55133.37
617.74	55364.79
617.93	55178.42
618.13	55178.42
618.32	55235.77
618.52	55026.87
618.72	55084.22
618.91	55227.57
619.11	55192.76
619.31	55362.74
619.50	55047.35
619.70	55383.22
619.90	55039.16
620.09	55399.60
620.29	55377.08
620.48	55194.81
620.68	55755.95
620.88	54731.96
621.07	55614.64
621.27	55438.51
621.46	55291.06
621.66	55194.81
621.86	55278.77
622.05	55229.62
622.25	55645.36
622.44	55422.13
622.64	55252.15
622.84	55852.20
623.03	55188.66
623.23	55227.57
623.42	55538.86
623.62	55878.83
623.82	55827.63
624.01	55315.64
624.21	55276.72
624.40	55612.59
624.60	55815.34
624.80	55264.44
624.99	55444.66
625.19	55346.36
625.38	55553.20
625.58	55788.72
625.77	55522.48
625.97	55317.68
626.17	55426.23
626.36	55596.21
626.56	56112.30
626.75	55471.28
626.95	55942.31
627.14	55358.64
627.34	55874.73
627.54	55375.03
627.73	55878.83
627.93	55813.29
628.12	55143.61
628.32	55710.89
628.51	55837.87
628.71	55700.65
628.90	55442.61
629.10	55686.32
629.30	55686.32
629.49	55622.83
629.69	55714.99
629.88	56083.62
630.08	56257.70
630.27	56235.17
630.47	55962.79
630.66	55223.48
630.86	55934.12
631.05	55612.59
631.25	56048.81
631.44	55817.39
631.64	56112.30
631.84	56345.76
632.03	56136.87
632.23	56134.82
632.42	56628.38
632.62	55866.54
632.81	55909.55
633.01	55911.59
633.20	56360.10
633.40	55895.21
633.59	56407.20
633.79	55583.92
633.98	56237.22
634.18	56468.64
634.37	56194.21
634.57	55944.36
634.76	56343.72
634.96	56439.97
635.15	56181.93
635.35	55915.69
635.54	55977.13
635.74	56763.55
635.93	56052.90
636.13	56646.82
636.32	56738.97
636.52	56097.96
636.71	56466.59
636.91	56403.11
637.10	56343.72
637.30	56181.93
637.49	56302.76
637.69	56054.95
637.88	56382.63
638.08	55762.09
638.27	56622.24
638.46	56472.74
638.66	55975.08
638.85	56226.98
639.05	56581.28
639.24	56419.49
639.44	56112.30
639.63	56413.35
639.83	56591.52
640.02	56290.47
640.22	56097.96
640.41	56831.13
640.61	56132.78
640.80	56816.80
640.99	56452.26
641.19	56990.87
641.38	56675.49
641.58	56237.22
641.77	56706.21
641.97	56315.04
642.16	56804.51
642.36	56423.59
642.55	57742.48
642.74	56747.17
642.94	57285.78
643.13	56732.83
643.33	56980.63
643.52	57128.09
643.72	57265.30
643.91	56919.20
644.10	57136.28
644.30	57136.28
644.49	56595.62
644.69	56956.06
644.88	57005.21
645.08	56681.63
645.27	56861.85
645.46	56612.00
645.66	57302.17
645.85	56679.58
646.05	57222.29
646.24	57267.35
646.43	57058.46
646.63	57443.48
646.82	57384.08
647.02	57177.24
647.21	57476.24
647.40	57105.56
647.60	57531.54
647.79	57226.39
647.99	57570.45
648.18	57291.93
648.37	57740.43
648.57	57373.84
648.76	57558.16
648.96	57048.22
649.15	57611.41
649.34	57767.05
649.54	57201.82
649.73	57304.21
649.92	57138.33
650.12	57318.55
650.31	57476.24
650.51	57496.72
650.70	57709.71
650.89	57592.98
651.09	58285.19
651.28	57654.42
651.47	57894.03
651.67	57500.82
651.86	58152.07
652.06	56874.14
652.25	57822.35
652.44	57234.58
652.64	57115.80
652.83	57433.24
653.02	57543.83
653.22	57822.35
653.41	57500.82
653.60	57291.93
653.80	57756.81
653.99	57668.75
654.18	57535.63
654.38	57582.74
654.57	57371.80
654.76	57394.32
654.96	57504.91
655.15	57468.05
655.34	57306.26
655.54	57169.05
655.73	57418.90
655.92	58135.69
656.12	57898.12
656.31	57611.41
656.50	57812.11
656.70	57336.98
656.89	57379.99
657.08	57898.12
657.28	57379.99
657.47	57765.01
657.66	58119.31
657.86	57578.64
658.05	57576.59
658.24	57801.87
658.43	57564.31
658.63	57812.11
658.82	57775.25
659.01	57701.52
659.21	57851.02
659.40	57937.04
659.59	57074.84
659.79	57873.55
659.98	57570.45
660.17	58061.96
660.36	57846.93
660.56	57560.21
660.75	58113.16
660.94	58221.70
661.14	57334.93
661.33	57900.17
661.52	57334.93
661.71	57984.14
661.91	57099.42
662.10	57375.89
662.29	57701.52
662.49	57545.87
662.68	57816.21
662.87	57980.04
663.06	57779.34
663.26	57640.08
663.45	57695.38
663.64	57660.56
663.83	58356.87
664.03	58043.53
664.22	57625.74
664.41	57308.31
664.60	57408.66
664.80	57855.12
664.99	57592.98
665.18	57408.66
665.37	57525.39
665.57	57545.87
665.76	57709.71
665.95	57805.97
666.14	57582.74
666.34	57595.03
666.53	57210.01
666.72	57064.60
666.91	57228.44
667.11	57412.76
667.30	57678.99
667.49	57357.46
667.68	57353.36
667.87	57517.20
668.07	57994.38
668.26	57531.54
668.45	57603.22
668.64	57095.32
668.84	57877.64
669.03	57754.77
669.22	57330.84
669.41	57943.18
669.60	57402.52
669.80	57388.18
669.99	57238.68
670.18	57668.75
670.37	57244.82
670.57	58117.26
670.76	57107.61
670.95	57660.56
671.14	57306.26
671.33	57107.61
671.53	57552.02
671.72	57629.84
671.91	57062.55
672.10	57382.04
672.29	56980.63
672.48	57271.45
672.68	57611.41
672.87	57379.99
673.06	56734.88
673.25	56681.63
673.44	56792.22
673.64	56859.80
673.83	56753.31
674.02	56878.24
674.21	56403.11
674.40	57191.58
674.59	56968.35
674.79	56712.35
674.98	57107.61
675.17	57136.28
675.36	56509.60
675.55	56927.39
675.74	56542.37
675.94	56620.19
676.13	56835.23
676.32	56698.01
676.51	57332.89
676.70	56892.57
676.89	56702.11
677.08	57195.67
677.28	56452.26
677.47	57031.83
677.66	56857.76
677.85	56722.59
678.04	56786.08
678.23	57171.10
678.42	56941.72
678.62	56935.58
678.81	57097.37
679.00	56954.01
679.19	57814.16
679.38	56661.15
679.57	56534.18
679.76	57138.33
679.96	56849.56
680.15	56628.38
680.34	56562.85
680.53	56399.01
680.72	56650.91
680.91	56603.81
681.10	56587.42
681.29	56759.45
681.48	56194.21
681.68	56050.86
681.87	56333.48
682.06	56370.34
682.25	55747.76
682.44	55874.73
682.63	56046.76
682.82	55899.31
683.01	56083.62
683.20	56161.45
683.39	56251.56
683.59	55801.00
683.78	55919.79
683.97	56120.49
684.16	56130.73
684.35	55579.82
684.54	55966.89
684.73	55860.40
684.92	56034.47
685.11	55588.02
685.30	55776.43
685.49	56054.95
685.69	55594.16
685.88	56149.16
686.07	55588.02
686.26	55919.79
686.45	55979.18
686.64	55966.89
686.83	55497.91
687.02	55575.73
687.21	56077.48
687.40	55850.16
687.59	55610.54
687.78	55475.38
687.97	55743.66
688.16	55518.38
688.35	55874.73
688.54	55487.67
688.74	55465.14
688.93	55542.96
689.12	55114.94
689.31	55223.48
689.50	55440.56
689.69	54613.18
689.88	54734.01
690.07	55235.77
690.26	54860.99
690.45	55526.58
690.64	55121.08
690.83	55014.58
691.02	54998.20
691.21	54992.06
691.40	54899.90
691.59	54772.92
691.78	55127.22
691.97	54998.20
692.16	54887.61
692.35	54910.14
692.54	54992.06
692.73	54760.64
692.92	54793.40
693.11	54838.46
693.30	54920.38
693.49	54516.93
693.68	54508.74
693.87	54662.33
694.06	54043.85
694.25	54305.99
694.44	54473.92
694.63	54602.94
694.82	54973.63
695.01	54486.21
695.20	54465.73
695.39	54260.93
695.58	54406.34
695.77	53538.00
695.96	54023.37
696.15	54105.29
696.34	54068.42
696.53	54183.11
696.72	54609.09
696.91	53843.15
697.10	54090.95
697.29	53841.10
697.48	54846.65
697.67	53748.94
697.86	53949.64
698.05	53880.01
698.24	54074.57
698.43	53589.20
698.62	54168.77
698.81	53791.95
699.00	54543.55
699.19	53505.23
699.38	54176.97
699.57	53224.66
699.76	54328.52
699.95	53531.86
700.14	53484.75
700.32	53613.77
700.51	53519.57
700.70	53959.88
700.89	53785.80
701.08	53494.99
701.27	53382.35
701.46	53677.26
701.65	52819.16
701.84	53325.01
702.03	52962.52
702.22	53245.14
702.41	53384.40
702.60	53253.33
702.79	53015.77
702.98	53171.41
703.17	52640.99
703.35	53241.04
703.54	52825.31
703.73	53402.83
703.92	52985.05
704.11	52903.13
704.30	52837.59
704.49	52638.94
704.68	52727.00
704.87	52442.34
705.06	52866.27
705.25	52251.87
705.43	52303.07
705.62	52645.08
705.81	53007.58
706.00	52835.55
706.19	52436.19
706.38	52372.70
706.57	52464.86
706.76	52063.46
706.95	52550.88
707.14	52559.07
707.32	52057.32
707.51	51967.21
707.70	51877.10
707.89	52745.44
708.08	52595.93
708.27	52589.79
708.46	52339.94
708.65	51883.24
708.84	52143.33
709.02	52401.38
709.21	52075.75
709.40	52319.46
709.59	51860.71
709.78	51518.70
709.97	52524.25
710.16	51522.80
710.34	51692.78
710.53	51754.22
710.72	51664.11
710.91	51492.08
711.10	51774.70
711.29	51991.78
711.48	51741.93
711.66	51551.47
711.85	51412.21
712.04	51811.56
712.23	51549.42
712.42	51502.32
712.61	51870.95
712.80	51162.36
712.98	51229.94
713.17	51207.41
713.36	51195.12
713.55	51305.71
713.74	51250.42
713.93	51092.72
714.11	51158.26
714.30	51373.30
714.49	51098.87
714.68	51397.87
714.87	51021.05
715.06	51283.19
715.24	51287.28
715.43	50846.97
715.62	50605.31
715.81	50722.04
716.00	50797.82
716.18	50365.70
716.37	50732.28
716.56	50451.71
716.75	50674.94
716.94	50629.88
717.12	50341.12
717.31	50922.74
717.50	50552.06
717.69	50449.66
717.88	50316.54
718.06	50765.05
718.25	50507.01
718.44	50255.11
718.63	50167.04
718.82	50451.71
719.00	50631.93
719.19	50177.28
719.38	50568.44
719.57	50052.36
719.76	49978.63
719.94	49820.94
720.13	49470.73
720.32	49878.28
720.51	49665.29
720.69	49569.04
720.88	49321.23
721.07	49620.23
721.26	49169.68
721.44	49157.39
721.63	49394.96
721.82	49075.48
722.01	49278.22
722.20	49333.52
722.38	49278.22
722.57	48880.92
722.76	49333.52
722.95	48766.23
723.13	48995.60
723.32	48688.41
723.51	48672.03
723.70	48657.69
723.88	48966.93
724.07	48663.83
724.26	48823.58
724.44	48348.45
724.63	48993.56
724.82	48598.30
725.01	48751.90
725.19	48375.07
725.38	48616.73
725.57	48094.50
725.76	48966.93
725.94	48221.47
726.13	48405.79
726.32	48348.45
726.51	48301.34
726.69	48428.32
726.88	48252.19
727.07	48362.78
727.25	48244.00
727.44	48223.52
727.63	48487.71
727.82	47834.41
728.00	48053.54
728.19	48334.11
728.38	48211.23
728.56	47879.46
728.75	48381.21
728.94	47863.08
729.12	48442.65
729.31	48153.89
729.50	47840.55
729.69	48758.04
729.87	47990.05
730.06	47846.69
730.25	48246.05
730.43	48313.63
730.62	47856.93
730.81	48495.90
730.99	47803.69
731.18	48067.87
731.37	47996.20
731.55	48198.94
731.74	48209.18
731.93	48381.21
732.11	48047.39
732.30	48184.61
732.49	47959.33
732.67	48096.55
732.86	47945.00
733.05	48340.25
733.23	47848.74
733.42	47695.14
733.61	47945.00
733.79	48094.50
733.98	47957.28
734.17	47889.70
734.35	48289.06
734.54	47772.97
734.73	48002.34
734.91	48010.53
735.10	47693.10
735.29	48061.73
735.47	47547.69
735.66	48112.93
735.84	47863.08
736.03	47504.68
736.22	47772.97
736.40	47768.87
736.59	47912.23
736.78	47910.18
736.96	46982.45
737.15	47500.59
737.33	47582.51
737.52	47211.82
737.71	47277.36
737.89	47228.21
738.08	47025.46
738.27	47072.56
738.45	48039.20
738.64	47617.32
738.82	47320.37
739.01	47406.38
739.20	47103.28
739.38	47150.38
739.57	47433.00
739.75	47568.17
739.94	47056.18
740.13	47109.43
740.31	47172.91
740.50	47260.97
740.68	47217.97
740.87	47215.92
741.06	47545.64
741.24	47027.51
741.43	47056.18
741.61	46966.07
741.80	47054.13
741.99	46843.19
742.17	46976.31
742.36	47101.23
742.54	46947.64
742.73	47351.09
742.91	47160.62
743.10	46785.85
743.29	46929.20
743.47	47097.14
743.66	46921.01
743.84	46605.62
744.03	46724.41
744.21	46708.02
744.40	46630.20
744.59	46986.55
744.77	46310.72
744.96	46681.40
745.14	46947.64
745.33	46800.18
745.51	46871.86
745.70	46716.22
745.88	46353.72
746.07	46712.12
746.26	46288.19
746.44	46230.85
746.63	46341.44
746.81	46329.15
747.00	46130.50
747.18	46304.57
747.37	46550.33
747.55	46638.39
747.74	46583.10
747.92	46040.39
748.11	46464.32
748.29	46015.81
748.48	46650.68
748.66	46148.93
748.85	45911.36
749.03	45890.88
749.22	46046.53
749.41	45837.64
749.59	46185.79
749.78	46105.92
749.96	45489.48
750.15	45745.48
750.33	45917.51
750.52	45534.54
750.70	45874.50
750.89	45716.81
751.07	45473.10
751.26	45892.93
751.44	46169.41
751.63	45456.71
751.81	45389.13
752.00	44895.57
752.18	46003.52
752.37	45659.46
752.55	45450.57
752.74	45608.26
752.92	45299.02
753.10	45106.51
753.29	45176.14
753.47	45303.12
753.66	45368.65
753.84	45516.11
754.03	45165.90
754.21	44774.74
754.40	44789.08
754.58	45272.40
754.77	45294.92
754.95	44954.96
755.14	45067.60
755.32	44979.54
755.51	44717.40
755.69	44504.41
755.88	44664.15
756.06	45028.69
756.24	45217.10
756.43	44715.35
756.61	45036.88
756.80	44359.00
756.98	44522.84
757.17	44934.48
757.35	44750.17
757.54	44682.58
757.72	44717.40
757.90	44686.68
758.09	44567.90
758.27	44653.91
758.46	44244.32
758.64	44676.44
758.83	44916.05
759.01	44178.78
759.19	44350.81
759.38	44201.31
759.56	44739.93
759.75	44545.37
759.93	44279.13
760.12	44047.71
760.30	44285.28
760.48	44817.75
760.67	44344.67
760.85	44064.10
761.04	44215.65
761.22	44012.90
761.40	44160.35
761.59	43779.43
761.77	43619.69
761.96	43859.30
762.14	44053.86
762.32	43744.61
762.51	43400.55
762.69	43672.93
762.88	43654.50
763.06	44006.75
763.24	43812.20
763.43	43904.35
763.61	43545.96
763.80	43642.21
763.98	43455.85
764.16	43705.70
764.35	43230.57
764.53	43156.85
764.72	43275.63
764.90	43167.09
765.08	43605.35
765.27	43597.16
765.45	42784.12
765.63	42691.96
765.82	43410.79
766.00	42698.10
766.18	42849.65
766.37	43271.53
766.55	43119.98
766.74	43337.07
766.92	43146.61
767.10	42980.72
767.29	42773.88
767.47	42274.17
767.65	43124.08
767.84	42425.72
768.02	42665.33
768.20	42212.73
768.39	42444.15
768.57	42851.70
768.75	42366.33
768.94	42931.57
769.12	42532.22
769.30	42096.00
769.49	42560.89
769.67	42030.46
769.85	42212.73
770.04	42171.77
770.22	42036.61
770.40	42276.22
770.59	41633.16
770.77	42542.45
770.95	42298.75
771.14	41895.30
771.32	41694.60
771.50	41520.52
771.69	41971.07
771.87	42034.56
772.05	41684.36
772.24	41559.43
772.42	41641.35
772.60	41545.09
772.78	41473.42
772.97	41520.52
773.15	41629.06
773.33	41596.29
773.52	41557.38
773.70	41647.49
773.88	41416.07
774.07	41268.62
774.25	41127.31
774.43	41532.81
774.61	41176.46
774.80	41743.75
774.98	41526.66
775.16	41633.16
775.34	41268.62
775.53	41112.97
775.71	41364.87
775.89	41590.15
776.08	41618.82
776.26	41729.41
776.44	41401.74
776.62	41268.62
776.81	41579.91
776.99	41915.78
777.17	41723.27
777.35	41801.09
777.54	41909.63
777.72	41225.61
777.90	41833.86
778.08	41776.51
778.27	41756.03
778.45	42188.16
778.63	41952.64
778.81	41753.99
779.00	42407.29
779.18	42153.34
779.36	42370.43
779.54	41620.87
779.73	41870.72
779.91	42552.69
780.09	42157.44
780.27	42767.73
780.46	42067.33
780.64	42259.84
780.82	42132.86
781.00	42122.62
781.19	42638.71
781.37	42708.34
781.55	42235.26
781.73	42890.61
781.91	42708.34
782.10	42691.96
782.28	42478.97
782.46	42491.26
782.64	42222.97
782.82	42102.14
783.01	42935.66
783.19	42739.06
783.37	42579.32
783.55	42524.02
783.74	42665.33
783.92	42548.60
784.10	42962.29
784.28	42751.35
784.46	42532.22
784.64	42560.89
784.83	42538.36
785.01	42419.58
785.19	42612.09
785.37	42851.70
785.55	42587.51
785.74	42362.23
785.92	42583.41
786.10	42345.85
786.28	42173.82
786.46	42212.73
786.64	42096.00
786.83	42458.49
787.01	42245.50
787.19	41997.70
787.37	42292.60
787.55	42450.30
787.74	42173.82
787.92	42022.27
788.10	42079.61
788.28	41561.48
788.46	42304.89
788.64	42116.48
788.82	42548.60
789.01	41753.99
789.19	42061.18
789.37	42292.60
789.55	42069.37
789.73	41180.56
789.91	41504.13
790.09	41700.74
790.28	41389.45
790.46	41346.44
790.64	41416.07
790.82	41344.39
791.00	41325.96
791.18	41278.86
791.36	41274.76
791.55	41106.83
791.73	41026.96
791.91	40959.38
792.09	40875.41
792.27	40727.95
792.45	40768.91
792.63	40541.59
792.81	40535.45
793.00	40680.85
793.18	40592.79
793.36	40789.39
793.54	40261.02
793.72	40056.22
793.90	40175.00
794.08	39726.50
794.26	40357.27
794.44	39755.17
794.62	39828.90
794.81	39759.27
794.99	39693.73
795.17	39974.30
795.35	39550.37
795.53	39634.34
795.71	39603.62
795.89	39253.42
796.07	39226.79
796.25	39091.63
796.43	38852.02
796.61	38569.40
796.80	39134.63
796.98	38888.88
797.16	38704.56
797.34	39130.54
797.52	38593.97
797.70	38579.64
797.88	38622.64
798.06	38385.08
798.24	38213.05
798.42	38370.74
798.60	38264.25
798.78	38358.45
798.96	37981.63
799.14	37653.95
799.32	38350.26
799.51	37594.56
799.69	37666.24
799.87	37588.42
800.05	37193.16
800.23	37244.36
800.41	37580.23
800.59	37283.27
800.77	37447.11
800.95	36756.94
801.13	37430.72
801.31	37404.10
801.49	37072.33
801.67	37000.65
801.85	36898.25
802.03	36529.62
802.21	36609.49
802.39	36396.50
802.57	36599.25
802.75	36314.58
802.93	36396.50
803.11	36173.27
803.29	35509.73
803.47	36066.78
803.65	36009.43
803.83	35798.49
804.01	35864.03
804.19	35775.97
804.37	35403.24
804.55	35636.70
804.73	35476.96
804.91	35698.14
805.09	35376.61
805.27	35454.44
805.45	35313.13
805.63	35014.12
805.81	35151.34
805.99	35243.49
806.17	35386.85
806.35	35114.47
806.53	34784.75
806.71	35268.07
806.89	34805.23
807.07	34668.02
807.25	34674.16
807.43	34577.90
807.61	34749.93
807.79	34481.65
807.97	34512.37
808.15	34166.26
808.33	33887.74
808.51	34239.99
808.69	34358.77
808.87	34004.47
809.05	33854.97
809.23	33723.90
809.41	33754.62
809.59	33576.45
809.77	33953.27
809.95	33652.22
810.13	33650.17
810.31	33304.07
810.49	33404.42
810.67	33613.31
810.84	33365.51
811.02	33347.08
811.20	33316.36
811.38	33234.44
811.56	32878.09
811.74	33093.13
811.92	32755.21
812.10	33084.94
812.28	33132.04
812.46	32583.18
812.64	32835.08
812.82	32433.68
813.00	32599.57
813.18	32468.50
813.36	32445.97
813.53	32206.36
813.71	32069.14
813.89	32288.28
814.07	32351.76
814.25	32308.76
814.43	32153.11
814.61	31780.38
814.79	32306.71
814.97	32036.38
815.15	32013.85
815.33	31499.81
815.50	31483.42
815.68	31643.17
815.86	31841.82
816.04	31434.27
816.22	31348.26
816.40	31684.12
816.58	31165.99
816.76	31462.94
816.94	31243.81
817.11	31458.85
817.29	31252.00
817.47	31043.11
817.65	30969.38
817.83	31104.55
818.01	30821.93
818.19	30604.84
818.37	30664.24
818.54	30772.78
818.72	30344.75
818.90	30680.62
819.08	30369.33
819.26	30375.47
819.44	30438.96
819.62	30350.90
819.80	30250.55
819.97	30400.05
820.15	30219.83
820.33	30324.27
820.51	30332.47
820.69	30187.06
820.87	29857.34
821.05	30207.54
821.22	29875.77
821.40	29701.69
821.58	29795.90
821.76	29976.12
821.94	29943.35
822.12	29783.61
822.29	29855.29
822.47	29541.95
822.65	29886.01
822.83	29795.90
823.01	29838.90
823.19	29226.56
823.36	29412.93
823.54	29240.90
823.72	29228.61
823.90	29142.60
824.08	29001.29
824.25	29220.42
824.43	29050.44
824.61	28782.15
824.79	29283.91
824.97	28976.71
825.15	28741.19
825.32	28700.23
825.50	28597.84
825.68	28646.99
825.86	28935.75
826.04	29007.43
826.21	28866.12
826.39	28851.78
826.57	28513.87
826.75	28608.08
826.93	28352.08
827.10	28460.62
827.28	28173.91
827.46	28606.03
827.64	28511.82
827.81	28321.36
827.99	28247.63
828.17	28012.12
828.35	28069.46
828.53	28221.01
828.70	27893.33
828.88	28196.43
829.06	27860.57
829.24	28126.80
829.41	27833.94
829.59	27807.32
829.77	27981.40
829.95	27768.41
830.12	27795.03
830.30	27946.58
830.48	28130.90
830.66	27649.63
830.84	27780.70
831.01	27772.50
831.19	27926.10
831.37	27344.48
831.55	27430.49
831.72	27268.70
831.90	27522.65
832.08	27594.33
832.25	27371.10
832.43	27473.50
832.61	27231.84
832.79	26992.23
832.96	27010.66
833.14	27137.63
833.32	27076.19
833.50	26881.64
833.67	26613.35
833.85	26711.66
834.03	27004.52
834.20	27285.09
834.38	26830.44
834.56	26564.20
834.74	26529.39
834.91	26793.58
835.09	26635.88
835.27	26240.62
835.44	26502.76
835.62	26406.51
835.80	26742.38
835.98	26224.24
836.15	26545.77
836.33	26254.96
836.51	26799.72
836.68	26224.24
836.86	26373.74
837.04	26297.97
837.21	26404.46
837.39	26478.19
837.57	26420.84
837.75	26568.30
837.92	26285.68
838.10	25884.28
838.28	25796.21
838.45	25808.50
838.63	25826.93
838.81	26263.15
838.98	25738.87
839.16	25659.00
839.34	25687.67
839.51	25714.30
839.69	25501.31
839.87	25527.93
840.04	25695.86
840.22	25708.15
840.40	25624.18
840.57	25292.41
840.75	25345.66
840.93	25343.61
841.10	25360.00
841.28	25687.67
841.46	25343.61
841.63	25314.94
841.81	25190.02
841.98	25073.28
842.16	25228.93
842.34	25128.58
842.51	24770.18
842.69	25155.20
842.87	24944.26
843.04	25048.71
843.22	24739.46
843.40	24958.60
843.57	24694.41
843.75	24929.92
843.92	24790.66
844.10	24901.25
844.28	24938.12
844.45	25005.70
844.63	24647.30
844.81	24624.78
844.98	24839.81
845.16	24649.35
845.33	24520.33
845.51	24598.15
845.69	24503.95
845.86	24383.12
846.04	24284.81
846.21	24450.70
846.39	24123.02
846.57	24075.92
846.74	24204.94
846.92	24243.85
847.09	23924.37
847.27	23959.19
847.45	24323.72
847.62	24340.11
847.80	24186.51
847.97	24147.60
848.15	24008.34
848.32	23656.09
848.50	23881.36
848.68	24026.77
848.85	23873.17
849.03	23590.55
849.20	23621.27
849.38	23756.44
849.56	23754.39
849.73	23772.82
849.91	23434.91
850.08	23819.92
850.26	23436.95
850.43	23412.38
850.61	23541.40
850.78	23451.29
850.96	23451.29
851.14	23266.97
851.31	23651.99
851.49	23105.18
851.66	23185.05
851.84	23461.53
852.01	23588.50
852.19	23355.04
852.36	23269.02
852.54	23379.61
852.71	23277.21
852.89	23015.07
853.07	23357.08
853.24	23109.28
853.42	23103.14
853.59	23027.36
853.77	23043.74
853.94	23078.56
854.12	23144.09
854.29	22439.59
854.47	22970.02
854.64	22890.15
854.82	22652.58
854.99	22920.87
855.17	22797.99
855.34	22765.22
855.52	22703.78
855.69	22818.47
855.87	22638.25
856.04	22247.08
856.22	22621.86
856.39	22337.20
856.57	22236.84
856.74	22279.85
856.92	22568.62
857.09	22380.20
857.27	22165.17
857.44	22664.87
857.62	22058.67
857.79	22550.18
857.97	22433.45
858.14	22253.23
858.32	22253.23
858.49	22208.17
858.67	22185.65
858.84	21599.93
859.02	22406.83
859.19	21671.61
859.37	21952.18
859.54	21884.59
859.72	22040.24
859.89	21814.96
860.06	22138.54
860.24	21630.65
860.41	22146.73
860.59	21819.06
860.76	21702.32
860.94	21442.23
861.11	21759.67
861.29	21579.45
861.46	21495.48
861.64	21642.93
861.81	21370.55
861.98	21526.20
862.16	21446.33
862.33	21319.35
862.51	21438.14
862.68	21403.32
862.86	21065.41
863.03	21147.33
863.21	21348.03
863.38	21337.79
863.55	21163.71
863.73	21235.39
863.90	21292.73
864.08	21253.82
864.25	20924.10
864.43	21053.12
864.60	20932.29
864.77	20985.54
864.95	20600.52
865.12	20991.68
865.30	20967.10
865.47	20553.41
865.64	20778.69
865.82	20713.16
865.99	20621.00
866.17	20793.03
866.34	20784.83
866.51	20299.47
866.69	20858.56
866.86	20807.36
867.04	20731.59
867.21	20422.34
867.38	20539.08
867.56	20356.81
867.73	20274.89
867.91	20244.17
868.08	20227.79
868.25	20340.43
868.43	20045.52
868.60	20014.80
868.78	20125.39
868.95	20117.20
869.12	19963.60
869.30	19844.82
869.47	20139.72
869.64	19807.95
869.82	19719.89
869.99	20004.56
870.16	20117.20
870.34	20047.57
870.51	19896.02
870.69	19769.04
870.86	19766.99
871.03	19855.06
871.21	19631.83
871.38	19885.78
871.55	19783.38
871.73	19558.10
871.90	19463.90
872.07	19517.14
872.25	19302.11
872.42	19480.28
872.59	19656.40
872.77	19392.22
872.94	19529.43
873.11	19384.02
873.29	19467.99
873.46	19191.52
873.63	19003.10
873.81	19154.65
873.98	18861.79
874.15	19074.78
874.33	19007.20
874.50	18724.58
874.67	18818.78
874.85	18841.31
875.02	18927.33
875.19	18478.82
875.37	18765.54
875.54	18718.43
875.71	18491.11
875.88	18517.73
876.06	18478.82
876.23	18657.00
876.40	18282.22
876.58	18364.14
876.75	18384.62
876.92	18190.06
877.10	18403.05
877.27	18302.70
877.44	18403.05
877.61	18325.22
877.79	18079.47
877.96	18015.98
878.13	18271.98
878.31	17966.83
878.48	17911.53
878.65	17694.45
878.82	17669.87
879.00	17876.72
879.17	17901.29
879.34	17997.55
879.51	17745.65
879.69	17733.36
879.86	17614.58
880.03	17598.20
880.21	17549.04
880.38	17231.61
880.55	17436.41
880.72	17770.22
880.90	17559.28
881.07	17534.71
881.24	17450.74
881.41	17456.89
881.59	17452.79
881.76	17323.77
881.93	17327.86
882.10	17350.39
882.28	17135.35
882.45	17243.90
882.62	17323.77
882.79	17338.10
882.96	16957.18
883.14	17186.55
883.31	17051.39
883.48	16793.34
883.65	17073.92
883.83	16951.04
884.00	16779.01
884.17	17284.86
884.34	17096.44
884.51	17075.96
884.69	16862.97
884.86	16811.78
885.03	16992.00
885.20	16840.45
885.38	17000.19
885.55	16834.30
885.72	16922.37
885.89	16838.40
886.06	16754.43
886.24	16740.10
886.41	16813.82
886.58	16811.78
886.75	16811.78
886.92	16588.55
887.10	16654.08
887.27	16465.67
887.44	16606.98
887.61	16637.70
887.78	16699.14
887.95	16785.15
888.13	16412.42
888.30	16273.16
888.47	16410.37
888.64	16373.51
888.81	16215.82
888.99	16334.60
889.16	16379.65
889.33	16252.68
889.50	16170.76
889.67	16260.87
889.84	16195.34
890.01	16144.14
890.19	16170.76
890.36	16031.50
890.53	16195.34
890.70	15916.81
890.87	16051.98
891.04	15963.92
891.22	15875.85
891.39	15902.48
891.56	15752.98
891.73	15992.59
891.90	15736.59
892.07	15810.32
892.24	15918.86
892.42	15879.95
892.59	15892.24
892.76	15644.43
892.93	15597.33
893.10	15720.21
893.27	15662.86
893.44	15263.51
893.61	15603.47
893.79	15857.42
893.96	15335.19
894.13	15564.56
894.30	15650.58
894.47	15482.64
894.64	15558.42
894.81	15546.13
894.98	15576.85
895.15	15417.11
895.33	15462.16
895.50	15539.99
895.67	15750.93
895.84	15394.58
896.01	15396.63
896.18	15333.14
896.35	15488.79
896.52	15306.52
896.69	15271.70
896.86	15458.07
897.04	15460.12
897.21	15435.54
897.38	15292.18
897.55	15286.04
897.72	15466.26
897.89	15361.81
898.06	15294.23
898.23	15343.38
898.40	15154.97
898.57	15251.22
898.74	15611.67
898.91	15335.19
899.08	15175.45
899.26	15218.46
899.43	15310.61
899.60	15240.98
899.77	15202.07
899.94	15142.68
900.11	15085.34
900.28	15132.44
900.45	15294.23
900.62	15169.30
900.79	15200.02
900.96	15144.73
901.13	15370.01
901.30	15087.39
901.47	15048.47
901.64	15208.22
901.81	15333.14
901.98	15021.85
902.15	15232.79
902.32	14935.84
902.49	15144.73
902.66	15157.02
902.83	15193.88
903.01	15234.84
903.18	15296.28
903.35	15128.35
903.52	14931.74
903.69	15234.84
903.86	15288.09
904.03	15230.74
904.20	15232.79
904.37	15120.15
904.54	15064.86
904.71	15027.99
904.88	15079.19
905.05	15130.39
905.22	15009.56
905.39	15105.82
905.56	14884.64
905.73	15142.68
905.90	15154.97
906.07	15093.53
906.24	15083.29
906.41	14812.96
906.58	15214.36
906.75	15214.36
906.92	14946.08
907.09	15062.81
907.26	15038.23
907.43	14790.43
907.60	14995.23
907.77	15187.74
907.93	15114.01
908.10	15017.75
908.27	14913.31
908.44	14874.40
908.61	14866.21
908.78	14669.60
908.95	14972.70
909.12	14685.98
909.29	14778.14
909.46	15011.61
909.63	14788.38
909.80	14790.43
909.97	15118.11
910.14	14921.50
910.31	15046.43
910.48	14724.90
910.65	14706.46
910.82	14663.46
910.99	14800.67
911.16	14630.69
911.33	14726.94
911.50	14810.91
911.66	14806.81
911.83	14708.51
912.00	14499.62
912.17	14647.07
912.34	14429.99
912.51	14536.48
912.68	14325.54
912.85	14483.24
913.02	14444.32
913.19	14573.35
913.36	14618.40
913.53	14468.90
913.70	14231.33
913.86	14491.43
914.03	14423.84
914.20	14112.55
914.37	14296.87
914.54	14315.30
914.71	14159.66
914.88	14159.66
915.05	14309.16
915.22	14210.86
915.39	14192.42
915.55	14071.59
915.72	14159.66
915.89	14006.06
916.06	13823.79
916.23	13817.65
916.40	13946.67
916.57	13711.15
916.74	13752.11
916.91	13893.42
917.07	13514.55
917.24	13578.03
917.41	13801.26
917.58	13670.19
917.75	13565.74
917.92	13307.70
918.09	13532.98
918.26	13420.34
918.42	13477.68
918.59	13324.08
918.76	13217.59
918.93	13231.93
919.10	13188.92
919.27	13176.63
919.44	13397.81
919.60	13363.00
919.77	13186.87
919.94	13258.55
920.11	13096.76
920.28	13195.06
920.45	13082.42
920.61	12828.48
920.78	12996.41
920.95	12922.68
921.12	12961.59
921.29	12644.16
921.46	12824.38
921.62	12777.28
921.79	12760.89
921.96	12597.06
922.13	12689.21
922.30	12648.26
922.47	12457.79
922.63	12609.34
922.80	12402.50
922.97	12412.74
923.14	12332.87
923.31	12283.72
923.47	12191.56
923.64	12304.20
923.81	12300.10
923.98	12212.04
924.15	12013.38
924.32	12144.45
924.48	12193.61
924.65	12164.93
924.82	11802.44
924.99	11882.31
925.15	11712.33
925.32	11863.88
925.49	11685.71
925.66	11747.15
925.83	11566.93
925.99	11427.67
926.16	11554.64
926.33	11646.80
926.50	11226.96
926.67	11491.15
926.83	11341.65
927.00	11622.22
927.17	11196.25
927.34	11218.77
927.50	11310.93
927.67	11360.08
927.84	11204.44
928.01	11143.00
928.17	11087.70
928.34	10999.64
928.51	10864.47
928.68	10823.51
928.84	10661.73
929.01	10751.84
929.18	10698.59
929.35	10725.21
929.51	10733.40
929.68	10598.24
929.85	10698.59
930.02	10643.29
930.18	10469.22
930.35	10479.46
930.52	10323.81
930.69	10800.99
930.85	10440.54
931.02	10403.68
931.19	10278.76
931.36	10186.60
931.52	10268.52
931.69	10336.10
931.86	10248.04
932.02	10225.51
932.19	9895.78
932.36	9807.72
932.53	10100.58
932.69	9627.50
932.86	9928.55
933.03	9686.89
933.19	9555.82
933.36	9523.05
933.53	9619.31
933.70	9531.25
933.86	9482.10
934.03	9512.81
934.20	9432.94
934.36	9521.01
934.53	9232.24
934.70	9260.91
934.86	9226.10
935.03	9056.12
935.20	9056.12
935.36	8970.10
935.53	8826.75
935.70	8935.29
935.86	8871.80
936.03	8746.87
936.20	8548.22
936.36	8662.91
936.53	8521.60
936.70	8529.79
936.86	8474.49
937.03	8312.71
937.20	8146.82
937.36	8263.55
937.53	8097.67
937.70	7999.37
937.86	7939.97
938.03	7802.76
938.20	7913.35
938.36	7655.31
938.53	7724.94
938.70	7491.47
938.86	7344.02
939.03	7280.53
939.20	7290.77
939.36	7223.19
939.53	7186.32
939.70	7165.84
939.86	6782.87
940.03	6850.46
940.19	6780.82
940.36	6813.59
940.53	6680.47
940.69	6539.16
940.86	6686.62
941.03	6483.87
941.19	6412.19
941.36	6438.81
941.52	6473.63
941.69	6158.24
941.86	6113.19
942.02	6133.67
942.19	6160.29
942.35	6080.42
942.52	5932.97
942.69	5992.36
942.85	5750.70
943.02	5910.44
943.18	5724.07
943.35	5752.74
943.52	5648.30
943.68	5656.49
943.85	5711.78
944.01	5593.00
944.18	5607.34
944.35	5658.54
944.51	5584.81
944.68	5363.63
944.84	5562.28
945.01	5443.50
945.17	5433.26
945.34	5418.93
945.51	5416.88
945.67	5279.66
945.84	5392.30
946.00	5269.42
946.17	5418.93
946.33	5334.96
946.50	5400.49
946.67	5334.96
946.83	5332.91
947.00	5482.41
947.16	5316.53
947.33	5271.47
947.49	5314.48
947.66	5291.95
947.82	5298.10
947.99	5201.84
948.16	5230.51
948.32	5349.29
948.49	5205.94
948.65	5414.83
948.82	5197.74
948.98	5248.94
949.15	5101.49
949.31	5175.22
949.48	5326.77
949.64	5304.24
949.81	5261.23
949.97	5318.57
950.14	5228.46
950.30	5218.22
950.47	5330.86
950.63	5328.81
950.80	5279.66
950.96	5228.46
951.13	5128.11
951.30	5253.04
951.46	5291.95
951.63	5484.46
951.79	5345.20
951.96	5472.17
952.12	5351.34
952.29	5400.49
952.45	5175.22
952.62	5394.35
952.78	5400.49
952.94	5363.63
953.11	5482.41
953.27	5275.57
953.44	5365.68
953.60	5275.57
953.77	5365.68
953.93	5302.19
954.10	5490.60
954.26	5183.41
954.43	5232.56
954.59	5492.65
954.76	5492.65
954.92	5402.54
955.09	5371.82
955.25	5302.19
955.42	5220.27
955.58	5441.45
955.75	5506.99
955.91	5418.93
956.07	5457.84
956.24	5468.08
956.40	5539.76
956.57	5562.28
956.73	5330.86
956.90	5466.03
957.06	5384.11
957.23	5498.80
957.39	5390.25
957.56	5480.36
957.72	5351.34
957.88	5443.50
958.05	5570.48
958.21	5560.24
958.38	5468.08
958.54	5441.45
958.71	5478.32
958.87	5435.31
959.03	5318.57
959.20	5519.28
959.36	5423.02
959.53	5484.46
959.69	5463.98
959.85	5377.97
960.02	5425.07
960.18	5506.99
960.35	5302.19
960.51	5447.60
960.68	5341.10
960.84	5392.30
961.00	5359.53
961.17	5410.73
961.33	5404.59
961.50	5361.58
961.66	5517.23
961.82	5345.20
961.99	5640.11
962.15	5455.79
962.31	5181.36
962.48	5414.83
962.64	5279.66
962.81	5367.73
962.97	5373.87
963.13	5466.03
963.30	5447.60
963.46	5294.00
963.62	5439.40
963.79	5312.43
963.95	5320.62
964.12	5441.45
964.28	5459.88
964.44	5277.62
964.61	5474.22
964.77	5375.92
964.93	5365.68
965.10	5287.86
965.26	5154.74
965.42	5382.06
965.59	5322.67
965.75	5257.14
965.92	5181.36
966.08	5281.71
966.24	5351.34
966.41	5281.71
966.57	5312.43
966.73	5347.25
966.90	5255.09
967.06	5259.18
967.22	5195.70
967.39	5246.90
967.55	5167.03
967.71	5164.98
967.88	5121.97
968.04	5169.07
968.20	5087.15
968.37	5019.57
968.53	5097.39
968.69	5148.59
968.85	5072.82
969.02	5207.98
969.18	5169.07
969.34	5128.11
969.51	5060.53
969.67	5142.45
969.83	5076.91
970.00	5078.96
970.16	5152.69
970.32	5132.21
970.48	4970.42
970.65	4988.85
970.81	5056.43
970.97	5001.14
971.14	4851.64
971.30	5222.32
971.46	4941.75
971.63	4935.60
971.79	5029.81
971.95	4976.56
972.11	4859.83
972.28	5042.10
972.44	5025.72
972.60	4898.74
972.76	4923.32
972.93	5015.48
973.09	5015.48
973.25	5029.81
973.42	4908.98
973.58	4880.31
973.74	4933.56
973.90	4857.78
974.07	4898.74
974.23	4720.57
974.39	4814.77
974.55	4786.10
974.72	4802.49
974.88	4714.42
975.04	4949.94
975.20	4779.96
975.37	4786.10
975.53	4878.26
975.69	4773.82
975.85	4743.10
976.01	4841.40
976.18	4702.14
976.34	4691.90
976.50	4796.34
976.66	4829.11
976.83	4648.89
976.99	4831.16
977.15	4784.06
977.31	4646.84
977.47	4528.06
977.64	4642.75
977.80	4585.40
977.96	4554.68
978.12	4620.22
978.29	4554.68
978.45	4538.30
978.61	4552.63
978.77	4622.27
978.93	4411.32
979.10	4546.49
979.26	4349.89
979.42	4509.63
979.58	4382.65
979.74	4433.85
979.91	4585.40
980.07	4327.36
980.23	4411.32
980.39	4399.04
980.55	4433.85
980.71	4444.09
980.88	4331.45
981.04	4456.38
981.20	4464.57
981.36	4323.26
981.52	4370.37
981.68	4280.25
981.85	4417.47
982.01	4216.77
982.17	4474.81
982.33	4384.70
982.49	4417.47
982.65	4237.25
982.82	4280.25
982.98	4325.31
983.14	4233.15
983.30	4337.60
983.46	4327.36
983.62	4270.01
983.79	4190.14
983.95	4222.91
984.11	4124.61
984.27	4216.77
984.43	4251.58
984.59	4284.35
984.75	4171.71
984.91	4153.28
985.08	4296.64
985.24	4097.99
985.40	4054.98
985.56	4186.05
985.72	4097.99
985.88	4157.38
986.04	3999.68
986.20	4003.78
986.37	4192.19
986.53	4007.87
986.69	4038.59
986.85	3932.10
987.01	3987.40
987.17	4069.31
987.33	3932.10
987.49	4054.98
987.65	4040.64
987.82	3999.68
987.98	3979.20
988.14	4054.98
988.30	3921.86
988.46	3895.24
988.62	3895.24
988.78	3964.87
988.94	3948.48
989.10	3919.81
989.26	3866.56
989.42	3786.69
989.59	3758.02
989.75	3819.46
989.91	3831.75
990.07	3762.12
990.23	3723.21
990.39	3782.60
990.55	3948.48
990.71	3794.89
990.87	3753.93
991.03	3882.95
991.19	3704.78
991.35	3827.65
991.51	3737.54
991.67	3803.08
991.83	3762.12
992.00	3764.17
992.16	3790.79
992.32	3735.50
992.48	3792.84
992.64	3608.52
992.80	3669.96
992.96	3602.38
993.12	3739.59
993.28	3753.93
993.44	3678.15
993.60	3618.76
993.76	3624.90
993.92	3735.50
994.08	3735.50
994.24	3688.39
994.40	3684.30
994.56	3690.44
994.72	3534.79
994.88	3610.57
995.04	3585.99
995.20	3610.57
995.36	3483.59
995.52	3649.48
995.68	3579.85
995.84	3456.97
996.00	3590.09
996.16	3395.53
996.32	3405.77
996.48	3356.62
996.64	3577.80
996.80	3514.31
996.96	3522.51
997.12	3463.12
997.28	3430.35
997.44	3397.58
997.60	3430.35
997.76	3366.86
997.92	3497.93
998.08	3514.31
998.24	3293.13
998.40	3344.33
998.56	3446.73
998.72	3303.37
998.88	3311.57
999.04	3295.18
999.20	3440.59
999.36	3301.33
999.52	3438.54
999.68	3309.52
999.84	3311.57
1000.00	3379.15
1000.16	3293.13
1000.32	3272.65
1000.48	3303.37
1000.64	3063.76
1000.80	3252.17
1000.95	3184.59
1001.11	3145.68
1001.27	3155.92
1001.43	3213.26
1001.59	3147.73
1001.75	3106.77
1001.91	3170.26
1002.07	3129.30
1002.23	3049.43
1002.39	3209.17
1002.55	3168.21
1002.71	3096.53
1002.87	3147.73
1003.03	3151.82
1003.19	3133.39
1003.34	3180.50
1003.50	3086.29
1003.66	3207.12
1003.82	3207.12
1003.98	3117.01
1004.14	3069.91
1004.30	3039.19
1004.46	2953.17
1004.62	2942.93
1004.78	3018.71
1004.94	2998.23
1005.09	3071.95
1005.25	3043.28
1005.41	3018.71
1005.57	3061.71
1005.73	2899.92
1005.89	2885.59
1006.05	2947.03
1006.21	3047.38
1006.37	2916.31
1006.52	2936.79
1006.68	2914.26
1006.84	2994.13
1007.00	2926.55
1007.16	2901.97
1007.32	2959.31
1007.48	2844.63
1007.64	2811.86
1007.79	2912.21
1007.95	2865.11
1008.11	2955.22
1008.27	2942.93
1008.43	2772.95
1008.59	2830.29
1008.75	2910.16
1008.91	2779.09
1009.06	2803.67
1009.22	2818.00
1009.38	2867.16
1009.54	2865.11
1009.70	2762.71
1009.86	2795.48
1010.01	2867.16
1010.17	2699.22
1010.33	2809.81
1010.49	2815.96
1010.65	2854.87
1010.81	2715.61
1010.96	2772.95
1011.12	2695.13
1011.28	2697.17
1011.44	2764.76
1011.60	2688.98
1011.76	2705.37
1011.91	2746.33
1012.07	2621.40
1012.23	2617.30
1012.39	2635.74
1012.55	2625.50
1012.71	2633.69
1012.86	2688.98
1013.02	2719.70
1013.18	2566.10
1013.34	2633.69
1013.50	2643.93
1013.65	2680.79
1013.81	2516.95
1013.97	2533.34
1014.13	2682.84
1014.29	2621.40
1014.44	2697.17
1014.60	2650.07
1014.76	2551.77
1014.92	2607.06
1015.07	2605.02
1015.23	2611.16
1015.39	2531.29
1015.55	2443.23
1015.71	2455.51
1015.86	2455.51
1016.02	2455.51
1016.18	2455.51
1016.34	2541.53
1016.49	2605.02
1016.65	2592.73
1016.81	2488.28
1016.97	2523.10
1017.12	2602.97
1017.28	2404.32
1017.44	2367.45
1017.60	2363.36
1017.75	2443.23
1017.91	2453.47
1018.07	2502.62
1018.23	2488.28
1018.38	2424.80
1018.54	2426.84
1018.70	2465.75
1018.86	2465.75
1019.01	2416.60
1019.17	2289.63
1019.33	2519.00
1019.49	2404.32
1019.64	2430.94
1019.80	2406.36
1019.96	2437.08
1020.12	2377.69
1020.27	2355.16
1020.43	2293.72
1020.59	2396.12
1020.74	2439.13
1020.90	2422.75
1021.06	2367.45
1021.22	2412.51
1021.37	2410.46
1021.53	2289.63
1021.69	2394.08
1021.84	2295.77
1022.00	2398.17
1022.16	2328.54
1022.31	2287.58
1022.47	2355.16
1022.63	2371.55
1022.79	2222.05
1022.94	2215.90
1023.10	2322.40
1023.26	2269.15
1023.41	2308.06
1023.57	2197.47
1023.73	2330.59
1023.88	2340.83
1024.04	2197.47
1024.20	2285.53
1024.35	2281.44
1024.51	2301.92
1024.67	2203.61
1024.82	2254.81
1024.98	2205.66
1025.14	2232.29
1025.29	2195.42
1025.45	2265.05
1025.61	2099.17
1025.76	2246.62
1025.92	2242.53
1026.08	2256.86
1026.23	2254.81
1026.39	2291.68
1026.55	2256.86
1026.70	2101.22
1026.86	2164.70
1027.02	2187.23
1027.17	2129.89
1027.33	2199.52
1027.48	2160.61
1027.64	2084.83
1027.80	2093.02
1027.95	2185.18
1028.11	2174.94
1028.27	2166.75
1028.42	2162.66
1028.58	2080.74
1028.73	2129.89
1028.89	2052.06
1029.05	2191.33
1029.20	2150.37
>>>>>End Processed Spectral Data<<<<<
