SpectraSuite Data File
++++++++++++++++++++++++++++++++++++
Date: Fri Jun 02 14:53:30 CEST 2017
User: INFO_000
Dark Spectrum Present: No
Reference Spectrum Present: No
Number of Sampled Component Spectra: 1
Spectrometers: USB4H00879
Integration Time (usec): 80000 (USB4H00879)
Spectra Averaged: 1 (USB4H00879)
Boxcar Smoothing: 0 (USB4H00879)
Correct for Electrical Dark: No (USB4H00879)
Strobe/Lamp Enabled: No (USB4H00879)
Correct for Detector Non-linearity: No (USB4H00879)
Correct for Stray Light: No (USB4H00879)
Number of Pixels in Processed Spectrum: 3648
>>>>>Begin Processed Spectral Data<<<<<
345.13	1247.21
345.34	1247.21
345.56	1247.21
345.78	1290.22
345.99	1288.17
346.21	1708.01
346.42	1740.77
346.64	1591.27
346.86	1769.44
347.07	1728.49
347.29	1613.80
347.50	1640.42
347.72	1679.33
347.94	1748.97
348.15	1576.94
348.37	1589.22
348.59	1753.06
348.80	1695.72
349.02	1818.60
349.23	1920.99
349.45	1808.36
349.67	1865.70
349.88	1839.08
350.10	2013.15
350.31	1855.46
350.53	1830.88
350.75	2000.87
350.96	1738.73
351.18	1931.23
351.39	1880.04
351.61	1814.50
351.82	1939.43
352.04	1908.71
352.26	1695.72
352.47	1908.71
352.69	1943.52
352.90	1794.02
353.12	1894.37
353.34	1861.60
353.55	1937.38
353.77	1892.32
353.98	1888.23
354.20	1822.69
354.41	2029.54
354.63	1959.91
354.85	2072.54
355.06	1890.28
355.28	1830.88
355.49	1918.95
355.71	1875.94
355.92	1834.98
356.14	1920.99
356.35	1959.91
356.57	1884.13
356.79	1959.91
357.00	1896.42
357.22	1927.14
357.43	1890.28
357.65	1968.10
357.86	1855.46
358.08	1964.00
358.29	1896.42
358.51	1988.58
358.72	1927.14
358.94	1953.76
359.16	2002.91
359.37	1964.00
359.59	1877.99
359.80	2080.74
360.02	1931.23
360.23	1931.23
360.45	1994.72
360.66	1923.04
360.88	1853.41
361.09	1957.86
361.31	2039.78
361.52	1949.67
361.74	2129.89
361.95	2068.45
362.17	1908.71
362.38	2133.98
362.60	2074.59
362.81	1964.00
363.03	1994.72
363.24	1966.05
363.46	2093.02
363.67	2035.68
363.89	2039.78
364.10	1941.47
364.32	1925.09
364.53	2084.83
364.75	1943.52
364.96	2011.11
365.18	1951.71
365.39	2031.58
365.61	2000.87
365.82	2097.12
366.04	2025.44
366.25	1947.62
366.47	2029.54
366.68	2125.79
366.90	1937.38
367.11	2064.35
367.33	2056.16
367.54	2068.45
367.76	2009.06
367.97	2131.94
368.19	1990.63
368.40	2043.87
368.62	1978.34
368.83	2035.68
369.05	2011.11
369.26	2007.01
369.48	1986.53
369.69	2033.63
369.91	2052.06
370.12	2052.06
370.33	2107.36
370.55	1951.71
370.76	2076.64
370.98	2148.32
371.19	2066.40
371.41	2093.02
371.62	2074.59
371.84	1990.63
372.05	2160.61
372.27	2045.92
372.48	2121.70
372.69	2101.22
372.91	2138.08
373.12	2168.80
373.34	2097.12
373.55	2115.55
373.77	2183.13
373.98	2121.70
374.20	2121.70
374.41	2263.01
374.62	2058.21
374.84	2111.46
375.05	2281.44
375.27	2201.57
375.48	2148.32
375.70	2162.66
375.91	2308.06
376.12	2355.16
376.34	2127.84
376.55	2226.14
376.77	2263.01
376.98	2170.85
377.19	2174.94
377.41	2138.08
377.62	2248.67
377.84	2254.81
378.05	2381.79
378.27	2099.17
378.48	2322.40
378.69	2424.80
378.91	2338.78
379.12	2224.09
379.34	2234.33
379.55	2273.25
379.76	2392.03
379.98	2195.42
380.19	2232.29
380.41	2301.92
380.62	2297.82
380.83	2297.82
381.05	2234.33
381.26	2414.56
381.47	2273.25
381.69	2381.79
381.90	2420.70
382.12	2250.72
382.33	2248.67
382.54	2322.40
382.76	2299.87
382.97	2359.26
383.19	2338.78
383.40	2385.88
383.61	2281.44
383.83	2338.78
384.04	2412.51
384.25	2306.01
384.47	2359.26
384.68	2381.79
384.89	2375.64
385.11	2361.31
385.32	2330.59
385.54	2453.47
385.75	2428.89
385.96	2471.90
386.18	2336.73
386.39	2469.85
386.60	2365.40
386.82	2504.67
387.03	2471.90
387.24	2498.52
387.46	2447.32
387.67	2498.52
387.88	2551.77
388.10	2559.96
388.31	2525.15
388.52	2594.78
388.74	2578.39
388.95	2475.99
389.16	2523.10
389.38	2482.14
389.59	2549.72
389.80	2566.10
390.02	2580.44
390.23	2693.08
390.44	2588.63
390.66	2559.96
390.87	2482.14
391.08	2600.92
391.30	2635.74
391.51	2666.46
391.72	2670.55
391.94	2666.46
392.15	2590.68
392.36	2660.31
392.58	2584.54
392.79	2664.41
393.00	2770.90
393.22	2838.48
393.43	2725.85
393.64	2746.33
393.85	2770.90
394.07	2629.59
394.28	2680.79
394.49	2779.09
394.71	2719.70
394.92	2809.81
395.13	2738.13
395.35	2725.85
395.56	2680.79
395.77	2740.18
395.98	2813.91
396.20	2904.02
396.41	2891.73
396.62	2955.22
396.84	2856.92
397.05	2910.16
397.26	2924.50
397.47	2910.16
397.69	2885.59
397.90	3078.10
398.11	2936.79
398.32	2987.99
398.54	2936.79
398.75	2981.84
398.96	3057.62
399.18	3020.75
399.39	2963.41
399.60	3114.96
399.81	2969.55
400.03	2967.51
400.24	3276.75
400.45	3016.66
400.66	3139.54
400.88	3037.14
401.09	3252.17
401.30	2938.84
401.51	3229.65
401.73	3223.50
401.94	3133.39
402.15	3176.40
402.36	3194.83
402.58	3102.67
402.79	3235.79
403.00	3172.30
403.21	3243.98
403.43	3149.78
403.64	3272.65
403.85	3108.82
404.06	3176.40
404.27	3229.65
404.49	3266.51
404.70	3194.83
404.91	3297.23
405.12	3313.61
405.34	3303.37
405.55	3428.30
405.76	3246.03
405.97	3293.13
406.19	3422.16
406.40	3276.75
406.61	3397.58
406.82	3330.00
407.03	3262.41
407.25	3291.09
407.46	3370.96
407.67	3385.29
407.88	3598.28
408.09	3454.92
408.31	3350.48
408.52	3389.39
408.73	3479.50
408.94	3338.19
409.15	3481.55
409.37	3489.74
409.58	3551.18
409.79	3569.61
410.00	3641.29
410.21	3323.85
410.43	3477.45
410.64	3524.55
410.85	3532.75
411.06	3573.71
411.27	3647.43
411.48	3633.10
411.70	3565.51
411.91	3485.64
412.12	3633.10
412.33	3508.17
412.54	3555.27
412.76	3729.35
412.97	3741.64
413.18	3436.49
413.39	3686.34
413.60	3571.66
413.81	3715.02
414.03	3571.66
414.24	3741.64
414.45	3866.56
414.66	3542.99
414.87	3784.65
415.08	3737.54
415.30	3755.97
415.51	3868.61
415.72	3831.75
415.93	3778.50
416.14	3798.98
416.35	3907.52
416.56	3715.02
416.78	3887.04
416.99	3786.69
417.20	3803.08
417.41	3899.33
417.62	3989.44
417.83	3975.11
418.04	3901.38
418.26	4161.47
418.47	4110.27
418.68	3960.77
418.89	3977.16
419.10	4286.40
419.31	4028.35
419.52	4091.84
419.73	4030.40
419.95	4136.90
420.16	3966.92
420.37	4095.94
420.58	4009.92
420.79	3909.57
421.00	3991.49
421.21	4270.01
421.42	4100.03
421.63	4128.70
421.85	4173.76
422.06	4140.99
422.27	4253.63
422.48	4280.25
422.69	4298.69
422.90	4239.30
423.11	4300.73
423.32	4274.11
423.53	4427.71
423.75	4147.14
423.96	4478.91
424.17	4329.41
424.38	4575.16
424.59	4564.92
424.80	4587.45
425.01	4544.44
425.22	4489.15
425.43	4462.52
425.64	4728.76
425.85	4706.23
426.06	4638.65
426.28	4622.27
426.49	4626.36
426.70	4497.34
426.91	4548.54
427.12	4636.60
427.33	4618.17
427.54	4685.75
427.75	4816.82
427.96	4739.00
428.17	4818.87
428.38	4976.56
428.59	4872.12
428.80	4849.59
429.01	4927.41
429.23	4976.56
429.44	5009.33
429.65	5058.48
429.86	4984.76
430.07	4829.11
430.28	5023.67
430.49	5074.87
430.70	5162.93
430.91	5089.20
431.12	4956.08
431.33	5275.57
431.54	5158.83
431.75	5189.55
431.96	5156.79
432.17	5169.07
432.38	5107.63
432.59	5463.98
432.80	5218.22
433.01	5279.66
433.22	5437.36
433.43	5369.77
433.64	5312.43
433.85	5181.36
434.06	5347.25
434.27	5402.54
434.49	5496.75
434.70	5578.67
434.91	5455.79
435.12	5509.04
435.33	5529.52
435.54	5619.63
435.75	5294.00
435.96	5439.40
436.17	5449.64
436.38	5736.36
436.59	5613.48
436.80	5615.53
437.01	5746.60
437.22	5762.98
437.43	5658.54
437.64	5506.99
437.85	5916.58
438.06	5816.23
438.27	5607.34
438.48	5689.26
438.69	5775.27
438.90	5779.37
439.11	5636.01
439.32	5910.44
439.53	5828.52
439.74	6084.52
439.95	6045.60
440.16	5906.34
440.37	5969.83
440.57	5722.02
440.78	6104.99
440.99	5947.30
441.20	5988.26
441.41	5871.53
441.62	6006.69
441.83	5947.30
442.04	6285.22
442.25	6121.38
442.46	6016.93
442.67	6231.97
442.88	6490.01
443.09	6162.34
443.30	6109.09
443.51	6215.59
443.72	6348.70
443.93	6068.13
444.14	6580.12
444.35	6223.78
444.56	6412.19
444.77	6338.46
444.98	6309.79
445.19	6479.77
445.40	6494.11
445.61	6420.38
445.81	6555.55
446.02	6580.12
446.23	6688.67
446.44	6485.92
446.65	6608.80
446.86	6571.93
447.07	6735.77
447.28	6803.35
447.49	6717.34
447.70	6563.74
447.91	6807.45
448.12	6696.86
448.33	6733.72
448.54	6786.97
448.74	6803.35
448.95	6772.63
449.16	6784.92
449.37	7182.23
449.58	6786.97
449.79	7149.46
450.00	6598.56
450.21	6987.67
450.42	7190.42
450.63	7032.72
450.84	7200.66
451.05	7286.67
451.25	7032.72
451.46	6942.61
451.67	7309.20
451.88	7317.39
452.09	7335.82
452.30	7286.67
452.51	7319.44
452.72	7507.85
452.93	7536.52
453.13	7456.65
453.34	7382.93
453.55	7403.41
453.76	7438.22
453.97	7524.24
454.18	7526.29
454.39	7524.24
454.60	7491.47
454.81	7659.40
455.01	7843.72
455.22	7516.05
455.43	7821.19
455.64	8001.41
455.85	7993.22
456.06	8157.06
456.27	7903.11
456.48	7942.02
456.68	7948.17
456.89	7944.07
457.10	8064.90
457.31	8218.50
457.52	8142.72
457.73	8105.86
457.94	8161.16
458.14	7987.08
458.35	8525.69
458.56	8351.62
458.77	8214.40
458.98	8552.32
459.19	8482.69
459.39	8423.30
459.60	8591.23
459.81	8517.50
460.02	8750.97
460.23	8533.89
460.44	8832.89
460.65	8660.86
460.85	8884.09
461.06	8861.56
461.27	8734.59
461.48	9017.21
461.69	9107.32
461.89	8558.46
462.10	9238.39
462.31	8812.41
462.52	9068.41
462.73	8968.06
462.94	9355.12
463.14	9183.09
463.35	9148.28
463.56	9619.31
463.77	9719.66
463.98	9533.29
464.18	9406.32
464.39	9447.28
464.60	10014.57
464.81	9568.11
465.02	9660.27
465.23	9680.75
465.43	9725.80
465.64	9813.87
465.85	9783.15
466.06	9779.05
466.27	10211.17
466.47	10039.14
466.68	10178.40
466.89	10176.36
467.10	10192.74
467.30	10037.09
467.51	10403.68
467.72	10671.97
467.93	10293.09
468.14	10362.72
468.34	10682.20
468.55	10757.98
468.76	10729.31
468.97	10362.72
469.17	10887.00
469.38	10760.03
469.59	11040.60
469.80	10889.05
470.01	10870.62
470.21	10870.62
470.42	11243.35
470.63	11341.65
470.84	11282.26
471.04	11382.61
471.25	11552.59
471.46	11589.46
471.67	11704.14
471.87	11689.81
472.08	11786.06
472.29	11904.84
472.50	11669.33
472.70	11542.35
472.91	11855.69
473.12	12044.10
473.33	12197.70
473.53	12318.53
473.74	12234.57
473.95	12465.99
474.16	12552.00
474.36	12502.85
474.57	12785.47
474.78	12767.04
474.99	12427.07
475.19	12681.02
475.40	13154.10
475.61	13094.71
475.81	13004.60
476.02	13348.66
476.23	13211.45
476.44	13250.36
476.64	13690.67
476.85	13709.10
477.06	13549.36
477.27	14040.87
477.47	13948.72
477.68	13872.94
477.89	14026.54
478.09	14171.94
478.30	14034.73
478.51	14200.62
478.71	14587.68
478.92	14268.20
479.13	14470.95
479.34	14812.96
479.54	14595.87
479.75	14960.41
479.96	14565.15
480.16	14962.46
480.37	14903.07
480.58	15171.35
480.78	15314.71
480.99	15251.22
481.20	15333.14
481.41	15527.70
481.61	15673.10
481.82	15822.61
482.03	15730.45
482.23	15738.64
482.44	16219.91
482.65	16137.99
482.85	16189.19
483.06	16273.16
483.27	16373.51
483.47	16203.53
483.68	16441.09
483.89	16445.19
484.09	16563.97
484.30	16723.71
484.51	16668.42
484.71	16840.45
484.92	16875.26
485.13	17092.35
485.33	17108.73
485.54	17051.39
485.75	17291.00
485.95	17520.37
486.16	17364.73
486.37	17870.58
486.57	17757.94
486.78	17665.78
486.98	17776.37
487.19	18018.03
487.40	18044.65
487.60	18081.52
487.81	18312.94
488.02	18294.50
488.22	18194.15
488.43	18415.34
488.64	18745.06
488.84	18450.15
489.05	19015.39
489.25	18697.95
489.46	18947.81
489.67	19085.02
489.87	19130.08
490.08	19511.00
490.29	19183.32
490.49	19537.62
490.70	19676.88
490.90	19545.81
491.11	19601.11
491.32	19578.58
491.52	19490.52
491.73	19689.17
491.94	19689.17
492.14	19863.25
492.35	20100.81
492.55	20270.79
492.76	20235.98
492.97	20487.88
493.17	20580.04
493.38	20762.31
493.58	20999.87
493.79	20567.75
494.00	20762.31
494.20	20899.52
494.41	20887.23
494.61	21100.22
494.82	21079.74
495.02	21069.50
495.23	21083.84
495.44	21382.84
495.64	21460.66
495.85	21690.04
496.05	21665.46
496.26	21536.44
496.47	21747.38
496.67	21765.81
496.88	22316.72
497.08	22089.39
497.29	22058.67
497.49	22019.76
497.70	22419.11
497.91	22449.83
498.11	22404.78
498.32	22503.08
498.52	22353.58
498.73	23168.67
498.93	22927.01
499.14	22841.00
499.34	22767.27
499.55	23129.76
499.76	23115.42
499.96	23000.74
500.17	23465.63
500.37	23033.50
500.58	23252.64
500.78	23584.41
500.99	23355.04
501.19	23731.86
501.40	23803.54
501.60	23510.68
501.81	23629.46
502.02	23770.77
502.22	23758.49
502.43	23871.12
502.63	24057.49
502.84	24180.37
503.04	24094.35
503.25	24059.54
503.45	24233.61
503.66	24405.64
503.86	24186.51
504.07	24694.41
504.27	24684.17
504.48	24901.25
504.68	24776.33
504.89	25198.21
505.09	24774.28
505.30	24813.19
505.50	25073.28
505.71	25161.34
505.91	25089.67
506.12	25073.28
506.32	25437.82
506.53	25386.62
506.73	25601.66
506.94	25654.90
507.14	25282.17
507.35	25372.28
507.55	25572.99
507.76	25745.02
507.96	25452.16
508.17	25751.16
508.37	25863.80
508.58	26009.20
508.78	26216.05
508.99	26222.19
509.19	26353.26
509.40	26379.89
509.60	26138.23
509.81	26205.81
510.01	26410.60
510.22	26125.94
510.42	26398.32
510.63	26697.32
510.83	26805.86
511.04	26353.26
511.24	26639.98
511.44	26881.64
511.65	26906.21
511.85	26871.40
512.06	27207.26
512.26	27276.90
512.47	26949.22
512.67	27106.91
512.88	27479.64
513.08	27076.19
513.29	27203.17
513.49	27465.31
513.69	27272.80
513.90	27594.33
514.10	27594.33
514.31	27717.21
514.51	27739.74
514.72	27563.61
514.92	27749.98
515.13	27887.19
515.33	28028.50
515.53	27881.05
515.74	27969.11
515.94	28106.32
516.15	28100.18
516.35	28212.82
516.56	28583.50
516.76	27983.44
516.96	28354.13
517.17	28735.05
517.37	28683.85
517.58	28730.95
517.78	28468.81
517.99	28784.20
518.19	28837.45
518.39	28855.88
518.60	28931.65
518.80	28646.99
519.01	28978.76
519.21	29169.22
519.41	29539.90
519.62	29187.65
519.82	29455.93
520.03	29281.86
520.23	29670.97
520.43	29369.92
520.64	29855.29
520.84	30109.24
521.05	29689.40
521.25	29793.85
521.45	30219.83
521.66	30076.47
521.86	30164.53
522.07	30150.20
522.27	30340.66
522.47	30309.94
522.68	30551.60
522.88	30457.39
523.08	30965.29
523.29	30613.04
523.49	30647.85
523.70	31135.27
523.90	31077.93
524.10	31118.89
524.31	31223.33
524.51	30924.33
524.71	31233.57
524.92	31356.45
525.12	31714.84
525.33	31276.58
525.53	31563.29
525.73	31964.70
525.94	31913.50
526.14	31956.50
526.34	31968.79
526.55	32157.21
526.75	32093.72
526.95	32331.28
527.16	32075.29
527.36	32437.78
527.56	32497.17
527.77	32321.04
527.97	32583.18
528.17	33015.30
528.38	32882.19
528.58	32521.74
528.78	33134.09
528.99	32884.23
529.19	33480.19
529.39	32894.47
529.60	33279.49
529.80	33342.98
530.00	33304.07
530.21	33619.46
530.41	33932.79
530.61	33588.74
530.82	33863.16
531.02	33990.14
531.22	34219.51
531.43	34256.37
531.63	34303.48
531.83	34854.38
532.04	34940.39
532.24	34375.16
532.44	34657.78
532.64	35100.14
532.85	34985.45
533.05	35212.77
533.25	34774.51
533.46	35280.36
533.66	35231.21
533.86	35292.65
534.07	35661.28
534.27	35229.16
534.47	35759.58
534.67	35622.37
534.88	35689.95
535.08	35902.94
535.28	35706.34
535.49	36359.64
535.69	36376.02
535.89	36511.19
536.09	36283.86
536.30	36552.15
536.50	36216.28
536.70	37074.38
536.91	36644.30
537.11	36949.45
537.31	36926.92
537.51	37023.18
537.72	37375.43
537.92	37506.50
538.12	37336.52
538.32	37344.71
538.53	37492.16
538.73	37060.04
538.93	37483.97
539.13	37436.87
539.34	37451.20
539.54	37424.58
539.74	38167.99
539.94	37930.43
540.15	37809.60
540.35	38225.34
540.55	38170.04
540.75	38063.55
540.96	38272.44
541.16	38768.05
541.36	38321.59
541.56	38378.93
541.77	38653.36
541.97	38849.97
542.17	38899.12
542.37	38704.56
542.58	38704.56
542.78	38567.35
542.98	38837.68
543.18	38882.73
543.38	39421.35
543.59	39251.37
543.79	38983.09
543.99	38917.55
544.19	39394.73
544.40	39138.73
544.60	39622.05
544.80	39554.47
545.00	39722.40
545.20	39740.83
545.41	39390.63
545.61	39583.14
545.81	40074.65
546.01	40134.04
546.21	39685.54
546.42	40172.96
546.62	40002.97
546.82	40107.42
547.02	40166.81
547.22	40170.91
547.43	40056.22
547.63	40508.82
547.83	40527.25
548.03	40205.72
548.23	40603.03
548.44	40611.22
548.64	40762.77
548.84	40734.10
549.04	40474.01
549.24	40959.38
549.45	40754.58
549.65	40727.95
549.85	40813.97
550.05	41211.28
550.25	41000.33
550.45	41434.50
550.66	41123.21
550.86	40942.99
551.06	41629.06
551.26	41250.19
551.46	41395.59
551.66	41766.27
551.87	41530.76
552.07	41256.33
552.27	41409.93
552.47	41274.76
552.67	41719.17
552.87	41706.88
553.07	41383.30
553.28	41946.50
553.48	41649.54
553.68	41762.18
553.88	41788.80
554.08	41745.80
554.28	42018.17
554.48	41590.15
554.69	42327.42
554.89	41954.69
555.09	41620.87
555.29	41674.12
555.49	42421.62
555.69	42179.96
555.89	41950.59
556.10	42335.61
556.30	42016.13
556.50	42288.51
556.70	42196.35
556.90	42296.70
557.10	42366.33
557.30	42208.64
557.50	42743.16
557.70	42904.95
557.91	42790.26
558.11	42554.74
558.31	43298.16
558.51	42669.43
558.71	42771.83
558.91	42890.61
559.11	42712.44
559.31	42730.87
559.51	42902.90
559.72	42849.65
559.92	43171.18
560.12	43050.35
560.32	42931.57
560.52	42610.04
560.72	43103.60
560.92	42739.06
561.12	42995.06
561.32	43062.64
561.52	43097.45
561.72	43361.64
561.93	42980.72
562.13	43169.13
562.33	42947.95
562.53	43674.98
562.73	43210.09
562.93	43128.17
563.13	43666.79
563.33	43472.23
563.53	43484.52
563.73	43058.54
563.93	43615.59
564.13	43826.53
564.33	44090.72
564.53	43502.95
564.74	43713.89
564.94	43445.61
565.14	44014.94
565.34	43216.24
565.54	44043.62
565.74	44051.81
565.94	44215.65
566.14	43660.65
566.34	43468.14
566.54	44146.01
566.74	43662.69
566.94	44252.51
567.14	44121.44
567.34	43930.98
567.54	44246.36
567.74	44148.06
567.94	43728.23
568.14	44250.46
568.34	44170.59
568.54	44424.54
568.74	44447.07
568.94	44193.12
569.14	44500.31
569.34	44709.21
569.54	44252.51
569.75	44354.91
569.95	44180.83
570.15	44934.48
570.35	44596.57
570.55	44834.13
570.75	44502.36
570.95	44420.44
571.15	44762.45
571.35	45155.66
571.55	44791.12
571.75	44721.49
571.95	44891.48
572.15	44641.62
572.35	45294.92
572.55	45016.40
572.75	45077.84
572.95	45159.76
573.15	45067.60
573.35	44703.06
573.55	45124.94
573.75	45008.21
573.95	45208.91
574.15	45342.03
574.35	45602.12
574.55	45262.16
574.75	44887.38
574.95	45540.68
575.15	45348.17
575.34	45509.96
575.54	45708.61
575.74	45749.57
575.94	45991.23
576.14	45522.25
576.34	45716.81
576.54	45823.30
576.74	46073.15
576.94	45794.63
577.14	46363.96
577.34	46511.42
577.54	45673.80
577.74	46165.31
577.94	46077.25
578.14	45915.46
578.34	46249.28
578.54	45888.84
578.74	45978.95
578.94	46284.09
579.14	46210.37
579.34	46548.28
579.54	46495.03
579.74	46757.17
579.94	46478.65
580.13	47043.89
580.33	46777.65
580.53	47027.51
580.73	46732.60
580.93	46744.89
581.13	46724.41
581.33	47357.23
581.53	47127.86
581.73	47265.07
581.93	47234.35
582.13	47625.51
582.33	47301.93
582.53	47166.77
582.73	47815.97
582.92	47414.57
583.12	47576.36
583.32	47535.40
583.52	47576.36
583.72	47818.02
583.92	47275.31
584.12	47830.31
584.32	48411.93
584.52	47707.43
584.72	47985.96
584.92	48051.49
585.11	48446.75
585.31	47815.97
585.51	47824.17
585.71	48006.44
585.91	48596.25
586.11	48350.49
586.31	47985.96
586.51	48313.63
586.71	48428.32
586.91	48469.28
587.10	48717.08
587.30	48485.66
587.50	48850.20
587.70	48743.70
587.90	48987.41
588.10	48948.50
588.30	48760.09
588.50	49247.50
588.69	49116.43
588.89	48776.47
589.09	49141.01
589.29	48844.05
589.49	49321.23
589.69	49194.26
589.89	49509.64
590.08	49546.51
590.28	49179.92
590.48	49429.77
590.68	49011.99
590.88	49575.18
591.08	49169.68
591.28	49509.64
591.47	49835.27
591.67	49450.25
591.87	50042.12
592.07	49786.12
592.27	49878.28
592.47	49880.33
592.67	49935.62
592.86	49712.39
593.06	49939.72
593.26	50115.84
593.46	49929.48
593.66	49906.95
593.86	50058.50
594.05	50468.09
594.25	50781.43
594.45	50130.18
594.65	50334.98
594.85	49732.87
595.05	50623.74
595.24	50803.96
595.44	50609.40
595.64	50709.75
595.84	50478.33
596.04	50957.56
596.23	51010.81
596.43	51090.68
596.63	50599.16
596.83	51019.00
597.03	51221.75
597.22	51383.54
597.42	51274.99
597.62	51313.90
597.82	51479.79
598.02	51188.98
598.21	51442.93
598.41	51348.72
598.61	51526.89
598.81	51518.70
599.01	51733.74
599.20	51418.35
599.40	51530.99
599.60	51864.81
599.80	51692.78
600.00	52069.61
600.19	52579.55
600.39	51934.44
600.59	52337.89
600.79	51963.11
600.98	52131.04
601.18	52057.32
601.38	52421.86
601.58	52505.82
601.78	52518.11
601.97	52212.96
602.17	53062.87
602.37	52839.64
602.57	52450.53
602.76	53187.80
602.96	53171.41
603.16	53118.17
603.36	52864.22
603.55	53118.17
603.75	53179.60
603.95	53554.38
604.15	53392.59
604.34	53023.96
604.54	53564.62
604.74	53173.46
604.94	53568.72
605.13	53507.28
605.33	53562.57
605.53	53284.05
605.73	54133.96
605.92	53492.94
606.12	53638.35
606.32	53863.63
606.52	53718.22
606.71	54162.63
606.91	54162.63
607.11	53918.92
607.30	53753.04
607.50	53974.22
607.70	54590.66
607.90	54027.46
608.09	54244.55
608.29	54305.99
608.49	54518.98
608.68	54594.75
608.88	54228.16
609.08	54346.95
609.28	54998.20
609.47	54287.56
609.67	55073.98
609.87	54736.06
610.06	55008.44
610.26	54604.99
610.46	55166.13
610.66	54508.74
610.85	54779.07
611.05	54457.54
611.25	55180.47
611.44	54781.12
611.64	55280.82
611.84	54920.38
612.03	54699.20
612.23	55397.55
612.43	55114.94
612.62	54928.57
612.82	55243.96
613.02	55350.45
613.21	55145.65
613.41	55035.06
613.61	55694.51
613.80	54561.98
614.00	55405.75
614.20	55336.12
614.39	55141.56
614.59	55442.61
614.79	55207.09
614.98	55477.43
615.18	55141.56
615.38	55717.04
615.57	55082.17
615.77	55512.24
615.97	55704.75
616.16	55489.71
616.36	55602.35
616.56	55284.92
616.75	55579.82
616.95	55250.10
617.15	55657.65
617.34	55876.78
617.54	55536.82
617.74	56028.33
617.93	55850.16
618.13	55205.05
618.32	56267.94
618.52	54889.66
618.72	55569.58
618.91	55602.35
619.11	55778.48
619.31	55645.36
619.50	55323.83
619.70	55497.91
619.90	55608.50
620.09	55243.96
620.29	56169.64
620.48	55786.67
620.68	55878.83
620.88	55270.58
621.07	55172.28
621.27	55557.30
621.46	55452.85
621.66	55628.98
621.86	55780.52
622.05	55649.45
622.25	55841.96
622.44	55956.65
622.64	55465.14
622.84	56243.37
623.03	55479.47
623.23	55948.46
623.42	55581.87
623.62	55973.03
623.82	55880.88
624.01	55461.04
624.21	55907.50
624.40	55944.36
624.60	55510.19
624.80	55364.79
624.99	55700.65
625.19	55499.95
625.38	56071.34
625.58	56009.90
625.77	55483.57
625.97	55844.01
626.17	55301.30
626.36	55911.59
626.56	55977.13
626.75	55321.78
626.95	55899.31
627.14	55438.51
627.34	56061.10
627.54	55375.03
627.73	55557.30
627.93	55987.37
628.12	55559.34
628.32	55977.13
628.51	55782.57
628.71	55731.37
628.90	55835.82
629.10	55825.58
629.30	56542.37
629.49	55717.04
629.69	55872.68
629.88	56009.90
630.08	56206.50
630.27	56341.67
630.47	55762.09
630.66	55938.22
630.86	55889.07
631.05	55358.64
631.25	56231.08
631.44	56057.00
631.64	55882.92
631.84	55884.97
632.03	56906.91
632.23	55669.93
632.42	56329.38
632.62	56114.34
632.81	55749.81
633.01	56134.82
633.20	56515.75
633.40	56079.53
633.59	56505.51
633.79	55647.41
633.98	56183.97
634.18	56104.10
634.37	56589.47
634.57	55995.56
634.76	56235.17
634.96	56220.84
635.15	56411.30
635.35	56208.55
635.54	55442.61
635.74	56595.62
635.93	56269.99
636.13	56235.17
636.32	56906.91
636.52	56087.72
636.71	56370.34
636.91	56306.85
637.10	56482.98
637.30	56388.77
637.49	56118.44
637.69	56100.01
637.88	56456.35
638.08	56448.16
638.27	56540.32
638.46	56272.04
638.66	56044.71
638.85	56290.47
639.05	56163.50
639.24	56444.07
639.44	56566.94
639.63	56523.94
639.83	56575.14
640.02	56661.15
640.22	56716.45
640.41	57070.75
640.61	56456.35
640.80	56255.65
640.99	56439.97
641.19	56396.96
641.38	56255.65
641.58	56509.60
641.77	56304.80
641.97	56302.76
642.16	57093.27
642.36	56679.58
642.55	57138.33
642.74	56392.87
642.94	57154.71
643.13	56894.62
643.33	56890.52
643.52	56876.19
643.72	56700.06
643.91	56693.92
644.10	56769.69
644.30	56972.44
644.49	56435.87
644.69	56612.00
644.88	56855.71
645.08	56523.94
645.27	56226.98
645.46	56609.95
645.66	57160.86
645.85	56497.31
646.05	56718.49
646.24	57068.70
646.43	57005.21
646.63	56915.10
646.82	57175.19
647.02	56722.59
647.21	57078.94
647.40	56906.91
647.60	57187.48
647.79	56958.11
647.99	57400.47
648.18	56648.86
648.37	57230.49
648.57	57115.80
648.76	57103.51
648.96	56698.01
649.15	57242.77
649.34	56988.83
649.54	57326.74
649.73	57140.38
649.92	56960.15
650.12	56837.28
650.31	57226.39
650.51	57283.73
650.70	57193.62
650.89	56978.59
651.09	57627.79
651.28	56988.83
651.47	57316.50
651.67	57423.00
651.86	57488.53
652.06	57064.60
652.25	57343.12
652.44	57562.26
652.64	56943.77
652.83	57146.52
653.02	56618.14
653.22	57197.72
653.41	57060.51
653.60	56931.48
653.80	56976.54
653.99	56980.63
654.18	57459.86
654.38	56720.54
654.57	57726.10
654.76	57005.21
654.96	56882.33
655.15	57136.28
655.34	56962.20
655.54	56360.10
655.73	57439.38
655.92	57167.00
656.12	56781.98
656.31	57248.92
656.50	57095.32
656.70	57423.00
656.89	57271.45
657.08	57382.04
657.28	56943.77
657.47	57040.03
657.66	57066.65
657.86	57474.20
658.05	57339.03
658.24	57246.87
658.43	56982.68
658.63	57492.63
658.82	57615.50
659.01	57683.09
659.21	57197.72
659.40	57169.05
659.59	57076.89
659.79	57402.52
659.98	57494.67
660.17	57775.25
660.36	57365.65
660.56	57697.42
660.75	57146.52
660.94	57349.27
661.14	57105.56
661.33	57095.32
661.52	57130.14
661.71	57736.34
661.91	57109.66
662.10	56949.92
662.29	57828.49
662.49	57429.14
662.68	57222.29
662.87	57250.97
663.06	57420.95
663.26	57267.35
663.45	57097.37
663.64	57300.12
663.83	57332.89
664.03	57021.59
664.22	57341.08
664.41	57218.20
664.60	57169.05
664.80	56927.39
664.99	56902.81
665.18	56902.81
665.37	57285.78
665.57	57263.25
665.76	56908.96
665.95	57138.33
666.14	57111.70
666.34	57304.21
666.53	57382.04
666.72	56997.02
666.91	56968.35
667.11	57218.20
667.30	57175.19
667.49	57007.26
667.68	56822.94
667.87	56804.51
668.07	56747.17
668.26	56939.68
668.45	56548.51
668.64	56878.24
668.84	57355.41
669.03	57181.34
669.22	56988.83
669.41	57015.45
669.60	56947.87
669.80	56450.21
669.99	57087.13
670.18	57449.62
670.37	56652.96
670.57	57517.20
670.76	56738.97
670.95	57152.66
671.14	57001.11
671.33	56712.35
671.53	57345.17
671.72	56900.76
671.91	56419.49
672.10	57361.56
672.29	56661.15
672.48	56894.62
672.68	57183.38
672.87	56941.72
673.06	56761.50
673.25	56712.35
673.44	56278.18
673.64	56915.10
673.83	56728.73
674.02	56665.25
674.21	56231.08
674.40	56519.84
674.59	56145.06
674.79	56239.27
674.98	55841.96
675.17	56618.14
675.36	56458.40
675.55	56487.07
675.74	56439.97
675.94	56482.98
676.13	57056.41
676.32	56882.33
676.51	57210.01
676.70	56681.63
676.89	56677.54
677.08	56927.39
677.28	56288.42
677.47	56800.41
677.66	56677.54
677.85	56147.11
678.04	56997.02
678.23	56464.55
678.42	56550.56
678.62	56433.83
678.81	56605.86
679.00	56224.93
679.19	56929.44
679.38	56485.03
679.57	56442.02
679.76	56806.56
679.96	56640.67
680.15	56374.44
680.34	56464.55
680.53	55815.34
680.72	56659.10
680.91	56267.94
681.10	55907.50
681.29	56179.88
681.48	55993.51
681.68	55801.00
681.87	55895.21
682.06	56229.03
682.25	55723.18
682.44	55645.36
682.63	56061.10
682.82	55671.98
683.01	56026.28
683.20	55719.09
683.39	56226.98
683.59	55671.98
683.78	55559.34
683.97	55350.45
684.16	56034.47
684.35	55407.79
684.54	56022.19
684.73	55571.63
684.92	55420.08
685.11	55776.43
685.30	55323.83
685.49	55862.44
685.69	55776.43
685.88	55719.09
686.07	55481.52
686.26	55581.87
686.45	55573.68
686.64	55332.02
686.83	55424.18
687.02	55647.41
687.21	55549.10
687.40	55497.91
687.59	55358.64
687.78	55129.27
687.97	56073.38
688.16	55291.06
688.35	55051.45
688.54	55387.31
688.74	55678.13
688.93	54957.24
689.12	55338.16
689.31	55186.61
689.50	55274.68
689.69	54582.46
689.88	54854.84
690.07	54985.91
690.26	54990.01
690.45	55602.35
690.64	55059.64
690.83	54711.49
691.02	54465.73
691.21	55129.27
691.40	54555.84
691.59	55010.49
691.78	54727.87
691.97	54963.39
692.16	54598.85
692.35	55145.65
692.54	54852.80
692.73	54938.81
692.92	54883.51
693.11	54711.49
693.30	54932.67
693.49	55221.43
693.68	54334.66
693.87	54883.51
694.06	54269.12
694.25	54568.13
694.44	54285.51
694.63	54467.78
694.82	54486.21
695.01	54475.97
695.20	54189.25
695.39	54322.37
695.58	54666.43
695.77	54068.42
695.96	54004.94
696.15	54301.89
696.34	53675.21
696.53	54330.56
696.72	54715.58
696.91	54510.78
697.10	54318.28
697.29	54236.36
697.48	54121.67
697.67	53826.76
697.86	53761.23
698.05	54043.85
698.24	54287.56
698.43	53558.48
698.62	54158.53
698.81	53882.06
699.00	54179.01
699.19	53673.16
699.38	53621.97
699.57	53161.17
699.76	54287.56
699.95	53591.25
700.14	53007.58
700.32	53333.20
700.51	53548.24
700.70	54258.88
700.89	53828.81
701.08	53710.03
701.27	53843.15
701.46	53892.30
701.65	53230.80
701.84	53740.75
702.03	53828.81
702.22	53550.29
702.41	53560.53
702.60	53800.14
702.79	53554.38
702.98	52851.93
703.17	53359.83
703.35	53116.12
703.54	53075.16
703.73	53456.08
703.92	52788.44
704.11	53667.02
704.30	52890.84
704.49	52948.18
704.68	53056.73
704.87	53087.45
705.06	52851.93
705.25	52561.12
705.43	52581.60
705.62	52800.73
705.81	52921.56
706.00	52995.29
706.19	52612.32
706.38	52774.11
706.57	52903.13
706.76	52524.25
706.95	52772.06
707.14	52294.88
707.32	52364.51
707.51	52450.53
707.70	52415.71
707.89	52278.50
708.08	52868.31
708.27	52483.30
708.46	52772.06
708.65	52516.06
708.84	52847.83
709.02	52706.52
709.21	52597.98
709.40	52401.38
709.59	52927.70
709.78	51952.87
709.97	52778.20
710.16	51995.88
710.34	52499.68
710.53	52100.32
710.72	51995.88
710.91	52245.73
711.10	52323.55
711.29	51827.95
711.48	52215.01
711.66	51815.66
711.85	52004.07
712.04	52184.29
712.23	52262.11
712.42	51942.63
712.61	51737.83
712.80	51637.48
712.98	51866.86
713.17	51520.75
713.36	51844.33
713.55	51877.10
713.74	51412.21
713.93	51238.13
714.11	51471.60
714.30	51856.62
714.49	51426.54
714.68	51795.18
714.87	51721.45
715.06	51684.59
715.24	51475.69
715.43	51463.41
715.62	51293.43
715.81	51287.28
716.00	51676.40
716.18	51254.51
716.37	50994.42
716.56	51016.95
716.75	52061.41
716.94	51166.45
717.12	50877.69
717.31	51528.94
717.50	50902.26
717.69	51109.11
717.88	50504.96
718.06	50906.36
718.25	51031.29
718.44	50533.63
718.63	50820.34
718.82	50623.74
719.00	50754.81
719.19	50453.76
719.38	50283.78
719.57	50109.70
719.76	49872.14
719.94	49884.42
720.13	50449.66
720.32	50126.08
720.51	50218.24
720.69	50156.80
720.88	50019.59
721.07	49956.10
721.26	49894.66
721.44	49857.80
721.63	50173.19
721.82	49757.45
722.01	49736.97
722.20	50259.20
722.38	49870.09
722.57	49415.44
722.76	49655.05
722.95	49483.02
723.13	49448.21
723.32	48821.53
723.51	49177.87
723.70	49059.09
723.88	49202.45
724.07	49247.50
724.26	49036.56
724.44	48645.40
724.63	49366.29
724.82	49341.71
725.01	48989.46
725.19	49325.33
725.38	48995.60
725.57	49460.49
725.76	49304.85
725.94	48485.66
726.13	48811.29
726.32	48907.54
726.51	48727.32
726.69	48938.26
726.88	49073.43
727.07	48729.37
727.25	48700.70
727.44	48641.31
727.63	48866.58
727.82	49118.48
728.00	48651.55
728.19	48758.04
728.38	48993.56
728.56	48508.19
728.75	48870.68
728.94	48696.60
729.12	48852.25
729.31	48551.20
729.50	48596.25
729.69	48999.70
729.87	48493.85
730.06	48483.61
730.25	48209.18
730.43	48825.62
730.62	48485.66
730.81	49028.37
730.99	48620.83
731.18	48391.45
731.37	48702.74
731.55	48502.04
731.74	48700.70
731.93	48418.08
732.11	48649.50
732.30	48837.91
732.49	48426.27
732.67	48938.26
732.86	48784.66
733.05	48317.73
733.23	48272.67
733.42	48608.54
733.61	47953.19
733.79	48129.31
733.98	49085.72
734.17	48149.79
734.35	48307.49
734.54	48473.37
734.73	48733.46
734.91	48522.52
735.10	47975.72
735.29	48717.08
735.47	48342.30
735.66	48295.20
735.84	48567.58
736.03	47983.91
736.22	48573.72
736.40	48422.17
736.59	48387.36
736.78	48448.80
736.96	47971.62
737.15	48086.31
737.33	48055.59
737.52	48211.23
737.71	48194.85
737.89	47553.83
738.08	48219.42
738.27	47830.31
738.45	48346.40
738.64	47795.49
738.82	47996.20
739.01	48211.23
739.20	48190.75
739.38	48084.26
739.57	47869.22
739.75	48049.44
739.94	47877.41
740.13	48012.58
740.31	47768.87
740.50	47723.82
740.68	47809.83
740.87	48108.83
741.06	48145.70
741.24	47703.34
741.43	47506.73
741.61	47805.73
741.80	47600.94
741.99	47394.09
742.17	47453.48
742.36	47412.52
742.54	47308.08
742.73	47207.73
742.91	47658.28
743.10	47250.74
743.29	47516.97
743.47	47490.35
743.66	47334.70
743.84	47527.21
744.03	46900.53
744.21	47156.53
744.40	47510.83
744.59	47263.02
744.77	47093.04
744.96	47306.03
745.14	47496.49
745.33	47586.60
745.51	47248.69
745.70	47007.03
745.88	47504.68
746.07	47492.40
746.26	46902.58
746.44	46734.65
746.63	47445.29
746.81	47195.44
747.00	46759.22
747.18	47172.91
747.37	46683.45
747.55	46765.37
747.74	47195.44
747.92	46955.83
748.11	46783.80
748.29	46880.05
748.48	46791.99
748.66	46857.52
748.85	46544.19
749.03	46351.68
749.22	46976.31
749.41	46423.36
749.59	46964.02
749.78	46019.91
749.96	46015.81
750.15	46404.92
750.33	46820.66
750.52	46423.36
750.70	46740.79
750.89	46185.79
751.07	45923.65
751.26	46224.70
751.44	46159.17
751.63	46380.35
751.81	46406.97
752.00	45923.65
752.18	46466.36
752.37	46398.78
752.55	45518.15
752.74	45851.97
752.92	45743.43
753.10	46091.58
753.29	46122.30
753.47	45614.41
753.66	45872.45
753.84	45528.39
754.03	45430.09
754.21	45770.05
754.40	45555.02
754.58	45802.82
754.77	45847.88
754.95	45428.04
755.14	45589.83
755.32	45342.03
755.51	45296.97
755.69	45348.17
755.88	45393.23
756.06	45516.11
756.24	44811.60
756.43	45225.29
756.61	45567.30
756.80	44852.56
756.98	44959.06
757.17	45112.66
757.35	45262.16
757.54	44844.37
757.72	45065.55
757.90	45061.46
758.09	44895.57
758.27	44920.15
758.46	44764.50
758.64	44967.25
758.83	44985.68
759.01	44834.13
759.19	44909.91
759.38	44789.08
759.56	45389.13
759.75	44721.49
759.93	44565.85
760.12	44891.48
760.30	44799.32
760.48	44330.33
760.67	44518.74
760.85	44571.99
761.04	44533.08
761.22	44143.97
761.40	44584.28
761.59	44313.95
761.77	43869.54
761.96	44250.46
762.14	44150.11
762.32	44258.65
762.51	43933.03
762.69	44156.25
762.88	44336.48
763.06	43947.36
763.24	44217.69
763.43	43916.64
763.61	43789.67
763.80	43758.95
763.98	44004.70
764.16	43990.37
764.35	43933.03
764.53	43556.20
764.72	43922.79
764.90	43695.46
765.08	43943.27
765.27	43806.05
765.45	43251.05
765.63	43132.27
765.82	43505.00
766.00	43384.17
766.18	43496.81
766.37	43701.61
766.55	43461.99
766.74	43359.59
766.92	43246.96
767.10	43079.02
767.29	43144.56
767.47	42956.14
767.65	43259.24
767.84	42640.76
768.02	42730.87
768.20	42577.27
768.39	43105.65
768.57	42876.27
768.75	43001.20
768.94	42958.19
769.12	43052.40
769.30	42712.44
769.49	42655.09
769.67	42591.61
769.85	42354.04
770.04	42624.37
770.22	42304.89
770.40	42192.25
770.59	42403.19
770.77	42657.14
770.95	41807.23
771.14	42079.61
771.32	41885.06
771.50	41995.65
771.69	41983.36
771.87	41678.21
772.05	41917.82
772.24	41620.87
772.42	41489.80
772.60	41895.30
772.78	41469.32
772.97	41352.58
773.15	41686.40
773.33	41287.05
773.52	41735.56
773.70	41573.77
773.88	41854.34
774.07	41602.44
774.25	41768.32
774.43	41604.49
774.61	41739.65
774.80	41749.89
774.98	41323.91
775.16	41737.60
775.34	41749.89
775.53	41547.14
775.71	41997.70
775.89	41901.44
776.08	41463.18
776.26	41905.54
776.44	41903.49
776.62	41508.23
776.81	41551.24
776.99	42175.87
777.17	41530.76
777.35	41622.92
777.54	42046.85
777.72	42044.80
777.90	41667.97
778.08	42034.56
778.27	42186.11
778.45	42323.32
778.63	42345.85
778.81	41733.51
779.00	42335.61
779.18	42032.51
779.36	42192.25
779.54	42206.59
779.73	41952.64
779.91	42227.07
780.09	42083.71
780.27	42124.67
780.46	42243.45
780.64	42315.13
780.82	41893.25
781.00	42024.32
781.19	42587.51
781.37	42556.79
781.55	42792.31
781.73	42751.35
781.91	42122.62
782.10	42585.46
782.28	42335.61
782.46	42470.78
782.64	42651.00
782.82	42745.20
783.01	42753.40
783.19	42636.66
783.37	42915.19
783.55	42460.54
783.74	43076.97
783.92	42098.05
784.10	43027.82
784.28	42567.03
784.46	42282.36
784.64	42481.02
784.83	42489.21
785.01	42618.23
785.19	42775.92
785.37	42575.22
785.55	42804.59
785.74	42182.01
785.92	42184.06
786.10	42390.91
786.28	42374.52
786.46	42050.94
786.64	41989.50
786.83	42196.35
787.01	42278.27
787.19	42640.76
787.37	42339.71
787.55	42315.13
787.74	42003.84
787.92	42100.09
788.10	41936.26
788.28	41969.02
788.46	41989.50
788.64	41696.64
788.82	42315.13
789.01	41674.12
789.19	42100.09
789.37	41915.78
789.55	41768.32
789.73	41244.04
789.91	41280.91
790.09	41391.50
790.28	41489.80
790.46	40998.29
790.64	41510.28
790.82	41360.78
791.00	40826.26
791.18	40805.78
791.36	41178.51
791.55	41215.37
791.73	41149.84
791.91	40342.94
792.09	40709.52
792.27	40281.50
792.45	40742.29
792.63	40496.53
792.81	40713.62
793.00	40555.93
793.18	40113.56
793.36	40132.00
793.54	40269.21
793.72	39941.53
793.90	40134.04
794.08	39347.62
794.26	39933.34
794.44	39546.28
794.62	39703.97
794.81	39910.82
794.99	39779.74
795.17	39450.02
795.35	39775.65
795.53	39282.09
795.71	39128.49
795.89	38925.74
796.07	38790.58
796.25	38743.47
796.43	38892.97
796.61	38768.05
796.80	38790.58
796.98	38602.16
797.16	38483.38
797.34	38358.45
797.52	38319.54
797.70	38751.66
797.88	38282.68
798.06	38514.10
798.24	38073.79
798.42	38176.19
798.60	38061.50
798.78	38206.90
798.96	37967.29
799.14	37805.50
799.32	37735.87
799.51	37533.12
799.69	37606.85
799.87	37508.55
800.05	37295.56
800.23	37084.62
800.41	37387.72
800.59	37277.13
800.77	36771.28
800.95	36705.74
801.13	37256.65
801.31	36322.77
801.49	37082.57
801.67	36548.05
801.85	36400.60
802.03	36296.15
802.21	36253.14
802.39	36017.63
802.57	35927.52
802.75	36025.82
802.93	36199.90
803.11	36230.62
803.29	35724.77
803.47	35950.04
803.65	35444.20
803.83	35472.87
804.01	35702.24
804.19	35208.68
804.37	35427.81
804.55	35534.31
804.73	35485.15
804.91	34921.96
805.09	35278.31
805.27	35042.79
805.45	35368.42
805.63	34962.92
805.81	34958.83
805.99	35165.67
806.17	35040.75
806.35	34872.81
806.53	34332.15
806.71	34528.75
806.89	34403.83
807.07	34446.83
807.25	34508.27
807.43	34139.64
807.61	34526.71
807.79	34158.07
807.97	34323.96
808.15	34014.71
808.33	33625.60
808.51	33852.92
808.69	33981.95
808.87	33234.44
809.05	33682.94
809.23	33363.46
809.41	33265.16
809.59	33254.92
809.77	33398.27
809.95	33365.51
810.13	33709.57
810.31	32906.76
810.49	33199.62
810.67	33297.92
810.84	33060.36
811.02	32894.47
811.20	32933.39
811.38	33029.64
811.56	32347.67
811.74	32278.04
811.92	32636.43
812.10	32286.23
812.28	32740.88
812.46	32425.49
812.64	32777.74
812.82	32089.62
813.00	32306.71
813.18	32437.78
813.36	32202.26
813.53	31925.78
813.71	32030.23
813.89	31663.64
814.07	31749.66
814.25	32351.76
814.43	31874.59
814.61	31649.31
814.79	31471.14
814.97	31362.59
815.15	31823.39
815.33	31047.21
815.50	30998.06
815.68	31385.12
815.86	31069.73
816.04	31268.39
816.22	31149.60
816.40	31043.11
816.58	31004.20
816.76	31020.58
816.94	30920.23
817.11	30977.58
817.29	30942.76
817.47	30445.10
817.65	30725.68
817.83	30963.24
818.01	30725.68
818.19	30598.70
818.37	30350.90
818.54	30045.75
818.72	29992.50
818.90	30699.05
819.08	29945.40
819.26	29980.21
819.44	30094.90
819.62	29808.19
819.80	30019.13
819.97	30076.47
820.15	29939.26
820.33	29830.71
820.51	29718.07
820.69	29521.47
820.87	29785.66
821.05	29836.86
821.22	29752.89
821.40	29750.84
821.58	29902.39
821.76	29636.16
821.94	29474.37
822.12	29453.89
822.29	29572.67
822.47	29285.95
822.65	29627.96
822.83	29462.08
823.01	29093.44
823.19	29075.01
823.36	29013.57
823.54	28896.84
823.72	28993.09
823.90	28800.58
824.08	28896.84
824.25	29062.72
824.43	28853.83
824.61	28741.19
824.79	28454.48
824.97	28591.69
825.15	28679.75
825.32	28743.24
825.50	28802.63
825.68	28413.52
825.86	28673.61
826.04	28735.05
826.21	28599.88
826.39	28646.99
826.57	28100.18
826.75	27965.01
826.93	28642.89
827.10	28167.76
827.28	28073.56
827.46	27846.23
827.64	28016.21
827.81	27934.29
827.99	28128.85
828.17	27790.94
828.35	27639.39
828.53	27711.07
828.70	27854.42
828.88	27846.23
829.06	27567.71
829.24	27741.78
829.41	27403.87
829.59	27672.15
829.77	27467.36
829.95	27541.08
830.12	27430.49
830.30	27412.06
830.48	27489.88
830.66	27268.70
830.84	27197.02
831.01	27160.16
831.19	27250.27
831.37	27260.51
831.55	27145.83
831.72	27090.53
831.90	26871.40
832.08	27129.44
832.25	26861.16
832.43	27018.85
832.61	26793.58
832.79	26869.35
832.96	26789.48
833.14	26682.98
833.32	27082.34
833.50	26457.71
833.67	26969.70
833.85	26801.77
834.03	26252.91
834.20	26676.84
834.38	26654.31
834.56	26590.83
834.74	26230.38
834.91	26678.89
835.09	26293.87
835.27	26345.07
835.44	26336.88
835.62	26211.95
835.80	26017.40
835.98	26103.41
836.15	26494.57
836.33	25845.37
836.51	26035.83
836.68	25888.37
836.86	26140.27
837.04	26500.72
837.21	25982.58
837.39	26152.56
837.57	26054.26
837.75	25951.86
837.92	25757.30
838.10	25624.18
838.28	25417.34
838.45	25708.15
838.63	25661.05
838.81	25656.95
838.98	25550.46
839.16	25278.08
839.34	25257.60
839.51	25327.23
839.69	25245.31
839.87	25104.00
840.04	25312.89
840.22	25601.66
840.40	25286.27
840.57	25013.89
840.75	25495.16
840.93	24927.88
841.10	24974.98
841.28	25474.68
841.46	24985.22
841.63	25237.12
841.81	24919.68
841.98	24942.21
842.16	24940.16
842.34	24858.24
842.51	24704.65
842.69	25011.84
842.87	24954.50
843.04	24944.26
843.22	24561.29
843.40	24460.94
843.57	24448.65
843.75	24929.92
843.92	24510.09
844.10	24610.44
844.28	24745.61
844.45	24473.23
844.63	24571.53
844.81	24710.79
844.98	24540.81
845.16	24516.23
845.33	24290.96
845.51	24553.10
845.69	24243.85
845.86	24188.56
846.04	24012.43
846.21	24100.50
846.39	24370.83
846.57	24127.12
846.74	24180.37
846.92	24041.11
847.09	24016.53
847.27	23936.66
847.45	24069.78
847.62	23991.95
847.80	24092.30
847.97	24172.18
848.15	23957.14
848.32	23504.54
848.50	23695.00
848.68	23680.66
848.85	23641.75
849.03	23518.87
849.20	23512.73
849.38	23568.02
849.56	23183.01
849.73	23436.95
849.91	23662.23
850.08	23602.84
850.26	23174.81
850.43	23291.55
850.61	23363.23
850.78	23305.88
850.96	23457.43
851.14	23221.92
851.31	23236.25
851.49	23207.58
851.66	23199.39
851.84	23250.59
852.01	22965.92
852.19	23148.19
852.36	23137.95
852.54	22892.19
852.71	23209.63
852.89	22890.15
853.07	22804.13
853.24	23113.38
853.42	22908.58
853.59	23064.22
853.77	22914.72
853.94	23039.65
854.12	23006.88
854.29	22503.08
854.47	22912.67
854.64	22736.55
854.82	22613.67
854.99	22781.60
855.17	22728.36
855.34	22513.32
855.52	22740.64
855.69	22482.60
855.87	22498.98
856.04	22376.11
856.22	22234.80
856.39	22333.10
856.57	22238.89
856.74	22120.11
856.92	22349.48
857.09	22066.86
857.27	22283.95
857.44	22439.59
857.62	22187.69
857.79	22202.03
857.97	22259.37
858.14	22122.16
858.32	22034.10
858.49	21952.18
858.67	21903.03
858.84	21763.76
859.02	21761.72
859.19	22034.10
859.37	21618.36
859.54	21761.72
859.72	21616.31
859.89	21696.18
860.06	21933.75
860.24	21798.58
860.41	21583.54
860.59	21464.76
860.76	21905.07
860.94	21255.87
861.11	21802.68
861.29	21788.34
861.46	21745.33
861.64	21376.70
861.81	21194.43
861.98	21638.84
862.16	21219.00
862.33	21266.11
862.51	20977.34
862.68	21145.28
862.86	21214.91
863.03	21110.46
863.21	21202.62
863.38	21206.72
863.55	21040.83
863.73	21345.98
863.90	21040.83
864.08	21319.35
864.25	21288.64
864.43	20827.84
864.60	20942.53
864.77	20672.20
864.95	20776.64
865.12	20516.55
865.30	20696.77
865.47	20674.24
865.64	20831.94
865.82	20637.38
865.99	20637.38
866.17	20606.66
866.34	20960.96
866.51	20301.51
866.69	20817.60
866.86	20473.54
867.04	20414.15
867.21	20453.06
867.38	20285.13
867.56	20371.15
867.73	20195.02
867.91	20436.68
868.08	20256.46
868.25	20205.26
868.43	19955.41
868.60	19934.93
868.78	20162.25
868.95	20303.56
869.12	19951.31
869.30	20066.00
869.47	19896.02
869.64	19723.99
869.82	19678.93
869.99	19896.02
870.16	20240.08
870.34	19936.98
870.51	19855.06
870.69	19609.30
870.86	19723.99
871.03	19879.63
871.21	19590.87
871.38	19867.34
871.55	19717.84
871.73	19416.79
871.90	19375.83
872.07	19418.84
872.25	19279.58
872.42	19347.16
872.59	19355.35
872.77	19316.44
872.94	19320.54
873.11	19228.38
873.29	19308.25
873.46	19250.91
873.63	19214.04
873.81	19185.37
873.98	19259.10
874.15	19277.53
874.33	18536.17
874.50	18755.30
874.67	19211.99
874.85	19105.50
875.02	18738.91
875.19	18691.81
875.37	18689.76
875.54	18439.91
875.71	18589.41
875.88	18112.24
876.06	18878.18
876.23	18450.15
876.40	18464.49
876.58	18134.76
876.75	18431.72
876.92	18357.99
877.10	18261.74
877.27	18407.14
877.44	18357.99
877.61	18276.07
877.79	18120.43
877.96	18042.60
878.13	18050.80
878.31	17919.73
878.48	17997.55
878.65	18018.03
878.82	17673.97
879.00	17825.52
879.17	17827.57
879.34	17821.42
879.51	17753.84
879.69	17725.17
879.86	17620.72
880.03	17637.11
880.21	17936.11
880.38	17692.40
880.55	17673.97
880.72	17485.56
880.90	17651.44
881.07	17600.24
881.24	17430.26
881.41	17520.37
881.59	17413.88
881.76	17544.95
881.93	17360.63
882.10	17188.60
882.28	16965.37
882.45	17223.42
882.62	17174.27
882.79	17446.65
882.96	16967.42
883.14	17315.58
883.31	17299.19
883.48	17254.14
883.65	17102.59
883.83	17288.95
884.00	17358.58
884.17	17096.44
884.34	17043.20
884.51	17112.83
884.69	17086.20
884.86	17037.05
885.03	16924.41
885.20	16885.50
885.38	17045.24
885.55	16793.34
885.72	16908.03
885.89	16783.10
886.06	16830.21
886.24	16635.65
886.41	16688.90
886.58	16844.54
886.75	16987.90
886.92	16523.01
887.10	16760.58
887.27	16590.59
887.44	16729.86
887.61	16889.60
887.78	16912.13
887.95	16705.28
888.13	16619.27
888.30	16566.02
888.47	16469.76
888.64	16406.28
888.81	16596.74
888.99	16568.07
889.16	16045.84
889.33	16211.72
889.50	16340.74
889.67	16170.76
889.84	16246.54
890.01	16152.33
890.19	16355.08
890.36	16207.62
890.53	16152.33
890.70	16051.98
890.87	16154.38
891.04	16211.72
891.22	16027.40
891.39	16131.85
891.56	15943.44
891.73	15832.85
891.90	15789.84
892.07	15677.20
892.24	15826.70
892.42	15830.80
892.59	15822.61
892.76	15628.05
892.93	15855.37
893.10	15877.90
893.27	15722.26
893.44	15537.94
893.61	15734.54
893.79	15714.06
893.96	15736.59
894.13	15576.85
894.30	15607.57
894.47	15509.27
894.64	15560.47
894.81	15517.46
894.98	15525.65
895.15	15439.64
895.33	15441.68
895.50	15714.06
895.67	15425.30
895.84	15417.11
896.01	15451.92
896.18	15361.81
896.35	15542.03
896.52	15519.51
896.69	15562.51
896.86	15425.30
897.04	15433.49
897.21	15232.79
897.38	15439.64
897.55	15691.54
897.72	15306.52
897.89	15197.98
898.06	15503.12
898.23	15421.20
898.40	15503.12
898.57	15404.82
898.74	15439.64
898.91	15499.03
899.08	15247.13
899.26	15433.49
899.43	15501.08
899.60	15257.37
899.77	15312.66
899.94	15468.31
900.11	15331.09
900.28	15367.96
900.45	15220.50
900.62	15101.72
900.79	15370.01
900.96	15286.04
901.13	15478.55
901.30	15136.54
901.47	15046.43
901.64	15271.70
901.81	15357.72
901.98	15347.48
902.15	15257.37
902.32	15204.12
902.49	15161.11
902.66	15240.98
902.83	15322.90
903.01	15173.40
903.18	15298.33
903.35	15396.63
903.52	15378.20
903.69	15572.75
903.86	15398.68
904.03	15329.05
904.20	15419.16
904.37	15466.26
904.54	15177.50
904.71	15140.63
904.88	15312.66
905.05	15130.39
905.22	15101.72
905.39	15030.04
905.56	15324.95
905.73	15134.49
905.90	15050.52
906.07	15357.72
906.24	15273.75
906.41	15095.58
906.58	15236.89
906.75	15177.50
906.92	14950.17
907.09	15154.97
907.26	14894.88
907.43	14880.54
907.60	15114.01
907.77	15339.29
907.93	14999.32
908.10	15218.46
908.27	15142.68
908.44	15066.91
908.61	15097.63
908.78	15036.19
908.95	15019.80
909.12	15027.99
909.29	14923.55
909.46	15197.98
909.63	15216.41
909.80	15210.26
909.97	14962.46
910.14	14851.87
910.31	15075.10
910.48	14950.17
910.65	15073.05
910.82	14827.29
910.99	14917.40
911.16	15052.57
911.33	14800.67
911.50	14843.68
911.66	14792.48
911.83	14964.51
912.00	14896.92
912.17	14829.34
912.34	14606.11
912.51	14673.70
912.68	14495.52
912.85	14860.06
913.02	14612.26
913.19	14438.18
913.36	14380.84
913.53	14745.38
913.70	14610.21
913.86	14812.96
914.03	14546.72
914.20	14493.47
914.37	14630.69
914.54	14300.97
914.71	14542.63
914.88	14438.18
915.05	14421.80
915.22	14270.25
915.39	14452.52
915.55	14366.50
915.72	14182.18
915.89	14173.99
916.06	14022.44
916.23	14069.55
916.40	13893.42
916.57	13987.63
916.74	14004.01
916.91	14106.41
917.07	13809.45
917.24	13707.05
917.41	13969.19
917.58	13934.38
917.75	13612.85
917.92	13682.48
918.09	13637.42
918.26	13680.43
918.42	13492.02
918.59	13750.06
918.76	13621.04
918.93	13451.06
919.10	13236.02
919.27	13461.30
919.44	13342.52
919.60	13346.61
919.77	13301.56
919.94	13283.13
920.11	13326.13
920.28	13145.91
920.45	13276.98
920.61	13018.94
920.78	13027.13
920.95	13010.75
921.12	13178.68
921.29	12799.80
921.46	12707.65
921.62	12715.84
921.79	12787.52
921.96	12969.79
922.13	12851.00
922.30	12691.26
922.47	12877.63
922.63	12416.83
922.80	12515.14
922.97	12820.28
923.14	12382.02
923.31	12414.79
923.47	12279.62
923.64	12578.62
923.81	12410.69
923.98	12447.55
924.15	12371.78
924.32	12207.94
924.48	12269.38
924.65	12185.41
924.82	12037.96
924.99	11784.01
925.15	11923.27
925.32	11683.66
925.49	11855.69
925.66	11931.47
925.83	11898.70
925.99	11638.61
926.16	11714.38
926.33	11726.67
926.50	11364.18
926.67	11661.13
926.83	11628.37
927.00	11519.82
927.17	11480.91
927.34	11280.21
927.50	11444.05
927.67	11446.10
927.84	11075.42
928.01	11235.16
928.17	11054.94
928.34	11073.37
928.51	11104.09
928.68	11036.50
928.84	11024.22
929.01	10936.15
929.18	10905.43
929.35	10860.38
929.51	10753.88
929.68	10727.26
929.85	10379.11
930.02	10747.74
930.18	10712.92
930.35	10762.08
930.52	10542.94
930.69	10637.15
930.85	10387.30
931.02	10209.12
931.19	10338.15
931.36	10397.54
931.52	10291.04
931.69	10250.08
931.86	10200.93
932.02	10348.39
932.19	10063.72
932.36	10102.63
932.53	10055.53
932.69	9998.18
932.86	10112.87
933.03	9860.97
933.19	9725.80
933.36	9719.66
933.53	9920.36
933.70	9811.82
933.86	9457.52
934.03	9615.21
934.20	9312.11
934.36	9607.02
934.53	9283.44
934.70	9232.24
934.86	9242.48
935.03	9154.42
935.20	9140.08
935.36	9248.63
935.53	8877.94
935.70	8982.39
935.86	9158.52
936.03	8775.55
936.20	8660.86
936.36	8525.69
936.53	8490.88
936.70	8404.86
936.86	8568.70
937.03	8384.38
937.20	8212.35
937.36	8400.77
937.53	7937.93
937.70	8109.96
937.86	7878.54
938.03	7958.41
938.20	7915.40
938.36	7772.04
938.53	7716.75
938.70	7552.91
938.86	7688.07
939.03	7434.13
939.20	7344.02
939.36	7405.46
939.53	7094.16
939.70	7346.06
939.86	7038.87
940.03	6858.65
940.19	6846.36
940.36	6907.80
940.53	6870.94
940.69	6563.74
940.86	6705.05
941.03	6662.04
941.19	6311.84
941.36	6473.63
941.52	6365.09
941.69	6494.11
941.86	6227.87
942.02	6385.57
942.19	6133.67
942.35	6176.67
942.52	5969.83
942.69	6086.56
942.85	5900.20
943.02	6010.79
943.18	5988.26
943.35	5959.59
943.52	5849.00
943.68	5722.02
943.85	5762.98
944.01	5656.49
944.18	5605.29
944.35	5543.85
944.51	5541.80
944.68	5484.46
944.84	5463.98
945.01	5517.23
945.17	5599.15
945.34	5470.12
945.51	5412.78
945.67	5531.56
945.84	5506.99
946.00	5400.49
946.17	5361.58
946.33	5253.04
946.50	5511.08
946.67	5351.34
946.83	5326.77
947.00	5334.96
947.16	5308.34
947.33	5267.38
947.49	5332.91
947.66	5324.72
947.82	5369.77
947.99	5242.80
948.16	5343.15
948.32	5265.33
948.49	5181.36
948.65	5326.77
948.82	5289.90
948.98	5269.42
949.15	5246.90
949.31	5328.81
949.48	5291.95
949.64	5199.79
949.81	5296.05
949.97	5351.34
950.14	5408.69
950.30	5214.13
950.47	5341.10
950.63	5294.00
950.80	5345.20
950.96	5195.70
951.13	5238.70
951.30	5357.49
951.46	5392.30
951.63	5400.49
951.79	5439.40
951.96	5337.01
952.12	5441.45
952.29	5478.32
952.45	5332.91
952.62	5547.95
952.78	5533.61
952.94	5377.97
953.11	5373.87
953.27	5244.85
953.44	5527.47
953.60	5435.31
953.77	5521.32
953.93	5345.20
954.10	5337.01
954.26	5414.83
954.43	5492.65
954.59	5519.28
954.76	5525.42
954.92	5431.21
955.09	5521.32
955.25	5402.54
955.42	5369.77
955.58	5496.75
955.75	5420.97
955.91	5509.04
956.07	5504.94
956.24	5556.14
956.40	5533.61
956.57	5646.25
956.73	5574.57
956.90	5568.43
957.06	5459.88
957.23	5468.08
957.39	5375.92
957.56	5449.64
957.72	5414.83
957.88	5365.68
958.05	5515.18
958.21	5601.19
958.38	5418.93
958.54	5455.79
958.71	5537.71
958.87	5365.68
959.03	5392.30
959.20	5509.04
959.36	5326.77
959.53	5537.71
959.69	5386.16
959.85	5527.47
960.02	5418.93
960.18	5404.59
960.35	5642.15
960.51	5578.67
960.68	5447.60
960.84	5443.50
961.00	5420.97
961.17	5500.84
961.33	5539.76
961.50	5375.92
961.66	5513.13
961.82	5447.60
961.99	5543.85
962.15	5357.49
962.31	5396.40
962.48	5429.17
962.64	5435.31
962.81	5400.49
962.97	5408.69
963.13	5451.69
963.30	5406.64
963.46	5410.73
963.62	5377.97
963.79	5498.80
963.95	5271.47
964.12	5263.28
964.28	5441.45
964.44	5234.61
964.61	5410.73
964.77	5394.35
964.93	5550.00
965.10	5318.57
965.26	5334.96
965.42	5326.77
965.59	5351.34
965.75	5261.23
965.92	5197.74
966.08	5404.59
966.24	5212.08
966.41	5359.53
966.57	5361.58
966.73	5308.34
966.90	5296.05
967.06	5351.34
967.22	5341.10
967.39	5337.01
967.55	5332.91
967.71	5373.87
967.88	5103.54
968.04	5042.10
968.20	5214.13
968.37	5173.17
968.53	5195.70
968.69	5146.55
968.85	5339.05
969.02	5136.31
969.18	5265.33
969.34	5099.44
969.51	5105.59
969.67	5091.25
969.83	5074.87
970.00	5099.44
970.16	5287.86
970.32	5138.35
970.48	5279.66
970.65	5066.67
970.81	5013.43
970.97	5019.57
971.14	5070.77
971.30	5191.60
971.46	5109.68
971.63	5097.39
971.79	4906.93
971.95	4972.47
972.11	4939.70
972.28	5029.81
972.44	5087.15
972.60	4898.74
972.76	5027.76
972.93	5042.10
973.09	5107.63
973.25	4992.95
973.42	4923.32
973.58	5044.15
973.74	4999.09
973.90	4990.90
974.07	4960.18
974.23	4925.36
974.39	5066.67
974.55	4949.94
974.72	4839.35
974.88	4896.69
975.04	4878.26
975.20	4818.87
975.37	4786.10
975.53	4788.15
975.69	4837.30
975.85	4779.96
976.01	4765.62
976.18	4851.64
976.34	4786.10
976.50	4712.38
976.66	4884.41
976.83	4683.70
976.99	4665.27
977.15	4808.63
977.31	4605.88
977.47	4722.62
977.64	4673.46
977.80	4691.90
977.96	4530.11
978.12	4642.75
978.29	4587.45
978.45	4589.50
978.61	4503.48
978.77	4622.27
978.93	4644.79
979.10	4605.88
979.26	4622.27
979.42	4515.77
979.58	4360.13
979.74	4407.23
979.91	4562.87
980.07	4493.24
980.23	4474.81
980.39	4530.11
980.55	4478.91
980.71	4550.59
980.88	4353.98
981.04	4519.87
981.20	4476.86
981.36	4403.13
981.52	4411.32
981.68	4331.45
981.85	4476.86
982.01	4440.00
982.17	4448.19
982.33	4487.10
982.49	4409.28
982.65	4290.49
982.82	4280.25
982.98	4308.93
983.14	4208.58
983.30	4378.56
983.46	4560.83
983.62	4280.25
983.79	4198.34
983.95	4132.80
984.11	4104.13
984.27	4313.02
984.43	4218.82
984.59	4165.57
984.75	4229.06
984.91	4204.48
985.08	4321.21
985.24	4190.14
985.40	4157.38
985.56	4245.44
985.72	4261.82
985.88	4196.29
986.04	4083.65
986.20	4032.45
986.37	4147.14
986.53	3993.54
986.69	4259.78
986.85	4028.35
987.01	4138.94
987.17	4079.55
987.33	4108.23
987.49	4003.78
987.65	4007.87
987.82	4044.74
987.98	3999.68
988.14	4032.45
988.30	3975.11
988.46	3897.28
988.62	4067.27
988.78	3780.55
988.94	3923.91
989.10	3981.25
989.26	3846.09
989.42	3753.93
989.59	3821.51
989.75	3798.98
989.91	3825.61
990.07	3641.29
990.23	3821.51
990.39	3825.61
990.55	3903.43
990.71	3794.89
990.87	3796.93
991.03	3856.33
991.19	3788.74
991.35	3682.25
991.51	3856.33
991.67	3848.13
991.83	3936.20
992.00	3741.64
992.16	3817.41
992.32	3758.02
992.48	3755.97
992.64	3708.87
992.80	3876.80
992.96	3626.95
993.12	3729.35
993.28	3784.65
993.44	3649.48
993.60	3676.10
993.76	3631.05
993.92	3680.20
994.08	3653.58
994.24	3622.86
994.40	3764.17
994.56	3735.50
994.72	3540.94
994.88	3520.46
995.04	3674.06
995.20	3612.62
995.36	3479.50
995.52	3592.14
995.68	3450.83
995.84	3528.65
996.00	3633.10
996.16	3518.41
996.32	3504.07
996.48	3381.20
996.64	3477.45
996.80	3401.68
996.96	3502.03
997.12	3399.63
997.28	3332.05
997.44	3516.36
997.60	3446.73
997.76	3370.96
997.92	3461.07
998.08	3469.26
998.24	3280.85
998.40	3348.43
998.56	3393.48
998.72	3286.99
998.88	3352.52
999.04	3213.26
999.20	3459.02
999.36	3235.79
999.52	3450.83
999.68	3303.37
999.84	3309.52
1000.00	3336.14
1000.16	3407.82
1000.32	3248.08
1000.48	3282.89
1000.64	3266.51
1000.80	3336.14
1000.95	3182.54
1001.11	3252.17
1001.27	3098.58
1001.43	3256.27
1001.59	3180.50
1001.75	3139.54
1001.91	3190.74
1002.07	3160.02
1002.23	3182.54
1002.39	3270.61
1002.55	3168.21
1002.71	3055.57
1002.87	3125.20
1003.03	3092.43
1003.19	3076.05
1003.34	3221.45
1003.50	3053.52
1003.66	3223.50
1003.82	3145.68
1003.98	3053.52
1004.14	3084.24
1004.30	3088.34
1004.46	3061.71
1004.62	2977.75
1004.78	3063.76
1004.94	2926.55
1005.09	3047.38
1005.25	3117.01
1005.41	3039.19
1005.57	3061.71
1005.73	2973.65
1005.89	2883.54
1006.05	3024.85
1006.21	3037.14
1006.37	2951.12
1006.52	2938.84
1006.68	2938.84
1006.84	3063.76
1007.00	2936.79
1007.16	2940.88
1007.32	2969.55
1007.48	2811.86
1007.64	3008.47
1007.79	2850.77
1007.95	2760.66
1008.11	2979.79
1008.27	2869.20
1008.43	2842.58
1008.59	2781.14
1008.75	2822.10
1008.91	2875.35
1009.06	2793.43
1009.22	2901.97
1009.38	2959.31
1009.54	2795.48
1009.70	2822.10
1009.86	2838.48
1010.01	2852.82
1010.17	2725.85
1010.33	2803.67
1010.49	2826.20
1010.65	2865.11
1010.81	2742.23
1010.96	2781.14
1011.12	2705.37
1011.28	2715.61
1011.44	2838.48
1011.60	2809.81
1011.76	2598.87
1011.91	2811.86
1012.07	2766.81
1012.23	2547.67
1012.39	2662.36
1012.55	2729.94
1012.71	2619.35
1012.86	2590.68
1013.02	2674.65
1013.18	2637.78
1013.34	2635.74
1013.50	2664.41
1013.65	2629.59
1013.81	2570.20
1013.97	2584.54
1014.13	2617.30
1014.29	2590.68
1014.44	2645.98
1014.60	2615.26
1014.76	2545.63
1014.92	2611.16
1015.07	2537.43
1015.23	2666.46
1015.39	2484.19
1015.55	2662.36
1015.71	2615.26
1015.86	2549.72
1016.02	2420.70
1016.18	2428.89
1016.34	2555.86
1016.49	2484.19
1016.65	2566.10
1016.81	2437.08
1016.97	2492.38
1017.12	2568.15
1017.28	2392.03
1017.44	2457.56
1017.60	2531.29
1017.75	2445.27
1017.91	2424.80
1018.07	2439.13
1018.23	2482.14
1018.38	2482.14
1018.54	2457.56
1018.70	2349.02
1018.86	2355.16
1019.01	2330.59
1019.17	2463.71
1019.33	2549.72
1019.49	2437.08
1019.64	2478.04
1019.80	2435.03
1019.96	2408.41
1020.12	2504.67
1020.27	2398.17
1020.43	2406.36
1020.59	2285.53
1020.74	2500.57
1020.90	2422.75
1021.06	2293.72
1021.22	2385.88
1021.37	2332.64
1021.53	2355.16
1021.69	2359.26
1021.84	2299.87
1022.00	2301.92
1022.16	2318.30
1022.31	2320.35
1022.47	2299.87
1022.63	2404.32
1022.79	2273.25
1022.94	2289.63
1023.10	2332.64
1023.26	2279.39
1023.41	2195.42
1023.57	2258.91
1023.73	2263.01
1023.88	2263.01
1024.04	2220.00
1024.20	2289.63
1024.35	2244.57
1024.51	2191.33
1024.67	2232.29
1024.82	2351.07
1024.98	2220.00
1025.14	2273.25
1025.29	2256.86
1025.45	2217.95
1025.61	2207.71
1025.76	2189.28
1025.92	2174.94
1026.08	2244.57
1026.23	2258.91
1026.39	2254.81
1026.55	2156.51
1026.70	2140.13
1026.86	2232.29
1027.02	2203.61
1027.17	2123.74
1027.33	2201.57
1027.48	2131.94
1027.64	2115.55
1027.80	2097.12
1027.95	2179.04
1028.11	2000.87
1028.27	2090.98
1028.42	2146.27
1028.58	2099.17
1028.73	2119.65
1028.89	2078.69
1029.05	2125.79
1029.20	2140.13
>>>>>End Processed Spectral Data<<<<<
