SpectraSuite Data File
++++++++++++++++++++++++++++++++++++
Date: Fri Jun 02 14:53:31 CEST 2017
User: INFO_000
Dark Spectrum Present: No
Reference Spectrum Present: No
Number of Sampled Component Spectra: 1
Spectrometers: USB4H00879
Integration Time (usec): 80000 (USB4H00879)
Spectra Averaged: 1 (USB4H00879)
Boxcar Smoothing: 0 (USB4H00879)
Correct for Electrical Dark: No (USB4H00879)
Strobe/Lamp Enabled: No (USB4H00879)
Correct for Detector Non-linearity: No (USB4H00879)
Correct for Stray Light: No (USB4H00879)
Number of Pixels in Processed Spectrum: 3648
>>>>>Begin Processed Spectral Data<<<<<
345.13	1302.51
345.34	1302.51
345.56	1302.51
345.78	1271.79
345.99	1269.74
346.21	1665.00
346.42	1712.10
346.64	1587.18
346.86	1699.81
347.07	1679.33
347.29	1658.85
347.50	1705.96
347.72	1613.80
347.94	1703.91
348.15	1556.46
348.37	1652.71
348.59	1683.43
348.80	1654.76
349.02	1845.22
349.23	1961.95
349.45	1738.73
349.67	1855.46
349.88	1847.27
350.10	1980.39
350.31	1808.36
350.53	1826.79
350.75	1955.81
350.96	1806.31
351.18	1865.70
351.39	1904.61
351.61	1763.30
351.82	1927.14
352.04	1964.00
352.26	1814.50
352.47	1871.84
352.69	1908.71
352.90	1718.25
353.12	1900.52
353.34	1875.94
353.55	2004.96
353.77	1869.80
353.98	1871.84
354.20	1877.99
354.41	1855.46
354.63	1933.28
354.85	2025.44
355.06	1896.42
355.28	1847.27
355.49	1931.23
355.71	1961.95
355.92	1904.61
356.14	1986.53
356.35	1806.31
356.57	1953.76
356.79	1863.65
357.00	1871.84
357.22	1988.58
357.43	1822.69
357.65	1947.62
357.86	1824.74
358.08	1959.91
358.29	1933.28
358.51	2004.96
358.72	1955.81
358.94	1910.75
359.16	1892.32
359.37	1951.71
359.59	1937.38
359.80	2035.68
360.02	1972.19
360.23	1961.95
360.45	2033.63
360.66	1941.47
360.88	1773.54
361.09	1890.28
361.31	2004.96
361.52	1976.29
361.74	1998.82
361.95	2103.26
362.17	1929.19
362.38	2037.73
362.60	2039.78
362.81	1947.62
363.03	1898.47
363.24	1986.53
363.46	2113.50
363.67	2093.02
363.89	2029.54
364.10	1920.99
364.32	1957.86
364.53	2088.93
364.75	1927.14
364.96	2047.97
365.18	2066.40
365.39	1988.58
365.61	2078.69
365.82	2174.94
366.04	1978.34
366.25	1961.95
366.47	2041.82
366.68	2119.65
366.90	1970.15
367.11	2127.84
367.33	2068.45
367.54	2099.17
367.76	2052.06
367.97	2156.51
368.19	2074.59
368.40	2109.41
368.62	1968.10
368.83	2019.30
369.05	2101.22
369.26	2035.68
369.48	1923.04
369.69	2000.87
369.91	2064.35
370.12	2088.93
370.33	2191.33
370.55	1986.53
370.76	2009.06
370.98	2176.99
371.19	2064.35
371.41	2045.92
371.62	2084.83
371.84	2023.39
372.05	2154.46
372.27	2090.98
372.48	2146.27
372.69	2113.50
372.91	2138.08
373.12	2197.47
373.34	2150.37
373.55	2191.33
373.77	2215.90
373.98	2099.17
374.20	2121.70
374.41	2246.62
374.62	2140.13
374.84	2127.84
375.05	2232.29
375.27	2220.00
375.48	2211.81
375.70	2191.33
375.91	2224.09
376.12	2258.91
376.34	2203.61
376.55	2215.90
376.77	2220.00
376.98	2148.32
377.19	2162.66
377.41	2146.27
377.62	2283.49
377.84	2242.53
378.05	2359.26
378.27	2199.52
378.48	2328.54
378.69	2414.56
378.91	2289.63
379.12	2273.25
379.34	2256.86
379.55	2342.88
379.76	2408.41
379.98	2238.43
380.19	2185.18
380.41	2246.62
380.62	2385.88
380.83	2322.40
381.05	2254.81
381.26	2412.51
381.47	2217.95
381.69	2340.83
381.90	2430.94
382.12	2312.16
382.33	2295.77
382.54	2332.64
382.76	2244.57
382.97	2252.77
383.19	2242.53
383.40	2392.03
383.61	2287.58
383.83	2256.86
384.04	2428.89
384.25	2387.93
384.47	2324.44
384.68	2351.07
384.89	2281.44
385.11	2385.88
385.32	2353.12
385.54	2357.21
385.75	2281.44
385.96	2490.33
386.18	2369.50
386.39	2428.89
386.60	2435.03
386.82	2432.99
387.03	2437.08
387.24	2473.95
387.46	2572.25
387.67	2539.48
387.88	2523.10
388.10	2498.52
388.31	2459.61
388.52	2547.67
388.74	2494.43
388.95	2475.99
389.16	2600.92
389.38	2521.05
389.59	2572.25
389.80	2625.50
390.02	2478.04
390.23	2633.69
390.44	2643.93
390.66	2609.11
390.87	2559.96
391.08	2607.06
391.30	2674.65
391.51	2637.78
391.72	2617.30
391.94	2635.74
392.15	2670.55
392.36	2688.98
392.58	2592.73
392.79	2664.41
393.00	2625.50
393.22	2688.98
393.43	2736.09
393.64	2797.53
393.85	2736.09
394.07	2662.36
394.28	2803.67
394.49	2770.90
394.71	2756.57
394.92	2822.10
395.13	2742.23
395.35	2793.43
395.56	2803.67
395.77	2854.87
395.98	2793.43
396.20	2869.20
396.41	2865.11
396.62	2932.69
396.84	2834.39
397.05	2818.00
397.26	2881.49
397.47	2996.18
397.69	2942.93
397.90	3030.99
398.11	2906.07
398.32	2928.60
398.54	2871.25
398.75	2916.31
398.96	3016.66
399.18	3137.49
399.39	3006.42
399.60	3047.38
399.81	3037.14
400.03	2983.89
400.24	3274.70
400.45	2928.60
400.66	3117.01
400.88	2973.65
401.09	3110.86
401.30	2992.08
401.51	3205.07
401.73	3020.75
401.94	3160.02
402.15	3254.22
402.36	3235.79
402.58	3127.25
402.79	3182.54
403.00	3074.00
403.21	3186.64
403.43	3211.22
403.64	3319.76
403.85	3110.86
404.06	3205.07
404.27	3145.68
404.49	3143.63
404.70	3078.10
404.91	3309.52
405.12	3387.34
405.34	3299.28
405.55	3444.68
405.76	3172.30
405.97	3270.61
406.19	3383.24
406.40	3299.28
406.61	3420.11
406.82	3334.09
407.03	3307.47
407.25	3364.81
407.46	3561.42
407.67	3530.70
407.88	3485.64
408.09	3358.67
408.31	3442.64
408.52	3422.16
408.73	3317.71
408.94	3508.17
409.15	3454.92
409.37	3481.55
409.58	3504.07
409.79	3450.83
410.00	3598.28
410.21	3452.88
410.43	3467.21
410.64	3442.64
410.85	3626.95
411.06	3647.43
411.27	3653.58
411.48	3745.73
411.70	3502.03
411.91	3649.48
412.12	3747.78
412.33	3583.95
412.54	3629.00
412.76	3719.11
412.97	3723.21
413.18	3563.47
413.39	3717.06
413.60	3739.59
413.81	3745.73
414.03	3751.88
414.24	3694.54
414.45	3841.99
414.66	3602.38
414.87	3841.99
415.08	3655.62
415.30	3827.65
415.51	3794.89
415.72	3925.96
415.93	3895.24
416.14	3850.18
416.35	3764.17
416.56	3903.43
416.78	3755.97
416.99	3893.19
417.20	3938.24
417.41	3991.49
417.62	3966.92
417.83	3979.20
418.04	3977.16
418.26	4007.87
418.47	3934.15
418.68	4014.02
418.89	3991.49
419.10	4310.97
419.31	3944.39
419.52	4181.95
419.73	4016.07
419.95	4181.95
420.16	4003.78
420.37	4100.03
420.58	4052.93
420.79	3999.68
421.00	4163.52
421.21	4247.49
421.42	4100.03
421.63	4278.21
421.85	4063.17
422.06	4257.73
422.27	4278.21
422.48	4261.82
422.69	4184.00
422.90	4261.82
423.11	4413.37
423.32	4237.25
423.53	4509.63
423.75	4347.84
423.96	4593.59
424.17	4399.04
424.38	4657.08
424.59	4540.35
424.80	4599.74
425.01	4556.73
425.22	4536.25
425.43	4501.44
425.64	4650.94
425.85	4775.86
426.06	4655.03
426.28	4603.83
426.49	4618.17
426.70	4726.71
426.91	4648.89
427.12	4720.57
427.33	4691.90
427.54	4620.22
427.75	4792.25
427.96	4853.69
428.17	4884.41
428.38	4769.72
428.59	4835.25
428.80	4911.03
429.01	4919.22
429.23	4736.95
429.44	5027.76
429.65	5058.48
429.86	5056.43
430.07	4810.68
430.28	4890.55
430.49	5091.25
430.70	5285.81
430.91	5152.69
431.12	4980.66
431.33	5142.45
431.54	5074.87
431.75	5259.18
431.96	5171.12
432.17	5197.74
432.38	5132.21
432.59	5517.23
432.80	5246.90
433.01	5314.48
433.22	5484.46
433.43	5386.16
433.64	5367.73
433.85	5220.27
434.06	5302.19
434.27	5267.38
434.49	5605.29
434.70	5627.82
434.91	5363.63
435.12	5353.39
435.33	5357.49
435.54	5644.20
435.75	5377.97
435.96	5474.22
436.17	5500.84
436.38	5597.10
436.59	5656.49
436.80	5640.11
437.01	5975.97
437.22	5777.32
437.43	5664.68
437.64	5535.66
437.85	5636.01
438.06	5732.26
438.27	5603.24
438.48	5638.06
438.69	5773.22
438.90	5668.78
439.11	5769.13
439.32	5914.53
439.53	5951.40
439.74	6004.64
439.95	5990.31
440.16	5906.34
440.37	5898.15
440.57	5857.19
440.78	5986.21
440.99	6100.90
441.20	5988.26
441.41	5961.64
441.62	5984.16
441.83	5969.83
442.04	6061.99
442.25	6070.18
442.46	6012.84
442.67	6346.66
442.88	6676.38
443.09	5965.73
443.30	6193.06
443.51	6356.90
443.72	6467.49
443.93	6072.23
444.14	6520.73
444.35	6236.06
444.56	6260.64
444.77	6215.59
444.98	6234.02
445.19	6287.26
445.40	6469.53
445.61	6229.92
445.81	6518.68
446.02	6487.96
446.23	6434.72
446.44	6414.24
446.65	6600.60
446.86	6596.51
447.07	6598.56
447.28	6659.99
447.49	6811.54
447.70	6694.81
447.91	6647.71
448.12	6684.57
448.33	6641.56
448.54	6756.25
448.74	6623.13
448.95	6797.21
449.16	6690.71
449.37	7083.92
449.58	6905.75
449.79	7092.12
450.00	6786.97
450.21	6985.62
450.42	7008.15
450.63	6887.32
450.84	6997.91
451.05	7026.58
451.25	7079.83
451.46	7030.68
451.67	7073.68
451.88	7348.11
452.09	7131.03
452.30	7171.99
452.51	7108.50
452.72	7217.04
452.93	7505.81
453.13	7133.08
453.34	7292.82
453.55	7370.64
453.76	7536.52
453.97	7618.44
454.18	7391.12
454.39	7483.28
454.60	7464.85
454.81	7579.53
455.01	7796.62
455.22	7339.92
455.43	7464.85
455.64	7827.34
455.85	7817.10
456.06	8089.48
456.27	7853.96
456.48	7776.14
456.68	7974.79
456.89	7982.98
457.10	8140.68
457.31	8036.23
457.52	7997.32
457.73	8085.38
457.94	8341.38
458.14	8097.67
458.35	8507.26
458.56	8220.55
458.77	8318.85
458.98	8376.19
459.19	8224.64
459.39	8558.46
459.60	8501.12
459.81	8429.44
460.02	8757.11
460.23	8628.09
460.44	8781.69
460.65	8724.35
460.85	8806.27
461.06	8767.35
461.27	8548.22
461.48	8984.44
461.69	8992.63
461.89	8814.46
462.10	9117.56
462.31	8773.50
462.52	9017.21
462.73	9226.10
462.94	9336.69
463.14	9277.30
463.35	9152.37
463.56	9490.29
463.77	9516.91
463.98	9170.80
464.18	9330.55
464.39	9613.17
464.60	9707.37
464.81	9633.64
465.02	9553.77
465.23	9973.61
465.43	9666.41
465.64	10131.30
465.85	9985.90
466.06	9889.64
466.27	10166.12
466.47	10145.64
466.68	10170.21
466.89	10295.14
467.10	10237.80
467.30	9998.18
467.51	10301.28
467.72	10567.52
467.93	10178.40
468.14	10448.74
468.34	10602.33
468.55	10768.22
468.76	10651.49
468.97	10581.85
469.17	10852.19
469.38	10917.72
469.59	11102.04
469.80	10821.47
470.01	10952.54
470.21	11071.32
470.42	11337.56
470.63	11394.90
470.84	11323.22
471.04	11358.03
471.25	11503.44
471.46	11597.65
471.67	11831.12
471.87	11597.65
472.08	11605.84
472.29	11755.34
472.50	11741.00
472.70	11923.27
472.91	12056.39
473.12	12253.00
473.33	12121.93
473.53	12377.92
473.74	12293.96
473.95	12455.75
474.16	12719.93
474.36	12406.59
474.57	12754.75
474.78	12953.40
474.99	12871.48
475.19	12803.90
475.40	12945.21
475.61	13104.95
475.81	13279.03
476.02	13381.43
476.23	13190.97
476.44	13543.22
476.64	13709.10
476.85	13866.80
477.06	13784.88
477.27	13776.69
477.47	14362.40
477.68	13780.78
477.89	14364.45
478.09	14210.86
478.30	14219.05
478.51	14374.69
478.71	14731.04
478.92	14753.57
479.13	14565.15
479.34	14776.09
479.54	14937.88
479.75	14864.16
479.96	14757.66
480.16	14833.44
480.37	15167.26
480.58	15300.37
480.78	15458.07
480.99	15402.77
481.20	15703.82
481.41	15877.90
481.61	15683.34
481.82	15757.07
482.03	15884.05
482.23	15984.40
482.44	16316.17
482.65	16494.34
482.85	16332.55
483.06	16439.05
483.27	16420.61
483.47	16480.00
483.68	16555.78
483.89	16578.31
484.09	16660.23
484.30	17069.82
484.51	17063.68
484.71	17319.67
484.92	17247.99
485.13	17493.75
485.33	17649.39
485.54	17481.46
485.75	17809.14
485.95	17587.96
486.16	17782.51
486.37	18116.33
486.57	17706.74
486.78	17915.63
486.98	17901.29
487.19	18177.77
487.40	18368.23
487.60	18296.55
487.81	18296.55
488.02	18257.64
488.22	18521.83
488.43	18747.11
488.64	18876.13
488.84	18818.78
489.05	18910.94
489.25	18892.51
489.46	19242.71
489.67	19054.30
489.87	19414.74
490.08	19422.94
490.29	19289.82
490.49	19539.67
490.70	19828.43
490.90	20180.68
491.11	19785.43
491.32	20012.75
491.52	20033.23
491.73	20235.98
491.94	20373.19
492.14	20350.67
492.35	20309.71
492.55	20596.42
492.76	20586.18
492.97	20481.74
493.17	20489.93
493.38	20981.44
493.58	20891.33
493.79	20866.75
494.00	21229.24
494.20	21026.50
494.41	21182.14
494.61	21274.30
494.82	21235.39
495.02	21419.71
495.23	21380.79
495.44	21579.45
495.64	21718.71
495.85	21851.83
496.05	21868.21
496.26	21900.98
496.47	22066.86
496.67	21886.64
496.88	22355.63
497.08	21804.72
497.29	22517.42
497.49	22466.22
497.70	22402.73
497.91	22636.20
498.11	22726.31
498.32	22779.56
498.52	22908.58
498.73	22984.35
498.93	22804.13
499.14	22793.89
499.34	23199.39
499.55	23422.62
499.76	22933.15
499.96	23455.39
500.17	23277.21
500.37	23049.89
500.58	23332.51
500.78	23379.61
500.99	23611.03
501.19	23842.45
501.40	23570.07
501.60	23832.21
501.81	23738.01
502.02	24168.08
502.22	23606.94
502.43	24415.88
502.63	24135.31
502.84	24274.57
503.04	24221.33
503.25	24385.16
503.45	24411.79
503.66	24422.03
503.86	24358.54
504.07	24954.50
504.27	24426.12
504.48	24845.96
504.68	24731.27
504.89	25194.11
505.09	25052.80
505.30	24942.21
505.50	24798.85
505.71	24981.12
505.91	25138.82
506.12	25278.08
506.32	25089.67
506.53	25126.53
506.73	25372.28
506.94	25409.15
507.14	25597.56
507.35	25380.48
507.55	25650.81
507.76	25544.31
507.96	25702.01
508.17	25603.71
508.37	25990.77
508.58	25816.69
508.78	26027.63
508.99	26019.44
509.19	26158.70
509.40	26248.82
509.60	25941.62
509.81	26435.18
510.01	25988.72
510.22	26218.10
510.42	26347.12
510.63	26340.97
510.83	26371.69
511.04	26236.53
511.24	26699.37
511.44	26635.88
511.65	26513.00
511.85	26691.18
512.06	26420.84
512.26	26973.80
512.47	26984.04
512.67	27131.49
512.88	27131.49
513.08	26689.13
513.29	27256.42
513.49	27276.90
513.69	27000.42
513.90	27197.02
514.10	27303.52
514.31	27278.94
514.51	27231.84
514.72	27108.96
514.92	27317.86
515.13	27600.47
515.33	27604.57
515.53	27573.85
515.74	27625.05
515.94	27885.14
516.15	27842.14
516.35	27872.85
516.56	28407.37
516.76	27799.13
516.96	27825.75
517.17	28186.19
517.37	27989.59
517.58	28196.43
517.78	28347.98
517.99	28204.63
518.19	28331.60
518.39	28477.01
518.60	28460.62
518.80	28608.08
519.01	28935.75
519.21	28880.46
519.41	28591.69
519.62	29103.68
519.82	29103.68
520.03	29152.84
520.23	29128.26
520.43	29099.59
520.64	29277.76
520.84	29570.62
521.05	29267.52
521.25	29673.02
521.45	29845.05
521.66	29601.34
521.86	29675.07
522.07	29652.54
522.27	29908.54
522.47	29824.57
522.68	30232.11
522.88	29732.41
523.08	30258.74
523.29	30105.14
523.49	30209.59
523.70	30434.86
523.90	30561.84
524.10	30492.21
524.31	30357.04
524.51	30524.97
524.71	30926.38
524.92	30772.78
525.12	30973.48
525.33	31120.93
525.53	30928.42
525.73	31276.58
525.94	31335.97
526.14	31454.75
526.34	31450.66
526.55	31473.18
526.75	31669.79
526.95	31845.91
527.16	31682.08
527.36	31663.64
527.56	32126.49
527.77	32130.58
527.97	32298.52
528.17	31755.80
528.38	32226.84
528.58	32302.61
528.78	32505.36
528.99	32427.54
529.19	32757.26
529.39	32691.73
529.60	32765.45
529.80	33160.71
530.00	32667.15
530.21	33043.98
530.41	33347.08
530.61	32917.00
530.82	33588.74
531.02	33515.01
531.22	33517.06
531.43	33527.30
531.63	33912.31
531.83	34045.43
532.04	34289.14
532.24	34205.17
532.44	34541.04
532.64	34346.48
532.85	34481.65
533.05	34432.50
533.25	34606.58
533.46	34455.03
533.66	35112.42
533.86	34792.94
534.07	35263.97
534.27	35325.41
534.47	35270.12
534.67	35530.21
534.88	35081.70
535.08	35605.98
535.28	35677.66
535.49	35806.69
535.69	35825.12
535.89	35401.19
536.09	36099.55
536.30	35937.76
536.50	36550.10
536.70	36261.33
536.91	36484.56
537.11	36261.33
537.31	36459.99
537.51	36672.98
537.72	36865.49
537.92	37211.59
538.12	37031.37
538.32	36705.74
538.53	37092.81
538.73	36996.56
538.93	37256.65
539.13	37443.01
539.34	37549.51
539.54	37502.40
539.74	37711.30
539.94	37699.01
540.15	37647.81
540.35	38053.31
540.55	37934.53
540.75	37703.10
540.96	38231.48
541.16	38288.82
541.36	38352.31
541.56	38450.61
541.77	38921.65
541.97	38391.22
542.17	38942.13
542.37	38720.95
542.58	38999.47
542.78	38766.00
542.98	38806.96
543.18	39097.77
543.38	39378.34
543.59	39210.41
543.79	39271.85
543.99	39228.84
544.19	39271.85
544.40	39351.72
544.60	39685.54
544.80	39364.01
545.00	39771.55
545.20	40070.56
545.41	39794.08
545.61	39835.04
545.81	40041.88
546.01	40248.73
546.21	40101.28
546.42	40050.08
546.62	40324.50
546.82	39951.77
547.02	40220.06
547.22	40605.08
547.43	40304.02
547.63	40701.33
547.83	40799.63
548.03	40326.55
548.23	40828.30
548.44	40574.36
548.64	40899.98
548.84	40773.01
549.04	40844.69
549.24	40838.54
549.45	41360.78
549.65	41078.16
549.85	41594.25
550.05	41485.70
550.25	41293.19
550.45	41674.12
550.66	41633.16
550.86	41559.43
551.06	41883.01
551.26	41706.88
551.46	41897.34
551.66	42030.46
551.87	41577.86
552.07	42126.72
552.27	41618.82
552.47	41956.74
552.67	42759.54
552.87	42302.84
553.07	42130.81
553.28	42524.02
553.48	42487.16
553.68	42552.69
553.88	42804.59
554.08	42724.72
554.28	42294.65
554.48	42220.92
554.69	42536.31
554.89	42284.41
555.09	42171.77
555.29	42157.44
555.49	42958.19
555.69	42726.77
555.89	42675.57
556.10	43146.61
556.30	42800.50
556.50	42925.42
556.70	43025.78
556.90	43103.60
557.10	43246.96
557.30	42859.89
557.50	43283.82
557.70	43066.73
557.91	43353.45
558.11	43355.50
558.31	43591.01
558.51	43259.24
558.71	43341.16
558.91	43492.71
559.11	43130.22
559.31	43283.82
559.51	43433.32
559.72	43795.81
559.92	43388.27
560.12	43734.37
560.32	44051.81
560.52	43160.94
560.72	43920.74
560.92	43978.08
561.12	43955.55
561.32	44172.64
561.52	44178.78
561.72	44129.63
561.93	43797.86
562.13	44211.55
562.33	43677.03
562.53	44879.19
562.73	43998.56
562.93	44221.79
563.13	44094.82
563.33	44082.53
563.53	44328.28
563.73	44082.53
563.93	44291.42
564.13	44117.34
564.33	44234.08
564.53	44078.43
564.74	44668.25
564.94	43754.85
565.14	44512.60
565.34	44578.14
565.54	45079.89
565.74	44610.90
565.94	45102.42
566.14	45057.36
566.34	44299.61
566.54	45040.98
566.74	44561.75
566.94	44404.06
567.14	44924.24
567.34	44684.63
567.54	45270.35
567.74	44940.63
567.94	44817.75
568.14	45073.74
568.34	45120.85
568.54	45081.94
568.74	45170.00
568.94	45186.38
569.14	45538.63
569.34	45522.25
569.54	45428.04
569.75	45225.29
569.95	44963.15
570.15	45978.95
570.35	45716.81
570.55	45114.70
570.75	45538.63
570.95	45376.84
571.15	45733.19
571.35	45473.10
571.55	45698.37
571.75	45104.46
571.95	45575.50
572.15	45659.46
572.35	45794.63
572.55	45708.61
572.75	45690.18
572.95	45745.48
573.15	46036.29
573.35	46085.44
573.55	45774.15
573.75	45962.56
573.95	46019.91
574.15	45589.83
574.35	46191.94
574.55	46036.29
574.75	46329.15
574.95	46325.05
575.15	45708.61
575.34	46572.86
575.54	46173.50
575.74	46402.88
575.94	46609.72
576.14	46464.32
576.34	46693.69
576.54	46994.74
576.74	46630.20
576.94	46083.39
577.14	46861.62
577.34	47090.99
577.54	46634.30
577.74	46789.94
577.94	46611.77
578.14	47068.47
578.34	47002.93
578.54	46810.42
578.74	46945.59
578.94	47050.03
579.14	46488.89
579.34	46871.86
579.54	46933.30
579.74	47111.47
579.94	46867.76
580.13	47267.12
580.33	47076.66
580.53	47260.97
580.73	47256.88
580.93	47369.52
581.13	47650.09
581.33	47715.62
581.53	47785.25
581.73	47748.39
581.93	47879.46
582.13	47801.64
582.33	48026.92
582.53	47791.40
582.73	47361.33
582.92	47899.94
583.12	48397.60
583.32	48233.76
583.52	47527.21
583.72	48049.44
583.92	47983.91
584.12	48289.06
584.32	48522.52
584.52	48129.31
584.72	48350.49
584.92	48545.05
585.11	48473.37
585.31	48248.10
585.51	48747.80
585.71	48432.41
585.91	48938.26
586.11	48428.32
586.31	48665.88
586.51	48260.38
586.71	49098.00
586.91	49157.39
587.10	48850.20
587.30	48915.73
587.50	48694.55
587.70	48928.02
587.90	49186.07
588.10	48878.87
588.30	49130.77
588.50	49442.06
588.69	49136.91
588.89	48766.23
589.09	49403.15
589.29	49063.19
589.49	49833.22
589.69	49157.39
589.89	49747.21
590.08	49216.78
590.28	49448.21
590.48	49190.16
590.68	48960.79
590.88	49317.14
591.08	49079.57
591.28	49632.52
591.47	49818.89
591.67	49595.66
591.87	49771.78
592.07	49544.46
592.27	49775.88
592.47	49822.98
592.67	49753.35
592.86	49640.71
593.06	49857.80
593.26	50099.46
593.46	49968.39
593.66	49917.19
593.86	50107.65
594.05	49837.32
594.25	50402.56
594.45	50261.25
594.65	49886.47
594.85	49947.91
595.05	50406.65
595.24	50558.20
595.44	50099.46
595.64	50175.23
595.84	50126.08
596.04	50044.16
596.23	50500.86
596.43	50560.25
596.63	50742.52
596.83	50459.90
597.03	51037.43
597.22	51156.21
597.42	50889.98
597.62	51047.67
597.82	51274.99
598.02	50853.11
598.21	51070.20
598.41	50726.14
598.61	51019.00
598.81	50734.33
599.01	51066.10
599.20	50900.22
599.40	51311.86
599.60	51498.22
599.80	51352.82
600.00	51168.50
600.19	51551.47
600.39	51356.91
600.59	51852.52
600.79	51786.99
600.98	51434.74
601.18	51528.94
601.38	51825.90
601.58	51533.04
601.78	51797.23
601.97	51827.95
602.17	52210.92
602.37	52108.52
602.57	51999.97
602.76	52368.61
602.96	52032.74
603.16	52614.37
603.36	52303.07
603.55	52890.84
603.75	52327.65
603.95	52630.75
604.15	52542.69
604.34	52671.71
604.54	52632.80
604.74	52657.37
604.94	52522.21
605.13	52944.09
605.33	52950.23
605.53	52540.64
605.73	52905.18
605.92	52876.51
606.12	52884.70
606.32	53261.52
606.52	53009.62
606.71	53109.97
606.91	53320.91
607.11	53318.87
607.30	53019.86
607.50	52974.81
607.70	53398.74
607.90	53185.75
608.09	53494.99
608.29	53310.67
608.49	53572.81
608.68	53531.86
608.88	53781.71
609.08	53820.62
609.28	53384.40
609.47	53613.77
609.67	54219.97
609.87	53486.80
610.06	54158.53
610.26	53820.62
610.46	53839.05
610.66	53116.12
610.85	54131.91
611.05	53611.73
611.25	53898.44
611.44	53535.95
611.64	54103.24
611.84	53695.69
612.03	54461.63
612.23	53982.41
612.43	54289.60
612.62	53853.39
612.82	54555.84
613.02	54088.90
613.21	53976.26
613.41	53773.52
613.61	54566.08
613.80	53499.09
614.00	54500.54
614.20	54213.83
614.39	54392.00
614.59	54432.96
614.79	54424.77
614.98	54312.13
615.18	54566.08
615.38	54551.74
615.57	54185.16
615.77	54854.84
615.97	54338.75
616.16	54445.25
616.36	54396.10
616.56	54385.86
616.75	54301.89
616.95	54277.32
617.15	54680.77
617.34	53920.97
617.54	54656.19
617.74	55084.22
617.93	54658.24
618.13	54428.87
618.32	54506.69
618.52	54398.15
618.72	54604.99
618.91	54639.81
619.11	53966.02
619.31	54598.85
619.50	54344.90
619.70	54148.29
619.90	54719.68
620.09	54299.84
620.29	54398.15
620.48	54691.01
620.68	54682.81
620.88	54314.18
621.07	54709.44
621.27	55047.35
621.46	54226.12
621.66	54162.63
621.86	54809.79
622.05	54502.59
622.25	54637.76
622.44	54568.13
622.64	54426.82
622.84	55041.21
623.03	54369.47
623.23	54729.92
623.42	55088.31
623.62	54772.92
623.82	54932.67
624.01	54576.32
624.21	54729.92
624.40	54242.50
624.60	54707.39
624.80	54789.31
624.99	54709.44
625.19	54254.79
625.38	54684.86
625.58	54596.80
625.77	54883.51
625.97	55528.62
626.17	54547.65
626.36	54951.10
626.56	54922.43
626.75	54344.90
626.95	54707.39
627.14	54793.40
627.34	55395.51
627.54	54756.54
627.73	54672.57
627.93	54873.27
628.12	54494.40
628.32	55028.92
628.51	55088.31
628.71	54772.92
628.90	54990.01
629.10	54768.83
629.30	55114.94
629.49	54924.47
629.69	54750.40
629.88	55133.37
630.08	55280.82
630.27	55217.33
630.47	55215.29
630.66	54922.43
630.86	55254.20
631.05	54674.62
631.25	55628.98
631.44	55254.20
631.64	55532.72
631.84	55153.85
632.03	55424.18
632.23	55452.85
632.42	55807.15
632.62	55223.48
632.81	55043.26
633.01	55397.55
633.20	55332.02
633.40	55704.75
633.59	55319.73
633.79	55119.03
633.98	55522.48
634.18	55254.20
634.37	55301.30
634.57	55497.91
634.76	56048.81
634.96	55653.55
635.15	55770.28
635.35	55246.00
635.54	55346.36
635.74	55946.41
635.93	55502.00
636.13	56054.95
636.32	55598.26
636.52	55307.44
636.71	55596.21
636.91	55803.05
637.10	55710.89
637.30	55434.42
637.49	55772.33
637.69	55831.72
637.88	56491.17
638.08	55979.18
638.27	56138.92
638.46	55647.41
638.66	55676.08
638.85	56140.97
639.05	55991.47
639.24	56114.34
639.44	55817.39
639.63	56241.32
639.83	56073.38
640.02	56112.30
640.22	55594.16
640.41	56460.45
640.61	56001.71
640.80	56132.78
640.99	55981.23
641.19	56411.30
641.38	56181.93
641.58	56048.81
641.77	55944.36
641.97	56196.26
642.16	56259.75
642.36	56591.52
642.55	56718.49
642.74	56321.19
642.94	56792.22
643.13	56186.02
643.33	56323.24
643.52	56886.43
643.72	56773.79
643.91	56247.46
644.10	56792.22
644.30	56632.48
644.49	56097.96
644.69	56695.97
644.88	56442.02
645.08	56534.18
645.27	56573.09
645.46	56351.91
645.66	56878.24
645.85	56564.90
646.05	56712.35
646.24	56575.14
646.43	56861.85
646.63	56939.68
646.82	57212.06
647.02	57111.70
647.21	57068.70
647.40	57101.46
647.60	57345.17
647.79	57406.61
647.99	57373.84
648.18	56552.61
648.37	57883.79
648.57	57054.36
648.76	57097.37
648.96	56800.41
649.15	57564.31
649.34	57308.31
649.54	57588.88
649.73	57117.85
649.92	56999.07
650.12	57736.34
650.31	57304.21
650.51	57554.07
650.70	58135.69
650.89	57169.05
651.09	57842.83
651.28	57644.18
651.47	57640.08
651.67	57476.24
651.86	58217.61
652.06	57349.27
652.25	57298.07
652.44	57220.25
652.64	57091.22
652.83	57466.00
653.02	57099.42
653.22	57762.96
653.41	57580.69
653.60	56986.78
653.80	57119.90
653.99	57693.33
654.18	57777.29
654.38	57547.92
654.57	57783.44
654.76	57738.38
654.96	57169.05
655.15	57787.53
655.34	57623.70
655.54	57197.72
655.73	57615.50
655.92	58193.03
656.12	57816.21
656.31	57713.81
656.50	57924.75
656.70	57926.80
656.89	57670.80
657.08	57793.68
657.28	57760.91
657.47	57871.50
657.66	58201.22
657.86	58066.06
658.05	57867.40
658.24	58143.88
658.43	57697.42
658.63	58160.26
658.82	58061.96
659.01	58129.54
659.21	58457.22
659.40	57883.79
659.59	58119.31
659.79	58115.21
659.98	57930.89
660.17	58481.80
660.36	58209.42
660.56	57734.29
660.75	57986.19
660.94	58068.11
661.14	58217.61
661.33	58082.44
661.52	57597.07
661.71	58250.38
661.91	57793.68
662.10	58086.54
662.29	58170.50
662.49	58672.26
662.68	58291.33
662.87	58027.15
663.06	58299.53
663.26	58197.13
663.45	58174.60
663.64	57939.08
663.83	58324.10
664.03	58379.40
664.22	58158.22
664.41	58778.75
664.60	57375.89
664.80	57650.32
664.99	58043.53
665.18	58225.80
665.37	58348.68
665.57	58426.50
665.76	58205.32
665.95	58143.88
666.14	58481.80
666.34	57859.21
666.53	58064.01
666.72	58246.28
666.91	57810.06
667.11	58021.00
667.30	58430.60
667.49	58039.43
667.68	57617.55
667.87	57891.98
668.07	58352.77
668.26	57990.28
668.45	57971.85
668.64	57926.80
668.84	58965.12
669.03	58383.49
669.22	58344.58
669.41	58086.54
669.60	58582.15
669.80	57828.49
669.99	58229.90
670.18	57891.98
670.37	58039.43
670.57	58565.76
670.76	58180.74
670.95	58166.41
671.14	58248.33
671.33	57685.14
671.53	58635.39
671.72	58166.41
671.91	58225.80
672.10	58168.46
672.29	58197.13
672.48	58156.17
672.68	58252.42
672.87	57988.24
673.06	58274.95
673.25	57816.21
673.44	57953.42
673.64	57644.18
673.83	57910.41
674.02	57726.10
674.21	57308.31
674.40	57836.69
674.59	57443.48
674.79	57674.90
674.98	57578.64
675.17	57615.50
675.36	57461.91
675.55	57975.95
675.74	57498.77
675.94	57234.58
676.13	57767.05
676.32	57982.09
676.51	58074.25
676.70	57676.94
676.89	58043.53
677.08	57730.19
677.28	57498.77
677.47	57883.79
677.66	57963.66
677.85	57529.49
678.04	57783.44
678.23	58010.76
678.42	57812.11
678.62	57549.97
678.81	57810.06
679.00	57818.25
679.19	57965.71
679.38	57564.31
679.57	57715.86
679.76	57474.20
679.96	57971.85
680.15	57439.38
680.34	57515.15
680.53	57162.90
680.72	57709.71
680.91	57783.44
681.10	57769.10
681.29	57482.39
681.48	57093.27
681.68	57263.25
681.87	56958.11
682.06	57234.58
682.25	57189.53
682.44	57074.84
682.63	57087.13
682.82	56808.61
683.01	57326.74
683.20	56878.24
683.39	57185.43
683.59	56620.19
683.78	56804.51
683.97	56824.99
684.16	57066.65
684.35	56861.85
684.54	57287.83
684.73	56628.38
684.92	56751.26
685.11	56829.08
685.30	56966.30
685.49	56997.02
685.69	56777.89
685.88	56986.78
686.07	56700.06
686.26	56870.04
686.45	56843.42
686.64	56646.82
686.83	56523.94
687.02	57074.84
687.21	56710.30
687.40	56239.27
687.59	56640.67
687.78	56194.21
687.97	57328.79
688.16	56366.24
688.35	56190.12
688.54	56577.18
688.74	56126.63
688.93	56269.99
689.12	56243.37
689.31	56429.73
689.50	56290.47
689.69	55866.54
689.88	55657.65
690.07	56319.14
690.26	55979.18
690.45	56427.68
690.64	55559.34
690.83	55999.66
691.02	55727.28
691.21	55823.53
691.40	55932.07
691.59	56239.27
691.78	55874.73
691.97	56108.20
692.16	55907.50
692.35	55817.39
692.54	55717.04
692.73	55999.66
692.92	55647.41
693.11	55704.75
693.30	55669.93
693.49	55557.30
693.68	55602.35
693.87	55553.20
694.06	55215.29
694.25	55309.49
694.44	54838.46
694.63	55798.96
694.82	55542.96
695.01	55254.20
695.20	55385.27
695.39	55399.60
695.58	55538.86
695.77	55440.56
695.96	54871.23
696.15	55084.22
696.34	54867.13
696.53	55389.36
696.72	55059.64
696.91	55153.85
697.10	55362.74
697.29	54533.31
697.48	54967.48
697.67	54619.33
697.86	54523.07
698.05	54717.63
698.24	55196.85
698.43	54363.33
698.62	54441.15
698.81	54185.16
699.00	54920.38
699.19	54222.02
699.38	54803.64
699.57	53992.65
699.76	55127.22
699.95	54205.64
700.14	53908.68
700.32	54187.21
700.51	53902.54
700.70	54373.57
700.89	54191.30
701.08	54426.82
701.27	54170.82
701.46	54303.94
701.65	53875.91
701.84	54084.81
702.03	54039.75
702.22	53945.54
702.41	53884.11
702.60	54230.21
702.79	53937.35
702.98	53724.36
703.17	53767.37
703.35	53470.42
703.54	53257.43
703.73	53953.74
703.92	53632.21
704.11	53515.47
704.30	53058.77
704.49	52983.00
704.68	53247.19
704.87	53570.77
705.06	53712.08
705.25	53388.50
705.43	53267.67
705.62	53216.47
705.81	52997.34
706.00	53187.80
706.19	53040.34
706.38	52892.89
706.57	52995.29
706.76	52690.14
706.95	53026.01
707.14	52731.10
707.32	52866.27
707.51	52577.50
707.70	53042.39
707.89	52839.64
708.08	52665.56
708.27	52221.16
708.46	53038.29
708.65	52368.61
708.84	52925.66
709.02	52321.51
709.21	52184.29
709.40	52651.23
709.59	52640.99
709.78	52270.31
709.97	52946.14
710.16	52393.18
710.34	52468.96
710.53	52395.23
710.72	52155.62
710.91	51772.65
711.10	52532.45
711.29	52430.05
711.48	52270.31
711.66	52178.15
711.85	52104.42
712.04	51670.25
712.23	52147.43
712.42	51989.73
712.61	51907.82
712.80	52143.33
712.98	51879.14
713.17	51053.81
713.36	51635.44
713.55	51680.49
713.74	51447.02
713.93	51975.40
714.11	51741.93
714.30	51172.60
714.49	51270.90
714.68	51807.47
714.87	51660.01
715.06	51614.96
715.24	51225.84
715.43	50959.61
715.62	51094.77
715.81	50939.13
716.00	51127.54
716.18	50975.99
716.37	51227.89
716.56	50992.37
716.75	51336.43
716.94	50838.78
717.12	50834.68
717.31	51158.26
717.50	50967.80
717.69	50740.47
717.88	50892.02
718.06	50709.75
718.25	51090.68
718.44	50388.22
718.63	50179.33
718.82	50337.02
719.00	50353.41
719.19	50693.37
719.38	50205.95
719.57	49945.86
719.76	49816.84
719.94	50060.55
720.13	49909.00
720.32	50042.12
720.51	49632.52
720.69	50003.20
720.88	49702.15
721.07	49921.29
721.26	49255.70
721.44	49704.20
721.63	49177.87
721.82	49343.76
722.01	49196.31
722.20	50138.37
722.38	48995.60
722.57	49081.62
722.76	49224.98
722.95	49136.91
723.13	48764.18
723.32	48696.60
723.51	48776.47
723.70	48733.46
723.88	48870.68
724.07	48758.04
724.26	48776.47
724.44	48200.99
724.63	48706.84
724.82	48555.29
725.01	48567.58
725.19	48755.99
725.38	48411.93
725.57	48596.25
725.76	48252.19
725.94	48295.20
726.13	48108.83
726.32	48168.22
726.51	48028.96
726.69	48567.58
726.88	48051.49
727.07	48213.28
727.25	48108.83
727.44	48375.07
727.63	47957.28
727.82	47895.85
728.00	47969.57
728.19	48018.72
728.38	47961.38
728.56	47533.35
728.75	48200.99
728.94	47734.06
729.12	48071.97
729.31	48448.80
729.50	47789.35
729.69	47920.42
729.87	48112.93
730.06	47697.19
730.25	47519.02
730.43	47975.72
730.62	47869.22
730.81	48059.68
730.99	47938.85
731.18	47605.03
731.37	47822.12
731.55	47340.85
731.74	48033.06
731.93	48160.03
732.11	48043.30
732.30	47523.11
732.49	47711.53
732.67	48057.63
732.86	47787.30
733.05	47344.94
733.23	47293.74
733.42	47516.97
733.61	47263.02
733.79	47942.95
733.98	47836.45
734.17	47637.80
734.35	47703.34
734.54	48035.11
734.73	47627.56
734.91	47607.08
735.10	47117.62
735.29	47543.59
735.47	47342.89
735.66	47553.83
735.84	47521.07
736.03	47250.74
736.22	47811.88
736.40	47074.61
736.59	47916.32
736.78	47342.89
736.96	47447.34
737.15	47254.83
737.33	47111.47
737.52	47134.00
737.71	47054.13
737.89	46812.47
738.08	46714.17
738.27	46630.20
738.45	47568.17
738.64	47246.64
738.82	47428.91
739.01	47150.38
739.20	46699.83
739.38	46908.72
739.57	47699.24
739.75	47195.44
739.94	46544.19
740.13	46785.85
740.31	46927.16
740.50	47025.46
740.68	46671.16
740.87	47056.18
741.06	46787.89
741.24	46665.02
741.43	46689.59
741.61	46978.36
741.80	46421.31
741.99	46556.47
742.17	46292.29
742.36	46273.85
742.54	46294.33
742.73	46552.38
742.91	46867.76
743.10	46228.80
743.29	47017.27
743.47	46716.22
743.66	46355.77
743.84	46349.63
744.03	46304.57
744.21	46036.29
744.40	46478.65
744.59	46261.57
744.77	46243.13
744.96	45909.32
745.14	46071.10
745.33	46378.30
745.51	46157.12
745.70	46114.11
745.88	46406.97
746.07	46333.24
746.26	45552.97
746.44	45778.25
746.63	46140.74
746.81	46175.55
747.00	45968.71
747.18	46282.05
747.37	45956.42
747.55	45790.53
747.74	46310.72
747.92	45761.86
748.11	45663.56
748.29	46161.22
748.48	46179.65
748.66	45919.56
748.85	45593.93
749.03	45725.00
749.22	45782.34
749.41	45395.28
749.59	45544.78
749.78	44916.05
749.96	45143.38
750.15	45200.72
750.33	45491.53
750.52	45329.74
750.70	45290.83
750.89	44793.17
751.07	45139.28
751.26	45606.22
751.44	44938.58
751.63	45038.93
751.81	45204.81
752.00	44625.24
752.18	45415.76
752.37	44678.49
752.55	44793.17
752.74	45206.86
752.92	45012.31
753.10	44397.91
753.29	44717.40
753.47	44864.85
753.66	44459.35
753.84	44850.52
754.03	44569.94
754.21	44356.96
754.40	44610.90
754.58	44465.50
754.77	44416.35
754.95	44299.61
755.14	44510.55
755.32	44594.52
755.51	44461.40
755.69	44229.98
755.88	44135.77
756.06	44397.91
756.24	44217.69
756.43	44338.52
756.61	44229.98
756.80	44408.15
756.98	43824.48
757.17	44121.44
757.35	44590.42
757.54	44203.36
757.72	44275.04
757.90	44150.11
758.09	44004.70
758.27	43717.99
758.46	43947.36
758.64	43652.45
758.83	44199.26
759.01	43881.83
759.19	43873.63
759.38	43955.55
759.56	44049.76
759.75	44033.38
759.93	43775.33
760.12	43818.34
760.30	43955.55
760.48	43468.14
760.67	43572.58
760.85	43791.72
761.04	43625.83
761.22	43775.33
761.40	43343.21
761.59	43625.83
761.77	43445.61
761.96	43150.70
762.14	43636.07
762.32	43300.20
762.51	43220.33
762.69	43126.13
762.88	43060.59
763.06	43292.01
763.24	43414.89
763.43	42978.67
763.61	43283.82
763.80	43031.92
763.98	43101.55
764.16	43021.68
764.35	42763.64
764.53	42603.89
764.72	42958.19
764.90	42669.43
765.08	42720.63
765.27	43210.09
765.45	42782.07
765.63	42481.02
765.82	42780.02
766.00	42476.92
766.18	42671.48
766.37	43410.79
766.55	42409.34
766.74	42452.34
766.92	42767.73
767.10	42366.33
767.29	42382.71
767.47	41856.39
767.65	42521.98
767.84	41799.04
768.02	42847.60
768.20	41858.43
768.39	42466.68
768.57	42468.73
768.75	42184.06
768.94	42081.66
769.12	42091.90
769.30	41743.75
769.49	42032.51
769.67	41473.42
769.85	41430.41
770.04	41948.54
770.22	41328.01
770.40	41182.60
770.59	41655.68
770.77	41825.67
770.95	41627.01
771.14	41336.20
771.32	41164.17
771.50	41194.89
771.69	41381.26
771.87	41059.73
772.05	41364.87
772.24	40777.11
772.42	41209.23
772.60	40973.71
772.78	41239.95
772.97	40957.33
773.15	41178.51
773.33	40969.61
773.52	40990.09
773.70	40793.49
773.88	41276.81
774.07	40789.39
774.25	40625.56
774.43	40947.09
774.61	41057.68
774.80	41254.28
774.98	40889.74
775.16	41262.47
775.34	41112.97
775.53	40748.43
775.71	41227.66
775.89	41026.96
776.08	41104.78
776.26	41393.54
776.44	41102.73
776.62	40846.74
776.81	41069.97
776.99	41524.61
777.17	41473.42
777.35	41354.63
777.54	41618.82
777.72	41334.15
777.90	41371.02
778.08	41506.18
778.27	41338.25
778.45	41846.15
778.63	41729.41
778.81	41215.37
779.00	42212.73
779.18	41534.85
779.36	41794.95
779.54	41637.25
779.73	41385.35
779.91	41780.61
780.09	41739.65
780.27	41919.87
780.46	41727.36
780.64	42098.05
780.82	41948.54
781.00	42081.66
781.19	42055.04
781.37	42096.00
781.55	42227.07
781.73	42313.08
781.91	41852.29
782.10	41776.51
782.28	42265.98
782.46	41895.30
782.64	42446.20
782.82	41874.82
783.01	42687.86
783.19	42308.99
783.37	42362.23
783.55	42259.84
783.74	42728.82
783.92	42018.17
784.10	42872.18
784.28	42550.65
784.46	41995.65
784.64	42360.19
784.83	42489.21
785.01	42673.52
785.19	42186.11
785.37	42425.72
785.55	42425.72
785.74	41788.80
785.92	41786.75
786.10	42079.61
786.28	42468.73
786.46	41792.90
786.64	41731.46
786.83	42061.18
787.01	42526.07
787.19	42233.21
787.37	42100.09
787.55	42276.22
787.74	41407.88
787.92	41764.23
788.10	41932.16
788.28	41659.78
788.46	41670.02
788.64	41489.80
788.82	42288.51
789.01	41844.10
789.19	41905.54
789.37	41553.29
789.55	41723.27
789.73	41395.59
789.91	41497.99
790.09	41688.45
790.28	41102.73
790.46	41170.32
790.64	41555.33
790.82	41037.20
791.00	41018.77
791.18	40779.15
791.36	40963.47
791.55	40983.95
791.73	40805.78
791.91	40422.81
792.09	40957.33
792.27	40596.88
792.45	40887.70
792.63	40734.10
792.81	40420.76
793.00	39957.92
793.18	40261.02
793.36	40031.65
793.54	40265.11
793.72	40142.24
793.90	39931.29
794.08	39884.19
794.26	40037.79
794.44	39364.01
794.62	39359.91
794.81	39775.65
794.99	39484.84
795.17	39663.01
795.35	39912.86
795.53	39404.97
795.71	39402.92
795.89	39441.83
796.07	38747.57
796.25	39171.50
796.43	38942.13
796.61	38659.51
796.80	38925.74
796.98	38665.65
797.16	38727.09
797.34	38667.70
797.52	38497.72
797.70	38759.86
797.88	38204.86
798.06	38432.18
798.24	38211.00
798.42	38131.13
798.60	37856.70
798.78	38059.45
798.96	37844.41
799.14	37889.47
799.32	37914.05
799.51	37721.54
799.69	37330.37
799.87	37764.54
800.05	37346.76
800.23	37594.56
800.41	37264.84
800.59	37330.37
800.77	37164.49
800.95	36720.08
801.13	37164.49
801.31	37152.20
801.49	36998.60
801.67	36611.54
801.85	36859.34
802.03	36543.95
802.21	36453.84
802.39	36603.35
802.57	36318.68
802.75	36269.53
802.93	36040.15
803.11	35966.43
803.29	36054.49
803.47	35757.53
803.65	36206.04
803.83	36220.38
804.01	35997.15
804.19	35585.50
804.37	35532.26
804.55	35861.98
804.73	35966.43
804.91	35567.07
805.09	35577.31
805.27	35524.07
805.45	35646.94
805.63	35378.66
805.81	35263.97
805.99	34987.50
806.17	35349.99
806.35	34995.69
806.53	34776.56
806.71	34760.17
806.89	34641.39
807.07	34778.61
807.25	35063.27
807.43	34491.89
807.61	34237.94
807.79	34678.25
807.97	34117.11
808.15	34184.69
808.33	34438.64
808.51	34305.52
808.69	33830.40
808.87	33789.44
809.05	34084.34
809.23	33938.94
809.41	33838.59
809.59	33920.51
809.77	34043.38
809.95	33797.63
810.13	33885.69
810.31	33506.82
810.49	33752.57
810.67	33482.24
810.84	33422.85
811.02	33603.07
811.20	33144.33
811.38	33365.51
811.56	32783.88
811.74	32953.87
811.92	32634.38
812.10	32892.43
812.28	33023.50
812.46	32927.24
812.64	32923.15
812.82	32450.06
813.00	32585.23
813.18	32687.63
813.36	32423.44
813.53	32200.21
813.71	32497.17
813.89	31972.89
814.07	32343.57
814.25	32169.49
814.43	32130.58
814.61	31976.98
814.79	31991.32
814.97	31960.60
815.15	32136.73
815.33	31641.12
815.50	31850.01
815.68	31790.62
815.86	32007.70
816.04	31317.54
816.22	31544.86
816.40	31696.41
816.58	31565.34
816.76	31364.64
816.94	31577.63
817.11	31485.47
817.29	31381.03
817.47	31346.21
817.65	31082.02
817.83	31329.83
818.01	31077.93
818.19	31295.01
818.37	31180.32
818.54	30651.95
818.72	30770.73
818.90	30699.05
819.08	30449.20
819.26	30860.84
819.44	30670.38
819.62	30506.54
819.80	30670.38
819.97	30756.39
820.15	30375.47
820.33	30121.52
820.51	30508.59
820.69	30160.44
820.87	30518.83
821.05	30375.47
821.22	30117.43
821.40	30080.56
821.58	29902.39
821.76	29808.19
821.94	30000.69
822.12	30027.32
822.29	30307.89
822.47	29730.36
822.65	30119.48
822.83	29996.60
823.01	29742.65
823.19	29496.89
823.36	29558.33
823.54	29234.75
823.72	29365.82
823.90	29580.86
824.08	29331.01
824.25	29345.34
824.43	29331.01
824.61	29163.08
824.79	29486.65
824.97	29048.39
825.15	29230.66
825.32	28997.19
825.50	28929.61
825.68	29263.43
825.86	29351.49
826.04	28984.90
826.21	29193.79
826.39	29089.35
826.57	28718.67
826.75	28687.95
826.93	28669.51
827.10	28839.50
827.28	28808.78
827.46	28847.69
827.64	28640.84
827.81	28509.77
827.99	28356.18
828.17	28290.64
828.35	28382.80
828.53	28307.02
828.70	28108.37
828.88	28235.35
829.06	28245.58
829.24	28520.01
829.41	28081.75
829.59	28360.27
829.77	28390.99
829.95	28325.46
830.12	28012.12
830.30	27917.91
830.48	28016.21
830.66	28028.50
830.84	27788.89
831.01	27819.61
831.19	27715.16
831.37	27653.72
831.55	27604.57
831.72	27600.47
831.90	27778.65
832.08	27928.15
832.25	27414.11
832.43	27643.48
832.61	27410.01
832.79	27086.43
832.96	27352.67
833.14	27164.26
833.32	27592.28
833.50	27502.17
833.67	27543.13
833.85	27252.32
834.03	26809.96
834.20	27186.79
834.38	27227.74
834.56	27199.07
834.74	27041.38
834.91	26725.99
835.09	27176.55
835.27	26941.03
835.44	26754.66
835.62	26910.31
835.80	26865.25
835.98	26637.93
836.15	26748.52
836.33	26887.78
836.51	26510.96
836.68	26406.51
836.86	26508.91
837.04	26750.57
837.21	26498.67
837.39	26599.02
837.57	26748.52
837.75	26508.91
837.92	26285.68
838.10	26476.14
838.28	25962.10
838.45	26424.94
838.63	26117.75
838.81	26277.49
838.98	26162.80
839.16	26064.50
839.34	26025.59
839.51	26166.90
839.69	25880.18
839.87	25951.86
840.04	25732.73
840.22	25958.00
840.40	25751.16
840.57	25527.93
840.75	25615.99
840.93	25734.78
841.10	25779.83
841.28	26068.59
841.46	25509.50
841.63	25581.18
841.81	25648.76
841.98	25476.73
842.16	25566.84
842.34	25634.42
842.51	25398.91
842.69	25491.07
842.87	25509.50
843.04	25503.35
843.22	25009.79
843.40	24907.40
843.57	24999.55
843.75	25409.15
843.92	25329.28
844.10	24942.21
844.28	25167.49
844.45	25087.62
844.63	25251.45
844.81	24895.11
844.98	25267.84
845.16	25036.42
845.33	24870.53
845.51	24852.10
845.69	25122.43
845.86	24696.46
846.04	24632.97
846.21	24493.71
846.39	24731.27
846.57	24505.99
846.74	24962.69
846.92	24649.35
847.09	24540.81
847.27	24352.40
847.45	24596.10
847.62	24473.23
847.80	24266.38
847.97	24409.74
848.15	24270.48
848.32	24313.48
848.50	24127.12
848.68	23991.95
848.85	24120.98
849.03	23580.31
849.20	24000.15
849.38	24389.26
849.56	24110.74
849.73	23893.65
849.91	24051.34
850.08	24137.36
850.26	23881.36
850.43	23690.90
850.61	23783.06
850.78	23781.01
850.96	23549.59
851.14	23729.81
851.31	24112.78
851.49	23629.46
851.66	23561.88
851.84	23277.21
852.01	23586.46
852.19	23695.00
852.36	23369.37
852.54	23545.50
852.71	23400.09
852.89	23400.09
853.07	23322.27
853.24	23389.85
853.42	23279.26
853.59	23154.33
853.77	23312.03
853.94	23266.97
854.12	23635.61
854.29	23357.08
854.47	23244.45
854.64	23363.23
854.82	23176.86
854.99	22881.95
855.17	22988.45
855.34	22965.92
855.52	23230.11
855.69	23172.77
855.87	22910.63
856.04	22523.56
856.22	23074.46
856.39	22724.26
856.57	22830.76
856.74	22625.96
856.92	22869.67
857.09	22490.79
857.27	22572.71
857.44	22716.07
857.62	22861.48
857.79	22992.55
857.97	22568.62
858.14	22750.88
858.32	22386.35
858.49	22560.42
858.67	22685.35
858.84	22249.13
859.02	22333.10
859.19	22501.03
859.37	22173.36
859.54	21917.36
859.72	22066.86
859.89	22087.34
860.06	22193.84
860.24	22228.65
860.41	22144.69
860.59	22245.04
860.76	22101.68
860.94	21696.18
861.11	22042.29
861.29	21880.50
861.46	21829.30
861.64	21581.49
861.81	21683.89
861.98	21849.78
862.16	21710.52
862.33	21565.11
862.51	21747.38
862.68	21778.10
862.86	21667.51
863.03	21464.76
863.21	21415.61
863.38	21376.70
863.55	21434.04
863.73	21741.24
863.90	21511.86
864.08	21294.78
864.25	21219.00
864.43	21528.25
864.60	21345.98
864.77	20926.14
864.95	20817.60
865.12	21141.18
865.30	21126.85
865.47	21098.17
865.64	20831.94
865.82	21044.93
865.99	21077.69
866.17	20954.82
866.34	20954.82
866.51	21038.78
866.69	20934.34
866.86	21245.63
867.04	20625.09
867.21	20725.44
867.38	20661.96
867.56	20704.96
867.73	20786.88
867.91	20606.66
868.08	20623.05
868.25	20481.74
868.43	20190.92
868.60	20301.51
868.78	20129.48
868.95	20522.69
869.12	20393.67
869.30	20152.01
869.47	20385.48
869.64	20227.79
869.82	20422.34
869.99	20262.60
870.16	20287.18
870.34	19930.83
870.51	20022.99
870.69	20025.04
870.86	20068.05
871.03	20272.84
871.21	19936.98
871.38	20203.21
871.55	19853.01
871.73	19635.92
871.90	19678.93
872.07	19574.49
872.25	19539.67
872.42	19588.82
872.59	19535.57
872.77	19662.55
872.94	19535.57
873.11	19351.26
873.29	19769.04
873.46	19478.23
873.63	19357.40
873.81	19353.30
873.98	19203.80
874.15	19103.45
874.33	19101.40
874.50	18943.71
874.67	19306.20
874.85	18798.31
875.02	19068.64
875.19	18921.18
875.37	18859.74
875.54	18738.91
875.71	19099.36
875.88	18986.72
876.06	18716.39
876.23	18925.28
876.40	18650.85
876.58	18798.31
876.75	18816.74
876.92	18386.66
877.10	18749.15
877.27	18484.97
877.44	18452.20
877.61	18382.57
877.79	18511.59
877.96	18102.00
878.13	18308.84
878.31	18042.60
878.48	18054.89
878.65	17944.30
878.82	17901.29
879.00	18054.89
879.17	18009.84
879.34	18083.56
879.51	18003.69
879.69	18194.15
879.86	17770.22
880.03	17966.83
880.21	17723.12
880.38	18013.93
880.55	17788.66
880.72	17592.05
880.90	17661.68
881.07	17610.48
881.24	17667.83
881.41	17671.92
881.59	17374.97
881.76	17530.61
881.93	17559.28
882.10	17559.28
882.28	17338.10
882.45	17426.17
882.62	17520.37
882.79	17420.02
882.96	17069.82
883.14	17372.92
883.31	17411.83
883.48	17219.32
883.65	17147.64
883.83	17458.93
884.00	17082.11
884.17	17198.84
884.34	17112.83
884.51	17315.58
884.69	17106.68
884.86	16936.70
885.03	17016.57
885.20	16912.13
885.38	16912.13
885.55	17018.62
885.72	16983.80
885.89	16924.41
886.06	16895.74
886.24	16869.12
886.41	16729.86
886.58	17200.89
886.75	16967.42
886.92	16590.59
887.10	16860.93
887.27	16633.60
887.44	16500.48
887.61	16697.09
887.78	16858.88
887.95	16412.42
888.13	16697.09
888.30	16297.74
888.47	16619.27
888.64	16860.93
888.81	16563.97
888.99	16271.11
889.16	16371.46
889.33	16199.43
889.50	16256.78
889.67	16330.50
889.84	16250.63
890.01	16506.63
890.19	16320.26
890.36	16291.59
890.53	16389.89
890.70	16226.06
890.87	16451.33
891.04	16281.35
891.22	16103.18
891.39	15945.48
891.56	15972.11
891.73	15965.96
891.90	15795.98
892.07	15697.68
892.24	15814.41
892.42	15601.43
892.59	15697.68
892.76	15666.96
892.93	15673.10
893.10	15550.23
893.27	15615.76
893.44	15623.95
893.61	15415.06
893.79	15750.93
893.96	15548.18
894.13	15765.26
894.30	15582.99
894.47	15621.91
894.64	15744.78
894.81	15521.56
894.98	15669.01
895.15	15654.67
895.33	15562.51
895.50	15451.92
895.67	15552.27
895.84	15730.45
896.01	15490.84
896.18	15386.39
896.35	15726.35
896.52	15652.63
896.69	15484.69
896.86	15343.38
897.04	15503.12
897.21	15437.59
897.38	15546.13
897.55	15505.17
897.72	15658.77
897.89	15251.22
898.06	15464.21
898.23	15243.03
898.40	15263.51
898.57	15431.44
898.74	15367.96
898.91	15226.65
899.08	15415.06
899.26	15042.33
899.43	15185.69
899.60	15417.11
899.77	15257.37
899.94	15101.72
900.11	15228.70
900.28	15312.66
900.45	15320.85
900.62	15193.88
900.79	15267.61
900.96	15189.78
901.13	15341.33
901.30	15167.26
901.47	15238.94
901.64	15136.54
901.81	15267.61
901.98	15099.67
902.15	15327.00
902.32	15288.09
902.49	15175.45
902.66	15175.45
902.83	15015.71
903.01	15083.29
903.18	15114.01
903.35	14980.89
903.52	15286.04
903.69	15206.17
903.86	15173.40
904.03	15286.04
904.20	15206.17
904.37	15296.28
904.54	15257.37
904.71	15234.84
904.88	15308.57
905.05	15257.37
905.22	15040.28
905.39	15048.47
905.56	15351.57
905.73	14870.30
905.90	15120.15
906.07	15097.63
906.24	15157.02
906.41	15189.78
906.58	15234.84
906.75	15144.73
906.92	15060.76
907.09	14962.46
907.26	15228.70
907.43	14950.17
907.60	15001.37
907.77	15189.78
907.93	14862.11
908.10	14925.60
908.27	15189.78
908.44	14884.64
908.61	14923.55
908.78	15050.52
908.95	14821.15
909.12	14769.95
909.29	14800.67
909.46	14853.92
909.63	15015.71
909.80	14972.70
909.97	15003.42
910.14	14989.08
910.31	14982.94
910.48	14843.68
910.65	14919.45
910.82	14733.09
910.99	14966.56
911.16	14792.48
911.33	14692.13
911.50	14731.04
911.66	14602.02
911.83	14651.17
912.00	14407.46
912.17	14606.11
912.34	14479.14
912.51	14614.30
912.68	14382.88
912.85	14651.17
913.02	14622.50
913.19	14386.98
913.36	14532.39
913.53	14520.10
913.70	14411.56
913.86	14513.95
914.03	14405.41
914.20	14421.80
914.37	14219.05
914.54	14104.36
914.71	14225.19
914.88	14409.51
915.05	14249.77
915.22	14044.97
915.39	14247.72
915.55	14249.77
915.72	14085.93
915.89	14053.16
916.06	13967.15
916.23	13985.58
916.40	13905.71
916.57	13698.86
916.74	13778.73
916.91	13799.21
917.07	13692.72
917.24	13670.19
917.41	13676.34
917.58	13719.34
917.75	13541.17
917.92	13479.73
918.09	13582.13
918.26	13506.35
918.42	13682.48
918.59	13358.90
918.76	13428.53
918.93	13520.69
919.10	13150.01
919.27	13248.31
919.44	13461.30
919.60	13090.62
919.77	13315.89
919.94	13324.08
920.11	13090.62
920.28	13180.73
920.45	12949.31
920.61	12898.11
920.78	12988.22
920.95	12875.58
921.12	12926.78
921.29	12781.37
921.46	12558.14
921.62	12734.27
921.79	12816.19
921.96	12508.99
922.13	12926.78
922.30	12455.75
922.47	12298.05
922.63	12451.65
922.80	12638.02
922.97	12244.81
923.14	12386.12
923.31	12332.87
923.47	12123.98
923.64	12226.37
923.81	12091.21
923.98	12115.78
924.15	11984.71
924.32	12066.63
924.48	12029.77
924.65	12166.98
924.82	11800.40
924.99	11800.40
925.15	11710.29
925.32	12048.20
925.49	11534.16
925.66	11695.95
925.83	11450.19
925.99	11513.68
926.16	11554.64
926.33	11435.86
926.50	11304.79
926.67	11575.12
926.83	11485.01
927.00	11233.11
927.17	11433.81
927.34	11059.03
927.50	11065.18
927.67	11226.96
927.84	11229.01
928.01	11169.62
928.17	11030.36
928.34	10846.04
928.51	10981.21
928.68	10768.22
928.84	10833.75
929.01	10762.08
929.18	10510.18
929.35	10624.86
929.51	10495.84
929.68	10450.78
929.85	10737.50
930.02	10428.26
930.18	10604.38
930.35	10397.54
930.52	10307.43
930.69	10428.26
930.85	10405.73
931.02	10319.71
931.19	10356.58
931.36	10229.60
931.52	10186.60
931.69	10065.77
931.86	9932.65
932.02	9805.67
932.19	9850.73
932.36	9944.94
932.53	9879.40
932.69	9797.48
932.86	9785.19
933.03	9736.04
933.19	9572.21
933.36	9600.88
933.53	9625.45
933.70	9322.35
933.86	9617.26
934.03	9664.36
934.20	9183.09
934.36	9404.27
934.53	9025.40
934.70	9097.08
934.86	9228.15
935.03	8908.66
935.20	8949.62
935.36	8824.70
935.53	8785.79
935.70	8793.98
935.86	8806.27
936.03	8685.44
936.20	8630.14
936.36	8390.53
936.53	8388.48
936.70	8384.38
936.86	8568.70
937.03	8404.86
937.20	8114.05
937.36	8109.96
937.53	7937.93
937.70	7761.80
937.86	7866.25
938.03	7765.90
938.20	7823.24
938.36	7554.96
938.53	7503.76
938.70	7344.02
938.86	7489.42
939.03	7315.34
939.20	7237.52
939.36	7038.87
939.53	7165.84
939.70	7258.00
939.86	6959.00
940.03	6764.44
940.19	6799.26
940.36	6811.54
940.53	6698.91
940.69	6606.75
940.86	6690.71
941.03	6410.14
941.19	6422.43
941.36	6381.47
941.52	6352.80
941.69	6170.53
941.86	6057.89
942.02	6121.38
942.19	6098.85
942.35	6117.28
942.52	5928.87
942.69	5892.01
942.85	5818.28
943.02	5898.15
943.18	5726.12
943.35	5779.37
943.52	5693.35
943.68	5605.29
943.85	5820.33
944.01	5590.95
944.18	5394.35
944.35	5517.23
944.51	5517.23
944.68	5509.04
944.84	5484.46
945.01	5302.19
945.17	5519.28
945.34	5435.31
945.51	5418.93
945.67	5152.69
945.84	5361.58
946.00	5257.14
946.17	5353.39
946.33	5230.51
946.50	5404.59
946.67	5226.42
946.83	5195.70
947.00	5322.67
947.16	5234.61
947.33	5205.94
947.49	5171.12
947.66	5320.62
947.82	5334.96
947.99	5119.92
948.16	5255.09
948.32	5230.51
948.49	5289.90
948.65	5267.38
948.82	5175.22
948.98	5291.95
949.15	5109.68
949.31	5156.79
949.48	5359.53
949.64	5300.14
949.81	5287.86
949.97	5236.66
950.14	5296.05
950.30	5142.45
950.47	5287.86
950.63	5191.60
950.80	5330.86
950.96	5212.08
951.13	5220.27
951.30	5175.22
951.46	5273.52
951.63	5412.78
951.79	5337.01
951.96	5320.62
952.12	5304.24
952.29	5447.60
952.45	5146.55
952.62	5308.34
952.78	5328.81
952.94	5332.91
953.11	5214.13
953.27	5355.44
953.44	5463.98
953.60	5334.96
953.77	5369.77
953.93	5298.10
954.10	5404.59
954.26	5427.12
954.43	5343.15
954.59	5494.70
954.76	5404.59
954.92	5388.21
955.09	5457.84
955.25	5197.74
955.42	5253.04
955.58	5572.52
955.75	5400.49
955.91	5310.38
956.07	5308.34
956.24	5427.12
956.40	5396.40
956.57	5550.00
956.73	5302.19
956.90	5537.71
957.06	5279.66
957.23	5361.58
957.39	5287.86
957.56	5418.93
957.72	5300.14
957.88	5306.29
958.05	5582.76
958.21	5470.12
958.38	5349.29
958.54	5396.40
958.71	5496.75
958.87	5470.12
959.03	5363.63
959.20	5547.95
959.36	5310.38
959.53	5291.95
959.69	5449.64
959.85	5339.05
960.02	5238.70
960.18	5377.97
960.35	5425.07
960.51	5558.19
960.68	5248.94
960.84	5390.25
961.00	5365.68
961.17	5390.25
961.33	5312.43
961.50	5404.59
961.66	5373.87
961.82	5365.68
961.99	5355.44
962.15	5212.08
962.31	5384.11
962.48	5490.60
962.64	5308.34
962.81	5375.92
962.97	5431.21
963.13	5439.40
963.30	5371.82
963.46	5287.86
963.62	5263.28
963.79	5294.00
963.95	5386.16
964.12	5371.82
964.28	5259.18
964.44	5332.91
964.61	5304.24
964.77	5281.71
964.93	5459.88
965.10	5267.38
965.26	5328.81
965.42	5275.57
965.59	5197.74
965.75	5296.05
965.92	5265.33
966.08	5222.32
966.24	5283.76
966.41	5201.84
966.57	5238.70
966.73	5310.38
966.90	5304.24
967.06	5263.28
967.22	5216.18
967.39	5119.92
967.55	5193.65
967.71	5169.07
967.88	5199.79
968.04	5072.82
968.20	5158.83
968.37	5150.64
968.53	5015.48
968.69	5117.87
968.85	5107.63
969.02	5201.84
969.18	5119.92
969.34	5140.40
969.51	5121.97
969.67	5107.63
969.83	4956.08
970.00	5126.07
970.16	5009.33
970.32	5093.30
970.48	5275.57
970.65	4995.00
970.81	4947.89
970.97	4988.85
971.14	4882.36
971.30	5005.24
971.46	5025.72
971.63	5052.34
971.79	5066.67
971.95	4931.51
972.11	4896.69
972.28	4960.18
972.44	5009.33
972.60	4804.53
972.76	4968.37
972.93	4900.79
973.09	4925.36
973.25	4822.97
973.42	4923.32
973.58	4917.17
973.74	4958.13
973.90	4876.21
974.07	4640.70
974.23	4771.77
974.39	4845.49
974.55	4822.97
974.72	4755.38
974.88	4753.34
975.04	4728.76
975.20	4861.88
975.37	4724.66
975.53	4755.38
975.69	4761.53
975.85	4716.47
976.01	4728.76
976.18	4812.73
976.34	4728.76
976.50	4816.82
976.66	4745.14
976.83	4638.65
976.99	4599.74
977.15	4673.46
977.31	4427.71
977.47	4671.42
977.64	4693.94
977.80	4550.59
977.96	4526.01
978.12	4597.69
978.29	4663.22
978.45	4560.83
978.61	4468.67
978.77	4591.55
978.93	4636.60
979.10	4485.05
979.26	4480.96
979.42	4423.61
979.58	4327.36
979.74	4394.94
979.91	4480.96
980.07	4372.41
980.23	4313.02
980.39	4466.62
980.55	4437.95
980.71	4452.28
980.88	4370.37
981.04	4470.72
981.20	4405.18
981.36	4634.55
981.52	4431.80
981.68	4319.17
981.85	4358.08
982.01	4337.60
982.17	4251.58
982.33	4323.26
982.49	4456.38
982.65	4317.12
982.82	4317.12
982.98	4315.07
983.14	4276.16
983.30	4364.22
983.46	4306.88
983.62	4394.94
983.79	4181.95
983.95	4280.25
984.11	4116.42
984.27	4233.15
984.43	4208.58
984.59	4241.34
984.75	4231.10
984.91	4288.45
985.08	4212.67
985.24	4063.17
985.40	4087.75
985.56	4044.74
985.72	4106.18
985.88	4171.71
986.04	4026.31
986.20	4075.46
986.37	4130.75
986.53	4132.80
986.69	4081.60
986.85	3895.24
987.01	3999.68
987.17	4003.78
987.33	4067.27
987.49	3930.05
987.65	4028.35
987.82	3940.29
987.98	3934.15
988.14	3827.65
988.30	3981.25
988.46	3848.13
988.62	3878.85
988.78	3864.52
988.94	3905.48
989.10	3899.33
989.26	3852.23
989.42	3885.00
989.59	3749.83
989.75	3790.79
989.91	3813.32
990.07	3700.68
990.23	3835.85
990.39	3878.85
990.55	3772.36
990.71	3762.12
990.87	3762.12
991.03	3817.41
991.19	3819.46
991.35	3612.62
991.51	3796.93
991.67	3831.75
991.83	3762.12
992.00	3741.64
992.16	3780.55
992.32	3672.01
992.48	3704.78
992.64	3712.97
992.80	3719.11
992.96	3717.06
993.12	3612.62
993.28	3774.41
993.44	3604.42
993.60	3682.25
993.76	3545.03
993.92	3780.55
994.08	3717.06
994.24	3559.37
994.40	3629.00
994.56	3657.67
994.72	3610.57
994.88	3491.79
995.04	3555.27
995.20	3565.51
995.36	3520.46
995.52	3506.12
995.68	3649.48
995.84	3534.79
996.00	3637.19
996.16	3469.26
996.32	3446.73
996.48	3454.92
996.64	3432.40
996.80	3440.59
996.96	3401.68
997.12	3459.02
997.28	3342.28
997.44	3360.72
997.60	3438.54
997.76	3452.88
997.92	3442.64
998.08	3436.49
998.24	3182.54
998.40	3377.10
998.56	3440.59
998.72	3256.27
998.88	3219.41
999.04	3309.52
999.20	3297.23
999.36	3278.80
999.52	3426.25
999.68	3352.52
999.84	3348.43
1000.00	3370.96
1000.16	3319.76
1000.32	3229.65
1000.48	3428.30
1000.64	3282.89
1000.80	3276.75
1000.95	3192.78
1001.11	3313.61
1001.27	3260.37
1001.43	3229.65
1001.59	3170.26
1001.75	3170.26
1001.91	3260.37
1002.07	3174.35
1002.23	3119.06
1002.39	3051.47
1002.55	3094.48
1002.71	3067.86
1002.87	3008.47
1003.03	3114.96
1003.19	3133.39
1003.34	3162.06
1003.50	3145.68
1003.66	3121.10
1003.82	3157.97
1003.98	2953.17
1004.14	3170.26
1004.30	3053.52
1004.46	3059.67
1004.62	3002.32
1004.78	3119.06
1004.94	3092.43
1005.09	3035.09
1005.25	2955.22
1005.41	2998.23
1005.57	3004.37
1005.73	3030.99
1005.89	2951.12
1006.05	3037.14
1006.21	2979.79
1006.37	2920.40
1006.52	2934.74
1006.68	2912.21
1006.84	3010.51
1007.00	2897.88
1007.16	2838.48
1007.32	2850.77
1007.48	2891.73
1007.64	2916.31
1007.79	2846.68
1007.95	2832.34
1008.11	2865.11
1008.27	2770.90
1008.43	2863.06
1008.59	2856.92
1008.75	2963.41
1008.91	2832.34
1009.06	2775.00
1009.22	2881.49
1009.38	2795.48
1009.54	2889.68
1009.70	2807.77
1009.86	2744.28
1010.01	2822.10
1010.17	2754.52
1010.33	2840.53
1010.49	2801.62
1010.65	2826.20
1010.81	2691.03
1010.96	2731.99
1011.12	2699.22
1011.28	2623.45
1011.44	2840.53
1011.60	2746.33
1011.76	2699.22
1011.91	2785.24
1012.07	2611.16
1012.23	2674.65
1012.39	2676.70
1012.55	2662.36
1012.71	2654.17
1012.86	2650.07
1013.02	2711.51
1013.18	2564.06
1013.34	2586.58
1013.50	2715.61
1013.65	2725.85
1013.81	2576.34
1013.97	2566.10
1014.13	2576.34
1014.29	2596.82
1014.44	2688.98
1014.60	2543.58
1014.76	2547.67
1014.92	2633.69
1015.07	2568.15
1015.23	2531.29
1015.39	2519.00
1015.55	2549.72
1015.71	2574.30
1015.86	2519.00
1016.02	2629.59
1016.18	2414.56
1016.34	2461.66
1016.49	2498.52
1016.65	2621.40
1016.81	2469.85
1016.97	2478.04
1017.12	2529.24
1017.28	2375.64
1017.44	2418.65
1017.60	2596.82
1017.75	2420.70
1017.91	2541.53
1018.07	2508.76
1018.23	2467.80
1018.38	2420.70
1018.54	2424.80
1018.70	2527.19
1018.86	2377.69
1019.01	2478.04
1019.17	2439.13
1019.33	2480.09
1019.49	2398.17
1019.64	2455.51
1019.80	2441.18
1019.96	2398.17
1020.12	2437.08
1020.27	2326.49
1020.43	2332.64
1020.59	2428.89
1020.74	2459.61
1020.90	2402.27
1021.06	2244.57
1021.22	2385.88
1021.37	2387.93
1021.53	2336.73
1021.69	2340.83
1021.84	2297.82
1022.00	2371.55
1022.16	2244.57
1022.31	2346.97
1022.47	2441.18
1022.63	2389.98
1022.79	2330.59
1022.94	2303.96
1023.10	2377.69
1023.26	2271.20
1023.41	2287.58
1023.57	2258.91
1023.73	2367.45
1023.88	2265.05
1024.04	2156.51
1024.20	2215.90
1024.35	2273.25
1024.51	2234.33
1024.67	2207.71
1024.82	2215.90
1024.98	2142.18
1025.14	2238.43
1025.29	2220.00
1025.45	2316.25
1025.61	2176.99
1025.76	2138.08
1025.92	2164.70
1026.08	2250.72
1026.23	2209.76
1026.39	2267.10
1026.55	2121.70
1026.70	2129.89
1026.86	2142.18
1027.02	2244.57
1027.17	2150.37
1027.33	2164.70
1027.48	2129.89
1027.64	2125.79
1027.80	2162.66
1027.95	2193.37
1028.11	2060.26
1028.27	2203.61
1028.42	2174.94
1028.58	2074.59
1028.73	2121.70
1028.89	2078.69
1029.05	2181.09
1029.20	2209.76
>>>>>End Processed Spectral Data<<<<<
