SpectraSuite Data File
++++++++++++++++++++++++++++++++++++
Date: Fri Jun 02 14:53:29 CEST 2017
User: INFO_000
Dark Spectrum Present: No
Reference Spectrum Present: No
Number of Sampled Component Spectra: 1
Spectrometers: USB4H00879
Integration Time (usec): 80000 (USB4H00879)
Spectra Averaged: 1 (USB4H00879)
Boxcar Smoothing: 0 (USB4H00879)
Correct for Electrical Dark: No (USB4H00879)
Strobe/Lamp Enabled: No (USB4H00879)
Correct for Detector Non-linearity: No (USB4H00879)
Correct for Stray Light: No (USB4H00879)
Number of Pixels in Processed Spectrum: 3648
>>>>>Begin Processed Spectral Data<<<<<
345.13	1302.51
345.34	1302.51
345.56	1302.51
345.78	1298.41
345.99	1341.42
346.21	1751.01
346.42	1708.01
346.64	1673.19
346.86	1816.55
347.07	1638.38
347.29	1677.29
347.50	1689.57
347.72	1652.71
347.94	1728.49
348.15	1599.46
348.37	1585.13
348.59	1675.24
348.80	1673.19
349.02	1843.17
349.23	1839.08
349.45	1779.68
349.67	1871.84
349.88	1765.35
350.10	1966.05
350.31	1834.98
350.53	1794.02
350.75	1896.42
350.96	1728.49
351.18	1908.71
351.39	1839.08
351.61	1834.98
351.82	1894.37
352.04	1908.71
352.26	1777.64
352.47	1912.80
352.69	1912.80
352.90	1771.49
353.12	1888.23
353.34	1841.12
353.55	1904.61
353.77	1845.22
353.98	1742.82
354.20	1794.02
354.41	1853.41
354.63	1861.60
354.85	1980.39
355.06	1902.56
355.28	1746.92
355.49	1927.14
355.71	1875.94
355.92	1857.51
356.14	1875.94
356.35	1853.41
356.57	1808.36
356.79	1964.00
357.00	1742.82
357.22	1920.99
357.43	1839.08
357.65	1933.28
357.86	1806.31
358.08	1839.08
358.29	1873.89
358.51	1882.08
358.72	1972.19
358.94	1871.84
359.16	1947.62
359.37	1890.28
359.59	1918.95
359.80	1988.58
360.02	1853.41
360.23	1927.14
360.45	2015.20
360.66	1957.86
360.88	1841.12
361.09	1851.36
361.31	2072.54
361.52	1886.18
361.74	2029.54
361.95	2072.54
362.17	1896.42
362.38	1988.58
362.60	2009.06
362.81	1925.09
363.03	1873.89
363.24	1892.32
363.46	2068.45
363.67	1990.63
363.89	1892.32
364.10	2043.87
364.32	1937.38
364.53	2000.87
364.75	1923.04
364.96	1955.81
365.18	2043.87
365.39	2031.58
365.61	1929.19
365.82	2127.84
366.04	2017.25
366.25	1966.05
366.47	2054.11
366.68	2033.63
366.90	1972.19
367.11	2062.30
367.33	1968.10
367.54	2074.59
367.76	1966.05
367.97	2129.89
368.19	2043.87
368.40	2039.78
368.62	1994.72
368.83	2023.39
369.05	2035.68
369.26	2000.87
369.48	1945.57
369.69	1970.15
369.91	1992.67
370.12	1943.52
370.33	2105.31
370.55	1992.67
370.76	1920.99
370.98	2099.17
371.19	2095.07
371.41	1908.71
371.62	2068.45
371.84	2050.02
372.05	2146.27
372.27	2060.26
372.48	2009.06
372.69	2052.06
372.91	2193.37
373.12	2136.03
373.34	2195.42
373.55	2160.61
373.77	2115.55
373.98	2150.37
374.20	2117.60
374.41	2215.90
374.62	2136.03
374.84	2179.04
375.05	2222.05
375.27	2211.81
375.48	2142.18
375.70	2150.37
375.91	2199.52
376.12	2222.05
376.34	2080.74
376.55	2179.04
376.77	2250.72
376.98	2056.16
377.19	2205.66
377.41	2187.23
377.62	2185.18
377.84	2168.80
378.05	2357.21
378.27	2140.13
378.48	2375.64
378.69	2353.12
378.91	2273.25
379.12	2181.09
379.34	2230.24
379.55	2183.13
379.76	2285.53
379.98	2248.67
380.19	2316.25
380.41	2230.24
380.62	2254.81
380.83	2215.90
381.05	2189.28
381.26	2420.70
381.47	2310.11
381.69	2236.38
381.90	2439.13
382.12	2353.12
382.33	2312.16
382.54	2242.53
382.76	2346.97
382.97	2445.27
383.19	2303.96
383.40	2377.69
383.61	2318.30
383.83	2254.81
384.04	2424.80
384.25	2330.59
384.47	2484.19
384.68	2396.12
384.89	2297.82
385.11	2365.40
385.32	2394.08
385.54	2346.97
385.75	2377.69
385.96	2449.37
386.18	2416.60
386.39	2447.32
386.60	2367.45
386.82	2432.99
387.03	2361.31
387.24	2506.71
387.46	2439.13
387.67	2519.00
387.88	2541.53
388.10	2529.24
388.31	2410.46
388.52	2490.33
388.74	2592.73
388.95	2500.57
389.16	2539.48
389.38	2365.40
389.59	2648.02
389.80	2590.68
390.02	2439.13
390.23	2715.61
390.44	2480.09
390.66	2621.40
390.87	2453.47
391.08	2682.84
391.30	2662.36
391.51	2672.60
391.72	2686.94
391.94	2734.04
392.15	2619.35
392.36	2582.49
392.58	2617.30
392.79	2607.06
393.00	2713.56
393.22	2623.45
393.43	2787.29
393.64	2856.92
393.85	2793.43
394.07	2564.06
394.28	2750.42
394.49	2801.62
394.71	2740.18
394.92	2924.50
395.13	2607.06
395.35	2734.04
395.56	2795.48
395.77	2775.00
395.98	2801.62
396.20	2891.73
396.41	2813.91
396.62	2879.44
396.84	2830.29
397.05	2801.62
397.26	2901.97
397.47	2922.45
397.69	2877.40
397.90	3145.68
398.11	2936.79
398.32	2867.16
398.54	2897.88
398.75	2967.51
398.96	2961.36
399.18	3078.10
399.39	3059.67
399.60	3049.43
399.81	2914.26
400.03	2924.50
400.24	3147.73
400.45	3063.76
400.66	3053.52
400.88	3035.09
401.09	3315.66
401.30	3123.15
401.51	3131.34
401.73	3170.26
401.94	3112.91
402.15	3145.68
402.36	3196.88
402.58	3149.78
402.79	3205.07
403.00	3192.78
403.21	3166.16
403.43	3276.75
403.64	3246.03
403.85	3186.64
404.06	3256.27
404.27	3135.44
404.49	3188.69
404.70	3117.01
404.91	3368.91
405.12	3264.46
405.34	3309.52
405.55	3393.48
405.76	3170.26
405.97	3299.28
406.19	3338.19
406.40	3211.22
406.61	3262.41
406.82	3395.53
407.03	3295.18
407.25	3352.52
407.46	3387.34
407.67	3493.83
407.88	3495.88
408.09	3330.00
408.31	3510.22
408.52	3352.52
408.73	3424.20
408.94	3397.58
409.15	3430.35
409.37	3510.22
409.58	3528.65
409.79	3590.09
410.00	3637.19
410.21	3438.54
410.43	3461.07
410.64	3413.96
410.85	3547.08
411.06	3583.95
411.27	3510.22
411.48	3624.90
411.70	3569.61
411.91	3661.77
412.12	3600.33
412.33	3577.80
412.54	3585.99
412.76	3704.78
412.97	3721.16
413.18	3676.10
413.39	3600.33
413.60	3669.96
413.81	3835.85
414.03	3653.58
414.24	3604.42
414.45	3827.65
414.66	3753.93
414.87	3841.99
415.08	3753.93
415.30	3651.53
415.51	3794.89
415.72	3774.41
415.93	3784.65
416.14	3831.75
416.35	3862.47
416.56	3889.09
416.78	3780.55
416.99	3925.96
417.20	3891.14
417.41	4036.55
417.62	3913.67
417.83	3909.57
418.04	3952.58
418.26	3958.72
418.47	3905.48
418.68	4007.87
418.89	3903.43
419.10	4050.88
419.31	3995.59
419.52	4118.47
419.73	4018.11
419.95	4110.27
420.16	4011.97
420.37	4014.02
420.58	4145.09
420.79	3968.96
421.00	4059.07
421.21	4204.48
421.42	4075.46
421.63	4184.00
421.85	4073.41
422.06	4270.01
422.27	4140.99
422.48	4132.80
422.69	4257.73
422.90	4151.23
423.11	4317.12
423.32	4257.73
423.53	4472.76
423.75	4380.61
423.96	4345.79
424.17	4472.76
424.38	4546.49
424.59	4431.80
424.80	4460.48
425.01	4440.00
425.22	4419.52
425.43	4368.32
425.64	4612.03
425.85	4624.31
426.06	4593.59
426.28	4540.35
426.49	4489.15
426.70	4597.69
426.91	4564.92
427.12	4655.03
427.33	4730.81
427.54	4689.85
427.75	4695.99
427.96	4749.24
428.17	4829.11
428.38	4759.48
428.59	4876.21
428.80	4835.25
429.01	4960.18
429.23	4882.36
429.44	5066.67
429.65	5078.96
429.86	5013.43
430.07	4810.68
430.28	5015.48
430.49	5009.33
430.70	5263.28
430.91	5007.28
431.12	4931.51
431.33	5283.76
431.54	5171.12
431.75	5294.00
431.96	5177.26
432.17	5318.57
432.38	5203.89
432.59	5445.55
432.80	5222.32
433.01	5332.91
433.22	5367.73
433.43	5269.42
433.64	5337.01
433.85	5400.49
434.06	5343.15
434.27	5224.37
434.49	5699.50
434.70	5539.76
434.91	5480.36
435.12	5595.05
435.33	5642.15
435.54	5425.07
435.75	5449.64
435.96	5400.49
436.17	5459.88
436.38	5605.29
436.59	5672.87
436.80	5760.94
437.01	5967.78
437.22	5736.36
437.43	5730.22
437.64	5459.88
437.85	5785.51
438.06	5836.71
438.27	5662.63
438.48	5769.13
438.69	5957.54
438.90	5975.97
439.11	5758.89
439.32	5941.16
439.53	5857.19
439.74	5924.77
439.95	5846.95
440.16	5943.21
440.37	5885.86
440.57	5988.26
440.78	6039.46
440.99	6047.65
441.20	5967.78
441.41	5928.87
441.62	6016.93
441.83	5935.01
442.04	6193.06
442.25	6223.78
442.46	6053.80
442.67	6283.17
442.88	6447.01
443.09	6152.10
443.30	6154.15
443.51	6270.88
443.72	6377.37
443.93	6143.91
444.14	6342.56
444.35	6047.65
444.56	6342.56
444.77	6322.08
444.98	6502.30
445.19	6408.09
445.40	6393.76
445.61	6436.77
445.81	6535.07
446.02	6606.75
446.23	6463.39
446.44	6395.81
446.65	6565.79
446.86	6598.56
447.07	6725.53
447.28	6838.17
447.49	6813.59
447.70	6590.36
447.91	6772.63
448.12	6827.93
448.33	6764.44
448.54	6809.50
448.74	6715.29
448.95	6707.10
449.16	6743.96
449.37	7059.35
449.58	6936.47
449.79	7157.65
450.00	6733.72
450.21	7053.20
450.42	7212.95
450.63	7016.34
450.84	6963.09
451.05	6872.98
451.25	6997.91
451.46	6895.51
451.67	7110.55
451.88	7229.33
452.09	7286.67
452.30	7069.59
452.51	7149.46
452.72	7194.51
452.93	7604.11
453.13	7098.26
453.34	7516.05
453.55	7384.98
453.76	7440.27
453.97	7657.36
454.18	7468.94
454.39	7616.40
454.60	7423.89
454.81	7514.00
455.01	7737.23
455.22	7448.46
455.43	7735.18
455.64	7923.59
455.85	7980.93
456.06	7978.89
456.27	7944.07
456.48	7751.56
456.68	7851.91
456.89	8107.91
457.10	8093.57
457.31	8048.52
457.52	8007.56
457.73	8023.94
457.94	8380.29
458.14	8114.05
458.35	8351.62
458.56	8302.47
458.77	8200.07
458.98	8427.39
459.19	8357.76
459.39	8359.81
459.60	8482.69
459.81	8351.62
460.02	8710.01
460.23	8533.89
460.44	8679.29
460.65	8753.02
460.85	8781.69
461.06	8836.99
461.27	8613.76
461.48	9082.74
461.69	9115.51
461.89	8677.24
462.10	9054.07
462.31	8937.34
462.52	8750.97
462.73	8988.53
462.94	9203.57
463.14	9244.53
463.35	9062.26
463.56	9555.82
463.77	9576.30
463.98	9318.26
464.18	9365.36
464.39	9531.25
464.60	9645.93
464.81	9787.24
465.02	9531.25
465.23	9881.45
465.43	9838.44
465.64	9799.53
465.85	10106.73
466.06	9856.87
466.27	10239.84
466.47	10245.99
466.68	10194.79
466.89	10252.13
467.10	10370.91
467.30	9998.18
467.51	10223.46
467.72	10542.94
467.93	10299.23
468.14	10336.10
468.34	10665.82
468.55	10714.97
468.76	10682.20
468.97	10661.73
469.17	10919.77
469.38	10917.72
469.59	11040.60
469.80	10925.91
470.01	10776.41
470.21	11030.36
470.42	11388.75
470.63	11300.69
470.84	11304.79
471.04	11456.34
471.25	11392.85
471.46	11360.08
471.67	11841.36
471.87	11523.92
472.08	11759.44
472.29	11814.73
472.50	11648.85
472.70	11829.07
472.91	11822.92
473.12	12214.09
473.33	12080.97
473.53	12201.80
473.74	12275.52
473.95	12472.13
474.16	12576.58
474.36	12617.54
474.57	12724.03
474.78	12791.61
474.99	12621.63
475.19	12730.17
475.40	13168.44
475.61	13383.48
475.81	13449.01
476.02	13459.25
476.23	13029.18
476.44	13360.95
476.64	13586.22
476.85	13569.84
477.06	13709.10
477.27	13872.94
477.47	13780.78
477.68	14077.74
477.89	14116.65
478.09	14008.11
478.30	14268.20
478.51	14184.23
478.71	14354.21
478.92	14577.44
479.13	14251.81
479.34	14462.76
479.54	14610.21
479.75	14550.82
479.96	14608.16
480.16	15036.19
480.37	15118.11
480.58	15322.90
480.78	15675.15
480.99	15283.99
481.20	15580.95
481.41	15699.73
481.61	15673.10
481.82	15761.17
482.03	15550.23
482.23	15752.98
482.44	15939.34
482.65	16232.20
482.85	16224.01
483.06	16137.99
483.27	16025.36
483.47	16314.12
483.68	16465.67
483.89	16717.57
484.09	16512.77
484.30	16875.26
484.51	16934.65
484.71	16973.56
484.92	16850.69
485.13	17338.10
485.33	17102.59
485.54	17098.49
485.75	17610.48
485.95	17794.80
486.16	17739.51
486.37	17809.14
486.57	17528.56
486.78	17925.87
486.98	17768.18
487.19	18026.22
487.40	18028.27
487.60	18081.52
487.81	18001.65
488.02	18357.99
488.22	18228.97
488.43	18425.57
488.64	18376.42
488.84	18622.18
489.05	18638.56
489.25	18740.96
489.46	18990.81
489.67	18919.14
489.87	19175.13
490.08	18982.62
490.29	19285.72
490.49	19418.84
490.70	19345.11
490.90	19660.50
491.11	19269.34
491.32	19949.26
491.52	19824.34
491.73	19939.02
491.94	19941.07
492.14	20057.81
492.35	20510.41
492.55	20440.78
492.76	20467.40
492.97	20451.02
493.17	20399.82
493.38	20758.21
493.58	20737.73
493.79	20752.07
494.00	20711.11
494.20	20934.34
494.41	21204.67
494.61	21114.56
494.82	20981.44
495.02	21151.42
495.23	21386.94
495.44	21454.52
495.64	21440.18
495.85	21718.71
496.05	21558.97
496.26	21677.75
496.47	21776.05
496.67	21960.37
496.88	21943.99
497.08	21898.93
497.29	22306.48
497.49	22351.53
497.70	22537.90
497.91	22679.21
498.11	22519.46
498.32	22642.34
498.52	22628.01
498.73	22828.71
498.93	22967.97
499.14	22757.03
499.34	22994.59
499.55	23223.97
499.76	22996.64
499.96	23221.92
500.17	23148.19
500.37	23211.68
500.58	23396.00
500.78	23455.39
500.99	23570.07
501.19	23811.73
501.40	23787.16
501.60	23991.95
501.81	23594.65
502.02	23807.64
502.22	23991.95
502.43	24385.16
502.63	24516.23
502.84	24643.21
503.04	24088.21
503.25	24401.55
503.45	24934.02
503.66	24880.77
503.86	24718.98
504.07	25052.80
504.27	24602.25
504.48	24895.11
504.68	25003.65
504.89	25128.58
505.09	25239.17
505.30	25017.99
505.50	25392.76
505.71	25368.19
505.91	25486.97
506.12	25462.40
506.32	25833.08
506.53	25546.36
506.73	25720.44
506.94	25886.32
507.14	25982.58
507.35	25665.14
507.55	25972.34
507.76	25822.84
507.96	26160.75
508.17	25863.80
508.37	26205.81
508.58	26158.70
508.78	26273.39
508.99	26177.14
509.19	26506.86
509.40	26295.92
509.60	26359.41
509.81	26535.53
510.01	26723.94
510.22	26824.29
510.42	26971.75
510.63	26769.00
510.83	26764.90
511.04	26979.94
511.24	27135.59
511.44	26781.29
511.65	27078.24
511.85	27256.42
512.06	27278.94
512.26	27301.47
512.47	27342.43
512.67	27332.19
512.88	27479.64
513.08	27418.21
513.29	27256.42
513.49	27870.81
513.69	27627.10
513.90	27651.67
514.10	27655.77
514.31	27885.14
514.51	27735.64
514.72	28137.04
514.92	27803.22
515.13	28008.02
515.33	28042.84
515.53	28382.80
515.74	27942.49
515.94	28071.51
516.15	28288.59
516.35	28272.21
516.56	28595.79
516.76	28374.61
516.96	28649.03
517.17	28870.22
517.37	28681.80
517.58	28585.55
517.78	28876.36
517.99	28771.91
518.19	29093.44
518.39	29257.28
518.60	29253.19
518.80	28999.24
519.01	29550.14
519.21	29539.90
519.41	29515.33
519.62	29161.03
519.82	29343.30
520.03	29709.88
520.23	29519.42
520.43	29359.68
520.64	29812.28
520.84	29775.42
521.05	29560.38
521.25	30164.53
521.45	30027.32
521.66	30099.00
521.86	29988.41
522.07	29986.36
522.27	30715.44
522.47	30510.64
522.68	30570.03
522.88	30006.84
523.08	30680.62
523.29	30561.84
523.49	30783.02
523.70	30918.18
523.90	30873.13
524.10	30823.98
524.31	30871.08
524.51	30344.75
524.71	31383.07
524.92	31192.61
525.12	31249.96
525.33	31493.66
525.53	31745.56
525.73	31850.01
525.94	31434.27
526.14	31897.11
526.34	31440.42
526.55	31567.39
526.75	31716.89
526.95	32009.75
527.16	31901.21
527.36	31913.50
527.56	32126.49
527.77	32419.35
527.97	32253.46
528.17	31954.46
528.38	32669.20
528.58	32615.95
528.78	32681.49
528.99	32587.28
529.19	33046.02
529.39	32787.98
529.60	32921.10
529.80	33015.30
530.00	32755.21
530.21	33097.22
530.41	33586.69
530.61	32947.72
530.82	33232.39
531.02	33351.17
531.22	33496.58
531.43	33551.87
531.63	33648.13
531.83	33994.23
532.04	33977.85
532.24	33617.41
532.44	34170.36
532.64	34287.09
532.85	34586.10
533.05	34516.47
533.25	34536.94
533.46	34166.26
533.66	34754.03
533.86	34536.94
534.07	34831.85
534.27	35102.18
534.47	35141.10
534.67	34799.08
534.88	35137.00
535.08	35237.35
535.28	35065.32
535.49	35483.11
535.69	35853.79
535.89	35407.33
536.09	35610.08
536.30	35911.13
536.50	35610.08
536.70	35890.65
536.91	36140.50
537.11	36208.09
537.31	36285.91
537.51	36154.84
537.72	36726.22
537.92	36576.72
538.12	36777.42
538.32	36480.47
538.53	36881.87
538.73	36435.41
538.93	36580.82
539.13	36955.60
539.34	36769.23
539.54	36650.45
539.74	37275.08
539.94	37051.85
540.15	36828.62
540.35	37565.89
540.55	37232.07
540.75	37342.66
540.96	37696.96
541.16	37393.86
541.36	37447.11
541.56	38014.40
541.77	37754.30
541.97	38067.64
542.17	37856.70
542.37	38006.20
542.58	38200.76
542.78	37825.98
542.98	38622.64
543.18	38049.21
543.38	38657.46
543.59	38415.80
543.79	38483.38
543.99	38124.99
544.19	38372.79
544.40	38663.60
544.60	39089.58
544.80	38565.30
545.00	38917.55
545.20	39241.13
545.41	38935.98
545.61	38831.54
545.81	39478.69
546.01	39599.52
546.21	39392.68
546.42	39300.52
546.62	39931.29
546.82	39560.61
547.02	39558.56
547.22	39634.34
547.43	39841.18
547.63	40035.74
547.83	40220.06
548.03	39978.40
548.23	39984.54
548.44	40498.58
548.64	40125.85
548.84	40107.42
549.04	40340.89
549.24	39908.77
549.45	40899.98
549.65	40261.02
549.85	40506.77
550.05	40871.31
550.25	40498.58
550.45	40990.09
550.66	40756.63
550.86	40951.18
551.06	40619.41
551.26	40949.14
551.46	41112.97
551.66	41133.45
551.87	40912.27
552.07	41143.69
552.27	41170.32
552.47	41203.08
552.67	41246.09
552.87	41452.94
553.07	41411.98
553.28	41604.49
553.48	41391.50
553.68	41450.89
553.88	42444.15
554.08	42171.77
554.28	42171.77
554.48	41772.42
554.69	41842.05
554.89	42091.90
555.09	42399.10
555.29	42075.52
555.49	42210.68
555.69	42028.41
555.89	42175.87
556.10	42628.47
556.30	42210.68
556.50	42825.07
556.70	42390.91
556.90	42653.05
557.10	42747.25
557.30	42161.53
557.50	42253.69
557.70	42728.82
557.91	42812.79
558.11	42902.90
558.31	43054.45
558.51	42802.55
558.71	43126.13
558.91	42972.53
559.11	42933.62
559.31	42708.34
559.51	43052.40
559.72	43181.42
559.92	42999.15
560.12	43603.30
560.32	43208.04
560.52	42835.31
560.72	43335.02
560.92	43472.23
561.12	43930.98
561.32	43722.08
561.52	43351.40
561.72	44209.50
561.93	43337.07
562.13	43967.84
562.33	43763.04
562.53	44191.07
562.73	43887.97
562.93	43570.54
563.13	43840.87
563.33	43922.79
563.53	43963.75
563.73	43599.21
563.93	44180.83
564.13	44367.20
564.33	44113.25
564.53	44389.72
564.74	44393.82
564.94	43728.23
565.14	44723.54
565.34	44217.69
565.54	44334.43
565.74	44725.59
565.94	44844.37
566.14	44199.26
566.34	44252.51
566.54	45040.98
566.74	44406.11
566.94	44805.46
567.14	45172.05
567.34	44766.55
567.54	45057.36
567.74	44997.97
567.94	44897.62
568.14	44905.81
568.34	45280.59
568.54	45174.09
568.74	45053.26
568.94	44961.11
569.14	45450.57
569.34	45049.17
569.54	45305.16
569.75	44815.70
569.95	45673.80
570.15	45862.21
570.35	45440.33
570.55	45346.12
570.75	45393.23
570.95	45315.40
571.15	45610.31
571.35	45659.46
571.55	46036.29
571.75	45425.99
571.95	45489.48
572.15	45514.06
572.35	46187.84
572.55	45655.37
572.75	45440.33
572.95	45743.43
573.15	46015.81
573.35	46425.40
573.55	45962.56
573.75	46200.13
573.95	46030.15
574.15	46044.48
574.35	46173.50
574.55	46454.08
574.75	46128.45
574.95	46503.23
575.15	46054.72
575.34	46193.98
575.54	46716.22
575.74	46650.68
575.94	46894.39
576.14	46572.86
576.34	46667.06
576.54	47019.31
576.74	47013.17
576.94	46503.23
577.14	47199.54
577.34	47064.37
577.54	46949.68
577.74	47031.60
577.94	46837.05
578.14	47338.80
578.34	47504.68
578.54	46757.17
578.74	46972.21
578.94	47580.46
579.14	47439.15
579.34	47170.86
579.54	47017.27
579.74	47557.93
579.94	47752.49
580.13	47492.40
580.33	47617.32
580.53	47629.61
580.73	47762.73
580.93	47478.06
581.13	47611.18
581.33	48141.60
581.53	48037.16
581.73	47920.42
581.93	47590.70
582.13	47873.32
582.33	48139.55
582.53	47805.73
582.73	47787.30
582.92	48129.31
583.12	48815.38
583.32	47908.13
583.52	48104.74
583.72	48450.84
583.92	48362.78
584.12	48409.89
584.32	49145.11
584.52	48653.59
584.72	48518.43
584.92	48753.94
585.11	48960.79
585.31	48471.32
585.51	48653.59
585.71	48465.18
585.91	49100.05
586.11	48325.92
586.31	48833.81
586.51	48903.45
586.71	49313.04
586.91	49411.34
587.10	49407.25
587.30	49179.92
587.50	49050.90
587.70	49263.89
587.90	49288.46
588.10	49599.76
588.30	49409.29
588.50	49294.61
588.69	49628.43
588.89	49349.90
589.09	49235.22
589.29	49825.03
589.49	49974.53
589.69	49427.73
589.89	49755.40
590.08	49458.45
590.28	49511.69
590.48	49677.58
590.68	49624.33
590.88	49913.09
591.08	49749.26
591.28	49710.35
591.47	50097.41
591.67	49861.90
591.87	50365.70
592.07	50056.45
592.27	50087.17
592.47	49734.92
592.67	49939.72
592.86	50177.28
593.06	49911.05
593.26	50070.79
593.46	50302.21
593.66	50318.59
593.86	50183.43
594.05	50085.12
594.25	50654.46
594.45	50263.30
594.65	50412.80
594.85	50345.22
595.05	50525.44
595.24	50496.77
595.44	50773.24
595.64	50691.32
595.84	50785.53
596.04	50509.05
596.23	51115.25
596.43	50812.15
596.63	50816.25
596.83	50844.92
597.03	50771.19
597.22	51129.59
597.42	50986.23
597.62	51623.15
597.82	51174.64
598.02	51162.36
598.21	51272.95
598.41	51449.07
598.61	51332.34
598.81	51387.63
599.01	51090.68
599.20	51260.66
599.40	51148.02
599.60	51766.51
599.80	52010.21
600.00	51762.41
600.19	51889.38
600.39	51213.55
600.59	52215.01
600.79	51524.85
600.98	51780.84
601.18	52303.07
601.38	52761.82
601.58	51954.92
601.78	52081.89
601.97	51930.34
602.17	52542.69
602.37	52335.84
602.57	52550.88
602.76	52911.32
602.96	52227.30
603.16	52583.65
603.36	52344.03
603.55	52702.43
603.75	52608.22
603.95	52770.01
604.15	52417.76
604.34	52653.28
604.54	53157.08
604.74	52761.82
604.94	53306.58
605.13	52604.13
605.33	53161.17
605.53	52997.34
605.73	53494.99
605.92	53058.77
606.12	53568.72
606.32	53224.66
606.52	53206.23
606.71	53167.32
606.91	53355.73
607.11	53570.77
607.30	53644.49
607.50	53474.51
607.70	53820.62
607.90	53703.88
608.09	53785.80
608.29	53771.47
608.49	53413.07
608.68	53798.09
608.88	53818.57
609.08	54133.96
609.28	54047.94
609.47	53871.82
609.67	54236.36
609.87	53830.86
610.06	54228.16
610.26	54230.21
610.46	54291.65
610.66	54049.99
610.85	54629.57
611.05	54183.11
611.25	54535.36
611.44	54150.34
611.64	54418.63
611.84	54465.73
612.03	54056.14
612.23	54262.98
612.43	53992.65
612.62	54297.80
612.82	54353.09
613.02	54396.10
613.21	54748.35
613.41	54222.02
613.61	54572.22
613.80	54258.88
614.00	54328.52
614.20	54686.91
614.39	54846.65
614.59	54940.86
614.79	54856.89
614.98	54164.68
615.18	54971.58
615.38	54564.03
615.57	54424.77
615.77	54359.23
615.97	54738.11
616.16	54740.16
616.36	54514.88
616.56	54875.32
616.75	55350.45
616.95	54711.49
617.15	54820.03
617.34	55076.02
617.54	54875.32
617.74	55159.99
617.93	54916.28
618.13	54506.69
618.32	54965.43
618.52	54688.96
618.72	54625.47
618.91	55141.56
619.11	54516.93
619.31	54797.50
619.50	54981.82
619.70	54752.44
619.90	54742.20
620.09	55078.07
620.29	55295.16
620.48	54938.81
620.68	55327.92
620.88	54742.20
621.07	55174.33
621.27	55157.94
621.46	54801.60
621.66	55047.35
621.86	55555.25
622.05	55293.11
622.25	55874.73
622.44	55317.68
622.64	55442.61
622.84	55180.47
623.03	55014.58
623.23	55211.19
623.42	55487.67
623.62	55538.86
623.82	55551.15
624.01	55413.94
624.21	55157.94
624.40	54846.65
624.60	55680.17
624.80	55379.12
624.99	55129.27
625.19	54926.52
625.38	55098.55
625.58	55440.56
625.77	55567.54
625.97	55698.61
626.17	55170.23
626.36	55428.27
626.56	55168.18
626.75	54615.23
626.95	55260.34
627.14	55033.02
627.34	55760.05
627.54	55510.19
627.73	55411.89
627.93	55473.33
628.12	55493.81
628.32	55411.89
628.51	55522.48
628.71	55391.41
628.90	55680.17
629.10	54920.38
629.30	55805.10
629.49	55442.61
629.69	55250.10
629.88	55387.31
630.08	55960.75
630.27	55649.45
630.47	55499.95
630.66	55450.80
630.86	55553.20
631.05	55366.84
631.25	56249.51
631.44	55571.63
631.64	55737.52
631.84	55643.31
632.03	55950.51
632.23	55981.23
632.42	56308.90
632.62	55698.61
632.81	55450.80
633.01	55829.68
633.20	55848.11
633.40	55989.42
633.59	56280.23
633.79	55481.52
633.98	55571.63
634.18	56417.44
634.37	55948.46
634.57	55661.74
634.76	56267.94
634.96	55659.69
635.15	56259.75
635.35	56138.92
635.54	55936.17
635.74	56466.59
635.93	55768.24
636.13	56546.47
636.32	56286.37
636.52	56061.10
636.71	55993.51
636.91	55903.40
637.10	56327.33
637.30	56171.69
637.49	55893.16
637.69	55682.22
637.88	56071.34
638.08	56165.54
638.27	55827.63
638.46	56382.63
638.66	56106.15
638.85	56222.89
639.05	56278.18
639.24	56155.30
639.44	55829.68
639.63	56136.87
639.83	56618.14
640.02	56366.24
640.22	56280.23
640.41	56218.79
640.61	56069.29
640.80	56558.75
640.99	55813.29
641.19	56947.87
641.38	56495.27
641.58	56556.70
641.77	56153.26
641.97	56407.20
642.16	56095.91
642.36	56876.19
642.55	57142.42
642.74	56442.02
642.94	56923.29
643.13	56530.08
643.33	57101.46
643.52	56728.73
643.72	57263.25
643.91	56718.49
644.10	56906.91
644.30	56523.94
644.49	56038.57
644.69	56736.93
644.88	56409.25
645.08	56229.03
645.27	56536.23
645.46	56577.18
645.66	56870.04
645.85	56525.99
646.05	56482.98
646.24	56779.93
646.43	57201.82
646.63	56736.93
646.82	56634.53
647.02	57054.36
647.21	56941.72
647.40	57003.16
647.60	57015.45
647.79	57025.69
647.99	57169.05
648.18	56571.04
648.37	57386.13
648.57	57152.66
648.76	56990.87
648.96	56695.97
649.15	57324.69
649.34	57187.48
649.54	57304.21
649.73	56573.09
649.92	57160.86
650.12	56997.02
650.31	57025.69
650.51	57332.89
650.70	57152.66
650.89	56458.40
651.09	57398.42
651.28	57189.53
651.47	56777.89
651.67	57062.55
651.86	57734.29
652.06	56876.19
652.25	56870.04
652.44	56587.42
652.64	56824.99
652.83	57126.04
653.02	56849.56
653.22	56812.70
653.41	57013.40
653.60	56908.96
653.80	56851.61
653.99	57083.03
654.18	56749.21
654.38	57056.41
654.57	56677.54
654.76	56810.65
654.96	56964.25
655.15	56808.61
655.34	56816.80
655.54	56661.15
655.73	57089.18
655.92	57386.13
656.12	57015.45
656.31	56902.81
656.50	57070.75
656.70	56855.71
656.89	56769.69
657.08	56835.23
657.28	56773.79
657.47	56861.85
657.66	57103.51
657.86	56566.94
658.05	56587.42
658.24	56923.29
658.43	56894.62
658.63	57203.86
658.82	56925.34
659.01	57195.67
659.21	57119.90
659.40	57035.93
659.59	56847.52
659.79	57103.51
659.98	57222.29
660.17	57304.21
660.36	56945.82
660.56	57021.59
660.75	57173.14
660.94	56902.81
661.14	57132.18
661.33	56749.21
661.52	56282.28
661.71	57078.94
661.91	56466.59
662.10	56468.64
662.29	57087.13
662.49	56685.73
662.68	56685.73
662.87	57111.70
663.06	56943.77
663.26	56835.23
663.45	57291.93
663.64	56818.84
663.83	57287.83
664.03	56931.48
664.22	56853.66
664.41	57123.99
664.60	56935.58
664.80	56716.45
664.99	56636.58
665.18	56874.14
665.37	56745.12
665.57	56607.90
665.76	56495.27
665.95	57181.34
666.14	57107.61
666.34	56417.44
666.53	56857.76
666.72	56644.77
666.91	56716.45
667.11	56333.48
667.30	56685.73
667.49	56341.67
667.68	56710.30
667.87	56476.83
668.07	56353.96
668.26	56632.48
668.45	56876.19
668.64	56497.31
668.84	57160.86
669.03	56876.19
669.22	56612.00
669.41	56784.03
669.60	56566.94
669.80	56591.52
669.99	56921.24
670.18	56497.31
670.37	56702.11
670.57	56972.44
670.76	56442.02
670.95	56759.45
671.14	56628.38
671.33	56323.24
671.53	56923.29
671.72	56747.17
671.91	56820.89
672.10	56372.39
672.29	56259.75
672.48	56245.41
672.68	56927.39
672.87	55997.61
673.06	56583.33
673.25	56214.69
673.44	56059.05
673.64	56108.20
673.83	56026.28
674.02	56233.13
674.21	56321.19
674.40	56132.78
674.59	55768.24
674.79	56226.98
674.98	56292.52
675.17	56683.68
675.36	56380.58
675.55	56214.69
675.74	56057.00
675.94	56272.04
676.13	56255.65
676.32	56396.96
676.51	56538.27
676.70	56349.86
676.89	55866.54
677.08	56638.62
677.28	55932.07
677.47	56235.17
677.66	56616.10
677.85	56046.76
678.04	56499.36
678.23	56409.25
678.42	55923.88
678.62	56126.63
678.81	56284.33
679.00	55968.94
679.19	56634.53
679.38	56224.93
679.57	56499.36
679.76	56362.15
679.96	56439.97
680.15	56134.82
680.34	56046.76
680.53	55964.84
680.72	55719.09
680.91	56368.29
681.10	55645.36
681.29	55876.78
681.48	55907.50
681.68	55798.96
681.87	55964.84
682.06	55821.48
682.25	55563.44
682.44	55891.12
682.63	55917.74
682.82	55614.64
683.01	55514.29
683.20	55860.40
683.39	55944.36
683.59	55348.40
683.78	55155.89
683.97	55293.11
684.16	55360.69
684.35	55190.71
684.54	55491.76
684.73	55391.41
684.92	55350.45
685.11	55481.52
685.30	55280.82
685.49	55788.72
685.69	55608.50
685.88	55542.96
686.07	55272.63
686.26	55776.43
686.45	55227.57
686.64	55332.02
686.83	55456.95
687.02	55413.94
687.21	55712.94
687.40	55567.54
687.59	55657.65
687.78	55456.95
687.97	55604.40
688.16	55194.81
688.35	55340.21
688.54	55157.94
688.74	55360.69
688.93	55319.73
689.12	55350.45
689.31	55663.79
689.50	55336.12
689.69	55209.14
689.88	54621.37
690.07	55307.44
690.26	55018.68
690.45	55477.43
690.64	55121.08
690.83	54922.43
691.02	55116.98
691.21	54574.27
691.40	54850.75
691.59	55463.09
691.78	54903.99
691.97	55428.27
692.16	55084.22
692.35	55112.89
692.54	55219.38
692.73	55280.82
692.92	54918.33
693.11	54987.96
693.30	55229.62
693.49	54770.88
693.68	54748.35
693.87	54731.96
694.06	54283.46
694.25	54695.10
694.44	54439.11
694.63	54828.22
694.82	55049.40
695.01	54582.46
695.20	55059.64
695.39	54445.25
695.58	54445.25
695.77	54428.87
695.96	54574.27
696.15	54559.94
696.34	54912.19
696.53	54557.89
696.72	54973.63
696.91	54701.25
697.10	54471.87
697.29	54359.23
697.48	54654.14
697.67	54465.73
697.86	53976.26
698.05	53959.88
698.24	54465.73
698.43	54002.89
698.62	54711.49
698.81	54164.68
699.00	54994.10
699.19	54246.60
699.38	54604.99
699.57	54269.12
699.76	55004.34
699.95	54518.98
700.14	54553.79
700.32	54449.35
700.51	54279.36
700.70	54490.30
700.89	54338.75
701.08	54502.59
701.27	54428.87
701.46	54592.70
701.65	54023.37
701.84	54445.25
702.03	54277.32
702.22	54136.01
702.41	54113.48
702.60	54072.52
702.79	54291.65
702.98	53667.02
703.17	53931.21
703.35	53419.22
703.54	53656.78
703.73	54254.79
703.92	53701.84
704.11	53972.17
704.30	53345.49
704.49	53648.59
704.68	53734.60
704.87	54027.46
705.06	53232.85
705.25	53365.97
705.43	53509.33
705.62	52962.52
705.81	53531.86
706.00	53527.76
706.19	53456.08
706.38	53533.90
706.57	53212.37
706.76	53347.54
706.95	53689.55
707.14	53210.32
707.32	53105.88
707.51	53568.72
707.70	53042.39
707.89	53621.97
708.08	53335.25
708.27	53720.27
708.46	54279.36
708.65	53521.62
708.84	53538.00
709.02	53451.98
709.21	53494.99
709.40	53445.84
709.59	53679.31
709.78	53097.69
709.97	53165.27
710.16	53003.48
710.34	52894.94
710.53	53460.18
710.72	52677.85
710.91	53185.75
711.10	53261.52
711.29	53191.89
711.48	53290.19
711.66	53277.91
711.85	53007.58
712.04	53116.12
712.23	53198.04
712.42	52954.33
712.61	52661.47
712.80	53038.29
712.98	53288.15
713.17	52851.93
713.36	52862.17
713.55	52712.67
713.74	52718.81
713.93	52937.94
714.11	52507.87
714.30	52417.76
714.49	53107.93
714.68	52946.14
714.87	53177.56
715.06	52876.51
715.24	52380.90
715.43	52288.74
715.62	52225.25
715.81	52233.44
716.00	52362.46
716.18	52149.48
716.37	52139.24
716.56	52018.41
716.75	52651.23
716.94	52266.21
717.12	52083.94
717.31	52405.47
717.50	52163.81
717.69	52034.79
717.88	52032.74
718.06	52403.42
718.25	51879.14
718.44	51829.99
718.63	51649.77
718.82	51565.81
719.00	51899.62
719.19	51733.74
719.38	51647.72
719.57	51266.80
719.76	50951.41
719.94	51625.20
720.13	51457.26
720.32	51221.75
720.51	51262.71
720.69	51221.75
720.88	51553.52
721.07	51348.72
721.26	50726.14
721.44	50894.07
721.63	50930.93
721.82	50892.02
722.01	50504.96
722.20	51113.20
722.38	50443.52
722.57	50578.68
722.76	50824.44
722.95	50769.15
723.13	50513.15
723.32	50414.85
723.51	50562.30
723.70	50056.45
723.88	50545.92
724.07	50224.39
724.26	50371.84
724.44	49734.92
724.63	50189.57
724.82	50251.01
725.01	49894.66
725.19	49687.82
725.38	50068.74
725.57	49739.02
725.76	49976.58
725.94	50011.40
726.13	49898.76
726.32	50308.35
726.51	49513.74
726.69	50167.04
726.88	50091.27
727.07	49693.96
727.25	49648.91
727.44	49878.28
727.63	49284.37
727.82	49642.76
728.00	49558.80
728.19	49507.60
728.38	50025.73
728.56	49526.03
728.75	49929.48
728.94	49837.32
729.12	49954.05
729.31	49853.70
729.50	49239.31
729.69	49919.24
729.87	49302.80
730.06	49356.05
730.25	49216.78
730.43	49820.94
730.62	49118.48
730.81	49653.00
730.99	49437.97
731.18	49480.97
731.37	49708.30
731.55	49562.89
731.74	49700.11
731.93	49587.47
732.11	49399.05
732.30	49548.56
732.49	49657.10
732.67	49167.63
732.86	49173.78
733.05	49384.72
733.23	49040.66
733.42	49605.90
733.61	49181.97
733.79	49356.05
733.98	49995.01
734.17	49249.55
734.35	49157.39
734.54	49341.71
734.73	49382.67
734.91	49462.54
735.10	49014.04
735.29	49364.24
735.47	48332.06
735.66	49368.33
735.84	48776.47
736.03	49001.75
736.22	49579.28
736.40	48772.38
736.59	49288.46
736.78	48846.10
736.96	48858.39
737.15	48596.25
737.33	48729.37
737.52	48915.73
737.71	48413.98
737.89	48786.71
738.08	47940.90
738.27	48594.20
738.45	48901.40
738.64	48395.55
738.82	48606.49
739.01	48049.44
739.20	48700.70
739.38	48686.36
739.57	48864.53
739.75	48264.48
739.94	48182.56
740.13	48555.29
740.31	47865.13
740.50	48555.29
740.68	48207.14
740.87	48370.97
741.06	48280.86
741.24	48235.81
741.43	47916.32
741.61	48164.13
741.80	47785.25
741.99	48053.54
742.17	47650.09
742.36	47838.50
742.54	47586.60
742.73	47316.27
742.91	47856.93
743.10	47715.62
743.29	47631.66
743.47	47531.31
743.66	47897.89
743.84	47908.13
744.03	47543.59
744.21	47811.88
744.40	47625.51
744.59	47269.17
744.77	47424.81
744.96	47484.20
745.14	47377.71
745.33	47439.15
745.51	47390.00
745.70	47162.67
745.88	47330.61
746.07	47217.97
746.26	47093.04
746.44	46892.34
746.63	47406.38
746.81	47258.93
747.00	46826.81
747.18	47197.49
747.37	46841.14
747.55	47045.94
747.74	47533.35
747.92	46814.52
748.11	46667.06
748.29	46957.88
748.48	46765.37
748.66	46859.57
748.85	46853.43
749.03	46660.92
749.22	46628.15
749.41	46693.69
749.59	46634.30
749.78	46292.29
749.96	46245.18
750.15	46159.17
750.33	46351.68
750.52	45946.18
750.70	46390.59
750.89	46026.05
751.07	45919.56
751.26	46038.34
751.44	45626.70
751.63	45735.24
751.81	45819.20
752.00	45915.46
752.18	46118.21
752.37	45725.00
752.55	45808.96
752.74	45497.67
752.92	45114.70
753.10	45260.11
753.29	45792.58
753.47	45190.48
753.66	45079.89
753.84	45575.50
754.03	45514.06
754.21	45077.84
754.40	45188.43
754.58	45354.32
754.77	45401.42
754.95	45055.31
755.14	44981.59
755.32	44991.83
755.51	44725.59
755.69	44688.73
755.88	44762.45
756.06	45139.28
756.24	44864.85
756.43	44545.37
756.61	44983.63
756.80	44264.80
756.98	44201.31
757.17	44442.97
757.35	44672.34
757.54	44485.98
757.72	44746.07
757.90	44270.94
758.09	44299.61
758.27	44320.09
758.46	44334.43
758.64	44252.51
758.83	44221.79
759.01	44445.02
759.19	44176.73
759.38	44533.08
759.56	44402.01
759.75	44328.28
759.93	44170.59
760.12	44084.58
760.30	44055.90
760.48	43734.37
760.67	43570.54
760.85	44373.34
761.04	43775.33
761.22	43783.52
761.40	43687.27
761.59	43269.48
761.77	43650.41
761.96	43924.83
762.14	43439.47
762.32	43353.45
762.51	43132.27
762.69	43593.06
762.88	43304.30
763.06	43177.33
763.24	43701.61
763.43	43218.28
763.61	43152.75
763.80	42966.38
763.98	42966.38
764.16	42849.65
764.35	42771.83
764.53	42526.07
764.72	42823.03
764.90	42737.01
765.08	42798.45
765.27	42597.75
765.45	42730.87
765.63	42806.64
765.82	42544.50
766.00	42421.62
766.18	42677.62
766.37	42612.09
766.55	42501.50
766.74	42325.37
766.92	42354.04
767.10	42419.58
767.29	42044.80
767.47	41772.42
767.65	42331.51
767.84	41487.75
768.02	41983.36
768.20	41608.58
768.39	41715.08
768.57	41844.10
768.75	41921.92
768.94	41872.77
769.12	41803.14
769.30	41598.34
769.49	41248.14
769.67	41368.97
769.85	41229.71
770.04	41313.67
770.22	41104.78
770.40	41026.96
770.59	40879.50
770.77	41063.82
770.95	41248.14
771.14	40596.88
771.32	40719.76
771.50	40834.45
771.69	40703.38
771.87	41299.34
772.05	40824.21
772.24	40222.11
772.42	40871.31
772.60	40498.58
772.78	40748.43
772.97	40213.91
773.15	40480.15
773.33	40230.30
773.52	40433.05
773.70	40560.02
773.88	40854.93
774.07	40383.90
774.25	40519.06
774.43	40453.53
774.61	40293.79
774.80	40322.46
774.98	40566.16
775.16	40691.09
775.34	40781.20
775.53	40095.13
775.71	40580.50
775.89	40514.97
776.08	40449.43
776.26	40420.76
776.44	40218.01
776.62	40256.92
776.81	40326.55
776.99	40730.00
777.17	40627.60
777.35	40580.50
777.54	40801.68
777.72	40600.98
777.90	40674.71
778.08	40926.61
778.27	40484.25
778.45	40824.21
778.63	40727.95
778.81	40670.61
779.00	41440.65
779.18	40498.58
779.36	40918.42
779.54	40842.64
779.73	40631.70
779.91	41213.32
780.09	41016.72
780.27	41139.60
780.46	41278.86
780.64	41065.87
780.82	40750.48
781.00	40977.81
781.19	41487.75
781.37	41145.74
781.55	40973.71
781.73	41497.99
781.91	41110.92
782.10	41252.23
782.28	41573.77
782.46	41149.84
782.64	41530.76
782.82	40910.22
783.01	41403.78
783.19	41381.26
783.37	41543.05
783.55	41665.92
783.74	41487.75
783.92	40586.64
784.10	41813.38
784.28	41330.06
784.46	41115.02
784.64	41403.78
784.83	41227.66
785.01	41545.09
785.19	41645.44
785.37	41143.69
785.55	41387.40
785.74	40869.26
785.92	40887.70
786.10	41287.05
786.28	41022.86
786.46	41018.77
786.64	40971.66
786.83	40990.09
787.01	41248.14
787.19	41098.64
787.37	41002.38
787.55	41280.91
787.74	40695.19
787.92	40717.71
788.10	40600.98
788.28	40793.49
788.46	40822.16
788.64	40406.42
788.82	41178.51
789.01	40996.24
789.19	40908.18
789.37	40428.95
789.55	40719.76
789.73	40146.33
789.91	40007.07
790.09	40213.91
790.28	40342.94
790.46	39718.31
790.64	40177.05
790.82	40207.77
791.00	39730.59
791.18	39769.51
791.36	39931.29
791.55	39411.11
791.73	39544.23
791.91	39413.16
792.09	39366.06
792.27	39714.21
792.45	39839.14
792.63	39521.70
792.81	39081.39
793.00	39658.91
793.18	39314.86
793.36	38948.27
793.54	39118.25
793.72	38778.29
793.90	38548.92
794.08	38772.14
794.26	39134.63
794.44	38565.30
794.62	38344.12
794.81	38593.97
794.99	38653.36
795.17	38407.61
795.35	38417.85
795.53	38489.52
795.71	38636.98
795.89	38301.11
796.07	37801.41
796.25	37860.80
796.43	37744.06
796.61	37686.72
796.80	37912.00
796.98	37494.21
797.16	37537.22
797.34	37608.90
797.52	37533.12
797.70	37619.14
797.88	37412.29
798.06	36861.39
798.24	37125.58
798.42	37316.04
798.60	37332.42
798.78	36799.95
798.96	37019.08
799.14	36951.50
799.32	36689.36
799.51	36480.47
799.69	36980.17
799.87	36711.89
800.05	36595.15
800.23	36546.00
800.41	35964.38
800.59	36517.33
800.77	35913.18
800.95	35839.45
801.13	36046.30
801.31	35665.38
801.49	36277.72
801.67	36115.93
801.85	36138.46
802.03	35509.73
802.21	35577.31
802.39	35890.65
802.57	35577.31
802.75	35292.65
802.93	35458.53
803.11	35067.37
803.29	34610.67
803.47	35304.93
803.65	34838.00
803.83	34995.69
804.01	34956.78
804.19	34608.62
804.37	34627.06
804.55	35055.08
804.73	34399.73
804.91	34682.35
805.09	34313.72
805.27	34131.45
805.45	34610.67
805.63	34412.02
805.81	34231.80
805.99	34356.72
806.17	34401.78
806.35	34323.96
806.53	34006.52
806.71	34051.58
806.89	33682.94
807.07	33824.25
807.25	33869.31
807.43	33684.99
807.61	33986.04
807.79	33672.70
807.97	33224.20
808.15	33287.68
808.33	33576.45
808.51	33211.91
808.69	33517.06
808.87	32990.73
809.05	32951.82
809.23	32953.87
809.41	32986.63
809.59	32699.92
809.77	32992.78
809.95	32347.67
810.13	32835.08
810.31	32511.50
810.49	32933.39
810.67	32777.74
810.84	32910.86
811.02	32566.80
811.20	32443.92
811.38	32265.75
811.56	32138.77
811.74	32359.95
811.92	31757.85
812.10	32275.99
812.28	32560.66
812.46	32073.24
812.64	32245.27
812.82	31897.11
813.00	31995.42
813.18	32013.85
813.36	31825.43
813.53	31583.77
813.71	31684.12
813.89	31893.02
814.07	31710.75
814.25	31508.00
814.43	31376.93
814.61	31282.72
814.79	31290.91
814.97	31231.52
815.15	31233.57
815.33	31125.03
815.50	30928.42
815.68	31460.90
815.86	31127.08
816.04	30975.53
816.22	30713.39
816.40	30750.25
816.58	30629.42
816.76	30733.87
816.94	30850.60
817.11	30340.66
817.29	30428.72
817.47	30600.75
817.65	30721.58
817.83	30549.55
818.01	30361.14
818.19	30619.18
818.37	30428.72
818.54	30344.75
818.72	30250.55
818.90	30361.14
819.08	30074.42
819.26	30291.51
819.44	30174.77
819.62	29996.60
819.80	30365.23
819.97	30236.21
820.15	29955.64
820.33	29851.19
820.51	29920.82
820.69	29447.74
820.87	29597.24
821.05	29953.59
821.22	29779.51
821.40	29795.90
821.58	29353.54
821.76	29826.62
821.94	29380.16
822.12	29421.12
822.29	29689.40
822.47	29478.46
822.65	29601.34
822.83	29292.10
823.01	29265.47
823.19	29224.51
823.36	28767.82
823.54	29095.49
823.72	28898.89
823.90	29124.16
824.08	28706.38
824.25	29132.36
824.43	28909.13
824.61	28655.18
824.79	28620.36
824.97	28851.78
825.15	28991.05
825.32	28552.78
825.50	28749.39
825.68	28655.18
825.86	28884.55
826.04	28505.68
826.21	28646.99
826.39	28548.68
826.57	28448.33
826.75	28446.29
826.93	28055.12
827.10	28313.17
827.28	28489.29
827.46	28350.03
827.64	28431.95
827.81	28059.22
827.99	28255.82
828.17	27901.53
828.35	28089.94
828.53	27922.01
828.70	27766.36
828.88	27528.80
829.06	27741.78
829.24	27788.89
829.41	27805.27
829.59	28350.03
829.77	27504.22
829.95	27700.83
830.12	27496.03
830.30	27741.78
830.48	27575.90
830.66	27815.51
830.84	27663.96
831.01	27536.99
831.19	27571.80
831.37	27600.47
831.55	27487.84
831.72	27094.63
831.90	27180.64
832.08	27369.05
832.25	27162.21
832.43	27156.07
832.61	27004.52
832.79	27403.87
832.96	27006.56
833.14	27041.38
833.32	27240.03
833.50	27170.40
833.67	27178.59
833.85	26971.75
834.03	26502.76
834.20	26875.49
834.38	26836.58
834.56	27160.16
834.74	26820.20
834.91	26998.37
835.09	26838.63
835.27	26418.80
835.44	26609.26
835.62	26156.66
835.80	26209.90
835.98	26689.13
836.15	26429.04
836.33	26146.42
836.51	26455.66
836.68	26400.37
836.86	26351.21
837.04	26449.52
837.21	26551.91
837.39	26457.71
837.57	26265.20
837.75	26424.94
837.92	26261.10
838.10	26134.13
838.28	25851.51
838.45	26091.12
838.63	26216.05
838.81	26214.00
838.98	26332.78
839.16	25665.14
839.34	25804.41
839.51	25618.04
839.69	25634.42
839.87	25626.23
840.04	25611.90
840.22	25962.10
840.40	25677.43
840.57	25509.50
840.75	25566.84
840.93	25134.72
841.10	25632.38
841.28	25802.36
841.46	25529.98
841.63	25755.26
841.81	25437.82
841.98	25409.15
842.16	25392.76
842.34	25585.27
842.51	25216.64
842.69	25579.13
842.87	25382.52
843.04	25136.77
843.22	25126.53
843.40	25015.94
843.57	25226.88
843.75	25157.25
843.92	25140.86
844.10	24974.98
844.28	25200.26
844.45	24948.36
844.63	24964.74
844.81	25171.58
844.98	25220.74
845.16	24811.14
845.33	24927.88
845.51	24848.00
845.69	24868.48
845.86	24698.50
846.04	24438.41
846.21	24510.09
846.39	24913.54
846.57	24561.29
846.74	24460.94
846.92	24700.55
847.09	24419.98
847.27	24422.03
847.45	24602.25
847.62	24452.75
847.80	24268.43
847.97	24336.01
848.15	24225.42
848.32	24297.10
848.50	24594.06
848.68	24215.18
848.85	24217.23
849.03	23969.43
849.20	23969.43
849.38	23963.28
849.56	24299.15
849.73	23727.77
849.91	23893.65
850.08	24315.53
850.26	23985.81
850.43	24129.17
850.61	23801.49
850.78	23807.64
850.96	23776.92
851.14	23617.18
851.31	24026.77
851.49	23641.75
851.66	23713.43
851.84	23740.05
852.01	23770.77
852.19	23604.89
852.36	23371.42
852.54	23617.18
852.71	23350.94
852.89	23467.67
853.07	23729.81
853.24	23588.50
853.42	23424.67
853.59	23344.80
853.77	23342.75
853.94	23445.15
854.12	23537.30
854.29	23195.29
854.47	23502.49
854.64	23125.66
854.82	23207.58
854.99	23340.70
855.17	22978.21
855.34	23019.17
855.52	22884.00
855.69	22965.92
855.87	22910.63
856.04	22689.45
856.22	22859.43
856.39	22537.90
856.57	22806.18
856.74	22642.34
856.92	22818.47
857.09	22585.00
857.27	22679.21
857.44	23121.57
857.62	22681.25
857.79	22935.20
857.97	22556.33
858.14	22509.22
858.32	22361.77
858.49	22709.93
858.67	22486.70
858.84	22290.09
859.02	22134.45
859.19	22128.30
859.37	22126.25
859.54	22238.89
859.72	22286.00
859.89	22466.22
860.06	22322.86
860.24	22161.07
860.41	22257.32
860.59	22015.66
860.76	22144.69
860.94	21847.73
861.11	22179.50
861.29	21808.82
861.46	22064.82
861.64	21935.79
861.81	21857.97
861.98	21763.76
862.16	21587.64
862.33	21575.35
862.51	21524.15
862.68	21743.28
862.86	21763.76
863.03	21870.26
863.21	21624.50
863.38	21354.17
863.55	21659.32
863.73	21683.89
863.90	21309.11
864.08	21407.42
864.25	21348.03
864.43	21597.88
864.60	21294.78
864.77	21079.74
864.95	21235.39
865.12	21071.55
865.30	21337.79
865.47	20934.34
865.64	21173.95
865.82	20930.24
865.99	21264.06
866.17	20850.37
866.34	21186.24
866.51	21100.22
866.69	21044.93
866.86	20956.86
867.04	21001.92
867.21	21032.64
867.38	20741.83
867.56	20577.99
867.73	20666.05
867.91	20645.57
868.08	20584.13
868.25	20373.19
868.43	20377.29
868.60	20440.78
868.78	20440.78
868.95	20321.99
869.12	20244.17
869.30	20227.79
869.47	20432.58
869.64	20125.39
869.82	20385.48
869.99	20111.05
870.16	20293.32
870.34	20274.89
870.51	20270.79
870.69	20063.95
870.86	20174.54
871.03	20242.12
871.21	19818.19
871.38	19848.91
871.55	19752.66
871.73	19875.54
871.90	19738.32
872.07	19635.92
872.25	19545.81
872.42	19644.12
872.59	19621.59
872.77	19603.16
872.94	19699.41
873.11	19734.23
873.29	19701.46
873.46	19613.40
873.63	19519.19
873.81	19666.64
873.98	19556.05
874.15	19543.77
874.33	19222.23
874.50	18849.50
874.67	19173.08
874.85	19150.56
875.02	18978.53
875.19	18872.03
875.37	18929.38
875.54	18597.60
875.71	18933.47
875.88	18622.18
876.06	18863.84
876.23	18525.93
876.40	18575.08
876.58	18523.88
876.75	18761.44
876.92	18730.72
877.10	18425.57
877.27	18554.60
877.44	18331.37
877.61	18427.62
877.79	18409.19
877.96	18349.80
878.13	18691.81
878.31	18374.38
878.48	18292.46
878.65	18357.99
878.82	18056.94
879.00	18040.56
879.17	18126.57
879.34	18048.75
879.51	17874.67
879.69	17702.64
879.86	17813.23
880.03	17932.01
880.21	17815.28
880.38	17882.86
880.55	17864.43
880.72	17751.79
880.90	17868.53
881.07	17590.00
881.24	17741.55
881.41	17821.42
881.59	17649.39
881.76	17563.38
881.93	17329.91
882.10	17448.69
882.28	17315.58
882.45	17583.86
882.62	17501.94
882.79	17413.88
882.96	17186.55
883.14	17291.00
883.31	17217.27
883.48	17293.05
883.65	17329.91
883.83	17438.45
884.00	17207.03
884.17	17190.65
884.34	17180.41
884.51	17131.26
884.69	17188.60
884.86	16940.80
885.03	17217.27
885.20	17032.96
885.38	17008.38
885.55	17045.24
885.72	17032.96
885.89	17213.18
886.06	16893.69
886.24	16533.25
886.41	16819.97
886.58	16928.51
886.75	16809.73
886.92	16652.03
887.10	16660.23
887.27	16738.05
887.44	16615.17
887.61	16871.17
887.78	16701.19
887.95	16627.46
888.13	16365.32
888.30	16545.54
888.47	16346.89
888.64	16559.88
888.81	16520.96
888.99	16621.31
889.16	16533.25
889.33	16236.30
889.50	16582.40
889.67	16330.50
889.84	16344.84
890.01	16342.79
890.19	16289.54
890.36	16273.16
890.53	16355.08
890.70	16125.71
890.87	16133.90
891.04	16248.58
891.22	15963.92
891.39	16094.99
891.56	15951.63
891.73	16043.79
891.90	15978.25
892.07	15845.13
892.24	15875.85
892.42	15904.53
892.59	15746.83
892.76	15769.36
892.93	15640.34
893.10	15646.48
893.27	15539.99
893.44	15660.82
893.61	15664.91
893.79	15654.67
893.96	15621.91
894.13	15712.02
894.30	15609.62
894.47	15830.80
894.64	15775.50
894.81	15800.08
894.98	15634.19
895.15	15630.10
895.33	15566.61
895.50	15396.63
895.67	15585.04
895.84	15523.60
896.01	15445.78
896.18	15378.20
896.35	15574.80
896.52	15550.23
896.69	15431.44
896.86	15406.87
897.04	15564.56
897.21	15451.92
897.38	15458.07
897.55	15390.49
897.72	15386.39
897.89	15228.70
898.06	15513.36
898.23	15378.20
898.40	15392.53
898.57	15343.38
898.74	15492.88
898.91	15277.85
899.08	15494.93
899.26	15226.65
899.43	15189.78
899.60	15337.24
899.77	15306.52
899.94	15222.55
900.11	15109.91
900.28	15408.92
900.45	15144.73
900.62	15040.28
900.79	15400.72
900.96	15187.74
901.13	15324.95
901.30	15071.00
901.47	15060.76
901.64	15040.28
901.81	15310.61
901.98	14941.98
902.15	15320.85
902.32	14993.18
902.49	15114.01
902.66	15283.99
902.83	15281.94
903.01	15068.95
903.18	15224.60
903.35	15222.55
903.52	15068.95
903.69	15245.08
903.86	15134.49
904.03	15275.80
904.20	15150.87
904.37	15554.32
904.54	15220.50
904.71	14864.16
904.88	15208.22
905.05	15013.66
905.22	15032.09
905.39	15042.33
905.56	15085.34
905.73	15073.05
905.90	15107.87
906.07	15128.35
906.24	14984.99
906.41	14980.89
906.58	15249.18
906.75	14950.17
906.92	14966.56
907.09	15103.77
907.26	15034.14
907.43	14952.22
907.60	14896.92
907.77	14886.68
907.93	14911.26
908.10	14835.49
908.27	15066.91
908.44	14823.20
908.61	14526.24
908.78	14903.07
908.95	14952.22
909.12	14874.40
909.29	14765.85
909.46	14972.70
909.63	14982.94
909.80	14976.80
909.97	14989.08
910.14	14790.43
910.31	14634.78
910.48	15126.30
910.65	14685.98
910.82	14714.66
910.99	14792.48
911.16	14536.48
911.33	14720.80
911.50	14511.91
911.66	14575.39
911.83	14722.85
912.00	14665.50
912.17	14624.54
912.34	14690.08
912.51	14343.97
912.68	14536.48
912.85	14495.52
913.02	14470.95
913.19	14264.10
913.36	14470.95
913.53	14343.97
913.70	14300.97
913.86	14683.94
914.03	14196.52
914.20	14141.22
914.37	14313.25
914.54	14153.51
914.71	14659.36
914.88	14163.75
915.05	14153.51
915.22	14223.14
915.39	14034.73
915.55	14096.17
915.72	14143.27
915.89	13954.86
916.06	14100.26
916.23	13872.94
916.40	13776.69
916.57	13713.20
916.74	13905.71
916.91	13733.68
917.07	13803.31
917.24	13885.23
917.41	13647.66
917.58	13674.29
917.75	13702.96
917.92	13360.95
918.09	13483.83
918.26	13592.37
918.42	13410.10
918.59	13569.84
918.76	13313.84
918.93	13381.43
919.10	13240.12
919.27	13225.78
919.44	13350.71
919.60	13094.71
919.77	13107.00
919.94	13135.67
920.11	13315.89
920.28	12961.59
920.45	12916.54
920.61	12934.97
920.78	12965.69
920.95	12795.71
921.12	13014.84
921.29	12676.93
921.46	12865.34
921.62	12521.28
921.79	12576.58
921.96	12431.17
922.13	12472.13
922.30	12619.58
922.47	12611.39
922.63	12388.16
922.80	12570.43
922.97	12222.28
923.14	12101.45
923.31	12240.71
923.47	12246.85
923.64	12504.90
923.81	12222.28
923.98	12289.86
924.15	12070.73
924.32	12261.19
924.48	12107.59
924.65	11990.86
924.82	11988.81
924.99	11947.85
925.15	11769.68
925.32	12121.93
925.49	11769.68
925.66	11534.16
925.83	11562.83
925.99	11448.15
926.16	11605.84
926.33	11646.80
926.50	11384.66
926.67	11388.75
926.83	11421.52
927.00	11386.71
927.17	11274.07
927.34	11145.05
927.50	11175.77
927.67	11233.11
927.84	11124.57
928.01	11151.19
928.17	10870.62
928.34	11091.80
928.51	10981.21
928.68	10751.84
928.84	10784.60
929.01	10858.33
929.18	10833.75
929.35	10749.79
929.51	10549.09
929.68	10487.65
929.85	10409.83
930.02	10602.33
930.18	10596.19
930.35	10461.02
930.52	10463.07
930.69	10579.81
930.85	10350.43
931.02	10256.23
931.19	10270.56
931.36	10190.69
931.52	10362.72
931.69	10278.76
931.86	9951.08
932.02	9760.62
932.19	9992.04
932.36	9869.16
932.53	9985.90
932.69	9662.32
932.86	9957.22
933.03	9826.15
933.19	9647.98
933.36	9647.98
933.53	9715.56
933.70	9668.46
933.86	9432.94
934.03	9432.94
934.20	9416.56
934.36	9596.78
934.53	9238.39
934.70	9092.98
934.86	9248.63
935.03	9039.73
935.20	9013.11
935.36	8904.57
935.53	8849.27
935.70	8857.46
935.86	8820.60
936.03	8712.06
936.20	8554.37
936.36	8363.90
936.53	8630.14
936.70	8443.78
936.86	8544.13
937.03	8253.31
937.20	8011.65
937.36	8187.78
937.53	8062.85
937.70	8069.00
937.86	7839.62
938.03	7784.33
938.20	7769.99
938.36	7769.99
938.53	7614.35
938.70	7554.96
938.86	7319.44
939.03	7423.89
939.20	7200.66
939.36	7126.93
939.53	7116.69
939.70	7307.15
939.86	6809.50
940.03	6866.84
940.19	6846.36
940.36	6748.06
940.53	6616.99
940.69	6553.50
940.86	6522.78
941.03	6395.81
941.19	6340.51
941.36	6395.81
941.52	6422.43
941.69	6203.30
941.86	6219.68
942.02	6109.09
942.19	6049.70
942.35	6234.02
942.52	6086.56
942.69	5943.21
942.85	5873.57
943.02	5883.81
943.18	5760.94
943.35	5623.72
943.52	5775.27
943.68	5685.16
943.85	5748.65
944.01	5586.86
944.18	5459.88
944.35	5601.19
944.51	5480.36
944.68	5476.27
944.84	5484.46
945.01	5496.75
945.17	5547.95
945.34	5425.07
945.51	5435.31
945.67	5326.77
945.84	5488.56
946.00	5263.28
946.17	5447.60
946.33	5236.66
946.50	5269.42
946.67	5599.15
946.83	5310.38
947.00	5337.01
947.16	5306.29
947.33	5345.20
947.49	5316.53
947.66	5261.23
947.82	5289.90
947.99	5244.85
948.16	5277.62
948.32	5253.04
948.49	5300.14
948.65	5279.66
948.82	5334.96
948.98	5277.62
949.15	5287.86
949.31	5203.89
949.48	5289.90
949.64	5267.38
949.81	5232.56
949.97	5207.98
950.14	5285.81
950.30	5265.33
950.47	5289.90
950.63	5506.99
950.80	5384.11
950.96	5255.09
951.13	5322.67
951.30	5238.70
951.46	5294.00
951.63	5392.30
951.79	5398.45
951.96	5392.30
952.12	5218.22
952.29	5404.59
952.45	5283.76
952.62	5439.40
952.78	5242.80
952.94	5398.45
953.11	5410.73
953.27	5294.00
953.44	5423.02
953.60	5423.02
953.77	5511.08
953.93	5312.43
954.10	5437.36
954.26	5369.77
954.43	5412.78
954.59	5423.02
954.76	5506.99
954.92	5429.17
955.09	5609.39
955.25	5404.59
955.42	5365.68
955.58	5504.94
955.75	5595.05
955.91	5435.31
956.07	5502.89
956.24	5433.26
956.40	5441.45
956.57	5443.50
956.73	5523.37
956.90	5437.36
957.06	5431.21
957.23	5486.51
957.39	5306.29
957.56	5416.88
957.72	5433.26
957.88	5414.83
958.05	5472.17
958.21	5492.65
958.38	5629.87
958.54	5498.80
958.71	5615.53
958.87	5416.88
959.03	5351.34
959.20	5488.56
959.36	5425.07
959.53	5339.05
959.69	5420.97
959.85	5437.36
960.02	5255.09
960.18	5529.52
960.35	5486.51
960.51	5480.36
960.68	5447.60
960.84	5584.81
961.00	5449.64
961.17	5457.84
961.33	5533.61
961.50	5545.90
961.66	5492.65
961.82	5418.93
961.99	5474.22
962.15	5486.51
962.31	5498.80
962.48	5382.06
962.64	5496.75
962.81	5435.31
962.97	5500.84
963.13	5566.38
963.30	5506.99
963.46	5398.45
963.62	5414.83
963.79	5420.97
963.95	5246.90
964.12	5410.73
964.28	5443.50
964.44	5441.45
964.61	5343.15
964.77	5353.39
964.93	5570.48
965.10	5425.07
965.26	5369.77
965.42	5326.77
965.59	5468.08
965.75	5375.92
965.92	5466.03
966.08	5347.25
966.24	5250.99
966.41	5294.00
966.57	5365.68
966.73	5363.63
966.90	5334.96
967.06	5353.39
967.22	5300.14
967.39	5248.94
967.55	5300.14
967.71	5250.99
967.88	5343.15
968.04	5201.84
968.20	5212.08
968.37	5183.41
968.53	5146.55
968.69	5158.83
968.85	5337.01
969.02	5177.26
969.18	5156.79
969.34	5234.61
969.51	5257.14
969.67	5238.70
969.83	5097.39
970.00	5064.63
970.16	5152.69
970.32	5234.61
970.48	5107.63
970.65	5070.77
970.81	5029.81
970.97	5171.12
971.14	4986.80
971.30	5158.83
971.46	5019.57
971.63	5074.87
971.79	5009.33
971.95	5048.24
972.11	5021.62
972.28	4861.88
972.44	5179.31
972.60	4962.23
972.76	5087.15
972.93	4937.65
973.09	4966.32
973.25	5038.00
973.42	4902.84
973.58	5009.33
973.74	5025.72
973.90	4882.36
974.07	4898.74
974.23	4931.51
974.39	4882.36
974.55	4831.16
974.72	4908.98
974.88	4786.10
975.04	4923.32
975.20	4788.15
975.37	4876.21
975.53	4816.82
975.69	4845.49
975.85	4687.80
976.01	4730.81
976.18	4820.92
976.34	4763.58
976.50	4896.69
976.66	4888.50
976.83	4839.35
976.99	4687.80
977.15	4648.89
977.31	4638.65
977.47	4607.93
977.64	4618.17
977.80	4755.38
977.96	4673.46
978.12	4552.63
978.29	4507.58
978.45	4628.41
978.61	4679.61
978.77	4642.75
978.93	4538.30
979.10	4548.54
979.26	4704.18
979.42	4558.78
979.58	4493.24
979.74	4507.58
979.91	4581.31
980.07	4501.44
980.23	4603.83
980.39	4472.76
980.55	4624.31
980.71	4409.28
980.88	4511.68
981.04	4421.56
981.20	4513.72
981.36	4319.17
981.52	4364.22
981.68	4394.94
981.85	4478.91
982.01	4407.23
982.17	4343.74
982.33	4460.48
982.49	4380.61
982.65	4358.08
982.82	4433.85
982.98	4261.82
983.14	4353.98
983.30	4388.80
983.46	4386.75
983.62	4267.97
983.79	4394.94
983.95	4335.55
984.11	4247.49
984.27	4186.05
984.43	4284.35
984.59	4308.93
984.75	4198.34
984.91	4218.82
985.08	4317.12
985.24	4112.32
985.40	4077.51
985.56	4052.93
985.72	4251.58
985.88	4147.14
986.04	4151.23
986.20	4128.70
986.37	4296.64
986.53	4175.81
986.69	4157.38
986.85	3993.54
987.01	4040.64
987.17	4089.79
987.33	4106.18
987.49	4026.31
987.65	3995.59
987.82	4034.50
987.98	3981.25
988.14	4024.26
988.30	4116.42
988.46	3964.87
988.62	3944.39
988.78	3942.34
988.94	3903.43
989.10	3909.57
989.26	3887.04
989.42	3940.29
989.59	3899.33
989.75	3913.67
989.91	3725.26
990.07	3764.17
990.23	3706.82
990.39	3837.89
990.55	3854.28
990.71	3780.55
990.87	3837.89
991.03	3794.89
991.19	3784.65
991.35	3821.51
991.51	3778.50
991.67	3782.60
991.83	3712.97
992.00	3868.61
992.16	3887.04
992.32	3805.13
992.48	3819.46
992.64	3743.69
992.80	3813.32
992.96	3719.11
993.12	3780.55
993.28	3772.36
993.44	3731.40
993.60	3717.06
993.76	3665.86
993.92	3610.57
994.08	3710.92
994.24	3700.68
994.40	3590.09
994.56	3755.97
994.72	3598.28
994.88	3555.27
995.04	3536.84
995.20	3618.76
995.36	3585.99
995.52	3600.33
995.68	3581.90
995.84	3553.23
996.00	3631.05
996.16	3516.36
996.32	3479.50
996.48	3485.64
996.64	3506.12
996.80	3557.32
996.96	3502.03
997.12	3549.13
997.28	3459.02
997.44	3383.24
997.60	3407.82
997.76	3473.36
997.92	3368.91
998.08	3491.79
998.24	3401.68
998.40	3385.29
998.56	3442.64
998.72	3362.76
998.88	3456.97
999.04	3284.94
999.20	3497.93
999.36	3284.94
999.52	3407.82
999.68	3299.28
999.84	3338.19
1000.00	3284.94
1000.16	3321.81
1000.32	3330.00
1000.48	3416.01
1000.64	3205.07
1000.80	3192.78
1000.95	3262.41
1001.11	3241.93
1001.27	3307.47
1001.43	3260.37
1001.59	3178.45
1001.75	3225.55
1001.91	3313.61
1002.07	3139.54
1002.23	3164.11
1002.39	3145.68
1002.55	3180.50
1002.71	3102.67
1002.87	3178.45
1003.03	3141.58
1003.19	3157.97
1003.34	3250.13
1003.50	3104.72
1003.66	3166.16
1003.82	3153.87
1003.98	3166.16
1004.14	3059.67
1004.30	3084.24
1004.46	3104.72
1004.62	3098.58
1004.78	3090.38
1004.94	3053.52
1005.09	3074.00
1005.25	3065.81
1005.41	3053.52
1005.57	2938.84
1005.73	2936.79
1005.89	3014.61
1006.05	3010.51
1006.21	3104.72
1006.37	2881.49
1006.52	2877.40
1006.68	2875.35
1006.84	3088.34
1007.00	2963.41
1007.16	3022.80
1007.32	3059.67
1007.48	2953.17
1007.64	2928.60
1007.79	2996.18
1007.95	2854.87
1008.11	2908.12
1008.27	2930.64
1008.43	2926.55
1008.59	2826.20
1008.75	2938.84
1008.91	2834.39
1009.06	2912.21
1009.22	2832.34
1009.38	2842.58
1009.54	2922.45
1009.70	2822.10
1009.86	2772.95
1010.01	2822.10
1010.17	2795.48
1010.33	2848.72
1010.49	2799.57
1010.65	2809.81
1010.81	2770.90
1010.96	2670.55
1011.12	2678.74
1011.28	2748.37
1011.44	2789.33
1011.60	2740.18
1011.76	2748.37
1011.91	2789.33
1012.07	2707.41
1012.23	2637.78
1012.39	2629.59
1012.55	2639.83
1012.71	2580.44
1012.86	2717.65
1013.02	2705.37
1013.18	2666.46
1013.34	2662.36
1013.50	2795.48
1013.65	2629.59
1013.81	2580.44
1013.97	2598.87
1014.13	2574.30
1014.29	2635.74
1014.44	2713.56
1014.60	2676.70
1014.76	2672.60
1014.92	2564.06
1015.07	2631.64
1015.23	2600.92
1015.39	2506.71
1015.55	2553.82
1015.71	2592.73
1015.86	2574.30
1016.02	2500.57
1016.18	2492.38
1016.34	2488.28
1016.49	2535.39
1016.65	2594.78
1016.81	2523.10
1016.97	2502.62
1017.12	2547.67
1017.28	2445.27
1017.44	2443.23
1017.60	2519.00
1017.75	2514.91
1017.91	2480.09
1018.07	2385.88
1018.23	2451.42
1018.38	2486.23
1018.54	2443.23
1018.70	2394.08
1018.86	2439.13
1019.01	2357.21
1019.17	2428.89
1019.33	2506.71
1019.49	2344.92
1019.64	2457.56
1019.80	2430.94
1019.96	2410.46
1020.12	2408.41
1020.27	2310.11
1020.43	2406.36
1020.59	2389.98
1020.74	2496.47
1020.90	2410.46
1021.06	2330.59
1021.22	2373.60
1021.37	2387.93
1021.53	2379.74
1021.69	2355.16
1021.84	2314.20
1022.00	2324.44
1022.16	2234.33
1022.31	2246.62
1022.47	2369.50
1022.63	2334.68
1022.79	2228.19
1022.94	2265.05
1023.10	2381.79
1023.26	2336.73
1023.41	2318.30
1023.57	2283.49
1023.73	2248.67
1023.88	2301.92
1024.04	2148.32
1024.20	2273.25
1024.35	2342.88
1024.51	2273.25
1024.67	2248.67
1024.82	2310.11
1024.98	2215.90
1025.14	2232.29
1025.29	2090.98
1025.45	2265.05
1025.61	2176.99
1025.76	2193.37
1025.92	2197.47
1026.08	2209.76
1026.23	2256.86
1026.39	2197.47
1026.55	2166.75
1026.70	2174.94
1026.86	2217.95
1027.02	2254.81
1027.17	2160.61
1027.33	2220.00
1027.48	2078.69
1027.64	2133.98
1027.80	2121.70
1027.95	2140.13
1028.11	2035.68
1028.27	2154.46
1028.42	2211.81
1028.58	2127.84
1028.73	2107.36
1028.89	2054.11
1029.05	2121.70
1029.20	2166.75
>>>>>End Processed Spectral Data<<<<<
