SpectraSuite Data File
++++++++++++++++++++++++++++++++++++
Date: Fri Jun 02 14:41:53 CEST 2017
User: INFO_000
Dark Spectrum Present: No
Reference Spectrum Present: No
Number of Sampled Component Spectra: 1
Spectrometers: USB4H00879
Integration Time (usec): 80000 (USB4H00879)
Spectra Averaged: 1 (USB4H00879)
Boxcar Smoothing: 0 (USB4H00879)
Correct for Electrical Dark: No (USB4H00879)
Strobe/Lamp Enabled: No (USB4H00879)
Correct for Detector Non-linearity: No (USB4H00879)
Correct for Stray Light: No (USB4H00879)
Number of Pixels in Processed Spectrum: 3648
>>>>>Begin Processed Spectral Data<<<<<
345.13	1277.93
345.34	1277.93
345.56	1277.93
345.78	1193.97
345.99	1294.32
346.21	1621.99
346.42	1675.24
346.64	1630.18
346.86	1849.32
347.07	1646.57
347.29	1728.49
347.50	1552.36
347.72	1712.10
347.94	1728.49
348.15	1601.51
348.37	1660.90
348.59	1667.05
348.80	1630.18
349.02	1787.88
349.23	1789.92
349.45	1900.52
349.67	1814.50
349.88	1767.40
350.10	1925.09
350.31	1802.21
350.53	1869.80
350.75	1941.47
350.96	1763.30
351.18	1785.83
351.39	1777.64
351.61	1818.60
351.82	1822.69
352.04	1925.09
352.26	1843.17
352.47	1791.97
352.69	1968.10
352.90	1822.69
353.12	1818.60
353.34	1781.73
353.55	1910.75
353.77	1865.70
353.98	1824.74
354.20	1810.40
354.41	1927.14
354.63	1920.99
354.85	2099.17
355.06	2009.06
355.28	1837.03
355.49	1865.70
355.71	1923.04
355.92	1896.42
356.14	1888.23
356.35	1843.17
356.57	1818.60
356.79	1877.99
357.00	1841.12
357.22	1908.71
357.43	1863.65
357.65	1968.10
357.86	1865.70
358.08	1953.76
358.29	1929.19
358.51	1982.43
358.72	1953.76
358.94	1955.81
359.16	1882.08
359.37	1898.47
359.59	1961.95
359.80	1933.28
360.02	1929.19
360.23	1970.15
360.45	2000.87
360.66	1957.86
360.88	1837.03
361.09	1951.71
361.31	2023.39
361.52	1910.75
361.74	2076.64
361.95	2037.73
362.17	1949.67
362.38	2017.25
362.60	2017.25
362.81	2011.11
363.03	1974.24
363.24	1992.67
363.46	2043.87
363.67	1964.00
363.89	2007.01
364.10	1994.72
364.32	1953.76
364.53	2056.16
364.75	1920.99
364.96	2009.06
365.18	2082.78
365.39	2021.35
365.61	1937.38
365.82	2107.36
366.04	1992.67
366.25	2021.35
366.47	2111.46
366.68	1994.72
366.90	1984.48
367.11	2045.92
367.33	2004.96
367.54	2074.59
367.76	2043.87
367.97	2185.18
368.19	1943.52
368.40	2164.70
368.62	2043.87
368.83	2002.91
369.05	2125.79
369.26	2004.96
369.48	2072.54
369.69	2023.39
369.91	2070.50
370.12	2058.21
370.33	2133.98
370.55	1988.58
370.76	2033.63
370.98	2099.17
371.19	2037.73
371.41	2007.01
371.62	2039.78
371.84	2019.30
372.05	2088.93
372.27	2066.40
372.48	2101.22
372.69	2002.91
372.91	2172.89
373.12	2176.99
373.34	2131.94
373.55	2113.50
373.77	2152.42
373.98	2236.38
374.20	2166.75
374.41	2265.05
374.62	2093.02
374.84	2146.27
375.05	2205.66
375.27	2183.13
375.48	2203.61
375.70	2195.42
375.91	2174.94
376.12	2295.77
376.34	2207.71
376.55	2260.96
376.77	2273.25
376.98	2133.98
377.19	2123.74
377.41	2189.28
377.62	2189.28
377.84	2344.92
378.05	2338.78
378.27	2224.09
378.48	2277.34
378.69	2396.12
378.91	2338.78
379.12	2314.20
379.34	2209.76
379.55	2283.49
379.76	2230.24
379.98	2369.50
380.19	2232.29
380.41	2318.30
380.62	2371.55
380.83	2242.53
381.05	2240.48
381.26	2420.70
381.47	2203.61
381.69	2373.60
381.90	2389.98
382.12	2351.07
382.33	2340.83
382.54	2277.34
382.76	2385.88
382.97	2310.11
383.19	2342.88
383.40	2363.36
383.61	2289.63
383.83	2271.20
384.04	2359.26
384.25	2369.50
384.47	2430.94
384.68	2471.90
384.89	2353.12
385.11	2426.84
385.32	2457.56
385.54	2377.69
385.75	2326.49
385.96	2471.90
386.18	2465.75
386.39	2459.61
386.60	2435.03
386.82	2441.18
387.03	2426.84
387.24	2531.29
387.46	2377.69
387.67	2490.33
387.88	2625.50
388.10	2461.66
388.31	2475.99
388.52	2537.43
388.74	2602.97
388.95	2535.39
389.16	2584.54
389.38	2494.43
389.59	2699.22
389.80	2744.28
390.02	2574.30
390.23	2566.10
390.44	2519.00
390.66	2617.30
390.87	2516.95
391.08	2674.65
391.30	2682.84
391.51	2660.31
391.72	2752.47
391.94	2734.04
392.15	2613.21
392.36	2641.88
392.58	2658.26
392.79	2662.36
393.00	2764.76
393.22	2770.90
393.43	2764.76
393.64	2752.47
393.85	2758.61
394.07	2740.18
394.28	2731.99
394.49	2807.77
394.71	2738.13
394.92	2881.49
395.13	2789.33
395.35	2795.48
395.56	2795.48
395.77	2869.20
395.98	2811.86
396.20	2983.89
396.41	2973.65
396.62	2877.40
396.84	2916.31
397.05	2930.64
397.26	2920.40
397.47	3004.37
397.69	2779.09
397.90	3119.06
398.11	2891.73
398.32	2965.46
398.54	2930.64
398.75	2877.40
398.96	2928.60
399.18	3051.47
399.39	3030.99
399.60	3047.38
399.81	3090.38
400.03	2992.08
400.24	3284.94
400.45	3045.33
400.66	3125.20
400.88	3098.58
401.09	3385.29
401.30	3147.73
401.51	3157.97
401.73	3164.11
401.94	3143.63
402.15	3233.74
402.36	3248.08
402.58	3248.08
402.79	3209.17
403.00	3190.74
403.21	3325.90
403.43	3149.78
403.64	3360.72
403.85	3172.30
404.06	3319.76
404.27	3207.12
404.49	3196.88
404.70	3227.60
404.91	3299.28
405.12	3246.03
405.34	3352.52
405.55	3450.83
405.76	3170.26
405.97	3258.32
406.19	3463.12
406.40	3330.00
406.61	3368.91
406.82	3373.00
407.03	3481.55
407.25	3420.11
407.46	3471.31
407.67	3465.16
407.88	3528.65
408.09	3409.87
408.31	3297.23
408.52	3362.76
408.73	3366.86
408.94	3393.48
409.15	3614.66
409.37	3532.75
409.58	3583.95
409.79	3545.03
410.00	3600.33
410.21	3481.55
410.43	3487.69
410.64	3493.83
410.85	3561.42
411.06	3651.53
411.27	3606.47
411.48	3682.25
411.70	3616.71
411.91	3579.85
412.12	3743.69
412.33	3526.60
412.54	3657.67
412.76	3788.74
412.97	3721.16
413.18	3649.48
413.39	3745.73
413.60	3725.26
413.81	3696.58
414.03	3676.10
414.24	3682.25
414.45	3719.11
414.66	3629.00
414.87	3827.65
415.08	3717.06
415.30	3864.52
415.51	3966.92
415.72	3874.76
415.93	3846.09
416.14	3872.71
416.35	3934.15
416.56	3925.96
416.78	3987.40
416.99	3876.80
417.20	3964.87
417.41	3923.91
417.62	4024.26
417.83	4028.35
418.04	3938.24
418.26	3903.43
418.47	4036.55
418.68	3983.30
418.89	4108.23
419.10	4224.96
419.31	4007.87
419.52	4177.86
419.73	4151.23
419.95	4173.76
420.16	4192.19
420.37	4157.38
420.58	4163.52
420.79	4057.03
421.00	4186.05
421.21	4300.73
421.42	4194.24
421.63	4235.20
421.85	4147.14
422.06	4294.59
422.27	4366.27
422.48	4347.84
422.69	4409.28
422.90	4302.78
423.11	4274.11
423.32	4442.04
423.53	4597.69
423.75	4483.00
423.96	4534.20
424.17	4536.25
424.38	4618.17
424.59	4546.49
424.80	4683.70
425.01	4628.41
425.22	4483.00
425.43	4663.22
425.64	4763.58
425.85	4833.21
426.06	4575.16
426.28	4663.22
426.49	4652.98
426.70	4659.13
426.91	4730.81
427.12	4818.87
427.33	4677.56
427.54	4689.85
427.75	4863.93
427.96	4943.80
428.17	4841.40
428.38	4812.73
428.59	5107.63
428.80	4951.99
429.01	4937.65
429.23	5128.11
429.44	5248.94
429.65	5136.31
429.86	5025.72
430.07	4835.25
430.28	5056.43
430.49	5048.24
430.70	5330.86
430.91	5201.84
431.12	5138.35
431.33	5369.77
431.54	5310.38
431.75	5193.65
431.96	5230.51
432.17	5255.09
432.38	5228.46
432.59	5525.42
432.80	5318.57
433.01	5463.98
433.22	5490.60
433.43	5480.36
433.64	5429.17
433.85	5261.23
434.06	5447.60
434.27	5400.49
434.49	5504.94
434.70	5674.92
434.91	5758.89
435.12	5689.26
435.33	5529.52
435.54	5621.67
435.75	5498.80
435.96	5674.92
436.17	5611.43
436.38	5846.95
436.59	5787.56
436.80	5683.11
437.01	5799.85
437.22	5820.33
437.43	5846.95
437.64	5564.33
437.85	5926.82
438.06	6004.64
438.27	6031.27
438.48	5939.11
438.69	6158.24
438.90	5963.68
439.11	5908.39
439.32	6125.47
439.53	6064.04
439.74	5920.68
439.95	6049.70
440.16	6047.65
440.37	6129.57
440.57	6031.27
440.78	6137.76
440.99	6168.48
441.20	6074.28
441.41	6084.52
441.62	6348.70
441.83	5971.88
442.04	6248.35
442.25	6301.60
442.46	6197.15
442.67	6371.23
442.88	6670.23
443.09	6205.35
443.30	6229.92
443.51	6299.55
443.72	6541.21
443.93	6373.28
444.14	6580.12
444.35	6328.22
444.56	6596.51
444.77	6453.15
444.98	6533.02
445.19	6741.91
445.40	6686.62
445.61	6518.68
445.81	6727.58
446.02	6623.13
446.23	6713.24
446.44	6412.19
446.65	6705.05
446.86	6616.99
447.07	6629.27
447.28	6852.50
447.49	6875.03
447.70	6791.06
447.91	7018.39
448.12	6813.59
448.33	7010.20
448.54	6987.67
448.74	6803.35
448.95	6948.76
449.16	6877.08
449.37	7247.76
449.58	7040.92
449.79	7251.86
450.00	7088.02
450.21	7309.20
450.42	7303.06
450.63	7128.98
450.84	7350.16
451.05	7188.37
451.25	7108.50
451.46	7233.43
451.67	7430.03
451.88	7602.06
452.09	7354.26
452.30	7294.86
452.51	7286.67
452.72	7526.29
452.93	7802.76
453.13	7401.36
453.34	7446.41
453.55	7473.04
453.76	7640.97
453.97	7856.01
454.18	7593.87
454.39	7921.54
454.60	7821.19
454.81	7692.17
455.01	7919.50
455.22	7567.24
455.43	7874.44
455.64	8066.95
455.85	8146.82
456.06	8277.89
456.27	8046.47
456.48	7987.08
456.68	7968.65
456.89	8130.44
457.10	8269.70
457.31	8361.86
457.52	8273.79
457.73	8327.04
457.94	8433.54
458.14	8425.34
458.35	8789.88
458.56	8503.17
458.77	8343.42
458.98	8515.45
459.19	8488.83
459.39	8791.93
459.60	8685.44
459.81	8605.56
460.02	8953.72
460.23	8830.84
460.44	9031.54
460.65	9043.83
460.85	9156.47
461.06	9135.99
461.27	8675.20
461.48	9238.39
461.69	9416.56
461.89	8839.03
462.10	9174.90
462.31	9064.31
462.52	9133.94
462.73	9240.44
462.94	9473.90
463.14	9299.83
463.35	9375.60
463.56	9584.49
463.77	9822.06
463.98	9469.81
464.18	9351.03
464.39	9832.30
464.60	9992.04
464.81	9678.70
465.02	9828.20
465.23	10198.88
465.43	9832.30
465.64	10235.75
465.85	10151.78
466.06	10073.96
466.27	10508.13
466.47	10352.48
466.68	10407.78
466.89	10297.19
467.10	10725.21
467.30	10147.69
467.51	10575.71
467.72	10917.72
467.93	10432.35
468.14	10798.94
468.34	10858.33
468.55	11036.50
468.76	10811.23
468.97	10784.60
469.17	11124.57
469.38	11134.81
469.59	11290.45
469.80	11065.18
470.01	11384.66
470.21	11312.98
470.42	11456.34
470.63	11632.46
470.84	11485.01
471.04	11857.74
471.25	11757.39
471.46	11761.48
471.67	12060.49
471.87	11884.36
472.08	12076.87
472.29	12222.28
472.50	11888.46
472.70	12070.73
472.91	12246.85
473.12	12455.75
473.33	12435.27
473.53	12545.86
473.74	12439.36
473.95	12609.34
474.16	12844.86
474.36	12842.81
474.57	12883.77
474.78	13156.15
474.99	12951.35
475.19	12926.78
475.40	13471.54
475.61	13289.27
475.81	13578.03
476.02	13598.51
476.23	13522.74
476.44	13537.07
476.64	13690.67
476.85	14073.64
477.06	13762.35
477.27	14208.81
477.47	14071.59
477.68	14251.81
477.89	14442.28
478.09	14491.43
478.30	14401.32
478.51	14841.63
478.71	14665.50
478.92	14667.55
479.13	14821.15
479.34	14872.35
479.54	15040.28
479.75	15013.66
479.96	15273.75
480.16	15370.01
480.37	15576.85
480.58	15693.58
480.78	15925.00
480.99	15548.18
481.20	15793.94
481.41	16058.12
481.61	15908.62
481.82	16103.18
482.03	16144.14
482.23	16215.82
482.44	16639.75
482.65	16619.27
482.85	16619.27
483.06	16748.29
483.27	16625.41
483.47	16838.40
483.68	16971.52
483.89	17037.05
484.09	17336.06
484.30	17356.54
484.51	17471.22
484.71	17192.70
484.92	17432.31
485.13	17792.75
485.33	17657.59
485.54	17684.21
485.75	18102.00
485.95	18235.11
486.16	18345.70
486.37	18314.98
486.57	18106.09
486.78	18439.91
486.98	18366.18
487.19	18439.91
487.40	18644.71
487.60	18796.26
487.81	18810.59
488.02	18747.11
488.22	18814.69
488.43	18996.96
488.64	19097.31
488.84	19316.44
489.05	19597.01
489.25	19351.26
489.46	19789.52
489.67	19433.18
489.87	19760.85
490.08	19807.95
490.29	19855.06
490.49	20561.61
490.70	20354.76
490.90	20432.58
491.11	20205.26
491.32	20293.32
491.52	20475.59
491.73	20463.30
491.94	20909.76
492.14	20696.77
492.35	20956.86
492.55	20821.70
492.76	21165.76
492.97	21272.25
493.17	21339.83
493.38	21397.18
493.58	21499.58
493.79	21669.56
494.00	21331.64
494.20	21409.47
494.41	22003.38
494.61	21896.88
494.82	21999.28
495.02	21968.56
495.23	22148.78
495.44	22462.12
495.64	22316.72
495.85	22523.56
496.05	22337.20
496.26	22480.55
496.47	22630.05
496.67	22648.49
496.88	22949.54
497.08	22689.45
497.29	23240.35
497.49	22845.09
497.70	23064.22
497.91	23381.66
498.11	23312.03
498.32	23436.95
498.52	23787.16
498.73	23676.57
498.93	23678.61
499.14	23731.86
499.34	24053.39
499.55	23991.95
499.76	24102.54
499.96	23869.08
500.17	23991.95
500.37	24225.42
500.58	24168.08
500.78	24041.11
500.99	24444.56
501.19	24524.43
501.40	24495.75
501.60	24682.12
501.81	24675.98
502.02	24755.85
502.22	24614.54
502.43	24802.95
502.63	24862.34
502.84	25112.19
503.04	25091.71
503.25	25192.06
503.45	24968.84
503.66	25388.67
503.86	25269.89
504.07	25687.67
504.27	25220.74
504.48	25566.84
504.68	25527.93
504.89	25869.94
505.09	25763.45
505.30	26070.64
505.50	26111.60
505.71	25927.28
505.91	26209.90
506.12	25984.63
506.32	26195.57
506.53	26052.21
506.73	26572.39
506.94	26687.08
507.14	26164.85
507.35	26728.04
507.55	26375.79
507.76	26611.31
507.96	26914.41
508.17	26807.91
508.37	26658.41
508.58	27010.66
508.78	26873.45
508.99	26687.08
509.19	27367.01
509.40	27078.24
509.60	27113.06
509.81	27260.51
510.01	27283.04
510.22	27399.77
510.42	27393.63
510.63	27657.82
510.83	27602.52
511.04	27520.60
511.24	27889.24
511.44	27623.00
511.65	27940.44
511.85	27999.83
512.06	27506.27
512.26	28003.92
512.47	28376.66
512.67	28077.65
512.88	27883.09
513.08	27915.86
513.29	28288.59
513.49	28307.02
513.69	28108.37
513.90	28218.96
514.10	28368.46
514.31	28276.30
514.51	28466.77
514.72	28223.06
514.92	28438.09
515.13	28624.46
515.33	28728.91
515.53	28704.33
515.74	28896.84
515.94	29314.62
516.15	29292.10
516.35	28644.94
516.56	28831.30
516.76	28874.31
516.96	29163.08
517.17	29492.80
517.37	29068.87
517.58	29443.65
517.78	29443.65
517.99	29668.92
518.19	29654.59
518.39	29912.63
518.60	29834.81
518.80	29838.90
519.01	29707.83
519.21	30191.16
519.41	30084.66
519.62	30123.57
519.82	30109.24
520.03	29992.50
520.23	30320.18
520.43	29806.14
520.64	30891.56
520.84	30801.45
521.05	30361.14
521.25	30672.43
521.45	30713.39
521.66	30998.06
521.86	30854.70
522.07	30707.24
522.27	31147.56
522.47	31215.14
522.68	31182.37
522.88	31430.18
523.08	31342.11
523.29	31340.07
523.49	31364.64
523.70	31270.43
523.90	31682.08
524.10	31786.52
524.31	31587.87
524.51	31346.21
524.71	32054.81
524.92	32015.90
525.12	32149.01
525.33	32067.09
525.53	32286.23
525.73	32349.71
525.94	32585.23
526.14	32392.72
526.34	32503.31
526.55	32906.76
526.75	32851.47
526.95	33162.76
527.16	33056.26
527.36	33105.41
527.56	33076.74
527.77	33146.37
527.97	33541.63
528.17	33052.17
528.38	33345.03
528.58	33551.87
528.78	33639.93
528.99	33594.88
529.19	33852.92
529.39	33992.19
529.60	34072.06
529.80	34317.81
530.00	34164.21
530.21	34303.48
530.41	34678.25
530.61	34321.91
530.82	34469.36
531.02	34584.05
531.22	34704.88
531.43	34332.15
531.63	34903.53
531.83	35165.67
532.04	35188.20
532.24	34960.87
532.44	35501.54
532.64	35345.89
532.85	35423.72
533.05	35542.50
533.25	35198.44
533.46	35818.97
533.66	36027.87
533.86	35661.28
534.07	36046.30
534.27	35909.08
534.47	36177.37
534.67	36560.34
534.88	35993.05
535.08	36275.67
535.28	36621.78
535.49	36431.32
535.69	36955.60
535.89	36865.49
536.09	37037.51
536.30	37221.83
536.50	37256.65
536.70	37350.85
536.91	37357.00
537.11	37492.16
537.31	37930.43
537.51	37397.96
537.72	37918.14
537.92	37932.48
538.12	38510.00
538.32	37807.55
538.53	38245.82
538.73	37914.05
538.93	38094.27
539.13	38311.35
539.34	38538.68
539.54	38352.31
539.74	38651.31
539.94	38608.31
540.15	38706.61
540.35	38819.25
540.55	38716.85
540.75	38958.51
540.96	39284.14
541.16	39019.95
541.36	39212.46
541.56	38958.51
541.77	39134.63
541.97	39413.16
542.17	39318.95
542.37	39196.07
542.58	39245.23
542.78	39345.58
542.98	39302.57
543.18	40084.89
543.38	39822.75
543.59	40365.46
543.79	39992.73
543.99	39859.62
544.19	40289.69
544.40	40328.60
544.60	40426.90
544.80	40279.45
545.00	40799.63
545.20	40777.11
545.41	40334.74
545.61	40760.72
545.81	40877.46
546.01	41104.78
546.21	40852.88
546.42	40809.87
546.62	40838.54
546.82	40783.25
547.02	40953.23
547.22	41436.55
547.43	41188.75
547.63	41285.00
547.83	41299.34
548.03	41143.69
548.23	41424.26
548.44	41559.43
548.64	41700.74
548.84	41366.92
549.04	41938.30
549.24	41706.88
549.45	42227.07
549.65	41530.76
549.85	41919.87
550.05	42296.70
550.25	42302.84
550.45	42677.62
550.66	42239.36
550.86	42108.29
551.06	42728.82
551.26	42599.80
551.46	42491.26
551.66	42343.80
551.87	42556.79
552.07	42710.39
552.27	43117.93
552.47	42917.23
552.67	43072.88
552.87	42634.61
553.07	42855.79
553.28	42986.86
553.48	43267.44
553.68	43173.23
553.88	43375.98
554.08	43246.96
554.28	43111.79
554.48	43126.13
554.69	43435.37
554.89	43476.33
555.09	43142.51
555.29	43169.13
555.49	43810.15
555.69	43570.54
555.89	43566.44
556.10	43920.74
556.30	43099.50
556.50	43574.63
556.70	43826.53
556.90	44094.82
557.10	43926.88
557.30	43642.21
557.50	43951.46
557.70	44240.22
557.91	44004.70
558.11	44270.94
558.31	44668.25
558.51	44086.62
558.71	43906.40
558.91	44582.23
559.11	44332.38
559.31	44547.42
559.51	44209.50
559.72	44739.93
559.92	44477.79
560.12	44354.91
560.32	44404.06
560.52	44412.25
560.72	45131.09
560.92	44799.32
561.12	44551.51
561.32	45286.73
561.52	44455.26
561.72	44817.75
561.93	44760.40
562.13	44768.60
562.33	44225.89
562.53	45421.90
562.73	44893.52
562.93	45235.53
563.13	44899.67
563.33	45057.36
563.53	45249.87
563.73	44885.33
563.93	44916.05
564.13	45919.56
564.33	45247.82
564.53	45456.71
564.74	45585.74
564.94	45299.02
565.14	45538.63
565.34	45096.27
565.54	45319.50
565.74	45686.09
565.94	45712.71
566.14	45536.59
566.34	45499.72
566.54	45798.73
566.74	45530.44
566.94	45784.39
567.14	45944.13
567.34	45776.20
567.54	45952.32
567.74	45624.65
567.94	45704.52
568.14	45796.68
568.34	46198.08
568.54	46157.12
568.74	46425.40
568.94	45958.47
569.14	46187.84
569.34	46626.10
569.54	46779.70
569.75	46064.96
569.95	46292.29
570.15	46509.37
570.35	46732.60
570.55	46576.95
570.75	46355.77
570.95	46740.79
571.15	46587.19
571.35	46601.53
571.55	47019.31
571.75	46753.08
571.95	47011.12
572.15	46820.66
572.35	47449.39
572.55	46841.14
572.75	47068.47
572.95	47185.20
573.15	47410.48
573.35	47072.56
573.55	46472.51
573.75	47248.69
573.95	47490.35
574.15	47412.52
574.35	47174.96
574.55	47648.04
574.75	47770.92
574.95	47609.13
575.15	47084.85
575.34	47344.94
575.54	47645.99
575.74	47621.42
575.94	47963.43
576.14	47293.74
576.34	48100.64
576.54	47818.02
576.74	48278.82
576.94	47779.11
577.14	47707.43
577.34	48387.36
577.54	47666.47
577.74	48416.03
577.94	48473.37
578.14	48620.83
578.34	48608.54
578.54	47895.85
578.74	48258.34
578.94	48387.36
579.14	48387.36
579.34	48448.80
579.54	48839.96
579.74	49249.55
579.94	48991.51
580.13	48538.91
580.33	49014.04
580.53	49077.52
580.73	49028.37
580.93	48665.88
581.13	48987.41
581.33	49267.98
581.53	49349.90
581.73	48796.95
581.93	49509.64
582.13	49360.14
582.33	49534.22
582.53	49401.10
582.73	49351.95
582.92	49526.03
583.12	49665.29
583.32	49724.68
583.52	49444.11
583.72	49685.77
583.92	49675.53
584.12	49786.12
584.32	50238.72
584.52	49689.87
584.72	50117.89
584.92	50089.22
585.11	50468.09
585.31	50504.96
585.51	50353.41
585.71	50296.06
585.91	50660.60
586.11	50230.53
586.31	50443.52
586.51	50693.37
586.71	50597.12
586.91	50763.00
587.10	50941.17
587.30	50480.38
587.50	50785.53
587.70	50803.96
587.90	51205.36
588.10	50961.65
588.30	50908.41
588.50	51262.71
588.69	50965.75
588.89	51127.54
589.09	51231.99
589.29	51301.62
589.49	51318.00
589.69	51008.76
589.89	51563.76
590.08	51211.51
590.28	51029.24
590.48	51461.36
590.68	51797.23
590.88	51676.40
591.08	51307.76
591.28	51150.07
591.47	51891.43
591.67	51733.74
591.87	51621.10
592.07	51870.95
592.27	52227.30
592.47	51789.03
592.67	51987.69
592.86	51930.34
593.06	52114.66
593.26	51926.25
593.46	52276.45
593.66	52104.42
593.86	52280.55
594.05	52108.52
594.25	52403.42
594.45	52139.24
594.65	52405.47
594.85	51805.42
595.05	52497.63
595.24	52616.41
595.44	52511.97
595.64	52487.39
595.84	52567.26
596.04	53144.79
596.23	53122.26
596.43	52524.25
596.63	53130.45
596.83	52778.20
597.03	53320.91
597.22	53089.49
597.42	53195.99
597.62	53159.12
597.82	53877.96
598.02	53259.48
598.21	53368.02
598.41	53505.23
598.61	53517.52
598.81	53300.43
599.01	53296.34
599.20	53433.55
599.40	53679.31
599.60	53365.97
599.80	53982.41
600.00	54039.75
600.19	53820.62
600.39	53912.78
600.59	54238.40
600.79	54082.76
600.98	53943.50
601.18	54109.38
601.38	54441.15
601.58	54099.14
601.78	54574.27
601.97	54193.35
602.17	54791.36
602.37	54713.53
602.57	54637.76
602.76	55200.95
602.96	53904.59
603.16	55018.68
603.36	55104.70
603.55	55436.47
603.75	55063.74
603.95	54850.75
604.15	55092.41
604.34	54443.20
604.54	55305.40
604.74	55227.57
604.94	55362.74
605.13	55317.68
605.33	55194.81
605.53	55012.54
605.73	55559.34
605.92	55620.78
606.12	55643.31
606.32	55743.66
606.52	55499.95
606.71	54983.86
606.91	55784.62
607.11	55588.02
607.30	55702.70
607.50	55940.27
607.70	56212.65
607.90	55796.91
608.09	55880.88
608.29	55702.70
608.49	56079.53
608.68	55844.01
608.88	56126.63
609.08	55923.88
609.28	56448.16
609.47	55895.21
609.67	56399.01
609.87	56571.04
610.06	56278.18
610.26	56618.14
610.46	56345.76
610.66	56272.04
610.85	56427.68
611.05	56143.02
611.25	56390.82
611.44	56300.71
611.64	56448.16
611.84	56442.02
612.03	56407.20
612.23	56745.12
612.43	56556.70
612.62	56509.60
612.82	56661.15
613.02	56366.24
613.21	56642.72
613.41	56202.41
613.61	56632.48
613.80	56325.28
614.00	56763.55
614.20	57029.79
614.39	56396.96
614.59	56845.47
614.79	56976.54
614.98	56573.09
615.18	56655.01
615.38	56695.97
615.57	56630.43
615.77	57040.03
615.97	57068.70
616.16	56927.39
616.36	56999.07
616.56	57080.98
616.75	56808.61
616.95	56341.67
617.15	56474.79
617.34	57070.75
617.54	56523.94
617.74	56960.15
617.93	57242.77
618.13	56464.55
618.32	56546.47
618.52	57068.70
618.72	56913.05
618.91	57420.95
619.11	56515.75
619.31	57009.31
619.50	56562.85
619.70	56876.19
619.90	56833.18
620.09	56872.09
620.29	56566.94
620.48	56515.75
620.68	57248.92
620.88	56824.99
621.07	56456.35
621.27	56669.34
621.46	56308.90
621.66	56655.01
621.86	56698.01
622.05	56482.98
622.25	57017.50
622.44	56730.78
622.64	56444.07
622.84	56781.98
623.03	56349.86
623.23	56673.44
623.42	56628.38
623.62	56882.33
623.82	57144.47
624.01	56771.74
624.21	57332.89
624.40	56800.41
624.60	56843.42
624.80	56743.07
624.99	56472.74
625.19	56575.14
625.38	56499.36
625.58	56583.33
625.77	56904.86
625.97	56693.92
626.17	56753.31
626.36	57177.24
626.56	56878.24
626.75	56325.28
626.95	56548.51
627.14	56638.62
627.34	56951.96
627.54	56661.15
627.73	57007.26
627.93	57111.70
628.12	56489.12
628.32	56857.76
628.51	56505.51
628.71	56425.64
628.90	57013.40
629.10	56984.73
629.30	57029.79
629.49	56790.17
629.69	56583.33
629.88	56984.73
630.08	57111.70
630.27	56902.81
630.47	57011.35
630.66	57177.24
630.86	56691.87
631.05	56501.41
631.25	57234.58
631.44	56949.92
631.64	56677.54
631.84	57212.06
632.03	57437.33
632.23	56571.04
632.42	57173.14
632.62	57484.43
632.81	57007.26
633.01	56761.50
633.20	57183.38
633.40	57414.80
633.59	56886.43
633.79	56812.70
633.98	57050.27
634.18	57062.55
634.37	57466.00
634.57	57123.99
634.76	57398.42
634.96	57121.94
635.15	57160.86
635.35	56878.24
635.54	56958.11
635.74	57431.19
635.93	56337.57
636.13	57300.12
636.32	57609.36
636.52	56939.68
636.71	57310.36
636.91	57455.76
637.10	57406.61
637.30	56915.10
637.49	57234.58
637.69	57199.77
637.88	57689.23
638.08	57179.29
638.27	57789.58
638.46	57123.99
638.66	56900.76
638.85	57263.25
639.05	57556.11
639.24	57699.47
639.44	57185.43
639.63	57279.64
639.83	57638.03
640.02	57353.36
640.22	57121.94
640.41	57980.04
640.61	57130.14
640.80	57824.40
640.99	57316.50
641.19	57816.21
641.38	57531.54
641.58	57681.04
641.77	57097.37
641.97	57408.66
642.16	57609.36
642.36	57760.91
642.55	58104.97
642.74	57021.59
642.94	58031.24
643.13	56980.63
643.33	57681.04
643.52	58274.95
643.72	57781.39
643.91	57717.90
644.10	57857.17
644.30	58152.07
644.49	57676.94
644.69	58074.25
644.88	58025.10
645.08	57547.92
645.27	57504.91
645.46	57734.29
645.66	57922.70
645.85	57504.91
646.05	58307.72
646.24	57920.65
646.43	58033.29
646.63	58274.95
646.82	57797.77
647.02	58100.87
647.21	58098.83
647.40	58221.70
647.60	58305.67
647.79	58277.00
647.99	58307.72
648.18	57728.14
648.37	58266.76
648.57	58252.42
648.76	58498.18
648.96	58207.37
649.15	58021.00
649.34	58608.77
649.54	58510.47
649.73	57517.20
649.92	58395.78
650.12	58021.00
650.31	58446.98
650.51	58692.74
650.70	58825.85
650.89	58561.67
651.09	58999.93
651.28	58416.26
651.47	58733.70
651.67	58745.98
651.86	58639.49
652.06	57990.28
652.25	58528.90
652.44	58721.41
652.64	58381.45
652.83	58018.95
653.02	58152.07
653.22	58799.23
653.41	58041.48
653.60	58463.36
653.80	58723.46
653.99	58782.85
654.18	58696.83
654.38	58418.31
654.57	58653.82
654.76	58549.38
654.96	58866.81
655.15	58494.08
655.34	58360.97
655.54	58342.53
655.73	58514.56
655.92	58778.75
656.12	58965.12
656.31	58385.54
656.50	58629.25
656.70	58655.87
656.89	58774.66
657.08	58987.64
657.28	58619.01
657.47	58778.75
657.66	58872.96
657.86	58526.85
658.05	58674.30
658.24	58799.23
658.43	58827.90
658.63	58778.75
658.82	58948.73
659.01	58872.96
659.21	58367.11
659.40	58893.44
659.59	58682.50
659.79	58817.66
659.98	58877.05
660.17	58625.15
660.36	58924.16
660.56	58745.98
660.75	58975.36
660.94	59180.15
661.14	58971.26
661.33	58983.55
661.52	58758.27
661.71	59260.02
661.91	58700.93
662.10	58801.28
662.29	59204.73
662.49	59028.60
662.68	58702.98
662.87	59227.26
663.06	58598.53
663.26	59053.18
663.45	59262.07
663.64	58686.59
663.83	58930.30
664.03	58930.30
664.22	59077.75
664.41	58913.92
664.60	59118.71
664.80	58926.20
664.99	58430.60
665.18	58924.16
665.37	58977.40
665.57	58948.73
665.76	58608.77
665.95	59085.95
666.14	58539.14
666.34	58801.28
666.53	58625.15
666.72	58872.96
666.91	58762.37
667.11	59006.08
667.30	58705.02
667.49	59350.13
667.68	58514.56
667.87	58799.23
668.07	58827.90
668.26	59051.13
668.45	58918.01
668.64	58535.04
668.84	59757.68
669.03	59245.69
669.22	58764.42
669.41	58784.90
669.60	58754.18
669.80	58684.54
669.99	59303.03
670.18	59057.27
670.37	58780.80
670.57	59165.82
670.76	59112.57
670.95	59186.30
671.14	58842.24
671.33	58520.71
671.53	59294.84
671.72	59012.22
671.91	58979.45
672.10	58694.78
672.29	59047.04
672.48	58786.94
672.68	59077.75
672.87	59004.03
673.06	58834.05
673.25	58748.03
673.44	58758.27
673.64	58770.56
673.83	58823.81
674.02	58748.03
674.21	58348.68
674.40	58844.29
674.59	58692.74
674.79	58786.94
674.98	58479.75
675.17	58713.22
675.36	58487.94
675.55	58698.88
675.74	58512.52
675.94	58735.74
676.13	58911.87
676.32	58872.96
676.51	59004.03
676.70	58756.22
676.89	58715.26
677.08	58864.77
677.28	58596.48
677.47	59065.47
677.66	59032.70
677.85	58954.88
678.04	58803.33
678.23	58506.37
678.42	58782.85
678.62	58987.64
678.81	58969.21
679.00	58604.67
679.19	59049.08
679.38	58530.95
679.57	58537.09
679.76	58795.13
679.96	58895.49
680.15	58434.69
680.34	58289.29
680.53	58614.91
680.72	59317.37
680.91	58696.83
681.10	58627.20
681.29	58780.80
681.48	58586.24
681.68	58760.32
681.87	58487.94
682.06	58803.33
682.25	58135.69
682.44	58219.66
682.63	58612.87
682.82	58221.70
683.01	58463.36
683.20	57902.22
683.39	58295.43
683.59	58061.96
683.78	58125.45
683.97	58094.73
684.16	58324.10
684.35	57750.67
684.54	57951.37
684.73	57984.14
684.92	57767.05
685.11	58004.62
685.30	57746.57
685.49	58172.55
685.69	57349.27
685.88	57980.04
686.07	57996.43
686.26	57672.85
686.45	58057.87
686.64	58066.06
686.83	57951.37
687.02	58332.29
687.21	57939.08
687.40	57742.48
687.59	57896.08
687.78	57570.45
687.97	57992.33
688.16	57765.01
688.35	58012.81
688.54	57592.98
688.74	57787.53
688.93	57500.82
689.12	57420.95
689.31	57785.49
689.50	57754.77
689.69	57363.60
689.88	57195.67
690.07	57726.10
690.26	57695.38
690.45	58029.19
690.64	57312.41
690.83	57095.32
691.02	57212.06
691.21	57289.88
691.40	56978.59
691.59	57476.24
691.78	56890.52
691.97	57259.16
692.16	57222.29
692.35	57535.63
692.54	57341.08
692.73	57449.62
692.92	57060.51
693.11	56958.11
693.30	57083.03
693.49	57687.18
693.68	57373.84
693.87	56988.83
694.06	57042.07
694.25	56734.88
694.44	56958.11
694.63	57054.36
694.82	57212.06
695.01	57115.80
695.20	56638.62
695.39	57273.49
695.58	56724.64
695.77	56403.11
695.96	56853.66
696.15	56534.18
696.34	56816.80
696.53	57066.65
696.72	56925.34
696.91	56765.60
697.10	56644.77
697.29	56431.78
697.48	56935.58
697.67	56609.95
697.86	56640.67
698.05	56169.64
698.24	56650.91
698.43	56075.43
698.62	56362.15
698.81	55936.17
699.00	56517.79
699.19	55811.24
699.38	56198.31
699.57	55743.66
699.76	56876.19
699.95	56040.62
700.14	56114.34
700.32	56054.95
700.51	56026.28
700.70	56128.68
700.89	56333.48
701.08	56573.09
701.27	55821.48
701.46	56370.34
701.65	55731.37
701.84	56106.15
702.03	56136.87
702.22	55192.76
702.41	55588.02
702.60	55817.39
702.79	55891.12
702.98	55651.50
703.17	55817.39
703.35	55235.77
703.54	55616.69
703.73	55499.95
703.92	55604.40
704.11	55899.31
704.30	55514.29
704.49	55342.26
704.68	55309.49
704.87	55342.26
705.06	55235.77
705.25	55268.53
705.43	55231.67
705.62	55477.43
705.81	55383.22
706.00	55225.53
706.19	55157.94
706.38	55059.64
706.57	54908.09
706.76	54654.14
706.95	54967.48
707.14	55342.26
707.32	54928.57
707.51	54795.45
707.70	54557.89
707.89	55194.81
708.08	54490.30
708.27	54924.47
708.46	55575.73
708.65	54721.72
708.84	55082.17
709.02	54893.75
709.21	55045.30
709.40	54598.85
709.59	54615.23
709.78	54572.22
709.97	55051.45
710.16	54189.25
710.34	54629.57
710.53	54566.08
710.72	54387.91
710.91	54490.30
711.10	54340.80
711.29	54957.24
711.48	54549.70
711.66	53976.26
711.85	53957.83
712.04	54254.79
712.23	54086.85
712.42	53998.79
712.61	53959.88
712.80	54019.27
712.98	54230.21
713.17	53664.97
713.36	54047.94
713.55	54123.72
713.74	53974.22
713.93	54154.44
714.11	54195.40
714.30	53736.65
714.49	53417.17
714.68	53791.95
714.87	54168.77
715.06	54318.28
715.24	53308.63
715.43	53888.20
715.62	53599.44
715.81	53552.33
716.00	53523.66
716.18	53322.96
716.37	53429.46
716.56	53269.72
716.75	53783.76
716.94	53654.73
717.12	53187.80
717.31	53435.60
717.50	53275.86
717.69	53761.23
717.88	52888.79
718.06	53261.52
718.25	53187.80
718.44	52694.24
718.63	52815.07
718.82	53093.59
719.00	52847.83
719.19	52851.93
719.38	52616.41
719.57	52487.39
719.76	52081.89
719.94	52233.44
720.13	52241.63
720.32	52346.08
720.51	52528.35
720.69	52286.69
720.88	52370.66
721.07	52255.97
721.26	51741.93
721.44	51676.40
721.63	52346.08
721.82	51721.45
722.01	52282.59
722.20	52022.50
722.38	51561.71
722.57	51115.25
722.76	51713.26
722.95	51526.89
723.13	51326.19
723.32	51369.20
723.51	51389.68
723.70	51059.96
723.88	51016.95
724.07	50810.10
724.26	51070.20
724.44	50814.20
724.63	51266.80
724.82	51164.40
725.01	51195.12
725.19	50765.05
725.38	50642.17
725.57	50595.07
725.76	51074.29
725.94	50855.16
726.13	50787.58
726.32	50562.30
726.51	50609.40
726.69	50765.05
726.88	51053.81
727.07	50797.82
727.25	50959.61
727.44	51158.26
727.63	50740.47
727.82	50599.16
728.00	51113.20
728.19	50781.43
728.38	50765.05
728.56	50060.55
728.75	50801.91
728.94	50281.73
729.12	50394.37
729.31	50623.74
729.50	50584.83
729.69	50294.02
729.87	50183.43
730.06	50296.06
730.25	50535.68
730.43	51016.95
730.62	50074.88
730.81	50523.39
730.99	50629.88
731.18	50042.12
731.37	50584.83
731.55	50758.91
731.74	50730.23
731.93	50408.70
732.11	50500.86
732.30	50744.57
732.49	50375.94
732.67	50464.00
732.86	50263.30
733.05	50304.26
733.23	49909.00
733.42	50228.48
733.61	50275.58
733.79	50328.83
733.98	50975.99
734.17	50261.25
734.35	49868.04
734.54	50056.45
734.73	50017.54
734.91	50042.12
735.10	50017.54
735.29	50132.23
735.47	49431.82
735.66	49837.32
735.84	50001.16
736.03	49741.06
736.22	49775.88
736.40	49564.94
736.59	49818.89
736.78	49804.55
736.96	49585.42
737.15	49902.85
737.33	49736.97
737.52	49603.85
737.71	49857.80
737.89	49599.76
738.08	49347.86
738.27	49474.83
738.45	49804.55
738.64	49315.09
738.82	49491.21
739.01	49640.71
739.20	49515.79
739.38	49354.00
739.57	50025.73
739.75	49767.69
739.94	49298.70
740.13	49427.73
740.31	49409.29
740.50	49460.49
740.68	49505.55
740.87	49108.24
741.06	49384.72
741.24	49204.50
741.43	48801.05
741.61	49470.73
741.80	48831.77
741.99	48669.98
742.17	48719.13
742.36	49112.34
742.54	48637.21
742.73	48608.54
742.91	48801.05
743.10	48966.93
743.29	49231.12
743.47	48772.38
743.66	48792.86
743.84	48923.93
744.03	48862.49
744.21	48725.27
744.40	49001.75
744.59	48700.70
744.77	49014.04
744.96	48669.98
745.14	48282.91
745.33	48424.22
745.51	48215.33
745.70	48770.33
745.88	48088.35
746.07	48551.20
746.26	48047.39
746.44	48028.96
746.63	48477.47
746.81	48323.87
747.00	47863.08
747.18	48231.71
747.37	48182.56
747.55	48424.22
747.74	48403.74
747.92	47840.55
748.11	47891.75
748.29	47863.08
748.48	48004.39
748.66	47965.48
748.85	47963.43
749.03	48069.92
749.22	48264.48
749.41	47832.36
749.59	48153.89
749.78	47543.59
749.96	47365.42
750.15	47764.78
750.33	47469.87
750.52	48012.58
750.70	47609.13
750.89	47297.84
751.07	47408.43
751.26	47519.02
751.44	47242.54
751.63	47185.20
751.81	47031.60
752.00	47371.57
752.18	47643.94
752.37	47152.43
752.55	47158.58
752.74	47166.77
752.92	47078.71
753.10	47203.63
753.29	47392.04
753.47	46748.98
753.66	46464.32
753.84	46861.62
754.03	47017.27
754.21	46140.74
754.40	47054.13
754.58	46871.86
754.77	47117.62
754.95	46724.41
755.14	46662.97
755.32	46560.57
755.51	46751.03
755.69	46454.08
755.88	46708.02
756.06	46687.54
756.24	46548.28
756.43	46550.33
756.61	46384.44
756.80	46544.19
756.98	46056.77
757.17	46236.99
757.35	46208.32
757.54	46210.37
757.72	46523.71
757.90	46239.04
758.09	45876.55
758.27	46130.50
758.46	45704.52
758.64	45933.89
758.83	46286.14
759.01	45765.96
759.19	46013.76
759.38	45645.13
759.56	46415.16
759.75	45727.05
759.93	45759.81
760.12	45593.93
760.30	45528.39
760.48	45622.60
760.67	45798.73
760.85	45552.97
761.04	45765.96
761.22	45825.35
761.40	45604.17
761.59	45323.60
761.77	45040.98
761.96	45503.82
762.14	45184.33
762.32	44903.76
762.51	45104.46
762.69	45518.15
762.88	45284.68
763.06	45335.88
763.24	45213.01
763.43	45274.45
763.61	44733.78
763.80	44928.34
763.98	45165.90
764.16	44703.06
764.35	44604.76
764.53	44291.42
764.72	44647.77
764.90	44672.34
765.08	44385.63
765.27	44356.96
765.45	44438.87
765.63	44137.82
765.82	44385.63
766.00	44125.53
766.18	44434.78
766.37	44451.16
766.55	44242.27
766.74	44002.66
766.92	44045.66
767.10	44043.62
767.29	43771.24
767.47	43943.27
767.65	44016.99
767.84	43748.71
768.02	44123.49
768.20	43418.99
768.39	43722.08
768.57	43677.03
768.75	43253.10
768.94	43601.25
769.12	43570.54
769.30	43326.83
769.49	43461.99
769.67	43079.02
769.85	42698.10
770.04	43441.51
770.22	43242.86
770.40	43066.73
770.59	42868.08
770.77	43402.60
770.95	43179.37
771.14	43068.78
771.32	42528.12
771.50	42843.51
771.69	42954.10
771.87	42575.22
772.05	42931.57
772.24	42472.82
772.42	42831.22
772.60	42562.93
772.78	42370.43
772.97	42599.80
773.15	43044.21
773.33	42452.34
773.52	42454.39
773.70	42390.91
773.88	42943.86
774.07	42669.43
774.25	42261.88
774.43	42618.23
774.61	42497.40
774.80	42904.95
774.98	42554.74
775.16	42589.56
775.34	42866.03
775.53	42284.41
775.71	43087.21
775.89	42612.09
776.08	42677.62
776.26	42403.19
776.44	42288.51
776.62	42507.64
776.81	41946.50
776.99	42775.92
777.17	42478.97
777.35	42771.83
777.54	42564.98
777.72	42481.02
777.90	42577.27
778.08	42884.47
778.27	42894.71
778.45	42870.13
778.63	43353.45
778.81	42917.23
779.00	43300.20
779.18	42593.65
779.36	43464.04
779.54	42931.57
779.73	42784.12
779.91	43068.78
780.09	42993.01
780.27	43267.44
780.46	43132.27
780.64	43320.68
780.82	43009.39
781.00	42554.74
781.19	43720.04
781.37	43242.86
781.55	43570.54
781.73	43738.47
781.91	43423.08
782.10	43263.34
782.28	42976.62
782.46	42925.42
782.64	43550.06
782.82	43353.45
783.01	43513.19
783.19	43476.33
783.37	43398.51
783.55	43404.65
783.74	43533.67
783.92	43398.51
784.10	43861.35
784.28	43001.20
784.46	43224.43
784.64	43001.20
784.83	43269.48
785.01	43734.37
785.19	43486.57
785.37	43312.49
785.55	43324.78
785.74	43117.93
785.92	43369.83
786.10	43423.08
786.28	43421.03
786.46	43490.66
786.64	43025.78
786.83	43038.06
787.01	43367.79
787.19	43222.38
787.37	43240.81
787.55	43285.87
787.74	42272.12
787.92	42700.15
788.10	42900.85
788.28	42603.89
788.46	42849.65
788.64	42505.59
788.82	42669.43
789.01	42655.09
789.19	42794.36
789.37	42442.10
789.55	42096.00
789.73	42294.65
789.91	42096.00
790.09	41866.63
790.28	41840.00
790.46	42239.36
790.64	42333.56
790.82	42034.56
791.00	41819.52
791.18	41708.93
791.36	41780.61
791.55	41926.02
791.73	41645.44
791.91	41377.16
792.09	41538.95
792.27	41803.14
792.45	41721.22
792.63	42001.79
792.81	41266.57
793.00	41393.54
793.18	41282.95
793.36	40795.54
793.54	40895.89
793.72	40889.74
793.90	40871.31
794.08	40897.94
794.26	40885.65
794.44	40418.71
794.62	40011.17
794.81	40439.19
794.99	40523.16
795.17	40371.61
795.35	39953.82
795.53	40031.65
795.71	40088.99
795.89	39691.68
796.07	39990.69
796.25	39691.68
796.43	39525.80
796.61	39482.79
796.80	39476.65
796.98	39437.73
797.16	39161.26
797.34	39486.89
797.52	39470.50
797.70	39112.11
797.88	39321.00
798.06	38550.96
798.24	38919.60
798.42	38708.66
798.60	38645.17
798.78	38423.99
798.96	38577.59
799.14	38311.35
799.32	38864.30
799.51	38096.31
799.69	38430.13
799.87	38286.78
800.05	38239.67
800.23	37983.68
800.41	37955.00
800.59	37834.17
800.77	37701.06
800.95	37379.53
801.13	37746.11
801.31	37346.76
801.49	37373.38
801.67	37266.89
801.85	37416.39
802.03	37074.38
802.21	36795.85
802.39	36904.40
802.57	36918.73
802.75	36701.65
802.93	36906.44
803.11	36677.07
803.29	36746.70
803.47	36330.97
803.65	36369.88
803.83	36558.29
804.01	36255.19
804.19	35888.60
804.37	36230.62
804.55	36097.50
804.73	36034.01
804.91	35849.69
805.09	35960.28
805.27	35632.61
805.45	35929.56
805.63	36169.18
805.81	35640.80
805.99	35829.21
806.17	35378.66
806.35	35630.56
806.53	35306.98
806.71	35202.53
806.89	35585.50
807.07	34756.08
807.25	35087.85
807.43	35069.42
807.61	35374.56
807.79	35046.89
807.97	34764.27
808.15	34473.46
808.33	34129.40
808.51	34637.30
808.69	34655.73
808.87	34309.62
809.05	34461.17
809.23	34289.14
809.41	34059.77
809.59	34119.16
809.77	34215.41
809.95	33977.85
810.13	34184.69
810.31	33865.21
810.49	33859.07
810.67	33816.06
810.84	34151.93
811.02	33725.95
811.20	33422.85
811.38	33728.00
811.56	33242.63
811.74	33302.02
811.92	33332.74
812.10	33502.72
812.28	33377.79
812.46	32900.62
812.64	33027.59
812.82	32830.99
813.00	33285.64
813.18	32828.94
813.36	33066.50
813.53	32675.34
813.71	32499.22
813.89	32699.92
814.07	32687.63
814.25	32574.99
814.43	32466.45
814.61	32224.79
814.79	32714.25
814.97	32177.68
815.15	32661.01
815.33	31819.29
815.50	31737.37
815.68	32394.77
815.86	32222.74
816.04	32069.14
816.22	31708.70
816.40	31884.83
816.58	31989.27
816.76	31272.48
816.94	31819.29
817.11	31620.64
817.29	31686.17
817.47	31159.84
817.65	31229.48
817.83	31389.22
818.01	31075.88
818.19	31383.07
818.37	31063.59
818.54	30850.60
818.72	30735.92
818.90	30946.86
819.08	30852.65
819.26	31282.72
819.44	30684.72
819.62	30770.73
819.80	30838.31
819.97	30881.32
820.15	30854.70
820.33	30455.34
820.51	30778.92
820.69	30402.10
820.87	30404.14
821.05	30727.72
821.22	30565.93
821.40	30674.48
821.58	30375.47
821.76	30211.64
821.94	29916.73
822.12	30377.52
822.29	30248.50
822.47	29990.45
822.65	30434.86
822.83	30076.47
823.01	29953.59
823.19	30000.69
823.36	29951.54
823.54	29730.36
823.72	29414.98
823.90	29623.87
824.08	29578.81
824.25	29474.37
824.43	29371.97
824.61	29468.22
824.79	29363.78
824.97	29529.66
825.15	29668.92
825.32	29378.11
825.50	29173.31
825.68	29032.00
825.86	29402.69
826.04	29318.72
826.21	29140.55
826.39	29052.48
826.57	28812.87
826.75	29019.72
826.93	28450.38
827.10	28687.95
827.28	29032.00
827.46	28534.35
827.64	29158.98
827.81	28739.15
827.99	28806.73
828.17	28784.20
828.35	28577.36
828.53	28507.72
828.70	28472.91
828.88	28452.43
829.06	28689.99
829.24	28737.10
829.41	28001.88
829.59	28421.71
829.77	28186.19
829.95	28528.20
830.12	28051.03
830.30	28370.51
830.48	28141.14
830.66	28309.07
830.84	28192.34
831.01	28026.45
831.19	28089.94
831.37	27936.34
831.55	27911.77
831.72	27823.70
831.90	28001.88
832.08	27919.96
832.25	28120.66
832.43	28071.51
832.61	27496.03
832.79	27553.37
832.96	27313.76
833.14	27518.56
833.32	27612.76
833.50	27835.99
833.67	27240.03
833.85	27719.26
834.03	27682.39
834.20	27528.80
834.38	27620.95
834.56	27029.09
834.74	27330.14
834.91	27663.96
835.09	27235.94
835.27	27209.31
835.44	26893.93
835.62	26883.69
835.80	26969.70
835.98	26801.77
836.15	26809.96
836.33	26746.47
836.51	26965.60
836.68	26738.28
836.86	26859.11
837.04	26553.96
837.21	26752.62
837.39	26812.01
837.57	26938.98
837.75	26984.04
837.92	26476.14
838.10	26533.48
838.28	26207.86
838.45	26664.55
838.63	26242.67
838.81	26480.24
838.98	26252.91
839.16	26324.59
839.34	26412.65
839.51	26211.95
839.69	26177.14
839.87	26322.54
840.04	26177.14
840.22	26316.40
840.40	26226.29
840.57	25802.36
840.75	25966.20
840.93	25450.11
841.10	25857.65
841.28	25835.13
841.46	25947.76
841.63	25685.62
841.81	25482.88
841.98	25960.05
842.16	25886.32
842.34	25851.51
842.51	25894.52
842.69	25560.70
842.87	25562.75
843.04	25839.22
843.22	25441.92
843.40	25714.30
843.57	25511.55
843.75	25839.22
843.92	25794.17
844.10	25413.24
844.28	25523.83
844.45	25497.21
844.63	25579.13
844.81	25165.44
844.98	25206.40
845.16	24864.39
845.33	25187.97
845.51	25468.54
845.69	25052.80
845.86	25202.30
846.04	24663.69
846.21	24845.96
846.39	24925.83
846.57	25048.71
846.74	24921.73
846.92	24745.61
847.09	24716.93
847.27	24575.62
847.45	24954.50
847.62	24813.19
847.80	24800.90
847.97	24598.15
848.15	24446.60
848.32	24342.16
848.50	24473.23
848.68	24311.44
848.85	24606.34
849.03	24350.35
849.20	24565.39
849.38	24100.50
849.56	24366.73
849.73	24098.45
849.91	24364.68
850.08	24589.96
850.26	24108.69
850.43	24131.22
850.61	24016.53
850.78	24182.42
850.96	24112.78
851.14	23867.03
851.31	24186.51
851.49	24037.01
851.66	24057.49
851.84	24098.45
852.01	24090.26
852.19	24010.39
852.36	23635.61
852.54	23887.51
852.71	23965.33
852.89	23852.69
853.07	23781.01
853.24	23824.02
853.42	23623.32
853.59	23703.19
853.77	23963.28
853.94	23699.09
854.12	23748.25
854.29	23260.83
854.47	23649.94
854.64	23207.58
854.82	23393.95
854.99	23512.73
855.17	23326.36
855.34	23486.11
855.52	23283.36
855.69	23531.16
855.87	22965.92
856.04	23312.03
856.22	23238.30
856.39	23170.72
856.57	23330.46
856.74	23008.93
856.92	23109.28
857.09	23094.94
857.27	23332.51
857.44	23084.70
857.62	23234.21
857.79	22920.87
857.97	23086.75
858.14	22955.68
858.32	22875.81
858.49	22834.85
858.67	22791.84
858.84	22732.45
859.02	22902.43
859.19	22685.35
859.37	22535.85
859.54	22517.42
859.72	22800.04
859.89	22828.71
860.06	22699.69
860.24	22378.15
860.41	22597.29
860.59	22253.23
860.76	22810.28
860.94	22183.60
861.11	22513.32
861.29	22353.58
861.46	22304.43
861.64	22173.36
861.81	22267.56
861.98	22257.32
862.16	22085.30
862.33	21905.07
862.51	21986.99
862.68	22406.83
862.86	21939.89
863.03	21903.03
863.21	22091.44
863.38	22062.77
863.55	22236.84
863.73	21698.23
863.90	22007.47
864.08	21829.30
864.25	21657.27
864.43	21939.89
864.60	21692.08
864.77	21776.05
864.95	21724.85
865.12	21524.15
865.30	21571.25
865.47	21626.55
865.64	21667.51
865.82	21599.93
865.99	21673.65
866.17	21567.16
866.34	21216.96
866.51	21100.22
866.69	21495.48
866.86	21835.44
867.04	21434.04
867.21	21503.67
867.38	21229.24
867.56	20809.41
867.73	20989.63
867.91	21210.81
868.08	21231.29
868.25	20938.43
868.43	20985.54
868.60	20999.87
868.78	21096.13
868.95	21245.63
869.12	20872.90
869.30	20901.57
869.47	20885.19
869.64	20790.98
869.82	20764.36
869.99	20383.43
870.16	20836.03
870.34	20784.83
870.51	20604.61
870.69	20367.05
870.86	20596.42
871.03	20610.76
871.21	20307.66
871.38	20539.08
871.55	20485.83
871.73	20223.69
871.90	20235.98
872.07	20066.00
872.25	20326.09
872.42	20283.08
872.59	20100.81
872.77	20149.96
872.94	20037.33
873.11	19873.49
873.29	19853.01
873.46	19850.96
873.63	19963.60
873.81	19898.06
873.98	19691.22
874.15	19769.04
874.33	19680.98
874.50	19519.19
874.67	19648.21
874.85	19603.16
875.02	19578.58
875.19	19779.28
875.37	19566.29
875.54	19449.56
875.71	19369.69
875.88	19455.70
876.06	19433.18
876.23	19381.98
876.40	19074.78
876.58	18994.91
876.75	19332.82
876.92	19011.29
877.10	18992.86
877.27	19201.76
877.44	18884.32
877.61	18812.64
877.79	18869.98
877.96	18822.88
878.13	18663.14
878.31	18839.26
878.48	18589.41
878.65	18833.12
878.82	18677.48
879.00	19134.17
879.17	18767.59
879.34	18536.17
879.51	18319.08
879.69	18444.01
879.86	18480.87
880.03	18306.79
880.21	18314.98
880.38	18712.29
880.55	18349.80
880.72	18167.53
880.90	18319.08
881.07	18177.77
881.24	18226.92
881.41	18271.98
881.59	18224.87
881.76	18001.65
881.93	18032.36
882.10	18005.74
882.28	17997.55
882.45	18128.62
882.62	18116.33
882.79	18319.08
882.96	17716.98
883.14	17954.54
883.31	17968.88
883.48	17813.23
883.65	17987.31
883.83	18007.79
884.00	17833.71
884.17	17798.90
884.34	18114.28
884.51	17698.55
884.69	17587.96
884.86	17917.68
885.03	17549.04
885.20	17565.43
885.38	17497.84
885.55	17577.72
885.72	17573.62
885.89	17551.09
886.06	17669.87
886.24	17553.14
886.41	17530.61
886.58	17639.15
886.75	17438.45
886.92	17348.34
887.10	17612.53
887.27	17065.72
887.44	17403.64
887.61	17555.19
887.78	17241.85
887.95	17493.75
888.13	17037.05
888.30	16983.80
888.47	17026.81
888.64	17061.63
888.81	17032.96
888.99	16985.85
889.16	16854.78
889.33	16819.97
889.50	16846.59
889.67	16932.61
889.84	16742.14
890.01	16822.02
890.19	16658.18
890.36	16826.11
890.53	16758.53
890.70	16641.79
890.87	16834.30
891.04	16453.38
891.22	16490.24
891.39	16391.94
891.56	16426.76
891.73	16779.01
891.90	16408.33
892.07	16377.61
892.24	16527.11
892.42	16424.71
892.59	16482.05
892.76	16314.12
892.93	16193.29
893.10	16643.84
893.27	16561.92
893.44	16131.85
893.61	16221.96
893.79	16398.09
893.96	16232.20
894.13	16246.54
894.30	16277.26
894.47	16244.49
894.64	16152.33
894.81	16596.74
894.98	16051.98
895.15	16019.21
895.33	16068.36
895.50	16123.66
895.67	16279.30
895.84	16117.51
896.01	16039.69
896.18	16400.13
896.35	16291.59
896.52	15943.44
896.69	16099.08
896.86	16070.41
897.04	16101.13
897.21	16342.79
897.38	15843.09
897.55	16037.64
897.72	16289.54
897.89	15976.20
898.06	16150.28
898.23	15972.11
898.40	16072.46
898.57	16176.91
898.74	15994.64
898.91	16049.93
899.08	16033.55
899.26	16119.56
899.43	16027.40
899.60	15951.63
899.77	15959.82
899.94	15789.84
900.11	16064.27
900.28	15970.06
900.45	15877.90
900.62	15906.57
900.79	16152.33
900.96	15896.33
901.13	16094.99
901.30	15769.36
901.47	15908.62
901.64	15990.54
901.81	15748.88
901.98	15789.84
902.15	16109.32
902.32	15755.02
902.49	15869.71
902.66	15974.16
902.83	15963.92
903.01	15869.71
903.18	15765.26
903.35	15773.46
903.52	16111.37
903.69	15904.53
903.86	15826.70
904.03	15820.56
904.20	16209.67
904.37	16074.51
904.54	15697.68
904.71	15769.36
904.88	15795.98
905.05	15828.75
905.22	15691.54
905.39	15875.85
905.56	15855.37
905.73	15752.98
905.90	16056.08
906.07	15750.93
906.24	15855.37
906.41	15701.78
906.58	15783.70
906.75	15744.78
906.92	15656.72
907.09	15589.14
907.26	15935.24
907.43	15644.43
907.60	15539.99
907.77	15877.90
907.93	15865.61
908.10	15882.00
908.27	15843.09
908.44	15562.51
908.61	15523.60
908.78	15456.02
908.95	15822.61
909.12	15714.06
909.29	15636.24
909.46	15615.76
909.63	15683.34
909.80	15626.00
909.97	15470.36
910.14	15511.32
910.31	15621.91
910.48	15525.65
910.65	15636.24
910.82	15623.95
910.99	15521.56
911.16	15337.24
911.33	15283.99
911.50	15468.31
911.66	15222.55
911.83	15548.18
912.00	15228.70
912.17	15167.26
912.34	15353.62
912.51	15224.60
912.68	15163.16
912.85	15159.06
913.02	15173.40
913.19	15212.31
913.36	15308.57
913.53	15314.71
913.70	14970.65
913.86	15130.39
914.03	15320.85
914.20	15200.02
914.37	15085.34
914.54	14987.04
914.71	14948.12
914.88	14804.77
915.05	14788.38
915.22	14780.19
915.39	14868.25
915.55	14776.09
915.72	14733.09
915.89	14659.36
916.06	14544.67
916.23	14434.08
916.40	14667.55
916.57	14542.63
916.74	14391.08
916.91	14536.48
917.07	14614.30
917.24	14380.84
917.41	14497.57
917.58	14378.79
917.75	14446.37
917.92	14137.13
918.09	14212.90
918.26	14077.74
918.42	14221.10
918.59	14352.16
918.76	14073.64
918.93	13981.48
919.10	14001.96
919.27	14040.87
919.44	13969.19
919.60	13836.08
919.77	13840.17
919.94	13823.79
920.11	13780.78
920.28	13805.36
920.45	13852.46
920.61	13600.56
920.78	13506.35
920.95	13563.70
921.12	13526.83
921.29	13319.99
921.46	13315.89
921.62	13225.78
921.79	13532.98
921.96	13313.84
922.13	13403.96
922.30	13250.36
922.47	13240.12
922.63	13137.72
922.80	13186.87
922.97	13164.34
923.14	13074.23
923.31	12926.78
923.47	12832.57
923.64	13080.38
923.81	12808.00
923.98	12750.65
924.15	12504.90
924.32	12764.99
924.48	12726.08
924.65	12728.13
924.82	12492.61
924.99	12375.88
925.15	12160.84
925.32	12533.57
925.49	12408.64
925.66	12377.92
925.83	12078.92
925.99	12195.65
926.16	12220.23
926.33	12283.72
926.50	11894.60
926.67	11956.04
926.83	11919.18
927.00	12021.58
927.17	11999.05
927.34	11794.25
927.50	11700.05
927.67	12037.96
927.84	11790.16
928.01	11667.28
928.17	11540.30
928.34	11773.77
928.51	11482.96
928.68	11265.88
928.84	11308.88
929.01	11323.22
929.18	11106.13
929.35	11282.26
929.51	11265.88
929.68	10964.82
929.85	10946.39
930.02	11140.95
930.18	10962.78
930.35	10911.58
930.52	10985.30
930.69	10923.87
930.85	10821.47
931.02	10940.25
931.19	10819.42
931.36	10717.02
931.52	10725.21
931.69	10657.63
931.86	10565.47
932.02	10456.93
932.19	10463.07
932.36	10444.64
932.53	10286.95
932.69	10291.04
932.86	10266.47
933.03	10194.79
933.19	10098.53
933.36	10106.73
933.53	10137.45
933.70	9957.22
933.86	9967.46
934.03	9981.80
934.20	9850.73
934.36	10139.49
934.53	9725.80
934.70	9455.47
934.86	9633.64
935.03	9344.88
935.20	9279.35
935.36	9310.07
935.53	9269.11
935.70	9238.39
935.86	9158.52
936.03	9031.54
936.20	8988.53
936.36	8847.22
936.53	8994.68
936.70	9049.97
936.86	8945.53
937.03	8656.76
937.20	8443.78
937.36	8654.72
937.53	8286.08
937.70	8343.42
937.86	8288.13
938.03	8032.13
938.20	8109.96
938.36	7999.37
938.53	7858.06
938.70	7624.59
938.86	7626.64
939.03	7604.11
939.20	7606.16
939.36	7571.34
939.53	7430.03
939.70	7645.07
939.86	7339.92
940.03	7143.32
940.19	7051.16
940.36	7038.87
940.53	7200.66
940.69	6948.76
940.86	6674.33
941.03	6965.14
941.19	6707.10
941.36	6621.08
941.52	6631.32
941.69	6567.84
941.86	6391.71
942.02	6463.39
942.19	6317.98
942.35	6274.98
942.52	6176.67
942.69	6115.23
942.85	6113.19
943.02	6148.00
943.18	6008.74
943.35	6055.84
943.52	5902.25
943.68	5818.28
943.85	5785.51
944.01	5846.95
944.18	5746.60
944.35	5932.97
944.51	5828.52
944.68	5595.05
944.84	5695.40
945.01	5648.30
945.17	5695.40
945.34	5666.73
945.51	5697.45
945.67	5527.47
945.84	5578.67
946.00	5482.41
946.17	5513.13
946.33	5402.54
946.50	5539.76
946.67	5455.79
946.83	5482.41
947.00	5519.28
947.16	5525.42
947.33	5582.76
947.49	5457.84
947.66	5490.60
947.82	5640.11
947.99	5496.75
948.16	5447.60
948.32	5466.03
948.49	5529.52
948.65	5605.29
948.82	5595.05
948.98	5496.75
949.15	5490.60
949.31	5580.71
949.48	5488.56
949.64	5545.90
949.81	5580.71
949.97	5429.17
950.14	5488.56
950.30	5236.66
950.47	5478.32
950.63	5423.02
950.80	5377.97
950.96	5447.60
951.13	5369.77
951.30	5441.45
951.46	5611.43
951.63	5666.73
951.79	5478.32
951.96	5631.91
952.12	5451.69
952.29	5509.04
952.45	5330.86
952.62	5511.08
952.78	5681.07
952.94	5619.63
953.11	5527.47
953.27	5386.16
953.44	5789.61
953.60	5566.38
953.77	5597.10
953.93	5463.98
954.10	5451.69
954.26	5623.72
954.43	5521.32
954.59	5533.61
954.76	5681.07
954.92	5423.02
955.09	5742.50
955.25	5572.52
955.42	5506.99
955.58	5767.08
955.75	5722.02
955.91	5619.63
956.07	5599.15
956.24	5713.83
956.40	5636.01
956.57	5685.16
956.73	5562.28
956.90	5689.26
957.06	5640.11
957.23	5556.14
957.39	5640.11
957.56	5769.13
957.72	5558.19
957.88	5740.46
958.05	5738.41
958.21	5853.09
958.38	5650.35
958.54	5541.80
958.71	5894.05
958.87	5603.24
959.03	5576.62
959.20	5664.68
959.36	5654.44
959.53	5672.87
959.69	5613.48
959.85	5660.59
960.02	5593.00
960.18	5711.78
960.35	5679.02
960.51	5509.04
960.68	5539.76
960.84	5521.32
961.00	5504.94
961.17	5443.50
961.33	5685.16
961.50	5660.59
961.66	5703.59
961.82	5537.71
961.99	5631.91
962.15	5695.40
962.31	5470.12
962.48	5650.35
962.64	5771.18
962.81	5504.94
962.97	5631.91
963.13	5562.28
963.30	5650.35
963.46	5496.75
963.62	5515.18
963.79	5615.53
963.95	5640.11
964.12	5515.18
964.28	5642.15
964.44	5537.71
964.61	5570.48
964.77	5437.36
964.93	5713.83
965.10	5547.95
965.26	5377.97
965.42	5445.55
965.59	5531.56
965.75	5423.02
965.92	5517.23
966.08	5545.90
966.24	5476.27
966.41	5326.77
966.57	5595.05
966.73	5521.32
966.90	5433.26
967.06	5347.25
967.22	5375.92
967.39	5439.40
967.55	5332.91
967.71	5466.03
967.88	5382.06
968.04	5185.46
968.20	5267.38
968.37	5371.82
968.53	5339.05
968.69	5207.98
968.85	5343.15
969.02	5328.81
969.18	5281.71
969.34	5289.90
969.51	5480.36
969.67	5468.08
969.83	5263.28
970.00	5277.62
970.16	5238.70
970.32	5250.99
970.48	5439.40
970.65	5291.95
970.81	5197.74
970.97	5171.12
971.14	5107.63
971.30	5320.62
971.46	5316.53
971.63	5177.26
971.79	5142.45
971.95	5089.20
972.11	5216.18
972.28	5197.74
972.44	5158.83
972.60	5158.83
972.76	5099.44
972.93	4974.52
973.09	5156.79
973.25	5113.78
973.42	5072.82
973.58	5068.72
973.74	5119.92
973.90	5146.55
974.07	4906.93
974.23	5023.67
974.39	5027.76
974.55	5078.96
974.72	4884.41
974.88	4915.12
975.04	5035.96
975.20	4841.40
975.37	4859.83
975.53	4919.22
975.69	4931.51
975.85	5019.57
976.01	4857.78
976.18	4857.78
976.34	4980.66
976.50	4808.63
976.66	4992.95
976.83	4800.44
976.99	4870.07
977.15	4876.21
977.31	4710.33
977.47	4906.93
977.64	4857.78
977.80	4890.55
977.96	4800.44
978.12	4706.23
978.29	4786.10
978.45	4659.13
978.61	4757.43
978.77	4816.82
978.93	4706.23
979.10	4648.89
979.26	4652.98
979.42	4792.25
979.58	4575.16
979.74	4566.97
979.91	4710.33
980.07	4681.66
980.23	4542.39
980.39	4564.92
980.55	4485.05
980.71	4587.45
980.88	4440.00
981.04	4581.31
981.20	4626.36
981.36	4609.98
981.52	4562.87
981.68	4442.04
981.85	4556.73
982.01	4427.71
982.17	4476.86
982.33	4403.13
982.49	4526.01
982.65	4517.82
982.82	4587.45
982.98	4452.28
983.14	4224.96
983.30	4372.41
983.46	4325.31
983.62	4313.02
983.79	4405.18
983.95	4417.47
984.11	4239.30
984.27	4378.56
984.43	4315.07
984.59	4186.05
984.75	4259.78
984.91	4323.26
985.08	4364.22
985.24	4263.87
985.40	4169.66
985.56	4206.53
985.72	4235.20
985.88	4388.80
986.04	4147.14
986.20	4161.47
986.37	4188.10
986.53	4097.99
986.69	4204.48
986.85	4087.75
987.01	4138.94
987.17	4052.93
987.33	4038.59
987.49	4173.76
987.65	4093.89
987.82	4030.40
987.98	4063.17
988.14	4147.14
988.30	4136.90
988.46	4038.59
988.62	4009.92
988.78	3917.76
988.94	4114.37
989.10	3977.16
989.26	4018.11
989.42	3981.25
989.59	3901.38
989.75	3878.85
989.91	4011.97
990.07	3690.44
990.23	3936.20
990.39	3911.62
990.55	3995.59
990.71	3819.46
990.87	3958.72
991.03	3995.59
991.19	3848.13
991.35	3876.80
991.51	3934.15
991.67	3940.29
991.83	3968.96
992.00	3766.21
992.16	3903.43
992.32	3796.93
992.48	3841.99
992.64	3710.92
992.80	3837.89
992.96	3790.79
993.12	3803.08
993.28	3700.68
993.44	3831.75
993.60	3723.21
993.76	3792.84
993.92	3794.89
994.08	3706.82
994.24	3743.69
994.40	3721.16
994.56	3737.54
994.72	3706.82
994.88	3635.14
995.04	3682.25
995.20	3592.14
995.36	3606.47
995.52	3567.56
995.68	3674.06
995.84	3569.61
996.00	3659.72
996.16	3561.42
996.32	3592.14
996.48	3534.79
996.64	3452.88
996.80	3506.12
996.96	3393.48
997.12	3518.41
997.28	3526.60
997.44	3557.32
997.60	3452.88
997.76	3399.63
997.92	3497.93
998.08	3479.50
998.24	3385.29
998.40	3395.53
998.56	3428.30
998.72	3336.14
998.88	3428.30
999.04	3330.00
999.20	3493.83
999.36	3297.23
999.52	3487.69
999.68	3399.63
999.84	3454.92
1000.00	3381.20
1000.16	3284.94
1000.32	3235.79
1000.48	3428.30
1000.64	3346.38
1000.80	3157.97
1000.95	3217.36
1001.11	3262.41
1001.27	3291.09
1001.43	3266.51
1001.59	3248.08
1001.75	3108.82
1001.91	3264.46
1002.07	3276.75
1002.23	3198.93
1002.39	3092.43
1002.55	3190.74
1002.71	3129.30
1002.87	3239.89
1003.03	3080.14
1003.19	3172.30
1003.34	3207.12
1003.50	3203.02
1003.66	3164.11
1003.82	3254.22
1003.98	3119.06
1004.14	3139.54
1004.30	3067.86
1004.46	3067.86
1004.62	3059.67
1004.78	3018.71
1004.94	3151.82
1005.09	3121.10
1005.25	2928.60
1005.41	2992.08
1005.57	3033.04
1005.73	3035.09
1005.89	2928.60
1006.05	3024.85
1006.21	3006.42
1006.37	2920.40
1006.52	2906.07
1006.68	2932.69
1006.84	3067.86
1007.00	2922.45
1007.16	2994.13
1007.32	2953.17
1007.48	2949.08
1007.64	2885.59
1007.79	2934.74
1007.95	2934.74
1008.11	2944.98
1008.27	2920.40
1008.43	3018.71
1008.59	2938.84
1008.75	3012.56
1008.91	2957.27
1009.06	2781.14
1009.22	2955.22
1009.38	2854.87
1009.54	2861.01
1009.70	2852.82
1009.86	2852.82
1010.01	2875.35
1010.17	2766.81
1010.33	2760.66
1010.49	2822.10
1010.65	2920.40
1010.81	2768.85
1010.96	2901.97
1011.12	2826.20
1011.28	2715.61
1011.44	2846.68
1011.60	2795.48
1011.76	2760.66
1011.91	2850.77
1012.07	2682.84
1012.23	2629.59
1012.39	2682.84
1012.55	2764.76
1012.71	2701.27
1012.86	2680.79
1013.02	2738.13
1013.18	2600.92
1013.34	2623.45
1013.50	2805.72
1013.65	2699.22
1013.81	2572.25
1013.97	2580.44
1014.13	2650.07
1014.29	2654.17
1014.44	2740.18
1014.60	2643.93
1014.76	2748.37
1014.92	2641.88
1015.07	2645.98
1015.23	2547.67
1015.39	2566.10
1015.55	2551.77
1015.71	2633.69
1015.86	2566.10
1016.02	2609.11
1016.18	2473.95
1016.34	2576.34
1016.49	2551.77
1016.65	2695.13
1016.81	2551.77
1016.97	2553.82
1017.12	2592.73
1017.28	2508.76
1017.44	2492.38
1017.60	2541.53
1017.75	2586.58
1017.91	2527.19
1018.07	2414.56
1018.23	2420.70
1018.38	2459.61
1018.54	2545.63
1018.70	2473.95
1018.86	2449.37
1019.01	2543.58
1019.17	2392.03
1019.33	2496.47
1019.49	2510.81
1019.64	2451.42
1019.80	2410.46
1019.96	2535.39
1020.12	2371.55
1020.27	2396.12
1020.43	2396.12
1020.59	2400.22
1020.74	2299.87
1020.90	2459.61
1021.06	2263.01
1021.22	2363.36
1021.37	2357.21
1021.53	2381.79
1021.69	2340.83
1021.84	2238.43
1022.00	2435.03
1022.16	2297.82
1022.31	2361.31
1022.47	2396.12
1022.63	2385.88
1022.79	2246.62
1022.94	2295.77
1023.10	2332.64
1023.26	2289.63
1023.41	2344.92
1023.57	2310.11
1023.73	2363.36
1023.88	2355.16
1024.04	2242.53
1024.20	2265.05
1024.35	2336.73
1024.51	2324.44
1024.67	2170.85
1024.82	2355.16
1024.98	2232.29
1025.14	2146.27
1025.29	2326.49
1025.45	2289.63
1025.61	2195.42
1025.76	2285.53
1025.92	2230.24
1026.08	2324.44
1026.23	2228.19
1026.39	2238.43
1026.55	2213.85
1026.70	2068.45
1026.86	2289.63
1027.02	2232.29
1027.17	2193.37
1027.33	2222.05
1027.48	2156.51
1027.64	2166.75
1027.80	2176.99
1027.95	2279.39
1028.11	2121.70
1028.27	2199.52
1028.42	2228.19
1028.58	2095.07
1028.73	2146.27
1028.89	2078.69
1029.05	2197.47
1029.20	2052.06
>>>>>End Processed Spectral Data<<<<<
