SpectraSuite Data File
++++++++++++++++++++++++++++++++++++
Date: Fri Jun 02 14:41:55 CEST 2017
User: INFO_000
Dark Spectrum Present: No
Reference Spectrum Present: No
Number of Sampled Component Spectra: 1
Spectrometers: USB4H00879
Integration Time (usec): 80000 (USB4H00879)
Spectra Averaged: 1 (USB4H00879)
Boxcar Smoothing: 0 (USB4H00879)
Correct for Electrical Dark: No (USB4H00879)
Strobe/Lamp Enabled: No (USB4H00879)
Correct for Detector Non-linearity: No (USB4H00879)
Correct for Stray Light: No (USB4H00879)
Number of Pixels in Processed Spectrum: 3648
>>>>>Begin Processed Spectral Data<<<<<
345.13	1288.17
345.34	1288.17
345.56	1288.17
345.78	1265.64
345.99	1314.80
346.21	1677.29
346.42	1630.18
346.64	1642.47
346.86	1826.79
347.07	1607.66
347.29	1656.81
347.50	1603.56
347.72	1656.81
347.94	1687.53
348.15	1554.41
348.37	1628.14
348.59	1691.62
348.80	1658.85
349.02	1746.92
349.23	1880.04
349.45	1841.12
349.67	1863.65
349.88	1869.80
350.10	1925.09
350.31	1820.64
350.53	1814.50
350.75	1939.43
350.96	1781.73
351.18	1804.26
351.39	1863.65
351.61	1734.63
351.82	1957.86
352.04	1968.10
352.26	1828.84
352.47	1863.65
352.69	1882.08
352.90	1767.40
353.12	1834.98
353.34	1847.27
353.55	1918.95
353.77	1855.46
353.98	1820.64
354.20	1804.26
354.41	1839.08
354.63	1896.42
354.85	2019.30
355.06	1841.12
355.28	1826.79
355.49	1781.73
355.71	1822.69
355.92	1888.23
356.14	1941.47
356.35	1861.60
356.57	1757.16
356.79	2035.68
357.00	1832.93
357.22	1986.53
357.43	1841.12
357.65	1937.38
357.86	1912.80
358.08	1882.08
358.29	1910.75
358.51	2033.63
358.72	1959.91
358.94	1912.80
359.16	1910.75
359.37	1951.71
359.59	1959.91
359.80	1986.53
360.02	1939.43
360.23	1927.14
360.45	2041.82
360.66	1970.15
360.88	1894.37
361.09	1968.10
361.31	1972.19
361.52	1880.04
361.74	2011.11
361.95	2093.02
362.17	1896.42
362.38	2119.65
362.60	2002.91
362.81	2019.30
363.03	2041.82
363.24	1992.67
363.46	2084.83
363.67	2084.83
363.89	1937.38
364.10	1953.76
364.32	1925.09
364.53	2021.35
364.75	1957.86
364.96	2105.31
365.18	2074.59
365.39	1996.77
365.61	1923.04
365.82	2097.12
366.04	2037.73
366.25	1972.19
366.47	1984.48
366.68	1978.34
366.90	2013.15
367.11	1964.00
367.33	2119.65
367.54	2068.45
367.76	2000.87
367.97	2111.46
368.19	2019.30
368.40	2103.26
368.62	1925.09
368.83	1994.72
369.05	2045.92
369.26	1980.39
369.48	2009.06
369.69	2052.06
369.91	2056.16
370.12	1902.56
370.33	2127.84
370.55	1945.57
370.76	2056.16
370.98	2109.41
371.19	2119.65
371.41	1953.76
371.62	2066.40
371.84	2043.87
372.05	2160.61
372.27	2045.92
372.48	2097.12
372.69	2093.02
372.91	2152.42
373.12	2179.04
373.34	2019.30
373.55	2220.00
373.77	2140.13
373.98	2123.74
374.20	2150.37
374.41	2238.43
374.62	2072.54
374.84	2209.76
375.05	2154.46
375.27	2156.51
375.48	2187.23
375.70	2211.81
375.91	2232.29
376.12	2265.05
376.34	2148.32
376.55	2228.19
376.77	2191.33
376.98	2187.23
377.19	2138.08
377.41	2148.32
377.62	2191.33
377.84	2154.46
378.05	2334.68
378.27	2226.14
378.48	2338.78
378.69	2299.87
378.91	2271.20
379.12	2228.19
379.34	2275.29
379.55	2361.31
379.76	2318.30
379.98	2281.44
380.19	2306.01
380.41	2252.77
380.62	2338.78
380.83	2222.05
381.05	2279.39
381.26	2445.27
381.47	2336.73
381.69	2228.19
381.90	2455.51
382.12	2340.83
382.33	2299.87
382.54	2328.54
382.76	2334.68
382.97	2353.12
383.19	2287.58
383.40	2439.13
383.61	2398.17
383.83	2295.77
384.04	2361.31
384.25	2349.02
384.47	2389.98
384.68	2402.27
384.89	2330.59
385.11	2320.35
385.32	2363.36
385.54	2338.78
385.75	2306.01
385.96	2406.36
386.18	2447.32
386.39	2437.08
386.60	2306.01
386.82	2437.08
387.03	2346.97
387.24	2506.71
387.46	2396.12
387.67	2553.82
387.88	2590.68
388.10	2514.91
388.31	2467.80
388.52	2574.30
388.74	2512.86
388.95	2570.20
389.16	2492.38
389.38	2478.04
389.59	2592.73
389.80	2637.78
390.02	2516.95
390.23	2586.58
390.44	2650.07
390.66	2553.82
390.87	2519.00
391.08	2605.02
391.30	2736.09
391.51	2631.64
391.72	2678.74
391.94	2699.22
392.15	2637.78
392.36	2721.75
392.58	2564.06
392.79	2713.56
393.00	2770.90
393.22	2723.80
393.43	2836.44
393.64	2811.86
393.85	2740.18
394.07	2729.94
394.28	2754.52
394.49	2846.68
394.71	2717.65
394.92	2854.87
395.13	2787.29
395.35	2756.57
395.56	2762.71
395.77	2904.02
395.98	2908.12
396.20	2908.12
396.41	2891.73
396.62	3018.71
396.84	2830.29
397.05	2863.06
397.26	2910.16
397.47	3030.99
397.69	2883.54
397.90	3035.09
398.11	2965.46
398.32	2955.22
398.54	2895.83
398.75	2920.40
398.96	2979.79
399.18	3135.44
399.39	3010.51
399.60	3014.61
399.81	2928.60
400.03	3018.71
400.24	3366.86
400.45	3006.42
400.66	3090.38
400.88	3051.47
401.09	3241.93
401.30	3123.15
401.51	3186.64
401.73	3256.27
401.94	3141.58
402.15	3180.50
402.36	3248.08
402.58	3278.80
402.79	3248.08
403.00	3172.30
403.21	3233.74
403.43	3258.32
403.64	3340.24
403.85	3149.78
404.06	3295.18
404.27	3131.34
404.49	3180.50
404.70	3196.88
404.91	3268.56
405.12	3260.37
405.34	3364.81
405.55	3514.31
405.76	3233.74
405.97	3250.13
406.19	3493.83
406.40	3221.45
406.61	3370.96
406.82	3375.05
407.03	3350.48
407.25	3274.70
407.46	3530.70
407.67	3475.40
407.88	3594.19
408.09	3405.77
408.31	3379.15
408.52	3428.30
408.73	3508.17
408.94	3399.63
409.15	3362.76
409.37	3555.27
409.58	3491.79
409.79	3596.23
410.00	3579.85
410.21	3432.40
410.43	3506.12
410.64	3418.06
410.85	3549.13
411.06	3674.06
411.27	3674.06
411.48	3674.06
411.70	3690.44
411.91	3663.82
412.12	3745.73
412.33	3622.86
412.54	3530.70
412.76	3741.64
412.97	3848.13
413.18	3674.06
413.39	3723.21
413.60	3790.79
413.81	3721.16
414.03	3733.45
414.24	3753.93
414.45	3858.37
414.66	3827.65
414.87	3891.14
415.08	3696.58
415.30	3854.28
415.51	3829.70
415.72	3790.79
415.93	3903.43
416.14	3870.66
416.35	3878.85
416.56	3829.70
416.78	3887.04
416.99	3975.11
417.20	3844.04
417.41	4014.02
417.62	3971.01
417.83	4079.55
418.04	3964.87
418.26	3981.25
418.47	4040.64
418.68	4079.55
418.89	4063.17
419.10	4227.01
419.31	4038.59
419.52	4177.86
419.73	4130.75
419.95	4165.57
420.16	4108.23
420.37	3966.92
420.58	4231.10
420.79	3938.24
421.00	4108.23
421.21	4198.34
421.42	4237.25
421.63	4155.33
421.85	4186.05
422.06	4294.59
422.27	4300.73
422.48	4493.24
422.69	4388.80
422.90	4399.04
423.11	4370.37
423.32	4413.37
423.53	4370.37
423.75	4407.23
423.96	4685.75
424.17	4497.34
424.38	4575.16
424.59	4487.10
424.80	4679.61
425.01	4452.28
425.22	4554.68
425.43	4513.72
425.64	4810.68
425.85	4808.63
426.06	4767.67
426.28	4593.59
426.49	4786.10
426.70	4741.05
426.91	4788.15
427.12	4753.34
427.33	4749.24
427.54	4755.38
427.75	4872.12
427.96	4970.42
428.17	4902.84
428.38	4902.84
428.59	4972.47
428.80	4972.47
429.01	5011.38
429.23	4984.76
429.44	5132.21
429.65	5033.91
429.86	5150.64
430.07	5005.24
430.28	5066.67
430.49	5062.58
430.70	5205.94
430.91	5300.14
431.12	5144.50
431.33	5353.39
431.54	5173.17
431.75	5187.50
431.96	5371.82
432.17	5246.90
432.38	5207.98
432.59	5539.76
432.80	5332.91
433.01	5414.83
433.22	5474.22
433.43	5455.79
433.64	5533.61
433.85	5527.47
434.06	5531.56
434.27	5433.26
434.49	5623.72
434.70	5664.68
434.91	5623.72
435.12	5627.82
435.33	5625.77
435.54	5550.00
435.75	5550.00
435.96	5662.63
436.17	5597.10
436.38	5738.41
436.59	5810.09
436.80	5719.98
437.01	5883.81
437.22	5990.31
437.43	5863.33
437.64	5656.49
437.85	5826.47
438.06	5849.00
438.27	5732.26
438.48	5930.92
438.69	6061.99
438.90	5937.06
439.11	5918.63
439.32	6109.09
439.53	5922.73
439.74	6078.37
439.95	5984.16
440.16	5990.31
440.37	6066.08
440.57	5861.29
440.78	6115.23
440.99	6125.47
441.20	6125.47
441.41	5996.45
441.62	6193.06
441.83	6059.94
442.04	6291.36
442.25	6176.67
442.46	6225.82
442.67	6373.28
442.88	6715.29
443.09	6297.50
443.30	6225.82
443.51	6373.28
443.72	6643.61
443.93	6408.09
444.14	6576.03
444.35	6272.93
444.56	6553.50
444.77	6383.52
444.98	6604.70
445.19	6754.20
445.40	6539.16
445.61	6662.04
445.81	6817.69
446.02	6678.43
446.23	6637.47
446.44	6543.26
446.65	6786.97
446.86	6688.67
447.07	6801.30
447.28	6924.18
447.49	6967.19
447.70	6913.94
447.91	6805.40
448.12	6823.83
448.33	7219.09
448.54	7098.26
448.74	7055.25
448.95	7069.59
449.16	7014.29
449.37	7284.62
449.58	7006.10
449.79	7217.04
450.00	7028.63
450.21	7167.89
450.42	7286.67
450.63	7231.38
450.84	7206.80
451.05	7292.82
451.25	7260.05
451.46	7233.43
451.67	7384.98
451.88	7466.89
452.09	7366.54
452.30	7319.44
452.51	7378.83
452.72	7604.11
452.93	7868.30
453.13	7425.93
453.34	7481.23
453.55	7683.98
453.76	7477.13
453.97	8021.89
454.18	7720.84
454.39	7892.87
454.60	7673.74
454.81	7675.79
455.01	7939.97
455.22	7772.04
455.43	7954.31
455.64	7991.17
455.85	8152.96
456.06	8214.40
456.27	8040.33
456.48	7974.79
456.68	8105.86
456.89	8265.60
457.10	8392.58
457.31	8130.44
457.52	8134.53
457.73	8408.96
457.94	8589.18
458.14	8238.98
458.35	8728.44
458.56	8378.24
458.77	8324.99
458.98	8478.59
459.19	8765.31
459.39	8697.72
459.60	8820.60
459.81	8673.15
460.02	8773.50
460.23	8757.11
460.44	9066.36
460.65	9027.45
460.85	9033.59
461.06	9111.41
461.27	8900.47
461.48	9213.81
461.69	9398.13
461.89	9099.13
462.10	9383.79
462.31	9131.89
462.52	9146.23
462.73	9344.88
462.94	9652.08
463.14	9537.39
463.35	9375.60
463.56	9682.80
463.77	9529.20
463.98	9549.68
464.18	9740.14
464.39	9803.63
464.60	9969.51
464.81	9940.84
465.02	9897.83
465.23	10078.05
465.43	9951.08
465.64	10231.65
465.85	10190.69
466.06	9975.66
466.27	10481.50
466.47	10512.22
466.68	10227.56
466.89	10375.01
467.10	10553.18
467.30	10446.69
467.51	10657.63
467.72	10942.30
467.93	10465.12
468.14	10692.44
468.34	10860.38
468.55	10952.54
468.76	10921.82
468.97	10768.22
469.17	11140.95
469.38	11128.66
469.59	11392.85
469.80	10981.21
470.01	11226.96
470.21	11456.34
470.42	11495.25
470.63	11734.86
470.84	11456.34
471.04	11706.19
471.25	11728.72
471.46	11718.48
471.67	11814.73
471.87	11847.50
472.08	12021.58
472.29	12259.14
472.50	11992.90
472.70	12115.78
472.91	12271.43
473.12	12330.82
473.33	12267.33
473.53	12539.71
473.74	12300.10
473.95	12730.17
474.16	12734.27
474.36	12808.00
474.57	12810.04
474.78	13156.15
474.99	13037.37
475.19	13127.48
475.40	13369.14
475.61	13496.11
475.81	13616.94
476.02	13614.90
476.23	13551.41
476.44	13682.48
476.64	13772.59
476.85	14323.49
477.06	14135.08
477.27	14337.83
477.47	14288.68
477.68	14280.49
477.89	14487.33
478.09	14452.52
478.30	14575.39
478.51	14612.26
478.71	14874.40
478.92	14642.98
479.13	14847.77
479.34	15322.90
479.54	15154.97
479.75	15159.06
479.96	15343.38
480.16	15533.84
480.37	15556.37
480.58	15722.26
480.78	15705.87
480.99	15779.60
481.20	15978.25
481.41	15978.25
481.61	16297.74
481.82	16181.00
482.03	16240.39
482.23	16062.22
482.44	16613.12
482.65	16584.45
482.85	16828.16
483.06	16772.86
483.27	16776.96
483.47	16609.03
483.68	17202.94
483.89	17209.08
484.09	17344.25
484.30	17250.04
484.51	17379.06
484.71	17821.42
484.92	17559.28
485.13	17811.18
485.33	17594.10
485.54	17921.77
485.75	17987.31
485.95	18128.62
486.16	18093.80
486.37	18196.20
486.57	18532.07
486.78	18360.04
486.98	18429.67
487.19	18681.57
487.40	18657.00
487.60	18616.04
487.81	19029.73
488.02	18872.03
488.22	18783.97
488.43	19017.44
488.64	19300.06
488.84	19461.85
489.05	19711.70
489.25	19324.63
489.46	19773.14
489.67	19529.43
489.87	19949.26
490.08	20066.00
490.29	19816.15
490.49	20391.62
490.70	20264.65
490.90	20571.85
491.11	20184.78
491.32	20686.53
491.52	20545.22
491.73	20700.87
491.94	20729.54
492.14	20680.39
492.35	20944.58
492.55	20934.34
492.76	20963.01
492.97	21354.17
493.17	21245.63
493.38	21628.60
493.58	21702.32
493.79	21687.99
494.00	21630.65
494.20	21849.78
494.41	21804.72
494.61	22091.44
494.82	22105.77
495.02	22197.93
495.23	22353.58
495.44	22312.62
495.64	22576.81
495.85	22369.96
496.05	22478.50
496.26	22458.03
496.47	22785.70
496.67	22511.27
496.88	22855.33
497.08	22742.69
497.29	23008.93
497.49	22982.31
497.70	23217.82
497.91	23492.25
498.11	23617.18
498.32	23477.91
498.52	23639.70
498.73	23598.74
498.93	23586.46
499.14	24102.54
499.34	24092.30
499.55	24084.11
499.76	24043.15
499.96	24313.48
500.17	24063.63
500.37	24354.44
500.58	24157.84
500.78	24419.98
500.99	24538.76
501.19	24721.03
501.40	24530.57
501.60	24684.17
501.81	24600.20
502.02	24794.76
502.22	24684.17
502.43	24741.51
502.63	25243.26
502.84	25048.71
503.04	24888.96
503.25	25063.04
503.45	25251.45
503.66	25351.81
503.86	25044.61
504.07	25726.58
504.27	25532.03
504.48	25884.28
504.68	25665.14
504.89	26013.30
505.09	25982.58
505.30	25882.23
505.50	25902.71
505.71	26226.29
505.91	26316.40
506.12	26240.62
506.32	26158.70
506.53	26332.78
506.73	26287.73
506.94	26455.66
507.14	26343.02
507.35	26480.24
507.55	27137.63
507.76	26926.69
507.96	26750.57
508.17	26560.11
508.37	27080.29
508.58	26859.11
508.78	26928.74
508.99	26869.35
509.19	27213.41
509.40	27385.44
509.60	27375.20
509.81	27332.19
510.01	27184.74
510.22	27438.69
510.42	27410.01
510.63	27596.38
510.83	27532.89
511.04	27555.42
511.24	27524.70
511.44	27891.29
511.65	27876.95
511.85	27723.35
512.06	27864.66
512.26	27985.49
512.47	27909.72
512.67	28079.70
512.88	28100.18
513.08	27870.81
513.29	28323.41
513.49	28130.90
513.69	28458.57
513.90	28511.82
514.10	28735.05
514.31	28700.23
514.51	28673.61
514.72	28431.95
514.92	28417.61
515.13	28444.24
515.33	28765.77
515.53	28620.36
515.74	28923.46
515.94	28841.54
516.15	29005.38
516.35	28819.02
516.56	29603.39
516.76	28599.88
516.96	29036.10
517.17	29402.69
517.37	29648.44
517.58	29554.24
517.78	29754.94
517.99	29367.87
518.19	29892.15
518.39	29828.66
518.60	29898.30
518.80	29861.43
519.01	30090.80
519.21	29830.71
519.41	30055.99
519.62	30465.58
519.82	30264.88
520.03	30254.64
520.23	30348.85
520.43	30314.03
520.64	30668.33
520.84	30506.54
521.05	30498.35
521.25	30615.08
521.45	30987.82
521.66	31098.41
521.86	30828.07
522.07	30641.71
522.27	31073.83
522.47	30803.50
522.68	31698.46
522.88	30946.86
523.08	31790.62
523.29	31720.99
523.49	31358.50
523.70	31800.86
523.90	31542.81
524.10	31770.14
524.31	31725.08
524.51	31723.04
524.71	32286.23
524.92	32060.95
525.12	32427.54
525.33	32372.24
525.53	32493.07
525.73	32669.20
525.94	32806.41
526.14	32622.09
526.34	32499.22
526.55	32656.91
526.75	32579.09
526.95	32988.68
527.16	33203.72
527.36	33039.88
527.56	33277.44
527.77	33342.98
527.97	33246.72
528.17	33433.09
528.38	33691.13
528.58	34000.38
528.78	33867.26
528.99	33302.02
529.19	34027.00
529.39	33689.09
529.60	34188.79
529.80	34293.24
530.00	34084.34
530.21	34463.22
530.41	34911.72
530.61	34276.85
530.82	34643.44
531.02	34590.19
531.22	34774.51
531.43	34909.68
531.63	35110.38
531.83	35173.86
532.04	35671.52
532.24	35349.99
532.44	35411.43
532.64	35483.11
532.85	35573.22
533.05	35448.29
533.25	35603.94
533.46	35773.92
533.66	36054.49
533.86	36017.63
534.07	36314.58
534.27	36038.11
534.47	36683.22
534.67	36601.30
534.88	36251.09
535.08	36441.56
535.28	36615.63
535.49	36941.26
535.69	37037.51
535.89	37004.75
536.09	37023.18
536.30	37451.20
536.50	37068.23
536.70	37594.56
536.91	37279.18
537.11	37418.44
537.31	37791.17
537.51	37846.46
537.72	37850.56
537.92	38077.88
538.12	38057.40
538.32	37848.51
538.53	38436.28
538.73	37873.09
538.93	38309.30
539.13	38092.22
539.34	38182.33
539.54	38495.67
539.74	38864.30
539.94	38516.15
540.15	38456.76
540.35	39177.64
540.55	39396.77
540.75	38933.93
540.96	39122.35
541.16	38964.65
541.36	39060.91
541.56	39294.38
541.77	39347.62
541.97	39425.45
542.17	39656.87
542.37	39366.06
542.58	39929.25
542.78	39669.15
542.98	40015.26
543.18	39894.43
543.38	40238.49
543.59	40101.28
543.79	39884.19
543.99	40039.84
544.19	40627.60
544.40	40668.56
544.60	40564.12
544.80	40252.83
545.00	40629.65
545.20	40678.80
545.41	40687.00
545.61	40760.72
545.81	41149.84
546.01	41035.15
546.21	41069.97
546.42	41231.75
546.62	41512.33
546.82	40838.54
547.02	41354.63
547.22	41336.20
547.43	41149.84
547.63	41399.69
547.83	41379.21
548.03	41334.15
548.23	41637.25
548.44	41708.93
548.64	41584.01
548.84	41958.78
549.04	41448.84
549.24	42034.56
549.45	42190.20
549.65	42014.08
549.85	41842.05
550.05	42351.99
550.25	41866.63
550.45	42661.24
550.66	41907.58
550.86	42210.68
551.06	42505.59
551.26	42626.42
551.46	42272.12
551.66	42663.28
551.87	42685.81
552.07	42388.86
552.27	42718.58
552.47	43029.87
552.67	42792.31
552.87	42915.19
553.07	43074.93
553.28	43144.56
553.48	43203.95
553.68	43210.09
553.88	43310.44
554.08	43347.31
554.28	43345.26
554.48	42923.38
554.69	43025.78
554.89	43294.06
555.09	43271.53
555.29	43246.96
555.49	43310.44
555.69	43269.48
555.89	43558.25
556.10	43357.55
556.30	43660.65
556.50	43761.00
556.70	43345.26
556.90	44131.68
557.10	43634.02
557.30	43863.39
557.50	44055.90
557.70	43904.35
557.91	44297.56
558.11	44025.18
558.31	44561.75
558.51	43930.98
558.71	44182.88
558.91	44356.96
559.11	44213.60
559.31	44332.38
559.51	44348.76
559.72	44365.15
559.92	44811.60
560.12	44248.41
560.32	44772.69
560.52	44522.84
560.72	44975.44
560.92	45174.09
561.12	44311.90
561.32	45460.81
561.52	44807.51
561.72	45102.42
561.93	44678.49
562.13	44725.59
562.33	44668.25
562.53	45260.11
562.73	45186.38
562.93	45323.60
563.13	45190.48
563.33	45112.66
563.53	45194.57
563.73	44701.01
563.93	45362.51
564.13	45552.97
564.33	45471.05
564.53	45339.98
564.74	45761.86
564.94	45512.01
565.14	45608.26
565.34	45544.78
565.54	45393.23
565.74	45692.23
565.94	45704.52
566.14	45536.59
566.34	45823.30
566.54	46173.50
566.74	45659.46
566.94	45964.61
567.14	46093.63
567.34	45690.18
567.54	46007.62
567.74	45751.62
567.94	45667.66
568.14	45968.71
568.34	46374.20
568.54	46265.66
568.74	46478.65
568.94	46013.76
569.14	46724.41
569.34	46771.51
569.54	46474.55
569.75	46062.91
569.95	45997.38
570.15	46869.81
570.35	46798.13
570.55	46384.44
570.75	46740.79
570.95	46544.19
571.15	47131.95
571.35	46847.29
571.55	46904.63
571.75	46830.90
571.95	46937.40
572.15	46630.20
572.35	47187.25
572.55	47600.94
572.75	46935.35
572.95	47633.71
573.15	47412.52
573.35	47090.99
573.55	47119.66
573.75	47330.61
573.95	47533.35
574.15	47414.57
574.35	48127.27
574.55	47506.73
574.75	47015.22
574.95	47695.14
575.15	47482.16
575.34	47637.80
575.54	47793.45
575.74	47617.32
575.94	47904.04
576.14	47639.85
576.34	47973.67
576.54	48035.11
576.74	48248.10
576.94	47758.63
577.14	48295.20
577.34	48377.12
577.54	48133.41
577.74	48534.81
577.94	48760.09
578.14	48145.70
578.34	48799.00
578.54	48248.10
578.74	48698.65
578.94	48874.77
579.14	48180.51
579.34	48641.31
579.54	48747.80
579.74	49169.68
579.94	48555.29
580.13	49038.61
580.33	49247.50
580.53	48792.86
580.73	49413.39
580.93	48835.86
581.13	49071.38
581.33	49186.07
581.53	49397.01
581.73	49630.47
581.93	49399.05
582.13	49450.25
582.33	49591.56
582.53	49566.99
582.73	49569.04
582.92	50027.78
583.12	49861.90
583.32	49964.29
583.52	49646.86
583.72	49999.11
583.92	49902.85
584.12	49906.95
584.32	50539.77
584.52	50101.51
584.72	50361.60
584.92	50566.40
585.11	50902.26
585.31	50492.67
585.51	50410.75
585.71	50199.81
585.91	50883.83
586.11	50660.60
586.31	50560.25
586.51	50255.11
586.71	50666.75
586.91	50713.85
587.10	50836.73
587.30	51055.86
587.50	50681.08
587.70	51375.34
587.90	50783.48
588.10	51250.42
588.30	50984.18
588.50	50892.02
588.69	51207.41
588.89	51037.43
589.09	51471.60
589.29	51219.70
589.49	51326.19
589.69	51561.71
589.89	51262.71
590.08	51356.91
590.28	51141.88
590.48	51584.24
590.68	52067.56
590.88	51754.22
591.08	51918.06
591.28	51197.17
591.47	52266.21
591.67	52124.90
591.87	52094.18
592.07	51625.20
592.27	51584.24
592.47	51786.99
592.67	52135.14
592.86	51477.74
593.06	52270.31
593.26	52272.35
593.46	52124.90
593.66	52548.83
593.86	52264.16
594.05	52425.95
594.25	52722.91
594.45	51985.64
594.65	52614.37
594.85	51881.19
595.05	53261.52
595.24	52788.44
595.44	52397.28
595.64	53044.44
595.84	52763.87
596.04	52714.72
596.23	52690.14
596.43	52944.09
596.63	53130.45
596.83	52624.60
597.03	53081.30
597.22	53687.50
597.42	52978.90
597.62	53234.90
597.82	53320.91
598.02	53722.32
598.21	53460.18
598.41	53138.65
598.61	53558.48
598.81	53581.01
599.01	53693.64
599.20	53499.09
599.40	53179.60
599.60	54025.42
599.80	53925.07
600.00	54047.94
600.19	54119.62
600.39	53810.38
600.59	54394.05
600.79	54174.92
600.98	54383.81
601.18	54310.08
601.38	54359.23
601.58	54381.76
601.78	54551.74
601.97	54453.44
602.17	54793.40
602.37	54566.08
602.57	54385.86
602.76	54990.01
602.96	54506.69
603.16	54807.74
603.36	54305.99
603.55	54844.60
603.75	54928.57
603.95	55262.39
604.15	55030.97
604.34	54959.29
604.54	55223.48
604.74	55491.76
604.94	55641.26
605.13	55458.99
605.33	55372.98
605.53	55655.60
605.73	55342.26
605.92	55688.37
606.12	55502.00
606.32	55700.65
606.52	55454.90
606.71	55510.19
606.91	55502.00
607.11	55309.49
607.30	55964.84
607.50	55522.48
607.70	56198.31
607.90	56087.72
608.09	56153.26
608.29	56108.20
608.49	56255.65
608.68	56079.53
608.88	56126.63
609.08	56405.16
609.28	56138.92
609.47	55891.12
609.67	56358.05
609.87	56079.53
610.06	56853.66
610.26	56583.33
610.46	56480.93
610.66	56212.65
610.85	56208.55
611.05	56292.52
611.25	56564.90
611.44	56085.67
611.64	56753.31
611.84	56349.86
612.03	56687.78
612.23	56935.58
612.43	56497.31
612.62	56429.73
612.82	57013.40
613.02	56755.36
613.21	57017.50
613.41	56464.55
613.61	56915.10
613.80	56269.99
614.00	56880.28
614.20	56618.14
614.39	56673.44
614.59	56810.65
614.79	56923.29
614.98	57142.42
615.18	56374.44
615.38	56886.43
615.57	56665.25
615.77	56794.27
615.97	57181.34
616.16	56693.92
616.36	56661.15
616.56	57005.21
616.75	57400.47
616.95	56612.00
617.15	56669.34
617.34	56816.80
617.54	56536.23
617.74	57365.65
617.93	56798.37
618.13	56257.70
618.32	56638.62
618.52	56874.14
618.72	57046.17
618.91	56501.41
619.11	56726.69
619.31	57187.48
619.50	57009.31
619.70	56349.86
619.90	57054.36
620.09	57013.40
620.29	56884.38
620.48	56843.42
620.68	57246.87
620.88	56530.08
621.07	57162.90
621.27	56808.61
621.46	56253.61
621.66	56747.17
621.86	56665.25
622.05	56810.65
622.25	57197.72
622.44	56939.68
622.64	56765.60
622.84	56870.04
623.03	56532.13
623.23	56833.18
623.42	56863.90
623.62	57195.67
623.82	57027.74
624.01	57023.64
624.21	56958.11
624.40	57037.98
624.60	56792.22
624.80	56702.11
624.99	56829.08
625.19	56497.31
625.38	57060.51
625.58	56824.99
625.77	56784.03
625.97	56736.93
626.17	56554.66
626.36	56507.55
626.56	56804.51
626.75	56349.86
626.95	57494.67
627.14	56599.71
627.34	57394.32
627.54	56476.83
627.73	56890.52
627.93	57068.70
628.12	56442.02
628.32	56976.54
628.51	57027.74
628.71	57158.81
628.90	56648.86
629.10	56868.00
629.30	56874.14
629.49	56859.80
629.69	57044.12
629.88	56843.42
630.08	57425.04
630.27	56812.70
630.47	56704.16
630.66	56999.07
630.86	57343.12
631.05	56564.90
631.25	56911.00
631.44	57144.47
631.64	57093.27
631.84	56865.95
632.03	57447.57
632.23	56956.06
632.42	57246.87
632.62	56870.04
632.81	57001.11
633.01	56947.87
633.20	57218.20
633.40	57273.49
633.59	57113.75
633.79	56929.44
633.98	57181.34
634.18	57547.92
634.37	57603.22
634.57	57441.43
634.76	57599.12
634.96	57369.75
635.15	57316.50
635.35	56859.80
635.54	57134.23
635.74	57324.69
635.93	57177.24
636.13	57312.41
636.32	57283.73
636.52	56913.05
636.71	57267.35
636.91	57316.50
637.10	57466.00
637.30	56988.83
637.49	57517.20
637.69	57298.07
637.88	57246.87
638.08	57054.36
638.27	57668.75
638.46	56911.00
638.66	57107.61
638.85	57525.39
639.05	57734.29
639.24	57654.42
639.44	57490.58
639.63	57435.28
639.83	57617.55
640.02	57603.22
640.22	57515.15
640.41	58100.87
640.61	57279.64
640.80	57201.82
640.99	57406.61
641.19	58045.58
641.38	57799.82
641.58	57320.60
641.77	57423.00
641.97	57269.40
642.16	57427.09
642.36	57840.78
642.55	57496.72
642.74	57474.20
642.94	58109.07
643.13	57443.48
643.33	57713.81
643.52	57973.90
643.72	57912.46
643.91	57797.77
644.10	57769.10
644.30	58246.28
644.49	57799.82
644.69	58123.40
644.88	57875.60
645.08	57484.43
645.27	57980.04
645.46	57603.22
645.66	58313.86
645.85	58041.48
646.05	58381.45
646.24	58090.63
646.43	57930.89
646.63	58004.62
646.82	58608.77
647.02	58268.81
647.21	58193.03
647.40	58225.80
647.60	58229.90
647.79	58659.97
647.99	58430.60
648.18	58041.48
648.37	58903.68
648.57	58266.76
648.76	58389.64
648.96	58272.90
649.15	58375.30
649.34	58537.09
649.54	58627.20
649.73	58360.97
649.92	58659.97
650.12	58596.48
650.31	58928.25
650.51	58375.30
650.70	58809.47
650.89	58272.90
651.09	59237.50
651.28	58436.74
651.47	58504.32
651.67	58326.15
651.86	58852.48
652.06	58131.59
652.25	58770.56
652.44	58352.77
652.64	58662.02
652.83	58455.17
653.02	58432.64
653.22	58750.08
653.41	58481.80
653.60	58428.55
653.80	58772.61
653.99	58506.37
654.18	58498.18
654.38	58358.92
654.57	58332.29
654.76	58631.30
654.96	58725.50
655.15	58496.13
655.34	58430.60
655.54	58553.47
655.73	58823.81
655.92	58483.84
656.12	58623.11
656.31	58360.97
656.50	58467.46
656.70	58569.86
656.89	58817.66
657.08	58778.75
657.28	58889.34
657.47	58815.61
657.66	58664.06
657.86	59327.61
658.05	58635.39
658.24	58850.43
658.43	58776.70
658.63	59167.87
658.82	59069.56
659.01	59262.07
659.21	59331.70
659.40	58633.35
659.59	59036.80
659.79	58936.44
659.98	59102.33
660.17	58905.73
660.36	58922.11
660.56	58852.48
660.75	58811.52
660.94	59339.89
661.14	59126.91
661.33	58868.86
661.52	58655.87
661.71	59229.30
661.91	58866.81
662.10	58881.15
662.29	59376.76
662.49	58823.81
662.68	58905.73
662.87	59055.23
663.06	58836.09
663.26	58836.09
663.45	59290.74
663.64	58614.91
663.83	59204.73
664.03	59176.06
664.22	59184.25
664.41	59368.57
664.60	58915.96
664.80	58903.68
664.99	58991.74
665.18	58741.89
665.37	59237.50
665.57	59522.16
665.76	59026.56
665.95	58846.33
666.14	58958.97
666.34	59073.66
666.53	58881.15
666.72	59167.87
666.91	58985.60
667.11	58868.86
667.30	59331.70
667.49	59163.77
667.68	59329.65
667.87	58846.33
668.07	59262.07
668.26	58965.12
668.45	59339.89
668.64	58545.28
668.84	59503.73
669.03	59036.80
669.22	58637.44
669.41	59174.01
669.60	59251.83
669.80	58807.42
669.99	58995.84
670.18	58911.87
670.37	59133.05
670.57	59524.21
670.76	58741.89
670.95	59442.29
671.14	59104.38
671.33	58969.21
671.53	59456.63
671.72	59034.75
671.91	58872.96
672.10	58850.43
672.29	58936.44
672.48	58969.21
672.68	59135.10
672.87	58848.38
673.06	58823.81
673.25	58588.29
673.44	58561.67
673.64	59126.91
673.83	58842.24
674.02	58942.59
674.21	58387.59
674.40	59569.27
674.59	58766.46
674.79	58922.11
674.98	58522.76
675.17	58809.47
675.36	58311.81
675.55	58799.23
675.74	58627.20
675.94	58391.68
676.13	59090.04
676.32	58688.64
676.51	59145.34
676.70	59020.41
676.89	58657.92
677.08	58670.21
677.28	58553.47
677.47	58944.64
677.66	59141.24
677.85	58905.73
678.04	58918.01
678.23	58850.43
678.42	58571.91
678.62	59020.41
678.81	59036.80
679.00	58834.05
679.19	59532.40
679.38	58500.23
679.57	58995.84
679.76	58639.49
679.96	58995.84
680.15	58461.32
680.34	58768.51
680.53	58926.20
680.72	58940.54
680.91	58764.42
681.10	58541.19
681.29	59161.72
681.48	58836.09
681.68	58791.04
681.87	58662.02
682.06	58393.73
682.25	57934.99
682.44	58637.44
682.63	58700.93
682.82	58434.69
683.01	58350.73
683.20	58502.28
683.39	58377.35
683.59	58309.77
683.78	58242.18
683.97	58358.92
684.16	58281.09
684.35	58078.35
684.54	58420.36
684.73	58313.86
684.92	58313.86
685.11	57957.52
685.30	58541.19
685.49	58600.58
685.69	57969.80
685.88	58111.11
686.07	58043.53
686.26	57799.82
686.45	58248.33
686.64	57990.28
686.83	58018.95
687.02	57965.71
687.21	58162.31
687.40	58201.22
687.59	57607.31
687.78	58061.96
687.97	58133.64
688.16	57767.05
688.35	57840.78
688.54	57556.11
688.74	58084.49
688.93	57599.12
689.12	57597.07
689.31	57750.67
689.50	58311.81
689.69	57685.14
689.88	56997.02
690.07	57939.08
690.26	57263.25
690.45	57668.75
690.64	57584.79
690.83	57619.60
691.02	57730.19
691.21	57527.44
691.40	57308.31
691.59	57812.11
691.78	57765.01
691.97	57539.73
692.16	57382.04
692.35	57472.15
692.54	57400.47
692.73	57697.42
692.92	57128.09
693.11	57463.96
693.30	57343.12
693.49	57564.31
693.68	57169.05
693.87	57578.64
694.06	57171.10
694.25	57042.07
694.44	57308.31
694.63	57167.00
694.82	57062.55
695.01	57515.15
695.20	57187.48
695.39	56978.59
695.58	56986.78
695.77	57070.75
695.96	56257.70
696.15	56921.24
696.34	56677.54
696.53	56556.70
696.72	56769.69
696.91	56925.34
697.10	56622.24
697.29	56718.49
697.48	57011.35
697.67	56683.68
697.86	56743.07
698.05	56489.12
698.24	56417.44
698.43	55962.79
698.62	56425.64
698.81	56237.22
699.00	57134.23
699.19	56110.25
699.38	56444.07
699.57	55899.31
699.76	56933.53
699.95	55981.23
700.14	55833.77
700.32	56093.86
700.51	56183.97
700.70	56665.25
700.89	56300.71
701.08	56331.43
701.27	55655.60
701.46	56788.13
701.65	55641.26
701.84	55866.54
702.03	56036.52
702.22	56237.22
702.41	55901.36
702.60	56360.10
702.79	55600.30
702.98	55538.86
703.17	55780.52
703.35	55420.08
703.54	55358.64
703.73	56075.43
703.92	55633.07
704.11	55948.46
704.30	55663.79
704.49	55559.34
704.68	55336.12
704.87	55891.12
705.06	55237.81
705.25	55489.71
705.43	55499.95
705.62	55491.76
705.81	55735.47
706.00	55526.58
706.19	54725.82
706.38	55172.28
706.57	55669.93
706.76	55035.06
706.95	55475.38
707.14	54949.05
707.32	54957.24
707.51	54817.98
707.70	55289.01
707.89	54764.73
708.08	54967.48
708.27	55545.01
708.46	55368.88
708.65	55164.09
708.84	55628.98
709.02	55186.61
709.21	55252.15
709.40	54658.24
709.59	54598.85
709.78	54664.38
709.97	54865.08
710.16	54670.53
710.34	54682.81
710.53	54213.83
710.72	54564.03
710.91	54367.43
711.10	54572.22
711.29	54811.84
711.48	54957.24
711.66	54273.22
711.85	54277.32
712.04	54650.05
712.23	54793.40
712.42	54377.67
712.61	54252.74
712.80	54310.08
712.98	54301.89
713.17	54000.84
713.36	54187.21
713.55	54142.15
713.74	54467.78
713.93	54191.30
714.11	53886.15
714.30	53916.87
714.49	53413.07
714.68	54303.94
714.87	54064.33
715.06	53888.20
715.24	54013.13
715.43	53826.76
715.62	53419.22
715.81	53400.79
716.00	53761.23
716.18	53019.86
716.37	53384.40
716.56	53527.76
716.75	54056.14
716.94	53613.77
717.12	53212.37
717.31	53720.27
717.50	52964.57
717.69	53404.88
717.88	53124.31
718.06	53314.77
718.25	53114.07
718.44	53066.97
718.63	52866.27
718.82	52946.14
719.00	52825.31
719.19	52837.59
719.38	52733.15
719.57	52436.19
719.76	52382.94
719.94	52364.51
720.13	52546.78
720.32	52452.58
720.51	52536.54
720.69	52165.86
720.88	52483.30
721.07	52391.14
721.26	52247.78
721.44	51989.73
721.63	52057.32
721.82	52468.96
722.01	51930.34
722.20	52184.29
722.38	51885.29
722.57	51561.71
722.76	51600.62
722.95	51485.93
723.13	51293.43
723.32	51598.57
723.51	51242.23
723.70	51238.13
723.88	51590.38
724.07	51041.53
724.26	51109.11
724.44	50586.88
724.63	51328.24
724.82	51094.77
725.01	50777.34
725.19	51250.42
725.38	50955.51
725.57	50750.71
725.76	51307.76
725.94	50719.99
726.13	50935.03
726.32	50816.25
726.51	50574.59
726.69	51315.95
726.88	51098.87
727.07	50783.48
727.25	50828.54
727.44	50722.04
727.63	50658.56
727.82	50959.61
728.00	51193.07
728.19	50525.44
728.38	51252.47
728.56	50355.46
728.75	50984.18
728.94	50345.22
729.12	50988.28
729.31	50396.42
729.50	50269.44
729.69	50709.75
729.87	50509.05
730.06	50685.18
730.25	50691.32
730.43	50988.28
730.62	50398.46
730.81	50713.85
730.99	50531.58
731.18	50410.75
731.37	50609.40
731.55	50793.72
731.74	50781.43
731.93	50730.23
732.11	50384.13
732.30	50668.79
732.49	50076.93
732.67	50623.74
732.86	50550.01
733.05	50410.75
733.23	50197.76
733.42	50369.79
733.61	50087.17
733.79	49978.63
733.98	50812.15
734.17	50246.91
734.35	49999.11
734.54	50304.26
734.73	50738.43
734.91	50326.78
735.10	50113.80
735.29	50525.44
735.47	49747.21
735.66	50058.50
735.84	49890.57
736.03	49497.36
736.22	50205.95
736.40	49870.09
736.59	50287.87
736.78	50173.19
736.96	50033.92
737.15	50324.74
737.33	49937.67
737.52	49933.57
737.71	49849.61
737.89	49933.57
738.08	49276.18
738.27	49720.59
738.45	49970.44
738.64	49882.37
738.82	49714.44
739.01	49251.60
739.20	49452.30
739.38	49571.08
739.57	49620.23
739.75	49202.45
739.94	49278.22
740.13	49906.95
740.31	49173.78
740.50	49489.16
740.68	49282.32
740.87	49521.93
741.06	49067.28
741.24	49122.58
741.43	49149.20
741.61	49419.53
741.80	49093.91
741.99	49345.81
742.17	49233.17
742.36	49362.19
742.54	49014.04
742.73	48985.36
742.91	48973.08
743.10	48846.10
743.29	48934.17
743.47	49063.19
743.66	48995.60
743.84	49179.92
744.03	49222.93
744.21	48645.40
744.40	49200.40
744.59	48538.91
744.77	48596.25
744.96	48684.31
745.14	48516.38
745.33	48844.05
745.51	48424.22
745.70	48121.12
745.88	48475.42
746.07	48293.15
746.26	48063.78
746.44	48422.17
746.63	48162.08
746.81	48702.74
747.00	48147.75
747.18	48543.00
747.37	48092.45
747.55	48794.90
747.74	48497.95
747.92	48026.92
748.11	47949.09
748.29	48137.51
748.48	48504.09
748.66	47795.49
748.85	48131.36
749.03	48354.59
749.22	48391.45
749.41	48094.50
749.59	48291.10
749.78	47899.94
749.96	47295.79
750.15	47953.19
750.33	47875.37
750.52	47854.89
750.70	48137.51
750.89	47854.89
751.07	47643.94
751.26	47668.52
751.44	47246.64
751.63	47766.82
751.81	47250.74
752.00	47418.67
752.18	47557.93
752.37	47414.57
752.55	47400.24
752.74	47443.24
752.92	47062.32
753.10	47166.77
753.29	47469.87
753.47	46982.45
753.66	46888.24
753.84	47246.64
754.03	47060.27
754.21	46826.81
754.40	47459.63
754.58	46703.93
754.77	46955.83
754.95	46865.72
755.14	46927.16
755.32	46417.21
755.51	46464.32
755.69	46667.06
755.88	46904.63
756.06	46888.24
756.24	46638.39
756.43	46142.78
756.61	46579.00
756.80	46357.82
756.98	46216.51
757.17	46622.01
757.35	46695.74
757.54	45894.98
757.72	46931.25
757.90	46202.18
758.09	46017.86
758.27	46183.74
758.46	45954.37
758.64	46060.87
758.83	46380.35
759.01	46069.06
759.19	46142.78
759.38	45651.27
759.56	45911.36
759.75	45698.37
759.93	45739.33
760.12	45471.05
760.30	45956.42
760.48	45684.04
760.67	45937.99
760.85	45620.55
761.04	46296.38
761.22	45958.47
761.40	45704.52
761.59	45882.69
761.77	45440.33
761.96	45598.02
762.14	45860.16
762.32	45358.41
762.51	45180.24
762.69	45231.44
762.88	45321.55
763.06	45395.28
763.24	45301.07
763.43	45192.53
763.61	44899.67
763.80	44926.29
763.98	44895.57
764.16	44971.35
764.35	44801.36
764.53	44455.26
764.72	44299.61
764.90	44592.47
765.08	44807.51
765.27	44778.84
765.45	44248.41
765.63	44477.79
765.82	44787.03
766.00	44340.57
766.18	44354.91
766.37	44420.44
766.55	44336.48
766.74	44254.56
766.92	44221.79
767.10	44045.66
767.29	43951.46
767.47	43775.33
767.65	44121.44
767.84	43685.22
768.02	44170.59
768.20	43775.33
768.39	43672.93
768.57	43834.72
768.75	43613.54
768.94	43535.72
769.12	43933.03
769.30	43378.03
769.49	43455.85
769.67	43257.20
769.85	42935.66
770.04	43265.39
770.22	43216.24
770.40	43228.52
770.59	43085.17
770.77	43054.45
770.95	42911.09
771.14	42993.01
771.32	42403.19
771.50	42947.95
771.69	42720.63
771.87	43343.21
772.05	43095.41
772.24	42513.78
772.42	42751.35
772.60	42739.06
772.78	42417.53
772.97	42411.38
773.15	42978.67
773.33	42808.69
773.52	42270.08
773.70	42538.36
773.88	42689.91
774.07	42478.97
774.25	42444.15
774.43	42712.44
774.61	42644.85
774.80	42755.44
774.98	42407.29
775.16	42509.69
775.34	42718.58
775.53	42243.45
775.71	42579.32
775.89	42915.19
776.08	42481.02
776.26	42665.33
776.44	42640.76
776.62	42349.95
776.81	42724.72
776.99	42755.44
777.17	42466.68
777.35	42868.08
777.54	43115.89
777.72	42481.02
777.90	42456.44
778.08	43230.57
778.27	42659.19
778.45	42710.39
778.63	42999.15
778.81	42589.56
779.00	43951.46
779.18	43156.85
779.36	43189.61
779.54	42755.44
779.73	42706.29
779.91	43136.37
780.09	43230.57
780.27	43117.93
780.46	43267.44
780.64	43271.53
780.82	43187.56
781.00	42933.62
781.19	43259.24
781.37	43302.25
781.55	43398.51
781.73	43740.52
781.91	43713.89
782.10	43220.33
782.28	43451.75
782.46	43300.20
782.64	43758.95
782.82	43066.73
783.01	43672.93
783.19	43744.61
783.37	43650.41
783.55	43312.49
783.74	43455.85
783.92	43115.89
784.10	43885.92
784.28	43810.15
784.46	42915.19
784.64	43064.69
784.83	43574.63
785.01	43767.14
785.19	43709.80
785.37	43728.23
785.55	43545.96
785.74	43111.79
785.92	43212.14
786.10	43644.26
786.28	43574.63
786.46	43257.20
786.64	42841.46
786.83	43054.45
787.01	43226.48
787.19	43056.50
787.37	43074.93
787.55	43388.27
787.74	43087.21
787.92	43029.87
788.10	42857.84
788.28	42438.01
788.46	42982.77
788.64	42689.91
788.82	42902.90
789.01	42833.27
789.19	42941.81
789.37	42483.06
789.55	42624.37
789.73	42407.29
789.91	42478.97
790.09	42374.52
790.28	42356.09
790.46	41936.26
790.64	42392.95
790.82	42188.16
791.00	41940.35
791.18	42134.91
791.36	42145.15
791.55	42175.87
791.73	42085.76
791.91	41616.77
792.09	41612.68
792.27	41577.86
792.45	41680.26
792.63	41516.42
792.81	41297.29
793.00	41368.97
793.18	41551.24
793.36	41158.03
793.54	40938.90
793.72	41141.64
793.90	41067.92
794.08	40682.90
794.26	40920.46
794.44	40664.47
794.62	40080.80
794.81	40471.96
794.99	40347.03
795.17	39957.92
795.35	40101.28
795.53	40080.80
795.71	40154.52
795.89	39785.89
796.07	39566.76
796.25	39826.85
796.43	39734.69
796.61	39191.98
796.80	39622.05
796.98	39550.37
797.16	39259.56
797.34	39370.15
797.52	39189.93
797.70	39015.85
797.88	39050.67
798.06	38901.17
798.24	39118.25
798.42	38964.65
798.60	38755.76
798.78	38419.89
798.96	38516.15
799.14	38495.67
799.32	38624.69
799.51	38399.41
799.69	38407.61
799.87	38421.94
800.05	38174.14
800.23	38092.22
800.41	37948.86
800.59	38108.60
800.77	37690.82
800.95	37627.33
801.13	37707.20
801.31	37477.83
801.49	37494.21
801.67	37287.37
801.85	37418.44
802.03	37146.06
802.21	36781.52
802.39	36758.99
802.57	36867.53
802.75	37070.28
802.93	36748.75
803.11	37057.99
803.29	36783.57
803.47	36560.34
803.65	36494.80
803.83	36496.85
804.01	36376.02
804.19	35698.14
804.37	36023.77
804.55	36173.27
804.73	36408.79
804.91	36099.55
805.09	36089.31
805.27	35696.10
805.45	35886.56
805.63	35720.67
805.81	35622.37
805.99	35939.80
806.17	35622.37
806.35	35487.20
806.53	35188.20
806.71	35173.86
806.89	35292.65
807.07	35210.73
807.25	35511.78
807.43	35151.34
807.61	35290.60
807.79	34981.35
807.97	34602.48
808.15	34782.70
808.33	34473.46
808.51	34901.48
808.69	34500.08
808.87	34412.02
809.05	34371.06
809.23	34301.43
809.41	34110.97
809.59	34260.47
809.77	34670.06
809.95	34248.18
810.13	34567.66
810.31	33609.22
810.49	34051.58
810.67	34047.48
810.84	33752.57
811.02	33781.24
811.20	33334.79
811.38	33494.53
811.56	33383.94
811.74	33498.62
811.92	33173.00
812.10	33531.39
812.28	33527.30
812.46	33392.13
812.64	33269.25
812.82	32718.35
813.00	32908.81
813.18	33009.16
813.36	32818.70
813.53	32511.50
813.71	32525.84
813.89	32742.92
814.07	32941.58
814.25	32853.51
814.43	32431.63
814.61	32505.36
814.79	32445.97
814.97	32499.22
815.15	32263.70
815.33	32095.77
815.50	31886.87
815.68	32183.83
815.86	32079.38
816.04	32052.76
816.22	32079.38
816.40	32038.42
816.58	32196.12
816.76	31708.70
816.94	31538.72
817.11	32069.14
817.29	31776.28
817.47	31499.81
817.65	31454.75
817.83	31264.29
818.01	31020.58
818.19	31270.43
818.37	31069.73
818.54	31047.21
818.72	30877.22
818.90	30856.75
819.08	31114.79
819.26	31051.30
819.44	31252.00
819.62	30819.88
819.80	31071.78
819.97	31028.77
820.15	30703.15
820.33	30524.97
820.51	30438.96
820.69	30322.23
820.87	30461.49
821.05	31211.04
821.22	30733.87
821.40	30441.01
821.58	30094.90
821.76	30385.71
821.94	30318.13
822.12	30383.66
822.29	30086.71
822.47	30213.68
822.65	30387.76
822.83	30408.24
823.01	30479.92
823.19	29738.55
823.36	29965.88
823.54	29636.16
823.72	29582.91
823.90	29656.64
824.08	29193.79
824.25	29752.89
824.43	29320.77
824.61	29498.94
824.79	29519.42
824.97	29523.52
825.15	29333.06
825.32	29582.91
825.50	29290.05
825.68	29144.64
825.86	29257.28
826.04	29382.21
826.21	29101.64
826.39	29414.98
826.57	29058.63
826.75	29058.63
826.93	28843.59
827.10	28948.04
827.28	28880.46
827.46	29042.24
827.64	29013.57
827.81	28962.37
827.99	28876.36
828.17	28589.64
828.35	28749.39
828.53	28544.59
828.70	28677.71
828.88	28620.36
829.06	28706.38
829.24	29087.30
829.41	28292.69
829.59	28626.51
829.77	28434.00
829.95	28558.92
830.12	28440.14
830.30	28233.30
830.48	28321.36
830.66	28272.21
830.84	28128.85
831.01	27981.40
831.19	28048.98
831.37	28071.51
831.55	27897.43
831.72	27932.25
831.90	28008.02
832.08	28282.45
832.25	27979.35
832.43	27690.59
832.61	27872.85
832.79	27676.25
832.96	27717.21
833.14	27756.12
833.32	27833.94
833.50	27698.78
833.67	27866.71
833.85	27510.36
834.03	27182.69
834.20	27663.96
834.38	27524.70
834.56	27559.52
834.74	27231.84
834.91	27235.94
835.09	27256.42
835.27	26885.73
835.44	27237.98
835.62	26957.41
835.80	26766.95
835.98	27106.91
836.15	26803.82
836.33	27002.47
836.51	26990.18
836.68	26926.69
836.86	27025.00
837.04	27240.03
837.21	26789.48
837.39	26777.19
837.57	27049.57
837.75	26979.94
837.92	26322.54
838.10	26576.49
838.28	26437.23
838.45	26590.83
838.63	26115.70
838.81	26629.74
838.98	26490.48
839.16	26383.98
839.34	26412.65
839.51	26656.36
839.69	25996.92
839.87	25990.77
840.04	26240.62
840.22	26328.69
840.40	26023.54
840.57	26152.56
840.75	25816.69
840.93	25593.47
841.10	26302.06
841.28	26287.73
841.46	25806.45
841.63	26044.02
841.81	25919.09
841.98	25972.34
842.16	25716.34
842.34	25986.68
842.51	25517.69
842.69	25880.18
842.87	25685.62
843.04	25769.59
843.22	25702.01
843.40	25849.46
843.57	25312.89
843.75	25589.37
843.92	25681.53
844.10	25534.07
844.28	25325.18
844.45	25364.09
844.63	25476.73
844.81	25181.82
844.98	25296.51
845.16	25235.07
845.33	25282.17
845.51	25095.81
845.69	25190.02
845.86	25001.60
846.04	25087.62
846.21	25040.51
846.39	25349.76
846.57	25104.00
846.74	24913.54
846.92	25032.32
847.09	24616.58
847.27	24690.31
847.45	24659.59
847.62	24866.44
847.80	25167.49
847.97	24800.90
848.15	24653.45
848.32	24331.92
848.50	24565.39
848.68	24419.98
848.85	24407.69
849.03	24221.33
849.20	24583.82
849.38	24581.77
849.56	24639.11
849.73	24313.48
849.91	24284.81
850.08	24549.00
850.26	24061.58
850.43	24065.68
850.61	24196.75
850.78	24129.17
850.96	24061.58
851.14	23922.32
851.31	24223.37
851.49	23985.81
851.66	24358.54
851.84	24088.21
852.01	24143.50
852.19	24196.75
852.36	23852.69
852.54	23852.69
852.71	23643.80
852.89	23574.17
853.07	23862.93
853.24	23787.16
853.42	23707.29
853.59	23727.77
853.77	23912.08
853.94	23641.75
854.12	23635.61
854.29	23393.95
854.47	23781.01
854.64	23588.50
854.82	23367.32
854.99	23674.52
855.17	23183.01
855.34	23127.71
855.52	23504.54
855.69	23516.83
855.87	23162.53
856.04	23076.51
856.22	23297.69
856.39	22824.61
856.57	23119.52
856.74	23137.95
856.92	23195.29
857.09	23312.03
857.27	22935.20
857.44	23103.14
857.62	23269.02
857.79	22935.20
857.97	22927.01
858.14	23234.21
858.32	23205.53
858.49	22924.96
858.67	22779.56
858.84	22791.84
859.02	23002.78
859.19	22740.64
859.37	22574.76
859.54	22638.25
859.72	22761.12
859.89	22744.74
860.06	22654.63
860.24	22650.53
860.41	22664.87
860.59	22304.43
860.76	22546.09
860.94	22134.45
861.11	22714.02
861.29	22507.18
861.46	22345.39
861.64	22380.20
861.81	22126.25
861.98	22320.81
862.16	22296.24
862.33	21952.18
862.51	22212.27
862.68	22226.60
862.86	21907.12
863.03	22009.52
863.21	22019.76
863.38	22429.35
863.55	21741.24
863.73	21989.04
863.90	22091.44
864.08	21960.37
864.25	21774.00
864.43	21939.89
864.60	21726.90
864.77	21513.91
864.95	21657.27
865.12	21446.33
865.30	21669.56
865.47	21747.38
865.64	21731.00
865.82	21687.99
865.99	21636.79
866.17	21470.90
866.34	21630.65
866.51	21427.90
866.69	21567.16
866.86	21388.99
867.04	20997.82
867.21	21417.66
867.38	21145.28
867.56	21270.20
867.73	21288.64
867.91	21188.28
868.08	21460.66
868.25	20907.71
868.43	21083.84
868.60	21092.03
868.78	20745.92
868.95	21227.20
869.12	20965.06
869.30	20733.64
869.47	21186.24
869.64	20358.86
869.82	20872.90
869.99	20326.09
870.16	20758.21
870.34	20721.35
870.51	20655.81
870.69	20743.88
870.86	20518.60
871.03	20487.88
871.21	20498.12
871.38	20627.14
871.55	20457.16
871.73	20491.98
871.90	20276.94
872.07	20432.58
872.25	19965.65
872.42	20158.16
872.59	20121.29
872.77	19998.41
872.94	19957.46
873.11	20135.63
873.29	20229.84
873.46	19818.19
873.63	19967.70
873.81	19881.68
873.98	19703.51
874.15	19875.54
874.33	19445.46
874.50	19578.58
874.67	19775.19
874.85	19560.15
875.02	19801.81
875.19	19502.81
875.37	19287.77
875.54	19640.02
875.71	19388.12
875.88	19187.42
876.06	19205.85
876.23	19365.59
876.40	18999.01
876.58	19226.33
876.75	19216.09
876.92	19039.97
877.10	19410.65
877.27	18859.74
877.44	18949.85
877.61	18951.90
877.79	18945.76
877.96	18769.63
878.13	19148.51
878.31	18837.22
878.48	18712.29
878.65	18816.74
878.82	18433.77
879.00	18536.17
879.17	18657.00
879.34	18632.42
879.51	18652.90
879.69	18476.77
879.86	18630.37
880.03	18726.63
880.21	18376.42
880.38	18661.09
880.55	18595.56
880.72	18556.64
880.90	18073.32
881.07	18222.83
881.24	18347.75
881.41	18419.43
881.59	18245.35
881.76	18122.48
881.93	18142.96
882.10	17884.91
882.28	18093.80
882.45	18300.65
882.62	18073.32
882.79	17837.81
882.96	17905.39
883.14	17925.87
883.31	18091.76
883.48	17788.66
883.65	17706.74
883.83	17843.95
884.00	18003.69
884.17	17786.61
884.34	17870.58
884.51	17860.34
884.69	17575.67
884.86	17854.19
885.03	17538.80
885.20	17549.04
885.38	17751.79
885.55	17624.82
885.72	17757.94
885.89	17495.80
886.06	17540.85
886.24	17491.70
886.41	17581.81
886.58	17706.74
886.75	17440.50
886.92	17479.41
887.10	17673.97
887.27	17145.59
887.44	17313.53
887.61	17667.83
887.78	17520.37
887.95	17540.85
888.13	17047.29
888.30	16756.48
888.47	16926.46
888.64	17004.28
888.81	17123.07
888.99	16994.04
889.16	17039.10
889.33	16981.76
889.50	16799.49
889.67	16910.08
889.84	16680.71
890.01	16860.93
890.19	16756.48
890.36	16721.66
890.53	16869.12
890.70	16723.71
890.87	16727.81
891.04	16588.55
891.22	16703.23
891.39	16621.31
891.56	16441.09
891.73	16402.18
891.90	16621.31
892.07	16580.36
892.24	16453.38
892.42	16518.92
892.59	16408.33
892.76	16191.24
892.93	16324.36
893.10	16420.61
893.27	16217.86
893.44	16074.51
893.61	16236.30
893.79	16318.22
893.96	16273.16
894.13	16289.54
894.30	16262.92
894.47	16461.57
894.64	16318.22
894.81	16295.69
894.98	16246.54
895.15	16416.52
895.33	16119.56
895.50	16125.71
895.67	16211.72
895.84	16217.86
896.01	16181.00
896.18	16051.98
896.35	16269.06
896.52	15871.76
896.69	16084.75
896.86	16281.35
897.04	16191.24
897.21	16066.31
897.38	16230.15
897.55	16088.84
897.72	16146.19
897.89	16156.43
898.06	16146.19
898.23	16101.13
898.40	16178.95
898.57	16123.66
898.74	16015.12
898.91	16127.75
899.08	16006.92
899.26	16137.99
899.43	16023.31
899.60	15970.06
899.77	16015.12
899.94	16019.21
900.11	15931.15
900.28	16142.09
900.45	15957.77
900.62	15922.96
900.79	16135.95
900.96	15765.26
901.13	15697.68
901.30	15867.66
901.47	15828.75
901.64	16037.64
901.81	16080.65
901.98	15875.85
902.15	15922.96
902.32	15490.84
902.49	16021.26
902.66	15886.09
902.83	15824.65
903.01	15953.68
903.18	15769.36
903.35	15867.66
903.52	15654.67
903.69	16099.08
903.86	15918.86
904.03	16076.55
904.20	16086.79
904.37	15810.32
904.54	15818.51
904.71	15867.66
904.88	15664.91
905.05	15640.34
905.22	15922.96
905.39	15841.04
905.56	15568.66
905.73	15617.81
905.90	15755.02
906.07	15714.06
906.24	15656.72
906.41	15908.62
906.58	15820.56
906.75	15875.85
906.92	15785.74
907.09	15638.29
907.26	15818.51
907.43	15632.15
907.60	15947.53
907.77	15879.95
907.93	15916.81
908.10	15795.98
908.27	15853.33
908.44	15732.50
908.61	15830.80
908.78	15597.33
908.95	15838.99
909.12	15634.19
909.29	15742.74
909.46	15746.83
909.63	15664.91
909.80	15656.72
909.97	15718.16
910.14	15652.63
910.31	15558.42
910.48	15499.03
910.65	15638.29
910.82	15296.28
910.99	15249.18
911.16	15654.67
911.33	15427.35
911.50	15415.06
911.66	15560.47
911.83	15447.83
912.00	15138.58
912.17	15095.58
912.34	14999.32
912.51	15148.82
912.68	15216.41
912.85	15349.53
913.02	15388.44
913.19	15111.96
913.36	15230.74
913.53	15275.80
913.70	15032.09
913.86	15226.65
914.03	15171.35
914.20	14987.04
914.37	15144.73
914.54	14927.64
914.71	14909.21
914.88	14925.60
915.05	14798.62
915.22	14937.88
915.39	14903.07
915.55	14827.29
915.72	14546.72
915.89	14530.34
916.06	14579.49
916.23	14866.21
916.40	14290.73
916.57	14700.32
916.74	14470.95
916.91	14573.35
917.07	14597.92
917.24	14282.53
917.41	14663.46
917.58	14559.01
917.75	14507.81
917.92	14079.79
918.09	14268.20
918.26	14354.21
918.42	14305.06
918.59	14219.05
918.76	13938.48
918.93	14151.46
919.10	14126.89
919.27	13940.52
919.44	14126.89
919.60	14098.22
919.77	13778.73
919.94	13936.43
920.11	13965.10
920.28	13674.29
920.45	13485.87
920.61	13760.30
920.78	13657.90
920.95	13549.36
921.12	13510.45
921.29	13483.83
921.46	13537.07
921.62	13383.48
921.79	13305.65
921.96	13578.03
922.13	13326.13
922.30	13086.52
922.47	13100.86
922.63	12988.22
922.80	13158.20
922.97	13119.29
923.14	12885.82
923.31	13207.35
923.47	12752.70
923.64	13072.18
923.81	12822.33
923.98	12963.64
924.15	12640.06
924.32	13037.37
924.48	12617.54
924.65	12963.64
924.82	12480.32
924.99	12463.94
925.15	12345.16
925.32	12568.38
925.49	12420.93
925.66	12279.62
925.83	12105.54
925.99	12166.98
926.16	12164.93
926.33	12164.93
926.50	11829.07
926.67	12013.38
926.83	11999.05
927.00	11908.94
927.17	11831.12
927.34	11929.42
927.50	11904.84
927.67	11882.31
927.84	11800.40
928.01	11845.45
928.17	11771.72
928.34	11861.84
928.51	11513.68
928.68	11675.47
928.84	11501.39
929.01	11306.84
929.18	11321.17
929.35	11388.75
929.51	11179.86
929.68	10942.30
929.85	10940.25
930.02	11059.03
930.18	10923.87
930.35	11265.88
930.52	10940.25
930.69	11161.43
930.85	10942.30
931.02	10837.85
931.19	10674.01
931.36	10590.05
931.52	10712.92
931.69	10790.75
931.86	10624.86
932.02	10354.53
932.19	10424.16
932.36	10571.61
932.53	10676.06
932.69	10260.32
932.86	10254.18
933.03	10313.57
933.19	10073.96
933.36	10205.03
933.53	10211.17
933.70	10076.01
933.86	10215.27
934.03	10039.14
934.20	9897.83
934.36	9838.44
934.53	9635.69
934.70	9359.22
934.86	9598.83
935.03	9486.19
935.20	9389.94
935.36	9322.35
935.53	9430.90
935.70	9211.76
935.86	9262.96
936.03	9131.89
936.20	9062.26
936.36	8879.99
936.53	8755.07
936.70	8818.55
936.86	8896.38
937.03	8923.00
937.20	8603.52
937.36	8615.80
937.53	8415.10
937.70	8077.19
937.86	8204.16
938.03	8167.30
938.20	8312.71
938.36	7974.79
938.53	8069.00
938.70	7749.51
938.86	7851.91
939.03	7612.30
939.20	7569.29
939.36	7634.83
939.53	7432.08
939.70	7602.06
939.86	7188.37
940.03	7063.44
940.19	7112.60
940.36	7006.10
940.53	7102.36
940.69	7038.87
940.86	6948.76
941.03	6647.71
941.19	6690.71
941.36	6610.84
941.52	6606.75
941.69	6447.01
941.86	6408.09
942.02	6385.57
942.19	6401.95
942.35	6401.95
942.52	6061.99
942.69	6303.65
942.85	6096.80
943.02	6100.90
943.18	6076.32
943.35	5957.54
943.52	5959.59
943.68	5869.48
943.85	5885.86
944.01	5803.94
944.18	5799.85
944.35	5875.62
944.51	5650.35
944.68	5564.33
944.84	5687.21
945.01	5652.39
945.17	5728.17
945.34	5648.30
945.51	5783.46
945.67	5615.53
945.84	5597.10
946.00	5412.78
946.17	5425.07
946.33	5517.23
946.50	5564.33
946.67	5541.80
946.83	5560.24
947.00	5478.32
947.16	5521.32
947.33	5445.55
947.49	5490.60
947.66	5431.21
947.82	5474.22
947.99	5463.98
948.16	5480.36
948.32	5531.56
948.49	5441.45
948.65	5539.76
948.82	5461.93
948.98	5382.06
949.15	5423.02
949.31	5506.99
949.48	5351.34
949.64	5382.06
949.81	5455.79
949.97	5517.23
950.14	5398.45
950.30	5425.07
950.47	5535.66
950.63	5365.68
950.80	5398.45
950.96	5425.07
951.13	5259.18
951.30	5504.94
951.46	5578.67
951.63	5640.11
951.79	5525.42
951.96	5519.28
952.12	5547.95
952.29	5605.29
952.45	5574.57
952.62	5633.96
952.78	5623.72
952.94	5582.76
953.11	5586.86
953.27	5359.53
953.44	5742.50
953.60	5640.11
953.77	5646.25
953.93	5636.01
954.10	5668.78
954.26	5736.36
954.43	5599.15
954.59	5674.92
954.76	5752.74
954.92	5627.82
955.09	5711.78
955.25	5621.67
955.42	5619.63
955.58	5601.19
955.75	5640.11
955.91	5560.24
956.07	5681.07
956.24	5564.33
956.40	5590.95
956.57	5705.64
956.73	5621.67
956.90	5640.11
957.06	5629.87
957.23	5722.02
957.39	5529.52
957.56	5625.77
957.72	5697.45
957.88	5506.99
958.05	5683.11
958.21	5844.90
958.38	5795.75
958.54	5693.35
958.71	5633.96
958.87	5695.40
959.03	5685.16
959.20	5615.53
959.36	5543.85
959.53	5398.45
959.69	5423.02
959.85	5730.22
960.02	5625.77
960.18	5689.26
960.35	5760.94
960.51	5771.18
960.68	5648.30
960.84	5691.31
961.00	5726.12
961.17	5724.07
961.33	5693.35
961.50	5652.39
961.66	5887.91
961.82	5666.73
961.99	5709.74
962.15	5672.87
962.31	5550.00
962.48	5656.49
962.64	5617.58
962.81	5648.30
962.97	5527.47
963.13	5674.92
963.30	5613.48
963.46	5523.37
963.62	5509.04
963.79	5613.48
963.95	5459.88
964.12	5498.80
964.28	5537.71
964.44	5443.50
964.61	5584.81
964.77	5609.39
964.93	5607.34
965.10	5543.85
965.26	5418.93
965.42	5541.80
965.59	5521.32
965.75	5357.49
965.92	5398.45
966.08	5406.64
966.24	5701.54
966.41	5625.77
966.57	5496.75
966.73	5498.80
966.90	5392.30
967.06	5484.46
967.22	5476.27
967.39	5433.26
967.55	5283.76
967.71	5337.01
967.88	5451.69
968.04	5355.44
968.20	5261.23
968.37	5275.57
968.53	5222.32
968.69	5418.93
968.85	5402.54
969.02	5380.01
969.18	5357.49
969.34	5347.25
969.51	5353.39
969.67	5228.46
969.83	5300.14
970.00	5355.44
970.16	5177.26
970.32	5279.66
970.48	5380.01
970.65	5238.70
970.81	5113.78
970.97	5181.36
971.14	5177.26
971.30	5269.42
971.46	5162.93
971.63	5162.93
971.79	5222.32
971.95	5207.98
972.11	5142.45
972.28	5201.84
972.44	5142.45
972.60	5083.06
972.76	5132.21
972.93	5103.54
973.09	5044.15
973.25	5146.55
973.42	4982.71
973.58	5205.94
973.74	5224.37
973.90	5003.19
974.07	5078.96
974.23	4947.89
974.39	5107.63
974.55	5107.63
974.72	5007.28
974.88	4816.82
975.04	4937.65
975.20	4894.65
975.37	4976.56
975.53	4863.93
975.69	4935.60
975.85	4837.30
976.01	4951.99
976.18	4941.75
976.34	4919.22
976.50	4804.53
976.66	4890.55
976.83	4919.22
976.99	4894.65
977.15	4886.45
977.31	4747.19
977.47	4859.83
977.64	4857.78
977.80	4878.26
977.96	4687.80
978.12	4882.36
978.29	4720.57
978.45	4657.08
978.61	4648.89
978.77	4839.35
978.93	4544.44
979.10	4767.67
979.26	4648.89
979.42	4870.07
979.58	4599.74
979.74	4560.83
979.91	4749.24
980.07	4698.04
980.23	4575.16
980.39	4642.75
980.55	4532.15
980.71	4685.75
980.88	4536.25
981.04	4577.21
981.20	4468.67
981.36	4665.27
981.52	4499.39
981.68	4444.09
981.85	4620.22
982.01	4468.67
982.17	4489.15
982.33	4411.32
982.49	4564.92
982.65	4265.92
982.82	4308.93
982.98	4523.96
983.14	4323.26
983.30	4442.04
983.46	4458.43
983.62	4280.25
983.79	4417.47
983.95	4466.62
984.11	4239.30
984.27	4229.06
984.43	4362.17
984.59	4229.06
984.75	4407.23
984.91	4188.10
985.08	4454.33
985.24	4280.25
985.40	4126.66
985.56	4298.69
985.72	4272.06
985.88	4296.64
986.04	4224.96
986.20	4071.36
986.37	4288.45
986.53	4130.75
986.69	4136.90
986.85	4134.85
987.01	4059.07
987.17	4280.25
987.33	4106.18
987.49	4077.51
987.65	4157.38
987.82	4108.23
987.98	4011.97
988.14	4079.55
988.30	4044.74
988.46	4028.35
988.62	4095.94
988.78	3995.59
988.94	3989.44
989.10	3946.44
989.26	3958.72
989.42	3923.91
989.59	3864.52
989.75	3833.80
989.91	3942.34
990.07	3954.63
990.23	4024.26
990.39	3944.39
990.55	3989.44
990.71	3817.41
990.87	3993.54
991.03	3993.54
991.19	3807.17
991.35	3878.85
991.51	3872.71
991.67	3977.16
991.83	3852.23
992.00	3936.20
992.16	3837.89
992.32	3850.18
992.48	3864.52
992.64	3745.73
992.80	3745.73
992.96	3672.01
993.12	3817.41
993.28	3760.07
993.44	3821.51
993.60	3751.88
993.76	3844.04
993.92	3661.77
994.08	3770.31
994.24	3743.69
994.40	3577.80
994.56	3766.21
994.72	3674.06
994.88	3606.47
995.04	3712.97
995.20	3768.26
995.36	3575.75
995.52	3688.39
995.68	3559.37
995.84	3510.22
996.00	3608.52
996.16	3674.06
996.32	3588.04
996.48	3549.13
996.64	3651.53
996.80	3629.00
996.96	3489.74
997.12	3549.13
997.28	3471.31
997.44	3495.88
997.60	3499.98
997.76	3471.31
997.92	3526.60
998.08	3475.40
998.24	3416.01
998.40	3428.30
998.56	3536.84
998.72	3350.48
998.88	3428.30
999.04	3313.61
999.20	3405.77
999.36	3319.76
999.52	3375.05
999.68	3362.76
999.84	3454.92
1000.00	3366.86
1000.16	3444.68
1000.32	3309.52
1000.48	3407.82
1000.64	3274.70
1000.80	3356.62
1000.95	3231.69
1001.11	3264.46
1001.27	3233.74
1001.43	3186.64
1001.59	3233.74
1001.75	3198.93
1001.91	3190.74
1002.07	3125.20
1002.23	3178.45
1002.39	3162.06
1002.55	3119.06
1002.71	3178.45
1002.87	3168.21
1003.03	3133.39
1003.19	3145.68
1003.34	3268.56
1003.50	3166.16
1003.66	3227.60
1003.82	3112.91
1003.98	3180.50
1004.14	3106.77
1004.30	3114.96
1004.46	3114.96
1004.62	3186.64
1004.78	3086.29
1004.94	3002.32
1005.09	3094.48
1005.25	3123.15
1005.41	2951.12
1005.57	3080.14
1005.73	2994.13
1005.89	3020.75
1006.05	3082.19
1006.21	3030.99
1006.37	2955.22
1006.52	2910.16
1006.68	2834.39
1006.84	2928.60
1007.00	2942.93
1007.16	2977.75
1007.32	2934.74
1007.48	3041.23
1007.64	2936.79
1007.79	2981.84
1007.95	2834.39
1008.11	3033.04
1008.27	2871.25
1008.43	2842.58
1008.59	2846.68
1008.75	2910.16
1008.91	2912.21
1009.06	2861.01
1009.22	2897.88
1009.38	2885.59
1009.54	2871.25
1009.70	2777.05
1009.86	2797.53
1010.01	2822.10
1010.17	2772.95
1010.33	2873.30
1010.49	2719.70
1010.65	2891.73
1010.81	2826.20
1010.96	2756.57
1011.12	2795.48
1011.28	2754.52
1011.44	2906.07
1011.60	2805.72
1011.76	2750.42
1011.91	2779.09
1012.07	2652.12
1012.23	2654.17
1012.39	2654.17
1012.55	2734.04
1012.71	2701.27
1012.86	2703.32
1013.02	2713.56
1013.18	2617.30
1013.34	2590.68
1013.50	2699.22
1013.65	2867.16
1013.81	2674.65
1013.97	2564.06
1014.13	2762.71
1014.29	2564.06
1014.44	2699.22
1014.60	2617.30
1014.76	2641.88
1014.92	2623.45
1015.07	2678.74
1015.23	2523.10
1015.39	2572.25
1015.55	2549.72
1015.71	2574.30
1015.86	2510.81
1016.02	2527.19
1016.18	2521.05
1016.34	2572.25
1016.49	2664.41
1016.65	2607.06
1016.81	2621.40
1016.97	2533.34
1017.12	2535.39
1017.28	2437.08
1017.44	2508.76
1017.60	2568.15
1017.75	2549.72
1017.91	2508.76
1018.07	2508.76
1018.23	2441.18
1018.38	2494.43
1018.54	2451.42
1018.70	2523.10
1018.86	2424.80
1019.01	2387.93
1019.17	2455.51
1019.33	2412.51
1019.49	2377.69
1019.64	2533.34
1019.80	2523.10
1019.96	2439.13
1020.12	2484.19
1020.27	2346.97
1020.43	2410.46
1020.59	2387.93
1020.74	2385.88
1020.90	2453.47
1021.06	2357.21
1021.22	2371.55
1021.37	2428.89
1021.53	2269.15
1021.69	2346.97
1021.84	2308.06
1022.00	2351.07
1022.16	2392.03
1022.31	2308.06
1022.47	2359.26
1022.63	2367.45
1022.79	2201.57
1022.94	2367.45
1023.10	2488.28
1023.26	2248.67
1023.41	2269.15
1023.57	2297.82
1023.73	2299.87
1023.88	2322.40
1024.04	2260.96
1024.20	2248.67
1024.35	2351.07
1024.51	2312.16
1024.67	2265.05
1024.82	2351.07
1024.98	2191.33
1025.14	2207.71
1025.29	2250.72
1025.45	2246.62
1025.61	2246.62
1025.76	2269.15
1025.92	2256.86
1026.08	2252.77
1026.23	2213.85
1026.39	2226.14
1026.55	2213.85
1026.70	2197.47
1026.86	2170.85
1027.02	2207.71
1027.17	2248.67
1027.33	2215.90
1027.48	2224.09
1027.64	2131.94
1027.80	2140.13
1027.95	2224.09
1028.11	2052.06
1028.27	2129.89
1028.42	2289.63
1028.58	2111.46
1028.73	2133.98
1028.89	2017.25
1029.05	2222.05
1029.20	2183.13
>>>>>End Processed Spectral Data<<<<<
