SpectraSuite Data File
++++++++++++++++++++++++++++++++++++
Date: Fri Jun 02 14:41:57 CEST 2017
User: INFO_000
Dark Spectrum Present: No
Reference Spectrum Present: No
Number of Sampled Component Spectra: 1
Spectrometers: USB4H00879
Integration Time (usec): 80000 (USB4H00879)
Spectra Averaged: 1 (USB4H00879)
Boxcar Smoothing: 0 (USB4H00879)
Correct for Electrical Dark: No (USB4H00879)
Strobe/Lamp Enabled: No (USB4H00879)
Correct for Detector Non-linearity: No (USB4H00879)
Correct for Stray Light: No (USB4H00879)
Number of Pixels in Processed Spectrum: 3648
>>>>>Begin Processed Spectral Data<<<<<
345.13	1298.41
345.34	1298.41
345.56	1298.41
345.78	1290.22
345.99	1224.69
346.21	1705.96
346.42	1654.76
346.64	1675.24
346.86	1744.87
347.07	1687.53
347.29	1634.28
347.50	1581.03
347.72	1669.09
347.94	1714.15
348.15	1558.50
348.37	1634.28
348.59	1662.95
348.80	1617.90
349.02	1732.58
349.23	1877.99
349.45	1880.04
349.67	1912.80
349.88	1824.74
350.10	1929.19
350.31	1849.32
350.53	1804.26
350.75	1988.58
350.96	1839.08
351.18	1839.08
351.39	1941.47
351.61	1712.10
351.82	1910.75
352.04	1916.90
352.26	1798.12
352.47	1949.67
352.69	1968.10
352.90	1691.62
353.12	1869.80
353.34	1877.99
353.55	1972.19
353.77	1871.84
353.98	1818.60
354.20	1894.37
354.41	1984.48
354.63	2002.91
354.85	1990.63
355.06	1968.10
355.28	1765.35
355.49	1845.22
355.71	1853.41
355.92	1826.79
356.14	1882.08
356.35	1880.04
356.57	1855.46
356.79	1968.10
357.00	1968.10
357.22	2021.35
357.43	1761.25
357.65	1988.58
357.86	1818.60
358.08	1941.47
358.29	1935.33
358.51	1927.14
358.72	1982.43
358.94	1968.10
359.16	1900.52
359.37	1853.41
359.59	1898.47
359.80	2021.35
360.02	1918.95
360.23	1949.67
360.45	2002.91
360.66	1953.76
360.88	1863.65
361.09	1966.05
361.31	1990.63
361.52	1970.15
361.74	1998.82
361.95	2131.94
362.17	1961.95
362.38	2002.91
362.60	2080.74
362.81	1875.94
363.03	1970.15
363.24	1972.19
363.46	2052.06
363.67	1920.99
363.89	1974.24
364.10	1980.39
364.32	1974.24
364.53	2072.54
364.75	1880.04
364.96	2027.49
365.18	1996.77
365.39	2035.68
365.61	2007.01
365.82	2078.69
366.04	1968.10
366.25	1980.39
366.47	2004.96
366.68	2105.31
366.90	1904.61
367.11	2084.83
367.33	2109.41
367.54	2148.32
367.76	2035.68
367.97	2029.54
368.19	2011.11
368.40	2109.41
368.62	1929.19
368.83	1941.47
369.05	2109.41
369.26	2013.15
369.48	2015.20
369.69	2013.15
369.91	2086.88
370.12	2033.63
370.33	2103.26
370.55	1996.77
370.76	2103.26
370.98	2111.46
371.19	2043.87
371.41	2029.54
371.62	2107.36
371.84	2029.54
372.05	2179.04
372.27	2105.31
372.48	2138.08
372.69	2117.60
372.91	2127.84
373.12	2103.26
373.34	2088.93
373.55	2166.75
373.77	2142.18
373.98	2125.79
374.20	2189.28
374.41	2215.90
374.62	2131.94
374.84	2166.75
375.05	2148.32
375.27	2205.66
375.48	2181.09
375.70	2252.77
375.91	2232.29
376.12	2377.69
376.34	2174.94
376.55	2271.20
376.77	2220.00
376.98	2172.89
377.19	2099.17
377.41	2127.84
377.62	2183.13
377.84	2285.53
378.05	2332.64
378.27	2236.38
378.48	2291.68
378.69	2430.94
378.91	2330.59
379.12	2287.58
379.34	2224.09
379.55	2342.88
379.76	2258.91
379.98	2195.42
380.19	2277.34
380.41	2322.40
380.62	2260.96
380.83	2244.57
381.05	2285.53
381.26	2492.38
381.47	2250.72
381.69	2385.88
381.90	2445.27
382.12	2297.82
382.33	2281.44
382.54	2392.03
382.76	2312.16
382.97	2318.30
383.19	2181.09
383.40	2465.75
383.61	2297.82
383.83	2183.13
384.04	2320.35
384.25	2361.31
384.47	2406.36
384.68	2340.83
384.89	2283.49
385.11	2394.08
385.32	2430.94
385.54	2291.68
385.75	2389.98
385.96	2389.98
386.18	2371.55
386.39	2504.67
386.60	2455.51
386.82	2424.80
387.03	2500.57
387.24	2521.05
387.46	2506.71
387.67	2580.44
387.88	2506.71
388.10	2457.56
388.31	2568.15
388.52	2541.53
388.74	2478.04
388.95	2531.29
389.16	2545.63
389.38	2486.23
389.59	2537.43
389.80	2721.75
390.02	2566.10
390.23	2617.30
390.44	2531.29
390.66	2500.57
390.87	2572.25
391.08	2543.58
391.30	2756.57
391.51	2662.36
391.72	2666.46
391.94	2811.86
392.15	2654.17
392.36	2625.50
392.58	2621.40
392.79	2693.08
393.00	2717.65
393.22	2695.13
393.43	2766.81
393.64	2828.24
393.85	2807.77
394.07	2783.19
394.28	2760.66
394.49	2840.53
394.71	2877.40
394.92	2885.59
395.13	2729.94
395.35	2807.77
395.56	2832.34
395.77	2813.91
395.98	2879.44
396.20	2799.57
396.41	2838.48
396.62	2918.36
396.84	2846.68
397.05	2850.77
397.26	2969.55
397.47	2938.84
397.69	2928.60
397.90	3102.67
398.11	2928.60
398.32	2873.30
398.54	2953.17
398.75	2897.88
398.96	2926.55
399.18	3098.58
399.39	2967.51
399.60	3057.62
399.81	2947.03
400.03	2965.46
400.24	3311.57
400.45	3057.62
400.66	3071.95
400.88	3078.10
401.09	3182.54
401.30	3149.78
401.51	3186.64
401.73	3112.91
401.94	3276.75
402.15	3178.45
402.36	3248.08
402.58	3149.78
402.79	3330.00
403.00	3209.17
403.21	3280.85
403.43	3280.85
403.64	3385.29
403.85	3157.97
404.06	3297.23
404.27	3108.82
404.49	3237.84
404.70	3112.91
404.91	3368.91
405.12	3270.61
405.34	3340.24
405.55	3397.58
405.76	3286.99
405.97	3307.47
406.19	3338.19
406.40	3317.71
406.61	3430.35
406.82	3370.96
407.03	3403.72
407.25	3315.66
407.46	3502.03
407.67	3405.77
407.88	3485.64
408.09	3461.07
408.31	3334.09
408.52	3456.97
408.73	3407.82
408.94	3424.20
409.15	3467.21
409.37	3448.78
409.58	3559.37
409.79	3661.77
410.00	3665.86
410.21	3581.90
410.43	3542.99
410.64	3440.59
410.85	3549.13
411.06	3573.71
411.27	3616.71
411.48	3661.77
411.70	3751.88
411.91	3657.67
412.12	3629.00
412.33	3708.87
412.54	3629.00
412.76	3737.54
412.97	3749.83
413.18	3600.33
413.39	3651.53
413.60	3807.17
413.81	3712.97
414.03	3659.72
414.24	3729.35
414.45	3913.67
414.66	3676.10
414.87	3909.57
415.08	3862.47
415.30	3862.47
415.51	3862.47
415.72	3751.88
415.93	3907.52
416.14	3846.09
416.35	3870.66
416.56	3796.93
416.78	3866.56
416.99	4034.50
417.20	3940.29
417.41	4024.26
417.62	3895.24
417.83	4165.57
418.04	3950.53
418.26	3993.54
418.47	4011.97
418.68	4028.35
418.89	4024.26
419.10	4214.72
419.31	4104.13
419.52	4243.39
419.73	4140.99
419.95	4206.53
420.16	3907.52
420.37	4124.61
420.58	4124.61
420.79	4124.61
421.00	4091.84
421.21	4143.04
421.42	4120.51
421.63	4282.30
421.85	4235.20
422.06	4339.65
422.27	4304.83
422.48	4349.89
422.69	4341.69
422.90	4317.12
423.11	4360.13
423.32	4419.52
423.53	4538.30
423.75	4517.82
423.96	4657.08
424.17	4534.20
424.38	4593.59
424.59	4485.05
424.80	4581.31
425.01	4667.32
425.22	4466.62
425.43	4536.25
425.64	4698.04
425.85	4761.53
426.06	4665.27
426.28	4640.70
426.49	4622.27
426.70	4548.54
426.91	4743.10
427.12	4849.59
427.33	4835.25
427.54	4667.32
427.75	4847.54
427.96	4779.96
428.17	4937.65
428.38	4890.55
428.59	5017.52
428.80	4911.03
429.01	4958.13
429.23	4874.17
429.44	5193.65
429.65	5089.20
429.86	5271.47
430.07	5027.76
430.28	4925.36
430.49	5064.63
430.70	5275.57
430.91	5277.62
431.12	5150.64
431.33	5302.19
431.54	5164.98
431.75	5277.62
431.96	5267.38
432.17	5267.38
432.38	5115.83
432.59	5466.03
432.80	5414.83
433.01	5371.82
433.22	5425.07
433.43	5357.49
433.64	5326.77
433.85	5373.87
434.06	5515.18
434.27	5328.81
434.49	5629.87
434.70	5623.72
434.91	5597.10
435.12	5629.87
435.33	5697.45
435.54	5595.05
435.75	5541.80
435.96	5683.11
436.17	5511.08
436.38	5679.02
436.59	5826.47
436.80	5681.07
437.01	5896.10
437.22	5889.96
437.43	5803.94
437.64	5597.10
437.85	5900.20
438.06	5853.09
438.27	5705.64
438.48	5943.21
438.69	6045.60
438.90	5857.19
439.11	5924.77
439.32	6023.08
439.53	6018.98
439.74	6043.56
439.95	5984.16
440.16	6047.65
440.37	6004.64
440.57	5920.68
440.78	6186.91
440.99	6139.81
441.20	6193.06
441.41	6145.95
441.62	6154.15
441.83	6125.47
442.04	6209.44
442.25	6299.55
442.46	6260.64
442.67	6293.41
442.88	6756.25
443.09	6242.21
443.30	6195.11
443.51	6342.56
443.72	6645.66
443.93	6264.74
444.14	6569.88
444.35	6352.80
444.56	6692.76
444.77	6360.99
444.98	6528.92
445.19	6571.93
445.40	6451.10
445.61	6549.40
445.81	6588.32
446.02	6606.75
446.23	6563.74
446.44	6565.79
446.65	6811.54
446.86	6703.00
447.07	6838.17
447.28	6938.52
447.49	6961.05
447.70	6629.27
447.91	6946.71
448.12	6852.50
448.33	7118.74
448.54	6999.96
448.74	7012.24
448.95	7081.88
449.16	6870.94
449.37	7219.09
449.58	6979.48
449.79	7184.27
450.00	6959.00
450.21	7184.27
450.42	7323.54
450.63	7194.51
450.84	7276.43
451.05	7251.86
451.25	7200.66
451.46	7182.23
451.67	7466.89
451.88	7456.65
452.09	7327.63
452.30	7243.67
452.51	7483.28
452.72	7575.44
452.93	7769.99
453.13	7442.32
453.34	7505.81
453.55	7557.00
453.76	7524.24
453.97	8071.04
454.18	7741.32
454.39	7792.52
454.60	7712.65
454.81	7686.03
455.01	7968.65
455.22	7507.85
455.43	7862.15
455.64	8089.48
455.85	7952.26
456.06	8173.44
456.27	8173.44
456.48	7802.76
456.68	8007.56
456.89	8056.71
457.10	8212.35
457.31	8128.39
457.52	8089.48
457.73	8218.50
457.94	8445.82
458.14	8193.92
458.35	8753.02
458.56	8490.88
458.77	8435.58
458.98	8615.80
459.19	8671.10
459.39	8617.85
459.60	8683.39
459.81	8658.81
460.02	8976.25
460.23	8765.31
460.44	9115.51
460.65	8945.53
460.85	9039.73
461.06	8947.58
461.27	8730.49
461.48	9115.51
461.69	9265.01
461.89	8998.77
462.10	9105.27
462.31	9092.98
462.52	9367.41
462.73	9254.77
462.94	9547.63
463.14	9449.33
463.35	9420.66
463.56	9770.86
463.77	9746.28
463.98	9480.05
464.18	9799.53
464.39	9783.15
464.60	9926.50
464.81	9826.15
465.02	9860.97
465.23	10157.92
465.43	9840.49
465.64	10235.75
465.85	10256.23
466.06	10065.77
466.27	10481.50
466.47	10309.47
466.68	10508.13
466.89	10301.28
467.10	10475.36
467.30	10061.67
467.51	10620.77
467.72	10671.97
467.93	10641.25
468.14	10712.92
468.34	10907.48
468.55	10753.88
468.76	10948.44
468.97	10786.65
469.17	11005.78
469.38	11126.61
469.59	11339.60
469.80	11222.87
470.01	11265.88
470.21	11212.63
470.42	11331.41
470.63	11507.54
470.84	11548.50
471.04	11644.75
471.25	11706.19
471.46	11603.79
471.67	12089.16
471.87	11933.51
472.08	12201.80
472.29	12025.67
472.50	11865.93
472.70	12021.58
472.91	12136.26
473.12	12435.27
473.33	12574.53
473.53	12427.07
473.74	12490.56
473.95	12883.77
474.16	12820.28
474.36	12812.09
474.57	12998.46
474.78	13182.77
474.99	13027.13
475.19	13020.99
475.40	13205.30
475.61	13317.94
475.81	13508.40
476.02	13795.12
476.23	13573.94
476.44	13809.45
476.64	13897.52
476.85	14001.96
477.06	13848.36
477.27	14184.23
477.47	14257.96
477.68	14315.30
477.89	14561.06
478.09	14511.91
478.30	14522.15
478.51	14401.32
478.71	14892.83
478.92	14819.10
479.13	14927.64
479.34	15083.29
479.54	14901.02
479.75	15146.78
479.96	15308.57
480.16	15224.60
480.37	15486.74
480.58	15687.44
480.78	15900.43
480.99	15787.79
481.20	15929.10
481.41	16115.47
481.61	15984.40
481.82	16174.86
482.03	16187.14
482.23	16310.02
482.44	16561.92
482.65	16721.66
482.85	16572.16
483.06	16604.93
483.27	16955.13
483.47	16801.54
483.68	16895.74
483.89	16992.00
484.09	16891.65
484.30	17401.59
484.51	17282.81
484.71	17768.18
484.92	17512.18
485.13	17506.04
485.33	17766.13
485.54	17712.88
485.75	17966.83
485.95	18097.90
486.16	17901.29
486.37	18167.53
486.57	18355.94
486.78	18206.44
486.98	18185.96
487.19	18403.05
487.40	18706.15
487.60	18751.20
487.81	18878.18
488.02	18904.80
488.22	18802.40
488.43	19201.76
488.64	19191.52
488.84	19369.69
489.05	19545.81
489.25	19465.94
489.46	19926.74
489.67	19623.64
489.87	19529.43
490.08	20051.66
490.29	19777.23
490.49	20424.39
490.70	20063.95
490.90	20457.16
491.11	20518.60
491.32	20686.53
491.52	20733.64
491.73	20588.23
491.94	20686.53
492.14	20481.74
492.35	20997.82
492.55	20866.75
492.76	21233.34
492.97	21087.93
493.17	21108.41
493.38	21405.37
493.58	21475.00
493.79	21739.19
494.00	21253.82
494.20	21784.24
494.41	22093.49
494.61	21956.27
494.82	21874.35
495.02	21831.35
495.23	22183.60
495.44	22202.03
495.64	22568.62
495.85	22218.41
496.05	22439.59
496.26	22337.20
496.47	22902.43
496.67	22685.35
496.88	22902.43
497.08	22761.12
497.29	23158.43
497.49	22726.31
497.70	22978.21
497.91	23101.09
498.11	23586.46
498.32	23369.37
498.52	23654.04
498.73	23680.66
498.93	23662.23
499.14	23961.23
499.34	23498.39
499.55	24059.54
499.76	23844.50
499.96	24333.96
500.17	24368.78
500.37	23799.44
500.58	23950.99
500.78	24260.24
500.99	24465.03
501.19	24745.61
501.40	24540.81
501.60	24778.37
501.81	24692.36
502.02	24829.57
502.22	24675.98
502.43	24919.68
502.63	24995.46
502.84	25091.71
503.04	25224.83
503.25	25265.79
503.45	25130.62
503.66	25345.66
503.86	25284.22
504.07	25507.45
504.27	25550.46
504.48	25921.14
504.68	25478.78
504.89	25759.35
505.09	25800.31
505.30	25900.66
505.50	25869.94
505.71	25962.10
505.91	25978.48
506.12	26105.46
506.32	26216.05
506.53	26338.93
506.73	26136.18
506.94	26486.38
507.14	26433.13
507.35	26265.20
507.55	26533.48
507.76	26840.68
507.96	26592.87
508.17	26654.31
508.37	26695.27
508.58	26961.51
508.78	26891.88
508.99	27270.75
509.19	27100.77
509.40	27235.94
509.60	26953.32
509.81	26996.32
510.01	27092.58
510.22	27473.50
510.42	27457.12
510.63	27561.56
510.83	27686.49
511.04	27426.40
511.24	27715.16
511.44	27641.43
511.65	27655.77
511.85	27614.81
512.06	27758.17
512.26	28016.21
512.47	28116.56
512.67	28118.61
512.88	27997.78
513.08	28114.52
513.29	28298.83
513.49	28134.99
513.69	28460.62
513.90	28366.42
514.10	28550.73
514.31	28120.66
514.51	28689.99
514.72	28296.78
514.92	28558.92
515.13	28440.14
515.33	28726.86
515.53	29189.70
515.74	28628.56
515.94	28808.78
516.15	29242.95
516.35	29038.15
516.56	29134.40
516.76	28958.28
516.96	28986.95
517.17	29523.52
517.37	29324.86
517.58	29083.20
517.78	29419.07
517.99	29244.99
518.19	29482.56
518.39	29380.16
518.60	29982.26
518.80	29724.22
519.01	29943.35
519.21	29840.95
519.41	30025.27
519.62	29978.17
519.82	30172.72
520.03	30185.01
520.23	30113.33
520.43	30094.90
520.64	30543.41
520.84	30701.10
521.05	30350.90
521.25	30789.16
521.45	30471.73
521.66	31034.92
521.86	31032.87
522.07	30754.35
522.27	30692.91
522.47	31290.91
522.68	31278.63
522.88	30760.49
523.08	31661.60
523.29	31315.49
523.49	31278.63
523.70	31610.40
523.90	31677.98
524.10	31505.95
524.31	32003.61
524.51	31643.17
524.71	32071.19
524.92	32382.48
525.12	31897.11
525.33	32155.16
525.53	32251.41
525.73	32400.91
525.94	32353.81
526.14	32720.40
526.34	32374.29
526.55	32869.90
526.75	32622.09
526.95	32757.26
527.16	33068.55
527.36	33023.50
527.56	33439.23
527.77	33533.44
527.97	33457.67
528.17	33173.00
528.38	33535.49
528.58	33959.42
528.78	33619.46
528.99	33891.83
529.19	33803.77
529.39	33734.14
529.60	34278.90
529.80	34156.02
530.00	34084.34
530.21	34143.74
530.41	34467.31
530.61	34399.73
530.82	34514.42
531.02	34622.96
531.22	34848.24
531.43	34663.92
531.63	34997.74
531.83	35100.14
532.04	35522.02
532.24	34782.70
532.44	35505.63
532.64	35423.72
532.85	35366.37
533.05	35444.20
533.25	35562.98
533.46	35321.32
533.66	35995.10
533.86	35618.27
534.07	36077.02
534.27	36390.36
534.47	36586.96
534.67	36425.17
534.88	36232.66
535.08	36885.97
535.28	36576.72
535.49	36660.69
535.69	37053.90
535.89	37191.11
536.09	36881.87
536.30	37141.96
536.50	37076.43
536.70	37363.14
536.91	37027.28
537.11	37475.78
537.31	37387.72
537.51	37483.97
537.72	38010.30
537.92	37979.58
538.12	37838.27
538.32	37936.57
538.53	38174.14
538.73	37914.05
538.93	38167.99
539.13	38229.43
539.34	38256.06
539.54	38112.70
539.74	38649.27
539.94	38430.13
540.15	38120.89
540.35	39110.06
540.55	38495.67
540.75	38868.40
540.96	38923.69
541.16	38847.92
541.36	39110.06
541.56	39411.11
541.77	39404.97
541.97	39075.24
542.17	39638.44
542.37	39703.97
542.58	39767.46
542.78	39626.15
542.98	39703.97
543.18	39855.52
543.38	40349.08
543.59	40121.76
543.79	39724.45
543.99	40326.55
544.19	40068.51
544.40	40015.26
544.60	40680.85
544.80	40521.11
545.00	40498.58
545.20	40482.20
545.41	40738.19
545.61	40637.84
545.81	41002.38
546.01	41325.96
546.21	40805.78
546.42	40635.80
546.62	41237.90
546.82	41244.04
547.02	41301.39
547.22	41344.39
547.43	41147.79
547.63	41411.98
547.83	41381.26
548.03	41145.74
548.23	41743.75
548.44	41762.18
548.64	41541.00
548.84	41436.55
549.04	41753.99
549.24	42063.23
549.45	42132.86
549.65	41784.71
549.85	41909.63
550.05	42317.18
550.25	41780.61
550.45	42634.61
550.66	41977.22
550.86	42063.23
551.06	42472.82
551.26	42304.89
551.46	42329.47
551.66	42454.39
551.87	42323.32
552.07	42925.42
552.27	42728.82
552.47	42642.81
552.67	42722.68
552.87	42851.70
553.07	42929.52
553.28	42812.79
553.48	43013.49
553.68	42823.03
553.88	43261.29
554.08	42863.99
554.28	43271.53
554.48	42767.73
554.69	43672.93
554.89	43476.33
555.09	42997.10
555.29	43253.10
555.49	43296.11
555.69	43324.78
555.89	43302.25
556.10	43824.48
556.30	43517.29
556.50	43808.10
556.70	43507.05
556.90	43654.50
557.10	43857.25
557.30	44029.28
557.50	44064.10
557.70	43982.18
557.91	43748.71
558.11	44078.43
558.31	43959.65
558.51	44193.12
558.71	43996.51
558.91	44103.01
559.11	44019.04
559.31	44369.24
559.51	44348.76
559.72	44598.62
559.92	44559.70
560.12	44537.18
560.32	44473.69
560.52	44481.88
560.72	44553.56
560.92	44762.45
561.12	44864.85
561.32	45004.11
561.52	44741.97
561.72	45339.98
561.93	44633.43
562.13	44973.39
562.33	44547.42
562.53	45339.98
562.73	44733.78
562.93	44987.73
563.13	45000.02
563.33	44952.91
563.53	45186.38
563.73	45167.95
563.93	45370.70
564.13	45573.45
564.33	45264.21
564.53	45425.99
564.74	45176.14
564.94	45167.95
565.14	45483.34
565.34	45284.68
565.54	45712.71
565.74	45497.67
565.94	45905.22
566.14	45342.03
566.34	45921.60
566.54	45948.23
566.74	45954.37
566.94	45768.01
567.14	45659.46
567.34	45557.06
567.54	46226.75
567.74	46011.71
567.94	45813.06
568.14	46161.22
568.34	46263.61
568.54	45970.75
568.74	45815.11
568.94	45954.37
569.14	46830.90
569.34	46431.55
569.54	46501.18
569.75	45800.77
569.95	46421.31
570.15	46783.80
570.35	46656.82
570.55	46312.77
570.75	46511.42
570.95	46415.16
571.15	46445.88
571.35	46605.62
571.55	46597.43
571.75	46345.53
571.95	46859.57
572.15	46662.97
572.35	47215.92
572.55	46957.88
572.75	47459.63
572.95	47252.78
573.15	47170.86
573.35	47244.59
573.55	46847.29
573.75	47136.05
573.95	47365.42
574.15	46986.55
574.35	47371.57
574.55	47584.55
574.75	47162.67
574.95	47576.36
575.15	47174.96
575.34	47748.39
575.54	47609.13
575.74	47619.37
575.94	47754.54
576.14	47895.85
576.34	47961.38
576.54	47887.65
576.74	48039.20
576.94	47633.71
577.14	47779.11
577.34	48059.68
577.54	48219.42
577.74	48239.90
577.94	48311.58
578.14	48186.66
578.34	48596.25
578.54	48463.13
578.74	48065.83
578.94	48500.00
579.14	48459.04
579.34	48612.63
579.54	48739.61
579.74	48633.11
579.94	48952.60
580.13	49001.75
580.33	48971.03
580.53	48739.61
580.73	48938.26
580.93	48827.67
581.13	48911.64
581.33	49370.38
581.53	49343.76
581.73	49061.14
581.93	49380.62
582.13	49216.78
582.33	49032.47
582.53	48727.32
582.73	49550.60
582.92	49286.42
583.12	49536.27
583.32	49423.63
583.52	49397.01
583.72	49874.18
583.92	50056.45
584.12	50070.79
584.32	50156.80
584.52	49786.12
584.72	49839.37
584.92	50025.73
585.11	50484.48
585.31	50257.15
585.51	50498.81
585.71	49857.80
585.91	50756.86
586.11	49798.41
586.31	50537.72
586.51	50449.66
586.71	50316.54
586.91	50771.19
587.10	51006.71
587.30	50842.87
587.50	50644.22
587.70	50957.56
587.90	50904.31
588.10	50580.73
588.30	50877.69
588.50	51129.59
588.69	51252.47
588.89	51168.50
589.09	51078.39
589.29	51156.21
589.49	51643.63
589.69	51154.16
589.89	51946.73
590.08	51391.73
590.28	51393.78
590.48	51428.59
590.68	51119.35
590.88	51561.71
591.08	51328.24
591.28	51303.67
591.47	51746.03
591.67	51985.64
591.87	51864.81
592.07	51930.34
592.27	51954.92
592.47	51899.62
592.67	51993.83
592.86	51829.99
593.06	51815.66
593.26	52124.90
593.46	51983.59
593.66	52196.58
593.86	52393.18
594.05	52153.57
594.25	52333.79
594.45	51909.86
594.65	52305.12
594.85	51936.49
595.05	52821.21
595.24	52884.70
595.44	52485.34
595.64	52407.52
595.84	52524.25
596.04	53083.35
596.23	52704.48
596.43	53028.05
596.63	52700.38
596.83	52903.13
597.03	53435.60
597.22	53359.83
597.42	53523.66
597.62	53228.76
597.82	53056.73
598.02	53032.15
598.21	53327.06
598.41	53159.12
598.61	53654.73
598.81	53609.68
599.01	53974.22
599.20	53445.84
599.40	53523.66
599.60	53652.69
599.80	53441.74
600.00	53507.28
600.19	53630.16
600.39	53843.15
600.59	54387.91
600.79	54162.63
600.98	53974.22
601.18	53925.07
601.38	54138.05
601.58	54191.30
601.78	54273.22
601.97	54322.37
602.17	54453.44
602.37	54152.39
602.57	54262.98
602.76	54611.13
602.96	54267.08
603.16	54815.93
603.36	54371.52
603.55	54777.02
603.75	54529.22
603.95	55082.17
604.15	54992.06
604.34	55035.06
604.54	54848.70
604.74	55268.53
604.94	54992.06
605.13	55084.22
605.33	55342.26
605.53	54916.28
605.73	55565.49
605.92	55325.88
606.12	55325.88
606.32	55467.19
606.52	55063.74
606.71	55463.09
606.91	55418.03
607.11	55559.34
607.30	55612.59
607.50	55731.37
607.70	56198.31
607.90	55860.40
608.09	55911.59
608.29	56011.95
608.49	56083.62
608.68	56020.14
608.88	55962.79
609.08	55934.12
609.28	55858.35
609.47	55534.77
609.67	56327.33
609.87	55932.07
610.06	56050.86
610.26	56472.74
610.46	56280.23
610.66	56325.28
610.85	56403.11
611.05	56089.77
611.25	56138.92
611.44	56077.48
611.64	56761.50
611.84	56186.02
612.03	56306.85
612.23	55825.58
612.43	56186.02
612.62	56022.19
612.82	56751.26
613.02	56136.87
613.21	56550.56
613.41	56499.36
613.61	56452.26
613.80	56368.29
614.00	56327.33
614.20	56229.03
614.39	56425.64
614.59	56990.87
614.79	56751.26
614.98	56296.61
615.18	56136.87
615.38	56468.64
615.57	56667.30
615.77	56726.69
615.97	56519.84
616.16	56771.74
616.36	57126.04
616.56	56753.31
616.75	56343.72
616.95	56548.51
617.15	56915.10
617.34	56745.12
617.54	56644.77
617.74	57177.24
617.93	56784.03
618.13	56040.62
618.32	56587.42
618.52	56650.91
618.72	56962.20
618.91	56927.39
619.11	56882.33
619.31	56286.37
619.50	57121.94
619.70	56581.28
619.90	56573.09
620.09	56681.63
620.29	56609.95
620.48	56712.35
620.68	57304.21
620.88	56947.87
621.07	56685.73
621.27	56874.14
621.46	56622.24
621.66	57078.94
621.86	56636.58
622.05	56450.21
622.25	57017.50
622.44	57085.08
622.64	56063.14
622.84	56689.82
623.03	56308.90
623.23	56704.16
623.42	56519.84
623.62	57011.35
623.82	57287.83
624.01	56892.57
624.21	56931.48
624.40	56941.72
624.60	56425.64
624.80	56425.64
624.99	56718.49
625.19	55938.22
625.38	56908.96
625.58	56761.50
625.77	56857.76
625.97	56716.45
626.17	56226.98
626.36	56976.54
626.56	56712.35
626.75	56024.23
626.95	57269.40
627.14	56476.83
627.34	56857.76
627.54	56722.59
627.73	56929.44
627.93	56853.66
628.12	56601.76
628.32	56618.14
628.51	56925.34
628.71	56857.76
628.90	56808.61
629.10	56181.93
629.30	56976.54
629.49	56951.96
629.69	56870.04
629.88	56706.21
630.08	56818.84
630.27	56933.53
630.47	56538.27
630.66	56485.03
630.86	56956.06
631.05	56505.51
631.25	57156.76
631.44	56728.73
631.64	56759.45
631.84	56898.72
632.03	56908.96
632.23	57146.52
632.42	57226.39
632.62	57396.37
632.81	56089.77
633.01	57123.99
633.20	57533.59
633.40	56986.78
633.59	57046.17
633.79	56777.89
633.98	56915.10
634.18	57336.98
634.37	57062.55
634.57	57037.98
634.76	57668.75
634.96	57095.32
635.15	57257.11
635.35	57105.56
635.54	57095.32
635.74	57072.79
635.93	56556.70
636.13	57590.93
636.32	56972.44
636.52	56589.47
636.71	57011.35
636.91	57085.08
637.10	57238.68
637.30	57044.12
637.49	57136.28
637.69	57400.47
637.88	57590.93
638.08	57205.91
638.27	57627.79
638.46	57128.09
638.66	57343.12
638.85	57119.90
639.05	57603.22
639.24	57777.29
639.44	57250.97
639.63	57461.91
639.83	57736.34
640.02	57443.48
640.22	57697.42
640.41	57578.64
640.61	56628.38
640.80	57439.38
640.99	57201.82
641.19	57404.56
641.38	57322.65
641.58	57416.85
641.77	57382.04
641.97	57128.09
642.16	57167.00
642.36	57730.19
642.55	57848.97
642.74	57558.16
642.94	58107.02
643.13	57418.90
643.33	57760.91
643.52	58139.78
643.72	57586.83
643.91	57810.06
644.10	57996.43
644.30	58045.58
644.49	57615.50
644.69	57816.21
644.88	58041.48
645.08	57691.28
645.27	57928.84
645.46	57343.12
645.66	57980.04
645.85	57537.68
646.05	58213.51
646.24	58094.73
646.43	57857.17
646.63	58152.07
646.82	58107.02
647.02	57941.13
647.21	58303.62
647.40	58401.92
647.60	57951.37
647.79	58121.35
647.99	58287.24
648.18	57904.27
648.37	58733.70
648.57	58463.36
648.76	58233.99
648.96	57887.88
649.15	58563.71
649.34	58621.06
649.54	58752.13
649.73	57832.59
649.92	58637.44
650.12	58053.77
650.31	58350.73
650.51	58465.41
650.70	58612.87
650.89	58266.76
651.09	58897.53
651.28	58336.39
651.47	58328.20
651.67	58598.53
651.86	58520.71
652.06	58061.96
652.25	58682.50
652.44	58303.62
652.64	58193.03
652.83	58233.99
653.02	58078.35
653.22	58977.40
653.41	58328.20
653.60	58274.95
653.80	58668.16
653.99	58858.62
654.18	58389.64
654.38	58455.17
654.57	58764.42
654.76	58227.85
654.96	58436.74
655.15	58782.85
655.34	58743.94
655.54	58463.36
655.73	58639.49
655.92	58535.04
656.12	58680.45
656.31	58516.61
656.50	58700.93
656.70	58907.77
656.89	58387.59
657.08	58805.37
657.28	58905.73
657.47	58512.52
657.66	58686.59
657.86	58856.57
658.05	58401.92
658.24	58819.71
658.43	58299.53
658.63	58705.02
658.82	58780.80
659.01	58989.69
659.21	59155.58
659.40	59366.52
659.59	58512.52
659.79	59024.51
659.98	58975.36
660.17	59092.09
660.36	58598.53
660.56	58637.44
660.75	59276.41
660.94	59049.08
661.14	59036.80
661.33	58584.19
661.52	58537.09
661.71	59217.02
661.91	58725.50
662.10	58938.49
662.29	59135.10
662.49	58614.91
662.68	58850.43
662.87	58754.18
663.06	59219.06
663.26	59012.22
663.45	58950.78
663.64	58793.09
663.83	58938.49
664.03	59069.56
664.22	58938.49
664.41	58619.01
664.60	58541.19
664.80	59110.52
664.99	59485.30
665.18	58942.59
665.37	59012.22
665.57	59237.50
665.76	58729.60
665.95	58893.44
666.14	58729.60
666.34	58285.19
666.53	58860.67
666.72	58850.43
666.91	58664.06
667.11	58504.32
667.30	59208.82
667.49	58856.57
667.68	59376.76
667.87	58610.82
668.07	59382.90
668.26	58670.21
668.45	58668.16
668.64	58543.23
668.84	59466.87
669.03	59450.48
669.22	59083.90
669.41	58625.15
669.60	58745.98
669.80	58623.11
669.99	59227.26
670.18	58465.41
670.37	59004.03
670.57	59024.51
670.76	58598.53
670.95	58981.50
671.14	59499.64
671.33	58582.15
671.53	59438.20
671.72	59044.99
671.91	58803.33
672.10	58905.73
672.29	58774.66
672.48	58520.71
672.68	59153.53
672.87	58653.82
673.06	59196.54
673.25	58877.05
673.44	58578.05
673.64	58786.94
673.83	58766.46
674.02	58707.07
674.21	58641.54
674.40	58918.01
674.59	58262.66
674.79	58776.70
674.98	58774.66
675.17	58932.35
675.36	58465.41
675.55	58782.85
675.74	58580.10
675.94	58774.66
676.13	58451.08
676.32	58342.53
676.51	59167.87
676.70	59188.34
676.89	58289.29
677.08	58725.50
677.28	58193.03
677.47	59006.08
677.66	58975.36
677.85	58373.25
678.04	58627.20
678.23	58963.07
678.42	58612.87
678.62	58342.53
678.81	59020.41
679.00	58612.87
679.19	59327.61
679.38	58799.23
679.57	58502.28
679.76	58506.37
679.96	58840.19
680.15	58715.26
680.34	58774.66
680.53	58719.36
680.72	58592.39
680.91	58868.86
681.10	58330.25
681.29	58619.01
681.48	58549.38
681.68	58547.33
681.87	58258.57
682.06	58506.37
682.25	58242.18
682.44	57851.02
682.63	58551.43
682.82	58309.77
683.01	58152.07
683.20	57840.78
683.39	58217.61
683.59	58365.06
683.78	58358.92
683.97	57959.56
684.16	57971.85
684.35	57836.69
684.54	57906.32
684.73	58219.66
684.92	58430.60
685.11	57799.82
685.30	57801.87
685.49	58246.28
685.69	57513.11
685.88	57941.13
686.07	58186.89
686.26	57875.60
686.45	57779.34
686.64	57918.60
686.83	57830.54
687.02	58004.62
687.21	58188.94
687.40	57726.10
687.59	57883.79
687.78	57705.62
687.97	58010.76
688.16	57676.94
688.35	57787.53
688.54	57445.52
688.74	57814.16
688.93	57545.87
689.12	58068.11
689.31	57758.86
689.50	58102.92
689.69	57609.36
689.88	57154.71
690.07	57373.84
690.26	57236.63
690.45	58154.12
690.64	57267.35
690.83	57392.28
691.02	57056.41
691.21	57189.53
691.40	57259.16
691.59	57619.60
691.78	57156.76
691.97	57664.66
692.16	57367.70
692.35	57375.89
692.54	57398.42
692.73	57293.97
692.92	57119.90
693.11	57306.26
693.30	57232.53
693.49	57171.10
693.68	57228.44
693.87	57173.14
694.06	56855.71
694.25	57062.55
694.44	56892.57
694.63	56956.06
694.82	57283.73
695.01	57023.64
695.20	56663.20
695.39	56718.49
695.58	56482.98
695.77	56898.72
695.96	56626.34
696.15	57062.55
696.34	56736.93
696.53	56470.69
696.72	56683.68
696.91	56261.80
697.10	56722.59
697.29	56433.83
697.48	56695.97
697.67	56167.59
697.86	56237.22
698.05	56349.86
698.24	56655.01
698.43	55831.72
698.62	56263.85
698.81	56079.53
699.00	56476.83
699.19	55481.52
699.38	56609.95
699.57	55545.01
699.76	56824.99
699.95	55827.63
700.14	56235.17
700.32	55975.08
700.51	56128.68
700.70	56192.17
700.89	55903.40
701.08	56255.65
701.27	55866.54
701.46	56022.19
701.65	55526.58
701.84	55821.48
702.03	55805.10
702.22	56188.07
702.41	55604.40
702.60	56308.90
702.79	55987.37
702.98	55829.68
703.17	55880.88
703.35	55092.41
703.54	55602.35
703.73	56329.38
703.92	55776.43
704.11	55686.32
704.30	55248.05
704.49	55379.12
704.68	55309.49
704.87	55463.09
705.06	55348.40
705.25	55571.63
705.43	55502.00
705.62	55545.01
705.81	55502.00
706.00	55260.34
706.19	55071.93
706.38	55071.93
706.57	55383.22
706.76	55014.58
706.95	54854.84
707.14	55250.10
707.32	55092.41
707.51	54910.14
707.70	54856.89
707.89	54944.95
708.08	54691.01
708.27	54684.86
708.46	54785.21
708.65	54430.91
708.84	55176.37
709.02	54580.42
709.21	54744.25
709.40	54756.54
709.59	54752.44
709.78	54682.81
709.97	55014.58
710.16	54598.85
710.34	54777.02
710.53	54373.57
710.72	54183.11
710.91	54488.26
711.10	54549.70
711.29	54365.38
711.48	54078.66
711.66	54396.10
711.85	53939.40
712.04	54355.14
712.23	54187.21
712.42	54297.80
712.61	54277.32
712.80	54613.18
712.98	54154.44
713.17	54052.04
713.36	54154.44
713.55	53517.52
713.74	53863.63
713.93	54111.43
714.11	53843.15
714.30	53769.42
714.49	54023.37
714.68	54037.70
714.87	53904.59
715.06	53884.11
715.24	53642.45
715.43	53867.72
715.62	53245.14
715.81	53327.06
716.00	53697.74
716.18	53228.76
716.37	53112.02
716.56	53325.01
716.75	53554.38
716.94	53617.87
717.12	53269.72
717.31	53458.13
717.50	53241.04
717.69	53206.23
717.88	53363.92
718.06	53142.74
718.25	53359.83
718.44	53171.41
718.63	52841.69
718.82	53103.83
719.00	52542.69
719.19	52530.40
719.38	52571.36
719.57	52356.32
719.76	51920.10
719.94	51950.82
720.13	52262.11
720.32	52638.94
720.51	52161.76
720.69	52204.77
720.88	52507.87
721.07	52409.57
721.26	51776.75
721.44	52180.20
721.63	51856.62
721.82	51647.72
722.01	51973.35
722.20	51862.76
722.38	51621.10
722.57	51459.31
722.76	51916.01
722.95	51473.65
723.13	51295.47
723.32	51467.50
723.51	51231.99
723.70	50955.51
723.88	50992.37
724.07	51113.20
724.26	51223.79
724.44	50828.54
724.63	51084.53
724.82	50959.61
725.01	50633.98
725.19	50427.13
725.38	50722.04
725.57	50828.54
725.76	51213.55
725.94	50611.45
726.13	50425.09
726.32	50543.87
726.51	50451.71
726.69	50892.02
726.88	50879.74
727.07	50896.12
727.25	50902.26
727.44	50644.22
727.63	50799.86
727.82	50711.80
728.00	50844.92
728.19	50726.14
728.38	50703.61
728.56	50568.44
728.75	50967.80
728.94	50607.36
729.12	50763.00
729.31	50468.09
729.50	50496.77
729.69	50478.33
729.87	50584.83
730.06	50277.63
730.25	50390.27
730.43	50562.30
730.62	50169.09
730.81	50597.12
730.99	50572.54
731.18	50160.90
731.37	50218.24
731.55	50212.10
731.74	50758.91
731.93	50582.78
732.11	50349.31
732.30	50633.98
732.49	50279.68
732.67	50459.90
732.86	50240.77
733.05	50117.89
733.23	50308.35
733.42	50406.65
733.61	50574.59
733.79	50251.01
733.98	50375.94
734.17	50167.04
734.35	50138.37
734.54	50054.40
734.73	50574.59
734.91	50427.13
735.10	49841.42
735.29	50578.68
735.47	49550.60
735.66	49898.76
735.84	49722.63
736.03	49583.37
736.22	49980.68
736.40	49818.89
736.59	49968.39
736.78	50083.08
736.96	50164.99
737.15	49861.90
737.33	49933.57
737.52	49505.55
737.71	49433.87
737.89	49184.02
738.08	49648.91
738.27	49374.48
738.45	49769.74
738.64	49624.33
738.82	49417.49
739.01	49202.45
739.20	49734.92
739.38	49394.96
739.57	49386.77
739.75	49900.81
739.94	49323.28
740.13	49507.60
740.31	48925.97
740.50	49345.81
740.68	49390.86
740.87	49601.80
741.06	49442.06
741.24	49214.74
741.43	49095.95
741.61	49206.55
741.80	48839.96
741.99	48921.88
742.17	48893.21
742.36	49278.22
742.54	48790.81
742.73	49487.12
742.91	48831.77
743.10	48381.21
743.29	49214.74
743.47	49151.25
743.66	49143.06
743.84	49030.42
744.03	48962.84
744.21	48764.18
744.40	49061.14
744.59	48477.47
744.77	48530.72
744.96	48325.92
745.14	48882.97
745.33	48309.53
745.51	48389.41
745.70	48403.74
745.88	48323.87
746.07	48616.73
746.26	48117.03
746.44	47953.19
746.63	48135.46
746.81	48219.42
747.00	48129.31
747.18	48522.52
747.37	48139.55
747.55	48442.65
747.74	48416.03
747.92	47879.46
748.11	48096.55
748.29	47940.90
748.48	47625.51
748.66	48170.27
748.85	48114.98
749.03	47934.76
749.22	48092.45
749.41	47791.40
749.59	47930.66
749.78	47822.12
749.96	47781.16
750.15	47693.10
750.33	47641.90
750.52	47627.56
750.70	47723.82
750.89	47105.33
751.07	47353.13
751.26	47168.82
751.44	47324.46
751.63	47772.97
751.81	47154.48
752.00	47097.14
752.18	47600.94
752.37	47367.47
752.55	47052.08
752.74	47240.50
752.92	47301.93
753.10	46941.49
753.29	47449.39
753.47	46968.12
753.66	46644.54
753.84	47349.04
754.03	47154.48
754.21	46591.29
754.40	47025.46
754.58	46970.16
754.77	46957.88
754.95	46409.02
755.14	46427.45
755.32	46603.58
755.51	46384.44
755.69	46474.55
755.88	46538.04
756.06	46515.51
756.24	46564.67
756.43	46388.54
756.61	46331.20
756.80	46003.52
756.98	46275.90
757.17	45970.75
757.35	46382.40
757.54	46046.53
757.72	46421.31
757.90	46495.03
758.09	45817.16
758.27	46398.78
758.46	45700.42
758.64	46036.29
758.83	46040.39
759.01	45907.27
759.19	45577.54
759.38	45835.59
759.56	45911.36
759.75	46087.49
759.93	45581.64
760.12	45399.37
760.30	45419.85
760.48	45856.07
760.67	45282.64
760.85	45512.01
761.04	45782.34
761.22	45978.95
761.40	45481.29
761.59	45577.54
761.77	45430.09
761.96	45327.69
762.14	45518.15
762.32	44959.06
762.51	45120.85
762.69	45327.69
762.88	45237.58
763.06	45473.10
763.24	44971.35
763.43	45294.92
763.61	44680.53
763.80	45075.79
763.98	44727.64
764.16	44875.09
764.35	44655.96
764.53	44223.84
764.72	44326.24
764.90	44434.78
765.08	44569.94
765.27	44641.62
765.45	44266.84
765.63	43955.55
765.82	44340.57
766.00	44164.45
766.18	44365.15
766.37	44416.35
766.55	44010.85
766.74	43945.31
766.92	43826.53
767.10	44070.24
767.29	44111.20
767.47	43713.89
767.65	43703.65
767.84	43390.31
768.02	43652.45
768.20	43545.96
768.39	44041.57
768.57	43828.58
768.75	43715.94
768.94	43717.99
769.12	43410.79
769.30	43332.97
769.49	43324.78
769.67	43353.45
769.85	43101.55
770.04	43232.62
770.22	43261.29
770.40	43214.19
770.59	42861.94
770.77	43181.42
770.95	42929.52
771.14	42978.67
771.32	42900.85
771.50	42341.75
771.69	42954.10
771.87	42921.33
772.05	42943.86
772.24	42716.53
772.42	42755.44
772.60	42708.34
772.78	42417.53
772.97	42624.37
773.15	42483.06
773.33	42569.08
773.52	42880.37
773.70	42751.35
773.88	42401.14
774.07	42438.01
774.25	41944.45
774.43	43005.30
774.61	42696.05
774.80	42689.91
774.98	42374.52
775.16	42947.95
775.34	42603.89
775.53	42583.41
775.71	42743.16
775.89	42276.22
776.08	42454.39
776.26	42603.89
776.44	42798.45
776.62	42247.55
776.81	42343.80
776.99	42542.45
777.17	42677.62
777.35	42747.25
777.54	42939.76
777.72	42460.54
777.90	42671.48
778.08	42882.42
778.27	42866.03
778.45	43038.06
778.63	43191.66
778.81	42702.20
779.00	43251.05
779.18	43044.21
779.36	42804.59
779.54	42902.90
779.73	43029.87
779.91	42993.01
780.09	43138.41
780.27	42892.66
780.46	43066.73
780.64	43677.03
780.82	42911.09
781.00	43156.85
781.19	43414.89
781.37	43347.31
781.55	43201.90
781.73	43435.37
781.91	42943.86
782.10	43259.24
782.28	43257.20
782.46	43621.73
782.64	43709.80
782.82	43201.90
783.01	43480.42
783.19	43449.70
783.37	43728.23
783.55	43423.08
783.74	43640.17
783.92	43378.03
784.10	43527.53
784.28	43515.24
784.46	42968.43
784.64	43412.84
784.83	43298.16
785.01	43394.41
785.19	43150.70
785.37	43564.39
785.55	43160.94
785.74	43308.40
785.92	43259.24
786.10	43992.42
786.28	43240.81
786.46	43087.21
786.64	42808.69
786.83	43253.10
787.01	43031.92
787.19	42966.38
787.37	43228.52
787.55	43232.62
787.74	42906.99
787.92	42884.47
788.10	42947.95
788.28	42749.30
788.46	43056.50
788.64	42222.97
788.82	42929.52
789.01	42452.34
789.19	42708.34
789.37	42628.47
789.55	42378.62
789.73	42044.80
789.91	42063.23
790.09	42636.66
790.28	42130.81
790.46	42075.52
790.64	42376.57
790.82	42216.83
791.00	41905.54
791.18	41928.06
791.36	41602.44
791.55	41543.05
791.73	41371.02
791.91	41493.89
792.09	41387.40
792.27	41373.06
792.45	41366.92
792.63	41434.50
792.81	41194.89
793.00	41479.56
793.18	40996.24
793.36	41293.19
793.54	40955.28
793.72	41069.97
793.90	40770.96
794.08	40433.05
794.26	41067.92
794.44	40123.80
794.62	39998.88
794.81	40453.53
794.99	40330.65
795.17	40088.99
795.35	40199.58
795.53	40015.26
795.71	40099.23
795.89	39896.48
796.07	39663.01
796.25	39863.71
796.43	39566.76
796.61	39208.36
796.80	39261.61
796.98	39298.47
797.16	39189.93
797.34	39284.14
797.52	39015.85
797.70	39714.21
797.88	39032.24
798.06	38774.19
798.24	38690.23
798.42	38469.04
798.60	38346.17
798.78	38507.96
798.96	38860.21
799.14	38331.83
799.32	38409.65
799.51	38374.84
799.69	38671.79
799.87	38403.51
800.05	37877.18
800.23	38106.55
800.41	37805.50
800.59	37830.08
800.77	37658.05
800.95	37342.66
801.13	37768.64
801.31	37133.77
801.49	37410.25
801.67	37281.22
801.85	37469.64
802.03	36879.82
802.21	36842.96
802.39	36752.85
802.57	37209.54
802.75	36699.60
802.93	37105.10
803.11	36744.66
803.29	36406.74
803.47	36210.14
803.65	36509.14
803.83	36457.94
804.01	36447.70
804.19	36351.45
804.37	35864.03
804.55	36392.40
804.73	36222.42
804.91	36126.17
805.09	35798.49
805.27	35778.01
805.45	36111.83
805.63	35665.38
805.81	35315.17
805.99	35558.88
806.17	35552.74
806.35	35470.82
806.53	35468.77
806.71	35241.45
806.89	35278.31
807.07	35474.91
807.25	35542.50
807.43	34864.62
807.61	35323.36
807.79	34997.74
807.97	34326.00
808.15	34805.23
808.33	34450.93
808.51	34424.31
808.69	34643.44
808.87	34842.09
809.05	34584.05
809.23	34381.30
809.41	33969.66
809.59	33779.20
809.77	34559.47
809.95	34201.08
810.13	34248.18
810.31	33965.56
810.49	33983.99
810.67	33842.68
810.84	33527.30
811.02	33734.14
811.20	33545.73
811.38	33633.79
811.56	33531.39
811.74	33273.35
811.92	33113.61
812.10	33521.15
812.28	33086.98
812.46	33218.05
812.64	33318.40
812.82	32822.80
813.00	33252.87
813.18	33304.07
813.36	32859.66
813.53	32581.13
813.71	33054.22
813.89	32785.93
814.07	32986.63
814.25	32839.18
814.43	32431.63
814.61	32132.63
814.79	32204.31
814.97	32347.67
815.15	32425.49
815.33	31831.58
815.50	31972.89
815.68	32015.90
815.86	31993.37
816.04	32001.56
816.22	31776.28
816.40	32048.66
816.58	32157.21
816.76	31510.05
816.94	31372.83
817.11	31641.12
817.29	31876.63
817.47	31637.02
817.65	31272.48
817.83	31661.60
818.01	31135.27
818.19	30864.94
818.37	31041.06
818.54	30905.90
818.72	30871.08
818.90	31473.18
819.08	31172.13
819.26	30846.51
819.44	31161.89
819.62	31036.97
819.80	31024.68
819.97	30836.27
820.15	30547.50
820.33	30434.86
820.51	30582.32
820.69	30393.90
820.87	30586.41
821.05	30993.96
821.22	30543.41
821.40	30453.30
821.58	30465.58
821.76	30414.38
821.94	30037.56
822.12	30406.19
822.29	30033.46
822.47	30090.80
822.65	29826.62
822.83	29994.55
823.01	30295.60
823.19	29754.94
823.36	29693.50
823.54	29685.31
823.72	29736.51
823.90	29769.27
824.08	29353.54
824.25	29318.72
824.43	29449.79
824.61	29711.93
824.79	29269.57
824.97	29355.58
825.15	29482.56
825.32	29734.46
825.50	29269.57
825.68	29189.70
825.86	29627.96
826.04	29257.28
826.21	29181.51
826.39	29195.84
826.57	29244.99
826.75	28978.76
826.93	28845.64
827.10	29085.25
827.28	28929.61
827.46	29408.83
827.64	28898.89
827.81	29072.96
827.99	29011.53
828.17	28530.25
828.35	28689.99
828.53	28558.92
828.70	28653.13
828.88	28481.10
829.06	28440.14
829.24	28438.09
829.41	28345.94
829.59	28507.72
829.77	28044.88
829.95	28456.53
830.12	28255.82
830.30	28071.51
830.48	28139.09
830.66	28249.68
830.84	28184.15
831.01	28100.18
831.19	28374.61
831.37	28044.88
831.55	27840.09
831.72	27942.49
831.90	28178.00
832.08	27907.67
832.25	27473.50
832.43	27993.68
832.61	27723.35
832.79	27610.71
832.96	27608.67
833.14	27780.70
833.32	27657.82
833.50	27815.51
833.67	27649.63
833.85	27407.97
834.03	27246.18
834.20	27528.80
834.38	27401.82
834.56	27639.39
834.74	27287.14
834.91	26900.07
835.09	27375.20
835.27	27160.16
835.44	27037.28
835.62	27025.00
835.80	27111.01
835.98	27051.62
836.15	27182.69
836.33	26682.98
836.51	27272.80
836.68	26607.21
836.86	26992.23
837.04	26588.78
837.21	26830.44
837.39	26613.35
837.57	26953.32
837.75	26648.17
837.92	26523.24
838.10	26259.06
838.28	26300.01
838.45	26187.38
838.63	26521.20
838.81	26470.00
838.98	26099.31
839.16	26226.29
839.34	26400.37
839.51	26261.10
839.69	26048.11
839.87	25929.33
840.04	26295.92
840.22	26017.40
840.40	26226.29
840.57	25599.61
840.75	26150.51
840.93	25808.50
841.10	25775.73
841.28	26269.30
841.46	25986.68
841.63	25871.99
841.81	26041.97
841.98	25847.41
842.16	25919.09
842.34	25966.20
842.51	25599.61
842.69	25886.32
842.87	25642.62
843.04	25534.07
843.22	25552.51
843.40	25542.27
843.57	25665.14
843.75	25835.13
843.92	25603.71
844.10	25493.12
844.28	25511.55
844.45	25761.40
844.63	25517.69
844.81	25024.13
844.98	24999.55
845.16	25153.15
845.33	25237.12
845.51	25407.10
845.69	25058.95
845.86	24960.64
846.04	24868.48
846.21	25132.67
846.39	25009.79
846.57	24794.76
846.74	25118.34
846.92	24858.24
847.09	24440.46
847.27	25089.67
847.45	24755.85
847.62	24827.53
847.80	25005.70
847.97	24796.81
848.15	24632.97
848.32	24419.98
848.50	24403.60
848.68	24389.26
848.85	24520.33
849.03	24231.57
849.20	24475.27
849.38	24127.12
849.56	24618.63
849.73	24477.32
849.91	24469.13
850.08	24669.83
850.26	24026.77
850.43	24223.37
850.61	24290.96
850.78	23711.38
850.96	24254.09
851.14	24051.34
851.31	24204.94
851.49	23770.77
851.66	24172.18
851.84	23948.95
852.01	23969.43
852.19	24247.95
852.36	23744.15
852.54	24055.44
852.71	23928.47
852.89	23676.57
853.07	23807.64
853.24	23543.45
853.42	23715.48
853.59	23811.73
853.77	23627.42
853.94	23781.01
854.12	23789.20
854.29	23309.98
854.47	23682.71
854.64	23699.09
854.82	23496.35
854.99	23346.84
855.17	23283.36
855.34	23396.00
855.52	23574.17
855.69	23314.08
855.87	23240.35
856.04	22900.39
856.22	23187.10
856.39	22675.11
856.57	23158.43
856.74	23166.62
856.92	23219.87
857.09	23123.62
857.27	23002.78
857.44	23148.19
857.62	23041.70
857.79	23398.04
857.97	22769.32
858.14	22984.35
858.32	22851.24
858.49	22920.87
858.67	22863.52
858.84	22527.66
859.02	23023.26
859.19	22691.49
859.37	22539.94
859.54	22482.60
859.72	22828.71
859.89	22380.20
860.06	22693.54
860.24	22470.31
860.41	22578.86
860.59	22429.35
860.76	22494.89
860.94	22138.54
861.11	22720.17
861.29	22482.60
861.46	22148.78
861.64	22159.02
861.81	22140.59
861.98	22582.95
862.16	22075.06
862.33	22089.39
862.51	22175.41
862.68	22361.77
862.86	22032.05
863.03	22353.58
863.21	22058.67
863.38	21683.89
863.55	22030.00
863.73	21860.02
863.90	21839.54
864.08	21989.04
864.25	21943.99
864.43	21814.96
864.60	21530.30
864.77	21741.24
864.95	21638.84
865.12	21511.86
865.30	21544.63
865.47	21485.24
865.64	21593.78
865.82	21743.28
865.99	21575.35
866.17	21425.85
866.34	21720.76
866.51	21257.92
866.69	21356.22
866.86	21225.15
867.04	21196.48
867.21	21368.51
867.38	21049.02
867.56	20913.86
867.73	21288.64
867.91	21104.32
868.08	21026.50
868.25	21141.18
868.43	21290.68
868.60	20823.75
868.78	20991.68
868.95	21194.43
869.12	20924.10
869.30	20997.82
869.47	20852.42
869.64	20549.32
869.82	20776.64
869.99	20864.71
870.16	21098.17
870.34	20545.22
870.51	20756.16
870.69	20381.38
870.86	20641.48
871.03	20723.40
871.21	20006.61
871.38	20537.03
871.55	20326.09
871.73	20362.95
871.90	20319.95
872.07	20246.22
872.25	19889.87
872.42	20125.39
872.59	19959.50
872.77	20207.31
872.94	19965.65
873.11	19998.41
873.29	19928.78
873.46	19844.82
873.63	19785.43
873.81	19824.34
873.98	19922.64
874.15	19687.12
874.33	19691.22
874.50	19570.39
874.67	19844.82
874.85	19689.17
875.02	19599.06
875.19	19644.12
875.37	19369.69
875.54	19345.11
875.71	19637.97
875.88	19236.57
876.06	19408.60
876.23	19508.95
876.40	19074.78
876.58	19293.91
876.75	19228.38
876.92	18888.42
877.10	19119.84
877.27	18945.76
877.44	18724.58
877.61	18841.31
877.79	18767.59
877.96	18900.70
878.13	18693.86
878.31	18906.85
878.48	18493.16
878.65	18841.31
878.82	18165.48
879.00	18796.26
879.17	18548.45
879.34	18556.64
879.51	18200.30
879.69	18697.95
879.86	18357.99
880.03	18390.76
880.21	18417.38
880.38	18474.73
880.55	18464.49
880.72	18110.19
880.90	18474.73
881.07	18282.22
881.24	18351.85
881.41	18374.38
881.59	18224.87
881.76	18394.86
881.93	18198.25
882.10	18018.03
882.28	17970.93
882.45	18095.85
882.62	18001.65
882.79	18118.38
882.96	17702.64
883.14	18075.37
883.31	18112.24
883.48	17723.12
883.65	18071.28
883.83	17868.53
884.00	17882.86
884.17	17686.26
884.34	18022.12
884.51	17569.52
884.69	17624.82
884.86	17692.40
885.03	17843.95
885.20	17604.34
885.38	17878.77
885.55	17653.49
885.72	17788.66
885.89	17618.68
886.06	17678.07
886.24	17551.09
886.41	17557.24
886.58	17542.90
886.75	17714.93
886.92	17260.28
887.10	17325.82
887.27	17266.42
887.44	17436.41
887.61	17575.67
887.78	17475.32
887.95	17708.79
888.13	17272.57
888.30	17282.81
888.47	17151.74
888.64	17200.89
888.81	17075.96
888.99	17153.79
889.16	16959.23
889.33	16733.95
889.50	16623.36
889.67	16992.00
889.84	16721.66
890.01	16850.69
890.19	16918.27
890.36	16709.38
890.53	16625.41
890.70	16531.20
890.87	16903.93
891.04	16598.79
891.22	16672.51
891.39	16649.99
891.56	16418.57
891.73	16535.30
891.90	16541.44
892.07	16346.89
892.24	16520.96
892.42	16291.59
892.59	16551.68
892.76	16426.76
892.93	16578.31
893.10	16289.54
893.27	16516.87
893.44	16310.02
893.61	16295.69
893.79	16310.02
893.96	16107.27
894.13	16316.17
894.30	16326.41
894.47	16359.17
894.64	16328.45
894.81	16477.96
894.98	16586.50
895.15	16465.67
895.33	16117.51
895.50	16170.76
895.67	16363.27
895.84	16117.51
896.01	16025.36
896.18	16047.88
896.35	16350.98
896.52	15947.53
896.69	15976.20
896.86	16140.04
897.04	16215.82
897.21	16219.91
897.38	16140.04
897.55	16086.79
897.72	16150.28
897.89	16017.16
898.06	16080.65
898.23	16031.50
898.40	15943.44
898.57	16183.05
898.74	15957.77
898.91	16232.20
899.08	16060.17
899.26	16041.74
899.43	16033.55
899.60	15734.54
899.77	16074.51
899.94	15765.26
900.11	15941.39
900.28	15859.47
900.45	15716.11
900.62	15775.50
900.79	15853.33
900.96	15961.87
901.13	16049.93
901.30	15814.41
901.47	15585.04
901.64	15779.60
901.81	16035.60
901.98	15656.72
902.15	16029.45
902.32	15771.41
902.49	15857.42
902.66	15900.43
902.83	15785.74
903.01	15984.40
903.18	15943.44
903.35	15650.58
903.52	15798.03
903.69	16174.86
903.86	16008.97
904.03	16008.97
904.20	15945.48
904.37	15914.77
904.54	15832.85
904.71	15894.29
904.88	15935.24
905.05	15607.57
905.22	15879.95
905.39	15818.51
905.56	15724.30
905.73	15740.69
905.90	15978.25
906.07	15806.22
906.24	15478.55
906.41	15752.98
906.58	15732.50
906.75	15650.58
906.92	15626.00
907.09	15802.13
907.26	15922.96
907.43	15582.99
907.60	15662.86
907.77	15763.22
907.93	15759.12
908.10	15771.41
908.27	15795.98
908.44	15677.20
908.61	15451.92
908.78	15658.77
908.95	15728.40
909.12	15740.69
909.29	15623.95
909.46	15730.45
909.63	15564.56
909.80	15445.78
909.97	15775.50
910.14	15646.48
910.31	15660.82
910.48	15372.05
910.65	15525.65
910.82	15261.46
910.99	15468.31
911.16	15372.05
911.33	15183.64
911.50	15265.56
911.66	15281.94
911.83	15357.72
912.00	15128.35
912.17	15165.21
912.34	15290.13
912.51	15089.43
912.68	15027.99
912.85	15286.04
913.02	15343.38
913.19	15146.78
913.36	15118.11
913.53	15357.72
913.70	15124.25
913.86	15310.61
914.03	15277.85
914.20	14860.06
914.37	14954.27
914.54	15038.23
914.71	14927.64
914.88	14929.69
915.05	14860.06
915.22	14710.56
915.39	14739.23
915.55	14720.80
915.72	14685.98
915.89	14665.50
916.06	14460.71
916.23	14599.97
916.40	14520.10
916.57	14481.19
916.74	14642.98
916.91	14610.21
917.07	14327.59
917.24	14505.76
917.41	14446.37
917.58	14593.83
917.75	14257.96
917.92	14169.90
918.09	14204.71
918.26	14407.46
918.42	14196.52
918.59	14257.96
918.76	14264.10
918.93	14001.96
919.10	13850.41
919.27	13893.42
919.44	13967.15
919.60	13936.43
919.77	13891.37
919.94	13791.02
920.11	13805.36
920.28	13911.85
920.45	13666.10
920.61	13504.31
920.78	13707.05
920.95	13500.21
921.12	13395.76
921.29	13315.89
921.46	13391.67
921.62	13397.81
921.79	13152.06
921.96	13311.80
922.13	13301.56
922.30	13127.48
922.47	12934.97
922.63	13035.32
922.80	13250.36
922.97	12836.67
923.14	12810.04
923.31	13025.08
923.47	12789.56
923.64	13070.14
923.81	12717.89
923.98	12838.72
924.15	12603.20
924.32	12799.80
924.48	12738.37
924.65	12699.45
924.82	12506.95
924.99	12549.95
925.15	12316.48
925.32	12511.04
925.49	12222.28
925.66	12304.20
925.83	12209.99
925.99	12074.82
926.16	12228.42
926.33	12312.39
926.50	12111.69
926.67	12406.59
926.83	11990.86
927.00	12189.51
927.17	11923.27
927.34	11743.05
927.50	11853.64
927.67	11956.04
927.84	11763.53
928.01	11710.29
928.17	11614.03
928.34	11575.12
928.51	11452.24
928.68	11394.90
928.84	11267.92
929.01	11409.23
929.18	11077.46
929.35	11308.88
929.51	11171.67
929.68	11192.15
929.85	11050.84
930.02	11001.69
930.18	11020.12
930.35	11038.55
930.52	10841.95
930.69	11085.65
930.85	10964.82
931.02	10749.79
931.19	10846.04
931.36	10708.83
931.52	10733.40
931.69	10622.81
931.86	10493.79
932.02	10514.27
932.19	10381.15
932.36	10510.18
932.53	10473.31
932.69	10233.70
932.86	10512.22
933.03	10305.38
933.19	10162.02
933.36	10010.47
933.53	10289.00
933.70	9893.74
933.86	9920.36
934.03	9953.13
934.20	9656.17
934.36	10082.15
934.53	9883.50
934.70	9496.43
934.86	9785.19
935.03	9394.03
935.20	9492.34
935.36	9521.01
935.53	9285.49
935.70	9281.39
935.86	9383.79
936.03	9015.16
936.20	9033.59
936.36	9070.45
936.53	8853.37
936.70	8791.93
936.86	9052.02
937.03	8683.39
937.20	8601.47
937.36	8578.94
937.53	8257.41
937.70	8339.33
937.86	8384.38
938.03	8064.90
938.20	8238.98
938.36	8083.33
938.53	7980.93
938.70	7704.46
938.86	7751.56
939.03	7769.99
939.20	7636.88
939.36	7530.38
939.53	7571.34
939.70	7630.73
939.86	7249.81
940.03	7106.45
940.19	7100.31
940.36	7163.79
940.53	7092.12
940.69	7167.89
940.86	6907.80
941.03	6746.01
941.19	6537.12
941.36	6668.19
941.52	6664.09
941.69	6498.20
941.86	6475.68
942.02	6404.00
942.19	6272.93
942.35	6436.77
942.52	6299.55
942.69	6096.80
942.85	6109.09
943.02	6043.56
943.18	6133.67
943.35	5947.30
943.52	6029.22
943.68	5844.90
943.85	5961.64
944.01	5914.53
944.18	5748.65
944.35	5814.18
944.51	5683.11
944.68	5670.83
944.84	5656.49
945.01	5593.00
945.17	5779.37
945.34	5533.61
945.51	5697.45
945.67	5593.00
945.84	5517.23
946.00	5369.77
946.17	5468.08
946.33	5586.86
946.50	5492.65
946.67	5523.37
946.83	5476.27
947.00	5416.88
947.16	5541.80
947.33	5543.85
947.49	5500.84
947.66	5277.62
947.82	5386.16
947.99	5390.25
948.16	5541.80
948.32	5396.40
948.49	5439.40
948.65	5449.64
948.82	5435.31
948.98	5400.49
949.15	5275.57
949.31	5492.65
949.48	5468.08
949.64	5310.38
949.81	5357.49
949.97	5353.39
950.14	5541.80
950.30	5486.51
950.47	5502.89
950.63	5451.69
950.80	5615.53
950.96	5388.21
951.13	5556.14
951.30	5470.12
951.46	5500.84
951.63	5736.36
951.79	5539.76
951.96	5521.32
952.12	5590.95
952.29	5607.34
952.45	5582.76
952.62	5642.15
952.78	5545.90
952.94	5633.96
953.11	5556.14
953.27	5433.26
953.44	5668.78
953.60	5709.74
953.77	5611.43
953.93	5545.90
954.10	5629.87
954.26	5439.40
954.43	5627.82
954.59	5607.34
954.76	5687.21
954.92	5625.77
955.09	5566.38
955.25	5582.76
955.42	5633.96
955.58	5750.70
955.75	5746.60
955.91	5627.82
956.07	5603.24
956.24	5638.06
956.40	5679.02
956.57	5760.94
956.73	5459.88
956.90	5705.64
957.06	5550.00
957.23	5570.48
957.39	5672.87
957.56	5662.63
957.72	5535.66
957.88	5556.14
958.05	5664.68
958.21	5642.15
958.38	5593.00
958.54	5607.34
958.71	5697.45
958.87	5658.54
959.03	5562.28
959.20	5597.10
959.36	5588.91
959.53	5625.77
959.69	5679.02
959.85	5719.98
960.02	5513.13
960.18	5674.92
960.35	5681.07
960.51	5738.41
960.68	5730.22
960.84	5615.53
961.00	5701.54
961.17	5627.82
961.33	5687.21
961.50	5613.48
961.66	5613.48
961.82	5582.76
961.99	5644.20
962.15	5685.16
962.31	5570.48
962.48	5713.83
962.64	5638.06
962.81	5537.71
962.97	5732.26
963.13	5623.72
963.30	5595.05
963.46	5498.80
963.62	5533.61
963.79	5482.41
963.95	5494.70
964.12	5435.31
964.28	5488.56
964.44	5509.04
964.61	5529.52
964.77	5582.76
964.93	5552.04
965.10	5521.32
965.26	5443.50
965.42	5441.45
965.59	5552.04
965.75	5523.37
965.92	5390.25
966.08	5627.82
966.24	5377.97
966.41	5449.64
966.57	5484.46
966.73	5582.76
966.90	5533.61
967.06	5537.71
967.22	5363.63
967.39	5375.92
967.55	5310.38
967.71	5459.88
967.88	5318.57
968.04	5423.02
968.20	5283.76
968.37	5343.15
968.53	5472.17
968.69	5359.53
968.85	5255.09
969.02	5502.89
969.18	5537.71
969.34	5294.00
969.51	5318.57
969.67	5377.97
969.83	5236.66
970.00	5371.82
970.16	5369.77
970.32	5234.61
970.48	5324.72
970.65	5138.35
970.81	5173.17
970.97	5236.66
971.14	5109.68
971.30	5248.94
971.46	5275.57
971.63	5238.70
971.79	5291.95
971.95	5203.89
972.11	5089.20
972.28	4997.04
972.44	5255.09
972.60	5060.53
972.76	5142.45
972.93	5027.76
973.09	5095.35
973.25	5038.00
973.42	4964.28
973.58	4990.90
973.74	5107.63
973.90	5144.50
974.07	5074.87
974.23	5023.67
974.39	5115.83
974.55	4949.94
974.72	5054.39
974.88	4847.54
975.04	5005.24
975.20	5005.24
975.37	4902.84
975.53	4980.66
975.69	4978.61
975.85	4900.79
976.01	4865.97
976.18	4923.32
976.34	4759.48
976.50	4984.76
976.66	4810.68
976.83	4943.80
976.99	5019.57
977.15	4949.94
977.31	4702.14
977.47	4775.86
977.64	4792.25
977.80	4851.64
977.96	4874.17
978.12	4880.31
978.29	4679.61
978.45	4624.31
978.61	4695.99
978.77	4802.49
978.93	4630.46
979.10	4669.37
979.26	4732.86
979.42	4765.62
979.58	4566.97
979.74	4542.39
979.91	4648.89
980.07	4536.25
980.23	4638.65
980.39	4452.28
980.55	4569.02
980.71	4575.16
980.88	4530.11
981.04	4485.05
981.20	4534.20
981.36	4560.83
981.52	4523.96
981.68	4442.04
981.85	4632.51
982.01	4476.86
982.17	4392.89
982.33	4454.33
982.49	4519.87
982.65	4464.57
982.82	4460.48
982.98	4386.75
983.14	4390.84
983.30	4396.99
983.46	4423.61
983.62	4382.65
983.79	4450.24
983.95	4294.59
984.11	4274.11
984.27	4374.46
984.43	4366.27
984.59	4255.68
984.75	4272.06
984.91	4241.34
985.08	4392.89
985.24	4188.10
985.40	4108.23
985.56	4173.76
985.72	4362.17
985.88	4259.78
986.04	4071.36
986.20	4100.03
986.37	4208.58
986.53	4122.56
986.69	4192.19
986.85	4165.57
987.01	4124.61
987.17	4257.73
987.33	4130.75
987.49	4065.22
987.65	4059.07
987.82	4102.08
987.98	4100.03
988.14	4069.31
988.30	4026.31
988.46	4034.50
988.62	4106.18
988.78	4067.27
988.94	4052.93
989.10	4020.16
989.26	3944.39
989.42	3893.19
989.59	3831.75
989.75	4003.78
989.91	4001.73
990.07	3854.28
990.23	3878.85
990.39	3944.39
990.55	4044.74
990.71	3852.23
990.87	3905.48
991.03	3911.62
991.19	3809.22
991.35	3798.98
991.51	3739.59
991.67	4079.55
991.83	3805.13
992.00	3876.80
992.16	3844.04
992.32	3788.74
992.48	3827.65
992.64	3629.00
992.80	3735.50
992.96	3887.04
993.12	3794.89
993.28	3805.13
993.44	3747.78
993.60	3794.89
993.76	3778.50
993.92	3815.37
994.08	3792.84
994.24	3715.02
994.40	3665.86
994.56	3760.07
994.72	3655.62
994.88	3585.99
995.04	3665.86
995.20	3686.34
995.36	3583.95
995.52	3516.36
995.68	3624.90
995.84	3581.90
996.00	3624.90
996.16	3612.62
996.32	3577.80
996.48	3602.38
996.64	3649.48
996.80	3504.07
996.96	3510.22
997.12	3518.41
997.28	3446.73
997.44	3422.16
997.60	3481.55
997.76	3473.36
997.92	3510.22
998.08	3379.15
998.24	3424.20
998.40	3383.24
998.56	3469.26
998.72	3309.52
998.88	3368.91
999.04	3297.23
999.20	3502.03
999.36	3342.28
999.52	3452.88
999.68	3370.96
999.84	3420.11
1000.00	3364.81
1000.16	3385.29
1000.32	3295.18
1000.48	3440.59
1000.64	3403.72
1000.80	3192.78
1000.95	3264.46
1001.11	3301.33
1001.27	3166.16
1001.43	3354.57
1001.59	3225.55
1001.75	3211.22
1001.91	3246.03
1002.07	3231.69
1002.23	3192.78
1002.39	3084.24
1002.55	3184.59
1002.71	3149.78
1002.87	3114.96
1003.03	3129.30
1003.19	3059.67
1003.34	3200.98
1003.50	3207.12
1003.66	3117.01
1003.82	3286.99
1003.98	3151.82
1004.14	3196.88
1004.30	3135.44
1004.46	2990.03
1004.62	3065.81
1004.78	3104.72
1004.94	3102.67
1005.09	3162.06
1005.25	3131.34
1005.41	3028.95
1005.57	2949.08
1005.73	2969.55
1005.89	3006.42
1006.05	3016.66
1006.21	3016.66
1006.37	3028.95
1006.52	2963.41
1006.68	2930.64
1006.84	3088.34
1007.00	3057.62
1007.16	3082.19
1007.32	2899.92
1007.48	2932.69
1007.64	2920.40
1007.79	2904.02
1007.95	2906.07
1008.11	3022.80
1008.27	2887.64
1008.43	2881.49
1008.59	2908.12
1008.75	2875.35
1008.91	2934.74
1009.06	2811.86
1009.22	2904.02
1009.38	2865.11
1009.54	2832.34
1009.70	2754.52
1009.86	2807.77
1010.01	2875.35
1010.17	2867.16
1010.33	2863.06
1010.49	2801.62
1010.65	2938.84
1010.81	2754.52
1010.96	2842.58
1011.12	2725.85
1011.28	2815.96
1011.44	2830.29
1011.60	2703.32
1011.76	2836.44
1011.91	2846.68
1012.07	2637.78
1012.23	2609.11
1012.39	2668.50
1012.55	2666.46
1012.71	2645.98
1012.86	2662.36
1013.02	2658.26
1013.18	2643.93
1013.34	2570.20
1013.50	2750.42
1013.65	2721.75
1013.81	2580.44
1013.97	2600.92
1014.13	2719.70
1014.29	2592.73
1014.44	2721.75
1014.60	2672.60
1014.76	2607.06
1014.92	2602.97
1015.07	2650.07
1015.23	2670.55
1015.39	2596.82
1015.55	2541.53
1015.71	2600.92
1015.86	2459.61
1016.02	2471.90
1016.18	2412.51
1016.34	2600.92
1016.49	2557.91
1016.65	2615.26
1016.81	2590.68
1016.97	2576.34
1017.12	2568.15
1017.28	2484.19
1017.44	2492.38
1017.60	2457.56
1017.75	2514.91
1017.91	2492.38
1018.07	2416.60
1018.23	2475.99
1018.38	2445.27
1018.54	2418.65
1018.70	2531.29
1018.86	2449.37
1019.01	2416.60
1019.17	2486.23
1019.33	2521.05
1019.49	2465.75
1019.64	2437.08
1019.80	2437.08
1019.96	2473.95
1020.12	2410.46
1020.27	2383.84
1020.43	2404.32
1020.59	2426.84
1020.74	2355.16
1020.90	2402.27
1021.06	2334.68
1021.22	2338.78
1021.37	2385.88
1021.53	2351.07
1021.69	2336.73
1021.84	2351.07
1022.00	2344.92
1022.16	2289.63
1022.31	2308.06
1022.47	2303.96
1022.63	2387.93
1022.79	2318.30
1022.94	2349.02
1023.10	2357.21
1023.26	2377.69
1023.41	2328.54
1023.57	2215.90
1023.73	2359.26
1023.88	2314.20
1024.04	2199.52
1024.20	2271.20
1024.35	2359.26
1024.51	2263.01
1024.67	2183.13
1024.82	2287.58
1024.98	2201.57
1025.14	2222.05
1025.29	2252.77
1025.45	2353.12
1025.61	2142.18
1025.76	2129.89
1025.92	2174.94
1026.08	2277.34
1026.23	2273.25
1026.39	2199.52
1026.55	2158.56
1026.70	2203.61
1026.86	2279.39
1027.02	2287.58
1027.17	2220.00
1027.33	2228.19
1027.48	2097.12
1027.64	2162.66
1027.80	2037.73
1027.95	2183.13
1028.11	2074.59
1028.27	2289.63
1028.42	2144.22
1028.58	2101.22
1028.73	2220.00
1028.89	2070.50
1029.05	2217.95
1029.20	2220.00
>>>>>End Processed Spectral Data<<<<<
