SpectraSuite Data File
++++++++++++++++++++++++++++++++++++
Date: Fri Jun 02 14:41:59 CEST 2017
User: INFO_000
Dark Spectrum Present: No
Reference Spectrum Present: No
Number of Sampled Component Spectra: 1
Spectrometers: USB4H00879
Integration Time (usec): 80000 (USB4H00879)
Spectra Averaged: 1 (USB4H00879)
Boxcar Smoothing: 0 (USB4H00879)
Correct for Electrical Dark: No (USB4H00879)
Strobe/Lamp Enabled: No (USB4H00879)
Correct for Detector Non-linearity: No (USB4H00879)
Correct for Stray Light: No (USB4H00879)
Number of Pixels in Processed Spectrum: 3648
>>>>>Begin Processed Spectral Data<<<<<
345.13	1327.08
345.34	1327.08
345.56	1327.08
345.78	1302.51
345.99	1202.16
346.21	1681.38
346.42	1673.19
346.64	1605.61
346.86	1794.02
347.07	1644.52
347.29	1728.49
347.50	1656.81
347.72	1630.18
347.94	1779.68
348.15	1589.22
348.37	1540.07
348.59	1732.58
348.80	1695.72
349.02	1718.25
349.23	1841.12
349.45	1785.83
349.67	1877.99
349.88	1845.22
350.10	1871.84
350.31	1818.60
350.53	1787.88
350.75	1918.95
350.96	1802.21
351.18	1857.51
351.39	1859.56
351.61	1796.07
351.82	1861.60
352.04	1939.43
352.26	1787.88
352.47	1814.50
352.69	1906.66
352.90	1837.03
353.12	1789.92
353.34	1841.12
353.55	1947.62
353.77	1851.36
353.98	1877.99
354.20	1863.65
354.41	1826.79
354.63	1916.90
354.85	2050.02
355.06	1888.23
355.28	1783.78
355.49	1916.90
355.71	1978.34
355.92	1898.47
356.14	1925.09
356.35	1853.41
356.57	1877.99
356.79	1970.15
357.00	1941.47
357.22	2039.78
357.43	1884.13
357.65	2002.91
357.86	1908.71
358.08	1904.61
358.29	1937.38
358.51	2017.25
358.72	2027.49
358.94	1939.43
359.16	1951.71
359.37	1900.52
359.59	2000.87
359.80	1976.29
360.02	1961.95
360.23	1935.33
360.45	2013.15
360.66	1957.86
360.88	1896.42
361.09	1996.77
361.31	2002.91
361.52	1943.52
361.74	1955.81
361.95	2127.84
362.17	1994.72
362.38	2113.50
362.60	1992.67
362.81	1925.09
363.03	1904.61
363.24	2052.06
363.46	2068.45
363.67	2002.91
363.89	2025.44
364.10	1994.72
364.32	1849.32
364.53	2027.49
364.75	1896.42
364.96	2064.35
365.18	2019.30
365.39	2054.11
365.61	1953.76
365.82	2105.31
366.04	2068.45
366.25	1918.95
366.47	2144.22
366.68	2133.98
366.90	2007.01
367.11	2037.73
367.33	2039.78
367.54	2070.50
367.76	1937.38
367.97	2131.94
368.19	1978.34
368.40	2066.40
368.62	1994.72
368.83	1986.53
369.05	2047.97
369.26	1990.63
369.48	2037.73
369.69	2000.87
369.91	2064.35
370.12	1976.29
370.33	2127.84
370.55	1978.34
370.76	2029.54
370.98	2115.55
371.19	2076.64
371.41	1955.81
371.62	2099.17
371.84	1980.39
372.05	2207.71
372.27	2142.18
372.48	2136.03
372.69	2097.12
372.91	2197.47
373.12	2154.46
373.34	2072.54
373.55	2107.36
373.77	2160.61
373.98	2179.04
374.20	2308.06
374.41	2209.76
374.62	2250.72
374.84	2154.46
375.05	2265.05
375.27	2215.90
375.48	2209.76
375.70	2199.52
375.91	2346.97
376.12	2312.16
376.34	2183.13
376.55	2197.47
376.77	2209.76
376.98	2238.43
377.19	2095.07
377.41	2174.94
377.62	2236.38
377.84	2267.10
378.05	2269.15
378.27	2205.66
378.48	2318.30
378.69	2506.71
378.91	2269.15
379.12	2207.71
379.34	2199.52
379.55	2295.77
379.76	2230.24
379.98	2181.09
380.19	2320.35
380.41	2332.64
380.62	2371.55
380.83	2281.44
381.05	2172.89
381.26	2363.36
381.47	2324.44
381.69	2349.02
381.90	2502.62
382.12	2361.31
382.33	2318.30
382.54	2338.78
382.76	2396.12
382.97	2430.94
383.19	2263.01
383.40	2396.12
383.61	2273.25
383.83	2240.48
384.04	2273.25
384.25	2443.23
384.47	2510.81
384.68	2355.16
384.89	2318.30
385.11	2359.26
385.32	2289.63
385.54	2420.70
385.75	2379.74
385.96	2426.84
386.18	2404.32
386.39	2484.19
386.60	2402.27
386.82	2394.08
387.03	2467.80
387.24	2541.53
387.46	2590.68
387.67	2527.19
387.88	2527.19
388.10	2559.96
388.31	2531.29
388.52	2594.78
388.74	2537.43
388.95	2523.10
389.16	2592.73
389.38	2484.19
389.59	2668.50
389.80	2625.50
390.02	2547.67
390.23	2594.78
390.44	2539.48
390.66	2576.34
390.87	2533.34
391.08	2648.02
391.30	2734.04
391.51	2654.17
391.72	2637.78
391.94	2699.22
392.15	2729.94
392.36	2705.37
392.58	2699.22
392.79	2729.94
393.00	2811.86
393.22	2713.56
393.43	2721.75
393.64	2775.00
393.85	2863.06
394.07	2731.99
394.28	2686.94
394.49	2822.10
394.71	2828.24
394.92	2791.38
395.13	2699.22
395.35	2727.89
395.56	2768.85
395.77	2879.44
395.98	2891.73
396.20	2920.40
396.41	2828.24
396.62	2975.70
396.84	2901.97
397.05	2828.24
397.26	2936.79
397.47	3008.47
397.69	2959.31
397.90	3090.38
398.11	2985.94
398.32	3014.61
398.54	2951.12
398.75	3016.66
398.96	3022.80
399.18	3100.62
399.39	3045.33
399.60	3090.38
399.81	2992.08
400.03	2977.75
400.24	3313.61
400.45	3084.24
400.66	3108.82
400.88	3190.74
401.09	3239.89
401.30	3176.40
401.51	3149.78
401.73	3258.32
401.94	3110.86
402.15	3213.26
402.36	3074.00
402.58	3354.57
402.79	3276.75
403.00	3164.11
403.21	3272.65
403.43	3373.00
403.64	3338.19
403.85	3026.90
404.06	3356.62
404.27	3264.46
404.49	3379.15
404.70	3358.67
404.91	3313.61
405.12	3334.09
405.34	3422.16
405.55	3491.79
405.76	3311.57
405.97	3338.19
406.19	3506.12
406.40	3311.57
406.61	3360.72
406.82	3303.37
407.03	3350.48
407.25	3354.57
407.46	3583.95
407.67	3526.60
407.88	3438.54
408.09	3395.53
408.31	3512.27
408.52	3465.16
408.73	3499.98
408.94	3416.01
409.15	3497.93
409.37	3536.84
409.58	3657.67
409.79	3698.63
410.00	3592.14
410.21	3499.98
410.43	3536.84
410.64	3497.93
410.85	3669.96
411.06	3649.48
411.27	3563.47
411.48	3649.48
411.70	3772.36
411.91	3686.34
412.12	3755.97
412.33	3600.33
412.54	3581.90
412.76	3762.12
412.97	3895.24
413.18	3616.71
413.39	3770.31
413.60	3733.45
413.81	3780.55
414.03	3876.80
414.24	3768.26
414.45	3903.43
414.66	3649.48
414.87	3786.69
415.08	3686.34
415.30	3823.56
415.51	3870.66
415.72	3854.28
415.93	3975.11
416.14	3911.62
416.35	4030.40
416.56	3899.33
416.78	3829.70
416.99	4036.55
417.20	3866.56
417.41	4026.31
417.62	3960.77
417.83	4057.03
418.04	3966.92
418.26	4095.94
418.47	3968.96
418.68	4042.69
418.89	4132.80
419.10	4136.90
419.31	3973.06
419.52	4341.69
419.73	4106.18
419.95	4261.82
420.16	4022.21
420.37	4157.38
420.58	4181.95
420.79	4095.94
421.00	4110.27
421.21	4245.44
421.42	4177.86
421.63	4300.73
421.85	4206.53
422.06	4288.45
422.27	4333.50
422.48	4444.09
422.69	4313.02
422.90	4380.61
423.11	4310.97
423.32	4421.56
423.53	4528.06
423.75	4456.38
423.96	4763.58
424.17	4550.59
424.38	4435.90
424.59	4726.71
424.80	4691.90
425.01	4509.63
425.22	4487.10
425.43	4657.08
425.64	4743.10
425.85	4769.72
426.06	4728.76
426.28	4652.98
426.49	4732.86
426.70	4628.41
426.91	4730.81
427.12	4804.53
427.33	4798.39
427.54	4775.86
427.75	4798.39
427.96	5119.92
428.17	4886.45
428.38	4913.08
428.59	4997.04
428.80	5134.26
429.01	4999.09
429.23	5107.63
429.44	5214.13
429.65	5003.19
429.86	5210.03
430.07	5019.57
430.28	5050.29
430.49	5099.44
430.70	5261.23
430.91	5255.09
431.12	5121.97
431.33	5205.94
431.54	5294.00
431.75	5214.13
431.96	5377.97
432.17	5367.73
432.38	5283.76
432.59	5636.01
432.80	5375.92
433.01	5500.84
433.22	5662.63
433.43	5439.40
433.64	5521.32
433.85	5513.13
434.06	5740.46
434.27	5476.27
434.49	5541.80
434.70	5572.52
434.91	5470.12
435.12	5597.10
435.33	5701.54
435.54	5676.97
435.75	5492.65
435.96	5556.14
436.17	5547.95
436.38	5713.83
436.59	5767.08
436.80	5642.15
437.01	6070.18
437.22	5842.85
437.43	5885.86
437.64	5672.87
437.85	5967.78
438.06	6055.84
438.27	5871.53
438.48	5861.29
438.69	6086.56
438.90	5920.68
439.11	5877.67
439.32	6090.66
439.53	5918.63
439.74	6172.58
439.95	6223.78
440.16	6076.32
440.37	6064.04
440.57	6061.99
440.78	6160.29
440.99	6211.49
441.20	6148.00
441.41	6119.33
441.62	6268.83
441.83	6236.06
442.04	6363.04
442.25	6315.94
442.46	6301.60
442.67	6311.84
442.88	6782.87
443.09	6317.98
443.30	6299.55
443.51	6451.10
443.72	6645.66
443.93	6383.52
444.14	6715.29
444.35	6365.09
444.56	6533.02
444.77	6467.49
444.98	6606.75
445.19	6678.43
445.40	6657.95
445.61	6657.95
445.81	6748.06
446.02	6846.36
446.23	6707.10
446.44	6565.79
446.65	6717.34
446.86	6760.34
447.07	6721.43
447.28	7083.92
447.49	7065.49
447.70	6911.89
447.91	7012.24
448.12	6838.17
448.33	7014.29
448.54	7077.78
448.74	6932.37
448.95	7036.82
449.16	6789.02
449.37	7288.72
449.58	7069.59
449.79	7384.98
450.00	6963.09
450.21	7329.68
450.42	7409.55
450.63	7384.98
450.84	7323.54
451.05	7258.00
451.25	7217.04
451.46	7251.86
451.67	7487.37
451.88	7368.59
452.09	7440.27
452.30	7421.84
452.51	7411.60
452.72	7640.97
452.93	7788.43
453.13	7376.78
453.34	7395.22
453.55	7495.57
453.76	7581.58
453.97	7968.65
454.18	7882.63
454.39	7694.22
454.60	7747.47
454.81	7675.79
455.01	7864.20
455.22	7669.64
455.43	7976.84
455.64	8234.88
455.85	8245.12
456.06	8386.43
456.27	8030.09
456.48	8015.75
456.68	8275.84
456.89	8230.79
457.10	8253.31
457.31	8486.78
457.52	8320.90
457.73	8302.47
457.94	8707.96
458.14	8351.62
458.35	8849.27
458.56	8482.69
458.77	8605.56
458.98	8572.80
459.19	8677.24
459.39	8798.07
459.60	8853.37
459.81	8619.90
460.02	8925.05
460.23	8824.70
460.44	9283.44
460.65	8896.38
460.85	8990.58
461.06	9166.71
461.27	8683.39
461.48	9201.52
461.69	9437.04
461.89	9000.82
462.10	9336.69
462.31	8931.19
462.52	9154.42
462.73	9308.02
462.94	9445.23
463.14	9348.98
463.35	9576.30
463.56	10096.49
463.77	9873.26
463.98	9584.49
464.18	9729.90
464.39	9799.53
464.60	10026.86
464.81	9807.72
465.02	9711.47
465.23	10133.35
465.43	9985.90
465.64	10426.21
465.85	10231.65
466.06	10219.36
466.27	10510.18
466.47	10352.48
466.68	10653.53
466.89	10313.57
467.10	10612.57
467.30	10387.30
467.51	10731.36
467.72	10786.65
467.93	10504.03
468.14	10590.05
468.34	11046.74
468.55	11018.07
468.76	10925.91
468.97	10835.80
469.17	11081.56
469.38	11302.74
469.59	11546.45
469.80	11300.69
470.01	11229.01
470.21	11532.11
470.42	11661.13
470.63	11585.36
470.84	11452.24
471.04	11820.88
471.25	11849.55
471.46	11689.81
471.67	11888.46
471.87	11841.36
472.08	12005.19
472.29	12332.87
472.50	11874.12
472.70	12162.89
472.91	12289.86
473.12	12359.49
473.33	12476.23
473.53	12619.58
473.74	12592.96
473.95	12836.67
474.16	13094.71
474.36	13102.90
474.57	13164.34
474.78	13348.66
474.99	13150.01
475.19	13117.24
475.40	13279.03
475.61	13485.87
475.81	13633.33
476.02	13809.45
476.23	13766.45
476.44	13745.97
476.64	13956.91
476.85	14116.65
477.06	14280.49
477.27	14389.03
477.47	14421.80
477.68	14642.98
477.89	14542.63
478.09	14440.23
478.30	14450.47
478.51	14718.75
478.71	14761.76
478.92	15044.38
479.13	15077.15
479.34	15408.92
479.54	15142.68
479.75	15124.25
479.96	15376.15
480.16	15513.36
480.37	15771.41
480.58	15494.93
480.78	15990.54
480.99	15546.13
481.20	16127.75
481.41	16258.82
481.61	16148.23
481.82	16203.53
482.03	16391.94
482.23	16142.09
482.44	16699.14
482.65	16719.62
482.85	16824.06
483.06	16836.35
483.27	16903.93
483.47	17071.87
483.68	17006.33
483.89	17106.68
484.09	17159.93
484.30	17200.89
484.51	17903.34
484.71	17651.44
484.92	17673.97
485.13	17837.81
485.33	17854.19
485.54	17889.01
485.75	18165.48
485.95	18454.25
486.16	18335.46
486.37	18566.88
486.57	18558.69
486.78	18450.15
486.98	18511.59
487.19	18788.07
487.40	18798.31
487.60	18990.81
487.81	19031.77
488.02	19031.77
488.22	18925.28
488.43	19402.46
488.64	19369.69
488.84	19508.95
489.05	19470.04
489.25	19584.73
489.46	20025.04
489.67	19551.96
489.87	19869.39
490.08	19988.18
490.29	20373.19
490.49	20262.60
490.70	20557.51
490.90	20430.54
491.11	20582.09
491.32	20371.15
491.52	20659.91
491.73	20453.06
491.94	20887.23
492.14	20688.58
492.35	21223.10
492.55	21421.75
492.76	21137.09
492.97	21630.65
493.17	21444.28
493.38	21456.57
493.58	21821.11
493.79	21649.08
494.00	21757.62
494.20	21946.03
494.41	22068.91
494.61	22267.56
494.82	22312.62
495.02	22236.84
495.23	22322.86
495.44	22484.65
495.64	22566.57
495.85	22525.61
496.05	22871.72
496.26	22720.17
496.47	22935.20
496.67	22959.78
496.88	23178.91
497.08	23031.46
497.29	23375.52
497.49	23240.35
497.70	23051.94
497.91	23492.25
498.11	23373.47
498.32	23764.63
498.52	23674.52
498.73	23899.80
498.93	23832.21
499.14	24135.31
499.34	23959.19
499.55	24127.12
499.76	24008.34
499.96	24034.96
500.17	24368.78
500.37	24192.65
500.58	24596.10
500.78	24549.00
500.99	24481.42
501.19	24850.05
501.40	24755.85
501.60	24856.20
501.81	24923.78
502.02	24962.69
502.22	24802.95
502.43	25173.63
502.63	25347.71
502.84	25425.53
503.04	25286.27
503.25	24905.35
503.45	25525.88
503.66	25536.12
503.86	25601.66
504.07	25857.65
504.27	25513.59
504.48	25994.87
504.68	25712.25
504.89	26326.64
505.09	26115.70
505.30	25890.42
505.50	26021.49
505.71	26263.15
505.91	26388.08
506.12	26224.24
506.32	26222.19
506.53	26584.68
506.73	26586.73
506.94	26371.69
507.14	26682.98
507.35	26738.28
507.55	27020.90
507.76	26744.42
507.96	26402.41
508.17	26695.27
508.37	26977.89
508.58	27076.19
508.78	27252.32
508.99	27340.38
509.19	27563.61
509.40	27276.90
509.60	27231.84
509.81	27348.57
510.01	27551.32
510.22	27580.00
510.42	27674.20
510.63	27745.88
510.83	27774.55
511.04	27747.93
511.24	27741.78
511.44	27594.33
511.65	28104.28
511.85	28081.75
512.06	28026.45
512.26	28159.57
512.47	28098.13
512.67	28513.87
512.88	28261.97
513.08	28255.82
513.29	28530.25
513.49	28458.57
513.69	28421.71
513.90	28722.76
514.10	28702.28
514.31	28755.53
514.51	29107.78
514.72	28776.01
514.92	28919.37
515.13	28829.26
515.33	28880.46
515.53	29177.41
515.74	28870.22
515.94	29353.54
516.15	29400.64
516.35	29140.55
516.56	29304.38
516.76	29353.54
516.96	29419.07
517.17	29214.27
517.37	29720.12
517.58	29617.72
517.78	29709.88
517.99	29609.53
518.19	30121.52
518.39	30025.27
518.60	30068.28
518.80	29865.53
519.01	30082.61
519.21	30178.87
519.41	30096.95
519.62	30277.17
519.82	30316.08
520.03	30457.39
520.23	30514.73
520.43	30733.87
520.64	30510.64
520.84	30731.82
521.05	30780.97
521.25	30953.00
521.45	30975.53
521.66	31049.25
521.86	31026.73
522.07	30860.84
522.27	31004.20
522.47	31125.03
522.68	31655.45
522.88	31200.80
523.08	31761.95
523.29	31647.26
523.49	31438.37
523.70	31776.28
523.90	31966.74
524.10	31688.22
524.31	31876.63
524.51	31872.54
524.71	32380.43
524.92	32232.98
525.12	32202.26
525.33	32347.67
525.53	32394.77
525.73	32937.48
525.94	32847.37
526.14	32749.07
526.34	32853.51
526.55	33261.06
526.75	33181.19
526.95	33259.01
527.16	33150.47
527.36	32966.15
527.56	33463.81
527.77	33734.14
527.97	33480.19
528.17	33488.38
528.38	33859.07
528.58	33543.68
528.78	34115.06
528.99	33971.71
529.19	34336.24
529.39	33789.44
529.60	34371.06
529.80	34493.94
530.00	34186.74
530.21	34678.25
530.41	34706.93
530.61	34553.33
530.82	34848.24
531.02	34731.50
531.22	34930.16
531.43	34835.95
531.63	35200.49
531.83	35347.94
532.04	35460.58
532.24	35237.35
532.44	35530.21
532.64	35644.90
532.85	35823.07
533.05	35857.88
533.25	35741.15
533.46	35952.09
533.66	36328.92
533.86	35794.40
534.07	36599.25
534.27	36390.36
534.47	36795.85
534.67	36675.02
534.88	36683.22
535.08	36892.11
535.28	36865.49
535.49	37137.87
535.69	37113.29
535.89	37244.36
536.09	37359.05
536.30	37225.93
536.50	37332.42
536.70	37553.60
536.91	37064.14
537.11	37500.36
537.31	37758.40
537.51	37850.56
537.72	38147.51
537.92	38325.69
538.12	38524.34
538.32	38292.92
538.53	38204.86
538.73	38434.23
538.93	38167.99
539.13	38409.65
539.34	38655.41
539.54	38688.18
539.74	38890.93
539.94	39024.04
540.15	39048.62
540.35	39054.76
540.55	38866.35
540.75	39439.78
540.96	39400.87
541.16	39097.77
541.36	39533.99
541.56	39425.45
541.77	39429.54
541.97	39466.41
542.17	39706.02
542.37	39941.53
542.58	40240.54
542.78	39767.46
542.98	39656.87
543.18	40138.14
543.38	40469.91
543.59	40687.00
543.79	40340.89
543.99	40340.89
544.19	40691.09
544.40	40625.56
544.60	40783.25
544.80	40607.12
545.00	40670.61
545.20	40986.00
545.41	40816.02
545.61	40660.37
545.81	41018.77
546.01	41121.16
546.21	41201.04
546.42	41188.75
546.62	41352.58
546.82	40967.57
547.02	41745.80
547.22	41657.73
547.43	41383.30
547.63	41608.58
547.83	41672.07
548.03	41555.33
548.23	41805.19
548.44	41792.90
548.64	41885.06
548.84	42040.70
549.04	42018.17
549.24	42530.17
549.45	42653.05
549.65	41917.82
549.85	41887.10
550.05	42440.06
550.25	42351.99
550.45	42696.05
550.66	42732.92
550.86	42526.07
551.06	42906.99
551.26	42663.28
551.46	42833.27
551.66	43048.30
551.87	42575.22
552.07	42853.75
552.27	42831.22
552.47	42964.34
552.67	43523.43
552.87	43140.46
553.07	42849.65
553.28	43605.35
553.48	43476.33
553.68	43107.69
553.88	43830.63
554.08	43541.86
554.28	43439.47
554.48	43468.14
554.69	43634.02
554.89	43418.99
555.09	43742.56
555.29	43521.38
555.49	43773.28
555.69	43963.75
555.89	43769.19
556.10	44164.45
556.30	43601.25
556.50	43783.52
556.70	43316.59
556.90	44442.97
557.10	43906.40
557.30	43720.04
557.50	44127.58
557.70	44578.14
557.91	44623.19
558.11	44313.95
558.31	44440.92
558.51	44395.87
558.71	44770.64
558.91	44848.47
559.11	44447.07
559.31	44703.06
559.51	44483.93
559.72	44901.71
559.92	44901.71
560.12	44367.20
560.32	45149.52
560.52	44975.44
560.72	44850.52
560.92	45245.77
561.12	45256.01
561.32	45284.68
561.52	44993.87
561.72	45155.66
561.93	45159.76
562.13	45088.08
562.33	45170.00
562.53	45630.79
562.73	44739.93
562.93	44987.73
563.13	45141.33
563.33	45180.24
563.53	45303.12
563.73	45110.61
563.93	45784.39
564.13	45925.70
564.33	45581.64
564.53	45380.94
564.74	45817.16
564.94	45442.38
565.14	45747.53
565.34	45643.08
565.54	46091.58
565.74	45819.20
565.94	46159.17
566.14	46001.47
566.34	46161.22
566.54	46284.09
566.74	45831.49
566.94	46185.79
567.14	46265.66
567.34	45917.51
567.54	46552.38
567.74	46273.85
567.94	46265.66
568.14	46134.59
568.34	46400.83
568.54	46255.42
568.74	46257.47
568.94	46478.65
569.14	46966.07
569.34	46568.76
569.54	46583.10
569.75	46568.76
569.95	46503.23
570.15	46945.59
570.35	46921.01
570.55	46900.53
570.75	46937.40
570.95	46533.95
571.15	47164.72
571.35	47019.31
571.55	47254.83
571.75	47086.90
571.95	47189.30
572.15	47017.27
572.35	47201.58
572.55	47109.43
572.75	47283.50
572.95	47488.30
573.15	47263.02
573.35	47639.85
573.55	47291.69
573.75	46935.35
573.95	47559.98
574.15	47342.89
574.35	47662.38
574.55	47879.46
574.75	47584.55
574.95	47439.15
575.15	47695.14
575.34	47619.37
575.54	47930.66
575.74	47803.69
575.94	48018.72
576.14	47783.21
576.34	48020.77
576.54	48137.51
576.74	48258.34
576.94	48133.41
577.14	48608.54
577.34	48553.24
577.54	48008.48
577.74	48469.28
577.94	48850.20
578.14	48850.20
578.34	48799.00
578.54	48362.78
578.74	48323.87
578.94	49071.38
579.14	48723.22
579.34	48655.64
579.54	48882.97
579.74	49186.07
579.94	49022.23
580.13	49134.87
580.33	49214.74
580.53	49399.05
580.73	49122.58
580.93	49456.40
581.13	49388.81
581.33	49681.67
581.53	49214.74
581.73	49771.78
581.93	49730.83
582.13	49960.20
582.33	49685.77
582.53	49911.05
582.73	49947.91
582.92	49943.81
583.12	49698.06
583.32	49835.27
583.52	49911.05
583.72	50369.79
583.92	49988.87
584.12	49976.58
584.32	50509.05
584.52	50203.91
584.72	50394.37
584.92	50453.76
585.11	50724.09
585.31	50294.02
585.51	50654.46
585.71	50459.90
585.91	51053.81
586.11	50640.12
586.31	50894.07
586.51	50728.19
586.71	50836.73
586.91	51123.44
587.10	51221.75
587.30	51358.96
587.50	51076.34
587.70	50994.42
587.90	51375.34
588.10	50926.84
588.30	51598.57
588.50	51410.16
588.69	51807.47
588.89	51184.88
589.09	51348.72
589.29	51760.36
589.49	51471.60
589.69	51180.79
589.89	51875.05
590.08	51715.31
590.28	51748.07
590.48	51422.45
590.68	51479.79
590.88	51651.82
591.08	51909.86
591.28	51707.12
591.47	52301.03
591.67	52245.73
591.87	52135.14
592.07	52258.02
592.27	52276.45
592.47	52393.18
592.67	52126.95
592.86	52219.11
593.06	52501.73
593.26	52454.62
593.46	52335.84
593.66	52319.46
593.86	52296.93
594.05	52253.92
594.25	52397.28
594.45	52241.63
594.65	52659.42
594.85	52163.81
595.05	52868.31
595.24	53423.31
595.44	52958.42
595.64	52927.70
595.84	52780.25
596.04	53204.18
596.23	53171.41
596.43	53507.28
596.63	53228.76
596.83	53109.97
597.03	53546.19
597.22	53996.74
597.42	53273.81
597.62	53654.73
597.82	53746.89
598.02	53626.06
598.21	53851.34
598.41	53261.52
598.61	53478.61
598.81	53675.21
599.01	53914.83
599.20	53486.80
599.40	53712.08
599.60	53941.45
599.80	54138.05
600.00	54215.88
600.19	54015.18
600.39	53970.12
600.59	54473.92
600.79	54408.39
600.98	54189.25
601.18	54269.12
601.38	54332.61
601.58	54789.31
601.78	55336.12
601.97	54654.14
602.17	54840.51
602.37	54768.83
602.57	54424.77
602.76	55016.63
602.96	54908.09
603.16	55344.31
603.36	55063.74
603.55	54936.76
603.75	55268.53
603.95	55401.65
604.15	55014.58
604.34	55043.26
604.54	55125.17
604.74	55860.40
604.94	55563.44
605.13	55813.29
605.33	56218.79
605.53	55375.03
605.73	55925.93
605.92	55481.52
606.12	55688.37
606.32	55518.38
606.52	55774.38
606.71	55948.46
606.91	56018.09
607.11	55905.45
607.30	56245.41
607.50	56251.56
607.70	56317.09
607.90	56147.11
608.09	56091.82
608.29	56341.67
608.49	56073.38
608.68	56458.40
608.88	56497.31
609.08	56235.17
609.28	56652.96
609.47	56284.33
609.67	56779.93
609.87	56380.58
610.06	56585.38
610.26	56931.48
610.46	56915.10
610.66	56751.26
610.85	56204.45
611.05	56325.28
611.25	57009.31
611.44	56163.50
611.64	56892.57
611.84	56765.60
612.03	56388.77
612.23	57162.90
612.43	56822.94
612.62	56761.50
612.82	56751.26
613.02	56636.58
613.21	56906.91
613.41	57126.04
613.61	57193.62
613.80	56319.14
614.00	56886.43
614.20	56794.27
614.39	56988.83
614.59	57095.32
614.79	56929.44
614.98	56755.36
615.18	56673.44
615.38	56972.44
615.57	56786.08
615.77	57291.93
615.97	57257.11
616.16	57130.14
616.36	56984.73
616.56	57183.38
616.75	57298.07
616.95	57074.84
617.15	56960.15
617.34	57162.90
617.54	57152.66
617.74	57664.66
617.93	57244.82
618.13	57220.25
618.32	56714.40
618.52	56712.35
618.72	57277.59
618.91	57318.55
619.11	57191.58
619.31	57349.27
619.50	57263.25
619.70	56935.58
619.90	57070.75
620.09	57054.36
620.29	56798.37
620.48	57037.98
620.68	57537.68
620.88	56880.28
621.07	57210.01
621.27	57220.25
621.46	56939.68
621.66	56771.74
621.86	57117.85
622.05	56935.58
622.25	57472.15
622.44	56935.58
622.64	56796.32
622.84	56988.83
623.03	57171.10
623.23	56880.28
623.42	56923.29
623.62	57148.57
623.82	57439.38
624.01	57148.57
624.21	57332.89
624.40	56702.11
624.60	57185.43
624.80	57355.41
624.99	57140.38
625.19	56661.15
625.38	57441.43
625.58	57119.90
625.77	57037.98
625.97	57283.73
626.17	57003.16
626.36	57001.11
626.56	57300.12
626.75	56818.84
626.95	57019.55
627.14	57031.83
627.34	57629.84
627.54	57296.02
627.73	57111.70
627.93	57195.67
628.12	57021.59
628.32	57105.56
628.51	57201.82
628.71	57230.49
628.90	57363.60
629.10	56833.18
629.30	57320.60
629.49	57056.41
629.69	56857.76
629.88	57300.12
630.08	57275.54
630.27	57167.00
630.47	57242.77
630.66	57228.44
630.86	57730.19
631.05	56857.76
631.25	58035.34
631.44	57158.81
631.64	57222.29
631.84	57521.30
632.03	57537.68
632.23	57441.43
632.42	57912.46
632.62	57324.69
632.81	56980.63
633.01	57236.63
633.20	57156.76
633.40	57779.34
633.59	57199.77
633.79	56880.28
633.98	57107.61
634.18	57664.66
634.37	57582.74
634.57	57386.13
634.76	57513.11
634.96	57621.65
635.15	57423.00
635.35	57017.50
635.54	57588.88
635.74	57846.93
635.93	56933.53
636.13	57820.30
636.32	57726.10
636.52	57566.35
636.71	57711.76
636.91	57210.01
637.10	57703.57
637.30	57476.24
637.49	57678.99
637.69	57435.28
637.88	57463.96
638.08	57414.80
638.27	57910.41
638.46	57746.57
638.66	57506.96
638.85	57781.39
639.05	57666.70
639.24	57599.12
639.44	57808.01
639.63	57812.11
639.83	57959.56
640.02	57480.34
640.22	57724.05
640.41	57867.40
640.61	57472.15
640.80	57326.74
640.99	57357.46
641.19	58672.26
641.38	57599.12
641.58	57779.34
641.77	57650.32
641.97	57451.67
642.16	57781.39
642.36	58283.14
642.55	58199.18
642.74	57701.52
642.94	58006.67
643.13	58037.39
643.33	58070.15
643.52	58078.35
643.72	58381.45
643.91	57808.01
644.10	57789.58
644.30	58221.70
644.49	58342.53
644.69	58209.42
644.88	58111.11
645.08	57955.47
645.27	58389.64
645.46	57924.75
645.66	58162.31
645.85	58172.55
646.05	58356.87
646.24	58440.84
646.43	58174.60
646.63	58473.60
646.82	58383.49
647.02	58225.80
647.21	58248.33
647.40	58229.90
647.60	58377.35
647.79	58326.15
647.99	58422.40
648.18	58141.83
648.37	58877.05
648.57	58498.18
648.76	58557.57
648.96	58348.68
649.15	58700.93
649.34	58594.43
649.54	58631.30
649.73	58315.91
649.92	58842.24
650.12	58416.26
650.31	58549.38
650.51	59118.71
650.70	58840.19
650.89	58637.44
651.09	59339.89
651.28	58694.78
651.47	58881.15
651.67	58399.88
651.86	59128.95
652.06	58512.52
652.25	58987.64
652.44	58836.09
652.64	58817.66
652.83	58989.69
653.02	58541.19
653.22	59055.23
653.41	58594.43
653.60	58635.39
653.80	58678.40
653.99	58979.45
654.18	58817.66
654.38	58713.22
654.57	58883.20
654.76	58795.13
654.96	58580.10
655.15	58643.59
655.34	59036.80
655.54	58344.58
655.73	58924.16
655.92	59171.96
656.12	59061.37
656.31	58733.70
656.50	59280.50
656.70	59151.48
656.89	58985.60
657.08	59004.03
657.28	58963.07
657.47	58924.16
657.66	58909.82
657.86	58913.92
658.05	58758.27
658.24	59337.85
658.43	59214.97
658.63	59417.72
658.82	59053.18
659.01	59276.41
659.21	59339.89
659.40	59233.40
659.59	58698.88
659.79	59534.45
659.98	59561.08
660.17	59223.16
660.36	59593.84
660.56	59081.85
660.75	59303.03
660.94	59128.95
661.14	59374.71
661.33	59159.67
661.52	58422.40
661.71	59696.24
661.91	58938.49
662.10	58989.69
662.29	59839.60
662.49	59200.63
662.68	59286.65
662.87	59536.50
663.06	59430.01
663.26	59276.41
663.45	59268.22
663.64	59417.72
663.83	59702.38
664.03	59470.96
664.22	59292.79
664.41	59423.86
664.60	59245.69
664.80	59112.57
664.99	59171.96
665.18	59249.78
665.37	59688.05
665.57	59210.87
665.76	59401.33
665.95	59462.77
666.14	58752.13
666.34	59290.74
666.53	59276.41
666.72	58887.29
666.91	58389.64
667.11	58983.55
667.30	59251.83
667.49	59315.32
667.68	59030.65
667.87	59061.37
668.07	59454.58
668.26	59278.46
668.45	59466.87
668.64	58868.86
668.84	60111.98
669.03	59735.15
669.22	59192.44
669.41	59485.30
669.60	59346.04
669.80	58864.77
669.99	59759.73
670.18	59087.99
670.37	59151.48
670.57	59384.95
670.76	58977.40
670.95	59286.65
671.14	59358.33
671.33	59032.70
671.53	59360.37
671.72	58922.11
671.91	59104.38
672.10	58752.13
672.29	58834.05
672.48	59417.72
672.68	59546.74
672.87	59319.41
673.06	58799.23
673.25	58842.24
673.44	58782.85
673.64	58901.63
673.83	59194.49
674.02	59257.98
674.21	58698.88
674.40	59300.98
674.59	58676.35
674.79	58594.43
674.98	58811.52
675.17	59135.10
675.36	59049.08
675.55	58995.84
675.74	58520.71
675.94	59249.78
676.13	58850.43
676.32	59282.55
676.51	59204.73
676.70	59636.85
676.89	58836.09
677.08	59430.01
677.28	58725.50
677.47	59096.19
677.66	59495.54
677.85	58924.16
678.04	58938.49
678.23	59321.46
678.42	59090.04
678.62	58987.64
678.81	59151.48
679.00	58532.99
679.19	59155.58
679.38	58696.83
679.57	58813.57
679.76	59085.95
679.96	59280.50
680.15	59147.39
680.34	58932.35
680.53	58997.88
680.72	59100.28
680.91	59063.42
681.10	59075.71
681.29	58518.66
681.48	58387.59
681.68	58868.86
681.87	58928.25
682.06	58786.94
682.25	58612.87
682.44	58557.57
682.63	58766.46
682.82	58905.73
683.01	58389.64
683.20	58606.72
683.39	58809.47
683.59	58408.07
683.78	58627.20
683.97	58225.80
684.16	58610.82
684.35	58270.85
684.54	58508.42
684.73	58225.80
684.92	57906.32
685.11	57922.70
685.30	57955.47
685.49	58356.87
685.69	58322.05
685.88	58270.85
686.07	58170.50
686.26	58016.91
686.45	57896.08
686.64	58324.10
686.83	57859.21
687.02	57810.06
687.21	58299.53
687.40	58233.99
687.59	57978.00
687.78	58508.42
687.97	58696.83
688.16	58401.92
688.35	58467.46
688.54	57830.54
688.74	57967.76
688.93	57814.16
689.12	58021.00
689.31	58180.74
689.50	58324.10
689.69	58070.15
689.88	57433.24
690.07	57595.03
690.26	57932.94
690.45	58297.48
690.64	57871.50
690.83	57586.83
691.02	57480.34
691.21	57697.42
691.40	57640.08
691.59	57611.41
691.78	57554.07
691.97	57334.93
692.16	57457.81
692.35	57740.43
692.54	57627.79
692.73	57742.48
692.92	57187.48
693.11	57736.34
693.30	57138.33
693.49	57816.21
693.68	57005.21
693.87	57654.42
694.06	57226.39
694.25	56804.51
694.44	57095.32
694.63	57461.91
694.82	57291.93
695.01	57136.28
695.20	57316.50
695.39	57091.22
695.58	56960.15
695.77	57015.45
695.96	57007.26
696.15	57275.54
696.34	57265.30
696.53	57478.29
696.72	56931.48
696.91	57089.18
697.10	56460.45
697.29	56898.72
697.48	57138.33
697.67	56804.51
697.86	56544.42
698.05	56677.54
698.24	57013.40
698.43	56558.75
698.62	56655.01
698.81	56587.42
699.00	56562.85
699.19	56224.93
699.38	56730.78
699.57	56472.74
699.76	57083.03
699.95	56366.24
700.14	56378.53
700.32	56722.59
700.51	56442.02
700.70	56523.94
700.89	56513.70
701.08	56616.10
701.27	56132.78
701.46	56767.65
701.65	55821.48
701.84	56165.54
702.03	56013.99
702.22	55829.68
702.41	56013.99
702.60	56116.39
702.79	56315.04
702.98	56235.17
703.17	55921.83
703.35	55792.81
703.54	55907.50
703.73	56345.76
703.92	55932.07
704.11	56212.65
704.30	55815.34
704.49	55696.56
704.68	55547.06
704.87	55606.45
705.06	55614.64
705.25	55700.65
705.43	55841.96
705.62	55839.92
705.81	55471.28
706.00	55704.75
706.19	55162.04
706.38	55532.72
706.57	55239.86
706.76	55444.66
706.95	55604.40
707.14	55348.40
707.32	54588.61
707.51	55119.03
707.70	54994.10
707.89	55047.35
708.08	54719.68
708.27	55276.72
708.46	55624.88
708.65	55194.81
708.84	55317.68
709.02	55057.59
709.21	55248.05
709.40	54938.81
709.59	54901.95
709.78	54852.80
709.97	55164.09
710.16	54451.39
710.34	54936.76
710.53	54899.90
710.72	54111.43
710.91	54918.33
711.10	55069.88
711.29	54727.87
711.48	54662.33
711.66	54711.49
711.85	54170.82
712.04	54842.56
712.23	54453.44
712.42	54596.80
712.61	54265.03
712.80	54658.24
712.98	54459.58
713.17	54283.46
713.36	54226.12
713.55	54435.01
713.74	54158.53
713.93	54031.56
714.11	54398.15
714.30	54295.75
714.49	54187.21
714.68	54701.25
714.87	54138.05
715.06	54457.54
715.24	53927.11
715.43	53865.67
715.62	53744.84
715.81	54148.29
716.00	53861.58
716.18	53712.08
716.37	53458.13
716.56	53533.90
716.75	53748.94
716.94	53499.09
717.12	53011.67
717.31	53359.83
717.50	53617.87
717.69	53316.82
717.88	53441.74
718.06	53779.66
718.25	53474.51
718.44	53054.68
718.63	53083.35
718.82	53376.21
719.00	53198.04
719.19	52929.75
719.38	53001.43
719.57	52249.83
719.76	52614.37
719.94	52630.75
720.13	52794.59
720.32	52735.20
720.51	52640.99
720.69	52532.45
720.88	52464.86
721.07	52632.80
721.26	52108.52
721.44	51926.25
721.63	52159.72
721.82	52247.78
722.01	52141.28
722.20	52032.74
722.38	52047.08
722.57	51510.51
722.76	52112.61
722.95	52094.18
723.13	51727.59
723.32	51404.02
723.51	51647.72
723.70	50836.73
723.88	51338.48
724.07	51518.70
724.26	51457.26
724.44	50885.88
724.63	51700.97
724.82	51571.95
725.01	51510.51
725.19	51229.94
725.38	51371.25
725.57	51182.84
725.76	51297.52
725.94	50695.42
726.13	50787.58
726.32	51123.44
726.51	50750.71
726.69	51279.09
726.88	51352.82
727.07	51014.90
727.25	50930.93
727.44	50851.06
727.63	50941.17
727.82	51272.95
728.00	51014.90
728.19	50525.44
728.38	51270.90
728.56	50439.42
728.75	50812.15
728.94	50478.33
729.12	50988.28
729.31	50662.65
729.50	50238.72
729.69	50975.99
729.87	51012.85
730.06	50742.52
730.25	50316.54
730.43	50808.06
730.62	50695.42
730.81	51033.33
730.99	50730.23
731.18	50801.91
731.37	50697.47
731.55	50658.56
731.74	50996.47
731.93	50812.15
732.11	50689.27
732.30	50812.15
732.49	50822.39
732.67	50380.03
732.86	50820.34
733.05	50541.82
733.23	50193.67
733.42	50468.09
733.61	50279.68
733.79	50584.83
733.98	50337.02
734.17	50541.82
734.35	50261.25
734.54	50414.85
734.73	50357.50
734.91	50081.03
735.10	49980.68
735.29	50103.56
735.47	49992.97
735.66	50289.92
735.84	50492.67
736.03	50001.16
736.22	50629.88
736.40	50177.28
736.59	50103.56
736.78	50443.52
736.96	50126.08
737.15	50251.01
737.33	49820.94
737.52	49706.25
737.71	50054.40
737.89	50152.71
738.08	49540.36
738.27	50021.64
738.45	50287.87
738.64	50136.32
738.82	49591.56
739.01	49747.21
739.20	49685.77
739.38	49835.27
739.57	50142.47
739.75	49523.98
739.94	49335.57
740.13	49943.81
740.31	49519.88
740.50	49493.26
740.68	49669.39
740.87	49278.22
741.06	49437.97
741.24	49685.77
741.43	49095.95
741.61	49657.10
741.80	49560.84
741.99	49200.40
742.17	49167.63
742.36	49495.31
742.54	49003.80
742.73	49104.15
742.91	49167.63
743.10	49138.96
743.29	49212.69
743.47	49218.83
743.66	49136.91
743.84	49429.77
744.03	49255.70
744.21	48968.98
744.40	49423.63
744.59	49169.68
744.77	48246.05
744.96	49278.22
745.14	48948.50
745.33	48897.30
745.51	48532.76
745.70	48950.55
745.88	48358.69
746.07	48934.17
746.26	48796.95
746.44	48104.74
746.63	48264.48
746.81	48731.42
747.00	48178.46
747.18	48233.76
747.37	48151.84
747.55	48319.77
747.74	48971.03
747.92	48035.11
748.11	48096.55
748.29	48543.00
748.48	48153.89
748.66	48266.53
748.85	48655.64
749.03	48530.72
749.22	48313.63
749.41	47854.89
749.59	48121.12
749.78	47756.58
749.96	47643.94
750.15	48184.61
750.33	47783.21
750.52	48327.97
750.70	47789.35
750.89	47738.15
751.07	47631.66
751.26	47605.03
751.44	47805.73
751.63	47553.83
751.81	47615.27
752.00	47678.76
752.18	47588.65
752.37	47338.80
752.55	47426.86
752.74	47377.71
752.92	47412.52
753.10	46945.59
753.29	47400.24
753.47	47168.82
753.66	47351.09
753.84	47381.80
754.03	47271.21
754.21	47043.89
754.40	47338.80
754.58	47260.97
754.77	47308.08
754.95	46982.45
755.14	47041.84
755.32	46849.33
755.51	46716.22
755.69	46761.27
755.88	46789.94
756.06	47002.93
756.24	46757.17
756.43	46556.47
756.61	46816.57
756.80	46423.36
756.98	46601.53
757.17	46687.54
757.35	46542.14
757.54	46914.87
757.72	46652.73
757.90	46388.54
758.09	46081.34
758.27	46404.92
758.46	46091.58
758.64	45888.84
758.83	46294.33
759.01	46255.42
759.19	45983.04
759.38	45884.74
759.56	46179.65
759.75	46204.22
759.93	45725.00
760.12	45958.47
760.30	46198.08
760.48	46019.91
760.67	45854.02
760.85	45864.26
761.04	46024.00
761.22	45802.82
761.40	45888.84
761.59	45845.83
761.77	45741.38
761.96	45565.26
762.14	45292.88
762.32	45313.36
762.51	45413.71
762.69	45233.49
762.88	45634.89
763.06	45407.56
763.24	45645.13
763.43	44979.54
763.61	45020.50
763.80	45184.33
763.98	44688.73
764.16	45018.45
764.35	44846.42
764.53	44567.90
764.72	44725.59
764.90	45266.25
765.08	44832.08
765.27	45069.65
765.45	44406.11
765.63	44719.45
765.82	44641.62
766.00	44156.25
766.18	44365.15
766.37	44584.28
766.55	44344.67
766.74	44660.05
766.92	44098.91
767.10	44094.82
767.29	44215.65
767.47	43627.88
767.65	44318.04
767.84	43890.02
768.02	44277.08
768.20	43879.78
768.39	44246.36
768.57	43900.26
768.75	43978.08
768.94	44049.76
769.12	44082.53
769.30	43713.89
769.49	43701.61
769.67	43556.20
769.85	43455.85
770.04	43732.32
770.22	43027.82
770.40	43824.48
770.59	43199.85
770.77	43814.24
770.95	43007.34
771.14	43273.58
771.32	43197.80
771.50	42741.11
771.69	42671.48
771.87	43367.79
772.05	42855.79
772.24	42268.03
772.42	43154.80
772.60	42775.92
772.78	42976.62
772.97	42552.69
773.15	43156.85
773.33	42579.32
773.52	42673.52
773.70	42739.06
773.88	42904.95
774.07	42548.60
774.25	42370.43
774.43	42761.59
774.61	43015.54
774.80	43099.50
774.98	42814.83
775.16	42923.38
775.34	42753.40
775.53	42431.86
775.71	43072.88
775.89	42937.71
776.08	42857.84
776.26	43191.66
776.44	42616.18
776.62	42579.32
776.81	42079.61
776.99	42442.10
777.17	42769.78
777.35	42962.29
777.54	43292.01
777.72	42925.42
777.90	43341.16
778.08	42886.51
778.27	42833.27
778.45	43304.30
778.63	43136.37
778.81	42462.58
779.00	43341.16
779.18	42988.91
779.36	43562.34
779.54	43234.67
779.73	43015.54
779.91	43568.49
780.09	43343.21
780.27	43429.23
780.46	43558.25
780.64	43529.58
780.82	43429.23
781.00	43236.72
781.19	43615.59
781.37	43824.48
781.55	43906.40
781.73	43939.17
781.91	43687.27
782.10	43365.74
782.28	43634.02
782.46	43627.88
782.64	43838.82
782.82	43062.64
783.01	43883.87
783.19	43597.16
783.37	43429.23
783.55	43349.35
783.74	43742.56
783.92	43505.00
784.10	44053.86
784.28	43871.59
784.46	43709.80
784.64	43459.94
784.83	43631.97
785.01	43623.78
785.19	43959.65
785.37	43875.68
785.55	43982.18
785.74	43650.41
785.92	43169.13
786.10	43367.79
786.28	43640.17
786.46	43509.10
786.64	43279.72
786.83	42685.81
787.01	43517.29
787.19	43214.19
787.37	43519.34
787.55	43101.55
787.74	42679.67
787.92	43070.83
788.10	43091.31
788.28	42757.49
788.46	42804.59
788.64	42863.99
788.82	43203.95
789.01	42825.07
789.19	43279.72
789.37	42464.63
789.55	42790.26
789.73	42319.23
789.91	42214.78
790.09	42513.78
790.28	42546.55
790.46	42356.09
790.64	42610.04
790.82	42331.51
791.00	41885.06
791.18	42100.09
791.36	41993.60
791.55	42151.29
791.73	41600.39
791.91	41473.42
792.09	41942.40
792.27	41801.09
792.45	41674.12
792.63	41807.23
792.81	41477.51
793.00	41674.12
793.18	41373.06
793.36	41479.56
793.54	41287.05
793.72	41264.52
793.90	40961.42
794.08	41026.96
794.26	41139.60
794.44	40508.82
794.62	40340.89
794.81	40852.88
794.99	40525.21
795.17	40603.03
795.35	40156.57
795.53	40306.07
795.71	39951.77
795.89	40101.28
796.07	39925.15
796.25	39921.05
796.43	39712.16
796.61	39439.78
796.80	39624.10
796.98	39558.56
797.16	39290.28
797.34	39585.19
797.52	39359.91
797.70	39503.27
797.88	39146.92
798.06	38778.29
798.24	39232.94
798.42	38669.75
798.60	38899.12
798.78	38739.38
798.96	38827.44
799.14	38733.23
799.32	38903.21
799.51	38335.93
799.69	38409.65
799.87	38387.13
800.05	38118.84
800.23	38544.82
800.41	38274.49
800.59	38241.72
800.77	37778.88
800.95	37744.06
801.13	37563.84
801.31	37541.32
801.49	37643.71
801.67	37455.30
801.85	37371.33
802.03	37090.76
802.21	37019.08
802.39	37283.27
802.57	36933.07
802.75	36662.74
802.93	36881.87
803.11	36900.30
803.29	36881.87
803.47	36240.86
803.65	36459.99
803.83	36546.00
804.01	36517.33
804.19	36255.19
804.37	36068.83
804.55	36070.87
804.73	36181.46
804.91	36148.70
805.09	36388.31
805.27	36330.97
805.45	35909.08
805.63	35954.14
805.81	36085.21
805.99	35616.22
806.17	36107.74
806.35	35319.27
806.53	35378.66
806.71	35409.38
806.89	35239.40
807.07	35274.21
807.25	35304.93
807.43	34942.44
807.61	35638.75
807.79	35311.08
807.97	34854.38
808.15	34874.86
808.33	34766.32
808.51	34590.19
808.69	34586.10
808.87	34321.91
809.05	34133.50
809.23	34549.23
809.41	34424.31
809.59	34295.28
809.77	34387.44
809.95	34057.72
810.13	34442.74
810.31	33723.90
810.49	33717.76
810.67	33889.79
810.84	33809.92
811.02	33842.68
811.20	33580.54
811.38	34172.41
811.56	33195.53
811.74	33693.18
811.92	33609.22
812.10	33179.14
812.28	33644.03
812.46	33402.37
812.64	33797.63
812.82	33383.94
813.00	33222.15
813.18	33224.20
813.36	33089.03
813.53	32558.61
813.71	32796.17
813.89	32910.86
814.07	32589.33
814.25	32669.20
814.43	32499.22
814.61	32667.15
814.79	32103.96
814.97	32110.10
815.15	32413.20
815.33	32341.52
815.50	32318.99
815.68	32560.66
815.86	32448.02
816.04	32042.52
816.22	32394.77
816.40	32321.04
816.58	31829.53
816.76	31968.79
816.94	31915.54
817.11	31944.22
817.29	31893.02
817.47	31419.94
817.65	31637.02
817.83	31360.55
818.01	31424.03
818.19	31342.11
818.37	31325.73
818.54	31020.58
818.72	30889.51
818.90	31409.70
819.08	31401.50
819.26	31217.19
819.44	31342.11
819.62	31057.45
819.80	30948.90
819.97	30821.93
820.15	30899.75
820.33	30672.43
820.51	30869.03
820.69	30676.52
820.87	31153.70
821.05	30846.51
821.22	30627.37
821.40	30690.86
821.58	30398.00
821.76	30225.97
821.94	30139.96
822.12	30539.31
822.29	30934.57
822.47	30266.93
822.65	30236.21
822.83	30316.08
823.01	30219.83
823.19	30094.90
823.36	30103.09
823.54	29679.16
823.72	29894.20
823.90	29709.88
824.08	29480.51
824.25	29466.17
824.43	29314.62
824.61	29490.75
824.79	29705.79
824.97	29507.13
825.15	29812.28
825.32	29619.77
825.50	29261.38
825.68	29636.16
825.86	29396.54
826.04	29304.38
826.21	29435.45
826.39	29015.62
826.57	29140.55
826.75	29095.49
826.93	29017.67
827.10	29154.88
827.28	29290.05
827.46	29201.99
827.64	29009.48
827.81	28999.24
827.99	29048.39
828.17	28862.02
828.35	28816.97
828.53	28601.93
828.70	28712.52
828.88	28546.64
829.06	28646.99
829.24	28802.63
829.41	28571.21
829.59	28786.25
829.77	28462.67
829.95	28526.16
830.12	28393.04
830.30	28366.42
830.48	28323.41
830.66	28235.35
830.84	28544.59
831.01	28266.06
831.19	28374.61
831.37	27905.62
831.55	28053.08
831.72	28155.47
831.90	27973.21
832.08	28108.37
832.25	28237.39
832.43	28040.79
832.61	27823.70
832.79	28087.89
832.96	27977.30
833.14	27899.48
833.32	27754.07
833.50	27678.30
833.67	27588.19
833.85	27670.11
834.03	27688.54
834.20	27596.38
834.38	27930.20
834.56	27559.52
834.74	27100.77
834.91	27268.70
835.09	27037.28
835.27	27145.83
835.44	27407.97
835.62	27108.96
835.80	27080.29
835.98	27522.65
836.15	27086.43
836.33	27027.04
836.51	27313.76
836.68	26863.21
836.86	27065.96
837.04	26938.98
837.21	26789.48
837.39	26920.55
837.57	27108.96
837.75	27068.00
837.92	26637.93
838.10	26525.29
838.28	26445.42
838.45	26539.63
838.63	26590.83
838.81	26621.55
838.98	26410.60
839.16	26398.32
839.34	26207.86
839.51	26316.40
839.69	26474.09
839.87	26220.14
840.04	26146.42
840.22	26474.09
840.40	26504.81
840.57	25798.26
840.75	25966.20
840.93	25687.67
841.10	26054.26
841.28	26330.73
841.46	25929.33
841.63	25890.42
841.81	26011.25
841.98	26101.36
842.16	26066.55
842.34	26087.03
842.51	25552.51
842.69	25921.14
842.87	25783.93
843.04	25994.87
843.22	25828.98
843.40	25767.54
843.57	25751.16
843.75	26009.20
843.92	25480.83
844.10	25605.75
844.28	25833.08
844.45	25538.17
844.63	25364.09
844.81	25362.04
844.98	25534.07
845.16	25331.33
845.33	25251.45
845.51	25495.16
845.69	24960.64
845.86	24993.41
846.04	25032.32
846.21	25251.45
846.39	24888.96
846.57	24950.40
846.74	24942.21
846.92	25157.25
847.09	25046.66
847.27	24628.87
847.45	25046.66
847.62	24979.07
847.80	25038.47
847.97	24917.64
848.15	24757.89
848.32	24399.50
848.50	25009.79
848.68	24663.69
848.85	24456.84
849.03	24368.78
849.20	24581.77
849.38	24483.47
849.56	24694.41
849.73	24262.29
849.91	24147.60
850.08	24909.44
850.26	23991.95
850.43	24571.53
850.61	24180.37
850.78	23920.28
850.96	24397.45
851.14	24041.11
851.31	24090.26
851.49	24209.04
851.66	23953.04
851.84	24178.32
852.01	24407.69
852.19	23961.23
852.36	24057.49
852.54	24368.78
852.71	24032.91
852.89	23858.84
853.07	23756.44
853.24	23815.83
853.42	23674.52
853.59	23500.44
853.77	24002.19
853.94	23662.23
854.12	23875.22
854.29	23187.10
854.47	23531.16
854.64	23738.01
854.82	23342.75
854.99	23451.29
855.17	23719.57
855.34	23611.03
855.52	23477.91
855.69	23793.30
855.87	23451.29
856.04	23176.86
856.22	23471.77
856.39	23137.95
856.57	23045.79
856.74	23342.75
856.92	23338.65
857.09	23197.34
857.27	23053.98
857.44	23369.37
857.62	23205.53
857.79	23228.06
857.97	23402.14
858.14	22896.29
858.32	23176.86
858.49	23070.37
858.67	22955.68
858.84	23099.04
859.02	22759.08
859.19	22867.62
859.37	22967.97
859.54	22828.71
859.72	22834.85
859.89	22705.83
860.06	22849.19
860.24	22404.78
860.41	22881.95
860.59	22466.22
860.76	22595.24
860.94	22349.48
861.11	22697.64
861.29	22933.15
861.46	22386.35
861.64	22498.98
861.81	22312.62
861.98	22544.04
862.16	22437.55
862.33	21999.28
862.51	22333.10
862.68	22486.70
862.86	22177.45
863.03	21946.03
863.21	22267.56
863.38	22429.35
863.55	22019.76
863.73	22013.62
863.90	22058.67
864.08	21704.37
864.25	21978.80
864.43	21978.80
864.60	21851.83
864.77	21829.30
864.95	21855.92
865.12	21915.31
865.30	21788.34
865.47	21450.42
865.64	21731.00
865.82	21530.30
865.99	21708.47
866.17	21599.93
866.34	21952.18
866.51	21307.07
866.69	21573.30
866.86	21419.71
867.04	21642.93
867.21	21544.63
867.38	21216.96
867.56	21257.92
867.73	20942.53
867.91	21286.59
868.08	21434.04
868.25	21165.76
868.43	20885.19
868.60	21165.76
868.78	21364.41
868.95	21245.63
869.12	20911.81
869.30	20801.22
869.47	21102.27
869.64	20471.50
869.82	21022.40
869.99	20784.83
870.16	20989.63
870.34	20586.18
870.51	20776.64
870.69	20803.27
870.86	20750.02
871.03	20655.81
871.21	20354.76
871.38	20780.74
871.55	20410.06
871.73	20532.93
871.90	20346.57
872.07	19975.89
872.25	19934.93
872.42	20334.28
872.59	20152.01
872.77	20004.56
872.94	20287.18
873.11	19787.47
873.29	19996.37
873.46	19810.00
873.63	20057.81
873.81	19904.21
873.98	19824.34
874.15	19713.75
874.33	19881.68
874.50	19545.81
874.67	19658.45
874.85	19687.12
875.02	19934.93
875.19	19568.34
875.37	19703.51
875.54	19637.97
875.71	19300.06
875.88	19082.97
876.06	19416.79
876.23	19353.30
876.40	19369.69
876.58	19265.24
876.75	19173.08
876.92	19023.58
877.10	19285.72
877.27	19255.00
877.44	19162.84
877.61	19015.39
877.79	19189.47
877.96	18890.46
878.13	18867.94
878.31	18685.67
878.48	18814.69
878.65	18749.15
878.82	18566.88
879.00	18783.97
879.17	18839.26
879.34	18763.49
879.51	18484.97
879.69	18650.85
879.86	18380.52
880.03	18298.60
880.21	18548.45
880.38	18347.75
880.55	18396.90
880.72	18384.62
880.90	18460.39
881.07	18349.80
881.24	18337.51
881.41	18321.13
881.59	18212.59
881.76	18265.83
881.93	18425.57
882.10	18128.62
882.28	18040.56
882.45	18263.79
882.62	18003.69
882.79	18138.86
882.96	17835.76
883.14	18140.91
883.31	18024.17
883.48	18106.09
883.65	18005.74
883.83	17870.58
884.00	18040.56
884.17	17825.52
884.34	17829.62
884.51	17852.14
884.69	17897.20
884.86	17649.39
885.03	17866.48
885.20	17737.46
885.38	17647.35
885.55	17651.44
885.72	17991.41
885.89	17534.71
886.06	17524.47
886.24	17532.66
886.41	17325.82
886.58	17716.98
886.75	17712.88
886.92	17446.65
887.10	17739.51
887.27	17309.43
887.44	17465.08
887.61	17608.44
887.78	17604.34
887.95	17471.22
888.13	17147.64
888.30	17069.82
888.47	17204.99
888.64	17145.59
888.81	17084.16
888.99	17221.37
889.16	17161.98
889.33	16862.97
889.50	16981.76
889.67	16838.40
889.84	16951.04
890.01	17147.64
890.19	16815.87
890.36	16895.74
890.53	16852.73
890.70	16613.12
890.87	16793.34
891.04	16881.41
891.22	16852.73
891.39	16723.71
891.56	16596.74
891.73	16617.22
891.90	16424.71
892.07	16340.74
892.24	16602.88
892.42	16627.46
892.59	16359.17
892.76	16488.20
892.93	16336.65
893.10	16664.32
893.27	16606.98
893.44	16314.12
893.61	16307.98
893.79	16471.81
893.96	16187.14
894.13	16488.20
894.30	16379.65
894.47	16242.44
894.64	16692.99
894.81	16105.23
894.98	16369.41
895.15	16441.09
895.33	16424.71
895.50	16379.65
895.67	16369.41
895.84	16240.39
896.01	16142.09
896.18	16103.18
896.35	16418.57
896.52	16248.58
896.69	16170.76
896.86	16365.32
897.04	16232.20
897.21	16236.30
897.38	16166.67
897.55	16148.23
897.72	16334.60
897.89	16080.65
898.06	16342.79
898.23	16125.71
898.40	16160.52
898.57	16064.27
898.74	16267.02
898.91	16213.77
899.08	16058.12
899.26	16078.60
899.43	16244.49
899.60	15961.87
899.77	15869.71
899.94	16068.36
900.11	15931.15
900.28	16232.20
900.45	15841.04
900.62	16109.32
900.79	15949.58
900.96	15943.44
901.13	16070.41
901.30	15791.89
901.47	16004.88
901.64	15755.02
901.81	16142.09
901.98	15916.81
902.15	16072.46
902.32	15884.05
902.49	15890.19
902.66	15978.25
902.83	15798.03
903.01	15898.38
903.18	15822.61
903.35	16207.62
903.52	16064.27
903.69	15961.87
903.86	16246.54
904.03	15974.16
904.20	15955.72
904.37	16275.21
904.54	16142.09
904.71	15841.04
904.88	15986.44
905.05	15959.82
905.22	15884.05
905.39	15781.65
905.56	15935.24
905.73	15748.88
905.90	15996.68
906.07	15791.89
906.24	16008.97
906.41	15963.92
906.58	15634.19
906.75	15933.20
906.92	15699.73
907.09	15740.69
907.26	15830.80
907.43	15775.50
907.60	15783.70
907.77	15779.60
907.93	16035.60
908.10	15789.84
908.27	15861.52
908.44	15552.27
908.61	15499.03
908.78	15804.17
908.95	15947.53
909.12	15664.91
909.29	15875.85
909.46	15533.84
909.63	15722.26
909.80	15832.85
909.97	15539.99
910.14	15869.71
910.31	15566.61
910.48	15603.47
910.65	15703.82
910.82	15468.31
910.99	15476.50
911.16	15435.54
911.33	15470.36
911.50	15408.92
911.66	15402.77
911.83	15572.75
912.00	15433.49
912.17	15154.97
912.34	15189.78
912.51	15355.67
912.68	15351.57
912.85	15468.31
913.02	15124.25
913.19	15210.26
913.36	15290.13
913.53	15273.75
913.70	15159.06
913.86	15322.90
914.03	15251.22
914.20	15032.09
914.37	15177.50
914.54	15027.99
914.71	15058.71
914.88	15038.23
915.05	15109.91
915.22	14788.38
915.39	14860.06
915.55	14909.21
915.72	14653.22
915.89	14610.21
916.06	14913.31
916.23	14722.85
916.40	14696.22
916.57	14499.62
916.74	14823.20
916.91	14694.18
917.07	14638.88
917.24	14446.37
917.41	14456.61
917.58	14456.61
917.75	14374.69
917.92	14077.74
918.09	14217.00
918.26	14239.53
918.42	14423.84
918.59	14460.71
918.76	14280.49
918.93	14139.18
919.10	14065.45
919.27	13985.58
919.44	14073.64
919.60	14393.12
919.77	13936.43
919.94	13807.41
920.11	14016.30
920.28	13891.37
920.45	13862.70
920.61	13774.64
920.78	13680.43
920.95	13733.68
921.12	13569.84
921.29	13451.06
921.46	13467.44
921.62	13242.17
921.79	13582.13
921.96	13463.35
922.13	13344.56
922.30	13309.75
922.47	13217.59
922.63	13219.64
922.80	13008.70
922.97	12977.98
923.14	12928.83
923.31	12951.35
923.47	12748.61
923.64	13109.05
923.81	12797.76
923.98	12812.09
924.15	12693.31
924.32	12654.40
924.48	12785.47
924.65	12822.33
924.82	12453.70
924.99	12377.92
925.15	12316.48
925.32	12582.72
925.49	12408.64
925.66	12496.71
925.83	12150.60
925.99	12222.28
926.16	12349.25
926.33	12345.16
926.50	12027.72
926.67	12259.14
926.83	12060.49
927.00	11935.56
927.17	12085.06
927.34	11808.59
927.50	11849.55
927.67	12093.26
927.84	11800.40
928.01	11708.24
928.17	11640.65
928.34	11497.30
928.51	11583.31
928.68	11472.72
928.84	11468.62
929.01	11456.34
929.18	11071.32
929.35	11159.38
929.51	11267.92
929.68	11243.35
929.85	11210.58
930.02	11147.09
930.18	11186.01
930.35	11218.77
930.52	11114.33
930.69	11138.90
930.85	11165.53
931.02	10913.63
931.19	10678.11
931.36	10895.19
931.52	10598.24
931.69	10823.51
931.86	10553.18
932.02	10604.38
932.19	10481.50
932.36	10415.97
932.53	10323.81
932.69	10264.42
932.86	10461.02
933.03	10293.09
933.19	10076.01
933.36	10217.32
933.53	10108.77
933.70	10100.58
933.86	9985.90
934.03	10024.81
934.20	9891.69
934.36	9721.71
934.53	9637.74
934.70	9535.34
934.86	9500.53
935.03	9525.10
935.20	9498.48
935.36	9512.81
935.53	9224.05
935.70	9254.77
935.86	9269.11
936.03	9129.84
936.20	9095.03
936.36	8992.63
936.53	9115.51
936.70	8879.99
936.86	9054.07
937.03	8728.44
937.20	8451.97
937.36	8574.85
937.53	8318.85
937.70	8234.88
937.86	8243.07
938.03	8249.22
938.20	8277.89
938.36	7935.88
938.53	8015.75
938.70	7813.00
938.86	7749.51
939.03	7802.76
939.20	7600.01
939.36	7597.96
939.53	7417.74
939.70	7511.95
939.86	7182.23
940.03	7104.40
940.19	7143.32
940.36	7128.98
940.53	7151.51
940.69	6819.74
940.86	6838.17
941.03	6672.28
941.19	6789.02
941.36	6688.67
941.52	6680.47
941.69	6487.96
941.86	6379.42
942.02	6391.71
942.19	6375.33
942.35	6395.81
942.52	6203.30
942.69	6217.63
942.85	6336.42
943.02	6070.18
943.18	6139.81
943.35	5943.21
943.52	6127.52
943.68	5910.44
943.85	5916.58
944.01	5808.04
944.18	5783.46
944.35	5943.21
944.51	5844.90
944.68	5722.02
944.84	5691.31
945.01	5705.64
945.17	5593.00
945.34	5574.57
945.51	5623.72
945.67	5574.57
945.84	5631.91
946.00	5674.92
946.17	5539.76
946.33	5484.46
946.50	5396.40
946.67	5545.90
946.83	5425.07
947.00	5629.87
947.16	5500.84
947.33	5500.84
947.49	5586.86
947.66	5443.50
947.82	5605.29
947.99	5482.41
948.16	5447.60
948.32	5466.03
948.49	5418.93
948.65	5533.61
948.82	5455.79
948.98	5396.40
949.15	5304.24
949.31	5330.86
949.48	5476.27
949.64	5461.93
949.81	5601.19
949.97	5326.77
950.14	5519.28
950.30	5472.17
950.47	5570.48
950.63	5285.81
950.80	5482.41
950.96	5408.69
951.13	5595.05
951.30	5636.01
951.46	5611.43
951.63	5588.91
951.79	5406.64
951.96	5603.24
952.12	5642.15
952.29	5679.02
952.45	5543.85
952.62	5543.85
952.78	5760.94
952.94	5457.84
953.11	5580.71
953.27	5486.51
953.44	5662.63
953.60	5599.15
953.77	5615.53
953.93	5810.09
954.10	5578.67
954.26	5629.87
954.43	5623.72
954.59	5668.78
954.76	5621.67
954.92	5693.35
955.09	5713.83
955.25	5562.28
955.42	5607.34
955.58	5855.14
955.75	5648.30
955.91	5664.68
956.07	5756.84
956.24	5679.02
956.40	5625.77
956.57	5707.69
956.73	5707.69
956.90	5656.49
957.06	5648.30
957.23	5636.01
957.39	5658.54
957.56	5627.82
957.72	5625.77
957.88	5705.64
958.05	5593.00
958.21	5554.09
958.38	5738.41
958.54	5695.40
958.71	5771.18
958.87	5603.24
959.03	5631.91
959.20	5697.45
959.36	5550.00
959.53	5537.71
959.69	5570.48
959.85	5744.55
960.02	5554.09
960.18	5752.74
960.35	5693.35
960.51	5797.80
960.68	5523.37
960.84	5656.49
961.00	5590.95
961.17	5656.49
961.33	5658.54
961.50	5529.52
961.66	5638.06
961.82	5480.36
961.99	5658.54
962.15	5435.31
962.31	5609.39
962.48	5603.24
962.64	5685.16
962.81	5775.27
962.97	5672.87
963.13	5537.71
963.30	5627.82
963.46	5457.84
963.62	5656.49
963.79	5547.95
963.95	5586.86
964.12	5539.76
964.28	5595.05
964.44	5617.58
964.61	5566.38
964.77	5414.83
964.93	5541.80
965.10	5550.00
965.26	5441.45
965.42	5435.31
965.59	5463.98
965.75	5539.76
965.92	5568.43
966.08	5531.56
966.24	5351.34
966.41	5353.39
966.57	5463.98
966.73	5400.49
966.90	5582.76
967.06	5427.12
967.22	5451.69
967.39	5412.78
967.55	5394.35
967.71	5392.30
967.88	5486.51
968.04	5384.11
968.20	5455.79
968.37	5289.90
968.53	5461.93
968.69	5406.64
968.85	5361.58
969.02	5390.25
969.18	5459.88
969.34	5382.06
969.51	5345.20
969.67	5332.91
969.83	5189.55
970.00	5283.76
970.16	5255.09
970.32	5334.96
970.48	5416.88
970.65	5259.18
970.81	5183.41
970.97	5212.08
971.14	5070.77
971.30	5312.43
971.46	5255.09
971.63	5101.49
971.79	5187.50
971.95	5171.12
972.11	5117.87
972.28	5121.97
972.44	5148.59
972.60	5177.26
972.76	5136.31
972.93	5107.63
973.09	5091.25
973.25	5189.55
973.42	5101.49
973.58	5070.77
973.74	5097.39
973.90	5011.38
974.07	4984.76
974.23	5046.20
974.39	4986.80
974.55	5017.52
974.72	4990.90
974.88	4880.31
975.04	5076.91
975.20	5013.43
975.37	5017.52
975.53	5052.34
975.69	4904.89
975.85	4843.45
976.01	4872.12
976.18	4894.65
976.34	4788.15
976.50	4960.18
976.66	4908.98
976.83	4878.26
976.99	4939.70
977.15	4868.02
977.31	4796.34
977.47	4931.51
977.64	4800.44
977.80	4839.35
977.96	4794.29
978.12	4825.01
978.29	4759.48
978.45	4685.75
978.61	4718.52
978.77	4736.95
978.93	4681.66
979.10	4767.67
979.26	4595.64
979.42	4659.13
979.58	4583.35
979.74	4767.67
979.91	4566.97
980.07	4550.59
980.23	4640.70
980.39	4515.77
980.55	4591.55
980.71	4532.15
980.88	4644.79
981.04	4622.27
981.20	4483.00
981.36	4378.56
981.52	4609.98
981.68	4593.59
981.85	4450.24
982.01	4550.59
982.17	4493.24
982.33	4390.84
982.49	4446.14
982.65	4483.00
982.82	4458.43
982.98	4487.10
983.14	4382.65
983.30	4501.44
983.46	4435.90
983.62	4329.41
983.79	4280.25
983.95	4366.27
984.11	4200.38
984.27	4417.47
984.43	4437.95
984.59	4323.26
984.75	4468.67
984.91	4337.60
985.08	4298.69
985.24	4257.73
985.40	4286.40
985.56	4198.34
985.72	4220.86
985.88	4413.37
986.04	4237.25
986.20	4102.08
986.37	4251.58
986.53	4104.13
986.69	4259.78
986.85	4061.12
987.01	4143.04
987.17	4253.63
987.33	4091.84
987.49	4108.23
987.65	4136.90
987.82	4151.23
987.98	3940.29
988.14	4063.17
988.30	4054.98
988.46	4100.03
988.62	4106.18
988.78	4151.23
988.94	4079.55
989.10	3917.76
989.26	4054.98
989.42	4073.41
989.59	3850.18
989.75	4009.92
989.91	3925.96
990.07	3762.12
990.23	3893.19
990.39	3995.59
990.55	4005.83
990.71	3938.24
990.87	3928.00
991.03	3862.47
991.19	3844.04
991.35	3803.08
991.51	3954.63
991.67	3966.92
991.83	3893.19
992.00	3803.08
992.16	3835.85
992.32	3876.80
992.48	3811.27
992.64	3700.68
992.80	3817.41
992.96	3850.18
993.12	3743.69
993.28	3858.37
993.44	3813.32
993.60	3841.99
993.76	3702.73
993.92	3792.84
994.08	3764.17
994.24	3751.88
994.40	3639.24
994.56	3809.22
994.72	3581.90
994.88	3688.39
995.04	3581.90
995.20	3626.95
995.36	3694.54
995.52	3755.97
995.68	3559.37
995.84	3602.38
996.00	3672.01
996.16	3561.42
996.32	3459.02
996.48	3502.03
996.64	3604.42
996.80	3452.88
996.96	3485.64
997.12	3508.17
997.28	3407.82
997.44	3461.07
997.60	3477.45
997.76	3473.36
997.92	3540.94
998.08	3516.36
998.24	3409.87
998.40	3428.30
998.56	3540.94
998.72	3358.67
998.88	3401.68
999.04	3317.71
999.20	3553.23
999.36	3430.35
999.52	3475.40
999.68	3418.06
999.84	3413.96
1000.00	3354.57
1000.16	3370.96
1000.32	3305.42
1000.48	3524.55
1000.64	3334.09
1000.80	3266.51
1000.95	3157.97
1001.11	3332.05
1001.27	3192.78
1001.43	3295.18
1001.59	3172.30
1001.75	3248.08
1001.91	3207.12
1002.07	3190.74
1002.23	3182.54
1002.39	3207.12
1002.55	3235.79
1002.71	3157.97
1002.87	3213.26
1003.03	3106.77
1003.19	3227.60
1003.34	3262.41
1003.50	3170.26
1003.66	3182.54
1003.82	3178.45
1003.98	3129.30
1004.14	3243.98
1004.30	3114.96
1004.46	3061.71
1004.62	3028.95
1004.78	3012.56
1004.94	3096.53
1005.09	3026.90
1005.25	3096.53
1005.41	3151.82
1005.57	3110.86
1005.73	3067.86
1005.89	3024.85
1006.05	3119.06
1006.21	3055.57
1006.37	2922.45
1006.52	2971.60
1006.68	2994.13
1006.84	3135.44
1007.00	2992.08
1007.16	2998.23
1007.32	2842.58
1007.48	3030.99
1007.64	2885.59
1007.79	2904.02
1007.95	2895.83
1008.11	2885.59
1008.27	2883.54
1008.43	3024.85
1008.59	2924.50
1008.75	2951.12
1008.91	3026.90
1009.06	2899.92
1009.22	2891.73
1009.38	2955.22
1009.54	2838.48
1009.70	2885.59
1009.86	2820.05
1010.01	2858.96
1010.17	2834.39
1010.33	2867.16
1010.49	2846.68
1010.65	2887.64
1010.81	2740.18
1010.96	2871.25
1011.12	2801.62
1011.28	2648.02
1011.44	2793.43
1011.60	2797.53
1011.76	2670.55
1011.91	2883.54
1012.07	2715.61
1012.23	2701.27
1012.39	2615.26
1012.55	2764.76
1012.71	2674.65
1012.86	2697.17
1013.02	2664.41
1013.18	2615.26
1013.34	2623.45
1013.50	2680.79
1013.65	2742.23
1013.81	2607.06
1013.97	2613.21
1014.13	2605.02
1014.29	2682.84
1014.44	2645.98
1014.60	2645.98
1014.76	2592.73
1014.92	2516.95
1015.07	2648.02
1015.23	2625.50
1015.39	2541.53
1015.55	2578.39
1015.71	2510.81
1015.86	2512.86
1016.02	2613.21
1016.18	2516.95
1016.34	2625.50
1016.49	2586.58
1016.65	2672.60
1016.81	2592.73
1016.97	2562.01
1017.12	2564.06
1017.28	2484.19
1017.44	2494.43
1017.60	2453.47
1017.75	2490.33
1017.91	2506.71
1018.07	2453.47
1018.23	2484.19
1018.38	2363.36
1018.54	2482.14
1018.70	2453.47
1018.86	2367.45
1019.01	2369.50
1019.17	2461.66
1019.33	2504.67
1019.49	2473.95
1019.64	2359.26
1019.80	2396.12
1019.96	2426.84
1020.12	2435.03
1020.27	2389.98
1020.43	2506.71
1020.59	2359.26
1020.74	2424.80
1020.90	2482.14
1021.06	2367.45
1021.22	2369.50
1021.37	2322.40
1021.53	2346.97
1021.69	2432.99
1021.84	2258.91
1022.00	2394.08
1022.16	2256.86
1022.31	2281.44
1022.47	2371.55
1022.63	2369.50
1022.79	2203.61
1022.94	2289.63
1023.10	2510.81
1023.26	2336.73
1023.41	2328.54
1023.57	2256.86
1023.73	2287.58
1023.88	2342.88
1024.04	2246.62
1024.20	2267.10
1024.35	2349.02
1024.51	2312.16
1024.67	2283.49
1024.82	2359.26
1024.98	2263.01
1025.14	2320.35
1025.29	2258.91
1025.45	2287.58
1025.61	2240.48
1025.76	2187.23
1025.92	2203.61
1026.08	2166.75
1026.23	2240.48
1026.39	2250.72
1026.55	2230.24
1026.70	2117.60
1026.86	2238.43
1027.02	2160.61
1027.17	2201.57
1027.33	2232.29
1027.48	2230.24
1027.64	2144.22
1027.80	2168.80
1027.95	2179.04
1028.11	2043.87
1028.27	2181.09
1028.42	2088.93
1028.58	2101.22
1028.73	2097.12
1028.89	2031.58
1029.05	2236.38
1029.20	2183.13
>>>>>End Processed Spectral Data<<<<<
