SpectraSuite Data File
++++++++++++++++++++++++++++++++++++
Date: Fri Jun 02 14:41:53 CEST 2017
User: INFO_000
Dark Spectrum Present: No
Reference Spectrum Present: No
Number of Sampled Component Spectra: 1
Spectrometers: USB4H00879
Integration Time (usec): 80000 (USB4H00879)
Spectra Averaged: 1 (USB4H00879)
Boxcar Smoothing: 0 (USB4H00879)
Correct for Electrical Dark: No (USB4H00879)
Strobe/Lamp Enabled: No (USB4H00879)
Correct for Detector Non-linearity: No (USB4H00879)
Correct for Stray Light: No (USB4H00879)
Number of Pixels in Processed Spectrum: 3648
>>>>>Begin Processed Spectral Data<<<<<
345.13	1282.03
345.34	1282.03
345.56	1282.03
345.78	1312.75
345.99	1286.12
346.21	1699.81
346.42	1656.81
346.64	1628.14
346.86	1767.40
347.07	1667.05
347.29	1769.44
347.50	1632.23
347.72	1634.28
347.94	1748.97
348.15	1587.18
348.37	1484.78
348.59	1740.77
348.80	1638.38
349.02	1820.64
349.23	1818.60
349.45	1808.36
349.67	1886.18
349.88	1791.97
350.10	2004.96
350.31	1794.02
350.53	1820.64
350.75	2015.20
350.96	1853.41
351.18	1853.41
351.39	1886.18
351.61	1769.44
351.82	1925.09
352.04	1931.23
352.26	1820.64
352.47	1880.04
352.69	1953.76
352.90	1781.73
353.12	1863.65
353.34	1861.60
353.55	1863.65
353.77	1800.16
353.98	1896.42
354.20	1904.61
354.41	1929.19
354.63	1945.57
354.85	1978.34
355.06	1902.56
355.28	1759.21
355.49	1863.65
355.71	1849.32
355.92	1914.85
356.14	1937.38
356.35	1918.95
356.57	1834.98
356.79	1978.34
357.00	1884.13
357.22	2000.87
357.43	1837.03
357.65	1941.47
357.86	1869.80
358.08	1892.32
358.29	1935.33
358.51	1945.57
358.72	1992.67
358.94	1904.61
359.16	1896.42
359.37	1990.63
359.59	2019.30
359.80	1933.28
360.02	1945.57
360.23	1941.47
360.45	2023.39
360.66	1920.99
360.88	1839.08
361.09	1945.57
361.31	1931.23
361.52	1951.71
361.74	2144.22
361.95	2115.55
362.17	1964.00
362.38	2121.70
362.60	2027.49
362.81	1949.67
363.03	1847.27
363.24	1982.43
363.46	2047.97
363.67	2039.78
363.89	1970.15
364.10	2002.91
364.32	1945.57
364.53	2041.82
364.75	1906.66
364.96	2062.30
365.18	2029.54
365.39	2050.02
365.61	1986.53
365.82	2117.60
366.04	2082.78
366.25	1986.53
366.47	2052.06
366.68	2070.50
366.90	1970.15
367.11	2125.79
367.33	2066.40
367.54	2131.94
367.76	2019.30
367.97	2166.75
368.19	2072.54
368.40	2013.15
368.62	2017.25
368.83	2002.91
369.05	2093.02
369.26	2007.01
369.48	2011.11
369.69	1961.95
369.91	2105.31
370.12	1943.52
370.33	2127.84
370.55	1978.34
370.76	2054.11
370.98	2062.30
371.19	2070.50
371.41	2125.79
371.62	2029.54
371.84	2035.68
372.05	2138.08
372.27	2043.87
372.48	2113.50
372.69	1968.10
372.91	2058.21
373.12	2199.52
373.34	2103.26
373.55	2244.57
373.77	2191.33
373.98	2070.50
374.20	2148.32
374.41	2269.15
374.62	2125.79
374.84	2152.42
375.05	2174.94
375.27	2263.01
375.48	2152.42
375.70	2201.57
375.91	2236.38
376.12	2310.11
376.34	2127.84
376.55	2170.85
376.77	2203.61
376.98	2125.79
377.19	2093.02
377.41	2074.59
377.62	2222.05
377.84	2238.43
378.05	2306.01
378.27	2256.86
378.48	2312.16
378.69	2342.88
378.91	2246.62
379.12	2260.96
379.34	2244.57
379.55	2201.57
379.76	2293.72
379.98	2275.29
380.19	2342.88
380.41	2344.92
380.62	2334.68
380.83	2322.40
381.05	2240.48
381.26	2396.12
381.47	2250.72
381.69	2293.72
381.90	2428.89
382.12	2215.90
382.33	2318.30
382.54	2332.64
382.76	2381.79
382.97	2303.96
383.19	2254.81
383.40	2379.74
383.61	2281.44
383.83	2318.30
384.04	2351.07
384.25	2406.36
384.47	2379.74
384.68	2301.92
384.89	2334.68
385.11	2375.64
385.32	2336.73
385.54	2310.11
385.75	2289.63
385.96	2445.27
386.18	2367.45
386.39	2471.90
386.60	2432.99
386.82	2455.51
387.03	2412.51
387.24	2529.24
387.46	2475.99
387.67	2551.77
387.88	2568.15
388.10	2420.70
388.31	2537.43
388.52	2541.53
388.74	2549.72
388.95	2551.77
389.16	2502.62
389.38	2484.19
389.59	2602.97
389.80	2680.79
390.02	2463.71
390.23	2633.69
390.44	2615.26
390.66	2557.91
390.87	2461.66
391.08	2707.41
391.30	2807.77
391.51	2670.55
391.72	2754.52
391.94	2797.53
392.15	2656.22
392.36	2684.89
392.58	2748.37
392.79	2656.22
393.00	2729.94
393.22	2705.37
393.43	2754.52
393.64	2850.77
393.85	2803.67
394.07	2764.76
394.28	2762.71
394.49	2777.05
394.71	2811.86
394.92	2861.01
395.13	2799.57
395.35	2748.37
395.56	2840.53
395.77	2777.05
395.98	2893.78
396.20	2994.13
396.41	2955.22
396.62	2832.34
396.84	2820.05
397.05	2856.92
397.26	3016.66
397.47	2987.99
397.69	2981.84
397.90	3082.19
398.11	2971.60
398.32	2883.54
398.54	2936.79
398.75	3002.32
398.96	2983.89
399.18	3123.15
399.39	3014.61
399.60	3063.76
399.81	3035.09
400.03	2959.31
400.24	3379.15
400.45	3002.32
400.66	3151.82
400.88	3084.24
401.09	3246.03
401.30	3153.87
401.51	3256.27
401.73	3180.50
401.94	3149.78
402.15	3225.55
402.36	3184.59
402.58	3192.78
402.79	3340.24
403.00	3246.03
403.21	3291.09
403.43	3303.37
403.64	3348.43
403.85	3076.05
404.06	3319.76
404.27	3223.50
404.49	3231.69
404.70	3350.48
404.91	3366.86
405.12	3393.48
405.34	3231.69
405.55	3461.07
405.76	3227.60
405.97	3270.61
406.19	3397.58
406.40	3319.76
406.61	3395.53
406.82	3405.77
407.03	3385.29
407.25	3297.23
407.46	3551.18
407.67	3467.21
407.88	3536.84
408.09	3407.82
408.31	3481.55
408.52	3469.26
408.73	3438.54
408.94	3450.83
409.15	3483.59
409.37	3473.36
409.58	3567.56
409.79	3661.77
410.00	3534.79
410.21	3409.87
410.43	3608.52
410.64	3567.56
410.85	3768.26
411.06	3629.00
411.27	3518.41
411.48	3678.15
411.70	3657.67
411.91	3768.26
412.12	3680.20
412.33	3647.43
412.54	3801.03
412.76	3706.82
412.97	3837.89
413.18	3592.14
413.39	3717.06
413.60	3770.31
413.81	3772.36
414.03	3735.50
414.24	3737.54
414.45	3786.69
414.66	3674.06
414.87	3833.80
415.08	3755.97
415.30	3786.69
415.51	3837.89
415.72	3803.08
415.93	3887.04
416.14	3878.85
416.35	3864.52
416.56	3973.06
416.78	3850.18
416.99	3981.25
417.20	4024.26
417.41	3985.35
417.62	3946.44
417.83	3981.25
418.04	3979.20
418.26	3942.34
418.47	3928.00
418.68	4136.90
418.89	3968.96
419.10	4241.34
419.31	4128.70
419.52	4253.63
419.73	4059.07
419.95	4112.32
420.16	4018.11
420.37	4198.34
420.58	4224.96
420.79	4073.41
421.00	4196.29
421.21	4204.48
421.42	4143.04
421.63	4251.58
421.85	4208.58
422.06	4431.80
422.27	4304.83
422.48	4304.83
422.69	4394.94
422.90	4337.60
423.11	4329.41
423.32	4411.32
423.53	4491.20
423.75	4499.39
423.96	4638.65
424.17	4571.07
424.38	4597.69
424.59	4640.70
424.80	4753.34
425.01	4587.45
425.22	4560.83
425.43	4587.45
425.64	4706.23
425.85	4870.07
426.06	4788.15
426.28	4616.12
426.49	4585.40
426.70	4689.85
426.91	4769.72
427.12	4814.77
427.33	4960.18
427.54	4794.29
427.75	4847.54
427.96	4954.04
428.17	4982.71
428.38	5040.05
428.59	4990.90
428.80	4820.92
429.01	4886.45
429.23	5029.81
429.44	5187.50
429.65	5171.12
429.86	5083.06
430.07	4984.76
430.28	5152.69
430.49	5064.63
430.70	5347.25
430.91	5156.79
431.12	5164.98
431.33	5496.75
431.54	5345.20
431.75	5244.85
431.96	5277.62
432.17	5167.03
432.38	5183.41
432.59	5564.33
432.80	5492.65
433.01	5484.46
433.22	5406.64
433.43	5457.84
433.64	5416.88
433.85	5461.93
434.06	5593.00
434.27	5271.47
434.49	5550.00
434.70	5674.92
434.91	5705.64
435.12	5658.54
435.33	5617.58
435.54	5545.90
435.75	5463.98
435.96	5646.25
436.17	5476.27
436.38	5816.23
436.59	5717.93
436.80	5707.69
437.01	5898.15
437.22	5871.53
437.43	5826.47
437.64	5607.34
437.85	6098.85
438.06	5930.92
438.27	5738.41
438.48	5912.49
438.69	5926.82
438.90	6123.43
439.11	6006.69
439.32	6145.95
439.53	6094.76
439.74	6229.92
439.95	6168.48
440.16	6098.85
440.37	6166.43
440.57	5978.02
440.78	6166.43
440.99	6244.26
441.20	6148.00
441.41	6127.52
441.62	6303.65
441.83	6180.77
442.04	6328.22
442.25	6234.02
442.46	6231.97
442.67	6541.21
442.88	6604.70
443.09	6193.06
443.30	6139.81
443.51	6356.90
443.72	6760.34
443.93	6293.41
444.14	6592.41
444.35	6293.41
444.56	6590.36
444.77	6494.11
444.98	6524.83
445.19	6641.56
445.40	6584.22
445.61	6342.56
445.81	6866.84
446.02	6651.80
446.23	6655.90
446.44	6555.55
446.65	6700.95
446.86	6795.16
447.07	6680.47
447.28	6885.27
447.49	6844.31
447.70	6799.26
447.91	6889.37
448.12	6965.14
448.33	7067.54
448.54	6899.61
448.74	6879.13
448.95	7036.82
449.16	6934.42
449.37	7346.06
449.58	6940.57
449.79	7202.71
450.00	7120.79
450.21	7085.97
450.42	7225.23
450.63	7387.02
450.84	7245.71
451.05	7305.10
451.25	7284.62
451.46	7161.75
451.67	7481.23
451.88	7456.65
452.09	7473.04
452.30	7452.56
452.51	7376.78
452.72	7690.12
452.93	7853.96
453.13	7348.11
453.34	7450.51
453.55	7536.52
453.76	7505.81
453.97	7868.30
454.18	7624.59
454.39	7780.23
454.60	7704.46
454.81	7790.47
455.01	7849.86
455.22	7507.85
455.43	8064.90
455.64	8034.18
455.85	8087.43
456.06	8091.52
456.27	8054.66
456.48	8185.73
456.68	8183.68
456.89	8243.07
457.10	8368.00
457.31	8171.40
457.52	8085.38
457.73	8060.80
457.94	8497.02
458.14	8269.70
458.35	8613.76
458.56	8580.99
458.77	8486.78
458.98	8730.49
459.19	8572.80
459.39	8720.25
459.60	8875.90
459.81	8636.28
460.02	8791.93
460.23	8753.02
460.44	8953.72
460.65	9006.97
460.85	8865.66
461.06	9267.06
461.27	8804.22
461.48	9222.00
461.69	9437.04
461.89	9095.03
462.10	9293.68
462.31	8947.58
462.52	9162.61
462.73	9289.59
462.94	9506.67
463.14	9303.92
463.35	9301.87
463.56	9815.91
463.77	9559.92
463.98	9420.66
464.18	9738.09
464.39	9918.31
464.60	9926.50
464.81	10022.76
465.02	9805.67
465.23	10076.01
465.43	10026.86
465.64	10139.49
465.85	10080.10
466.06	10076.01
466.27	10616.67
466.47	10518.37
466.68	10452.83
466.89	10411.87
467.10	10577.76
467.30	10430.30
467.51	10649.44
467.72	10745.69
467.93	10583.90
468.14	10803.04
468.34	10858.33
468.55	10706.78
468.76	11145.05
468.97	10862.43
469.17	10907.48
469.38	11278.16
469.59	11269.97
469.80	11255.64
470.01	11159.38
470.21	11222.87
470.42	11530.06
470.63	11716.43
470.84	11573.07
471.04	11741.00
471.25	11732.81
471.46	11702.09
471.67	12103.50
471.87	11867.98
472.08	12011.34
472.29	12085.06
472.50	11994.95
472.70	12171.08
472.91	12246.85
473.12	12439.36
473.33	12449.60
473.53	12633.92
473.74	12631.87
473.95	12529.47
474.16	12764.99
474.36	12781.37
474.57	12891.96
474.78	13319.99
474.99	13233.97
475.19	13092.66
475.40	13524.79
475.61	13301.56
475.81	13702.96
476.02	13811.50
476.23	13475.63
476.44	13934.38
476.64	14173.99
476.85	14053.16
477.06	14075.69
477.27	14249.77
477.47	14307.11
477.68	14249.77
477.89	14716.70
478.09	14356.26
478.30	14493.47
478.51	14630.69
478.71	15015.71
478.92	14872.35
479.13	14933.79
479.34	15253.27
479.54	15193.88
479.75	15300.37
479.96	15353.62
480.16	15415.06
480.37	15687.44
480.58	15728.40
480.78	15904.53
480.99	15765.26
481.20	16129.80
481.41	16160.52
481.61	16013.07
481.82	16467.72
482.03	16310.02
482.23	16346.89
482.44	16373.51
482.65	16697.09
482.85	16785.15
483.06	16850.69
483.27	16764.67
483.47	16660.23
483.68	17149.69
483.89	17055.48
484.09	17194.75
484.30	17305.34
484.51	17622.77
484.71	17561.33
484.92	17385.21
485.13	17921.77
485.33	17886.96
485.54	17487.61
485.75	18122.48
485.95	18194.15
486.16	18165.48
486.37	18288.36
486.57	18204.39
486.78	18261.74
486.98	18337.51
487.19	18767.59
487.40	18878.18
487.60	18869.98
487.81	19017.44
488.02	18837.22
488.22	18927.33
488.43	19271.39
488.64	19052.25
488.84	19373.78
489.05	19723.99
489.25	19578.58
489.46	19709.65
489.67	19766.99
489.87	20104.91
490.08	19889.87
490.29	19703.51
490.49	20442.82
490.70	20446.92
490.90	20442.82
491.11	20217.55
491.32	20549.32
491.52	20479.69
491.73	20651.72
491.94	20743.88
492.14	20590.28
492.35	20909.76
492.55	21130.94
492.76	21044.93
492.97	21268.16
493.17	21315.26
493.38	21249.72
493.58	21884.59
493.79	21810.87
494.00	21436.09
494.20	21782.20
494.41	21784.24
494.61	22070.96
494.82	22183.60
495.02	22052.53
495.23	22324.91
495.44	22482.60
495.64	22353.58
495.85	22458.03
496.05	22511.27
496.26	22501.03
496.47	22892.19
496.67	22642.34
496.88	22726.31
497.08	23086.75
497.29	23553.69
497.49	22843.04
497.70	23238.30
497.91	23410.33
498.11	23545.50
498.32	23662.23
498.52	23668.37
498.73	23846.55
498.93	23807.64
499.14	23727.77
499.34	23768.73
499.55	24114.83
499.76	23975.57
499.96	24112.78
500.17	24071.82
500.37	24090.26
500.58	24405.64
500.78	24280.72
500.99	24485.51
501.19	24829.57
501.40	24565.39
501.60	24510.09
501.81	24313.48
502.02	24888.96
502.22	24721.03
502.43	25022.08
502.63	25161.34
502.84	25278.08
503.04	25093.76
503.25	25521.79
503.45	25323.13
503.66	25523.83
503.86	25601.66
504.07	25923.19
504.27	25509.50
504.48	26033.78
504.68	25679.48
504.89	26263.15
505.09	26127.99
505.30	25927.28
505.50	26125.94
505.71	26142.32
505.91	26371.69
506.12	26414.70
506.32	26275.44
506.53	26416.75
506.73	26611.31
506.94	26549.87
507.14	26709.61
507.35	26490.48
507.55	26756.71
507.76	26891.88
507.96	26633.83
508.17	26764.90
508.37	26816.10
508.58	26695.27
508.78	26926.69
508.99	27287.14
509.19	27364.96
509.40	27424.35
509.60	27248.22
509.81	27450.97
510.01	27399.77
510.22	27252.32
510.42	27330.14
510.63	27698.78
510.83	27663.96
511.04	27879.00
511.24	27715.16
511.44	27792.98
511.65	27717.21
511.85	27727.45
512.06	28126.80
512.26	28098.13
512.47	28204.63
512.67	28208.72
512.88	28124.75
513.08	27940.44
513.29	28321.36
513.49	28376.66
513.69	28325.46
513.90	28477.01
514.10	28694.09
514.31	28456.53
514.51	28687.95
514.72	28436.05
514.92	28929.61
515.13	28499.53
515.33	28970.57
515.53	28991.05
515.74	28665.42
515.94	28898.89
516.15	29044.29
516.35	28962.37
516.56	29300.29
516.76	28835.40
516.96	29486.65
517.17	29435.45
517.37	29576.76
517.58	29558.33
517.78	29957.69
517.99	29926.97
518.19	29845.05
518.39	29638.20
518.60	30170.68
518.80	30010.93
519.01	29935.16
519.21	30082.61
519.41	30197.30
519.62	30131.76
519.82	30240.31
520.03	30326.32
520.23	30377.52
520.43	30211.64
520.64	30559.79
520.84	30432.82
521.05	30596.65
521.25	30760.49
521.45	30926.38
521.66	30940.71
521.86	30850.60
522.07	31358.50
522.27	31008.29
522.47	30963.24
522.68	31530.53
522.88	31323.68
523.08	31694.36
523.29	31256.10
523.49	31890.97
523.70	31708.70
523.90	32126.49
524.10	31807.00
524.31	31854.11
524.51	31974.94
524.71	32554.51
524.92	31919.64
525.12	32382.48
525.33	32255.51
525.53	32255.51
525.73	32521.74
525.94	32841.23
526.14	32609.81
526.34	32847.37
526.55	33031.69
526.75	32685.58
526.95	32976.39
527.16	33203.72
527.36	33342.98
527.56	33310.21
527.77	33428.99
527.97	33633.79
528.17	33689.09
528.38	33629.69
528.58	33572.35
528.78	34006.52
528.99	33687.04
529.19	34088.44
529.39	33807.87
529.60	34149.88
529.80	34223.61
530.00	34076.15
530.21	34545.14
530.41	34461.17
530.61	34309.62
530.82	34582.00
531.02	34739.69
531.22	34848.24
531.43	35186.15
531.63	35259.88
531.83	35481.06
532.04	35603.94
532.24	35288.55
532.44	35661.28
532.64	35630.56
532.85	35747.29
533.05	35866.08
533.25	35943.90
533.46	35522.02
533.66	36193.75
533.86	35966.43
534.07	36505.04
534.27	36314.58
534.47	36648.40
534.67	36703.70
534.88	36201.94
535.08	36404.69
535.28	36722.13
535.49	36537.81
535.69	37141.96
535.89	37279.18
536.09	37688.77
536.30	37797.31
536.50	37670.34
536.70	37871.04
536.91	37389.77
537.11	37817.79
537.31	37504.45
537.51	37852.61
537.72	38145.47
537.92	38143.42
538.12	38299.06
538.32	37993.92
538.53	38231.48
538.73	38393.27
538.93	38215.10
539.13	38294.97
539.34	38659.51
539.54	38559.16
539.74	38987.18
539.94	38636.98
540.15	38860.21
540.35	39108.01
540.55	38909.36
540.75	38991.28
540.96	39052.72
541.16	39093.68
541.36	39384.49
541.56	39073.20
541.77	39781.79
541.97	39523.75
542.17	39779.74
542.37	39296.42
542.58	39787.94
542.78	39955.87
542.98	39888.29
543.18	40088.99
543.38	40621.46
543.59	40181.15
543.79	40076.70
543.99	40152.48
544.19	40318.36
544.40	40308.12
544.60	40730.00
544.80	40938.90
545.00	40199.58
545.20	41168.27
545.41	40555.93
545.61	40715.67
545.81	41186.70
546.01	40906.13
546.21	40785.30
546.42	40910.22
546.62	41227.66
546.82	41354.63
547.02	41287.05
547.22	41219.47
547.43	41086.35
547.63	41674.12
547.83	41934.21
548.03	41424.26
548.23	41614.72
548.44	42245.50
548.64	41790.85
548.84	41983.36
549.04	42110.33
549.24	41977.22
549.45	42255.74
549.65	42108.29
549.85	42247.55
550.05	42343.80
550.25	42134.91
550.45	42603.89
550.66	42612.09
550.86	42239.36
551.06	42702.20
551.26	42505.59
551.46	42673.52
551.66	42857.84
551.87	42679.67
552.07	42933.62
552.27	42788.21
552.47	43068.78
552.67	43177.33
552.87	43234.67
553.07	43013.49
553.28	43197.80
553.48	43406.70
553.68	43144.56
553.88	43396.46
554.08	43089.26
554.28	43160.94
554.48	43216.24
554.69	43218.28
554.89	43781.48
555.09	43341.16
555.29	43564.39
555.49	43541.86
555.69	43875.68
555.89	43375.98
556.10	43851.11
556.30	43818.34
556.50	44109.15
556.70	43930.98
556.90	44182.88
557.10	44569.94
557.30	43910.50
557.50	44045.66
557.70	44113.25
557.91	44143.97
558.11	44057.95
558.31	44316.00
558.51	44254.56
558.71	44453.21
558.91	44594.52
559.11	44164.45
559.31	44291.42
559.51	44578.14
559.72	44447.07
559.92	44504.41
560.12	44434.78
560.32	44819.80
560.52	44520.79
560.72	44774.74
560.92	44963.15
561.12	44590.42
561.32	45243.73
561.52	44510.55
561.72	45348.17
561.93	44881.24
562.13	45034.83
562.33	44895.57
562.53	45507.91
562.73	45012.31
562.93	45288.78
563.13	45389.13
563.33	45258.06
563.53	45100.37
563.73	45092.18
563.93	45602.12
564.13	45757.77
564.33	45319.50
564.53	45301.07
564.74	45823.30
564.94	45145.42
565.14	45681.99
565.34	45559.11
565.54	45647.18
565.74	45702.47
565.94	46003.52
566.14	45860.16
566.34	45542.73
566.54	46204.22
566.74	45837.64
566.94	46310.72
567.14	46404.92
567.34	46013.76
567.54	46390.59
567.74	46202.18
567.94	46036.29
568.14	46417.21
568.34	46431.55
568.54	46374.20
568.74	46388.54
568.94	46495.03
569.14	47037.75
569.34	46368.06
569.54	46173.50
569.75	46273.85
569.95	46832.95
570.15	46912.82
570.35	46562.62
570.55	46634.30
570.75	46656.82
570.95	46507.32
571.15	47344.94
571.35	47021.36
571.55	47062.32
571.75	46771.51
571.95	47090.99
572.15	47379.76
572.35	47142.19
572.55	46689.59
572.75	47461.68
572.95	47377.71
573.15	47486.25
573.35	47324.46
573.55	47187.25
573.75	47320.37
573.95	47412.52
574.15	47207.73
574.35	47555.88
574.55	47627.56
574.75	47723.82
574.95	47574.31
575.15	47428.91
575.34	47699.24
575.54	47897.89
575.74	48250.14
575.94	47766.82
576.14	48141.60
576.34	47977.76
576.54	48147.75
576.74	47865.13
576.94	48076.07
577.14	48061.73
577.34	48469.28
577.54	48264.48
577.74	48438.56
577.94	48317.73
578.14	48403.74
578.34	48674.07
578.54	47662.38
578.74	48141.60
578.94	48473.37
579.14	48444.70
579.34	48641.31
579.54	48772.38
579.74	49278.22
579.94	48854.29
580.13	48981.27
580.33	48954.64
580.53	49325.33
580.73	49132.82
580.93	49370.38
581.13	49100.05
581.33	49753.35
581.53	49308.94
581.73	49458.45
581.93	49843.46
582.13	49464.59
582.33	49403.15
582.53	49372.43
582.73	49874.18
582.92	49751.30
583.12	49890.57
583.32	49949.96
583.52	49394.96
583.72	49888.52
583.92	49888.52
584.12	50146.56
584.32	50451.71
584.52	50160.90
584.72	50380.03
584.92	50038.02
585.11	50834.68
585.31	50476.29
585.51	50324.74
585.71	50328.83
585.91	50633.98
586.11	50558.20
586.31	50910.46
586.51	50633.98
586.71	50402.56
586.91	51041.53
587.10	51559.66
587.30	51164.40
587.50	51309.81
587.70	51150.07
587.90	51393.78
588.10	51217.65
588.30	50832.63
588.50	51651.82
588.69	51647.72
588.89	51180.79
589.09	51246.32
589.29	51164.40
589.49	51684.59
589.69	51432.69
589.89	51389.68
590.08	51453.17
590.28	51406.06
590.48	51238.13
590.68	51590.38
590.88	51653.87
591.08	51948.78
591.28	51330.29
591.47	52114.66
591.67	51991.78
591.87	52012.26
592.07	52073.70
592.27	52298.98
592.47	52290.79
592.67	52100.32
592.86	52172.00
593.06	52090.09
593.26	52356.32
593.46	52122.85
593.66	52339.94
593.86	52241.63
594.05	52237.54
594.25	52776.15
594.45	52092.13
594.65	52851.93
594.85	52413.66
595.05	52952.28
595.24	52925.66
595.44	52792.54
595.64	52911.32
595.84	53232.85
596.04	52888.79
596.23	53140.69
596.43	53103.83
596.63	52978.90
596.83	53161.17
597.03	53451.98
597.22	53656.78
597.42	53740.75
597.62	53253.33
597.82	53478.61
598.02	53372.11
598.21	53789.90
598.41	53531.86
598.61	53669.07
598.81	54082.76
599.01	53777.61
599.20	53662.93
599.40	53910.73
599.60	53847.24
599.80	53853.39
600.00	53900.49
600.19	54353.09
600.39	53687.50
600.59	54179.01
600.79	54588.61
600.98	54283.46
601.18	54437.06
601.38	55381.17
601.58	54613.18
601.78	54506.69
601.97	54219.97
602.17	55116.98
602.37	54645.95
602.57	54183.11
602.76	54760.64
602.96	54736.06
603.16	54983.86
603.36	54926.52
603.55	55286.96
603.75	54949.05
603.95	54914.23
604.15	55381.17
604.34	55102.65
604.54	55266.48
604.74	55538.86
604.94	55348.40
605.13	55307.44
605.33	55596.21
605.53	55436.47
605.73	55547.06
605.92	55577.78
606.12	55760.05
606.32	55567.54
606.52	55862.44
606.71	55512.24
606.91	55911.59
607.11	55356.60
607.30	56085.67
607.50	56407.20
607.70	56102.06
607.90	56128.68
608.09	56140.97
608.29	56054.95
608.49	56259.75
608.68	55923.88
608.88	56362.15
609.08	56210.60
609.28	56593.57
609.47	55704.75
609.67	56734.88
609.87	56700.06
610.06	56691.87
610.26	56243.37
610.46	56665.25
610.66	56433.83
610.85	56337.57
611.05	56403.11
611.25	56624.29
611.44	56370.34
611.64	56534.18
611.84	56550.56
612.03	56376.48
612.23	56767.65
612.43	56525.99
612.62	56562.85
612.82	56898.72
613.02	56915.10
613.21	56781.98
613.41	56452.26
613.61	56747.17
613.80	56530.08
614.00	56882.33
614.20	57162.90
614.39	56669.34
614.59	56779.93
614.79	57031.83
614.98	56794.27
615.18	56571.04
615.38	56743.07
615.57	56878.24
615.77	57287.83
615.97	57291.93
616.16	56874.14
616.36	56982.68
616.56	56990.87
616.75	57146.52
616.95	56755.36
617.15	57078.94
617.34	56720.54
617.54	56892.57
617.74	57474.20
617.93	57031.83
618.13	57015.45
618.32	56968.35
618.52	56868.00
618.72	57009.31
618.91	57044.12
619.11	56980.63
619.31	56994.97
619.50	56964.25
619.70	56771.74
619.90	56913.05
620.09	56679.58
620.29	57109.66
620.48	56855.71
620.68	57369.75
620.88	56704.16
621.07	57392.28
621.27	57144.47
621.46	56360.10
621.66	56413.35
621.86	57087.13
622.05	56601.76
622.25	57285.78
622.44	56693.92
622.64	56618.14
622.84	56755.36
623.03	56736.93
623.23	56853.66
623.42	56812.70
623.62	57201.82
623.82	57300.12
624.01	56857.76
624.21	56990.87
624.40	57050.27
624.60	57040.03
624.80	56925.34
624.99	56841.37
625.19	56583.33
625.38	57351.32
625.58	57099.42
625.77	57050.27
625.97	57181.34
626.17	56691.87
626.36	57107.61
626.56	57210.01
626.75	56147.11
626.95	57062.55
627.14	56892.57
627.34	57003.16
627.54	57113.75
627.73	56847.52
627.93	56923.29
628.12	56644.77
628.32	57119.90
628.51	57216.15
628.71	56976.54
628.90	57087.13
629.10	57345.17
629.30	57273.49
629.49	57121.94
629.69	57070.75
629.88	56951.96
630.08	56960.15
630.27	57205.91
630.47	56908.96
630.66	57201.82
630.86	57341.08
631.05	56407.20
631.25	57339.03
631.44	57490.58
631.64	56982.68
631.84	57171.10
632.03	57685.14
632.23	57277.59
632.42	57748.62
632.62	57142.42
632.81	56947.87
633.01	57226.39
633.20	57408.66
633.40	57461.91
633.59	57500.82
633.79	56706.21
633.98	57420.95
634.18	57334.93
634.37	57265.30
634.57	57207.96
634.76	57332.89
634.96	57226.39
635.15	57517.20
635.35	57533.59
635.54	57255.06
635.74	57386.13
635.93	57050.27
636.13	57814.16
636.32	57457.81
636.52	57210.01
636.71	56835.23
636.91	57175.19
637.10	57480.34
637.30	56972.44
637.49	57269.40
637.69	57291.93
637.88	57431.19
638.08	57476.24
638.27	57767.05
638.46	57515.15
638.66	57506.96
638.85	57611.41
639.05	57824.40
639.24	57443.48
639.44	57058.46
639.63	57527.44
639.83	57584.79
640.02	57613.46
640.22	57253.01
640.41	58090.63
640.61	57246.87
640.80	57687.18
640.99	57207.96
641.19	57889.93
641.38	57490.58
641.58	57404.56
641.77	57455.76
641.97	57547.92
642.16	57810.06
642.36	57734.29
642.55	58076.30
642.74	57263.25
642.94	58190.98
643.13	57353.36
643.33	58328.20
643.52	57916.56
643.72	57742.48
643.91	57865.36
644.10	57918.60
644.30	57932.94
644.49	58090.63
644.69	58221.70
644.88	58053.77
645.08	57828.49
645.27	57889.93
645.46	57398.42
645.66	58170.50
645.85	57601.17
646.05	57984.14
646.24	58242.18
646.43	58434.69
646.63	58156.17
646.82	58414.21
647.02	57752.72
647.21	58027.15
647.40	58074.25
647.60	58317.96
647.79	58365.06
647.99	58438.79
648.18	58356.87
648.37	58971.26
648.57	58365.06
648.76	58686.59
648.96	57783.44
649.15	58504.32
649.34	58465.41
649.54	58451.08
649.73	58348.68
649.92	58344.58
650.12	58250.38
650.31	58225.80
650.51	58279.05
650.70	58836.09
650.89	58621.06
651.09	59204.73
651.28	58504.32
651.47	58356.87
651.67	59053.18
651.86	58930.30
652.06	58348.68
652.25	59133.05
652.44	58692.74
652.64	58520.71
652.83	58504.32
653.02	58588.29
653.22	58860.67
653.41	58307.72
653.60	58166.41
653.80	58801.28
653.99	58551.43
654.18	58442.88
654.38	58285.19
654.57	59217.02
654.76	59024.51
654.96	58684.54
655.15	58594.43
655.34	58260.62
655.54	58514.56
655.73	58449.03
655.92	59403.38
656.12	58807.42
656.31	58897.53
656.50	59024.51
656.70	58815.61
656.89	58621.06
657.08	59090.04
657.28	58586.24
657.47	59231.35
657.66	58680.45
657.86	58600.58
658.05	58872.96
658.24	58737.79
658.43	58688.64
658.63	58889.34
658.82	58909.82
659.01	59061.37
659.21	58922.11
659.40	59116.67
659.59	58711.17
659.79	59161.72
659.98	58987.64
660.17	59116.67
660.36	59135.10
660.56	59329.65
660.75	59020.41
660.94	59053.18
661.14	59325.56
661.33	58981.50
661.52	58938.49
661.71	59313.27
661.91	58893.44
662.10	59235.45
662.29	59159.67
662.49	59055.23
662.68	59047.04
662.87	59163.77
663.06	59077.75
663.26	58745.98
663.45	59397.24
663.64	59192.44
663.83	59804.78
664.03	59225.21
664.22	59180.15
664.41	59229.30
664.60	58918.01
664.80	59223.16
664.99	58913.92
665.18	59096.19
665.37	59094.14
665.57	58907.77
665.76	58893.44
665.95	59040.89
666.14	58653.82
666.34	59202.68
666.53	58320.01
666.72	59145.34
666.91	58973.31
667.11	58733.70
667.30	59071.61
667.49	59384.95
667.68	58971.26
667.87	59135.10
668.07	59423.86
668.26	58883.20
668.45	59030.65
668.64	58772.61
668.84	59602.03
669.03	59501.68
669.22	58643.59
669.41	59077.75
669.60	58954.88
669.80	59047.04
669.99	59065.47
670.18	59264.12
670.37	59253.88
670.57	59430.01
670.76	58952.83
670.95	59511.92
671.14	58840.19
671.33	59167.87
671.53	60017.77
671.72	59137.15
671.91	59286.65
672.10	58860.67
672.29	58799.23
672.48	59036.80
672.68	58915.96
672.87	58760.32
673.06	58815.61
673.25	58576.00
673.44	58932.35
673.64	58700.93
673.83	58489.99
674.02	58823.81
674.21	58354.82
674.40	59087.99
674.59	58850.43
674.79	58846.33
674.98	58518.66
675.17	58637.44
675.36	58659.97
675.55	59389.05
675.74	58881.15
675.94	58983.55
676.13	58578.05
676.32	58682.50
676.51	59176.06
676.70	59053.18
676.89	58995.84
677.08	59343.99
677.28	58838.14
677.47	59155.58
677.66	59249.78
677.85	58635.39
678.04	59255.93
678.23	59153.53
678.42	59036.80
678.62	58377.35
678.81	59044.99
679.00	58795.13
679.19	59171.96
679.38	58518.66
679.57	58700.93
679.76	58604.67
679.96	59028.60
680.15	58868.86
680.34	58782.85
680.53	58823.81
680.72	58915.96
680.91	59079.80
681.10	58682.50
681.29	58827.90
681.48	58512.52
681.68	58864.77
681.87	58791.04
682.06	58616.96
682.25	58725.50
682.44	58446.98
682.63	58864.77
682.82	58516.61
683.01	58242.18
683.20	57672.85
683.39	58489.99
683.59	58070.15
683.78	58348.68
683.97	57791.63
684.16	58532.99
684.35	58240.14
684.54	57877.64
684.73	58295.43
684.92	58256.52
685.11	58320.01
685.30	57611.41
685.49	58463.36
685.69	58156.17
685.88	58213.51
686.07	57971.85
686.26	58367.11
686.45	58014.86
686.64	58176.65
686.83	58334.34
687.02	58434.69
687.21	58129.54
687.40	57609.36
687.59	57545.87
687.78	58152.07
687.97	57740.43
688.16	58049.67
688.35	57881.74
688.54	57236.63
688.74	57840.78
688.93	57650.32
689.12	57918.60
689.31	58094.73
689.50	58111.11
689.69	57554.07
689.88	57009.31
690.07	58059.91
690.26	57373.84
690.45	57953.42
690.64	57545.87
690.83	57566.35
691.02	57517.20
691.21	57572.50
691.40	57521.30
691.59	57769.10
691.78	57334.93
691.97	57349.27
692.16	57113.75
692.35	57509.01
692.54	57500.82
692.73	57664.66
692.92	57277.59
693.11	57402.52
693.30	57599.12
693.49	57214.10
693.68	57377.94
693.87	57621.65
694.06	57259.16
694.25	57384.08
694.44	56958.11
694.63	56966.30
694.82	57183.38
695.01	57130.14
695.20	57078.94
695.39	57027.74
695.58	57050.27
695.77	56464.55
695.96	56730.78
696.15	56794.27
696.34	56964.25
696.53	56931.48
696.72	57545.87
696.91	56859.80
697.10	56870.04
697.29	56530.08
697.48	56845.47
697.67	56888.48
697.86	56401.06
698.05	56562.85
698.24	57001.11
698.43	56587.42
698.62	56468.64
698.81	56290.47
699.00	56351.91
699.19	56239.27
699.38	56661.15
699.57	55895.21
699.76	56456.35
699.95	56038.57
700.14	56386.72
700.32	56280.23
700.51	56358.05
700.70	56741.02
700.89	56251.56
701.08	56480.93
701.27	56220.84
701.46	56501.41
701.65	55934.12
701.84	55704.75
702.03	56544.42
702.22	55375.03
702.41	56089.77
702.60	55817.39
702.79	56046.76
702.98	55803.05
703.17	55614.64
703.35	55553.20
703.54	55792.81
703.73	55981.23
703.92	55766.19
704.11	55899.31
704.30	55403.70
704.49	55590.06
704.68	55243.96
704.87	55649.45
705.06	55624.88
705.25	55329.97
705.43	55837.87
705.62	55506.10
705.81	55362.74
706.00	55579.82
706.19	55588.02
706.38	55456.95
706.57	55565.49
706.76	55461.04
706.95	55624.88
707.14	55024.82
707.32	55006.39
707.51	55192.76
707.70	55112.89
707.89	55043.26
708.08	55291.06
708.27	55174.33
708.46	55278.77
708.65	54895.80
708.84	55080.12
709.02	54975.67
709.21	55213.24
709.40	54658.24
709.59	54875.32
709.78	54377.67
709.97	54942.91
710.16	54918.33
710.34	54588.61
710.53	54871.23
710.72	54842.56
710.91	54801.60
711.10	54977.72
711.29	54305.99
711.48	54539.46
711.66	54707.39
711.85	54435.01
712.04	54344.90
712.23	54244.55
712.42	54394.05
712.61	54076.61
712.80	54269.12
712.98	54400.19
713.17	54213.83
713.36	54258.88
713.55	54154.44
713.74	54090.95
713.93	54070.47
714.11	54078.66
714.30	53687.50
714.49	54004.94
714.68	54277.32
714.87	53904.59
715.06	54146.25
715.24	53828.81
715.43	53783.76
715.62	53738.70
715.81	53482.70
716.00	53791.95
716.18	53417.17
716.37	53529.81
716.56	53474.51
716.75	53482.70
716.94	53621.97
717.12	53181.65
717.31	53738.70
717.50	53091.54
717.69	53087.45
717.88	53155.03
718.06	53630.16
718.25	53615.82
718.44	52692.19
718.63	53177.56
718.82	52688.09
719.00	52597.98
719.19	52884.70
719.38	52673.76
719.57	52329.70
719.76	52471.01
719.94	52614.37
720.13	52647.13
720.32	52446.43
720.51	52901.08
720.69	52608.22
720.88	52198.63
721.07	52235.49
721.26	52184.29
721.44	52192.48
721.63	52393.18
721.82	51967.21
722.01	52241.63
722.20	51969.26
722.38	51860.71
722.57	51574.00
722.76	52108.52
722.95	51946.73
723.13	51092.72
723.32	51528.94
723.51	51623.15
723.70	51641.58
723.88	52102.37
724.07	51350.77
724.26	51272.95
724.44	50738.43
724.63	51582.19
724.82	51324.14
725.01	50967.80
725.19	51207.41
725.38	51090.68
725.57	51027.19
725.76	51209.46
725.94	50824.44
726.13	50410.75
726.32	50756.86
726.51	50722.04
726.69	51084.53
726.88	50605.31
727.07	50719.99
727.25	50984.18
727.44	51107.06
727.63	51143.92
727.82	51045.62
728.00	50472.19
728.19	50437.37
728.38	51193.07
728.56	50459.90
728.75	50967.80
728.94	50455.81
729.12	50875.64
729.31	50814.20
729.50	50781.43
729.69	50840.82
729.87	50662.65
730.06	50615.55
730.25	50498.81
730.43	50840.82
730.62	50367.74
730.81	50949.37
730.99	50599.16
731.18	50640.12
731.37	50758.91
731.55	50586.88
731.74	50582.78
731.93	50709.75
732.11	50537.72
732.30	50793.72
732.49	50386.18
732.67	50416.89
732.86	50251.01
733.05	50132.23
733.23	50205.95
733.42	50386.18
733.61	49941.77
733.79	50451.71
733.98	50498.81
734.17	50107.65
734.35	50179.33
734.54	50390.27
734.73	50693.37
734.91	50224.39
735.10	49851.66
735.29	50431.23
735.47	49554.70
735.66	49980.68
735.84	50042.12
736.03	49612.04
736.22	50623.74
736.40	49403.15
736.59	50074.88
736.78	49741.06
736.96	49784.07
737.15	49747.21
737.33	49650.95
737.52	49962.25
737.71	49888.52
737.89	49556.75
738.08	49747.21
738.27	49739.02
738.45	49747.21
738.64	49759.50
738.82	49896.71
739.01	49548.56
739.20	49591.56
739.38	49579.28
739.57	49683.72
739.75	49794.31
739.94	49837.32
740.13	49466.64
740.31	49243.41
740.50	49239.31
740.68	49304.85
740.87	49493.26
741.06	49343.76
741.24	49272.08
741.43	49161.49
741.61	49648.91
741.80	49075.48
741.99	49005.84
742.17	49059.09
742.36	49048.85
742.54	49028.37
742.73	49075.48
742.91	49249.55
743.10	49175.83
743.29	49517.84
743.47	49018.13
743.66	48833.81
743.84	49212.69
744.03	48811.29
744.21	48911.64
744.40	49069.33
744.59	49001.75
744.77	48518.43
744.96	48170.27
745.14	48942.36
745.33	48616.73
745.51	48803.10
745.70	48698.65
745.88	48442.65
746.07	48555.29
746.26	48383.26
746.44	48493.85
746.63	48332.06
746.81	48612.63
747.00	47908.13
747.18	48297.25
747.37	48096.55
747.55	48350.49
747.74	48626.97
747.92	48018.72
748.11	48364.83
748.29	48327.97
748.48	48469.28
748.66	47975.72
748.85	47666.47
749.03	48215.33
749.22	48788.76
749.41	47775.02
749.59	48041.25
749.78	47912.23
749.96	47809.83
750.15	48055.59
750.33	47938.85
750.52	47879.46
750.70	47889.70
750.89	47392.04
751.07	46961.97
751.26	47617.32
751.44	47369.52
751.63	47748.39
751.81	47355.18
752.00	47029.55
752.18	47543.59
752.37	47338.80
752.55	47220.02
752.74	47150.38
752.92	46853.43
753.10	47303.98
753.29	47400.24
753.47	47263.02
753.66	46685.50
753.84	47289.65
754.03	47050.03
754.21	46748.98
754.40	47187.25
754.58	46871.86
754.77	46908.72
754.95	47011.12
755.14	46863.67
755.32	46560.57
755.51	46691.64
755.69	46714.17
755.88	46671.16
756.06	46947.64
756.24	46572.86
756.43	46300.48
756.61	46402.88
756.80	46224.70
756.98	46148.93
757.17	46437.69
757.35	46480.70
757.54	46224.70
757.72	46257.47
757.90	46361.92
758.09	45993.28
758.27	46267.71
758.46	45831.49
758.64	46001.47
758.83	46150.98
759.01	46300.48
759.19	46056.77
759.38	46292.29
759.56	46075.20
759.75	46112.06
759.93	45841.73
760.12	45593.93
760.30	45782.34
760.48	45888.84
760.67	45778.25
760.85	45624.65
761.04	45595.98
761.22	45757.77
761.40	45759.81
761.59	45968.71
761.77	45200.72
761.96	45714.76
762.14	45358.41
762.32	45172.05
762.51	45245.77
762.69	45397.32
762.88	45051.22
763.06	45501.77
763.24	45268.30
763.43	45184.33
763.61	45253.97
763.80	45045.07
763.98	44868.95
764.16	44899.67
764.35	44780.88
764.53	44199.26
764.72	44645.72
764.90	44391.77
765.08	44682.58
765.27	44782.93
765.45	44600.66
765.63	44516.70
765.82	44301.66
766.00	44356.96
766.18	44467.55
766.37	44275.04
766.55	44229.98
766.74	44612.95
766.92	44250.46
767.10	44062.05
767.29	44049.76
767.47	43597.16
767.65	44019.04
767.84	43787.62
768.02	44057.95
768.20	43683.17
768.39	44014.94
768.57	44078.43
768.75	43887.97
768.94	43435.37
769.12	43591.01
769.30	43193.71
769.49	43810.15
769.67	43259.24
769.85	43271.53
770.04	43062.64
770.22	43267.44
770.40	42964.34
770.59	43345.26
770.77	43210.09
770.95	43412.84
771.14	42786.16
771.32	42683.76
771.50	42966.38
771.69	42694.00
771.87	43179.37
772.05	43025.78
772.24	42747.25
772.42	43046.26
772.60	42765.68
772.78	42833.27
772.97	42521.98
773.15	43197.80
773.33	42648.95
773.52	42341.75
773.70	42603.89
773.88	43117.93
774.07	42519.93
774.25	42599.80
774.43	42923.38
774.61	42429.82
774.80	42524.02
774.98	42644.85
775.16	43089.26
775.34	42626.42
775.53	42382.71
775.71	43023.73
775.89	42714.48
776.08	42579.32
776.26	42636.66
776.44	42554.74
776.62	42247.55
776.81	42374.52
776.99	42859.89
777.17	42378.62
777.35	42884.47
777.54	42962.29
777.72	42532.22
777.90	43105.65
778.08	42882.42
778.27	42906.99
778.45	43189.61
778.63	42954.10
778.81	43099.50
779.00	43349.35
779.18	42988.91
779.36	43709.80
779.54	43007.34
779.73	42906.99
779.91	43435.37
780.09	43025.78
780.27	42866.03
780.46	43046.26
780.64	43599.21
780.82	43367.79
781.00	43046.26
781.19	43091.31
781.37	43349.35
781.55	43199.85
781.73	44029.28
781.91	43195.76
782.10	43328.87
782.28	43472.23
782.46	43601.25
782.64	43851.11
782.82	43591.01
783.01	43644.26
783.19	43654.50
783.37	43763.04
783.55	43654.50
783.74	43828.58
783.92	43474.28
784.10	43898.21
784.28	43500.90
784.46	43324.78
784.64	43138.41
784.83	43402.60
785.01	43517.29
785.19	43709.80
785.37	43642.21
785.55	43468.14
785.74	42993.01
785.92	42999.15
786.10	43320.68
786.28	43486.57
786.46	42775.92
786.64	43001.20
786.83	43562.34
787.01	43400.55
787.19	43269.48
787.37	43455.85
787.55	43050.35
787.74	43122.03
787.92	43019.63
788.10	42960.24
788.28	42818.93
788.46	42900.85
788.64	42245.50
788.82	43249.00
789.01	42466.68
789.19	42626.42
789.37	42532.22
789.55	42376.57
789.73	42020.22
789.91	42237.31
790.09	42558.84
790.28	41770.37
790.46	41805.19
790.64	42175.87
790.82	41950.59
791.00	41981.31
791.18	42057.09
791.36	42007.94
791.55	42116.48
791.73	41788.80
791.91	41397.64
792.09	41354.63
792.27	41526.66
792.45	41588.10
792.63	41418.12
792.81	41125.26
793.00	41713.03
793.18	41551.24
793.36	41307.53
793.54	41133.45
793.72	40887.70
793.90	40938.90
794.08	41010.57
794.26	40670.61
794.44	40445.33
794.62	40256.92
794.81	40566.16
794.99	40236.44
795.17	40402.33
795.35	40156.57
795.53	40275.35
795.71	40201.63
795.89	40066.46
796.07	39785.89
796.25	39624.10
796.43	39714.21
796.61	39646.63
796.80	39574.95
796.98	39818.66
797.16	39296.42
797.34	39269.80
797.52	39466.41
797.70	39298.47
797.88	39364.01
798.06	39050.67
798.24	38972.85
798.42	38628.79
798.60	38890.93
798.78	38589.88
798.96	38712.75
799.14	38217.14
799.32	38667.70
799.51	38139.32
799.69	38653.36
799.87	38376.89
800.05	38045.12
800.23	38026.68
800.41	37895.61
800.59	37995.96
800.77	37465.54
800.95	37750.21
801.13	37590.47
801.31	37653.95
801.49	37402.05
801.67	37639.62
801.85	37400.01
802.03	36867.53
802.21	37090.76
802.39	36890.06
802.57	37088.71
802.75	36888.01
802.93	36718.03
803.11	36642.26
803.29	36853.20
803.47	36740.56
803.65	36537.81
803.83	36709.84
804.01	36541.91
804.19	36353.49
804.37	36130.26
804.55	36068.83
804.73	36335.06
804.91	35911.13
805.09	36132.31
805.27	35954.14
805.45	36224.47
805.63	35855.84
805.81	36031.96
805.99	35634.66
806.17	35522.02
806.35	35472.87
806.53	35325.41
806.71	35550.69
806.89	35296.74
807.07	35151.34
807.25	35284.45
807.43	34962.92
807.61	34983.40
807.79	34672.11
807.97	34854.38
808.15	35098.09
808.33	34391.54
808.51	34270.71
808.69	34561.52
808.87	34506.23
809.05	34272.76
809.23	34473.46
809.41	34272.76
809.59	34328.05
809.77	34338.29
809.95	33936.89
810.13	34338.29
810.31	33840.64
810.49	33945.08
810.67	33779.20
810.84	33912.31
811.02	33592.83
811.20	33383.94
811.38	33666.56
811.56	33537.54
811.74	33287.68
811.92	33072.65
812.10	33365.51
812.28	33586.69
812.46	33191.43
812.64	33148.42
812.82	33205.77
813.00	32777.74
813.18	33205.77
813.36	32902.67
813.53	32419.35
813.71	33025.54
813.89	32812.56
814.07	32622.09
814.25	32683.53
814.43	32372.24
814.61	32701.96
814.79	32626.19
814.97	32597.52
815.15	32550.42
815.33	32044.57
815.50	31962.65
815.68	32501.26
815.86	32075.29
816.04	31903.26
816.22	31727.13
816.40	32060.95
816.58	31817.24
816.76	31880.73
816.94	31835.67
817.11	31794.71
817.29	31792.67
817.47	31471.14
817.65	31467.04
817.83	31548.96
818.01	30787.11
818.19	31333.92
818.37	31245.86
818.54	30879.27
818.72	30928.42
818.90	30961.19
819.08	31198.76
819.26	31381.03
819.44	30846.51
819.62	30922.28
819.80	31018.53
819.97	31104.55
820.15	31104.55
820.33	30838.31
820.51	30785.07
820.69	30438.96
820.87	30862.89
821.05	30946.86
821.22	30389.81
821.40	30565.93
821.58	30377.52
821.76	30402.10
821.94	30334.51
822.12	30041.65
822.29	30219.83
822.47	30225.97
822.65	30309.94
822.83	29828.66
823.01	29945.40
823.19	30123.57
823.36	29849.14
823.54	29959.73
823.72	29632.06
823.90	29826.62
824.08	29326.91
824.25	29679.16
824.43	29316.67
824.61	29462.08
824.79	29707.83
824.97	29431.36
825.15	29767.23
825.32	29439.55
825.50	29206.08
825.68	29130.31
825.86	29482.56
826.04	29382.21
826.21	29197.89
826.39	29075.01
826.57	29230.66
826.75	28853.83
826.93	29122.12
827.10	28943.94
827.28	29046.34
827.46	29044.29
827.64	29232.71
827.81	28950.09
827.99	28999.24
828.17	28610.12
828.35	28671.56
828.53	28825.16
828.70	28442.19
828.88	28563.02
829.06	28423.76
829.24	28847.69
829.41	28558.92
829.59	28468.81
829.77	28298.83
829.95	28190.29
830.12	28599.88
830.30	28423.76
830.48	28474.96
830.66	28288.59
830.84	28292.69
831.01	28298.83
831.19	28122.71
831.37	28051.03
831.55	28034.64
831.72	27686.49
831.90	28175.95
832.08	28233.30
832.25	28163.67
832.43	27651.67
832.61	27555.42
832.79	27866.71
832.96	27539.04
833.14	27721.30
833.32	27653.72
833.50	27563.61
833.67	27850.33
833.85	27807.32
834.03	27295.33
834.20	27655.77
834.38	27614.81
834.56	27573.85
834.74	27270.75
834.91	27430.49
835.09	27240.03
835.27	27291.23
835.44	27324.00
835.62	26799.72
835.80	27111.01
835.98	27362.91
836.15	27229.79
836.33	26779.24
836.51	27203.17
836.68	26938.98
836.86	26973.80
837.04	26707.56
837.21	26756.71
837.39	26918.50
837.57	26814.05
837.75	26615.40
837.92	26347.12
838.10	26517.10
838.28	26195.57
838.45	26599.02
838.63	26181.23
838.81	26455.66
838.98	26289.77
839.16	26271.34
839.34	26441.32
839.51	26347.12
839.69	26007.16
839.87	26330.73
840.04	26246.77
840.22	26283.63
840.40	26095.22
840.57	25755.26
840.75	26093.17
840.93	25931.38
841.10	26105.46
841.28	26244.72
841.46	26027.63
841.63	26111.60
841.81	25661.05
841.98	25927.28
842.16	25749.11
842.34	26125.94
842.51	25624.18
842.69	26308.21
842.87	25769.59
843.04	25976.44
843.22	25644.66
843.40	25792.12
843.57	25525.88
843.75	25738.87
843.92	25366.14
844.10	25841.27
844.28	25474.68
844.45	25341.57
844.63	25382.52
844.81	25429.63
844.98	25874.04
845.16	24995.46
845.33	25214.59
845.51	25396.86
845.69	24858.24
845.86	25183.87
846.04	25042.56
846.21	24895.11
846.39	25136.77
846.57	24790.66
846.74	24954.50
846.92	24915.59
847.09	24718.98
847.27	24848.00
847.45	25013.89
847.62	24635.02
847.80	24655.50
847.97	24616.58
848.15	24704.65
848.32	24678.02
848.50	24794.76
848.68	24684.17
848.85	24272.53
849.03	24546.95
849.20	24546.95
849.38	24653.45
849.56	24596.10
849.73	24352.40
849.91	24325.77
850.08	24569.48
850.26	24161.94
850.43	24376.97
850.61	24215.18
850.78	24096.40
850.96	24131.22
851.14	24209.04
851.31	24514.19
851.49	24014.48
851.66	23922.32
851.84	24086.16
852.01	24047.25
852.19	24120.98
852.36	24260.24
852.54	23903.89
852.71	24000.15
852.89	24237.71
853.07	23879.32
853.24	24098.45
853.42	23613.08
853.59	23924.37
853.77	23830.16
853.94	23791.25
854.12	24258.19
854.29	23467.67
854.47	23613.08
854.64	23406.23
854.82	23508.63
854.99	23537.30
855.17	23484.06
855.34	23447.19
855.52	23459.48
855.69	23383.71
855.87	23426.71
856.04	22738.60
856.22	23391.90
856.39	23342.75
856.57	23219.87
856.74	23416.47
856.92	23209.63
857.09	22810.28
857.27	23033.50
857.44	23211.68
857.62	23303.84
857.79	23385.76
857.97	23060.13
858.14	22992.55
858.32	22963.87
858.49	23027.36
858.67	22916.77
858.84	22533.80
859.02	22613.67
859.19	22806.18
859.37	22687.40
859.54	22693.54
859.72	22763.17
859.89	22685.35
860.06	22881.95
860.24	22791.84
860.41	22572.71
860.59	22460.07
860.76	22562.47
860.94	22036.14
861.11	22498.98
861.29	22648.49
861.46	22216.36
861.64	22261.42
861.81	22396.59
861.98	22480.55
862.16	22095.53
862.33	22156.97
862.51	22183.60
862.68	22372.01
862.86	22236.84
863.03	22179.50
863.21	22208.17
863.38	21921.46
863.55	21954.22
863.73	22103.73
863.90	21958.32
864.08	21700.28
864.25	21860.02
864.43	21995.18
864.60	21829.30
864.77	22009.52
864.95	21718.71
865.12	21268.16
865.30	21767.86
865.47	21700.28
865.64	21718.71
865.82	21728.95
865.99	21694.13
866.17	21384.89
866.34	21583.54
866.51	21253.82
866.69	21208.76
866.86	21511.86
867.04	21362.36
867.21	21415.61
867.38	21194.43
867.56	21153.47
867.73	21233.34
867.91	21405.37
868.08	21006.02
868.25	21120.70
868.43	20932.29
868.60	21141.18
868.78	20854.47
868.95	21161.66
869.12	20817.60
869.30	20864.71
869.47	21014.21
869.64	20879.04
869.82	21051.07
869.99	20754.12
870.16	20991.68
870.34	20745.92
870.51	20698.82
870.69	20692.68
870.86	20457.16
871.03	20731.59
871.21	20385.48
871.38	20627.14
871.55	20342.47
871.73	20297.42
871.90	20571.85
872.07	20199.12
872.25	19984.08
872.42	20219.60
872.59	20145.87
872.77	20094.67
872.94	19967.70
873.11	19914.45
873.29	20033.23
873.46	20072.14
873.63	20059.85
873.81	20027.09
873.98	19564.25
874.15	19816.15
874.33	19431.13
874.50	19685.08
874.67	19818.19
874.85	19300.06
875.02	19494.61
875.19	19711.70
875.37	19533.53
875.54	19418.84
875.71	19668.69
875.88	19496.66
876.06	19422.94
876.23	19250.91
876.40	19162.84
876.58	19322.59
876.75	19107.55
876.92	18972.38
877.10	19136.22
877.27	19031.77
877.44	19031.77
877.61	19183.32
877.79	19091.16
877.96	18947.81
878.13	19042.01
878.31	18949.85
878.48	19021.53
878.65	18923.23
878.82	18624.23
879.00	18843.36
879.17	18628.32
879.34	18550.50
879.51	18374.38
879.69	18396.90
879.86	18474.73
880.03	18319.08
880.21	18550.50
880.38	18622.18
880.55	18642.66
880.72	18304.74
880.90	18339.56
881.07	18302.70
881.24	18321.13
881.41	18341.61
881.59	18204.39
881.76	17983.21
881.93	18302.70
882.10	18183.91
882.28	17907.44
882.45	18032.36
882.62	18138.86
882.79	18087.66
882.96	17911.53
883.14	18042.60
883.31	18087.66
883.48	17805.04
883.65	17854.19
883.83	17776.37
884.00	18198.25
884.17	17970.93
884.34	17921.77
884.51	17766.13
884.69	17854.19
884.86	17782.51
885.03	17680.11
885.20	17649.39
885.38	17768.18
885.55	17741.55
885.72	17669.87
885.89	17622.77
886.06	17764.08
886.24	17436.41
886.41	17413.88
886.58	17415.93
886.75	17868.53
886.92	17084.16
887.10	17344.25
887.27	17454.84
887.44	17420.02
887.61	17567.48
887.78	17192.70
887.95	17284.86
888.13	17207.03
888.30	16905.98
888.47	17057.53
888.64	17170.17
888.81	17112.83
888.99	17237.75
889.16	16899.84
889.33	16889.60
889.50	16858.88
889.67	16879.36
889.84	17100.54
890.01	16897.79
890.19	16901.89
890.36	16822.02
890.53	16994.04
890.70	16600.83
890.87	16807.68
891.04	16656.13
891.22	16797.44
891.39	16578.31
891.56	16531.20
891.73	16584.45
891.90	16547.59
892.07	16502.53
892.24	16504.58
892.42	16408.33
892.59	16488.20
892.76	16320.26
892.93	16387.85
893.10	16316.17
893.27	16295.69
893.44	16217.86
893.61	16137.99
893.79	16355.08
893.96	16172.81
894.13	16183.05
894.30	16537.35
894.47	16297.74
894.64	16350.98
894.81	16408.33
894.98	16256.78
895.15	16490.24
895.33	16271.11
895.50	16181.00
895.67	16500.48
895.84	15918.86
896.01	16133.90
896.18	16105.23
896.35	16238.34
896.52	16344.84
896.69	16279.30
896.86	16344.84
897.04	16101.13
897.21	16099.08
897.38	16045.84
897.55	16019.21
897.72	16172.81
897.89	16013.07
898.06	16074.51
898.23	16107.27
898.40	15882.00
898.57	16228.10
898.74	15929.10
898.91	16060.17
899.08	16027.40
899.26	16090.89
899.43	16131.85
899.60	15877.90
899.77	16303.88
899.94	15830.80
900.11	15755.02
900.28	16107.27
900.45	15994.64
900.62	16025.36
900.79	16092.94
900.96	15902.48
901.13	16088.84
901.30	15777.55
901.47	15603.47
901.64	16109.32
901.81	16000.78
901.98	15709.97
902.15	15738.64
902.32	15781.65
902.49	16002.83
902.66	16142.09
902.83	15816.46
903.01	15757.07
903.18	15679.25
903.35	15826.70
903.52	15603.47
903.69	16058.12
903.86	15996.68
904.03	15781.65
904.20	15851.28
904.37	16137.99
904.54	15638.29
904.71	15746.83
904.88	15988.49
905.05	15888.14
905.22	15957.77
905.39	15679.25
905.56	15748.88
905.73	15867.66
905.90	15791.89
906.07	15818.51
906.24	15925.00
906.41	15810.32
906.58	15927.05
906.75	15918.86
906.92	15464.21
907.09	15650.58
907.26	15718.16
907.43	15552.27
907.60	15601.43
907.77	15798.03
907.93	15812.37
908.10	15681.30
908.27	15757.07
908.44	15798.03
908.61	15515.41
908.78	15691.54
908.95	15888.14
909.12	15552.27
909.29	15605.52
909.46	15683.34
909.63	15980.30
909.80	15746.83
909.97	15617.81
910.14	15771.41
910.31	15724.30
910.48	15767.31
910.65	15496.98
910.82	15601.43
910.99	15605.52
911.16	15626.00
911.33	15396.63
911.50	15435.54
911.66	15120.15
911.83	15490.84
912.00	15107.87
912.17	15306.52
912.34	15435.54
912.51	15200.02
912.68	15238.94
912.85	15148.82
913.02	15421.20
913.19	15107.87
913.36	15283.99
913.53	15175.45
913.70	15247.13
913.86	15281.94
914.03	15216.41
914.20	15351.57
914.37	15216.41
914.54	15208.22
914.71	15126.30
914.88	14964.51
915.05	14993.18
915.22	14905.12
915.39	14909.21
915.55	15105.82
915.72	14616.35
915.89	14661.41
916.06	14649.12
916.23	14550.82
916.40	14595.87
916.57	14556.96
916.74	14479.14
916.91	14645.02
917.07	14413.60
917.24	14403.36
917.41	14329.64
917.58	14384.93
917.75	14501.67
917.92	14229.29
918.09	14450.47
918.26	14364.45
918.42	14298.92
918.59	14245.67
918.76	14137.13
918.93	14055.21
919.10	13872.94
919.27	13778.73
919.44	14323.49
919.60	14130.98
919.77	13737.77
919.94	13991.72
920.11	13719.34
920.28	13727.53
920.45	13834.03
920.61	13365.04
920.78	13588.27
920.95	13678.38
921.12	13575.98
921.29	13520.69
921.46	13352.76
921.62	13264.69
921.79	13434.68
921.96	13336.37
922.13	13285.17
922.30	13340.47
922.47	13150.01
922.63	13190.97
922.80	13158.20
922.97	13033.27
923.14	12803.90
923.31	13160.25
923.47	12994.36
923.64	13303.60
923.81	12791.61
923.98	12732.22
924.15	12629.82
924.32	12539.71
924.48	12736.32
924.65	12676.93
924.82	12613.44
924.99	12257.09
925.15	12468.03
925.32	12496.71
925.49	12183.37
925.66	12336.96
925.83	12246.85
925.99	12173.13
926.16	12228.42
926.33	12402.50
926.50	11763.53
926.67	12328.77
926.83	12019.53
927.00	12058.44
927.17	12023.62
927.34	11820.88
927.50	11724.62
927.67	11808.59
927.84	11736.91
928.01	11652.94
928.17	11530.06
928.34	11659.09
928.51	11575.12
928.68	11429.71
928.84	11448.15
929.01	11335.51
929.18	11286.36
929.35	11196.25
929.51	11179.86
929.68	11112.28
929.85	11040.60
930.02	11272.02
930.18	11192.15
930.35	11186.01
930.52	11022.17
930.69	10995.54
930.85	10940.25
931.02	10643.29
931.19	10590.05
931.36	10708.83
931.52	10790.75
931.69	10665.82
931.86	10794.84
932.02	10667.87
932.19	10454.88
932.36	10276.71
932.53	10362.72
932.69	10381.15
932.86	10452.83
933.03	10264.42
933.19	10186.60
933.36	10356.58
933.53	10274.66
933.70	9965.42
933.86	9938.79
934.03	9934.70
934.20	9914.22
934.36	9815.91
934.53	9703.28
934.70	9602.93
934.86	9564.01
935.03	9441.14
935.20	9342.83
935.36	9482.10
935.53	9367.41
935.70	9371.50
935.86	9332.59
936.03	9021.30
936.20	9045.88
936.36	9043.83
936.53	8931.19
936.70	8918.90
936.86	8933.24
937.03	8873.85
937.20	8714.11
937.36	8593.28
937.53	8304.51
937.70	8247.17
937.86	8224.64
938.03	8077.19
938.20	8187.78
938.36	7806.86
938.53	7972.74
938.70	7626.64
938.86	7954.31
939.03	7511.95
939.20	7702.41
939.36	7552.91
939.53	7364.50
939.70	7671.69
939.86	7292.82
940.03	7085.97
940.19	7106.45
940.36	6948.76
940.53	6952.85
940.69	6866.84
940.86	6944.66
941.03	6713.24
941.19	6700.95
941.36	6672.28
941.52	6709.15
941.69	6449.05
941.86	6580.12
942.02	6404.00
942.19	6320.03
942.35	6334.37
942.52	6240.16
942.69	6270.88
942.85	6111.14
943.02	5887.91
943.18	6160.29
943.35	5959.59
943.52	5945.25
943.68	5971.88
943.85	5775.27
944.01	5935.01
944.18	5717.93
944.35	5937.06
944.51	5803.94
944.68	5636.01
944.84	5500.84
945.01	5582.76
945.17	5572.52
945.34	5574.57
945.51	5506.99
945.67	5636.01
945.84	5658.54
946.00	5570.48
946.17	5521.32
946.33	5441.45
946.50	5537.71
946.67	5605.29
946.83	5431.21
947.00	5537.71
947.16	5441.45
947.33	5574.57
947.49	5490.60
947.66	5521.32
947.82	5517.23
947.99	5468.08
948.16	5476.27
948.32	5410.73
948.49	5504.94
948.65	5611.43
948.82	5488.56
948.98	5494.70
949.15	5496.75
949.31	5468.08
949.48	5521.32
949.64	5470.12
949.81	5380.01
949.97	5445.55
950.14	5406.64
950.30	5476.27
950.47	5500.84
950.63	5418.93
950.80	5480.36
950.96	5423.02
951.13	5435.31
951.30	5541.80
951.46	5601.19
951.63	5674.92
951.79	5466.03
951.96	5670.83
952.12	5533.61
952.29	5525.42
952.45	5486.51
952.62	5504.94
952.78	5660.59
952.94	5584.81
953.11	5537.71
953.27	5380.01
953.44	5719.98
953.60	5693.35
953.77	5459.88
953.93	5488.56
954.10	5582.76
954.26	5502.89
954.43	5554.09
954.59	5728.17
954.76	5650.35
954.92	5603.24
955.09	5738.41
955.25	5676.97
955.42	5687.21
955.58	5656.49
955.75	5658.54
955.91	5380.01
956.07	5580.71
956.24	5672.87
956.40	5683.11
956.57	5588.91
956.73	5545.90
956.90	5658.54
957.06	5738.41
957.23	5740.46
957.39	5646.25
957.56	5697.45
957.72	5631.91
957.88	5615.53
958.05	5693.35
958.21	5662.63
958.38	5734.31
958.54	5609.39
958.71	5838.76
958.87	5683.11
959.03	5564.33
959.20	5793.70
959.36	5619.63
959.53	5590.95
959.69	5732.26
959.85	5734.31
960.02	5556.14
960.18	5517.23
960.35	5652.39
960.51	5742.50
960.68	5621.67
960.84	5820.33
961.00	5550.00
961.17	5582.76
961.33	5705.64
961.50	5685.16
961.66	5795.75
961.82	5658.54
961.99	5515.18
962.15	5566.38
962.31	5484.46
962.48	5586.86
962.64	5631.91
962.81	5404.59
962.97	5662.63
963.13	5547.95
963.30	5689.26
963.46	5572.52
963.62	5617.58
963.79	5515.18
963.95	5472.17
964.12	5662.63
964.28	5472.17
964.44	5533.61
964.61	5623.72
964.77	5617.58
964.93	5636.01
965.10	5498.80
965.26	5550.00
965.42	5504.94
965.59	5478.32
965.75	5345.20
965.92	5564.33
966.08	5468.08
966.24	5533.61
966.41	5492.65
966.57	5461.93
966.73	5539.76
966.90	5334.96
967.06	5353.39
967.22	5334.96
967.39	5408.69
967.55	5357.49
967.71	5511.08
967.88	5326.77
968.04	5246.90
968.20	5197.74
968.37	5246.90
968.53	5308.34
968.69	5310.38
968.85	5404.59
969.02	5400.49
969.18	5341.10
969.34	5355.44
969.51	5291.95
969.67	5322.67
969.83	5164.98
970.00	5369.77
970.16	5265.33
970.32	5279.66
970.48	5349.29
970.65	5228.46
970.81	5228.46
970.97	5191.60
971.14	5140.40
971.30	5386.16
971.46	5097.39
971.63	5130.16
971.79	5281.71
971.95	5173.17
972.11	5081.01
972.28	5152.69
972.44	5222.32
972.60	5035.96
972.76	5250.99
972.93	5111.73
973.09	5113.78
973.25	5201.84
973.42	5056.43
973.58	5134.26
973.74	5068.72
973.90	5072.82
974.07	5042.10
974.23	5023.67
974.39	5005.24
974.55	5060.53
974.72	4902.84
974.88	4919.22
975.04	4892.60
975.20	4861.88
975.37	4915.12
975.53	4929.46
975.69	4939.70
975.85	4923.32
976.01	4794.29
976.18	4986.80
976.34	4865.97
976.50	5019.57
976.66	4902.84
976.83	4888.50
976.99	4900.79
977.15	4769.72
977.31	4771.77
977.47	4882.36
977.64	4763.58
977.80	4839.35
977.96	4786.10
978.12	4761.53
978.29	4657.08
978.45	4634.55
978.61	4689.85
978.77	4796.34
978.93	4636.60
979.10	4689.85
979.26	4681.66
979.42	4718.52
979.58	4677.56
979.74	4585.40
979.91	4671.42
980.07	4544.44
980.23	4695.99
980.39	4507.58
980.55	4599.74
980.71	4650.94
980.88	4419.52
981.04	4442.04
981.20	4665.27
981.36	4511.68
981.52	4458.43
981.68	4493.24
981.85	4521.92
982.01	4517.82
982.17	4429.76
982.33	4517.82
982.49	4569.02
982.65	4345.79
982.82	4530.11
982.98	4394.94
983.14	4403.13
983.30	4360.13
983.46	4378.56
983.62	4317.12
983.79	4413.37
983.95	4356.03
984.11	4325.31
984.27	4323.26
984.43	4454.33
984.59	4286.40
984.75	4442.04
984.91	4294.59
985.08	4480.96
985.24	4267.97
985.40	4239.30
985.56	4339.65
985.72	4257.73
985.88	4245.44
986.04	4165.57
986.20	4229.06
986.37	4124.61
986.53	4118.47
986.69	4163.52
986.85	4186.05
987.01	4100.03
987.17	4259.78
987.33	4188.10
987.49	4155.33
987.65	4169.66
987.82	4089.79
987.98	3958.72
988.14	4208.58
988.30	4097.99
988.46	4044.74
988.62	4085.70
988.78	4130.75
988.94	3995.59
989.10	3983.30
989.26	4032.45
989.42	3975.11
989.59	3901.38
989.75	3841.99
989.91	3995.59
990.07	3817.41
990.23	3868.61
990.39	3823.56
990.55	4052.93
990.71	3839.94
990.87	3919.81
991.03	3977.16
991.19	3850.18
991.35	3925.96
991.51	3940.29
991.67	3999.68
991.83	4001.73
992.00	3971.01
992.16	3913.67
992.32	3762.12
992.48	3819.46
992.64	3753.93
992.80	3768.26
992.96	3784.65
993.12	3719.11
993.28	3798.98
993.44	3702.73
993.60	3809.22
993.76	3753.93
993.92	3729.35
994.08	3755.97
994.24	3745.73
994.40	3737.54
994.56	3764.17
994.72	3645.38
994.88	3510.22
995.04	3555.27
995.20	3616.71
995.36	3629.00
995.52	3676.10
995.68	3676.10
995.84	3575.75
996.00	3729.35
996.16	3573.71
996.32	3461.07
996.48	3622.86
996.64	3549.13
996.80	3540.94
996.96	3508.17
997.12	3465.16
997.28	3477.45
997.44	3514.31
997.60	3459.02
997.76	3475.40
997.92	3528.65
998.08	3452.88
998.24	3416.01
998.40	3477.45
998.56	3588.04
998.72	3340.24
998.88	3366.86
999.04	3391.44
999.20	3463.12
999.36	3377.10
999.52	3465.16
999.68	3459.02
999.84	3426.25
1000.00	3418.06
1000.16	3418.06
1000.32	3366.86
1000.48	3465.16
1000.64	3327.95
1000.80	3327.95
1000.95	3237.84
1001.11	3383.24
1001.27	3231.69
1001.43	3174.35
1001.59	3223.50
1001.75	3143.63
1001.91	3313.61
1002.07	3160.02
1002.23	3219.41
1002.39	3149.78
1002.55	3221.45
1002.71	3246.03
1002.87	3174.35
1003.03	3094.48
1003.19	3108.82
1003.34	3209.17
1003.50	3184.59
1003.66	3139.54
1003.82	3127.25
1003.98	3125.20
1004.14	3131.34
1004.30	3106.77
1004.46	3127.25
1004.62	2967.51
1004.78	3006.42
1004.94	3149.78
1005.09	3125.20
1005.25	3153.87
1005.41	3049.43
1005.57	3045.33
1005.73	3088.34
1005.89	3055.57
1006.05	3002.32
1006.21	2992.08
1006.37	3065.81
1006.52	2967.51
1006.68	2928.60
1006.84	3047.38
1007.00	2936.79
1007.16	3018.71
1007.32	2983.89
1007.48	2994.13
1007.64	3051.47
1007.79	2961.36
1007.95	2854.87
1008.11	2938.84
1008.27	2936.79
1008.43	2924.50
1008.59	2910.16
1008.75	2985.94
1008.91	2924.50
1009.06	2865.11
1009.22	2836.44
1009.38	2818.00
1009.54	2959.31
1009.70	2824.15
1009.86	2918.36
1010.01	2871.25
1010.17	2752.47
1010.33	2803.67
1010.49	2793.43
1010.65	2803.67
1010.81	2758.61
1010.96	2838.48
1011.12	2762.71
1011.28	2758.61
1011.44	2834.39
1011.60	2754.52
1011.76	2664.41
1011.91	2779.09
1012.07	2652.12
1012.23	2627.54
1012.39	2721.75
1012.55	2797.53
1012.71	2674.65
1012.86	2699.22
1013.02	2705.37
1013.18	2615.26
1013.34	2672.60
1013.50	2801.62
1013.65	2688.98
1013.81	2723.80
1013.97	2592.73
1014.13	2721.75
1014.29	2592.73
1014.44	2813.91
1014.60	2555.86
1014.76	2678.74
1014.92	2676.70
1015.07	2664.41
1015.23	2607.06
1015.39	2551.77
1015.55	2602.97
1015.71	2525.15
1015.86	2564.06
1016.02	2580.44
1016.18	2402.27
1016.34	2527.19
1016.49	2631.64
1016.65	2629.59
1016.81	2488.28
1016.97	2475.99
1017.12	2514.91
1017.28	2410.46
1017.44	2473.95
1017.60	2473.95
1017.75	2486.23
1017.91	2445.27
1018.07	2547.67
1018.23	2510.81
1018.38	2435.03
1018.54	2521.05
1018.70	2480.09
1018.86	2424.80
1019.01	2461.66
1019.17	2432.99
1019.33	2506.71
1019.49	2461.66
1019.64	2445.27
1019.80	2529.24
1019.96	2512.86
1020.12	2389.98
1020.27	2344.92
1020.43	2385.88
1020.59	2357.21
1020.74	2412.51
1020.90	2398.17
1021.06	2330.59
1021.22	2375.64
1021.37	2355.16
1021.53	2322.40
1021.69	2430.94
1021.84	2299.87
1022.00	2301.92
1022.16	2252.77
1022.31	2242.53
1022.47	2338.78
1022.63	2310.11
1022.79	2260.96
1022.94	2217.95
1023.10	2363.36
1023.26	2265.05
1023.41	2289.63
1023.57	2283.49
1023.73	2365.40
1023.88	2367.45
1024.04	2213.85
1024.20	2306.01
1024.35	2265.05
1024.51	2314.20
1024.67	2310.11
1024.82	2334.68
1024.98	2246.62
1025.14	2265.05
1025.29	2324.44
1025.45	2279.39
1025.61	2234.33
1025.76	2127.84
1025.92	2283.49
1026.08	2238.43
1026.23	2279.39
1026.39	2250.72
1026.55	2260.96
1026.70	2156.51
1026.86	2138.08
1027.02	2220.00
1027.17	2263.01
1027.33	2224.09
1027.48	2191.33
1027.64	2088.93
1027.80	2201.57
1027.95	2222.05
1028.11	2072.54
1028.27	2131.94
1028.42	2191.33
1028.58	2115.55
1028.73	2097.12
1028.89	2125.79
1029.05	2230.24
1029.20	2220.00
>>>>>End Processed Spectral Data<<<<<
