SpectraSuite Data File
++++++++++++++++++++++++++++++++++++
Date: Fri Jun 02 14:41:53 CEST 2017
User: INFO_000
Dark Spectrum Present: No
Reference Spectrum Present: No
Number of Sampled Component Spectra: 1
Spectrometers: USB4H00879
Integration Time (usec): 80000 (USB4H00879)
Spectra Averaged: 1 (USB4H00879)
Boxcar Smoothing: 0 (USB4H00879)
Correct for Electrical Dark: No (USB4H00879)
Strobe/Lamp Enabled: No (USB4H00879)
Correct for Detector Non-linearity: No (USB4H00879)
Correct for Stray Light: No (USB4H00879)
Number of Pixels in Processed Spectrum: 3648
>>>>>Begin Processed Spectral Data<<<<<
345.13	1232.88
345.34	1232.88
345.56	1232.88
345.78	1271.79
345.99	1212.40
346.21	1648.61
346.42	1693.67
346.64	1656.81
346.86	1761.25
347.07	1650.66
347.29	1660.90
347.50	1615.85
347.72	1642.47
347.94	1746.92
348.15	1564.65
348.37	1591.27
348.59	1691.62
348.80	1677.29
349.02	1771.49
349.23	1841.12
349.45	1877.99
349.67	1875.94
349.88	1740.77
350.10	1890.28
350.31	1789.92
350.53	1824.74
350.75	1996.77
350.96	1794.02
351.18	1812.45
351.39	1832.93
351.61	1812.45
351.82	1865.70
352.04	1970.15
352.26	1845.22
352.47	1986.53
352.69	1871.84
352.90	1800.16
353.12	1912.80
353.34	1855.46
353.55	1955.81
353.77	1943.52
353.98	1845.22
354.20	1867.75
354.41	1939.43
354.63	1898.47
354.85	2027.49
355.06	1953.76
355.28	1810.40
355.49	1857.51
355.71	1955.81
355.92	1880.04
356.14	1888.23
356.35	1843.17
356.57	1777.64
356.79	1949.67
357.00	1849.32
357.22	1980.39
357.43	1890.28
357.65	1957.86
357.86	1894.37
358.08	1920.99
358.29	1894.37
358.51	1986.53
358.72	2002.91
358.94	1900.52
359.16	1916.90
359.37	1923.04
359.59	1937.38
359.80	1978.34
360.02	1912.80
360.23	1968.10
360.45	1986.53
360.66	1906.66
360.88	1837.03
361.09	1902.56
361.31	1947.62
361.52	1974.24
361.74	2047.97
361.95	2027.49
362.17	2035.68
362.38	1970.15
362.60	2047.97
362.81	1943.52
363.03	1964.00
363.24	2035.68
363.46	2039.78
363.67	2039.78
363.89	2011.11
364.10	2009.06
364.32	2017.25
364.53	2000.87
364.75	1912.80
364.96	2027.49
365.18	2015.20
365.39	2000.87
365.61	1943.52
365.82	2074.59
366.04	2011.11
366.25	1939.43
366.47	2009.06
366.68	2043.87
366.90	1943.52
367.11	2019.30
367.33	2142.18
367.54	2140.13
367.76	2047.97
367.97	2060.26
368.19	1980.39
368.40	2019.30
368.62	1970.15
368.83	1986.53
369.05	1982.43
369.26	2011.11
369.48	1937.38
369.69	1896.42
369.91	2033.63
370.12	2025.44
370.33	2103.26
370.55	2019.30
370.76	2086.88
370.98	2154.46
371.19	2047.97
371.41	2000.87
371.62	2054.11
371.84	1986.53
372.05	2138.08
372.27	2123.74
372.48	2107.36
372.69	2101.22
372.91	2111.46
373.12	2209.76
373.34	2103.26
373.55	2189.28
373.77	2246.62
373.98	2109.41
374.20	2181.09
374.41	2346.97
374.62	2174.94
374.84	2230.24
375.05	2211.81
375.27	2142.18
375.48	2252.77
375.70	2174.94
375.91	2312.16
376.12	2254.81
376.34	2179.04
376.55	2191.33
376.77	2174.94
376.98	2109.41
377.19	2211.81
377.41	2152.42
377.62	2224.09
377.84	2297.82
378.05	2355.16
378.27	2293.72
378.48	2310.11
378.69	2277.34
378.91	2314.20
379.12	2277.34
379.34	2334.68
379.55	2351.07
379.76	2293.72
379.98	2215.90
380.19	2258.91
380.41	2287.58
380.62	2330.59
380.83	2336.73
381.05	2260.96
381.26	2482.14
381.47	2283.49
381.69	2260.96
381.90	2443.23
382.12	2295.77
382.33	2363.36
382.54	2285.53
382.76	2361.31
382.97	2344.92
383.19	2277.34
383.40	2375.64
383.61	2342.88
383.83	2217.95
384.04	2299.87
384.25	2387.93
384.47	2418.65
384.68	2275.29
384.89	2336.73
385.11	2408.41
385.32	2387.93
385.54	2400.22
385.75	2314.20
385.96	2430.94
386.18	2482.14
386.39	2426.84
386.60	2455.51
386.82	2504.67
387.03	2514.91
387.24	2545.63
387.46	2490.33
387.67	2486.23
387.88	2564.06
388.10	2510.81
388.31	2418.65
388.52	2588.63
388.74	2533.34
388.95	2545.63
389.16	2658.26
389.38	2602.97
389.59	2639.83
389.80	2650.07
390.02	2596.82
390.23	2713.56
390.44	2570.20
390.66	2600.92
390.87	2484.19
391.08	2676.70
391.30	2656.22
391.51	2643.93
391.72	2779.09
391.94	2703.32
392.15	2623.45
392.36	2641.88
392.58	2590.68
392.79	2748.37
393.00	2742.23
393.22	2691.03
393.43	2846.68
393.64	2863.06
393.85	2824.15
394.07	2762.71
394.28	2715.61
394.49	2852.82
394.71	2793.43
394.92	2820.05
395.13	2736.09
395.35	2801.62
395.56	2822.10
395.77	2832.34
395.98	2863.06
396.20	2918.36
396.41	2844.63
396.62	2920.40
396.84	2768.85
397.05	2791.38
397.26	2881.49
397.47	2924.50
397.69	2969.55
397.90	3035.09
398.11	3012.56
398.32	2961.36
398.54	2983.89
398.75	2934.74
398.96	2983.89
399.18	3157.97
399.39	2985.94
399.60	3147.73
399.81	2979.79
400.03	2963.41
400.24	3286.99
400.45	3028.95
400.66	3145.68
400.88	3020.75
401.09	3219.41
401.30	3082.19
401.51	3223.50
401.73	3127.25
401.94	3098.58
402.15	3129.30
402.36	3307.47
402.58	3246.03
402.79	3231.69
403.00	3137.49
403.21	3254.22
403.43	3385.29
403.64	3456.97
403.85	3096.53
404.06	3297.23
404.27	3200.98
404.49	3149.78
404.70	3268.56
404.91	3336.14
405.12	3338.19
405.34	3209.17
405.55	3416.01
405.76	3305.42
405.97	3303.37
406.19	3387.34
406.40	3332.05
406.61	3420.11
406.82	3434.44
407.03	3395.53
407.25	3352.52
407.46	3524.55
407.67	3411.92
407.88	3481.55
408.09	3518.41
408.31	3489.74
408.52	3401.68
408.73	3373.00
408.94	3461.07
409.15	3504.07
409.37	3542.99
409.58	3590.09
409.79	3579.85
410.00	3600.33
410.21	3559.37
410.43	3524.55
410.64	3516.36
410.85	3674.06
411.06	3588.04
411.27	3682.25
411.48	3760.07
411.70	3698.63
411.91	3669.96
412.12	3641.29
412.33	3792.84
412.54	3674.06
412.76	3723.21
412.97	3760.07
413.18	3616.71
413.39	3620.81
413.60	3788.74
413.81	3784.65
414.03	3717.06
414.24	3762.12
414.45	3956.68
414.66	3676.10
414.87	3760.07
415.08	3778.50
415.30	3762.12
415.51	3792.84
415.72	3811.27
415.93	3766.21
416.14	3917.76
416.35	3891.14
416.56	3958.72
416.78	3860.42
416.99	4059.07
417.20	3952.58
417.41	3973.06
417.62	4034.50
417.83	4026.31
418.04	3981.25
418.26	4011.97
418.47	4036.55
418.68	4048.83
418.89	4050.88
419.10	4128.70
419.31	4149.18
419.52	4227.01
419.73	4016.07
419.95	4249.54
420.16	4071.36
420.37	4124.61
420.58	4298.69
420.79	3995.59
421.00	4110.27
421.21	4329.41
421.42	4165.57
421.63	4192.19
421.85	4165.57
422.06	4302.78
422.27	4302.78
422.48	4302.78
422.69	4181.95
422.90	4253.63
423.11	4460.48
423.32	4263.87
423.53	4480.96
423.75	4450.24
423.96	4550.59
424.17	4450.24
424.38	4593.59
424.59	4456.38
424.80	4689.85
425.01	4546.49
425.22	4560.83
425.43	4476.86
425.64	4743.10
425.85	4804.53
426.06	4716.47
426.28	4771.77
426.49	4597.69
426.70	4687.80
426.91	4833.21
427.12	4732.86
427.33	4822.97
427.54	4849.59
427.75	4886.45
427.96	4886.45
428.17	4911.03
428.38	5064.63
428.59	5087.15
428.80	5074.87
429.01	4851.64
429.23	5083.06
429.44	5064.63
429.65	5056.43
429.86	5042.10
430.07	5054.39
430.28	5076.91
430.49	5099.44
430.70	5404.59
430.91	5394.35
431.12	5072.82
431.33	5140.40
431.54	5359.53
431.75	5205.94
431.96	5316.53
432.17	5181.36
432.38	5318.57
432.59	5535.66
432.80	5412.78
433.01	5287.86
433.22	5470.12
433.43	5429.17
433.64	5466.03
433.85	5486.51
434.06	5570.48
434.27	5392.30
434.49	5484.46
434.70	5668.78
434.91	5558.19
435.12	5529.52
435.33	5857.19
435.54	5642.15
435.75	5513.13
435.96	5636.01
436.17	5533.61
436.38	5877.67
436.59	5789.61
436.80	5715.88
437.01	5943.21
437.22	5908.39
437.43	5775.27
437.64	5437.36
437.85	5844.90
438.06	5943.21
438.27	6018.98
438.48	5855.14
438.69	6000.55
438.90	5988.26
439.11	6115.23
439.32	5955.49
439.53	5828.52
439.74	6209.44
439.95	6176.67
440.16	5971.88
440.37	6205.35
440.57	5912.49
440.78	6164.39
440.99	6145.95
441.20	6324.13
441.41	6156.19
441.62	6197.15
441.83	6074.28
442.04	6209.44
442.25	6328.22
442.46	6270.88
442.67	6315.94
442.88	6612.89
443.09	6256.54
443.30	6262.69
443.51	6387.61
443.72	6637.47
443.93	6420.38
444.14	6584.22
444.35	6317.98
444.56	6586.27
444.77	6573.98
444.98	6510.49
445.19	6459.29
445.40	6369.18
445.61	6586.27
445.81	6741.91
446.02	6793.11
446.23	6543.26
446.44	6621.08
446.65	6770.58
446.86	6758.30
447.07	6754.20
447.28	6959.00
447.49	6924.18
447.70	6750.10
447.91	6891.41
448.12	6989.72
448.33	7034.77
448.54	6946.71
448.74	6746.01
448.95	7104.40
449.16	7016.34
449.37	7270.29
449.58	6975.38
449.79	7370.64
450.00	6944.66
450.21	7192.47
450.42	7309.20
450.63	7085.97
450.84	7194.51
451.05	7161.75
451.25	7212.95
451.46	7239.57
451.67	7382.93
451.88	7491.47
452.09	7442.32
452.30	7208.85
452.51	7434.13
452.72	7614.35
452.93	7765.90
453.13	7542.67
453.34	7546.76
453.55	7702.41
453.76	7399.31
453.97	7870.34
454.18	7706.51
454.39	7784.33
454.60	7745.42
454.81	7774.09
455.01	7956.36
455.22	7518.09
455.43	7970.69
455.64	8122.24
455.85	8316.80
456.06	8257.41
456.27	7997.32
456.48	8036.23
456.68	8159.11
456.89	8019.85
457.10	8142.72
457.31	8312.71
457.52	8228.74
457.73	8398.72
457.94	8519.55
458.14	8466.30
458.35	8726.39
458.56	8413.06
458.77	8449.92
458.98	8470.40
459.19	8640.38
459.39	8658.81
459.60	8959.86
459.81	8705.92
460.02	8830.84
460.23	8738.68
460.44	9062.26
460.65	8753.02
460.85	9086.84
461.06	9019.25
461.27	8898.42
461.48	9187.19
461.69	9574.25
461.89	9041.78
462.10	9084.79
462.31	9064.31
462.52	9207.67
462.73	9234.29
462.94	9400.18
463.14	9344.88
463.35	9445.23
463.56	9869.16
463.77	9731.95
463.98	9414.51
464.18	9729.90
464.39	9817.96
464.60	9959.27
464.81	9963.37
465.02	10125.16
465.23	10262.37
465.43	9883.50
465.64	10264.42
465.85	10096.49
466.06	9981.80
466.27	10319.71
466.47	10532.70
466.68	10413.92
466.89	10401.63
467.10	10622.81
467.30	10325.86
467.51	10594.14
467.72	10698.59
467.93	10618.72
468.14	10645.34
468.34	10913.63
468.55	10913.63
468.76	11001.69
468.97	10805.08
469.17	11050.84
469.38	11003.74
469.59	11286.36
469.80	11038.55
470.01	11157.33
470.21	11229.01
470.42	11611.98
470.63	11587.41
470.84	11525.97
471.04	11706.19
471.25	11581.26
471.46	11892.55
471.67	11820.88
471.87	11925.32
472.08	12048.20
472.29	12130.12
472.50	11792.20
472.70	12058.44
472.91	12132.17
473.12	12484.42
473.33	12451.65
473.53	12609.34
473.74	12521.28
473.95	12785.47
474.16	12824.38
474.36	12826.43
474.57	13018.94
474.78	13158.20
474.99	12969.79
475.19	12844.86
475.40	13338.42
475.61	13276.98
475.81	13805.36
476.02	13670.19
476.23	13516.59
476.44	13877.04
476.64	13934.38
476.85	14077.74
477.06	14001.96
477.27	14219.05
477.47	14370.60
477.68	14298.92
477.89	14501.67
478.09	14618.40
478.30	14399.27
478.51	14657.31
478.71	14913.31
478.92	14849.82
479.13	14972.70
479.34	15300.37
479.54	15136.54
479.75	15114.01
479.96	15189.78
480.16	15294.23
480.37	15634.19
480.58	15574.80
480.78	16043.79
480.99	15658.77
481.20	15982.35
481.41	15943.44
481.61	16092.94
481.82	16248.58
482.03	16115.47
482.23	16242.44
482.44	16553.73
482.65	16695.04
482.85	16520.96
483.06	16574.21
483.27	16932.61
483.47	16858.88
483.68	16867.07
483.89	17245.94
484.09	17442.55
484.30	17295.10
484.51	17577.72
484.71	17731.31
484.92	17657.59
485.13	17852.14
485.33	17993.45
485.54	17542.90
485.75	18183.91
485.95	18194.15
486.16	18134.76
486.37	18394.86
486.57	18411.24
486.78	18480.87
486.98	18259.69
487.19	18693.86
487.40	18765.54
487.60	18675.43
487.81	19066.59
488.02	19107.55
488.22	19027.68
488.43	19236.57
488.64	19498.71
488.84	19613.40
489.05	19787.47
489.25	19263.19
489.46	20051.66
489.67	19566.29
489.87	19615.44
490.08	19990.22
490.29	20039.37
490.49	20309.71
490.70	20436.68
490.90	20631.24
491.11	20375.24
491.32	20494.02
491.52	20532.93
491.73	20545.22
491.94	20680.39
492.14	20772.55
492.35	20952.77
492.55	20950.72
492.76	21137.09
492.97	21302.97
493.17	21216.96
493.38	21053.12
493.58	21782.20
493.79	21718.71
494.00	21599.93
494.20	22013.62
494.41	22142.64
494.61	21874.35
494.82	22068.91
495.02	22357.67
495.23	22263.47
495.44	22253.23
495.64	22496.94
495.85	22527.66
496.05	22384.30
496.26	22568.62
496.47	22953.63
496.67	22675.11
496.88	23193.25
497.08	22810.28
497.29	23180.96
497.49	23084.70
497.70	23019.17
497.91	23238.30
498.11	23432.86
498.32	23498.39
498.52	23623.32
498.73	23930.51
498.93	23615.13
499.14	23860.88
499.34	23770.77
499.55	24039.06
499.76	23912.08
499.96	24096.40
500.17	24143.50
500.37	24221.33
500.58	23985.81
500.78	24743.56
500.99	24395.40
501.19	24940.16
501.40	24585.86
501.60	24288.91
501.81	24501.90
502.02	25110.14
502.22	24784.52
502.43	25187.97
502.63	25036.42
502.84	25349.76
503.04	25374.33
503.25	25253.50
503.45	25118.34
503.66	25519.74
503.86	25613.95
504.07	25681.53
504.27	25280.13
504.48	25761.40
504.68	25896.56
504.89	25906.80
505.09	25632.38
505.30	26054.26
505.50	25865.85
505.71	26027.63
505.91	26332.78
506.12	26044.02
506.32	26306.16
506.53	26408.56
506.73	26510.96
506.94	26562.15
507.14	26318.45
507.35	26674.79
507.55	26771.05
507.76	26613.35
507.96	26766.95
508.17	27053.67
508.37	26916.45
508.58	27151.97
508.78	26981.99
508.99	27209.31
509.19	27141.73
509.40	27475.55
509.60	27154.02
509.81	27473.50
510.01	27201.12
510.22	27668.06
510.42	27407.97
510.63	27610.71
510.83	27338.33
511.04	27432.54
511.24	27932.25
511.44	27831.90
511.65	28051.03
511.85	27913.81
512.06	27741.78
512.26	28388.94
512.47	28294.74
512.67	28116.56
512.88	27932.25
513.08	28096.08
513.29	28608.08
513.49	28325.46
513.69	28698.19
513.90	28368.46
514.10	28749.39
514.31	28577.36
514.51	28800.58
514.72	28556.88
514.92	28843.59
515.13	28857.93
515.33	28976.71
515.53	28698.19
515.74	28778.06
515.94	29128.26
516.15	29242.95
516.35	29109.83
516.56	29169.22
516.76	29113.92
516.96	29171.27
517.17	29795.90
517.37	29738.55
517.58	29464.13
517.78	29746.75
517.99	29873.72
518.19	29777.47
518.39	29582.91
518.60	29759.03
518.80	29961.78
519.01	29779.51
519.21	30051.89
519.41	29816.38
519.62	30289.46
519.82	30250.55
520.03	30465.58
520.23	30223.92
520.43	30217.78
520.64	30383.66
520.84	30662.19
521.05	30658.09
521.25	30815.79
521.45	30811.69
521.66	31333.92
521.86	30942.76
522.07	31163.94
522.27	31096.36
522.47	31247.91
522.68	31491.62
522.88	30858.79
523.08	31567.39
523.29	31680.03
523.49	31610.40
523.70	31614.49
523.90	31940.12
524.10	31788.57
524.31	31811.10
524.51	31897.11
524.71	32179.73
524.92	32032.28
525.12	32267.80
525.33	32347.67
525.53	32804.36
525.73	32849.42
525.94	32585.23
526.14	32325.14
526.34	32609.81
526.55	32802.32
526.75	32806.41
526.95	32941.58
527.16	32988.68
527.36	32912.91
527.56	33463.81
527.77	33256.96
527.97	33281.54
528.17	33127.94
528.38	33693.18
528.58	33508.86
528.78	33893.88
528.99	33594.88
529.19	33848.83
529.39	33805.82
529.60	34119.16
529.80	34418.16
530.00	34010.62
530.21	34440.69
530.41	34434.55
530.61	34641.39
530.82	34760.17
531.02	34602.48
531.22	34743.79
531.43	34588.14
531.63	35083.75
531.83	35470.82
532.04	35788.25
532.24	35018.22
532.44	35421.67
532.64	35558.88
532.85	36064.73
533.05	35595.74
533.25	35724.77
533.46	35993.05
533.66	36160.98
533.86	35904.99
534.07	36247.00
534.27	36185.56
534.47	36333.01
534.67	36416.98
534.88	36437.46
535.08	36595.15
535.28	36586.96
535.49	36584.91
535.69	37094.86
535.89	36885.97
536.09	37141.96
536.30	37299.65
536.50	37291.46
536.70	37541.32
536.91	37449.16
537.11	37762.50
537.31	37690.82
537.51	37711.30
537.72	38114.75
537.92	38256.06
538.12	38415.80
538.32	37731.78
538.53	38561.20
538.73	38354.36
538.93	38104.51
539.13	38239.67
539.34	38612.40
539.54	38405.56
539.74	39065.00
539.94	38872.49
540.15	38434.23
540.35	38958.51
540.55	38700.47
540.75	39071.15
540.96	39003.56
541.16	39323.05
541.36	39421.35
541.56	39468.45
541.77	39853.47
541.97	39540.13
542.17	39749.03
542.37	39816.61
542.58	39628.20
542.78	39628.20
542.98	39673.25
543.18	40011.17
543.38	40308.12
543.59	40181.15
543.79	40187.29
543.99	40254.87
544.19	40752.53
544.40	40666.52
544.60	40555.93
544.80	40496.53
545.00	40869.26
545.20	41162.12
545.41	40674.71
545.61	40795.54
545.81	41346.44
546.01	40961.42
546.21	41069.97
546.42	41307.53
546.62	41641.35
546.82	40695.19
547.02	41467.27
547.22	41459.08
547.43	41371.02
547.63	41291.15
547.83	41786.75
548.03	41457.03
548.23	42102.14
548.44	41614.72
548.64	42096.00
548.84	41770.37
549.04	41889.15
549.24	42032.51
549.45	42347.90
549.65	41842.05
549.85	42118.53
550.05	42724.72
550.25	42288.51
550.45	43103.60
550.66	42468.73
550.86	42392.95
551.06	42632.57
551.26	42651.00
551.46	42800.50
551.66	42771.83
551.87	42616.18
552.07	42859.89
552.27	42909.04
552.47	42952.05
552.67	42945.90
552.87	43011.44
553.07	43119.98
553.28	43322.73
553.48	43083.12
553.68	43138.41
553.88	43697.51
554.08	43058.54
554.28	42982.77
554.48	43142.51
554.69	43144.56
554.89	43353.45
555.09	43228.52
555.29	43337.07
555.49	43769.19
555.69	43820.39
555.89	43636.07
556.10	43914.59
556.30	43531.62
556.50	43521.38
556.70	43951.46
556.90	43957.60
557.10	44084.58
557.30	43832.68
557.50	44152.16
557.70	43849.06
557.91	44498.26
558.11	44113.25
558.31	43980.13
558.51	44234.08
558.71	44408.15
558.91	44350.81
559.11	44471.64
559.31	44557.66
559.51	44359.00
559.72	44703.06
559.92	44733.78
560.12	44391.77
560.32	44868.95
560.52	44262.75
560.72	45016.40
560.92	44950.87
561.12	44936.53
561.32	45409.61
561.52	44930.39
561.72	45421.90
561.93	45229.39
562.13	44938.58
562.33	45137.23
562.53	45317.45
562.73	44934.48
562.93	45339.98
563.13	45161.81
563.33	44799.32
563.53	45264.21
563.73	45163.85
563.93	45323.60
564.13	45587.78
564.33	45403.47
564.53	45282.64
564.74	45581.64
564.94	45514.06
565.14	45974.85
565.34	45186.38
565.54	45415.76
565.74	45641.03
565.94	46142.78
566.14	45813.06
566.34	45851.97
566.54	45905.22
566.74	45425.99
566.94	46034.24
567.14	46232.89
567.34	45774.15
567.54	45940.04
567.74	45778.25
567.94	45991.23
568.14	46112.06
568.34	46480.70
568.54	45978.95
568.74	46622.01
568.94	46306.62
569.14	46576.95
569.34	46114.11
569.54	46687.54
569.75	46050.63
569.95	46544.19
570.15	46906.68
570.35	46460.22
570.55	46722.36
570.75	46411.07
570.95	46626.10
571.15	46773.56
571.35	46912.82
571.55	47390.00
571.75	46798.13
571.95	46910.77
572.15	46884.15
572.35	47240.50
572.55	47385.90
572.75	46994.74
572.95	47506.73
573.15	47562.03
573.35	47207.73
573.55	47004.98
573.75	47144.24
573.95	47619.37
574.15	47836.45
574.35	47385.90
574.55	47639.85
574.75	47383.85
574.95	47809.83
575.15	47297.84
575.34	47007.03
575.54	48002.34
575.74	48033.06
575.94	48088.35
576.14	47947.04
576.34	48487.71
576.54	48325.92
576.74	48172.32
576.94	47826.21
577.14	48006.44
577.34	48252.19
577.54	47840.55
577.74	48387.36
577.94	48403.74
578.14	48715.03
578.34	48948.50
578.54	48127.27
578.74	48549.15
578.94	48612.63
579.14	48346.40
579.34	48635.16
579.54	48878.87
579.74	49302.80
579.94	49263.89
580.13	48794.90
580.33	48899.35
580.53	48643.35
580.73	49319.18
580.93	49091.86
581.13	49214.74
581.33	49589.52
581.53	49329.42
581.73	49616.14
581.93	49323.28
582.13	49679.63
582.33	49337.62
582.53	49591.56
582.73	49511.69
582.92	49540.36
583.12	50001.16
583.32	49411.34
583.52	49607.95
583.72	49980.68
583.92	50040.07
584.12	50218.24
584.32	50459.90
584.52	50091.27
584.72	49814.79
584.92	50353.41
585.11	50570.49
585.31	50492.67
585.51	50464.00
585.71	50197.76
585.91	50902.26
586.11	50756.86
586.31	50476.29
586.51	50504.96
586.71	50689.27
586.91	50898.17
587.10	51172.60
587.30	50894.07
587.50	50889.98
587.70	51182.84
587.90	50838.78
588.10	51326.19
588.30	50871.54
588.50	51219.70
588.69	51494.13
588.89	51084.53
589.09	51479.79
589.29	51170.55
589.49	51451.12
589.69	51180.79
589.89	51772.65
590.08	51182.84
590.28	51401.97
590.48	52028.65
590.68	51891.43
590.88	51416.30
591.08	51653.87
591.28	51320.05
591.47	51741.93
591.67	51950.82
591.87	51832.04
592.07	51954.92
592.27	51938.54
592.47	52360.42
592.67	52045.03
592.86	51786.99
593.06	52174.05
593.26	52499.68
593.46	52129.00
593.66	52438.24
593.86	52376.80
594.05	52159.72
594.25	52927.70
594.45	52399.33
594.65	52403.42
594.85	52274.40
595.05	53099.73
595.24	52690.14
595.44	53056.73
595.64	52692.19
595.84	52694.24
596.04	52804.83
596.23	52829.40
596.43	53150.93
596.63	52872.41
596.83	53142.74
597.03	53161.17
597.22	53535.95
597.42	53253.33
597.62	53421.26
597.82	53730.51
598.02	53322.96
598.21	53783.76
598.41	53294.29
598.61	53646.54
598.81	53777.61
599.01	54058.18
599.20	53761.23
599.40	53454.03
599.60	53859.53
599.80	53886.15
600.00	54305.99
600.19	54039.75
600.39	53277.91
600.59	53925.07
600.79	54187.21
600.98	54152.39
601.18	54559.94
601.38	54262.98
601.58	54402.24
601.78	54697.15
601.97	54326.47
602.17	54703.29
602.37	54817.98
602.57	54465.73
602.76	54764.73
602.96	53849.29
603.16	54947.00
603.36	54832.32
603.55	55424.18
603.75	55069.88
603.95	54863.03
604.15	55272.63
604.34	54756.54
604.54	55041.21
604.74	55389.36
604.94	55489.71
605.13	55170.23
605.33	55905.45
605.53	55438.51
605.73	55448.75
605.92	55504.05
606.12	55588.02
606.32	55786.67
606.52	55487.67
606.71	55712.94
606.91	55891.12
607.11	55487.67
607.30	55874.73
607.50	55989.42
607.70	56112.30
607.90	56024.23
608.09	55981.23
608.29	55899.31
608.49	56456.35
608.68	56390.82
608.88	56175.78
609.08	56104.10
609.28	56360.10
609.47	56030.38
609.67	56583.33
609.87	56442.02
610.06	56095.91
610.26	56237.22
610.46	57005.21
610.66	56280.23
610.85	56521.89
611.05	56485.03
611.25	56820.89
611.44	56366.24
611.64	56607.90
611.84	56493.22
612.03	56726.69
612.23	56890.52
612.43	56743.07
612.62	56749.21
612.82	56886.43
613.02	56759.45
613.21	56714.40
613.41	56147.11
613.61	57056.41
613.80	56267.94
614.00	56931.48
614.20	56648.86
614.39	57169.05
614.59	57427.09
614.79	56771.74
614.98	57152.66
615.18	56814.75
615.38	56738.97
615.57	56480.93
615.77	57005.21
615.97	57296.02
616.16	56861.85
616.36	56892.57
616.56	57105.56
616.75	56657.06
616.95	56648.86
617.15	56802.46
617.34	56868.00
617.54	56988.83
617.74	57261.21
617.93	57220.25
618.13	56818.84
618.32	56964.25
618.52	56661.15
618.72	56810.65
618.91	57230.49
619.11	56734.88
619.31	56730.78
619.50	57113.75
619.70	56698.01
619.90	56980.63
620.09	56913.05
620.29	56671.39
620.48	56466.59
620.68	57386.13
620.88	56712.35
621.07	57222.29
621.27	56796.32
621.46	56421.54
621.66	56968.35
621.86	57099.42
622.05	56450.21
622.25	57164.95
622.44	56956.06
622.64	56644.77
622.84	56882.33
623.03	56784.03
623.23	56939.68
623.42	56751.26
623.62	56923.29
623.82	57253.01
624.01	56743.07
624.21	57009.31
624.40	56605.86
624.60	56843.42
624.80	57042.07
624.99	57035.93
625.19	56513.70
625.38	57566.35
625.58	57007.26
625.77	57111.70
625.97	57269.40
626.17	57195.67
626.36	57132.18
626.56	57250.97
626.75	56685.73
626.95	57177.24
627.14	56845.47
627.34	57271.45
627.54	57115.80
627.73	56571.04
627.93	56827.04
628.12	56882.33
628.32	56718.49
628.51	57111.70
628.71	57003.16
628.90	57230.49
629.10	57150.62
629.30	57085.08
629.49	57138.33
629.69	57068.70
629.88	56743.07
630.08	57064.60
630.27	57123.99
630.47	57361.56
630.66	56988.83
630.86	57156.76
631.05	56906.91
631.25	57445.52
631.44	56956.06
631.64	56980.63
631.84	57226.39
632.03	57869.45
632.23	57140.38
632.42	57357.46
632.62	57117.85
632.81	57123.99
633.01	57042.07
633.20	57332.89
633.40	57240.73
633.59	57109.66
633.79	56933.53
633.98	57033.88
634.18	57058.46
634.37	57613.46
634.57	57341.08
634.76	57382.04
634.96	57193.62
635.15	57603.22
635.35	57064.60
635.54	57230.49
635.74	57408.66
635.93	57351.32
636.13	57169.05
636.32	57791.63
636.52	57214.10
636.71	57306.26
636.91	57691.28
637.10	57742.48
637.30	57257.11
637.49	56835.23
637.69	57365.65
637.88	57687.18
638.08	57074.84
638.27	57709.71
638.46	57240.73
638.66	57709.71
638.85	57283.73
639.05	57699.47
639.24	57590.93
639.44	57234.58
639.63	57584.79
639.83	57423.00
640.02	57914.51
640.22	57713.81
640.41	58356.87
640.61	57423.00
640.80	57191.58
640.99	57398.42
641.19	57965.71
641.38	57939.08
641.58	57300.12
641.77	57162.90
641.97	57222.29
642.16	57582.74
642.36	57879.69
642.55	58090.63
642.74	57488.53
642.94	58426.50
643.13	57801.87
643.33	57715.86
643.52	58170.50
643.72	57722.00
643.91	57640.08
644.10	58293.38
644.30	58418.31
644.49	57758.86
644.69	58233.99
644.88	58096.78
645.08	58156.17
645.27	58104.97
645.46	58082.44
645.66	57801.87
645.85	57883.79
646.05	58279.05
646.24	57996.43
646.43	58143.88
646.63	58489.99
646.82	58182.79
647.02	58223.75
647.21	58340.49
647.40	58201.22
647.60	58227.85
647.79	58320.01
647.99	58451.08
648.18	57713.81
648.37	58891.39
648.57	58659.97
648.76	58305.67
648.96	58274.95
649.15	58643.59
649.34	58971.26
649.54	58528.90
649.73	58328.20
649.92	58135.69
650.12	58475.65
650.31	58147.98
650.51	58590.34
650.70	58705.02
650.89	58397.83
651.09	58733.70
651.28	58547.33
651.47	58602.63
651.67	58791.04
651.86	58733.70
652.06	58076.30
652.25	58676.35
652.44	58508.42
652.64	58420.36
652.83	58516.61
653.02	58401.92
653.22	58537.09
653.41	58856.57
653.60	58260.62
653.80	59085.95
653.99	58905.73
654.18	58332.29
654.38	58549.38
654.57	59006.08
654.76	58498.18
654.96	58399.88
655.15	58289.29
655.34	58649.73
655.54	58123.40
655.73	58913.92
655.92	58823.81
656.12	58813.57
656.31	58965.12
656.50	58487.94
656.70	58913.92
656.89	58502.28
657.08	59159.67
657.28	58547.33
657.47	58758.27
657.66	59368.57
657.86	58909.82
658.05	58848.38
658.24	59120.76
658.43	58369.16
658.63	59436.15
658.82	59593.84
659.01	59006.08
659.21	59507.83
659.40	58979.45
659.59	58471.56
659.79	59421.81
659.98	58860.67
660.17	58895.49
660.36	58819.71
660.56	59151.48
660.75	59012.22
660.94	59057.27
661.14	58922.11
661.33	58844.29
661.52	58629.25
661.71	59298.94
661.91	58870.91
662.10	59249.78
662.29	59950.19
662.49	59270.26
662.68	59137.15
662.87	59243.64
663.06	58987.64
663.26	58944.64
663.45	59585.65
663.64	59311.22
663.83	59571.32
664.03	59296.89
664.22	58877.05
664.41	59333.75
664.60	59163.77
664.80	58958.97
664.99	58737.79
665.18	59004.03
665.37	58909.82
665.57	58774.66
665.76	58825.85
665.95	59051.13
666.14	58680.45
666.34	59087.99
666.53	59016.32
666.72	59391.09
666.91	59126.91
667.11	58535.04
667.30	59184.25
667.49	58893.44
667.68	59516.02
667.87	58733.70
668.07	59118.71
668.26	59014.27
668.45	58877.05
668.64	58588.29
668.84	59802.74
669.03	59499.64
669.22	58948.73
669.41	59321.46
669.60	59487.35
669.80	58850.43
669.99	59309.18
670.18	58612.87
670.37	58975.36
670.57	59432.05
670.76	59053.18
670.95	59196.54
671.14	59077.75
671.33	59223.16
671.53	59864.17
671.72	59102.33
671.91	58975.36
672.10	58934.40
672.29	58872.96
672.48	58614.91
672.68	58963.07
672.87	58723.46
673.06	58938.49
673.25	58768.51
673.44	58815.61
673.64	58647.68
673.83	58795.13
674.02	58528.90
674.21	58477.70
674.40	58821.76
674.59	58709.12
674.79	58676.35
674.98	58260.62
675.17	58889.34
675.36	58461.32
675.55	59104.38
675.74	58360.97
675.94	58940.54
676.13	58934.40
676.32	58686.59
676.51	59358.33
676.70	58875.01
676.89	58623.11
677.08	59436.15
677.28	58494.08
677.47	58915.96
677.66	59157.63
677.85	59098.23
678.04	58936.44
678.23	59020.41
678.42	58897.53
678.62	58614.91
678.81	59192.44
679.00	58692.74
679.19	58688.64
679.38	58922.11
679.57	58522.76
679.76	58832.00
679.96	59309.18
680.15	58639.49
680.34	58848.38
680.53	58340.49
680.72	58899.58
680.91	58930.30
681.10	58440.84
681.29	59192.44
681.48	58975.36
681.68	58578.05
681.87	58475.65
682.06	58799.23
682.25	58164.36
682.44	58709.12
682.63	58815.61
682.82	58342.53
683.01	58504.32
683.20	58119.31
683.39	58125.45
683.59	58313.86
683.78	58500.23
683.97	58201.22
684.16	58729.60
684.35	58006.67
684.54	58150.02
684.73	58016.91
684.92	58090.63
685.11	57881.74
685.30	57777.29
685.49	58848.38
685.69	57963.66
685.88	58064.01
686.07	58145.93
686.26	57980.04
686.45	58029.19
686.64	57873.55
686.83	58160.26
687.02	58459.27
687.21	58408.07
687.40	57951.37
687.59	57906.32
687.78	58219.66
687.97	58365.06
688.16	58156.17
688.35	58064.01
688.54	57359.51
688.74	58152.07
688.93	57824.40
689.12	57914.51
689.31	57896.08
689.50	58358.92
689.69	56878.24
689.88	57314.45
690.07	57502.87
690.26	57267.35
690.45	58168.46
690.64	57791.63
690.83	57369.75
691.02	57398.42
691.21	57373.84
691.40	57615.50
691.59	57455.76
691.78	57375.89
691.97	57355.41
692.16	57504.91
692.35	57902.22
692.54	57531.54
692.73	57259.16
692.92	57521.30
693.11	57388.18
693.30	57115.80
693.49	57492.63
693.68	56908.96
693.87	57365.65
694.06	56884.38
694.25	57015.45
694.44	57287.83
694.63	56882.33
694.82	57324.69
695.01	56792.22
695.20	57046.17
695.39	56908.96
695.58	56691.87
695.77	56628.38
695.96	56466.59
696.15	57261.21
696.34	56464.55
696.53	56640.67
696.72	56935.58
696.91	56624.29
697.10	56773.79
697.29	56538.27
697.48	57128.09
697.67	56698.01
697.86	56224.93
698.05	56294.56
698.24	56734.88
698.43	56130.73
698.62	56835.23
698.81	56612.00
699.00	56765.60
699.19	56652.96
699.38	56333.48
699.57	55841.96
699.76	56601.76
699.95	56046.76
700.14	56110.25
700.32	56190.12
700.51	56507.55
700.70	56417.44
700.89	56583.33
701.08	56112.30
701.27	56167.59
701.46	56568.99
701.65	55475.38
701.84	55944.36
702.03	56161.45
702.22	56046.76
702.41	55696.56
702.60	56095.91
702.79	55903.40
702.98	55483.57
703.17	55651.50
703.35	55434.42
703.54	55317.68
703.73	55930.03
703.92	55989.42
704.11	55518.38
704.30	55737.52
704.49	55479.47
704.68	55448.75
704.87	55512.24
705.06	55336.12
705.25	55506.10
705.43	55487.67
705.62	55948.46
705.81	55270.58
706.00	55336.12
706.19	55125.17
706.38	55448.75
706.57	55602.35
706.76	55379.12
706.95	55268.53
707.14	55205.05
707.32	55307.44
707.51	54844.60
707.70	55039.16
707.89	55157.94
708.08	54834.36
708.27	55213.24
708.46	55106.74
708.65	55022.78
708.84	55211.19
709.02	54932.67
709.21	55067.83
709.40	55235.77
709.59	54510.78
709.78	54480.06
709.97	55440.56
710.16	54486.21
710.34	54412.48
710.53	54604.99
710.72	54590.66
710.91	54617.28
711.10	54674.62
711.29	54572.22
711.48	54260.93
711.66	54146.25
711.85	54707.39
712.04	54148.29
712.23	54627.52
712.42	54650.05
712.61	54299.84
712.80	54142.15
712.98	54432.96
713.17	54056.14
713.36	54219.97
713.55	54322.37
713.74	53859.53
713.93	54359.23
714.11	54424.77
714.30	53691.60
714.49	53888.20
714.68	53828.81
714.87	54398.15
715.06	54117.57
715.24	54115.53
715.43	54113.48
715.62	53355.73
715.81	53945.54
716.00	53589.20
716.18	53169.36
716.37	53042.39
716.56	53447.89
716.75	53966.02
716.94	53540.05
717.12	53525.71
717.31	53642.45
717.50	53451.98
717.69	53384.40
717.88	53183.70
718.06	53339.35
718.25	53462.22
718.44	52731.10
718.63	53359.83
718.82	52577.50
719.00	52929.75
719.19	52331.75
719.38	52745.44
719.57	52499.68
719.76	52360.42
719.94	52368.61
720.13	52270.31
720.32	52507.87
720.51	52446.43
720.69	52440.29
720.88	52163.81
721.07	52163.81
721.26	52288.74
721.44	52354.27
721.63	52010.21
721.82	51795.18
722.01	51946.73
722.20	52401.38
722.38	51713.26
722.57	51524.85
722.76	51870.95
722.95	52069.61
723.13	51346.67
723.32	51694.83
723.51	51072.24
723.70	51166.45
723.88	51580.14
724.07	51451.12
724.26	51168.50
724.44	50631.93
724.63	51205.36
724.82	51330.29
725.01	51002.61
725.19	51262.71
725.38	51160.31
725.57	50656.51
725.76	51012.85
725.94	50685.18
726.13	50386.18
726.32	50875.64
726.51	50746.62
726.69	51387.63
726.88	50939.13
727.07	50830.58
727.25	50705.66
727.44	50746.62
727.63	50695.42
727.82	51111.16
728.00	50894.07
728.19	50648.32
728.38	51215.60
728.56	50380.03
728.75	51182.84
728.94	50740.47
729.12	50957.56
729.31	50683.13
729.50	50410.75
729.69	50797.82
729.87	50451.71
730.06	50425.09
730.25	50560.25
730.43	50719.99
730.62	50285.82
730.81	50681.08
730.99	50251.01
731.18	50418.94
731.37	50767.10
731.55	50472.19
731.74	50670.84
731.93	50754.81
732.11	50541.82
732.30	50476.29
732.49	50517.25
732.67	50296.06
732.86	50318.59
733.05	50294.02
733.23	49851.66
733.42	50324.74
733.61	50246.91
733.79	50287.87
733.98	50484.48
734.17	50162.95
734.35	50328.83
734.54	50441.47
734.73	50134.28
734.91	50343.17
735.10	49747.21
735.29	50367.74
735.47	49480.97
735.66	50134.28
735.84	50066.69
736.03	49784.07
736.22	49995.01
736.40	50058.50
736.59	50300.16
736.78	49794.31
736.96	50158.85
737.15	50130.18
737.33	50402.56
737.52	49546.51
737.71	49685.77
737.89	49544.46
738.08	49196.31
738.27	49366.29
738.45	50064.64
738.64	50017.54
738.82	49509.64
739.01	49612.04
739.20	49538.32
739.38	49857.80
739.57	49796.36
739.75	49593.61
739.94	49394.96
740.13	49149.20
740.31	49149.20
740.50	49509.64
740.68	49894.66
740.87	49214.74
741.06	49511.69
741.24	49267.98
741.43	48919.83
741.61	49181.97
741.80	48997.65
741.99	49386.77
742.17	49067.28
742.36	48758.04
742.54	48893.21
742.73	48831.77
742.91	49415.44
743.10	49040.66
743.29	49247.50
743.47	49126.67
743.66	48702.74
743.84	49063.19
744.03	49159.44
744.21	48768.28
744.40	48942.36
744.59	48450.84
744.77	48874.77
744.96	48702.74
745.14	48561.44
745.33	48758.04
745.51	48723.22
745.70	48702.74
745.88	48502.04
746.07	48495.90
746.26	48049.44
746.44	48452.89
746.63	48174.37
746.81	48309.53
747.00	48375.07
747.18	48571.67
747.37	48184.61
747.55	48569.63
747.74	48456.99
747.92	47977.76
748.11	48669.98
748.29	48049.44
748.48	48088.35
748.66	47766.82
748.85	47830.31
749.03	48213.28
749.22	48225.57
749.41	47906.08
749.59	48200.99
749.78	47715.62
749.96	47555.88
750.15	47736.10
750.33	47625.51
750.52	47975.72
750.70	47930.66
750.89	47605.03
751.07	47222.06
751.26	47658.28
751.44	47510.83
751.63	47500.59
751.81	46789.94
752.00	47543.59
752.18	47703.34
752.37	47256.88
752.55	47365.42
752.74	47365.42
752.92	47097.14
753.10	47043.89
753.29	47473.96
753.47	46806.33
753.66	46443.84
753.84	46908.72
754.03	46980.40
754.21	47002.93
754.40	47168.82
754.58	46808.37
754.77	46875.96
754.95	46492.99
755.14	47041.84
755.32	46855.48
755.51	46216.51
755.69	46761.27
755.88	46445.88
756.06	46902.58
756.24	46533.95
756.43	46302.53
756.61	46361.92
756.80	46486.84
756.98	45858.12
757.17	46421.31
757.35	46445.88
757.54	46134.59
757.72	46388.54
757.90	46216.51
758.09	46005.57
758.27	46484.79
758.46	46032.19
758.64	45880.64
758.83	46325.05
759.01	46101.82
759.19	45651.27
759.38	45862.21
759.56	46116.16
759.75	45806.92
759.93	45454.67
760.12	45415.76
760.30	45495.63
760.48	46099.78
760.67	45757.77
760.85	45544.78
761.04	45524.30
761.22	46019.91
761.40	45675.85
761.59	45356.36
761.77	44944.72
761.96	45557.06
762.14	45268.30
762.32	44954.96
762.51	45065.55
762.69	45235.53
762.88	45083.98
763.06	45135.18
763.24	45305.16
763.43	45518.15
763.61	44823.89
763.80	45106.51
763.98	45077.84
764.16	44909.91
764.35	44387.67
764.53	44361.05
764.72	44526.94
764.90	44660.05
765.08	44455.26
765.27	44832.08
765.45	44082.53
765.63	44303.71
765.82	44834.13
766.00	44186.97
766.18	44258.65
766.37	44940.63
766.55	44051.81
766.74	44340.57
766.92	43922.79
767.10	44432.73
767.29	44250.46
767.47	43556.20
767.65	43912.55
767.84	43611.49
768.02	43992.42
768.20	43484.52
768.39	44127.58
768.57	43914.59
768.75	43965.79
768.94	43562.34
769.12	43631.97
769.30	43300.20
769.49	43302.25
769.67	43627.88
769.85	43322.73
770.04	43478.38
770.22	43433.32
770.40	43259.24
770.59	42962.29
770.77	43287.92
770.95	43095.41
771.14	43038.06
771.32	43062.64
771.50	42933.62
771.69	42986.86
771.87	42978.67
772.05	42823.03
772.24	42679.67
772.42	42816.88
772.60	42552.69
772.78	42931.57
772.97	42483.06
773.15	42833.27
773.33	42644.85
773.52	42603.89
773.70	42386.81
773.88	42812.79
774.07	42534.26
774.25	42466.68
774.43	42845.55
774.61	42399.10
774.80	42773.88
774.98	42644.85
775.16	42771.83
775.34	42982.77
775.53	42827.12
775.71	42702.20
775.89	42773.88
776.08	42651.00
776.26	42712.44
776.44	42546.55
776.62	42476.92
776.81	42364.28
776.99	42616.18
777.17	42681.72
777.35	42857.84
777.54	43023.73
777.72	42857.84
777.90	43083.12
778.08	43222.38
778.27	42825.07
778.45	42786.16
778.63	43056.50
778.81	42827.12
779.00	43533.67
779.18	42898.80
779.36	43193.71
779.54	43042.16
779.73	43234.67
779.91	43031.92
780.09	43038.06
780.27	43464.04
780.46	43068.78
780.64	43494.76
780.82	42925.42
781.00	43087.21
781.19	43150.70
781.37	43763.04
781.55	43593.06
781.73	43900.26
781.91	43181.42
782.10	43234.67
782.28	43332.97
782.46	43810.15
782.64	43507.05
782.82	43529.58
783.01	43648.36
783.19	43339.11
783.37	43468.14
783.55	43380.07
783.74	43773.28
783.92	43568.49
784.10	44125.53
784.28	43560.30
784.46	43122.03
784.64	43294.06
784.83	43306.35
785.01	43795.81
785.19	43398.51
785.37	43847.01
785.55	43717.99
785.74	43042.16
785.92	43195.76
786.10	43709.80
786.28	43820.39
786.46	42909.04
786.64	42607.99
786.83	43357.55
787.01	43482.47
787.19	43156.85
787.37	42941.81
787.55	43289.96
787.74	42827.12
787.92	43156.85
788.10	43087.21
788.28	42392.95
788.46	43224.43
788.64	43042.16
788.82	42966.38
789.01	42589.56
789.19	42825.07
789.37	42368.38
789.55	42470.78
789.73	42337.66
789.91	42071.42
790.09	42253.69
790.28	41940.35
790.46	41788.80
790.64	42132.86
790.82	42399.10
791.00	42276.22
791.18	41829.76
791.36	41850.24
791.55	41899.39
791.73	41454.98
791.91	41469.32
792.09	41371.02
792.27	41422.22
792.45	41674.12
792.63	41508.23
792.81	41311.63
793.00	41352.58
793.18	41401.74
793.36	41477.51
793.54	41139.60
793.72	41207.18
793.90	41266.57
794.08	40586.64
794.26	40547.73
794.44	40596.88
794.62	39914.91
794.81	40525.21
794.99	40334.74
795.17	40306.07
795.35	40207.77
795.53	40332.70
795.71	40138.14
795.89	40209.82
796.07	39832.99
796.25	39792.03
796.43	39626.15
796.61	39687.59
796.80	39687.59
796.98	39818.66
797.16	39073.20
797.34	39663.01
797.52	39181.74
797.70	39099.82
797.88	39099.82
798.06	38704.56
798.24	38931.89
798.42	39032.24
798.60	38923.69
798.78	38720.95
798.96	38542.77
799.14	38471.09
799.32	38501.81
799.51	38518.20
799.69	38557.11
799.87	38872.49
800.05	37817.79
800.23	38366.65
800.41	37879.23
800.59	38217.14
800.77	37862.85
800.95	37400.01
801.13	37547.46
801.31	37590.47
801.49	37410.25
801.67	37496.26
801.85	37352.90
802.03	37268.94
802.21	37078.47
802.39	36806.09
802.57	37127.63
802.75	36849.10
802.93	36851.15
803.11	36699.60
803.29	36797.90
803.47	36453.84
803.65	36595.15
803.83	36603.35
804.01	36500.95
804.19	35902.94
804.37	36310.49
804.55	36363.73
804.73	36070.87
804.91	36066.78
805.09	35919.32
805.27	35964.38
805.45	35984.86
805.63	36226.52
805.81	35669.47
805.99	35810.78
806.17	36029.91
806.35	35470.82
806.53	35565.03
806.71	35411.43
806.89	35276.26
807.07	35304.93
807.25	35139.05
807.43	35042.79
807.61	35347.94
807.79	35067.37
807.97	34751.98
808.15	34844.14
808.33	34571.76
808.51	34766.32
808.69	34790.89
808.87	34493.94
809.05	34266.61
809.23	34383.35
809.41	34022.90
809.59	34024.95
809.77	34426.35
809.95	33840.64
810.13	34008.57
810.31	34203.13
810.49	33844.73
810.67	33545.73
810.84	33873.40
811.02	33590.78
811.20	33670.65
811.38	33674.75
811.56	33334.79
811.74	33322.50
811.92	33424.90
812.10	33209.86
812.28	33383.94
812.46	33367.55
812.64	33347.08
812.82	33205.77
813.00	32988.68
813.18	32939.53
813.36	32927.24
813.53	32812.56
813.71	32970.25
813.89	32822.80
814.07	32910.86
814.25	32654.86
814.43	32437.78
814.61	32593.42
814.79	32364.05
814.97	32312.85
815.15	32615.95
815.33	32237.08
815.50	32681.49
815.68	32253.46
815.86	32116.25
816.04	32130.58
816.22	32278.04
816.40	32036.38
816.58	32185.88
816.76	31495.71
816.94	31882.78
817.11	31972.89
817.29	31553.05
817.47	31813.15
817.65	31612.45
817.83	31370.79
818.01	31292.96
818.19	31389.22
818.37	31241.76
818.54	31030.82
818.72	30973.48
818.90	31147.56
819.08	30973.48
819.26	31129.12
819.44	31000.10
819.62	30887.46
819.80	30932.52
819.97	31329.83
820.15	30916.14
820.33	30729.77
820.51	30809.64
820.69	30479.92
820.87	30707.24
821.05	30795.31
821.22	30447.15
821.40	30565.93
821.58	30436.91
821.76	30156.34
821.94	30354.99
822.12	30197.30
822.29	30256.69
822.47	30326.32
822.65	30248.50
822.83	30285.36
823.01	30010.93
823.19	30072.37
823.36	29908.54
823.54	29808.19
823.72	29959.73
823.90	29955.64
824.08	29386.30
824.25	29496.89
824.43	29640.25
824.61	29472.32
824.79	29607.48
824.97	29394.50
825.15	29646.40
825.32	29263.43
825.50	29040.20
825.68	29290.05
825.86	29460.03
826.04	29486.65
826.21	29029.96
826.39	29326.91
826.57	29054.53
826.75	28991.05
826.93	28995.14
827.10	28849.74
827.28	29011.53
827.46	29126.21
827.64	28816.97
827.81	29019.72
827.99	28819.02
828.17	28550.73
828.35	28694.09
828.53	28481.10
828.70	28620.36
828.88	28694.09
829.06	28810.82
829.24	28909.13
829.41	28538.44
829.59	28585.55
829.77	28321.36
829.95	28546.64
830.12	28319.31
830.30	28593.74
830.48	28399.18
830.66	28239.44
830.84	28249.68
831.01	27762.26
831.19	27981.40
831.37	28272.21
831.55	28098.13
831.72	27881.05
831.90	27913.81
832.08	27879.00
832.25	27823.70
832.43	27666.01
832.61	27557.47
832.79	27539.04
832.96	27526.75
833.14	27866.71
833.32	27973.21
833.50	27934.29
833.67	27756.12
833.85	27784.79
834.03	27260.51
834.20	27768.41
834.38	27504.22
834.56	27360.86
834.74	27391.58
834.91	27256.42
835.09	27358.81
835.27	27240.03
835.44	27297.38
835.62	26910.31
835.80	27039.33
835.98	27168.35
836.15	26902.12
836.33	26947.17
836.51	27117.15
836.68	26463.85
836.86	27117.15
837.04	26777.19
837.21	26762.86
837.39	26635.88
837.57	26676.84
837.75	26934.88
837.92	26291.82
838.10	26771.05
838.28	26488.43
838.45	26470.00
838.63	26592.87
838.81	26443.37
838.98	26449.52
839.16	26371.69
839.34	25847.41
839.51	26271.34
839.69	26267.25
839.87	26226.29
840.04	26093.17
840.22	26590.83
840.40	26211.95
840.57	25605.75
840.75	26181.23
840.93	25929.33
841.10	26185.33
841.28	26289.77
841.46	25990.77
841.63	26191.47
841.81	26021.49
841.98	25966.20
842.16	25939.57
842.34	25986.68
842.51	25667.19
842.69	26005.11
842.87	25941.62
843.04	25951.86
843.22	25390.72
843.40	25720.44
843.57	25769.59
843.75	25820.79
843.92	25921.14
844.10	25376.38
844.28	25548.41
844.45	25429.63
844.63	25609.85
844.81	25126.53
844.98	25253.50
845.16	25286.27
845.33	25237.12
845.51	25298.56
845.69	25155.20
845.86	24866.44
846.04	24997.51
846.21	25200.26
846.39	25063.04
846.57	24968.84
846.74	25230.98
846.92	24837.76
847.09	24893.06
847.27	24735.37
847.45	24848.00
847.62	24739.46
847.80	24854.15
847.97	24725.13
848.15	24753.80
848.32	24411.79
848.50	24262.29
848.68	24426.12
848.85	24254.09
849.03	23795.35
849.20	24766.09
849.38	24465.03
849.56	24772.23
849.73	24340.11
849.91	24514.19
850.08	24487.56
850.26	23942.80
850.43	24215.18
850.61	24331.92
850.78	23778.97
850.96	24163.98
851.14	23903.89
851.31	24295.05
851.49	24092.30
851.66	24186.51
851.84	24022.67
852.01	23895.70
852.19	24125.07
852.36	23725.72
852.54	24274.57
852.71	24016.53
852.89	23883.41
853.07	23926.42
853.24	23912.08
853.42	23680.66
853.59	23574.17
853.77	23867.03
853.94	23678.61
854.12	24118.93
854.29	23314.08
854.47	23834.26
854.64	23615.13
854.82	23443.10
854.99	23809.68
855.17	23596.70
855.34	23230.11
855.52	23549.59
855.69	23695.00
855.87	23254.69
856.04	23168.67
856.22	23051.94
856.39	23158.43
856.57	23320.22
856.74	23082.66
856.92	23230.11
857.09	22976.16
857.27	23213.73
857.44	23072.42
857.62	22976.16
857.79	23266.97
857.97	22961.83
858.14	22947.49
858.32	22986.40
858.49	23076.51
858.67	22797.99
858.84	23135.90
859.02	22924.96
859.19	22613.67
859.37	22818.47
859.54	22316.72
859.72	22986.40
859.89	22511.27
860.06	23027.36
860.24	22812.32
860.41	22523.56
860.59	22265.52
860.76	22525.61
860.94	22433.45
861.11	22572.71
861.29	22390.44
861.46	22253.23
861.64	22111.92
861.81	22228.65
861.98	22228.65
862.16	22101.68
862.33	21935.79
862.51	22288.04
862.68	22263.47
862.86	22066.86
863.03	22042.29
863.21	22118.06
863.38	22242.99
863.55	22105.77
863.73	21892.79
863.90	21718.71
864.08	21800.63
864.25	21943.99
864.43	21814.96
864.60	21946.03
864.77	21640.89
864.95	21960.37
865.12	21722.80
865.30	21673.65
865.47	21644.98
865.64	21352.12
865.82	21726.90
865.99	21376.70
866.17	21567.16
866.34	21436.09
866.51	21350.07
866.69	21585.59
866.86	21292.73
867.04	21407.42
867.21	21053.12
867.38	21206.72
867.56	21032.64
867.73	21104.32
867.91	21231.29
868.08	21219.00
868.25	21159.61
868.43	21112.51
868.60	20885.19
868.78	20743.88
868.95	21368.51
869.12	20907.71
869.30	20770.50
869.47	21046.97
869.64	20895.43
869.82	20504.26
869.99	20491.98
870.16	20653.76
870.34	20922.05
870.51	20852.42
870.69	20649.67
870.86	20645.57
871.03	20629.19
871.21	20408.01
871.38	20518.60
871.55	20270.79
871.73	20188.88
871.90	20420.30
872.07	20231.88
872.25	20217.55
872.42	20494.02
872.59	19977.94
872.77	20381.38
872.94	20367.05
873.11	20211.40
873.29	19818.19
873.46	20086.48
873.63	20086.48
873.81	20084.43
873.98	19730.13
874.15	19803.86
874.33	19678.93
874.50	19855.06
874.67	19971.79
874.85	19609.30
875.02	19728.08
875.19	19640.02
875.37	19578.58
875.54	19392.22
875.71	19492.57
875.88	19418.84
876.06	19257.05
876.23	19291.87
876.40	19345.11
876.58	19414.74
876.75	19255.00
876.92	19009.25
877.10	19433.18
877.27	19205.85
877.44	18695.91
877.61	19019.49
877.79	19064.54
877.96	18810.59
878.13	18902.75
878.31	18687.71
878.48	18792.16
878.65	18720.48
878.82	18751.20
879.00	18822.88
879.17	18478.82
879.34	18833.12
879.51	18540.26
879.69	18683.62
879.86	18386.66
880.03	18607.84
880.21	18368.23
880.38	18525.93
880.55	18624.23
880.72	18331.37
880.90	18372.33
881.07	18263.79
881.24	18319.08
881.41	18704.10
881.59	18296.55
881.76	18077.42
881.93	18073.32
882.10	17907.44
882.28	18140.91
882.45	17911.53
882.62	18038.51
882.79	18190.06
882.96	17786.61
883.14	17876.72
883.31	17952.49
883.48	18028.27
883.65	17802.99
883.83	17997.55
884.00	18226.92
884.17	17968.88
884.34	17905.39
884.51	17671.92
884.69	17637.11
884.86	17651.44
885.03	17878.77
885.20	17393.40
885.38	17786.61
885.55	17458.93
885.72	17917.68
885.89	17714.93
886.06	17698.55
886.24	17415.93
886.41	17596.15
886.58	17440.50
886.75	17604.34
886.92	17358.58
887.10	17336.06
887.27	17311.48
887.44	17522.42
887.61	17587.96
887.78	17233.66
887.95	17448.69
888.13	17198.84
888.30	17293.05
888.47	16901.89
888.64	17110.78
888.81	17172.22
888.99	17092.35
889.16	16770.82
889.33	16992.00
889.50	17110.78
889.67	16971.52
889.84	17082.11
890.01	16979.71
890.19	16895.74
890.36	17010.43
890.53	16504.58
890.70	16766.72
890.87	16856.83
891.04	16615.17
891.22	16621.31
891.39	16649.99
891.56	16512.77
891.73	16426.76
891.90	16811.78
892.07	16494.34
892.24	16531.20
892.42	16318.22
892.59	16416.52
892.76	16373.51
892.93	16432.90
893.10	16338.69
893.27	16439.05
893.44	16379.65
893.61	16357.13
893.79	16482.05
893.96	16422.66
894.13	16363.27
894.30	16230.15
894.47	16207.62
894.64	16563.97
894.81	16041.74
894.98	16312.07
895.15	16174.86
895.33	16078.60
895.50	16176.91
895.67	16287.50
895.84	16076.55
896.01	16146.19
896.18	15980.30
896.35	16365.32
896.52	16355.08
896.69	16101.13
896.86	16176.91
897.04	16215.82
897.21	15937.29
897.38	16017.16
897.55	16066.31
897.72	16207.62
897.89	16127.75
898.06	16293.64
898.23	16025.36
898.40	16004.88
898.57	15927.05
898.74	16357.13
898.91	15787.79
899.08	15953.68
899.26	16142.09
899.43	15937.29
899.60	16011.02
899.77	16000.78
899.94	16127.75
900.11	15740.69
900.28	16105.23
900.45	15750.93
900.62	15896.33
900.79	16232.20
900.96	15818.51
901.13	15595.28
901.30	15832.85
901.47	15736.59
901.64	16000.78
901.81	15982.35
901.98	15507.22
902.15	15920.91
902.32	15910.67
902.49	15812.37
902.66	15886.09
902.83	15775.50
903.01	16037.64
903.18	15976.20
903.35	15675.15
903.52	15929.10
903.69	15935.24
903.86	15912.72
904.03	15724.30
904.20	15972.11
904.37	15804.17
904.54	16115.47
904.71	16082.70
904.88	15908.62
905.05	15640.34
905.22	15963.92
905.39	15886.09
905.56	15734.54
905.73	15779.60
905.90	15908.62
906.07	15761.17
906.24	15611.67
906.41	15689.49
906.58	15976.20
906.75	15845.13
906.92	15707.92
907.09	15838.99
907.26	15871.76
907.43	15595.28
907.60	15679.25
907.77	15968.01
907.93	15658.77
908.10	15900.43
908.27	15779.60
908.44	15630.10
908.61	15359.77
908.78	15734.54
908.95	15830.80
909.12	15558.42
909.29	15507.22
909.46	15648.53
909.63	15552.27
909.80	15453.97
909.97	15476.50
910.14	15761.17
910.31	15458.07
910.48	15660.82
910.65	15699.73
910.82	15509.27
910.99	15253.27
911.16	15351.57
911.33	15539.99
911.50	15580.95
911.66	15388.44
911.83	15580.95
912.00	15460.12
912.17	15298.33
912.34	15372.05
912.51	15281.94
912.68	15437.59
912.85	15374.10
913.02	15316.76
913.19	15107.87
913.36	15175.45
913.53	15132.44
913.70	15093.53
913.86	14982.94
914.03	15005.47
914.20	14880.54
914.37	15099.67
914.54	14950.17
914.71	14950.17
914.88	14997.28
915.05	14898.97
915.22	14821.15
915.39	14683.94
915.55	14751.52
915.72	14702.37
915.89	14815.01
916.06	14610.21
916.23	14487.33
916.40	14602.02
916.57	14626.59
916.74	14683.94
916.91	14528.29
917.07	14409.51
917.24	14497.57
917.41	14331.69
917.58	14454.56
917.75	14133.03
917.92	14094.12
918.09	14384.93
918.26	14278.44
918.42	14206.76
918.59	14284.58
918.76	14057.26
918.93	14069.55
919.10	14034.73
919.27	13993.77
919.44	14139.18
919.60	13924.14
919.77	13963.05
919.94	13883.18
920.11	13664.05
920.28	14012.20
920.45	13702.96
920.61	13676.34
920.78	13717.29
920.95	13524.79
921.12	13356.85
921.29	13520.69
921.46	13440.82
921.62	13340.47
921.79	13434.68
921.96	13233.97
922.13	13250.36
922.30	13145.91
922.47	13150.01
922.63	13188.92
922.80	12910.40
922.97	13061.94
923.14	13006.65
923.31	13209.40
923.47	13035.32
923.64	13115.19
923.81	12795.71
923.98	12660.54
924.15	12662.59
924.32	12764.99
924.48	12646.21
924.65	12795.71
924.82	12545.86
924.99	12283.72
925.15	12453.70
925.32	12734.27
925.49	12281.67
925.66	12310.34
925.83	12121.93
925.99	12212.04
926.16	12443.46
926.33	12384.07
926.50	12005.19
926.67	12115.78
926.83	12175.17
927.00	11820.88
927.17	11841.36
927.34	11960.14
927.50	11853.64
927.67	11984.71
927.84	11747.15
928.01	11710.29
928.17	11583.31
928.34	11628.37
928.51	11405.14
928.68	11417.43
928.84	11194.20
929.01	11179.86
929.18	11136.85
929.35	11259.73
929.51	11239.25
929.68	11093.85
929.85	11179.86
930.02	11038.55
930.18	11202.39
930.35	11138.90
930.52	10870.62
930.69	10968.92
930.85	10749.79
931.02	10823.51
931.19	10606.43
931.36	10764.12
931.52	10538.85
931.69	10788.70
931.86	10577.76
932.02	10469.22
932.19	10510.18
932.36	10463.07
932.53	10280.80
932.69	10237.80
932.86	10444.64
933.03	10397.54
933.19	10266.47
933.36	10254.18
933.53	10024.81
933.70	9967.46
933.86	9826.15
934.03	9903.98
934.20	9893.74
934.36	9754.48
934.53	9572.21
934.70	9527.15
934.86	9676.65
935.03	9490.29
935.20	9553.77
935.36	9475.95
935.53	9465.71
935.70	9285.49
935.86	9256.82
936.03	9099.13
936.20	8935.29
936.36	9109.36
936.53	8773.50
936.70	8761.21
936.86	9027.45
937.03	8675.20
937.20	8443.78
937.36	8736.63
937.53	8435.58
937.70	8318.85
937.86	8265.60
938.03	8335.23
938.20	8144.77
938.36	7839.62
938.53	7950.21
938.70	7708.55
938.86	7786.38
939.03	7694.22
939.20	7542.67
939.36	7563.15
939.53	7487.37
939.70	7581.58
939.86	7143.32
940.03	7096.21
940.19	7149.46
940.36	7083.92
940.53	7083.92
940.69	6956.95
940.86	6868.89
941.03	6686.62
941.19	6739.87
941.36	6629.27
941.52	6514.59
941.69	6447.01
941.86	6477.73
942.02	6360.99
942.19	6438.81
942.35	6414.24
942.52	6260.64
942.69	6238.11
942.85	6145.95
943.02	6213.54
943.18	6129.57
943.35	5947.30
943.52	5955.49
943.68	6025.12
943.85	6000.55
944.01	5885.86
944.18	5722.02
944.35	5803.94
944.51	5619.63
944.68	5672.87
944.84	5758.89
945.01	5752.74
945.17	5679.02
945.34	5529.52
945.51	5709.74
945.67	5590.95
945.84	5580.71
946.00	5509.04
946.17	5556.14
946.33	5250.99
946.50	5636.01
946.67	5427.12
946.83	5423.02
947.00	5617.58
947.16	5410.73
947.33	5461.93
947.49	5531.56
947.66	5402.54
947.82	5492.65
947.99	5451.69
948.16	5482.41
948.32	5529.52
948.49	5343.15
948.65	5400.49
948.82	5607.34
948.98	5423.02
949.15	5433.26
949.31	5355.44
949.48	5541.80
949.64	5408.69
949.81	5474.22
949.97	5449.64
950.14	5443.50
950.30	5423.02
950.47	5433.26
950.63	5531.56
950.80	5545.90
950.96	5418.93
951.13	5523.37
951.30	5480.36
951.46	5488.56
951.63	5500.84
951.79	5580.71
951.96	5631.91
952.12	5537.71
952.29	5654.44
952.45	5498.80
952.62	5541.80
952.78	5566.38
952.94	5611.43
953.11	5392.30
953.27	5392.30
953.44	5599.15
953.60	5509.04
953.77	5656.49
953.93	5496.75
954.10	5578.67
954.26	5701.54
954.43	5588.91
954.59	5705.64
954.76	5705.64
954.92	5609.39
955.09	5664.68
955.25	5627.82
955.42	5640.11
955.58	5771.18
955.75	5754.79
955.91	5539.76
956.07	5666.73
956.24	5531.56
956.40	5869.48
956.57	5750.70
956.73	5629.87
956.90	5689.26
957.06	5550.00
957.23	5758.89
957.39	5595.05
957.56	5758.89
957.72	5605.29
957.88	5744.55
958.05	5871.53
958.21	5756.84
958.38	5531.56
958.54	5504.94
958.71	5730.22
958.87	5640.11
959.03	5586.86
959.20	5541.80
959.36	5580.71
959.53	5756.84
959.69	5590.95
959.85	5676.97
960.02	5660.59
960.18	5676.97
960.35	5640.11
960.51	5740.46
960.68	5574.57
960.84	5627.82
961.00	5812.14
961.17	5613.48
961.33	5650.35
961.50	5636.01
961.66	5670.83
961.82	5605.29
961.99	5646.25
962.15	5494.70
962.31	5564.33
962.48	5629.87
962.64	5681.07
962.81	5554.09
962.97	5564.33
963.13	5644.20
963.30	5711.78
963.46	5523.37
963.62	5498.80
963.79	5500.84
963.95	5531.56
964.12	5595.05
964.28	5513.13
964.44	5455.79
964.61	5742.50
964.77	5502.89
964.93	5664.68
965.10	5488.56
965.26	5617.58
965.42	5461.93
965.59	5449.64
965.75	5488.56
965.92	5523.37
966.08	5423.02
966.24	5537.71
966.41	5429.17
966.57	5463.98
966.73	5525.42
966.90	5494.70
967.06	5400.49
967.22	5390.25
967.39	5468.08
967.55	5570.48
967.71	5390.25
967.88	5328.81
968.04	5463.98
968.20	5369.77
968.37	5232.56
968.53	5218.22
968.69	5328.81
968.85	5451.69
969.02	5300.14
969.18	5427.12
969.34	5326.77
969.51	5410.73
969.67	5246.90
969.83	5146.55
970.00	5408.69
970.16	5248.94
970.32	5418.93
970.48	5357.49
970.65	5277.62
970.81	5273.52
970.97	5175.22
971.14	5011.38
971.30	5253.04
971.46	5285.81
971.63	5171.12
971.79	5265.33
971.95	5119.92
972.11	5138.35
972.28	5052.34
972.44	5214.13
972.60	5160.88
972.76	5003.19
972.93	5046.20
973.09	5095.35
973.25	5115.83
973.42	4986.80
973.58	5199.79
973.74	5138.35
973.90	5081.01
974.07	4788.15
974.23	4974.52
974.39	5033.91
974.55	4853.69
974.72	5017.52
974.88	5031.86
975.04	4976.56
975.20	4913.08
975.37	4978.61
975.53	4972.47
975.69	4859.83
975.85	4851.64
976.01	4880.31
976.18	4802.49
976.34	4972.47
976.50	5056.43
976.66	4923.32
976.83	4726.71
976.99	4853.69
977.15	4845.49
977.31	4708.28
977.47	4874.17
977.64	4763.58
977.80	4773.82
977.96	4739.00
978.12	4837.30
978.29	4763.58
978.45	4786.10
978.61	4583.35
978.77	4892.60
978.93	4657.08
979.10	4724.66
979.26	4640.70
979.42	4743.10
979.58	4546.49
979.74	4544.44
979.91	4614.07
980.07	4513.72
980.23	4732.86
980.39	4595.64
980.55	4702.14
980.71	4483.00
980.88	4544.44
981.04	4392.89
981.20	4569.02
981.36	4652.98
981.52	4499.39
981.68	4456.38
981.85	4511.68
982.01	4423.61
982.17	4399.04
982.33	4423.61
982.49	4470.72
982.65	4458.43
982.82	4440.00
982.98	4550.59
983.14	4370.37
983.30	4458.43
983.46	4480.96
983.62	4300.73
983.79	4349.89
983.95	4380.61
984.11	4224.96
984.27	4270.01
984.43	4360.13
984.59	4364.22
984.75	4569.02
984.91	4200.38
985.08	4202.43
985.24	4227.01
985.40	4364.22
985.56	4313.02
985.72	4190.14
985.88	4214.72
986.04	4186.05
986.20	4169.66
986.37	4257.73
986.53	4157.38
986.69	4126.66
986.85	4116.42
987.01	4048.83
987.17	4120.51
987.33	4222.91
987.49	4118.47
987.65	4263.87
987.82	4317.12
987.98	4022.21
988.14	4048.83
988.30	4073.41
988.46	4165.57
988.62	4112.32
988.78	4030.40
988.94	3997.64
989.10	3989.44
989.26	3895.24
989.42	3878.85
989.59	3919.81
989.75	3932.10
989.91	3915.72
990.07	3872.71
990.23	3952.58
990.39	3903.43
990.55	4093.89
990.71	3833.80
990.87	3848.13
991.03	3956.68
991.19	3907.52
991.35	3788.74
991.51	3889.09
991.67	3968.96
991.83	3860.42
992.00	3803.08
992.16	3770.31
992.32	3954.63
992.48	3760.07
992.64	3758.02
992.80	3829.70
992.96	3772.36
993.12	3819.46
993.28	3743.69
993.44	3721.16
993.60	3809.22
993.76	3715.02
993.92	3690.44
994.08	3762.12
994.24	3678.15
994.40	3639.24
994.56	3792.84
994.72	3596.23
994.88	3651.53
995.04	3661.77
995.20	3626.95
995.36	3575.75
995.52	3596.23
995.68	3502.03
995.84	3571.66
996.00	3780.55
996.16	3547.08
996.32	3606.47
996.48	3633.10
996.64	3534.79
996.80	3467.21
996.96	3624.90
997.12	3583.95
997.28	3487.69
997.44	3422.16
997.60	3555.27
997.76	3528.65
997.92	3489.74
998.08	3534.79
998.24	3428.30
998.40	3573.71
998.56	3542.99
998.72	3358.67
998.88	3477.45
999.04	3407.82
999.20	3497.93
999.36	3356.62
999.52	3487.69
999.68	3465.16
999.84	3321.81
1000.00	3485.64
1000.16	3416.01
1000.32	3266.51
1000.48	3399.63
1000.64	3305.42
1000.80	3268.56
1000.95	3241.93
1001.11	3315.66
1001.27	3264.46
1001.43	3229.65
1001.59	3266.51
1001.75	3219.41
1001.91	3160.02
1002.07	3297.23
1002.23	3268.56
1002.39	3153.87
1002.55	3188.69
1002.71	3235.79
1002.87	3157.97
1003.03	3100.62
1003.19	3112.91
1003.34	3231.69
1003.50	3061.71
1003.66	3186.64
1003.82	3139.54
1003.98	3059.67
1004.14	3153.87
1004.30	3155.92
1004.46	3137.49
1004.62	2967.51
1004.78	3096.53
1004.94	3057.62
1005.09	3157.97
1005.25	3182.54
1005.41	3002.32
1005.57	3082.19
1005.73	2981.84
1005.89	2975.70
1006.05	3069.91
1006.21	3125.20
1006.37	2992.08
1006.52	3004.37
1006.68	2875.35
1006.84	3127.25
1007.00	3010.51
1007.16	2965.46
1007.32	2912.21
1007.48	3020.75
1007.64	2922.45
1007.79	2879.44
1007.95	2904.02
1008.11	3035.09
1008.27	2916.31
1008.43	2877.40
1008.59	2916.31
1008.75	3002.32
1008.91	2971.60
1009.06	2803.67
1009.22	2981.84
1009.38	2936.79
1009.54	2828.24
1009.70	2770.90
1009.86	2809.81
1010.01	2877.40
1010.17	2807.77
1010.33	2934.74
1010.49	2854.87
1010.65	2955.22
1010.81	2611.16
1010.96	2731.99
1011.12	2783.19
1011.28	2670.55
1011.44	2744.28
1011.60	2727.89
1011.76	2680.79
1011.91	2844.63
1012.07	2676.70
1012.23	2748.37
1012.39	2693.08
1012.55	2752.47
1012.71	2676.70
1012.86	2707.41
1013.02	2707.41
1013.18	2645.98
1013.34	2719.70
1013.50	2709.46
1013.65	2736.09
1013.81	2576.34
1013.97	2648.02
1014.13	2666.46
1014.29	2600.92
1014.44	2734.04
1014.60	2588.63
1014.76	2621.40
1014.92	2576.34
1015.07	2639.83
1015.23	2633.69
1015.39	2568.15
1015.55	2570.20
1015.71	2611.16
1015.86	2543.58
1016.02	2605.02
1016.18	2494.43
1016.34	2478.04
1016.49	2602.97
1016.65	2656.22
1016.81	2516.95
1016.97	2574.30
1017.12	2568.15
1017.28	2426.84
1017.44	2420.70
1017.60	2480.09
1017.75	2488.28
1017.91	2473.95
1018.07	2496.47
1018.23	2490.33
1018.38	2430.94
1018.54	2494.43
1018.70	2502.62
1018.86	2482.14
1019.01	2355.16
1019.17	2455.51
1019.33	2568.15
1019.49	2342.88
1019.64	2404.32
1019.80	2490.33
1019.96	2445.27
1020.12	2441.18
1020.27	2396.12
1020.43	2412.51
1020.59	2394.08
1020.74	2428.89
1020.90	2467.80
1021.06	2435.03
1021.22	2418.65
1021.37	2389.98
1021.53	2281.44
1021.69	2394.08
1021.84	2299.87
1022.00	2316.25
1022.16	2205.66
1022.31	2316.25
1022.47	2357.21
1022.63	2408.41
1022.79	2205.66
1022.94	2346.97
1023.10	2351.07
1023.26	2336.73
1023.41	2256.86
1023.57	2318.30
1023.73	2306.01
1023.88	2306.01
1024.04	2256.86
1024.20	2213.85
1024.35	2238.43
1024.51	2285.53
1024.67	2238.43
1024.82	2312.16
1024.98	2263.01
1025.14	2279.39
1025.29	2195.42
1025.45	2240.48
1025.61	2181.09
1025.76	2189.28
1025.92	2174.94
1026.08	2275.29
1026.23	2222.05
1026.39	2269.15
1026.55	2136.03
1026.70	2144.22
1026.86	2082.78
1027.02	2199.52
1027.17	2129.89
1027.33	2213.85
1027.48	2136.03
1027.64	2129.89
1027.80	2131.94
1027.95	2191.33
1028.11	2074.59
1028.27	2215.90
1028.42	2150.37
1028.58	2119.65
1028.73	2107.36
1028.89	2054.11
1029.05	2203.61
1029.20	2119.65
>>>>>End Processed Spectral Data<<<<<
