SpectraSuite Data File
++++++++++++++++++++++++++++++++++++
Date: Fri Jun 02 14:41:56 CEST 2017
User: INFO_000
Dark Spectrum Present: No
Reference Spectrum Present: No
Number of Sampled Component Spectra: 1
Spectrometers: USB4H00879
Integration Time (usec): 80000 (USB4H00879)
Spectra Averaged: 1 (USB4H00879)
Boxcar Smoothing: 0 (USB4H00879)
Correct for Electrical Dark: No (USB4H00879)
Strobe/Lamp Enabled: No (USB4H00879)
Correct for Detector Non-linearity: No (USB4H00879)
Correct for Stray Light: No (USB4H00879)
Number of Pixels in Processed Spectrum: 3648
>>>>>Begin Processed Spectral Data<<<<<
345.13	1253.36
345.34	1253.36
345.56	1253.36
345.78	1228.78
345.99	1267.69
346.21	1748.97
346.42	1697.77
346.64	1636.33
346.86	1710.05
347.07	1673.19
347.29	1761.25
347.50	1605.61
347.72	1658.85
347.94	1732.58
348.15	1572.84
348.37	1648.61
348.59	1673.19
348.80	1679.33
349.02	1785.83
349.23	1843.17
349.45	1863.65
349.67	1927.14
349.88	1806.31
350.10	1955.81
350.31	1937.38
350.53	1806.31
350.75	2015.20
350.96	1732.58
351.18	1918.95
351.39	1861.60
351.61	1832.93
351.82	1814.50
352.04	1976.29
352.26	1781.73
352.47	1937.38
352.69	1812.45
352.90	1830.88
353.12	1847.27
353.34	1814.50
353.55	1951.71
353.77	1818.60
353.98	1804.26
354.20	1822.69
354.41	1937.38
354.63	1851.36
354.85	2037.73
355.06	1961.95
355.28	1773.54
355.49	1904.61
355.71	1875.94
355.92	1888.23
356.14	1894.37
356.35	1849.32
356.57	1794.02
356.79	1925.09
357.00	1925.09
357.22	1945.57
357.43	1773.54
357.65	1951.71
357.86	1851.36
358.08	1943.52
358.29	1976.29
358.51	2009.06
358.72	2000.87
358.94	1906.66
359.16	1912.80
359.37	1949.67
359.59	1927.14
359.80	2011.11
360.02	1916.90
360.23	2002.91
360.45	1992.67
360.66	1976.29
360.88	1923.04
361.09	1908.71
361.31	2017.25
361.52	2007.01
361.74	2047.97
361.95	2025.44
362.17	1908.71
362.38	2064.35
362.60	2023.39
362.81	1918.95
363.03	1908.71
363.24	1925.09
363.46	2113.50
363.67	2011.11
363.89	1970.15
364.10	1955.81
364.32	1996.77
364.53	2052.06
364.75	1949.67
364.96	2076.64
365.18	2002.91
365.39	2056.16
365.61	1982.43
365.82	2082.78
366.04	1974.24
366.25	1972.19
366.47	2007.01
366.68	2066.40
366.90	1943.52
367.11	2070.50
367.33	2099.17
367.54	2088.93
367.76	2023.39
367.97	2127.84
368.19	2093.02
368.40	2023.39
368.62	2015.20
368.83	1992.67
369.05	2041.82
369.26	2064.35
369.48	2115.55
369.69	2039.78
369.91	2115.55
370.12	2119.65
370.33	2052.06
370.55	1951.71
370.76	2101.22
370.98	2072.54
371.19	2002.91
371.41	2041.82
371.62	1998.82
371.84	1959.91
372.05	2213.85
372.27	2033.63
372.48	2084.83
372.69	2152.42
372.91	2176.99
373.12	2187.23
373.34	2121.70
373.55	2142.18
373.77	2129.89
373.98	2078.69
374.20	2144.22
374.41	2209.76
374.62	2090.98
374.84	2154.46
375.05	2148.32
375.27	2205.66
375.48	2156.51
375.70	2236.38
375.91	2256.86
376.12	2299.87
376.34	2158.56
376.55	2115.55
376.77	2183.13
376.98	2185.18
377.19	2133.98
377.41	2125.79
377.62	2232.29
377.84	2334.68
378.05	2377.69
378.27	2191.33
378.48	2349.02
378.69	2328.54
378.91	2306.01
379.12	2127.84
379.34	2228.19
379.55	2287.58
379.76	2226.14
379.98	2301.92
380.19	2289.63
380.41	2295.77
380.62	2349.02
380.83	2211.81
381.05	2191.33
381.26	2355.16
381.47	2318.30
381.69	2320.35
381.90	2400.22
382.12	2346.97
382.33	2295.77
382.54	2357.21
382.76	2281.44
382.97	2340.83
383.19	2246.62
383.40	2381.79
383.61	2322.40
383.83	2279.39
384.04	2361.31
384.25	2295.77
384.47	2453.47
384.68	2310.11
384.89	2328.54
385.11	2453.47
385.32	2244.57
385.54	2326.49
385.75	2428.89
385.96	2404.32
386.18	2342.88
386.39	2418.65
386.60	2377.69
386.82	2473.95
387.03	2473.95
387.24	2478.04
387.46	2453.47
387.67	2461.66
387.88	2490.33
388.10	2570.20
388.31	2576.34
388.52	2514.91
388.74	2447.32
388.95	2480.09
389.16	2504.67
389.38	2572.25
389.59	2662.36
389.80	2623.45
390.02	2553.82
390.23	2584.54
390.44	2549.72
390.66	2566.10
390.87	2486.23
391.08	2621.40
391.30	2602.97
391.51	2600.92
391.72	2766.81
391.94	2648.02
392.15	2650.07
392.36	2697.17
392.58	2609.11
392.79	2641.88
393.00	2754.52
393.22	2725.85
393.43	2750.42
393.64	2781.14
393.85	2856.92
394.07	2648.02
394.28	2752.47
394.49	2838.48
394.71	2768.85
394.92	2840.53
395.13	2740.18
395.35	2750.42
395.56	2762.71
395.77	2846.68
395.98	2822.10
396.20	2879.44
396.41	2992.08
396.62	3033.04
396.84	2863.06
397.05	2897.88
397.26	2957.27
397.47	2973.65
397.69	2926.55
397.90	3135.44
398.11	2942.93
398.32	2918.36
398.54	2924.50
398.75	2918.36
398.96	2979.79
399.18	3100.62
399.39	2985.94
399.60	3043.28
399.81	3033.04
400.03	2987.99
400.24	3166.16
400.45	2975.70
400.66	3155.92
400.88	2985.94
401.09	3213.26
401.30	3104.72
401.51	3258.32
401.73	3143.63
401.94	3200.98
402.15	3207.12
402.36	3196.88
402.58	3219.41
402.79	3264.46
403.00	3125.20
403.21	3299.28
403.43	3379.15
403.64	3330.00
403.85	3141.58
404.06	3225.55
404.27	3155.92
404.49	3235.79
404.70	3094.48
404.91	3311.57
405.12	3284.94
405.34	3317.71
405.55	3364.81
405.76	3237.84
405.97	3303.37
406.19	3504.07
406.40	3289.04
406.61	3338.19
406.82	3348.43
407.03	3387.34
407.25	3282.89
407.46	3368.91
407.67	3459.02
407.88	3559.37
408.09	3399.63
408.31	3366.86
408.52	3452.88
408.73	3354.57
408.94	3469.26
409.15	3528.65
409.37	3536.84
409.58	3579.85
409.79	3655.62
410.00	3721.16
410.21	3522.51
410.43	3551.18
410.64	3583.95
410.85	3592.14
411.06	3737.54
411.27	3624.90
411.48	3768.26
411.70	3592.14
411.91	3696.58
412.12	3780.55
412.33	3682.25
412.54	3614.66
412.76	3776.45
412.97	3805.13
413.18	3534.79
413.39	3680.20
413.60	3801.03
413.81	3819.46
414.03	3780.55
414.24	3710.92
414.45	3923.91
414.66	3614.66
414.87	3833.80
415.08	3803.08
415.30	3925.96
415.51	3798.98
415.72	3819.46
415.93	3839.94
416.14	3862.47
416.35	3801.03
416.56	3887.04
416.78	3930.05
416.99	3925.96
417.20	3829.70
417.41	3948.48
417.62	4014.02
417.83	4159.42
418.04	3923.91
418.26	4054.98
418.47	4050.88
418.68	3997.64
418.89	4048.83
419.10	4251.58
419.31	4214.72
419.52	4165.57
419.73	4114.37
419.95	4257.73
420.16	4102.08
420.37	4104.13
420.58	4147.14
420.79	3942.34
421.00	4140.99
421.21	4237.25
421.42	4267.97
421.63	4206.53
421.85	4169.66
422.06	4364.22
422.27	4376.51
422.48	4280.25
422.69	4394.94
422.90	4372.41
423.11	4374.46
423.32	4374.46
423.53	4540.35
423.75	4425.66
423.96	4452.28
424.17	4470.72
424.38	4618.17
424.59	4544.44
424.80	4571.07
425.01	4546.49
425.22	4476.86
425.43	4571.07
425.64	4581.31
425.85	4718.52
426.06	4612.03
426.28	4673.46
426.49	4575.16
426.70	4587.45
426.91	4761.53
427.12	4851.64
427.33	4831.16
427.54	4872.12
427.75	4800.44
427.96	4876.21
428.17	4884.41
428.38	4923.32
428.59	5031.86
428.80	4874.17
429.01	4812.73
429.23	5025.72
429.44	5203.89
429.65	5124.02
429.86	5271.47
430.07	4972.47
430.28	5074.87
430.49	5150.64
430.70	5447.60
430.91	5332.91
431.12	5203.89
431.33	5287.86
431.54	5306.29
431.75	5300.14
431.96	5230.51
432.17	5287.86
432.38	5167.03
432.59	5506.99
432.80	5377.97
433.01	5394.35
433.22	5472.17
433.43	5482.41
433.64	5404.59
433.85	5427.12
434.06	5574.57
434.27	5371.82
434.49	5638.06
434.70	5588.91
434.91	5558.19
435.12	5681.07
435.33	5693.35
435.54	5590.95
435.75	5451.69
435.96	5597.10
436.17	5531.56
436.38	5769.13
436.59	5789.61
436.80	5808.04
437.01	6066.08
437.22	5824.42
437.43	5892.01
437.64	5644.20
437.85	5853.09
438.06	5953.45
438.27	5906.34
438.48	5918.63
438.69	5846.95
438.90	5971.88
439.11	5832.62
439.32	6078.37
439.53	5998.50
439.74	5975.97
439.95	6119.33
440.16	5998.50
440.37	6162.34
440.57	6080.42
440.78	6113.19
440.99	6094.76
441.20	6215.59
441.41	6053.80
441.62	6252.45
441.83	5969.83
442.04	6215.59
442.25	6195.11
442.46	6219.68
442.67	6416.29
442.88	6688.67
443.09	6223.78
443.30	6412.19
443.51	6406.05
443.72	6737.82
443.93	6328.22
444.14	6543.26
444.35	6404.00
444.56	6635.42
444.77	6426.53
444.98	6602.65
445.19	6690.71
445.40	6578.08
445.61	6633.37
445.81	6762.39
446.02	6643.61
446.23	6516.64
446.44	6358.94
446.65	6692.76
446.86	6711.19
447.07	6723.48
447.28	6950.81
447.49	6858.65
447.70	6827.93
447.91	7061.40
448.12	6825.88
448.33	7038.87
448.54	6981.53
448.74	6965.14
448.95	7174.03
449.16	6875.03
449.37	7131.03
449.58	7073.68
449.79	7180.18
450.00	7104.40
450.21	7278.48
450.42	7286.67
450.63	7395.22
450.84	7227.28
451.05	7430.03
451.25	7341.97
451.46	7210.90
451.67	7456.65
451.88	7430.03
452.09	7378.83
452.30	7346.06
452.51	7235.47
452.72	7468.94
452.93	7724.94
453.13	7413.65
453.34	7470.99
453.55	7565.20
453.76	7516.05
453.97	7952.26
454.18	7647.12
454.39	7741.32
454.60	7843.72
454.81	7817.10
455.01	7798.66
455.22	7608.20
455.43	7823.24
455.64	7993.22
455.85	7987.08
456.06	8165.25
456.27	8073.09
456.48	8044.42
456.68	8204.16
456.89	8224.64
457.10	8277.89
457.31	8222.59
457.52	8193.92
457.73	8343.42
457.94	8449.92
458.14	8193.92
458.35	8687.48
458.56	8468.35
458.77	8392.58
458.98	8576.89
459.19	8542.08
459.39	8671.10
459.60	8728.44
459.81	8578.94
460.02	8869.75
460.23	8742.78
460.44	8963.96
460.65	8937.34
460.85	8841.08
461.06	8976.25
461.27	8859.51
461.48	9164.66
461.69	9381.74
461.89	9049.97
462.10	9226.10
462.31	8972.15
462.52	9072.50
462.73	9301.87
462.94	9576.30
463.14	9398.13
463.35	9631.60
463.56	9836.39
463.77	9766.76
463.98	9703.28
464.18	9576.30
464.39	9940.84
464.60	10012.52
464.81	10078.05
465.02	9949.03
465.23	10250.08
465.43	9877.35
465.64	10307.43
465.85	9963.37
466.06	10104.68
466.27	10585.95
466.47	10391.39
466.68	10436.45
466.89	10549.09
467.10	10342.24
467.30	10159.97
467.51	10796.89
467.72	10837.85
467.93	10602.33
468.14	10522.46
468.34	10952.54
468.55	10993.50
468.76	10911.58
468.97	10622.81
469.17	11061.08
469.38	11112.28
469.59	11343.70
469.80	11091.80
470.01	11269.97
470.21	11321.17
470.42	11654.99
470.63	11644.75
470.84	11452.24
471.04	11939.66
471.25	11636.56
471.46	11822.92
471.67	12037.96
471.87	11968.33
472.08	11958.09
472.29	12334.92
472.50	11781.96
472.70	12060.49
472.91	12216.13
473.12	12437.31
473.33	12246.85
473.53	12455.75
473.74	12562.24
473.95	12523.33
474.16	12814.14
474.36	13012.79
474.57	12965.69
474.78	13338.42
474.99	13072.18
475.19	13029.18
475.40	13279.03
475.61	13414.20
475.81	13856.56
476.02	13567.79
476.23	13500.21
476.44	13569.84
476.64	13866.80
476.85	13883.18
477.06	14038.83
477.27	14233.38
477.47	14231.33
477.68	14253.86
477.89	14491.43
478.09	14382.88
478.30	14436.13
478.51	14370.60
478.71	14700.32
478.92	14604.07
479.13	14825.25
479.34	15275.80
479.54	15331.09
479.75	15009.56
479.96	15234.84
480.16	15357.72
480.37	15245.08
480.58	15699.73
480.78	15744.78
480.99	15841.04
481.20	15970.06
481.41	16011.02
481.61	16146.19
481.82	16287.50
482.03	16082.70
482.23	16295.69
482.44	16627.46
482.65	16713.47
482.85	16654.08
483.06	16627.46
483.27	16867.07
483.47	16662.27
483.68	17110.78
483.89	17108.73
484.09	17102.59
484.30	17239.80
484.51	17788.66
484.71	17645.30
484.92	17719.03
485.13	17727.22
485.33	17712.88
485.54	17555.19
485.75	18196.20
485.95	18091.76
486.16	18163.43
486.37	18261.74
486.57	18108.14
486.78	18263.79
486.98	18325.22
487.19	18620.13
487.40	18808.54
487.60	18708.19
487.81	19148.51
488.02	19142.36
488.22	19117.79
488.43	19357.40
488.64	19328.73
488.84	19549.91
489.05	19590.87
489.25	19533.53
489.46	19744.47
489.67	19429.08
489.87	19861.20
490.08	19814.10
490.29	19898.06
490.49	20397.77
490.70	20383.43
490.90	20397.77
491.11	20154.06
491.32	20469.45
491.52	20399.82
491.73	20381.38
491.94	20696.77
492.14	20604.61
492.35	20823.75
492.55	20958.91
492.76	21081.79
492.97	21315.26
493.17	21278.40
493.38	21628.60
493.58	21671.61
493.79	21780.15
494.00	21286.59
494.20	21747.38
494.41	21763.76
494.61	21948.08
494.82	21679.80
495.02	22056.62
495.23	22193.84
495.44	22218.41
495.64	22132.40
495.85	22556.33
496.05	22601.38
496.26	22378.15
496.47	22730.41
496.67	22711.97
496.88	22832.80
497.08	22769.32
497.29	22955.68
497.49	22906.53
497.70	23074.46
497.91	23162.53
498.11	23125.66
498.32	23322.27
498.52	23529.11
498.73	23895.70
498.93	23758.49
499.14	23781.01
499.34	23932.56
499.55	24096.40
499.76	23711.38
499.96	23940.75
500.17	23854.74
500.37	24286.86
500.58	24211.09
500.78	24127.12
500.99	24170.13
501.19	24549.00
501.40	24456.84
501.60	24278.67
501.81	24594.06
502.02	24626.82
502.22	24764.04
502.43	24893.06
502.63	25222.78
502.84	25208.45
503.04	25071.23
503.25	25132.67
503.45	25427.58
503.66	25527.93
503.86	25331.33
504.07	25677.43
504.27	25323.13
504.48	26046.07
504.68	25572.99
504.89	26109.55
505.09	25675.38
505.30	25798.26
505.50	26107.51
505.71	26005.11
505.91	26220.14
506.12	25853.56
506.32	26203.76
506.53	26300.01
506.73	26334.83
506.94	26441.32
507.14	26451.56
507.35	26711.66
507.55	26705.51
507.76	26461.80
507.96	26715.75
508.17	26967.65
508.37	26859.11
508.58	26979.94
508.78	26936.93
508.99	27063.91
509.19	27098.72
509.40	27289.18
509.60	27264.61
509.81	27287.14
510.01	27016.80
510.22	27233.89
510.42	27590.24
510.63	27588.19
510.83	27401.82
511.04	27678.30
511.24	27756.12
511.44	27655.77
511.65	27528.80
511.85	27803.22
512.06	28001.88
512.26	28012.12
512.47	28053.08
512.67	27907.67
512.88	28132.95
513.08	28038.74
513.29	28477.01
513.49	28409.42
513.69	28192.34
513.90	28384.85
514.10	28429.90
514.31	28583.50
514.51	28405.33
514.72	28698.19
514.92	28501.58
515.13	28671.56
515.33	28905.03
515.53	28964.42
515.74	28712.52
515.94	29292.10
516.15	28855.88
516.35	29001.29
516.56	29044.29
516.76	28806.73
516.96	29296.19
517.17	29472.32
517.37	29314.62
517.58	29451.84
517.78	29404.74
517.99	29535.81
518.19	29847.10
518.39	29906.49
518.60	30025.27
518.80	29787.71
519.01	29869.62
519.21	29826.62
519.41	30447.15
519.62	30068.28
519.82	30369.33
520.03	30017.08
520.23	30254.64
520.43	30283.31
520.64	30289.46
520.84	30518.83
521.05	30334.51
521.25	30772.78
521.45	30666.28
521.66	31133.22
521.86	31016.49
522.07	30764.59
522.27	30914.09
522.47	30844.46
522.68	31487.52
522.88	31268.39
523.08	31624.73
523.29	31362.59
523.49	31677.98
523.70	31610.40
523.90	31782.43
524.10	31620.64
524.31	31854.11
524.51	31876.63
524.71	32058.90
524.92	31893.02
525.12	32093.72
525.33	32097.81
525.53	32370.19
525.73	32738.83
525.94	32548.37
526.14	32429.59
526.34	32679.44
526.55	32826.89
526.75	32677.39
526.95	32935.43
527.16	33009.16
527.36	32908.81
527.56	33402.37
527.77	33349.12
527.97	33363.46
528.17	33302.02
528.38	33537.54
528.58	33410.56
528.78	33541.63
528.99	33738.24
529.19	34065.91
529.39	33400.32
529.60	34213.37
529.80	33742.33
530.00	34256.37
530.21	34258.42
530.41	35069.42
530.61	34258.42
530.82	34721.26
531.02	34784.75
531.22	34551.28
531.43	34854.38
531.63	34858.48
531.83	35491.30
532.04	35638.75
532.24	35053.03
532.44	35137.00
532.64	35167.72
532.85	35579.36
533.05	35511.78
533.25	35530.21
533.46	35511.78
533.66	36208.09
533.86	35716.58
534.07	36257.24
534.27	36160.98
534.47	36062.68
534.67	36441.56
534.88	36273.62
535.08	36244.95
535.28	36888.01
535.49	36990.41
535.69	36842.96
535.89	37197.26
536.09	36707.79
536.30	37158.34
536.50	36855.25
536.70	37262.79
536.91	37574.08
537.11	37287.37
537.31	37387.72
537.51	37531.08
537.72	37862.85
537.92	38100.41
538.12	38018.49
538.32	38221.24
538.53	38415.80
538.73	37942.72
538.93	38014.40
539.13	38319.54
539.34	38141.37
539.54	37973.44
539.74	38612.40
539.94	38434.23
540.15	38475.19
540.35	38880.69
540.55	38835.63
540.75	38708.66
540.96	39230.89
541.16	39198.12
541.36	39529.89
541.56	39138.73
541.77	39726.50
541.97	39722.40
542.17	39794.08
542.37	39941.53
542.58	39812.51
542.78	39876.00
542.98	39546.28
543.18	39814.56
543.38	39771.55
543.59	40379.80
543.79	39722.40
543.99	40002.97
544.19	40107.42
544.40	40238.49
544.60	40514.97
544.80	40617.36
545.00	40175.00
545.20	40852.88
545.41	40693.14
545.61	40514.97
545.81	40885.65
546.01	40654.23
546.21	40783.25
546.42	40830.35
546.62	40852.88
546.82	40818.07
547.02	41137.55
547.22	41438.60
547.43	40936.85
547.63	41479.56
547.83	41465.22
548.03	41323.91
548.23	41483.66
548.44	41344.39
548.64	41866.63
548.84	41686.40
549.04	41432.46
549.24	42282.36
549.45	41987.46
549.65	41899.39
549.85	42038.65
550.05	41796.99
550.25	42014.08
550.45	42634.61
550.66	42237.31
550.86	42167.68
551.06	42415.48
551.26	42702.20
551.46	42294.65
551.66	42452.34
551.87	42317.18
552.07	42431.86
552.27	42763.64
552.47	42567.03
552.67	43023.73
552.87	43052.40
553.07	42747.25
553.28	43218.28
553.48	43353.45
553.68	43132.27
553.88	43470.18
554.08	42892.66
554.28	43171.18
554.48	43406.70
554.69	43648.36
554.89	43664.74
555.09	43791.72
555.29	42990.96
555.49	43672.93
555.69	43717.99
555.89	43709.80
556.10	43521.38
556.30	43523.43
556.50	43967.84
556.70	43513.19
556.90	43472.23
557.10	43910.50
557.30	43801.96
557.50	44268.89
557.70	44397.91
557.91	44369.24
558.11	44166.49
558.31	44281.18
558.51	44129.63
558.71	44332.38
558.91	44234.08
559.11	44354.91
559.31	44619.10
559.51	44174.69
559.72	43986.27
559.92	44590.42
560.12	44496.22
560.32	44516.70
560.52	44375.39
560.72	44287.32
560.92	44748.12
561.12	44713.30
561.32	45102.42
561.52	44504.41
561.72	44516.70
561.93	44733.78
562.13	44862.80
562.33	45008.21
562.53	45387.08
562.73	44787.03
562.93	44848.47
563.13	45366.60
563.33	44721.49
563.53	45192.53
563.73	45167.95
563.93	45229.39
564.13	45532.49
564.33	45161.81
564.53	45157.71
564.74	45907.27
564.94	45141.33
565.14	45811.01
565.34	45274.45
565.54	45632.84
565.74	45628.74
565.94	45696.33
566.14	45665.61
566.34	45411.66
566.54	46134.59
566.74	45792.58
566.94	45899.08
567.14	45696.33
567.34	46112.06
567.54	46191.94
567.74	46296.38
567.94	46011.71
568.14	46284.09
568.34	46232.89
568.54	45796.68
568.74	46435.64
568.94	46101.82
569.14	46159.17
569.34	46497.08
569.54	46615.86
569.75	46110.02
569.95	46374.20
570.15	46818.61
570.35	46882.10
570.55	46986.55
570.75	46771.51
570.95	46597.43
571.15	46695.74
571.35	46456.12
571.55	46970.16
571.75	46705.98
571.95	47322.41
572.15	46931.25
572.35	47326.51
572.55	46867.76
572.75	47383.85
572.95	47512.88
573.15	47009.07
573.35	47199.54
573.55	47416.62
573.75	46904.63
573.95	47633.71
574.15	47248.69
574.35	47418.67
574.55	47613.23
574.75	47242.54
574.95	47877.41
575.15	47826.21
575.34	47459.63
575.54	47568.17
575.74	47953.19
575.94	47641.90
576.14	47420.72
576.34	48203.04
576.54	48160.03
576.74	48436.51
576.94	48200.99
577.14	48319.77
577.34	48622.87
577.54	47904.04
577.74	48362.78
577.94	48600.35
578.14	48401.69
578.34	48289.06
578.54	48135.46
578.74	48293.15
578.94	48784.66
579.14	48184.61
579.34	48862.49
579.54	48614.68
579.74	49175.83
579.94	48586.01
580.13	49108.24
580.33	48692.50
580.53	49108.24
580.73	48862.49
580.93	48948.50
581.13	48794.90
581.33	49126.67
581.53	49249.55
581.73	49480.97
581.93	49050.90
582.13	49456.40
582.33	49796.36
582.53	49913.09
582.73	49591.56
582.92	49757.45
583.12	49665.29
583.32	49691.91
583.52	49272.08
583.72	49806.60
583.92	49870.09
584.12	49843.46
584.32	50719.99
584.52	50279.68
584.72	49622.28
584.92	50119.94
585.11	50406.65
585.31	49999.11
585.51	50466.05
585.71	50767.10
585.91	50492.67
586.11	50367.74
586.31	50167.04
586.51	50271.49
586.71	50763.00
586.91	50777.34
587.10	50992.37
587.30	50791.67
587.50	50668.79
587.70	50867.45
587.90	50648.32
588.10	51045.62
588.30	50824.44
588.50	51217.65
588.69	51029.24
588.89	51303.67
589.09	51234.03
589.29	51342.58
589.49	51965.16
589.69	51184.88
589.89	51666.16
590.08	51340.53
590.28	51324.14
590.48	51729.64
590.68	51602.67
590.88	51862.76
591.08	51750.12
591.28	51666.16
591.47	51868.90
591.67	51668.20
591.87	51442.93
592.07	51899.62
592.27	52313.31
592.47	51801.32
592.67	52012.26
592.86	51709.16
593.06	51850.47
593.26	52229.35
593.46	52190.44
593.66	52272.35
593.86	52387.04
594.05	52108.52
594.25	52638.94
594.45	52098.28
594.65	52536.54
594.85	52399.33
595.05	52475.10
595.24	52735.20
595.44	52563.17
595.64	52597.98
595.84	52815.07
596.04	52749.53
596.23	52872.41
596.43	53327.06
596.63	52665.56
596.83	53050.58
597.03	53241.04
597.22	53253.33
597.42	52929.75
597.62	53353.68
597.82	53343.44
598.02	53361.87
598.21	53384.40
598.41	53376.21
598.61	53615.82
598.81	53630.16
599.01	53540.05
599.20	53279.96
599.40	53585.10
599.60	53812.43
599.80	53613.77
600.00	53621.97
600.19	53900.49
600.39	53566.67
600.59	54394.05
600.79	53916.87
600.98	54236.36
601.18	54451.39
601.38	54375.62
601.58	54486.21
601.78	54652.09
601.97	54402.24
602.17	55149.75
602.37	54367.43
602.57	54412.48
602.76	54592.70
602.96	54402.24
603.16	55102.65
603.36	54580.42
603.55	54645.95
603.75	55440.56
603.95	55055.54
604.15	55047.35
604.34	54721.72
604.54	55405.75
604.74	55368.88
604.94	55526.58
605.13	55747.76
605.33	55604.40
605.53	55325.88
605.73	55420.08
605.92	55561.39
606.12	55358.64
606.32	55878.83
606.52	55440.56
606.71	55442.61
606.91	55747.76
607.11	55536.82
607.30	55809.20
607.50	55989.42
607.70	55858.35
607.90	55733.42
608.09	55882.92
608.29	56091.82
608.49	56226.98
608.68	55764.14
608.88	56005.80
609.08	56220.84
609.28	56183.97
609.47	56005.80
609.67	56306.85
609.87	56112.30
610.06	56247.46
610.26	56485.03
610.46	56143.02
610.66	56399.01
610.85	56116.39
611.05	56208.55
611.25	56560.80
611.44	56566.94
611.64	56917.15
611.84	56036.52
612.03	56286.37
612.23	56777.89
612.43	56747.17
612.62	56368.29
612.82	56517.79
613.02	56589.47
613.21	56831.13
613.41	56147.11
613.61	56800.41
613.80	56665.25
614.00	57005.21
614.20	56747.17
614.39	56599.71
614.59	56829.08
614.79	56657.06
614.98	56870.04
615.18	56657.06
615.38	56513.70
615.57	56157.35
615.77	57466.00
615.97	56935.58
616.16	57191.58
616.36	56458.40
616.56	57345.17
616.75	57429.14
616.95	56806.56
617.15	56874.14
617.34	56609.95
617.54	56984.73
617.74	57164.95
617.93	57136.28
618.13	56665.25
618.32	56497.31
618.52	56636.58
618.72	56767.65
618.91	57201.82
619.11	56949.92
619.31	56800.41
619.50	56945.82
619.70	56480.93
619.90	56818.84
620.09	57042.07
620.29	56886.43
620.48	56874.14
620.68	57048.22
620.88	56759.45
621.07	56874.14
621.27	56943.77
621.46	56894.62
621.66	56716.45
621.86	56550.56
622.05	56132.78
622.25	57623.70
622.44	56763.55
622.64	56485.03
622.84	56718.49
623.03	56151.21
623.23	56896.67
623.42	56616.10
623.62	56687.78
623.82	57441.43
624.01	56648.86
624.21	57054.36
624.40	56806.56
624.60	56714.40
624.80	56665.25
624.99	56734.88
625.19	56550.56
625.38	56454.31
625.58	56847.52
625.77	56890.52
625.97	56616.10
626.17	56628.38
626.36	56804.51
626.56	56931.48
626.75	56136.87
626.95	57103.51
627.14	56951.96
627.34	57162.90
627.54	56607.90
627.73	56792.22
627.93	56935.58
628.12	56892.57
628.32	56687.78
628.51	57087.13
628.71	56634.53
628.90	57076.89
629.10	56597.66
629.30	56775.84
629.49	56755.36
629.69	57070.75
629.88	57134.23
630.08	57339.03
630.27	57144.47
630.47	56974.49
630.66	56798.37
630.86	56933.53
631.05	57078.94
631.25	57255.06
631.44	57089.18
631.64	56822.94
631.84	57259.16
632.03	57515.15
632.23	57070.75
632.42	57062.55
632.62	56648.86
632.81	56818.84
633.01	56833.18
633.20	56861.85
633.40	57197.72
633.59	57300.12
633.79	56876.19
633.98	57210.01
634.18	57275.54
634.37	57095.32
634.57	57179.29
634.76	57334.93
634.96	57373.84
635.15	57398.42
635.35	56915.10
635.54	57093.27
635.74	57201.82
635.93	57083.03
636.13	57109.66
636.32	57554.07
636.52	56966.30
636.71	57396.37
636.91	57050.27
637.10	57662.61
637.30	57083.03
637.49	57222.29
637.69	57119.90
637.88	57722.00
638.08	57062.55
638.27	57402.52
638.46	57699.47
638.66	57201.82
638.85	57490.58
639.05	57431.19
639.24	57638.03
639.44	57484.43
639.63	57603.22
639.83	57425.04
640.02	57406.61
640.22	57107.61
640.41	57846.93
640.61	56997.02
640.80	57609.36
640.99	57341.08
641.19	57902.22
641.38	57513.11
641.58	56978.59
641.77	57400.47
641.97	57357.46
642.16	57484.43
642.36	57846.93
642.55	57994.38
642.74	57418.90
642.94	58383.49
643.13	57490.58
643.33	58072.20
643.52	58180.74
643.72	57824.40
643.91	57566.35
644.10	57789.58
644.30	58123.40
644.49	58061.96
644.69	58061.96
644.88	58070.15
645.08	57883.79
645.27	58309.77
645.46	57623.70
645.66	58053.77
645.85	57588.88
646.05	58047.63
646.24	58272.90
646.43	58064.01
646.63	57926.80
646.82	58283.14
647.02	57885.84
647.21	58459.27
647.40	57877.64
647.60	58291.33
647.79	58072.20
647.99	58252.42
648.18	57578.64
648.37	58389.64
648.57	58563.71
648.76	58518.66
648.96	58309.77
649.15	58299.53
649.34	59153.53
649.54	58373.25
649.73	58664.06
649.92	58373.25
650.12	58500.23
650.31	58684.54
650.51	58487.94
650.70	59087.99
650.89	58344.58
651.09	58893.44
651.28	58586.24
651.47	58918.01
651.67	58887.29
651.86	58657.92
652.06	58113.16
652.25	58754.18
652.44	58786.94
652.64	58367.11
652.83	58381.45
653.02	58246.28
653.22	58397.83
653.41	58154.12
653.60	58772.61
653.80	58496.13
653.99	58858.62
654.18	58709.12
654.38	58420.36
654.57	58700.93
654.76	58489.99
654.96	58455.17
655.15	58766.46
655.34	58324.10
655.54	58172.55
655.73	58590.34
655.92	58961.02
656.12	58500.23
656.31	58801.28
656.50	58481.80
656.70	58737.79
656.89	58889.34
657.08	59004.03
657.28	58506.37
657.47	58602.63
657.66	59049.08
657.86	58883.20
658.05	58690.69
658.24	58731.65
658.43	58504.32
658.63	58848.38
658.82	59065.47
659.01	59118.71
659.21	59274.36
659.40	59100.28
659.59	58446.98
659.79	59077.75
659.98	59274.36
660.17	59122.81
660.36	59360.37
660.56	59094.14
660.75	58897.53
660.94	58819.71
661.14	58958.97
661.33	58766.46
661.52	58922.11
661.71	59190.39
661.91	58852.48
662.10	58762.37
662.29	59499.64
662.49	58713.22
662.68	58729.60
662.87	59485.30
663.06	58840.19
663.26	58995.84
663.45	59219.06
663.64	58875.01
663.83	59110.52
664.03	59053.18
664.22	59165.82
664.41	58975.36
664.60	58594.43
664.80	58827.90
664.99	58709.12
665.18	58752.13
665.37	58995.84
665.57	59026.56
665.76	58594.43
665.95	58680.45
666.14	58825.85
666.34	58725.50
666.53	58629.25
666.72	58717.31
666.91	58954.88
667.11	58954.88
667.30	58922.11
667.49	59212.92
667.68	58516.61
667.87	59055.23
668.07	59401.33
668.26	58918.01
668.45	58571.91
668.64	58578.05
668.84	59536.50
669.03	59151.48
669.22	58782.85
669.41	59069.56
669.60	59071.61
669.80	58832.00
669.99	58932.35
670.18	58721.41
670.37	58854.53
670.57	59444.34
670.76	58840.19
670.95	59184.25
671.14	59276.41
671.33	58643.59
671.53	59364.47
671.72	58705.02
671.91	58543.23
672.10	58913.92
672.29	58283.14
672.48	58635.39
672.68	59290.74
672.87	58596.48
673.06	58477.70
673.25	58559.62
673.44	58793.09
673.64	58805.37
673.83	58733.70
674.02	58807.42
674.21	58422.40
674.40	59149.43
674.59	58684.54
674.79	58766.46
674.98	58406.02
675.17	58832.00
675.36	58692.74
675.55	58741.89
675.74	58621.06
675.94	58573.95
676.13	58569.86
676.32	58952.83
676.51	59131.00
676.70	58754.18
676.89	58975.36
677.08	58748.03
677.28	58436.74
677.47	59128.95
677.66	59315.32
677.85	59014.27
678.04	59343.99
678.23	59323.51
678.42	58934.40
678.62	58375.30
678.81	58913.92
679.00	58516.61
679.19	59020.41
679.38	58483.84
679.57	59372.66
679.76	58719.36
679.96	58793.09
680.15	58844.29
680.34	58682.50
680.53	58350.73
680.72	58723.46
680.91	58860.67
681.10	58881.15
681.29	59102.33
681.48	58496.13
681.68	58334.34
681.87	58725.50
682.06	58487.94
682.25	57801.87
682.44	58547.33
682.63	58844.29
682.82	58537.09
683.01	58989.69
683.20	58258.57
683.39	58209.42
683.59	58500.23
683.78	58489.99
683.97	58070.15
684.16	58190.98
684.35	57660.56
684.54	57955.47
684.73	57930.89
684.92	58373.25
685.11	58401.92
685.30	58088.59
685.49	58274.95
685.69	57717.90
685.88	58352.77
686.07	57844.88
686.26	58025.10
686.45	57816.21
686.64	57662.61
686.83	57791.63
687.02	57578.64
687.21	57990.28
687.40	58145.93
687.59	58037.39
687.78	57595.03
687.97	57779.34
688.16	57750.67
688.35	58307.72
688.54	57439.38
688.74	57853.07
688.93	57885.84
689.12	57578.64
689.31	57683.09
689.50	57871.50
689.69	57625.74
689.88	57314.45
690.07	57773.20
690.26	57431.19
690.45	57990.28
690.64	57687.18
690.83	57324.69
691.02	57146.52
691.21	57203.86
691.40	57160.86
691.59	57474.20
691.78	57705.62
691.97	57349.27
692.16	57447.57
692.35	57554.07
692.54	57293.97
692.73	57316.50
692.92	57576.59
693.11	57156.76
693.30	57033.88
693.49	57447.57
693.68	57130.14
693.87	57093.27
694.06	56884.38
694.25	57220.25
694.44	56687.78
694.63	57011.35
694.82	57373.84
695.01	56534.18
695.20	56986.78
695.39	56771.74
695.58	56753.31
695.77	56523.94
695.96	56505.51
696.15	56882.33
696.34	56558.75
696.53	56878.24
696.72	57005.21
696.91	56493.22
697.10	56964.25
697.29	56452.26
697.48	56978.59
697.67	56677.54
697.86	56059.05
698.05	56218.79
698.24	56726.69
698.43	56300.71
698.62	56358.05
698.81	56026.28
699.00	56798.37
699.19	55678.13
699.38	56179.88
699.57	55825.58
699.76	56908.96
699.95	55956.65
700.14	55772.33
700.32	56224.93
700.51	56269.99
700.70	56761.50
700.89	56179.88
701.08	56179.88
701.27	55973.03
701.46	56104.10
701.65	55649.45
701.84	56249.51
702.03	56317.09
702.22	55688.37
702.41	56263.85
702.60	55719.09
702.79	55964.84
702.98	55682.22
703.17	56229.03
703.35	55620.78
703.54	55678.13
703.73	55936.17
703.92	55473.33
704.11	55479.47
704.30	55956.65
704.49	55571.63
704.68	55418.03
704.87	55852.20
705.06	55450.80
705.25	55596.21
705.43	55219.38
705.62	55714.99
705.81	55309.49
706.00	55362.74
706.19	54840.51
706.38	55231.67
706.57	55137.46
706.76	55059.64
706.95	55129.27
707.14	55006.39
707.32	54762.68
707.51	54641.85
707.70	54801.60
707.89	54975.67
708.08	54602.94
708.27	54957.24
708.46	55248.05
708.65	54695.10
708.84	55098.55
709.02	54674.62
709.21	54971.58
709.40	54949.05
709.59	55043.26
709.78	54719.68
709.97	54772.92
710.16	54291.65
710.34	54160.58
710.53	54508.74
710.72	54154.44
710.91	54600.89
711.10	54555.84
711.29	54850.75
711.48	54621.37
711.66	54162.63
711.85	54432.96
712.04	54250.69
712.23	54209.73
712.42	54504.64
712.61	54248.64
712.80	54203.59
712.98	54596.80
713.17	53935.30
713.36	54156.49
713.55	54109.38
713.74	53785.80
713.93	53869.77
714.11	53994.70
714.30	53896.39
714.49	53802.19
714.68	54131.91
714.87	53777.61
715.06	54232.26
715.24	53656.78
715.43	53640.40
715.62	53546.19
715.81	53538.00
716.00	53599.44
716.18	53843.15
716.37	53112.02
716.56	53556.43
716.75	53621.97
716.94	53112.02
717.12	53077.21
717.31	53740.75
717.50	53583.05
717.69	53173.46
717.88	53445.84
718.06	53056.73
718.25	53365.97
718.44	52827.35
718.63	53388.50
718.82	52491.49
719.00	53017.82
719.19	53157.08
719.38	52421.86
719.57	52389.09
719.76	52309.22
719.94	52663.52
720.13	52335.84
720.32	52450.53
720.51	52241.63
720.69	52327.65
720.88	52505.82
721.07	52069.61
721.26	51936.49
721.44	52237.54
721.63	52163.81
721.82	51770.60
722.01	52303.07
722.20	51975.40
722.38	51547.37
722.57	51387.63
722.76	51743.98
722.95	51393.78
723.13	51125.49
723.32	51483.89
723.51	51623.15
723.70	51543.28
723.88	51324.14
724.07	51066.10
724.26	51358.96
724.44	50695.42
724.63	50703.61
724.82	51070.20
725.01	51062.00
725.19	50889.98
725.38	50844.92
725.57	50738.43
725.76	51332.34
725.94	50889.98
726.13	50988.28
726.32	50838.78
726.51	50590.97
726.69	51070.20
726.88	50617.60
727.07	50806.01
727.25	50554.11
727.44	50752.76
727.63	50822.39
727.82	50765.05
728.00	50765.05
728.19	50779.39
728.38	51025.14
728.56	50560.25
728.75	50937.08
728.94	50689.27
729.12	51025.14
729.31	51150.07
729.50	50412.80
729.69	50482.43
729.87	50556.16
730.06	50099.46
730.25	50507.01
730.43	50959.61
730.62	50396.42
730.81	50740.47
730.99	50539.77
731.18	50611.45
731.37	50453.76
731.55	50468.09
731.74	50423.04
731.93	50701.56
732.11	50402.56
732.30	50711.80
732.49	50164.99
732.67	50754.81
732.86	50291.97
733.05	50326.78
733.23	50300.16
733.42	50156.80
733.61	50521.34
733.79	50283.78
733.98	50588.92
734.17	50298.11
734.35	50009.35
734.54	50087.17
734.73	50420.99
734.91	50019.59
735.10	49736.97
735.29	50078.98
735.47	49716.49
735.66	49771.78
735.84	50054.40
736.03	49857.80
736.22	49865.99
736.40	49681.67
736.59	49765.64
736.78	49822.98
736.96	49820.94
737.15	49495.31
737.33	49691.91
737.52	49999.11
737.71	49442.06
737.89	50007.30
738.08	49409.29
738.27	49306.90
738.45	49919.24
738.64	49700.11
738.82	49564.94
739.01	49274.13
739.20	49822.98
739.38	49321.23
739.57	49718.54
739.75	49339.66
739.94	49276.18
740.13	49224.98
740.31	49343.76
740.50	49454.35
740.68	49720.59
740.87	49470.73
741.06	49403.15
741.24	49151.25
741.43	48885.01
741.61	49458.45
741.80	48700.70
741.99	49198.35
742.17	49341.71
742.36	48891.16
742.54	48788.76
742.73	49460.49
742.91	49368.33
743.10	49143.06
743.29	49380.62
743.47	49059.09
743.66	48731.42
743.84	49014.04
744.03	48559.39
744.21	48452.89
744.40	49138.96
744.59	48692.50
744.77	48403.74
744.96	48968.98
745.14	48805.14
745.33	48694.55
745.51	48076.07
745.70	48510.24
745.88	48475.42
746.07	48225.57
746.26	48330.01
746.44	48608.54
746.63	48559.39
746.81	48350.49
747.00	47691.05
747.18	48223.52
747.37	48526.62
747.55	47842.60
747.74	48571.67
747.92	47920.42
748.11	48123.17
748.29	47910.18
748.48	48553.24
748.66	47891.75
748.85	48395.55
749.03	48325.92
749.22	47990.05
749.41	47670.57
749.59	48166.18
749.78	47539.50
749.96	47349.04
750.15	47682.86
750.33	47830.31
750.52	47854.89
750.70	47430.96
750.89	47535.40
751.07	47242.54
751.26	47824.17
751.44	47656.23
751.63	47775.02
751.81	47181.10
752.00	47422.76
752.18	47498.54
752.37	47349.04
752.55	47478.06
752.74	47815.97
752.92	47136.05
753.10	47084.85
753.29	47211.82
753.47	47351.09
753.66	46644.54
753.84	47625.51
754.03	47142.19
754.21	46900.53
754.40	47418.67
754.58	46951.73
754.77	46923.06
754.95	46560.57
755.14	46791.99
755.32	47072.56
755.51	46517.56
755.69	46771.51
755.88	46675.26
756.06	46755.13
756.24	46945.59
756.43	46492.99
756.61	46390.59
756.80	46435.64
756.98	45954.37
757.17	46462.27
757.35	46316.86
757.54	46120.26
757.72	46167.36
757.90	46230.85
758.09	46286.14
758.27	45946.18
758.46	46046.53
758.64	46257.47
758.83	45991.23
759.01	46372.16
759.19	45577.54
759.38	45806.92
759.56	46007.62
759.75	45901.12
759.93	45856.07
760.12	45765.96
760.30	45749.57
760.48	45733.19
760.67	45419.85
760.85	45765.96
761.04	45989.19
761.22	45702.47
761.40	45509.96
761.59	45712.71
761.77	45768.01
761.96	45520.20
762.14	45393.23
762.32	45389.13
762.51	45145.42
762.69	45190.48
762.88	45000.02
763.06	45587.78
763.24	44946.77
763.43	44860.76
763.61	44993.87
763.80	45045.07
763.98	44791.12
764.16	44741.97
764.35	44651.86
764.53	44438.87
764.72	44528.98
764.90	44793.17
765.08	44799.32
765.27	44674.39
765.45	44096.86
765.63	43836.77
765.82	44533.08
766.00	44182.88
766.18	44272.99
766.37	44488.03
766.55	44234.08
766.74	43965.79
766.92	44045.66
767.10	43898.21
767.29	43906.40
767.47	43879.78
767.65	44064.10
767.84	43468.14
768.02	43857.25
768.20	43232.62
768.39	44033.38
768.57	43529.58
768.75	43695.46
768.94	43726.18
769.12	43472.23
769.30	43287.92
769.49	43691.37
769.67	43070.83
769.85	42993.01
770.04	43392.36
770.22	43054.45
770.40	43404.65
770.59	43275.63
770.77	43345.26
770.95	43242.86
771.14	43124.08
771.32	42706.29
771.50	42526.07
771.69	42706.29
771.87	43240.81
772.05	42886.51
772.24	42499.45
772.42	43134.32
772.60	42988.91
772.78	42564.98
772.97	42524.02
773.15	43208.04
773.33	42472.82
773.52	42431.86
773.70	42638.71
773.88	42677.62
774.07	42734.96
774.25	42265.98
774.43	42694.00
774.61	42509.69
774.80	42919.28
774.98	42597.75
775.16	42671.48
775.34	42980.72
775.53	42509.69
775.71	42530.17
775.89	42704.24
776.08	42657.14
776.26	42362.23
776.44	42587.51
776.62	42632.57
776.81	42460.54
776.99	42591.61
777.17	42708.34
777.35	42718.58
777.54	43066.73
777.72	42184.06
777.90	42585.46
778.08	42915.19
778.27	42452.34
778.45	43249.00
778.63	42878.32
778.81	42900.85
779.00	42995.06
779.18	42827.12
779.36	43242.86
779.54	42282.36
779.73	42911.09
779.91	43007.34
780.09	42816.88
780.27	43165.04
780.46	43371.88
780.64	43652.45
780.82	43390.31
781.00	42927.47
781.19	43451.75
781.37	43287.92
781.55	43302.25
781.73	43437.42
781.91	43347.31
782.10	43613.54
782.28	43378.03
782.46	43341.16
782.64	43674.98
782.82	43685.22
783.01	43646.31
783.19	43226.48
783.37	43472.23
783.55	43146.61
783.74	43570.54
783.92	43271.53
784.10	43881.83
784.28	43859.30
784.46	43660.65
784.64	43017.58
784.83	43713.89
785.01	43777.38
785.19	43328.87
785.37	43478.38
785.55	43580.78
785.74	43599.21
785.92	43036.02
786.10	43617.64
786.28	43144.56
786.46	43099.50
786.64	42773.88
786.83	43474.28
787.01	43081.07
787.19	43277.68
787.37	43302.25
787.55	43152.75
787.74	42562.93
787.92	42390.91
788.10	42853.75
788.28	42640.76
788.46	42784.12
788.64	42759.54
788.82	43036.02
789.01	42966.38
789.19	42624.37
789.37	42419.58
789.55	42640.76
789.73	42165.63
789.91	42429.82
790.09	42288.51
790.28	42151.29
790.46	41477.51
790.64	42489.21
790.82	41909.63
791.00	41786.75
791.18	41837.95
791.36	42075.52
791.55	42081.66
791.73	41514.37
791.91	41338.25
792.09	41807.23
792.27	41194.89
792.45	41325.96
792.63	41864.58
792.81	41794.95
793.00	41221.52
793.18	41399.69
793.36	41256.33
793.54	40961.42
793.72	40889.74
793.90	40918.42
794.08	40646.04
794.26	40762.77
794.44	40175.00
794.62	40240.54
794.81	40707.47
794.99	40412.57
795.17	40394.14
795.35	40369.56
795.53	40222.11
795.71	40248.73
795.89	39937.44
796.07	39804.32
796.25	39906.72
796.43	39611.81
796.61	39400.87
796.80	39519.65
796.98	39228.84
797.16	39144.87
797.34	39306.66
797.52	39466.41
797.70	39409.06
797.88	39187.88
798.06	38753.71
798.24	39257.51
798.42	38776.24
798.60	38733.23
798.78	38712.75
798.96	38516.15
799.14	38219.19
799.32	38624.69
799.51	38100.41
799.69	38776.24
799.87	38368.69
800.05	38069.69
800.23	38272.44
800.41	37791.17
800.59	38036.92
800.77	37451.20
800.95	37418.44
801.13	37590.47
801.31	37535.17
801.49	37506.50
801.67	37191.11
801.85	37166.54
802.03	36953.55
802.21	36984.27
802.39	37074.38
802.57	36859.34
802.75	36758.99
802.93	36783.57
803.11	36758.99
803.29	36746.70
803.47	36414.93
803.65	36683.22
803.83	36163.03
804.01	36570.58
804.19	36179.42
804.37	35853.79
804.55	36232.66
804.73	36081.11
804.91	35767.77
805.09	35984.86
805.27	35802.59
805.45	35913.18
805.63	35522.02
805.81	35380.71
805.99	35665.38
806.17	35640.80
806.35	35440.10
806.53	35321.32
806.71	35532.26
806.89	35460.58
807.07	35329.51
807.25	35263.97
807.43	34731.50
807.61	35278.31
807.79	35321.32
807.97	34924.01
808.15	34555.38
808.33	34919.92
808.51	34674.16
808.69	34670.06
808.87	34512.37
809.05	34162.17
809.23	34274.80
809.41	34123.26
809.59	33850.88
809.77	34160.12
809.95	33930.75
810.13	34092.54
810.31	34022.90
810.49	33885.69
810.67	33908.22
810.84	34266.61
811.02	33754.62
811.20	33342.98
811.38	33709.57
811.56	33121.80
811.74	33414.66
811.92	33469.95
812.10	33336.84
812.28	33566.21
812.46	33297.92
812.64	33097.22
812.82	32904.71
813.00	32777.74
813.18	33027.59
813.36	32933.39
813.53	32777.74
813.71	32618.00
813.89	32822.80
814.07	32699.92
814.25	32722.44
814.43	32630.29
814.61	32667.15
814.79	32294.42
814.97	32405.01
815.15	32665.10
815.33	32208.40
815.50	32216.60
815.68	32198.16
815.86	32411.15
816.04	31839.77
816.22	31960.60
816.40	31729.18
816.58	31915.54
816.76	31614.49
816.94	31800.86
817.11	31761.95
817.29	31497.76
817.47	31393.31
817.65	31424.03
817.83	31727.13
818.01	31460.90
818.19	31112.74
818.37	31147.56
818.54	30996.01
818.72	30832.17
818.90	31026.73
819.08	30862.89
819.26	31000.10
819.44	30758.44
819.62	30905.90
819.80	31065.64
819.97	30918.18
820.15	30680.62
820.33	30506.54
820.51	30875.18
820.69	30672.43
820.87	30871.08
821.05	31084.07
821.22	30737.96
821.40	30572.08
821.58	30389.81
821.76	30463.54
821.94	30084.66
822.12	30430.77
822.29	30369.33
822.47	29931.06
822.65	30484.01
822.83	30277.17
823.01	29900.34
823.19	29767.23
823.36	29810.23
823.54	29793.85
823.72	29228.61
823.90	29812.28
824.08	29619.77
824.25	29541.95
824.43	29120.07
824.61	29439.55
824.79	29541.95
824.97	29265.47
825.15	29644.35
825.32	29242.95
825.50	29183.55
825.68	29290.05
825.86	29705.79
826.04	29277.76
826.21	29134.40
826.39	29195.84
826.57	28706.38
826.75	28905.03
826.93	28874.31
827.10	28657.23
827.28	29025.86
827.46	29341.25
827.64	29056.58
827.81	28794.44
827.99	28700.23
828.17	28567.12
828.35	28440.14
828.53	28577.36
828.70	28571.21
828.88	28411.47
829.06	28618.32
829.24	28583.50
829.41	28507.72
829.59	28620.36
829.77	28434.00
829.95	28120.66
830.12	28163.67
830.30	28630.60
830.48	28223.06
830.66	28274.26
830.84	28214.87
831.01	27977.30
831.19	28061.27
831.37	28288.59
831.55	28085.84
831.72	28044.88
831.90	27842.14
832.08	27799.13
832.25	27821.66
832.43	28071.51
832.61	27893.33
832.79	27522.65
832.96	27450.97
833.14	27749.98
833.32	28151.38
833.50	27997.78
833.67	27653.72
833.85	27686.49
834.03	27264.61
834.20	27453.02
834.38	27324.00
834.56	27428.45
834.74	27352.67
834.91	27158.11
835.09	27436.64
835.27	26652.27
835.44	27031.14
835.62	26867.30
835.80	27020.90
835.98	27227.74
836.15	27043.43
836.33	27014.76
836.51	26871.40
836.68	26748.52
836.86	26967.65
837.04	27072.10
837.21	26900.07
837.39	26771.05
837.57	26830.44
837.75	26797.67
837.92	26314.35
838.10	26283.63
838.28	26334.83
838.45	26383.98
838.63	26336.88
838.81	26500.72
838.98	26107.51
839.16	26316.40
839.34	26449.52
839.51	26281.58
839.69	26343.02
839.87	26310.25
840.04	26222.19
840.22	26199.66
840.40	26170.99
840.57	25925.24
840.75	26125.94
840.93	25644.66
841.10	26134.13
841.28	26125.94
841.46	25951.86
841.63	26089.07
841.81	26044.02
841.98	25892.47
842.16	25908.85
842.34	26025.59
842.51	25708.15
842.69	25796.21
842.87	25781.88
843.04	25790.07
843.22	25513.59
843.40	25435.77
843.57	25626.23
843.75	25638.52
843.92	25755.26
844.10	25491.07
844.28	25273.98
844.45	25489.02
844.63	25687.67
844.81	25081.47
844.98	25519.74
845.16	25065.09
845.33	25175.68
845.51	25394.81
845.69	25341.57
845.86	24997.51
846.04	25116.29
846.21	24870.53
846.39	25022.08
846.57	24886.92
846.74	24475.27
846.92	25075.33
847.09	25020.03
847.27	24516.23
847.45	24766.09
847.62	24841.86
847.80	24692.36
847.97	24784.52
848.15	24800.90
848.32	24637.06
848.50	24465.03
848.68	24727.17
848.85	24774.28
849.03	24170.13
849.20	24489.61
849.38	24397.45
849.56	24252.05
849.73	24213.13
849.91	24514.19
850.08	24415.88
850.26	24096.40
850.43	24368.78
850.61	24368.78
850.78	23989.91
850.96	24016.53
851.14	24014.48
851.31	24342.16
851.49	24159.89
851.66	24286.86
851.84	23924.37
852.01	23789.20
852.19	24276.62
852.36	23934.61
852.54	23924.37
852.71	23907.99
852.89	23762.58
853.07	24000.15
853.24	23688.85
853.42	23658.14
853.59	23647.90
853.77	23684.76
853.94	23639.70
854.12	23635.61
854.29	23301.79
854.47	23813.78
854.64	23471.77
854.82	23131.81
854.99	23527.06
855.17	23336.60
855.34	23324.32
855.52	23752.34
855.69	23637.66
855.87	23090.85
856.04	23113.38
856.22	23154.33
856.39	23101.09
856.57	23367.32
856.74	23256.73
856.92	23289.50
857.09	23183.01
857.27	22853.28
857.44	22955.68
857.62	22836.90
857.79	22992.55
857.97	22847.14
858.14	22949.54
858.32	22865.57
858.49	22763.17
858.67	22789.80
858.84	22711.97
859.02	22587.05
859.19	22734.50
859.37	22759.08
859.54	22660.77
859.72	22691.49
859.89	22734.50
860.06	22527.66
860.24	22587.05
860.41	22783.65
860.59	22263.47
860.76	22396.59
860.94	22369.96
861.11	22523.56
861.29	22386.35
861.46	22384.30
861.64	22220.46
861.81	22277.80
861.98	22212.27
862.16	21997.23
862.33	21911.22
862.51	22144.69
862.68	22464.17
862.86	22269.61
863.03	22136.49
863.21	22013.62
863.38	22068.91
863.55	21986.99
863.73	21898.93
863.90	21747.38
864.08	22165.17
864.25	21821.11
864.43	21638.84
864.60	21827.25
864.77	21477.05
864.95	21493.43
865.12	21440.18
865.30	21581.49
865.47	21544.63
865.64	21438.14
865.82	21579.45
865.99	21595.83
866.17	21401.27
866.34	21495.48
866.51	20973.25
866.69	21264.06
866.86	21319.35
867.04	21509.82
867.21	21431.99
867.38	21171.90
867.56	21262.01
867.73	21157.57
867.91	20881.09
868.08	21208.76
868.25	20930.24
868.43	21034.69
868.60	20960.96
868.78	20905.66
868.95	21036.74
869.12	20948.67
869.30	20737.73
869.47	20977.34
869.64	20487.88
869.82	20723.40
869.99	20631.24
870.16	20657.86
870.34	20549.32
870.51	20764.36
870.69	20225.74
870.86	20672.20
871.03	20541.13
871.21	20207.31
871.38	20643.52
871.55	20059.85
871.73	20266.70
871.90	20303.56
872.07	20020.94
872.25	20092.62
872.42	19994.32
872.59	19971.79
872.77	19982.03
872.94	20238.03
873.11	20061.90
873.29	19918.54
873.46	19810.00
873.63	19902.16
873.81	20020.94
873.98	19703.51
874.15	19515.09
874.33	19545.81
874.50	19654.36
874.67	19820.24
874.85	19656.40
875.02	19711.70
875.19	19416.79
875.37	19410.65
875.54	19298.01
875.71	19621.59
875.88	19367.64
876.06	19259.10
876.23	19377.88
876.40	19111.64
876.58	19175.13
876.75	19586.77
876.92	18826.98
877.10	19021.53
877.27	19046.11
877.44	18853.60
877.61	18882.27
877.79	19097.31
877.96	19025.63
878.13	18837.22
878.31	18689.76
878.48	18661.09
878.65	18564.84
878.82	18566.88
879.00	18910.94
879.17	18601.70
879.34	18573.03
879.51	18401.00
879.69	18478.82
879.86	18376.42
880.03	18458.34
880.21	18583.27
880.38	18171.63
880.55	18321.13
880.72	18370.28
880.90	18464.49
881.07	18181.87
881.24	18280.17
881.41	18474.73
881.59	18321.13
881.76	18233.07
881.93	18249.45
882.10	18153.20
882.28	17784.56
882.45	18005.74
882.62	18145.00
882.79	18243.31
882.96	18005.74
883.14	18145.00
883.31	18097.90
883.48	17833.71
883.65	18063.08
883.83	18013.93
884.00	17940.21
884.17	17686.26
884.34	17905.39
884.51	17743.60
884.69	17794.80
884.86	17895.15
885.03	17921.77
885.20	17702.64
885.38	17618.68
885.55	17547.00
885.72	17469.17
885.89	17352.44
886.06	17563.38
886.24	17637.11
886.41	17352.44
886.58	17794.80
886.75	17594.10
886.92	17313.53
887.10	17684.21
887.27	17334.01
887.44	17571.57
887.61	17573.62
887.78	17399.54
887.95	17276.66
888.13	17112.83
888.30	17121.02
888.47	17284.86
888.64	17041.15
888.81	17032.96
888.99	17243.90
889.16	16877.31
889.33	16924.41
889.50	16797.44
889.67	16860.93
889.84	16725.76
890.01	16903.93
890.19	16822.02
890.36	17057.53
890.53	16992.00
890.70	16809.73
890.87	16998.14
891.04	16744.19
891.22	16580.36
891.39	16537.35
891.56	16312.07
891.73	16363.27
891.90	16516.87
892.07	16420.61
892.24	16559.88
892.42	16355.08
892.59	16486.15
892.76	16486.15
892.93	16389.89
893.10	16518.92
893.27	16301.83
893.44	16158.47
893.61	16324.36
893.79	16410.37
893.96	16434.95
894.13	16105.23
894.30	16516.87
894.47	16318.22
894.64	16373.51
894.81	16289.54
894.98	16332.55
895.15	16326.41
895.33	16297.74
895.50	16178.95
895.67	16113.42
895.84	16195.34
896.01	16068.36
896.18	16129.80
896.35	16113.42
896.52	16375.56
896.69	16051.98
896.86	15978.25
897.04	16101.13
897.21	16164.62
897.38	15912.72
897.55	16234.25
897.72	16221.96
897.89	16090.89
898.06	15896.33
898.23	16291.59
898.40	16164.62
898.57	15980.30
898.74	16322.31
898.91	15882.00
899.08	16004.88
899.26	16066.31
899.43	15976.20
899.60	15752.98
899.77	15978.25
899.94	16129.80
900.11	15873.81
900.28	15845.13
900.45	15761.17
900.62	15804.17
900.79	15998.73
900.96	15912.72
901.13	15800.08
901.30	15920.91
901.47	15955.72
901.64	15814.41
901.81	16119.56
901.98	15765.26
902.15	15941.39
902.32	15724.30
902.49	15687.44
902.66	16125.71
902.83	15855.37
903.01	15490.84
903.18	15712.02
903.35	15890.19
903.52	15800.08
903.69	15886.09
903.86	15949.58
904.03	15906.57
904.20	16041.74
904.37	16047.88
904.54	15959.82
904.71	15836.94
904.88	15996.68
905.05	15832.85
905.22	15709.97
905.39	15542.03
905.56	15787.79
905.73	15775.50
905.90	15568.66
906.07	15775.50
906.24	15959.82
906.41	15765.26
906.58	15548.18
906.75	15703.82
906.92	15509.27
907.09	15779.60
907.26	15851.28
907.43	15542.03
907.60	15595.28
907.77	15734.54
907.93	15695.63
908.10	15611.67
908.27	15822.61
908.44	15589.14
908.61	15451.92
908.78	15617.81
908.95	15863.57
909.12	15748.88
909.29	15712.02
909.46	15447.83
909.63	15703.82
909.80	15609.62
909.97	15654.67
910.14	15306.52
910.31	15564.56
910.48	15611.67
910.65	15560.47
910.82	15404.82
910.99	15591.19
911.16	15591.19
911.33	15386.39
911.50	15486.74
911.66	15316.76
911.83	15410.96
912.00	15451.92
912.17	15243.03
912.34	15189.78
912.51	15114.01
912.68	15187.74
912.85	15398.68
913.02	15136.54
913.19	15157.02
913.36	15128.35
913.53	15052.57
913.70	14923.55
913.86	15173.40
914.03	15116.06
914.20	14853.92
914.37	15079.19
914.54	14944.03
914.71	14917.40
914.88	14905.12
915.05	14898.97
915.22	14804.77
915.39	14724.90
915.55	14849.82
915.72	14610.21
915.89	14587.68
916.06	14470.95
916.23	14489.38
916.40	14483.24
916.57	14528.29
916.74	14710.56
916.91	14628.64
917.07	14497.57
917.24	14364.45
917.41	14495.52
917.58	14393.12
917.75	14575.39
917.92	14063.40
918.09	14335.78
918.26	14264.10
918.42	14253.86
918.59	14137.13
918.76	14204.71
918.93	14018.35
919.10	14061.35
919.27	13989.67
919.44	14081.83
919.60	14030.63
919.77	14022.44
919.94	13956.91
920.11	13938.48
920.28	13864.75
920.45	13913.90
920.61	13545.27
920.78	13788.97
920.95	13535.03
921.12	13385.52
921.29	13205.30
921.46	13463.35
921.62	13418.29
921.79	13504.31
921.96	13217.59
922.13	13336.37
922.30	13080.38
922.47	13307.70
922.63	13045.56
922.80	13086.52
922.97	12885.82
923.14	12721.98
923.31	12961.59
923.47	13002.55
923.64	13104.95
923.81	12857.15
923.98	12988.22
924.15	12840.76
924.32	12676.93
924.48	12746.56
924.65	12621.63
924.82	12631.87
924.99	12445.51
925.15	12349.25
925.32	12504.90
925.49	12248.90
925.66	12271.43
925.83	12341.06
925.99	12185.41
926.16	12191.56
926.33	12255.04
926.50	12169.03
926.67	12056.39
926.83	11956.04
927.00	12111.69
927.17	11898.70
927.34	11939.66
927.50	11765.58
927.67	11894.60
927.84	11818.83
928.01	11495.25
928.17	11519.82
928.34	11595.60
928.51	11503.44
928.68	11462.48
928.84	11362.13
929.01	11214.68
929.18	11267.92
929.35	11202.39
929.51	11454.29
929.68	11159.38
929.85	10979.16
930.02	11059.03
930.18	10932.06
930.35	10993.50
930.52	10979.16
930.69	11018.07
930.85	11046.74
931.02	10604.38
931.19	10721.12
931.36	10846.04
931.52	10633.05
931.69	10594.14
931.86	10596.19
932.02	10540.90
932.19	10694.49
932.36	10356.58
932.53	10413.92
932.69	10235.75
932.86	10250.08
933.03	10342.24
933.19	10168.16
933.36	10211.17
933.53	10045.29
933.70	9820.01
933.86	10069.86
934.03	9908.07
934.20	9760.62
934.36	9863.02
934.53	9465.71
934.70	9529.20
934.86	9797.48
935.03	9582.45
935.20	9473.90
935.36	9490.29
935.53	9441.14
935.70	9353.07
935.86	9154.42
936.03	9092.98
936.20	9056.12
936.36	8974.20
936.53	8769.40
936.70	8830.84
936.86	8966.01
937.03	8570.75
937.20	8505.21
937.36	8855.42
937.53	8320.90
937.70	8269.70
937.86	8339.33
938.03	8116.10
938.20	8220.55
938.36	8071.04
938.53	7991.17
938.70	7800.71
938.86	7792.52
939.03	7640.97
939.20	7573.39
939.36	7460.75
939.53	7415.69
939.70	7569.29
939.86	7221.14
940.03	7157.65
940.19	7180.18
940.36	7100.31
940.53	7161.75
940.69	7018.39
940.86	6780.82
941.03	6731.67
941.19	6606.75
941.36	6692.76
941.52	6543.26
941.69	6543.26
941.86	6432.67
942.02	6358.94
942.19	6299.55
942.35	6342.56
942.52	6174.63
942.69	6178.72
942.85	6082.47
943.02	6182.82
943.18	6252.45
943.35	6168.48
943.52	5992.36
943.68	5957.54
943.85	5758.89
944.01	5853.09
944.18	5779.37
944.35	5752.74
944.51	5799.85
944.68	5607.34
944.84	5779.37
945.01	5674.92
945.17	5560.24
945.34	5660.59
945.51	5547.95
945.67	5752.74
945.84	5625.77
946.00	5439.40
946.17	5554.09
946.33	5537.71
946.50	5646.25
946.67	5517.23
946.83	5476.27
947.00	5584.81
947.16	5533.61
947.33	5484.46
947.49	5414.83
947.66	5427.12
947.82	5349.29
947.99	5302.19
948.16	5392.30
948.32	5447.60
948.49	5461.93
948.65	5468.08
948.82	5537.71
948.98	5402.54
949.15	5486.51
949.31	5480.36
949.48	5470.12
949.64	5324.72
949.81	5562.28
949.97	5431.21
950.14	5476.27
950.30	5410.73
950.47	5648.30
950.63	5351.34
950.80	5425.07
950.96	5459.88
951.13	5531.56
951.30	5410.73
951.46	5648.30
951.63	5496.75
951.79	5607.34
951.96	5574.57
952.12	5527.47
952.29	5580.71
952.45	5459.88
952.62	5578.67
952.78	5550.00
952.94	5547.95
953.11	5601.19
953.27	5486.51
953.44	5492.65
953.60	5578.67
953.77	5550.00
953.93	5615.53
954.10	5498.80
954.26	5547.95
954.43	5615.53
954.59	5662.63
954.76	5650.35
954.92	5636.01
955.09	5722.02
955.25	5519.28
955.42	5629.87
955.58	5724.07
955.75	5636.01
955.91	5603.24
956.07	5545.90
956.24	5642.15
956.40	5705.64
956.57	5762.98
956.73	5654.44
956.90	5566.38
957.06	5697.45
957.23	5640.11
957.39	5599.15
957.56	5597.10
957.72	5685.16
957.88	5722.02
958.05	5849.00
958.21	5828.52
958.38	5857.19
958.54	5566.38
958.71	5793.70
958.87	5533.61
959.03	5717.93
959.20	5646.25
959.36	5732.26
959.53	5640.11
959.69	5496.75
959.85	5709.74
960.02	5576.62
960.18	5668.78
960.35	5707.69
960.51	5875.62
960.68	5650.35
960.84	5676.97
961.00	5595.05
961.17	5676.97
961.33	5629.87
961.50	5623.72
961.66	5617.58
961.82	5492.65
961.99	5586.86
962.15	5418.93
962.31	5615.53
962.48	5722.02
962.64	5650.35
962.81	5588.91
962.97	5472.17
963.13	5609.39
963.30	5642.15
963.46	5498.80
963.62	5617.58
963.79	5613.48
963.95	5539.76
964.12	5439.40
964.28	5593.00
964.44	5478.32
964.61	5597.10
964.77	5623.72
964.93	5601.19
965.10	5488.56
965.26	5461.93
965.42	5543.85
965.59	5410.73
965.75	5433.26
965.92	5560.24
966.08	5486.51
966.24	5613.48
966.41	5517.23
966.57	5611.43
966.73	5529.52
966.90	5521.32
967.06	5390.25
967.22	5564.33
967.39	5474.22
967.55	5463.98
967.71	5392.30
967.88	5230.51
968.04	5388.21
968.20	5394.35
968.37	5347.25
968.53	5228.46
968.69	5332.91
968.85	5449.64
969.02	5400.49
969.18	5289.90
969.34	5425.07
969.51	5296.05
969.67	5314.48
969.83	5261.23
970.00	5291.95
970.16	5257.14
970.32	5259.18
970.48	5410.73
970.65	5261.23
970.81	5294.00
970.97	5257.14
971.14	5193.65
971.30	5277.62
971.46	5197.74
971.63	5058.48
971.79	5205.94
971.95	5097.39
972.11	5115.83
972.28	5183.41
972.44	5203.89
972.60	5095.35
972.76	5296.05
972.93	5107.63
973.09	5246.90
973.25	5029.81
973.42	5011.38
973.58	5142.45
973.74	5050.29
973.90	5130.16
974.07	4902.84
974.23	5009.33
974.39	5050.29
974.55	5023.67
974.72	4984.76
974.88	4853.69
975.04	4855.73
975.20	4896.69
975.37	4941.75
975.53	4937.65
975.69	4992.95
975.85	4894.65
976.01	4956.08
976.18	4908.98
976.34	4876.21
976.50	4911.03
976.66	4911.03
976.83	4896.69
976.99	4919.22
977.15	4802.49
977.31	4720.57
977.47	4890.55
977.64	4779.96
977.80	4726.71
977.96	4851.64
978.12	4757.43
978.29	4679.61
978.45	4673.46
978.61	4689.85
978.77	4779.96
978.93	4698.04
979.10	4730.81
979.26	4650.94
979.42	4693.94
979.58	4575.16
979.74	4669.37
979.91	4685.75
980.07	4521.92
980.23	4622.27
980.39	4632.51
980.55	4534.20
980.71	4499.39
980.88	4396.99
981.04	4431.80
981.20	4497.34
981.36	4521.92
981.52	4505.53
981.68	4507.58
981.85	4427.71
982.01	4493.24
982.17	4521.92
982.33	4253.63
982.49	4464.57
982.65	4370.37
982.82	4503.48
982.98	4491.20
983.14	4448.19
983.30	4556.73
983.46	4509.63
983.62	4411.32
983.79	4388.80
983.95	4360.13
984.11	4198.34
984.27	4413.37
984.43	4419.52
984.59	4339.65
984.75	4362.17
984.91	4163.52
985.08	4335.55
985.24	4415.42
985.40	4206.53
985.56	4261.82
985.72	4212.67
985.88	4333.50
986.04	4222.91
986.20	4081.60
986.37	4198.34
986.53	4085.70
986.69	4069.31
986.85	4059.07
987.01	4184.00
987.17	4239.30
987.33	4140.99
987.49	4138.94
987.65	4163.52
987.82	4165.57
987.98	3987.40
988.14	4059.07
988.30	4038.59
988.46	4065.22
988.62	4022.21
988.78	4005.83
988.94	4100.03
989.10	3993.54
989.26	3948.48
989.42	3973.06
989.59	3813.32
989.75	3952.58
989.91	3954.63
990.07	3938.24
990.23	3813.32
990.39	3925.96
990.55	4016.07
990.71	3919.81
990.87	3940.29
991.03	3983.30
991.19	3829.70
991.35	3825.61
991.51	3928.00
991.67	3901.38
991.83	3934.15
992.00	3745.73
992.16	3788.74
992.32	3819.46
992.48	3694.54
992.64	3751.88
992.80	3780.55
992.96	3717.06
993.12	3829.70
993.28	3768.26
993.44	3665.86
993.60	3749.83
993.76	3706.82
993.92	3813.32
994.08	3817.41
994.24	3794.89
994.40	3616.71
994.56	3684.30
994.72	3637.19
994.88	3678.15
995.04	3704.78
995.20	3719.11
995.36	3592.14
995.52	3573.71
995.68	3624.90
995.84	3450.83
996.00	3674.06
996.16	3518.41
996.32	3561.42
996.48	3518.41
996.64	3641.29
996.80	3438.54
996.96	3555.27
997.12	3536.84
997.28	3479.50
997.44	3471.31
997.60	3516.36
997.76	3463.12
997.92	3497.93
998.08	3420.11
998.24	3463.12
998.40	3538.89
998.56	3583.95
998.72	3416.01
998.88	3383.24
999.04	3442.64
999.20	3481.55
999.36	3428.30
999.52	3502.03
999.68	3436.49
999.84	3444.68
1000.00	3395.53
1000.16	3493.83
1000.32	3350.48
1000.48	3485.64
1000.64	3166.16
1000.80	3219.41
1000.95	3239.89
1001.11	3373.00
1001.27	3209.17
1001.43	3295.18
1001.59	3125.20
1001.75	3127.25
1001.91	3200.98
1002.07	3100.62
1002.23	3100.62
1002.39	3174.35
1002.55	3114.96
1002.71	3252.17
1002.87	3133.39
1003.03	3166.16
1003.19	3104.72
1003.34	3264.46
1003.50	3108.82
1003.66	3129.30
1003.82	3141.58
1003.98	3067.86
1004.14	3100.62
1004.30	3096.53
1004.46	3119.06
1004.62	3135.44
1004.78	3129.30
1004.94	3127.25
1005.09	3108.82
1005.25	3160.02
1005.41	3061.71
1005.57	3055.57
1005.73	3055.57
1005.89	2977.75
1006.05	3020.75
1006.21	3018.71
1006.37	2926.55
1006.52	2922.45
1006.68	2936.79
1006.84	3174.35
1007.00	2918.36
1007.16	3000.27
1007.32	2934.74
1007.48	2934.74
1007.64	2967.51
1007.79	2830.29
1007.95	2951.12
1008.11	3002.32
1008.27	2949.08
1008.43	2942.93
1008.59	2949.08
1008.75	2998.23
1008.91	2885.59
1009.06	2887.64
1009.22	2836.44
1009.38	2893.78
1009.54	2953.17
1009.70	2901.97
1009.86	2818.00
1010.01	2828.24
1010.17	2836.44
1010.33	2879.44
1010.49	2760.66
1010.65	2858.96
1010.81	2789.33
1010.96	2748.37
1011.12	2709.46
1011.28	2768.85
1011.44	2787.29
1011.60	2756.57
1011.76	2709.46
1011.91	2797.53
1012.07	2697.17
1012.23	2643.93
1012.39	2744.28
1012.55	2707.41
1012.71	2701.27
1012.86	2576.34
1013.02	2695.13
1013.18	2660.31
1013.34	2713.56
1013.50	2715.61
1013.65	2721.75
1013.81	2744.28
1013.97	2633.69
1014.13	2713.56
1014.29	2740.18
1014.44	2600.92
1014.60	2645.98
1014.76	2555.86
1014.92	2568.15
1015.07	2615.26
1015.23	2656.22
1015.39	2596.82
1015.55	2600.92
1015.71	2607.06
1015.86	2568.15
1016.02	2543.58
1016.18	2529.24
1016.34	2582.49
1016.49	2576.34
1016.65	2666.46
1016.81	2516.95
1016.97	2521.05
1017.12	2494.43
1017.28	2467.80
1017.44	2435.03
1017.60	2432.99
1017.75	2459.61
1017.91	2582.49
1018.07	2461.66
1018.23	2432.99
1018.38	2435.03
1018.54	2404.32
1018.70	2430.94
1018.86	2492.38
1019.01	2373.60
1019.17	2422.75
1019.33	2578.39
1019.49	2453.47
1019.64	2404.32
1019.80	2449.37
1019.96	2367.45
1020.12	2502.62
1020.27	2346.97
1020.43	2447.32
1020.59	2482.14
1020.74	2539.48
1020.90	2510.81
1021.06	2320.35
1021.22	2310.11
1021.37	2461.66
1021.53	2289.63
1021.69	2392.03
1021.84	2281.44
1022.00	2418.65
1022.16	2293.72
1022.31	2320.35
1022.47	2291.68
1022.63	2430.94
1022.79	2279.39
1022.94	2277.34
1023.10	2355.16
1023.26	2344.92
1023.41	2291.68
1023.57	2334.68
1023.73	2334.68
1023.88	2293.72
1024.04	2197.47
1024.20	2234.33
1024.35	2293.72
1024.51	2226.14
1024.67	2226.14
1024.82	2326.49
1024.98	2187.23
1025.14	2310.11
1025.29	2203.61
1025.45	2228.19
1025.61	2254.81
1025.76	2176.99
1025.92	2220.00
1026.08	2232.29
1026.23	2322.40
1026.39	2207.71
1026.55	2158.56
1026.70	2142.18
1026.86	2240.48
1027.02	2191.33
1027.17	2275.29
1027.33	2215.90
1027.48	2179.04
1027.64	2166.75
1027.80	2140.13
1027.95	2115.55
1028.11	1994.72
1028.27	2150.37
1028.42	2136.03
1028.58	2095.07
1028.73	2125.79
1028.89	2103.26
1029.05	2185.18
1029.20	2207.71
>>>>>End Processed Spectral Data<<<<<
