SpectraSuite Data File
++++++++++++++++++++++++++++++++++++
Date: Fri Jun 02 14:41:55 CEST 2017
User: INFO_000
Dark Spectrum Present: No
Reference Spectrum Present: No
Number of Sampled Component Spectra: 1
Spectrometers: USB4H00879
Integration Time (usec): 80000 (USB4H00879)
Spectra Averaged: 1 (USB4H00879)
Boxcar Smoothing: 0 (USB4H00879)
Correct for Electrical Dark: No (USB4H00879)
Strobe/Lamp Enabled: No (USB4H00879)
Correct for Detector Non-linearity: No (USB4H00879)
Correct for Stray Light: No (USB4H00879)
Number of Pixels in Processed Spectrum: 3648
>>>>>Begin Processed Spectral Data<<<<<
345.13	1335.28
345.34	1335.28
345.56	1335.28
345.78	1257.45
345.99	1275.88
346.21	1714.15
346.42	1705.96
346.64	1701.86
346.86	1763.30
347.07	1638.38
347.29	1744.87
347.50	1617.90
347.72	1693.67
347.94	1740.77
348.15	1587.18
348.37	1634.28
348.59	1728.49
348.80	1681.38
349.02	1808.36
349.23	1970.15
349.45	1843.17
349.67	1806.31
349.88	1830.88
350.10	2025.44
350.31	1783.78
350.53	1818.60
350.75	1880.04
350.96	1751.01
351.18	1859.56
351.39	1855.46
351.61	1789.92
351.82	1945.57
352.04	1918.95
352.26	1853.41
352.47	1925.09
352.69	1929.19
352.90	1744.87
353.12	1882.08
353.34	1863.65
353.55	1925.09
353.77	1873.89
353.98	1898.47
354.20	1789.92
354.41	1900.52
354.63	1959.91
354.85	1978.34
355.06	1925.09
355.28	1845.22
355.49	1847.27
355.71	1871.84
355.92	1830.88
356.14	1918.95
356.35	1880.04
356.57	1859.56
356.79	1912.80
357.00	1929.19
357.22	1943.52
357.43	1859.56
357.65	1943.52
357.86	1920.99
358.08	1959.91
358.29	2004.96
358.51	1935.33
358.72	1935.33
358.94	1875.94
359.16	1890.28
359.37	1990.63
359.59	1951.71
359.80	2013.15
360.02	1961.95
360.23	1925.09
360.45	2000.87
360.66	1875.94
360.88	1857.51
361.09	1959.91
361.31	1984.48
361.52	1970.15
361.74	2013.15
361.95	2013.15
362.17	1853.41
362.38	2027.49
362.60	2023.39
362.81	1978.34
363.03	1974.24
363.24	2015.20
363.46	2119.65
363.67	2017.25
363.89	2041.82
364.10	2033.63
364.32	2052.06
364.53	2021.35
364.75	1896.42
364.96	2058.21
365.18	2000.87
365.39	2033.63
365.61	2023.39
365.82	2125.79
366.04	2031.58
366.25	1996.77
366.47	2068.45
366.68	2097.12
366.90	1974.24
367.11	2113.50
367.33	2060.26
367.54	2105.31
367.76	2070.50
367.97	2054.11
368.19	2015.20
368.40	2054.11
368.62	1955.81
368.83	1978.34
369.05	2060.26
369.26	1964.00
369.48	2027.49
369.69	2043.87
369.91	2017.25
370.12	2017.25
370.33	2201.57
370.55	1990.63
370.76	1990.63
370.98	2121.70
371.19	2072.54
371.41	2011.11
371.62	2162.66
371.84	1982.43
372.05	2234.33
372.27	2064.35
372.48	2099.17
372.69	2084.83
372.91	2146.27
373.12	2187.23
373.34	2076.64
373.55	2138.08
373.77	2131.94
373.98	2105.31
374.20	2185.18
374.41	2256.86
374.62	2093.02
374.84	2187.23
375.05	2199.52
375.27	2097.12
375.48	2185.18
375.70	2269.15
375.91	2232.29
376.12	2326.49
376.34	2181.09
376.55	2199.52
376.77	2187.23
376.98	2238.43
377.19	2156.51
377.41	2113.50
377.62	2224.09
377.84	2213.85
378.05	2389.98
378.27	2189.28
378.48	2344.92
378.69	2400.22
378.91	2283.49
379.12	2183.13
379.34	2232.29
379.55	2365.40
379.76	2174.94
379.98	2166.75
380.19	2279.39
380.41	2336.73
380.62	2256.86
380.83	2273.25
381.05	2220.00
381.26	2406.36
381.47	2217.95
381.69	2295.77
381.90	2351.07
382.12	2332.64
382.33	2338.78
382.54	2281.44
382.76	2346.97
382.97	2355.16
383.19	2336.73
383.40	2336.73
383.61	2361.31
383.83	2312.16
384.04	2273.25
384.25	2432.99
384.47	2465.75
384.68	2383.84
384.89	2344.92
385.11	2353.12
385.32	2377.69
385.54	2367.45
385.75	2416.60
385.96	2502.62
386.18	2455.51
386.39	2355.16
386.60	2389.98
386.82	2471.90
387.03	2418.65
387.24	2465.75
387.46	2484.19
387.67	2494.43
387.88	2455.51
388.10	2502.62
388.31	2504.67
388.52	2533.34
388.74	2594.78
388.95	2576.34
389.16	2586.58
389.38	2590.68
389.59	2619.35
389.80	2760.66
390.02	2545.63
390.23	2682.84
390.44	2617.30
390.66	2609.11
390.87	2551.77
391.08	2605.02
391.30	2619.35
391.51	2713.56
391.72	2748.37
391.94	2684.89
392.15	2650.07
392.36	2641.88
392.58	2721.75
392.79	2676.70
393.00	2752.47
393.22	2717.65
393.43	2713.56
393.64	2840.53
393.85	2865.11
394.07	2713.56
394.28	2766.81
394.49	2836.44
394.71	2809.81
394.92	3067.86
395.13	2883.54
395.35	2856.92
395.56	2715.61
395.77	2936.79
395.98	2893.78
396.20	2836.44
396.41	2803.67
396.62	2879.44
396.84	2865.11
397.05	2928.60
397.26	2961.36
397.47	3057.62
397.69	2897.88
397.90	3010.51
398.11	2949.08
398.32	2926.55
398.54	2904.02
398.75	2914.26
398.96	2904.02
399.18	3076.05
399.39	3092.43
399.60	3141.58
399.81	3000.27
400.03	3016.66
400.24	3307.47
400.45	3145.68
400.66	3121.10
400.88	2965.46
401.09	3315.66
401.30	3129.30
401.51	3305.42
401.73	3301.33
401.94	3225.55
402.15	3264.46
402.36	3274.70
402.58	3239.89
402.79	3243.98
403.00	3182.54
403.21	3248.08
403.43	3284.94
403.64	3295.18
403.85	3172.30
404.06	3190.74
404.27	3155.92
404.49	3256.27
404.70	3219.41
404.91	3473.36
405.12	3368.91
405.34	3348.43
405.55	3545.03
405.76	3282.89
405.97	3200.98
406.19	3456.97
406.40	3289.04
406.61	3284.94
406.82	3438.54
407.03	3426.25
407.25	3368.91
407.46	3422.16
407.67	3573.71
407.88	3502.03
408.09	3440.59
408.31	3477.45
408.52	3389.39
408.73	3520.46
408.94	3370.96
409.15	3485.64
409.37	3583.95
409.58	3545.03
409.79	3512.27
410.00	3581.90
410.21	3432.40
410.43	3620.81
410.64	3469.26
410.85	3639.24
411.06	3581.90
411.27	3635.14
411.48	3624.90
411.70	3563.47
411.91	3776.45
412.12	3690.44
412.33	3741.64
412.54	3774.41
412.76	3698.63
412.97	3751.88
413.18	3612.62
413.39	3786.69
413.60	3835.85
413.81	3753.93
414.03	3641.29
414.24	3872.71
414.45	3889.09
414.66	3520.46
414.87	3966.92
415.08	3749.83
415.30	3768.26
415.51	3862.47
415.72	3936.20
415.93	3815.37
416.14	3952.58
416.35	3923.91
416.56	3889.09
416.78	3897.28
416.99	3971.01
417.20	3999.68
417.41	4054.98
417.62	3960.77
417.83	4042.69
418.04	4059.07
418.26	4067.27
418.47	4073.41
418.68	4067.27
418.89	4081.60
419.10	4237.25
419.31	4159.42
419.52	4118.47
419.73	4227.01
419.95	4204.48
420.16	3979.20
420.37	4200.38
420.58	4138.94
420.79	3977.16
421.00	4136.90
421.21	4366.27
421.42	4104.13
421.63	4304.83
421.85	4358.08
422.06	4308.93
422.27	4267.97
422.48	4272.06
422.69	4364.22
422.90	4337.60
423.11	4382.65
423.32	4564.92
423.53	4564.92
423.75	4448.19
423.96	4534.20
424.17	4470.72
424.38	4720.57
424.59	4509.63
424.80	4700.09
425.01	4587.45
425.22	4579.26
425.43	4558.78
425.64	4829.11
425.85	4650.94
426.06	4677.56
426.28	4777.91
426.49	4652.98
426.70	4706.23
426.91	4722.62
427.12	4700.09
427.33	4892.60
427.54	4722.62
427.75	4851.64
427.96	4951.99
428.17	4825.01
428.38	4911.03
428.59	5072.82
428.80	4913.08
429.01	4943.80
429.23	5124.02
429.44	5244.85
429.65	5044.15
429.86	5146.55
430.07	5060.53
430.28	5181.36
430.49	5107.63
430.70	5271.47
430.91	5062.58
431.12	5259.18
431.33	5468.08
431.54	5400.49
431.75	5287.86
431.96	5287.86
432.17	5326.77
432.38	5353.39
432.59	5449.64
432.80	5480.36
433.01	5455.79
433.22	5330.86
433.43	5517.23
433.64	5554.09
433.85	5414.83
434.06	5525.42
434.27	5457.84
434.49	5574.57
434.70	5584.81
434.91	5711.78
435.12	5713.83
435.33	5588.91
435.54	5717.93
435.75	5531.56
435.96	5547.95
436.17	5541.80
436.38	5924.77
436.59	5863.33
436.80	5646.25
437.01	5928.87
437.22	5795.75
437.43	5875.62
437.64	5699.50
437.85	6123.43
438.06	5982.12
438.27	5756.84
438.48	5756.84
438.69	5912.49
438.90	5803.94
439.11	5836.71
439.32	6152.10
439.53	5996.45
439.74	6049.70
439.95	6125.47
440.16	6086.56
440.37	6139.81
440.57	5959.59
440.78	6258.59
440.99	6285.22
441.20	6178.72
441.41	6094.76
441.62	6277.02
441.83	6049.70
442.04	6320.03
442.25	6246.30
442.46	6258.59
442.67	6371.23
442.88	6856.60
443.09	6295.46
443.30	6291.36
443.51	6393.76
443.72	6655.90
443.93	6436.77
444.14	6557.60
444.35	6420.38
444.56	6490.01
444.77	6393.76
444.98	6608.80
445.19	6645.66
445.40	6592.41
445.61	6573.98
445.81	6803.35
446.02	6567.84
446.23	6760.34
446.44	6504.35
446.65	6954.90
446.86	6823.83
447.07	6844.31
447.28	6801.30
447.49	6975.38
447.70	6680.47
447.91	7051.16
448.12	6864.79
448.33	6938.52
448.54	7135.12
448.74	6815.64
448.95	6832.02
449.16	6899.61
449.37	7272.34
449.58	7137.17
449.79	7196.56
450.00	7036.82
450.21	7448.46
450.42	7270.29
450.63	7241.62
450.84	7133.08
451.05	7153.55
451.25	7088.02
451.46	7120.79
451.67	7395.22
451.88	7511.95
452.09	7452.56
452.30	7337.87
452.51	7413.65
452.72	7387.02
452.93	7731.08
453.13	7303.06
453.34	7415.69
453.55	7606.16
453.76	7575.44
453.97	7769.99
454.18	7632.78
454.39	7942.02
454.60	7700.36
454.81	7808.90
455.01	7849.86
455.22	7593.87
455.43	7899.02
455.64	8191.88
455.85	8023.94
456.06	8159.11
456.27	8054.66
456.48	7892.87
456.68	8132.48
456.89	8204.16
457.10	8408.96
457.31	8265.60
457.52	8191.88
457.73	8554.37
457.94	8431.49
458.14	8267.65
458.35	8773.50
458.56	8490.88
458.77	8388.48
458.98	8699.77
459.19	8515.45
459.39	8861.56
459.60	8892.28
459.81	8867.70
460.02	8812.41
460.23	8980.34
460.44	9062.26
460.65	9158.52
460.85	9025.40
461.06	9097.08
461.27	8943.48
461.48	9197.43
461.69	9430.90
461.89	9002.87
462.10	9420.66
462.31	9043.83
462.52	9133.94
462.73	9353.07
462.94	9588.59
463.14	9422.70
463.35	9432.94
463.56	9740.14
463.77	9897.83
463.98	9582.45
464.18	9561.97
464.39	9901.93
464.60	10219.36
464.81	9701.23
465.02	9975.66
465.23	10190.69
465.43	10182.50
465.64	10342.24
465.85	9998.18
466.06	10215.27
466.27	10438.50
466.47	10454.88
466.68	10553.18
466.89	10336.10
467.10	10458.98
467.30	10338.15
467.51	10694.49
467.72	11034.46
467.93	10631.01
468.14	10923.87
468.34	10977.11
468.55	10846.04
468.76	10927.96
468.97	10940.25
469.17	11226.96
469.38	11216.72
469.59	11497.30
469.80	11190.10
470.01	11200.34
470.21	11325.27
470.42	11712.33
470.63	11730.76
470.84	11458.39
471.04	11650.89
471.25	11683.66
471.46	11800.40
471.67	11972.43
471.87	11800.40
472.08	11984.71
472.29	12228.42
472.50	12046.15
472.70	12050.25
472.91	12259.14
473.12	12425.03
473.33	12433.22
473.53	12797.76
473.74	12492.61
473.95	12834.62
474.16	12791.61
474.36	12873.53
474.57	12764.99
474.78	13164.34
474.99	13041.46
475.19	12910.40
475.40	13715.25
475.61	13356.85
475.81	13627.18
476.02	13723.44
476.23	13471.54
476.44	13684.53
476.64	13915.95
476.85	13973.29
477.06	13940.52
477.27	14264.10
477.47	14389.03
477.68	14315.30
477.89	14745.38
478.09	14444.32
478.30	14454.56
478.51	14677.79
478.71	14810.91
478.92	14843.68
479.13	14915.36
479.34	15136.54
479.54	15226.65
479.75	15073.05
479.96	15261.46
480.16	15316.76
480.37	15337.24
480.58	15691.54
480.78	16068.36
480.99	15943.44
481.20	16051.98
481.41	16170.76
481.61	16434.95
481.82	16228.10
482.03	16365.32
482.23	16277.26
482.44	16541.44
482.65	16858.88
482.85	16715.52
483.06	16801.54
483.27	16799.49
483.47	17145.59
483.68	16807.68
483.89	17178.36
484.09	17395.45
484.30	17438.45
484.51	17575.67
484.71	17688.31
484.92	17794.80
485.13	17764.08
485.33	17768.18
485.54	17768.18
485.75	18314.98
485.95	18155.24
486.16	18237.16
486.37	18290.41
486.57	18288.36
486.78	18282.22
486.98	18386.66
487.19	18685.67
487.40	18708.19
487.60	18947.81
487.81	18859.74
488.02	18685.67
488.22	18867.94
488.43	19138.27
488.64	19185.37
488.84	19517.14
489.05	19660.50
489.25	19388.12
489.46	19857.10
489.67	19441.37
489.87	20092.62
490.08	19934.93
490.29	20004.56
490.49	20600.52
490.70	20199.12
490.90	20416.20
491.11	20633.29
491.32	20522.69
491.52	20520.65
491.73	20612.81
491.94	20766.40
492.14	20522.69
492.35	21075.65
492.55	21163.71
492.76	21227.20
492.97	21442.23
493.17	21257.92
493.38	21649.08
493.58	21442.23
493.79	21612.21
494.00	21708.47
494.20	21825.20
494.41	22195.89
494.61	22161.07
494.82	22044.34
495.02	22236.84
495.23	22228.65
495.44	22400.68
495.64	22615.72
495.85	22554.28
496.05	22812.32
496.26	22593.19
496.47	22613.67
496.67	22691.49
496.88	22978.21
497.08	22771.36
497.29	23275.16
497.49	23260.83
497.70	23494.30
497.91	23387.80
498.11	23402.14
498.32	23826.07
498.52	23750.29
498.73	23858.84
498.93	23936.66
499.14	23697.05
499.34	23916.18
499.55	24374.92
499.76	24049.30
499.96	24039.06
500.17	24049.30
500.37	24426.12
500.58	24401.55
500.78	24260.24
500.99	24635.02
501.19	24534.67
501.40	24503.95
501.60	24397.45
501.81	24866.44
502.02	24614.54
502.22	24641.16
502.43	25085.57
502.63	25290.37
502.84	25007.75
503.04	25083.52
503.25	25214.59
503.45	25366.14
503.66	25300.61
503.86	25628.28
504.07	25876.09
504.27	25337.47
504.48	26078.83
504.68	25710.20
504.89	25935.48
505.09	25853.56
505.30	26197.62
505.50	26195.57
505.71	26375.79
505.91	26373.74
506.12	26371.69
506.32	26273.39
506.53	26455.66
506.73	26662.51
506.94	26666.60
507.14	26297.97
507.35	26646.12
507.55	26885.73
507.76	27172.45
507.96	26824.29
508.17	26902.12
508.37	27184.74
508.58	26959.46
508.78	26930.79
508.99	27467.36
509.19	27197.02
509.40	27616.86
509.60	27407.97
509.81	27223.65
510.01	27491.93
510.22	27252.32
510.42	27997.78
510.63	27786.84
510.83	27569.76
511.04	27686.49
511.24	27588.19
511.44	27780.70
511.65	27817.56
511.85	28020.31
512.06	28132.95
512.26	28012.12
512.47	28399.18
512.67	28210.77
512.88	28290.64
513.08	28094.04
513.29	28352.08
513.49	28577.36
513.69	28413.52
513.90	28188.24
514.10	28335.70
514.31	28681.80
514.51	28614.22
514.72	28800.58
514.92	28884.55
515.13	28993.09
515.33	28718.67
515.53	28956.23
515.74	29105.73
515.94	29032.00
516.15	29077.06
516.35	29212.23
516.56	29427.26
516.76	29218.37
516.96	29183.55
517.17	29171.27
517.37	29552.19
517.58	29548.09
517.78	29597.24
517.99	29699.64
518.19	29699.64
518.39	29892.15
518.60	30529.07
518.80	29914.68
519.01	30174.77
519.21	30277.17
519.41	30162.48
519.62	30035.51
519.82	30350.90
520.03	30610.99
520.23	30539.31
520.43	30197.30
520.64	30520.88
520.84	30909.99
521.05	30400.05
521.25	30877.22
521.45	30983.72
521.66	31235.62
521.86	30889.51
522.07	31014.44
522.27	30944.81
522.47	31131.17
522.68	31448.61
522.88	31342.11
523.08	31632.93
523.29	31350.31
523.49	31645.21
523.70	31821.34
523.90	31645.21
524.10	31854.11
524.31	32087.57
524.51	31766.04
524.71	32239.12
524.92	32261.65
525.12	32476.69
525.33	32067.09
525.53	32462.35
525.73	32601.61
525.94	32855.56
526.14	32855.56
526.34	32534.03
526.55	32710.16
526.75	33027.59
526.95	33132.04
527.16	32824.84
527.36	33109.51
527.56	33005.06
527.77	33773.05
527.97	33674.75
528.17	33697.28
528.38	33705.47
528.58	33445.38
528.78	33807.87
528.99	33615.36
529.19	33996.28
529.39	33848.83
529.60	34334.20
529.80	33994.23
530.00	34010.62
530.21	34170.36
530.41	34803.18
530.61	34086.39
530.82	34463.22
531.02	34438.64
531.22	34659.82
531.43	35075.56
531.63	35001.83
531.83	35116.52
532.04	35505.63
532.24	35302.89
532.44	35479.01
532.64	35786.21
532.85	35642.85
533.05	35503.59
533.25	35620.32
533.46	35765.73
533.66	36304.34
533.86	36132.31
534.07	36421.08
534.27	36324.82
534.47	36443.60
534.67	36511.19
534.88	36529.62
535.08	36435.41
535.28	36830.67
535.49	37109.19
535.69	36920.78
535.89	37197.26
536.09	37090.76
536.30	37402.05
536.50	37555.65
536.70	37680.58
536.91	37481.92
537.11	37717.44
537.31	37729.73
537.51	37496.26
537.72	37864.89
537.92	37989.82
538.12	38114.75
538.32	38266.30
538.53	38274.49
538.73	38030.78
538.93	38442.42
539.13	38397.37
539.34	38675.89
539.54	38510.00
539.74	38768.05
539.94	39062.96
540.15	38475.19
540.35	39146.92
540.55	38942.13
540.75	39277.99
540.96	39505.32
541.16	39296.42
541.36	39237.03
541.56	39218.60
541.77	39898.53
541.97	39517.60
542.17	39626.15
542.37	39677.35
542.58	39695.78
542.78	40068.51
542.98	39568.80
543.18	40072.60
543.38	40394.14
543.59	40510.87
543.79	39976.35
543.99	40048.03
544.19	40381.85
544.40	40385.94
544.60	40676.76
544.80	40484.25
545.00	40719.76
545.20	41315.72
545.41	41084.30
545.61	40951.18
545.81	41043.34
546.01	41338.25
546.21	41229.71
546.42	40752.53
546.62	41442.70
546.82	40899.98
547.02	41469.32
547.22	41368.97
547.43	41094.54
547.63	41729.41
547.83	41678.21
548.03	41747.84
548.23	41698.69
548.44	41713.03
548.64	41844.10
548.84	41803.14
549.04	41952.64
549.24	42085.76
549.45	42294.65
549.65	41614.72
549.85	42245.50
550.05	42265.98
550.25	42292.60
550.45	42745.20
550.66	42364.28
550.86	42384.76
551.06	42857.84
551.26	42767.73
551.46	42657.14
551.66	42851.70
551.87	42749.30
552.07	42888.56
552.27	42540.41
552.47	42986.86
552.67	43261.29
552.87	42923.38
553.07	43425.13
553.28	43406.70
553.48	43052.40
553.68	43023.73
553.88	43189.61
554.08	43242.86
554.28	43300.20
554.48	43631.97
554.69	43769.19
554.89	43611.49
555.09	43853.15
555.29	43457.90
555.49	43578.73
555.69	43341.16
555.89	43588.97
556.10	44135.77
556.30	43810.15
556.50	43824.48
556.70	43773.28
556.90	44170.59
557.10	43697.51
557.30	43849.06
557.50	44303.71
557.70	44256.60
557.91	44117.34
558.11	44111.20
558.31	44668.25
558.51	44457.31
558.71	44541.27
558.91	44270.94
559.11	44072.29
559.31	44864.85
559.51	44342.62
559.72	44596.57
559.92	44832.08
560.12	44471.64
560.32	44504.41
560.52	44592.47
560.72	44916.05
560.92	44866.90
561.12	44537.18
561.32	45172.05
561.52	44555.61
561.72	45088.08
561.93	44856.66
562.13	45335.88
562.33	44803.41
562.53	45452.62
562.73	44897.62
562.93	45018.45
563.13	45552.97
563.33	45129.04
563.53	45382.99
563.73	45708.61
563.93	45333.84
564.13	46126.40
564.33	45188.43
564.53	45638.98
564.74	45657.42
564.94	45612.36
565.14	45942.08
565.34	45944.13
565.54	45530.44
565.74	46142.78
565.94	46001.47
566.14	45905.22
566.34	45784.39
566.54	46103.87
566.74	45569.35
566.94	45880.64
567.14	46228.80
567.34	45522.25
567.54	46404.92
567.74	45999.43
567.94	45950.27
568.14	46388.54
568.34	46191.94
568.54	46540.09
568.74	46314.81
568.94	46081.34
569.14	46800.18
569.34	46511.42
569.54	47025.46
569.75	46062.91
569.95	46544.19
570.15	47019.31
570.35	47125.81
570.55	46574.91
570.75	46767.41
570.95	46619.96
571.15	46857.52
571.35	46978.36
571.55	47281.45
571.75	47080.75
571.95	47160.62
572.15	46955.83
572.35	47310.13
572.55	46677.30
572.75	47160.62
572.95	47306.03
573.15	47297.84
573.35	46931.25
573.55	47164.72
573.75	47498.54
573.95	47371.57
574.15	47351.09
574.35	47764.78
574.55	47664.42
574.75	47498.54
574.95	47732.01
575.15	47811.88
575.34	47404.33
575.54	47789.35
575.74	47648.04
575.94	48035.11
576.14	48026.92
576.34	48014.63
576.54	47947.04
576.74	48157.99
576.94	48192.80
577.14	48694.55
577.34	48702.74
577.54	47910.18
577.74	48264.48
577.94	48377.12
578.14	48665.88
578.34	49028.37
578.54	48102.69
578.74	48674.07
578.94	48696.60
579.14	48618.78
579.34	48430.36
579.54	49059.09
579.74	48891.16
579.94	49538.32
580.13	49171.73
580.33	49313.04
580.53	49173.78
580.73	49184.02
580.93	48981.27
581.13	49214.74
581.33	49169.68
581.53	49464.59
581.73	49818.89
581.93	49079.57
582.13	49218.83
582.33	49952.01
582.53	49593.61
582.73	49558.80
582.92	49612.04
583.12	50017.54
583.32	49736.97
583.52	49968.39
583.72	50265.34
583.92	50097.41
584.12	49974.53
584.32	50367.74
584.52	50388.22
584.72	50509.05
584.92	50537.72
585.11	50650.36
585.31	50672.89
585.51	50797.82
585.71	50109.70
585.91	50971.89
586.11	50633.98
586.31	50738.43
586.51	50588.92
586.71	50898.17
586.91	51092.72
587.10	50533.63
587.30	50992.37
587.50	50969.85
587.70	51229.94
587.90	51549.42
588.10	50932.98
588.30	51160.31
588.50	51178.74
588.69	51234.03
588.89	51119.35
589.09	51428.59
589.29	51426.54
589.49	51604.72
589.69	51393.78
589.89	52090.09
590.08	51789.03
590.28	51567.85
590.48	51807.47
590.68	51600.62
590.88	52004.07
591.08	51500.27
591.28	51948.78
591.47	52131.04
591.67	51897.58
591.87	51868.90
592.07	52131.04
592.27	52317.41
592.47	51918.06
592.67	52198.63
592.86	52212.96
593.06	52411.62
593.26	52215.01
593.46	52229.35
593.66	52389.09
593.86	52294.88
594.05	52538.59
594.25	52942.04
594.45	52651.23
594.65	52225.25
594.85	52456.67
595.05	52845.79
595.24	52831.45
595.44	53036.25
595.64	52729.05
595.84	52688.09
596.04	53144.79
596.23	53071.06
596.43	53458.13
596.63	52794.59
596.83	52784.35
597.03	53601.49
597.22	53560.53
597.42	53322.96
597.62	53871.82
597.82	53384.40
598.02	53384.40
598.21	53869.77
598.41	53245.14
598.61	53390.55
598.81	53785.80
599.01	53834.95
599.20	54037.70
599.40	53812.43
599.60	53943.50
599.80	54101.19
600.00	54334.66
600.19	54256.84
600.39	54111.43
600.59	54056.14
600.79	54342.85
600.98	54025.42
601.18	54676.67
601.38	54418.63
601.58	54418.63
601.78	54951.10
601.97	54650.05
602.17	55209.14
602.37	54750.40
602.57	54461.63
602.76	55166.13
602.96	54672.57
603.16	54869.18
603.36	55116.98
603.55	55471.28
603.75	55067.83
603.95	54899.90
604.15	55350.45
604.34	55590.06
604.54	55723.18
604.74	55295.16
604.94	55276.72
605.13	55360.69
605.33	55432.37
605.53	55850.16
605.73	55837.87
605.92	55573.68
606.12	55620.78
606.32	55547.06
606.52	55735.47
606.71	55712.94
606.91	55651.50
607.11	55911.59
607.30	55956.65
607.50	56020.14
607.70	56222.89
607.90	56153.26
608.09	55807.15
608.29	55983.27
608.49	56290.47
608.68	55880.88
608.88	56198.31
609.08	56212.65
609.28	56136.87
609.47	55942.31
609.67	56581.28
609.87	56632.48
610.06	56587.42
610.26	56210.60
610.46	56980.63
610.66	56413.35
610.85	56751.26
611.05	56515.75
611.25	56138.92
611.44	56339.62
611.64	56743.07
611.84	56698.01
612.03	56325.28
612.23	56417.44
612.43	56468.64
612.62	56804.51
612.82	57205.91
613.02	56855.71
613.21	56706.21
613.41	56562.85
613.61	57195.67
613.80	56614.05
614.00	56925.34
614.20	57052.31
614.39	57066.65
614.59	57259.16
614.79	56913.05
614.98	56972.44
615.18	57230.49
615.38	56997.02
615.57	56765.60
615.77	56978.59
615.97	57025.69
616.16	57101.46
616.36	56890.52
616.56	57455.76
616.75	57138.33
616.95	57070.75
617.15	57308.31
617.34	56915.10
617.54	57150.62
617.74	57652.37
617.93	57439.38
618.13	56886.43
618.32	56935.58
618.52	56745.12
618.72	56833.18
618.91	57384.08
619.11	56605.86
619.31	56968.35
619.50	57111.70
619.70	56673.44
619.90	56794.27
620.09	56990.87
620.29	56624.29
620.48	56708.25
620.68	57390.23
620.88	56763.55
621.07	56720.54
621.27	57207.96
621.46	56548.51
621.66	56915.10
621.86	57218.20
622.05	56607.90
622.25	57152.66
622.44	56892.57
622.64	56566.94
622.84	56980.63
623.03	56550.56
623.23	57164.95
623.42	57181.34
623.62	57263.25
623.82	57212.06
624.01	56841.37
624.21	57154.71
624.40	56997.02
624.60	57246.87
624.80	56767.65
624.99	57042.07
625.19	56409.25
625.38	57271.45
625.58	57418.90
625.77	57060.51
625.97	56890.52
626.17	56562.85
626.36	56751.26
626.56	57371.80
626.75	56452.26
626.95	57224.34
627.14	56986.78
627.34	57470.10
627.54	57013.40
627.73	56933.53
627.93	56890.52
628.12	56718.49
628.32	57154.71
628.51	57275.54
628.71	57136.28
628.90	57117.85
629.10	56886.43
629.30	57373.84
629.49	57199.77
629.69	57162.90
629.88	57164.95
630.08	57074.84
630.27	56863.90
630.47	57353.36
630.66	56997.02
630.86	57267.35
631.05	56853.66
631.25	57580.69
631.44	56956.06
631.64	57271.45
631.84	57078.94
632.03	57459.86
632.23	57224.34
632.42	57431.19
632.62	57359.51
632.81	56888.48
633.01	57259.16
633.20	57140.38
633.40	57302.17
633.59	57271.45
633.79	57029.79
633.98	57607.31
634.18	57678.99
634.37	56829.08
634.57	57365.65
634.76	57453.72
634.96	57435.28
635.15	57291.93
635.35	57156.76
635.54	57185.43
635.74	57711.76
635.93	57259.16
636.13	57717.90
636.32	57459.86
636.52	56939.68
636.71	57689.23
636.91	57156.76
637.10	57545.87
637.30	57590.93
637.49	57425.04
637.69	57386.13
637.88	57998.48
638.08	57423.00
638.27	57660.56
638.46	57521.30
638.66	57418.90
638.85	57404.56
639.05	57717.90
639.24	57678.99
639.44	57271.45
639.63	57701.52
639.83	57689.23
640.02	57513.11
640.22	57289.88
640.41	57578.64
640.61	57322.65
640.80	57869.45
640.99	57336.98
641.19	58029.19
641.38	57902.22
641.58	57549.97
641.77	57635.98
641.97	57474.20
642.16	57615.50
642.36	57855.12
642.55	57848.97
642.74	57668.75
642.94	58221.70
643.13	57447.57
643.33	58156.17
643.52	57918.60
643.72	58066.06
643.91	57851.02
644.10	57832.59
644.30	58383.49
644.49	57781.39
644.69	57965.71
644.88	58107.02
645.08	57500.82
645.27	57744.53
645.46	57758.86
645.66	58098.83
645.85	57920.65
646.05	57902.22
646.24	58502.28
646.43	58201.22
646.63	58391.68
646.82	58201.22
647.02	58397.83
647.21	58311.81
647.40	58203.27
647.60	58381.45
647.79	58688.64
647.99	58438.79
648.18	58225.80
648.37	59141.24
648.57	58496.13
648.76	58104.97
648.96	58135.69
649.15	58729.60
649.34	58590.34
649.54	58496.13
649.73	58397.83
649.92	58340.49
650.12	58365.06
650.31	58680.45
650.51	58524.80
650.70	58727.55
650.89	58422.40
651.09	59126.91
651.28	58643.59
651.47	58578.05
651.67	58987.64
651.86	59063.42
652.06	57846.93
652.25	58803.33
652.44	58510.47
652.64	58422.40
652.83	58647.68
653.02	58682.50
653.22	59040.89
653.41	58756.22
653.60	58782.85
653.80	59012.22
653.99	58887.29
654.18	58791.04
654.38	58524.80
654.57	59112.57
654.76	58696.83
654.96	58729.60
655.15	58717.31
655.34	59034.75
655.54	58627.20
655.73	59184.25
655.92	58893.44
656.12	58469.51
656.31	58774.66
656.50	58694.78
656.70	58778.75
656.89	58758.27
657.08	59038.84
657.28	58944.64
657.47	58532.99
657.66	59012.22
657.86	58672.26
658.05	59151.48
658.24	59421.81
658.43	58686.59
658.63	59292.79
658.82	59128.95
659.01	59085.95
659.21	59116.67
659.40	58954.88
659.59	59016.32
659.79	59241.59
659.98	59194.49
660.17	59085.95
660.36	58956.92
660.56	58840.19
660.75	59110.52
660.94	59090.04
661.14	59026.56
661.33	59057.27
661.52	58651.78
661.71	59380.85
661.91	58842.24
662.10	59118.71
662.29	59272.31
662.49	58817.66
662.68	59278.46
662.87	59235.45
663.06	59303.03
663.26	58885.25
663.45	59399.29
663.64	58954.88
663.83	59485.30
664.03	59356.28
664.22	59300.98
664.41	59137.15
664.60	59030.65
664.80	59141.24
664.99	59020.41
665.18	59432.05
665.37	59090.04
665.57	58997.88
665.76	59167.87
665.95	59348.09
666.14	58829.95
666.34	59212.92
666.53	59059.32
666.72	59143.29
666.91	59057.27
667.11	59036.80
667.30	59329.65
667.49	59233.40
667.68	58932.35
667.87	58909.82
668.07	59499.64
668.26	59319.41
668.45	59038.84
668.64	58791.04
668.84	59890.80
669.03	59374.71
669.22	58619.01
669.41	59184.25
669.60	59290.74
669.80	58711.17
669.99	59446.39
670.18	58793.09
670.37	59622.51
670.57	59677.81
670.76	59348.09
670.95	58868.86
671.14	59319.41
671.33	58725.50
671.53	59563.12
671.72	59356.28
671.91	58797.18
672.10	58637.44
672.29	58981.50
672.48	58903.68
672.68	59217.02
672.87	59047.04
673.06	58637.44
673.25	58868.86
673.44	59139.19
673.64	58879.10
673.83	58832.00
674.02	58500.23
674.21	59020.41
674.40	59143.29
674.59	58619.01
674.79	59243.64
674.98	58909.82
675.17	59055.23
675.36	59077.75
675.55	59309.18
675.74	58614.91
675.94	58614.91
676.13	58926.20
676.32	58602.63
676.51	59397.24
676.70	59059.32
676.89	58922.11
677.08	58971.26
677.28	59012.22
677.47	58401.92
677.66	58938.49
677.85	59036.80
678.04	59024.51
678.23	59135.10
678.42	59188.34
678.62	58819.71
678.81	58825.85
679.00	58645.63
679.19	59262.07
679.38	58832.00
679.57	58770.56
679.76	59038.84
679.96	58664.06
680.15	58815.61
680.34	58870.91
680.53	58668.16
680.72	58905.73
680.91	58930.30
681.10	58938.49
681.29	58565.76
681.48	58606.72
681.68	58829.95
681.87	58520.71
682.06	58496.13
682.25	58481.80
682.44	58455.17
682.63	58657.92
682.82	58377.35
683.01	58340.49
683.20	58713.22
683.39	58299.53
683.59	58152.07
683.78	58332.29
683.97	58322.05
684.16	58309.77
684.35	58381.45
684.54	58111.11
684.73	58451.08
684.92	58242.18
685.11	57922.70
685.30	57967.76
685.49	58629.25
685.69	58121.35
685.88	58457.22
686.07	57955.47
686.26	57969.80
686.45	58494.08
686.64	58311.81
686.83	58119.31
687.02	58381.45
687.21	58121.35
687.40	58242.18
687.59	57912.46
687.78	58469.51
687.97	58270.85
688.16	57701.52
688.35	57523.35
688.54	57994.38
688.74	58053.77
688.93	58010.76
689.12	57826.45
689.31	57468.05
689.50	57863.31
689.69	57506.96
689.88	57285.78
690.07	58068.11
690.26	57330.84
690.45	58043.53
690.64	57586.83
690.83	57443.48
691.02	57678.99
691.21	57439.38
691.40	57308.31
691.59	57758.86
691.78	57767.05
691.97	57468.05
692.16	57427.09
692.35	57742.48
692.54	57758.86
692.73	57570.45
692.92	57343.12
693.11	57431.19
693.30	57410.71
693.49	57556.11
693.68	57296.02
693.87	57435.28
694.06	57210.01
694.25	56904.86
694.44	56802.46
694.63	57175.19
694.82	57423.00
695.01	57029.79
695.20	56833.18
695.39	56822.94
695.58	56775.84
695.77	56648.86
695.96	56452.26
696.15	57150.62
696.34	56820.89
696.53	56751.26
696.72	57121.94
696.91	56845.47
697.10	56648.86
697.29	56386.72
697.48	57177.24
697.67	56431.78
697.86	56636.58
698.05	56603.81
698.24	56849.56
698.43	56173.73
698.62	57207.96
698.81	56448.16
699.00	56818.84
699.19	56018.09
699.38	56423.59
699.57	56378.53
699.76	57232.53
699.95	56128.68
700.14	56153.26
700.32	56497.31
700.51	56073.38
700.70	56288.42
700.89	56241.32
701.08	56302.76
701.27	56218.79
701.46	56011.95
701.65	55827.63
701.84	56269.99
702.03	56349.86
702.22	55762.09
702.41	56018.09
702.60	55901.36
702.79	56315.04
702.98	55901.36
703.17	55712.94
703.35	55518.38
703.54	55786.67
703.73	56046.76
703.92	55950.51
704.11	56192.17
704.30	55927.98
704.49	55508.14
704.68	55327.92
704.87	55542.96
705.06	55932.07
705.25	55606.45
705.43	55647.41
705.62	55989.42
705.81	55514.29
706.00	55475.38
706.19	55497.91
706.38	55063.74
706.57	55653.55
706.76	55565.49
706.95	55448.75
707.14	55170.23
707.32	55229.62
707.51	54682.81
707.70	54990.01
707.89	54910.14
708.08	54756.54
708.27	54764.73
708.46	55401.65
708.65	55159.99
708.84	54998.20
709.02	55084.22
709.21	54979.77
709.40	54977.72
709.59	55043.26
709.78	54363.33
709.97	54926.52
710.16	54484.16
710.34	54826.17
710.53	55252.15
710.72	54670.53
710.91	54682.81
711.10	54588.61
711.29	54809.79
711.48	54799.55
711.66	54191.30
711.85	54342.85
712.04	54707.39
712.23	54449.35
712.42	54332.61
712.61	54367.43
712.80	54297.80
712.98	53961.93
713.17	53974.22
713.36	54154.44
713.55	54600.89
713.74	54441.15
713.93	54473.92
714.11	53705.93
714.30	53857.48
714.49	54105.29
714.68	54072.52
714.87	53863.63
715.06	53912.78
715.24	53609.68
715.43	54185.16
715.62	53540.05
715.81	53605.58
716.00	53767.37
716.18	53034.20
716.37	53611.73
716.56	53345.49
716.75	53712.08
716.94	53595.34
717.12	53228.76
717.31	53781.71
717.50	53105.88
717.69	53261.52
717.88	53550.29
718.06	53464.27
718.25	53482.70
718.44	52995.29
718.63	53066.97
718.82	52954.33
719.00	52966.62
719.19	53157.08
719.38	52534.49
719.57	52813.02
719.76	52428.00
719.94	52475.10
720.13	52434.14
720.32	52540.64
720.51	52376.80
720.69	52770.01
720.88	52329.70
721.07	52573.41
721.26	51899.62
721.44	52333.79
721.63	51963.11
721.82	52081.89
722.01	51709.16
722.20	52268.26
722.38	51819.75
722.57	51281.14
722.76	51645.68
722.95	51784.94
723.13	51608.81
723.32	51901.67
723.51	51174.64
723.70	51199.22
723.88	51721.45
724.07	51145.97
724.26	51504.37
724.44	50707.71
724.63	51377.39
724.82	51500.27
725.01	51383.54
725.19	50998.52
725.38	51033.33
725.57	51010.81
725.76	51186.93
725.94	51053.81
726.13	50885.88
726.32	50910.46
726.51	51215.60
726.69	51475.69
726.88	51688.68
727.07	51227.89
727.25	50773.24
727.44	50924.79
727.63	50681.08
727.82	51135.73
728.00	50873.59
728.19	50484.48
728.38	51158.26
728.56	50955.51
728.75	51242.23
728.94	50691.32
729.12	50906.36
729.31	50689.27
729.50	50420.99
729.69	50507.01
729.87	50521.34
730.06	50476.29
730.25	50853.11
730.43	50842.87
730.62	50351.36
730.81	50533.63
730.99	50412.80
731.18	50588.92
731.37	50443.52
731.55	50603.26
731.74	51170.55
731.93	50920.70
732.11	50937.08
732.30	50627.84
732.49	50050.31
732.67	50496.77
732.86	50672.89
733.05	50658.56
733.23	49835.27
733.42	50523.39
733.61	50404.61
733.79	50279.68
733.98	50670.84
734.17	50265.34
734.35	50115.84
734.54	50406.65
734.73	50001.16
734.91	50875.64
735.10	50136.32
735.29	50232.58
735.47	49603.85
735.66	50398.46
735.84	50160.90
736.03	49612.04
736.22	50052.36
736.40	50265.34
736.59	50377.98
736.78	50339.07
736.96	50236.67
737.15	50201.86
737.33	49507.60
737.52	50003.20
737.71	49622.28
737.89	49968.39
738.08	49718.54
738.27	49718.54
738.45	50273.54
738.64	49702.15
738.82	49779.98
739.01	49841.42
739.20	49577.23
739.38	49739.02
739.57	49618.19
739.75	49646.86
739.94	49386.77
740.13	49440.01
740.31	49198.35
740.50	49310.99
740.68	49712.39
740.87	49831.18
741.06	49564.94
741.24	48977.17
741.43	48962.84
741.61	49267.98
741.80	49136.91
741.99	49108.24
742.17	48954.64
742.36	49446.16
742.54	48657.69
742.73	48651.55
742.91	49075.48
743.10	49110.29
743.29	49233.17
743.47	49270.03
743.66	49175.83
743.84	49653.00
744.03	49521.93
744.21	48938.26
744.40	49134.87
744.59	48882.97
744.77	48604.44
744.96	48854.29
745.14	48895.25
745.33	48950.55
745.51	48626.97
745.70	48661.79
745.88	48301.34
746.07	48710.94
746.26	47840.55
746.44	48565.53
746.63	48108.83
746.81	48561.44
747.00	48211.23
747.18	48602.39
747.37	48207.14
747.55	47930.66
747.74	48942.36
747.92	48426.27
748.11	48653.59
748.29	48530.72
748.48	48067.87
748.66	48190.75
748.85	48469.28
749.03	48454.94
749.22	47994.15
749.41	48043.30
749.59	48067.87
749.78	47797.54
749.96	47772.97
750.15	48143.65
750.33	48069.92
750.52	48194.85
750.70	48143.65
750.89	46916.92
751.07	47467.82
751.26	47709.48
751.44	47682.86
751.63	47564.07
751.81	46884.15
752.00	47525.16
752.18	47541.55
752.37	47486.25
752.55	47080.75
752.74	47279.41
752.92	47177.01
753.10	46843.19
753.29	47615.27
753.47	46966.07
753.66	47197.49
753.84	47041.84
754.03	46699.83
754.21	46689.59
754.40	46986.55
754.58	46683.45
754.77	46562.62
754.95	46935.35
755.14	46421.31
755.32	46863.67
755.51	46599.48
755.69	46333.24
755.88	46617.91
756.06	47113.52
756.24	46505.27
756.43	46208.32
756.61	46783.80
756.80	46615.86
756.98	46363.96
757.17	46540.09
757.35	46488.89
757.54	46478.65
757.72	46503.23
757.90	46480.70
758.09	46316.86
758.27	46120.26
758.46	46036.29
758.64	45974.85
758.83	46339.39
759.01	45886.79
759.19	46316.86
759.38	46087.49
759.56	45931.84
759.75	45958.47
759.93	45890.88
760.12	46021.95
760.30	45845.83
760.48	45839.68
760.67	45899.08
760.85	45825.35
761.04	45665.61
761.22	45614.41
761.40	46028.10
761.59	45315.40
761.77	45151.57
761.96	45561.16
762.14	45569.35
762.32	45260.11
762.51	44963.15
762.69	45366.60
762.88	45284.68
763.06	45262.16
763.24	45536.59
763.43	45356.36
763.61	45110.61
763.80	44655.96
763.98	45004.11
764.16	45049.17
764.35	44864.85
764.53	44651.86
764.72	45200.72
764.90	44959.06
765.08	44553.56
765.27	45114.70
765.45	44725.59
765.63	44305.76
765.82	44680.53
766.00	44383.58
766.18	44293.47
766.37	44571.99
766.55	43744.61
766.74	44653.91
766.92	43949.41
767.10	44264.80
767.29	44485.98
767.47	43761.00
767.65	44168.54
767.84	43761.00
768.02	44326.24
768.20	43548.01
768.39	44002.66
768.57	43771.24
768.75	43818.34
768.94	43636.07
769.12	43701.61
769.30	43292.01
769.49	43390.31
769.67	43775.33
769.85	43484.52
770.04	43521.38
770.22	43201.90
770.40	43119.98
770.59	43523.43
770.77	43767.14
770.95	43249.00
771.14	42810.74
771.32	42868.08
771.50	42882.42
771.69	42984.82
771.87	43199.85
772.05	42859.89
772.24	42640.76
772.42	42978.67
772.60	42825.07
772.78	42214.78
772.97	42524.02
773.15	42950.00
773.33	42554.74
773.52	42603.89
773.70	42540.41
773.88	42796.40
774.07	42241.40
774.25	42556.79
774.43	42866.03
774.61	42726.77
774.80	42413.43
774.98	42513.78
775.16	42540.41
775.34	42812.79
775.53	42321.27
775.71	42966.38
775.89	42700.15
776.08	42517.88
776.26	43048.30
776.44	42417.53
776.62	42601.85
776.81	42212.73
776.99	42661.24
777.17	42513.78
777.35	43236.72
777.54	42911.09
777.72	42628.47
777.90	42382.71
778.08	43023.73
778.27	43038.06
778.45	42974.58
778.63	43158.89
778.81	42749.30
779.00	43466.09
779.18	43042.16
779.36	43283.82
779.54	42986.86
779.73	43222.38
779.91	43134.32
780.09	43267.44
780.27	43101.55
780.46	43416.94
780.64	43365.74
780.82	43105.65
781.00	43036.02
781.19	43500.90
781.37	43380.07
781.55	43369.83
781.73	43597.16
781.91	43367.79
782.10	43668.84
782.28	43707.75
782.46	43634.02
782.64	43466.09
782.82	43042.16
783.01	43816.29
783.19	43715.94
783.37	43554.15
783.55	43355.50
783.74	44178.78
783.92	43322.73
784.10	43924.83
784.28	43629.93
784.46	43414.89
784.64	43363.69
784.83	43548.01
785.01	43754.85
785.19	43015.54
785.37	43910.50
785.55	43455.85
785.74	43328.87
785.92	43261.29
786.10	43732.32
786.28	43373.93
786.46	43048.30
786.64	43072.88
786.83	43240.81
787.01	43378.03
787.19	43427.18
787.37	43443.56
787.55	43296.11
787.74	42677.62
787.92	43382.12
788.10	42737.01
788.28	43025.78
788.46	42927.47
788.64	42634.61
788.82	43062.64
789.01	42745.20
789.19	42597.75
789.37	42714.48
789.55	42220.92
789.73	42272.12
789.91	42331.51
790.09	42382.71
790.28	42358.14
790.46	42145.15
790.64	42108.29
790.82	42067.33
791.00	42034.56
791.18	41731.46
791.36	41909.63
791.55	41848.19
791.73	41696.64
791.91	41569.67
792.09	41737.60
792.27	41928.06
792.45	41956.74
792.63	41680.26
792.81	41360.78
793.00	41244.04
793.18	41252.23
793.36	41094.54
793.54	40852.88
793.72	41059.73
793.90	40807.83
794.08	40621.46
794.26	40873.36
794.44	40861.07
794.62	40310.17
794.81	40451.48
794.99	40406.42
795.17	40328.60
795.35	40080.80
795.53	40447.38
795.71	40371.61
795.89	40226.20
796.07	39468.45
796.25	39474.60
796.43	39646.63
796.61	39419.30
796.80	39675.30
796.98	39746.98
797.16	39714.21
797.34	39429.54
797.52	39226.79
797.70	39482.79
797.88	39015.85
798.06	39087.53
798.24	39056.81
798.42	38716.85
798.60	38786.48
798.78	38399.41
798.96	39112.11
799.14	38532.53
799.32	38485.43
799.51	37948.86
799.69	38688.18
799.87	38370.74
800.05	37967.29
800.23	37967.29
800.41	38012.35
800.59	37780.93
800.77	37934.53
800.95	37557.70
801.13	37588.42
801.31	37514.69
801.49	37572.03
801.67	37074.38
801.85	37383.62
802.03	37246.41
802.21	36902.35
802.39	36994.51
802.57	36666.83
802.75	36695.50
802.93	37320.13
803.11	37008.84
803.29	36664.78
803.47	36388.31
803.65	36255.19
803.83	36664.78
804.01	36629.97
804.19	36240.86
804.37	36363.73
804.55	36349.40
804.73	36144.60
804.91	35825.12
805.09	35778.01
805.27	35915.23
805.45	35991.00
805.63	36062.68
805.81	35935.71
805.99	35749.34
806.17	35741.15
806.35	35591.65
806.53	34901.48
806.71	35442.15
806.89	35261.93
807.07	35284.45
807.25	35780.06
807.43	34848.24
807.61	35186.15
807.79	35190.25
807.97	34967.02
808.15	34866.67
808.33	34741.74
808.51	34418.16
808.69	34651.63
808.87	34399.73
809.05	34620.91
809.23	34244.09
809.41	34182.65
809.59	34100.73
809.77	34106.87
809.95	33717.76
810.13	33867.26
810.31	33709.57
810.49	33965.56
810.67	33777.15
810.84	33693.18
811.02	34100.73
811.20	33553.92
811.38	33859.07
811.56	33424.90
811.74	33639.93
811.92	33136.13
812.10	33263.11
812.28	33410.56
812.46	33213.96
812.64	33187.33
812.82	33099.27
813.00	32976.39
813.18	32939.53
813.36	32710.16
813.53	32794.12
813.71	32869.90
813.89	32499.22
814.07	32706.06
814.25	32808.46
814.43	32509.46
814.61	32323.09
814.79	32214.55
814.97	32280.08
815.15	32063.00
815.33	31960.60
815.50	32032.28
815.68	32249.36
815.86	32658.96
816.04	31743.52
816.22	31909.40
816.40	31850.01
816.58	31581.73
816.76	31692.32
816.94	31985.18
817.11	31542.81
817.29	31782.43
817.47	31604.25
817.65	31692.32
817.83	31342.11
818.01	31057.45
818.19	31307.30
818.37	31491.62
818.54	31088.17
818.72	31028.77
818.90	31006.25
819.08	31278.63
819.26	31297.06
819.44	31299.11
819.62	30897.70
819.80	31047.21
819.97	30914.09
820.15	30799.40
820.33	30721.58
820.51	31014.44
820.69	30430.77
820.87	30594.61
821.05	30508.59
821.22	30553.65
821.40	30883.37
821.58	30750.25
821.76	30318.13
821.94	30416.43
822.12	30492.21
822.29	30484.01
822.47	29969.97
822.65	30277.17
822.83	30514.73
823.01	30002.74
823.19	29847.10
823.36	29662.78
823.54	29564.48
823.72	29789.75
823.90	29775.42
824.08	29726.27
824.25	29357.63
824.43	29558.33
824.61	29568.57
824.79	29462.08
824.97	29142.60
825.15	29552.19
825.32	29558.33
825.50	29146.69
825.68	29359.68
825.86	29767.23
826.04	29265.47
826.21	29359.68
826.39	29281.86
826.57	28927.56
826.75	29056.58
826.93	28778.06
827.10	29025.86
827.28	28950.09
827.46	29304.38
827.64	29077.06
827.81	28612.17
827.99	28941.89
828.17	28962.37
828.35	28513.87
828.53	28792.39
828.70	28583.50
828.88	28640.84
829.06	28618.32
829.24	28636.75
829.41	28438.09
829.59	28786.25
829.77	28663.37
829.95	28397.13
830.12	28116.56
830.30	28288.59
830.48	28200.53
830.66	28450.38
830.84	28511.82
831.01	28274.26
831.19	28241.49
831.37	28272.21
831.55	28085.84
831.72	27995.73
831.90	28204.63
832.08	28247.63
832.25	28034.64
832.43	27954.77
832.61	27770.46
832.79	27743.83
832.96	27563.61
833.14	27577.95
833.32	27772.50
833.50	27860.57
833.67	27788.89
833.85	27731.54
834.03	27371.10
834.20	27455.07
834.38	27762.26
834.56	27592.28
834.74	27559.52
834.91	27403.87
835.09	27350.62
835.27	27147.87
835.44	26959.46
835.62	26984.04
835.80	27168.35
835.98	27438.69
836.15	27065.96
836.33	27076.19
836.51	27096.67
836.68	26826.34
836.86	26748.52
837.04	26838.63
837.21	27051.62
837.39	26637.93
837.57	26891.88
837.75	26787.43
837.92	26330.73
838.10	26601.07
838.28	26179.18
838.45	26631.79
838.63	26476.14
838.81	26654.31
838.98	26689.13
839.16	26404.46
839.34	26308.21
839.51	26226.29
839.69	26201.71
839.87	26111.60
840.04	26269.30
840.22	26627.69
840.40	26207.86
840.57	25898.61
840.75	26197.62
840.93	25790.07
841.10	26193.52
841.28	26377.84
841.46	26037.87
841.63	26066.55
841.81	26236.53
841.98	25908.85
842.16	25871.99
842.34	25947.76
842.51	25675.38
842.69	25720.44
842.87	25835.13
843.04	25745.02
843.22	25824.89
843.40	25527.93
843.57	25632.38
843.75	25413.24
843.92	25792.12
844.10	25507.45
844.28	25659.00
844.45	25601.66
844.63	25165.44
844.81	25165.44
844.98	25308.80
845.16	25204.35
845.33	25353.85
845.51	25196.16
845.69	24972.93
845.86	25126.53
846.04	25110.14
846.21	25280.13
846.39	25147.01
846.57	24964.74
846.74	25069.19
846.92	25022.08
847.09	25040.51
847.27	24499.85
847.45	24940.16
847.62	24663.69
847.80	25065.09
847.97	24589.96
848.15	24874.63
848.32	24491.66
848.50	24456.84
848.68	24616.58
848.85	24536.71
849.03	24329.87
849.20	24684.17
849.38	24508.04
849.56	24444.56
849.73	24344.20
849.91	24288.91
850.08	24243.85
850.26	24100.50
850.43	24198.80
850.61	24594.06
850.78	23926.42
850.96	24387.21
851.14	24080.02
851.31	23932.56
851.49	24104.59
851.66	24186.51
851.84	24088.21
852.01	24069.78
852.19	24276.62
852.36	24127.12
852.54	23994.00
852.71	23891.60
852.89	24004.24
853.07	24045.20
853.24	23840.40
853.42	23692.95
853.59	23676.57
853.77	23871.12
853.94	23768.73
854.12	23971.47
854.29	23604.89
854.47	23709.33
854.64	23402.14
854.82	23295.64
854.99	23588.50
855.17	23697.05
855.34	23287.45
855.52	23441.05
855.69	23486.11
855.87	23293.60
856.04	22988.45
856.22	23256.73
856.39	23289.50
856.57	23209.63
856.74	23002.78
856.92	23635.61
857.09	23174.81
857.27	23283.36
857.44	23260.83
857.62	23199.39
857.79	23053.98
857.97	22949.54
858.14	22605.48
858.32	22922.91
858.49	23037.60
858.67	22992.55
858.84	22714.02
859.02	23185.05
859.19	22845.09
859.37	22484.65
859.54	22568.62
859.72	22943.39
859.89	22892.19
860.06	22943.39
860.24	22548.14
860.41	22650.53
860.59	22277.80
860.76	22722.21
860.94	22113.97
861.11	22359.72
861.29	22408.87
861.46	22470.31
861.64	22208.17
861.81	22380.20
861.98	22587.05
862.16	22093.49
862.33	21927.60
862.51	21866.16
862.68	22292.14
862.86	22138.54
863.03	22132.40
863.21	22060.72
863.38	22081.20
863.55	21864.11
863.73	22093.49
863.90	21905.07
864.08	21857.97
864.25	22054.58
864.43	21798.58
864.60	21774.00
864.77	21548.73
864.95	22023.86
865.12	21939.89
865.30	21712.56
865.47	21579.45
865.64	21407.42
865.82	21483.19
865.99	21821.11
866.17	21538.49
866.34	21698.23
866.51	21364.41
866.69	21546.68
866.86	21542.58
867.04	21497.53
867.21	21616.31
867.38	21296.83
867.56	21118.65
867.73	21122.75
867.91	21294.78
868.08	21108.41
868.25	21083.84
868.43	21233.34
868.60	21036.74
868.78	20960.96
868.95	21188.28
869.12	21053.12
869.30	20971.20
869.47	20909.76
869.64	20887.23
869.82	20901.57
869.99	20889.28
870.16	20965.06
870.34	20623.05
870.51	20766.40
870.69	20643.52
870.86	20592.33
871.03	20770.50
871.21	20604.61
871.38	20758.21
871.55	20426.44
871.73	20321.99
871.90	20182.73
872.07	19996.37
872.25	19826.39
872.42	20248.27
872.59	20397.77
872.77	19949.26
872.94	20192.97
873.11	19967.70
873.29	20223.69
873.46	19877.58
873.63	19879.63
873.81	19764.95
873.98	19635.92
874.15	19797.71
874.33	19668.69
874.50	19533.53
874.67	19631.83
874.85	19566.29
875.02	19486.42
875.19	19424.98
875.37	19375.83
875.54	19457.75
875.71	19408.60
875.88	19033.82
876.06	19195.61
876.23	19416.79
876.40	19226.33
876.58	19171.04
876.75	19060.45
876.92	19101.40
877.10	19388.12
877.27	19023.58
877.44	18837.22
877.61	18849.50
877.79	18863.84
877.96	18956.00
878.13	18673.38
878.31	19017.44
878.48	18759.39
878.65	18804.45
878.82	18743.01
879.00	18790.11
879.17	18849.50
879.34	18796.26
879.51	18695.91
879.69	18448.10
879.86	18392.81
880.03	18274.03
880.21	18493.16
880.38	18357.99
880.55	18538.21
880.72	18484.97
880.90	18388.71
881.07	18333.42
881.24	18058.99
881.41	18306.79
881.59	18083.56
881.76	18118.38
881.93	18138.86
882.10	17997.55
882.28	18011.89
882.45	18106.09
882.62	18183.91
882.79	18185.96
882.96	17897.20
883.14	17987.31
883.31	18005.74
883.48	17778.42
883.65	17843.95
883.83	18048.75
884.00	17950.45
884.17	17909.49
884.34	18200.30
884.51	17741.55
884.69	17731.31
884.86	17755.89
885.03	17751.79
885.20	17403.64
885.38	17764.08
885.55	17663.73
885.72	17628.92
885.89	17592.05
886.06	17784.56
886.24	17483.51
886.41	17592.05
886.58	17798.90
886.75	17696.50
886.92	17436.41
887.10	17573.62
887.27	17325.82
887.44	17338.10
887.61	17495.80
887.78	17575.67
887.95	17497.84
888.13	17450.74
888.30	17182.46
888.47	17243.90
888.64	17090.30
888.81	17018.62
888.99	16885.50
889.16	16910.08
889.33	17094.40
889.50	16887.55
889.67	16676.61
889.84	16865.02
890.01	17086.20
890.19	16977.66
890.36	16895.74
890.53	16813.82
890.70	16662.27
890.87	16574.21
891.04	16766.72
891.22	16695.04
891.39	16768.77
891.56	16557.83
891.73	16510.72
891.90	16609.03
892.07	16457.48
892.24	16469.76
892.42	16467.72
892.59	16414.47
892.76	16504.58
892.93	16422.66
893.10	16516.87
893.27	16391.94
893.44	16232.20
893.61	16049.93
893.79	16367.37
893.96	16230.15
894.13	16191.24
894.30	16527.11
894.47	16176.91
894.64	16437.00
894.81	16213.77
894.98	16330.50
895.15	15927.05
895.33	16142.09
895.50	16338.69
895.67	16625.41
895.84	16375.56
896.01	15990.54
896.18	16137.99
896.35	16195.34
896.52	16314.12
896.69	16224.01
896.86	16299.78
897.04	16422.66
897.21	16019.21
897.38	16166.67
897.55	16221.96
897.72	16330.50
897.89	15968.01
898.06	16221.96
898.23	16217.86
898.40	15978.25
898.57	16080.65
898.74	16019.21
898.91	16205.58
899.08	16199.43
899.26	16240.39
899.43	16148.23
899.60	15947.53
899.77	16135.95
899.94	15986.44
900.11	16119.56
900.28	16203.53
900.45	16017.16
900.62	16019.21
900.79	15970.06
900.96	15961.87
901.13	16019.21
901.30	15814.41
901.47	15884.05
901.64	15767.31
901.81	15847.18
901.98	15605.52
902.15	16092.94
902.32	15550.23
902.49	16004.88
902.66	15888.14
902.83	15941.39
903.01	15677.20
903.18	15851.28
903.35	15798.03
903.52	15666.96
903.69	15982.35
903.86	16088.84
904.03	15939.34
904.20	16051.98
904.37	16181.00
904.54	15869.71
904.71	15812.37
904.88	16033.55
905.05	15929.10
905.22	16215.82
905.39	15974.16
905.56	15802.13
905.73	15736.59
905.90	15888.14
906.07	15746.83
906.24	15750.93
906.41	15824.65
906.58	15900.43
906.75	15734.54
906.92	15574.80
907.09	15793.94
907.26	15863.57
907.43	15640.34
907.60	15523.60
907.77	15789.84
907.93	15806.22
908.10	15617.81
908.27	15724.30
908.44	15537.94
908.61	15748.88
908.78	15750.93
908.95	15591.19
909.12	15578.90
909.29	15599.38
909.46	15798.03
909.63	15519.51
909.80	15617.81
909.97	15675.15
910.14	15683.34
910.31	15662.86
910.48	15617.81
910.65	15755.02
910.82	15736.59
910.99	15378.20
911.16	15595.28
911.33	15818.51
911.50	15380.25
911.66	15382.29
911.83	15509.27
912.00	15232.79
912.17	15148.82
912.34	15333.14
912.51	15159.06
912.68	15206.17
912.85	15247.13
913.02	15249.18
913.19	15169.30
913.36	15234.84
913.53	15474.45
913.70	15281.94
913.86	15071.00
914.03	15185.69
914.20	15134.49
914.37	15152.92
914.54	15017.75
914.71	14855.97
914.88	14950.17
915.05	14898.97
915.22	14829.34
915.39	15030.04
915.55	14731.04
915.72	14800.67
915.89	14671.65
916.06	14677.79
916.23	14810.91
916.40	14634.78
916.57	14425.89
916.74	14507.81
916.91	14518.05
917.07	14434.08
917.24	14436.13
917.41	14235.43
917.58	14323.49
917.75	14135.08
917.92	14196.52
918.09	14274.34
918.26	14389.03
918.42	14184.23
918.59	14323.49
918.76	14094.12
918.93	14190.38
919.10	13975.34
919.27	14018.35
919.44	14186.28
919.60	14118.70
919.77	13948.72
919.94	13545.27
920.11	13848.36
920.28	13995.82
920.45	13795.12
920.61	13481.78
920.78	13799.21
920.95	13688.62
921.12	13389.62
921.29	13352.76
921.46	13510.45
921.62	13281.08
921.79	13399.86
921.96	13242.17
922.13	13240.12
922.30	13223.73
922.47	13074.23
922.63	13084.47
922.80	13166.39
922.97	13078.33
923.14	12922.68
923.31	13053.75
923.47	12898.11
923.64	12988.22
923.81	12795.71
923.98	12926.78
924.15	12760.89
924.32	12814.14
924.48	12695.36
924.65	12771.13
924.82	12531.52
924.99	12324.68
925.15	12259.14
925.32	12508.99
925.49	12173.13
925.66	12097.35
925.83	12255.04
925.99	11964.23
926.16	12341.06
926.33	12336.96
926.50	11951.95
926.67	12146.50
926.83	12035.91
927.00	12105.54
927.17	11837.26
927.34	11831.12
927.50	11867.98
927.67	11810.64
927.84	11786.06
928.01	11958.09
928.17	11458.39
928.34	11708.24
928.51	11974.47
928.68	11431.76
928.84	11396.95
929.01	11435.86
929.18	11331.41
929.35	11261.78
929.51	11286.36
929.68	11130.71
929.85	11112.28
930.02	11181.91
930.18	11087.70
930.35	11106.13
930.52	11145.05
930.69	11104.09
930.85	10909.53
931.02	10751.84
931.19	10768.22
931.36	10821.47
931.52	10594.14
931.69	10811.23
931.86	10493.79
932.02	10555.23
932.19	10499.94
932.36	10338.15
932.53	10377.06
932.69	10389.35
932.86	10241.89
933.03	10403.68
933.19	10176.36
933.36	10078.05
933.53	10385.25
933.70	10114.92
933.86	10014.57
934.03	9957.22
934.20	9824.11
934.36	9899.88
934.53	9707.37
934.70	9516.91
934.86	9600.88
935.03	9512.81
935.20	9414.51
935.36	9482.10
935.53	9211.76
935.70	9277.30
935.86	9342.83
936.03	9238.39
936.20	8785.79
936.36	8875.90
936.53	8849.27
936.70	8834.94
936.86	8994.68
937.03	8785.79
937.20	8650.62
937.36	8687.48
937.53	8333.18
937.70	8226.69
937.86	8251.27
938.03	8241.03
938.20	8263.55
938.36	8019.85
938.53	7813.00
938.70	7630.73
938.86	7817.10
939.03	7825.29
939.20	7614.35
939.36	7470.99
939.53	7452.56
939.70	7532.43
939.86	7370.64
940.03	7210.90
940.19	7075.73
940.36	6879.13
940.53	7016.34
940.69	6846.36
940.86	6852.50
941.03	6754.20
941.19	6485.92
941.36	6506.40
941.52	6664.09
941.69	6332.32
941.86	6471.58
942.02	6430.62
942.19	6344.61
942.35	6369.18
942.52	6246.30
942.69	6152.10
942.85	6109.09
943.02	6047.65
943.18	6016.93
943.35	6000.55
943.52	6008.74
943.68	5840.81
943.85	5793.70
944.01	5746.60
944.18	5760.94
944.35	5894.05
944.51	5779.37
944.68	5617.58
944.84	5703.59
945.01	5732.26
945.17	5756.84
945.34	5582.76
945.51	5662.63
945.67	5676.97
945.84	5580.71
946.00	5648.30
946.17	5572.52
946.33	5439.40
946.50	5529.52
946.67	5566.38
946.83	5386.16
947.00	5470.12
947.16	5455.79
947.33	5308.34
947.49	5498.80
947.66	5447.60
947.82	5535.66
947.99	5388.21
948.16	5545.90
948.32	5384.11
948.49	5396.40
948.65	5466.03
948.82	5517.23
948.98	5359.53
949.15	5359.53
949.31	5570.48
949.48	5482.41
949.64	5402.54
949.81	5517.23
949.97	5433.26
950.14	5562.28
950.30	5466.03
950.47	5541.80
950.63	5435.31
950.80	5343.15
950.96	5459.88
951.13	5439.40
951.30	5488.56
951.46	5547.95
951.63	5609.39
951.79	5519.28
951.96	5638.06
952.12	5425.07
952.29	5482.41
952.45	5586.86
952.62	5613.48
952.78	5654.44
952.94	5545.90
953.11	5570.48
953.27	5498.80
953.44	5554.09
953.60	5666.73
953.77	5621.67
953.93	5648.30
954.10	5609.39
954.26	5666.73
954.43	5607.34
954.59	5756.84
954.76	5656.49
954.92	5572.52
955.09	5691.31
955.25	5670.83
955.42	5459.88
955.58	5754.79
955.75	5715.88
955.91	5568.43
956.07	5666.73
956.24	5642.15
956.40	5724.07
956.57	5771.18
956.73	5722.02
956.90	5685.16
957.06	5672.87
957.23	5640.11
957.39	5597.10
957.56	5529.52
957.72	5722.02
957.88	5605.29
958.05	5730.22
958.21	5719.98
958.38	5588.91
958.54	5640.11
958.71	5767.08
958.87	5619.63
959.03	5595.05
959.20	5607.34
959.36	5670.83
959.53	5642.15
959.69	5558.19
959.85	5650.35
960.02	5662.63
960.18	5586.86
960.35	5717.93
960.51	5707.69
960.68	5629.87
960.84	5517.23
961.00	5642.15
961.17	5670.83
961.33	5681.07
961.50	5711.78
961.66	5691.31
961.82	5646.25
961.99	5662.63
962.15	5582.76
962.31	5506.99
962.48	5601.19
962.64	5633.96
962.81	5547.95
962.97	5554.09
963.13	5564.33
963.30	5697.45
963.46	5554.09
963.62	5593.00
963.79	5517.23
963.95	5498.80
964.12	5570.48
964.28	5654.44
964.44	5513.13
964.61	5582.76
964.77	5631.91
964.93	5691.31
965.10	5566.38
965.26	5437.36
965.42	5377.97
965.59	5439.40
965.75	5509.04
965.92	5388.21
966.08	5521.32
966.24	5470.12
966.41	5361.58
966.57	5515.18
966.73	5543.85
966.90	5373.87
967.06	5429.17
967.22	5429.17
967.39	5492.65
967.55	5314.48
967.71	5439.40
967.88	5386.16
968.04	5451.69
968.20	5377.97
968.37	5226.42
968.53	5361.58
968.69	5294.00
968.85	5386.16
969.02	5316.53
969.18	5361.58
969.34	5332.91
969.51	5367.73
969.67	5353.39
969.83	5240.75
970.00	5302.19
970.16	5400.49
970.32	5273.52
970.48	5394.35
970.65	5212.08
970.81	5140.40
970.97	5207.98
971.14	5101.49
971.30	5296.05
971.46	5183.41
971.63	5253.04
971.79	5144.50
971.95	5179.31
972.11	5076.91
972.28	5056.43
972.44	5222.32
972.60	5181.36
972.76	5107.63
972.93	5107.63
973.09	5099.44
973.25	5097.39
973.42	5033.91
973.58	5171.12
973.74	5035.96
973.90	5138.35
974.07	5062.58
974.23	5017.52
974.39	5017.52
974.55	5054.39
974.72	5033.91
974.88	5040.05
975.04	5044.15
975.20	4945.84
975.37	4984.76
975.53	4870.07
975.69	4939.70
975.85	4923.32
976.01	4870.07
976.18	4876.21
976.34	4847.54
976.50	4933.56
976.66	5050.29
976.83	4868.02
976.99	4986.80
977.15	4876.21
977.31	4790.20
977.47	4941.75
977.64	4825.01
977.80	4923.32
977.96	4710.33
978.12	4749.24
978.29	4753.34
978.45	4722.62
978.61	4720.57
978.77	4732.86
978.93	4716.47
979.10	4741.05
979.26	4685.75
979.42	4663.22
979.58	4609.98
979.74	4538.30
979.91	4691.90
980.07	4693.94
980.23	4642.75
980.39	4542.39
980.55	4689.85
980.71	4540.35
980.88	4478.91
981.04	4437.95
981.20	4579.26
981.36	4603.83
981.52	4503.48
981.68	4437.95
981.85	4593.59
982.01	4577.21
982.17	4483.00
982.33	4405.18
982.49	4450.24
982.65	4368.32
982.82	4485.05
982.98	4517.82
983.14	4298.69
983.30	4519.87
983.46	4460.48
983.62	4317.12
983.79	4399.04
983.95	4403.13
984.11	4192.19
984.27	4282.30
984.43	4384.70
984.59	4351.93
984.75	4376.51
984.91	4308.93
985.08	4349.89
985.24	4366.27
985.40	4237.25
985.56	4222.91
985.72	4323.26
985.88	4231.10
986.04	4198.34
986.20	4300.73
986.37	4196.29
986.53	4171.71
986.69	4198.34
986.85	4136.90
987.01	4104.13
987.17	4249.54
987.33	4267.97
987.49	4054.98
987.65	4110.27
987.82	4122.56
987.98	4034.50
988.14	4001.73
988.30	4040.64
988.46	4124.61
988.62	4081.60
988.78	3950.53
988.94	3968.96
989.10	4077.51
989.26	3942.34
989.42	4036.55
989.59	3946.44
989.75	3770.31
989.91	3899.33
990.07	3856.33
990.23	3885.00
990.39	3962.82
990.55	3854.28
990.71	3823.56
990.87	3878.85
991.03	3872.71
991.19	3815.37
991.35	3833.80
991.51	3983.30
991.67	3889.09
991.83	3911.62
992.00	3858.37
992.16	3715.02
992.32	3784.65
992.48	3911.62
992.64	3741.64
992.80	3932.10
992.96	3815.37
993.12	3887.04
993.28	3798.98
993.44	3715.02
993.60	3743.69
993.76	3755.97
993.92	3698.63
994.08	3758.02
994.24	3762.12
994.40	3702.73
994.56	3719.11
994.72	3624.90
994.88	3684.30
995.04	3604.42
995.20	3614.66
995.36	3620.81
995.52	3647.43
995.68	3555.27
995.84	3542.99
996.00	3680.20
996.16	3598.28
996.32	3575.75
996.48	3411.92
996.64	3672.01
996.80	3409.87
996.96	3577.80
997.12	3585.99
997.28	3518.41
997.44	3450.83
997.60	3495.88
997.76	3495.88
997.92	3512.27
998.08	3418.06
998.24	3375.05
998.40	3436.49
998.56	3557.32
998.72	3352.52
998.88	3540.94
999.04	3510.22
999.20	3549.13
999.36	3350.48
999.52	3506.12
999.68	3332.05
999.84	3549.13
1000.00	3370.96
1000.16	3366.86
1000.32	3305.42
1000.48	3473.36
1000.64	3362.76
1000.80	3174.35
1000.95	3254.22
1001.11	3233.74
1001.27	3239.89
1001.43	3278.80
1001.59	3153.87
1001.75	3207.12
1001.91	3254.22
1002.07	3231.69
1002.23	3153.87
1002.39	3215.31
1002.55	3090.38
1002.71	3162.06
1002.87	3137.49
1003.03	3108.82
1003.19	3096.53
1003.34	3196.88
1003.50	3233.74
1003.66	3133.39
1003.82	3145.68
1003.98	3149.78
1004.14	3078.10
1004.30	3098.58
1004.46	3084.24
1004.62	3057.62
1004.78	3098.58
1004.94	3133.39
1005.09	3059.67
1005.25	3098.58
1005.41	3028.95
1005.57	3108.82
1005.73	3133.39
1005.89	3018.71
1006.05	3080.14
1006.21	3157.97
1006.37	3045.33
1006.52	2944.98
1006.68	2932.69
1006.84	3057.62
1007.00	2877.40
1007.16	3006.42
1007.32	3014.61
1007.48	3057.62
1007.64	2987.99
1007.79	2869.20
1007.95	2924.50
1008.11	2994.13
1008.27	2906.07
1008.43	2873.30
1008.59	2998.23
1008.75	2924.50
1008.91	2861.01
1009.06	2910.16
1009.22	2828.24
1009.38	2934.74
1009.54	2863.06
1009.70	2834.39
1009.86	2834.39
1010.01	2861.01
1010.17	2785.24
1010.33	2877.40
1010.49	2840.53
1010.65	2973.65
1010.81	2762.71
1010.96	2818.00
1011.12	2781.14
1011.28	2721.75
1011.44	2801.62
1011.60	2746.33
1011.76	2715.61
1011.91	2893.78
1012.07	2549.72
1012.23	2752.47
1012.39	2656.22
1012.55	2744.28
1012.71	2707.41
1012.86	2621.40
1013.02	2699.22
1013.18	2684.89
1013.34	2695.13
1013.50	2787.29
1013.65	2770.90
1013.81	2594.78
1013.97	2562.01
1014.13	2686.94
1014.29	2559.96
1014.44	2766.81
1014.60	2582.49
1014.76	2680.79
1014.92	2559.96
1015.07	2678.74
1015.23	2725.85
1015.39	2473.95
1015.55	2566.10
1015.71	2549.72
1015.86	2541.53
1016.02	2543.58
1016.18	2416.60
1016.34	2576.34
1016.49	2564.06
1016.65	2580.44
1016.81	2559.96
1016.97	2521.05
1017.12	2559.96
1017.28	2519.00
1017.44	2498.52
1017.60	2465.75
1017.75	2519.00
1017.91	2519.00
1018.07	2502.62
1018.23	2422.75
1018.38	2445.27
1018.54	2478.04
1018.70	2453.47
1018.86	2402.27
1019.01	2383.84
1019.17	2469.85
1019.33	2611.16
1019.49	2482.14
1019.64	2482.14
1019.80	2406.36
1019.96	2498.52
1020.12	2338.78
1020.27	2334.68
1020.43	2371.55
1020.59	2365.40
1020.74	2447.32
1020.90	2498.52
1021.06	2408.41
1021.22	2369.50
1021.37	2412.51
1021.53	2299.87
1021.69	2404.32
1021.84	2273.25
1022.00	2383.84
1022.16	2312.16
1022.31	2301.92
1022.47	2344.92
1022.63	2387.93
1022.79	2273.25
1022.94	2351.07
1023.10	2375.64
1023.26	2293.72
1023.41	2246.62
1023.57	2209.76
1023.73	2318.30
1023.88	2293.72
1024.04	2242.53
1024.20	2185.18
1024.35	2316.25
1024.51	2295.77
1024.67	2199.52
1024.82	2435.03
1024.98	2217.95
1025.14	2361.31
1025.29	2228.19
1025.45	2346.97
1025.61	2154.46
1025.76	2136.03
1025.92	2152.42
1026.08	2283.49
1026.23	2271.20
1026.39	2258.91
1026.55	2211.81
1026.70	2215.90
1026.86	2244.57
1027.02	2220.00
1027.17	2217.95
1027.33	2232.29
1027.48	2082.78
1027.64	2213.85
1027.80	2158.56
1027.95	2181.09
1028.11	2133.98
1028.27	2187.23
1028.42	2176.99
1028.58	2156.51
1028.73	2133.98
1028.89	2080.74
1029.05	2183.13
1029.20	2195.42
>>>>>End Processed Spectral Data<<<<<
