SpectraSuite Data File
++++++++++++++++++++++++++++++++++++
Date: Fri Jun 02 14:41:57 CEST 2017
User: INFO_000
Dark Spectrum Present: No
Reference Spectrum Present: No
Number of Sampled Component Spectra: 1
Spectrometers: USB4H00879
Integration Time (usec): 80000 (USB4H00879)
Spectra Averaged: 1 (USB4H00879)
Boxcar Smoothing: 0 (USB4H00879)
Correct for Electrical Dark: No (USB4H00879)
Strobe/Lamp Enabled: No (USB4H00879)
Correct for Detector Non-linearity: No (USB4H00879)
Correct for Stray Light: No (USB4H00879)
Number of Pixels in Processed Spectrum: 3648
>>>>>Begin Processed Spectral Data<<<<<
345.13	1300.46
345.34	1300.46
345.56	1300.46
345.78	1335.28
345.99	1222.64
346.21	1724.39
346.42	1624.04
346.64	1597.42
346.86	1832.93
347.07	1636.33
347.29	1675.24
347.50	1634.28
347.72	1656.81
347.94	1665.00
348.15	1566.70
348.37	1525.74
348.59	1679.33
348.80	1619.94
349.02	1787.88
349.23	1808.36
349.45	1830.88
349.67	1820.64
349.88	1791.97
350.10	1974.24
350.31	1832.93
350.53	1779.68
350.75	1914.85
350.96	1853.41
351.18	1918.95
351.39	1867.75
351.61	1853.41
351.82	1951.71
352.04	1886.18
352.26	1847.27
352.47	1867.75
352.69	1884.13
352.90	1724.39
353.12	1861.60
353.34	1880.04
353.55	1939.43
353.77	1900.52
353.98	1855.46
354.20	1771.49
354.41	1927.14
354.63	1939.43
354.85	2093.02
355.06	2007.01
355.28	1812.45
355.49	1961.95
355.71	1863.65
355.92	1832.93
356.14	1927.14
356.35	1808.36
356.57	1822.69
356.79	1920.99
357.00	1904.61
357.22	1988.58
357.43	1785.83
357.65	1914.85
357.86	1880.04
358.08	1847.27
358.29	1978.34
358.51	1978.34
358.72	1929.19
358.94	1898.47
359.16	1937.38
359.37	1953.76
359.59	1941.47
359.80	2062.30
360.02	2009.06
360.23	1933.28
360.45	1978.34
360.66	1961.95
360.88	1873.89
361.09	1955.81
361.31	2029.54
361.52	2007.01
361.74	2129.89
361.95	2154.46
362.17	1943.52
362.38	2027.49
362.60	2043.87
362.81	1990.63
363.03	1912.80
363.24	1970.15
363.46	2093.02
363.67	2019.30
363.89	2041.82
364.10	2050.02
364.32	1957.86
364.53	2105.31
364.75	1869.80
364.96	2015.20
365.18	2045.92
365.39	1929.19
365.61	2031.58
365.82	2074.59
366.04	2031.58
366.25	1949.67
366.47	2101.22
366.68	2043.87
366.90	1994.72
367.11	2056.16
367.33	2164.70
367.54	2054.11
367.76	2025.44
367.97	2115.55
368.19	1992.67
368.40	2007.01
368.62	2027.49
368.83	1966.05
369.05	2072.54
369.26	1996.77
369.48	1961.95
369.69	2047.97
369.91	1998.82
370.12	2064.35
370.33	2113.50
370.55	2009.06
370.76	2052.06
370.98	2043.87
371.19	2101.22
371.41	2093.02
371.62	2062.30
371.84	1964.00
372.05	2115.55
372.27	2062.30
372.48	2103.26
372.69	2121.70
372.91	2076.64
373.12	2150.37
373.34	2113.50
373.55	2160.61
373.77	2242.53
373.98	2123.74
374.20	2187.23
374.41	2312.16
374.62	2230.24
374.84	2125.79
375.05	2187.23
375.27	2148.32
375.48	2181.09
375.70	2211.81
375.91	2248.67
376.12	2303.96
376.34	2117.60
376.55	2158.56
376.77	2191.33
376.98	2113.50
377.19	2191.33
377.41	2103.26
377.62	2201.57
377.84	2318.30
378.05	2363.36
378.27	2244.57
378.48	2299.87
378.69	2441.18
378.91	2316.25
379.12	2217.95
379.34	2318.30
379.55	2295.77
379.76	2289.63
379.98	2220.00
380.19	2328.54
380.41	2258.91
380.62	2303.96
380.83	2371.55
381.05	2207.71
381.26	2379.74
381.47	2176.99
381.69	2263.01
381.90	2408.41
382.12	2330.59
382.33	2265.05
382.54	2318.30
382.76	2367.45
382.97	2318.30
383.19	2287.58
383.40	2334.68
383.61	2287.58
383.83	2277.34
384.04	2248.67
384.25	2400.22
384.47	2453.47
384.68	2490.33
384.89	2412.51
385.11	2320.35
385.32	2363.36
385.54	2418.65
385.75	2420.70
385.96	2383.84
386.18	2545.63
386.39	2396.12
386.60	2490.33
386.82	2437.08
387.03	2484.19
387.24	2496.47
387.46	2537.43
387.67	2480.09
387.88	2516.95
388.10	2475.99
388.31	2486.23
388.52	2590.68
388.74	2541.53
388.95	2443.23
389.16	2615.26
389.38	2582.49
389.59	2682.84
389.80	2609.11
390.02	2639.83
390.23	2633.69
390.44	2514.91
390.66	2574.30
390.87	2613.21
391.08	2629.59
391.30	2705.37
391.51	2686.94
391.72	2674.65
391.94	2662.36
392.15	2574.30
392.36	2695.13
392.58	2643.93
392.79	2744.28
393.00	2664.41
393.22	2740.18
393.43	2734.04
393.64	2645.98
393.85	2877.40
394.07	2760.66
394.28	2785.24
394.49	2807.77
394.71	2830.29
394.92	2893.78
395.13	2822.10
395.35	2793.43
395.56	2775.00
395.77	2828.24
395.98	2918.36
396.20	2897.88
396.41	2736.09
396.62	2942.93
396.84	2879.44
397.05	2871.25
397.26	3014.61
397.47	3047.38
397.69	2842.58
397.90	2977.75
398.11	3024.85
398.32	2916.31
398.54	2959.31
398.75	3059.67
398.96	2967.51
399.18	3057.62
399.39	2912.21
399.60	3076.05
399.81	3020.75
400.03	2975.70
400.24	3330.00
400.45	2914.26
400.66	3157.97
400.88	3147.73
401.09	3180.50
401.30	3094.48
401.51	3170.26
401.73	3180.50
401.94	3166.16
402.15	3176.40
402.36	3123.15
402.58	3176.40
402.79	3227.60
403.00	3268.56
403.21	3311.57
403.43	3346.38
403.64	3395.53
403.85	3112.91
404.06	3399.63
404.27	3071.95
404.49	3301.33
404.70	3246.03
404.91	3440.59
405.12	3297.23
405.34	3327.95
405.55	3487.69
405.76	3250.13
405.97	3264.46
406.19	3428.30
406.40	3315.66
406.61	3422.16
406.82	3522.51
407.03	3403.72
407.25	3481.55
407.46	3551.18
407.67	3477.45
407.88	3598.28
408.09	3469.26
408.31	3489.74
408.52	3532.75
408.73	3518.41
408.94	3454.92
409.15	3581.90
409.37	3665.86
409.58	3645.38
409.79	3499.98
410.00	3571.66
410.21	3499.98
410.43	3540.94
410.64	3629.00
410.85	3612.62
411.06	3592.14
411.27	3690.44
411.48	3579.85
411.70	3596.23
411.91	3639.24
412.12	3835.85
412.33	3698.63
412.54	3727.30
412.76	3774.41
412.97	3755.97
413.18	3610.57
413.39	3784.65
413.60	3690.44
413.81	3885.00
414.03	3686.34
414.24	3751.88
414.45	3819.46
414.66	3665.86
414.87	3796.93
415.08	3794.89
415.30	3755.97
415.51	3903.43
415.72	3848.13
415.93	3993.54
416.14	3885.00
416.35	3928.00
416.56	3919.81
416.78	3919.81
416.99	3948.48
417.20	3930.05
417.41	3887.04
417.62	3850.18
417.83	4028.35
418.04	3971.01
418.26	4034.50
418.47	4038.59
418.68	4143.04
418.89	4079.55
419.10	4245.44
419.31	4165.57
419.52	4140.99
419.73	4167.62
419.95	4093.89
420.16	4034.50
420.37	4110.27
420.58	4167.62
420.79	4110.27
421.00	4118.47
421.21	4270.01
421.42	4136.90
421.63	4177.86
421.85	4165.57
422.06	4325.31
422.27	4267.97
422.48	4384.70
422.69	4458.43
422.90	4370.37
423.11	4261.82
423.32	4480.96
423.53	4556.73
423.75	4437.95
423.96	4646.84
424.17	4515.77
424.38	4605.88
424.59	4476.86
424.80	4614.07
425.01	4597.69
425.22	4560.83
425.43	4483.00
425.64	4685.75
425.85	4724.66
426.06	4767.67
426.28	4636.60
426.49	4689.85
426.70	4628.41
426.91	4814.77
427.12	4761.53
427.33	4812.73
427.54	4888.50
427.75	4913.08
427.96	5011.38
428.17	4855.73
428.38	4929.46
428.59	4962.23
428.80	4876.21
429.01	4966.32
429.23	4954.04
429.44	5126.07
429.65	5169.07
429.86	5101.49
430.07	4988.85
430.28	4894.65
430.49	5117.87
430.70	5130.16
430.91	5291.95
431.12	5124.02
431.33	5382.06
431.54	5253.04
431.75	5334.96
431.96	5257.14
432.17	5232.56
432.38	5265.33
432.59	5468.08
432.80	5363.63
433.01	5425.07
433.22	5562.28
433.43	5328.81
433.64	5427.12
433.85	5552.04
434.06	5578.67
434.27	5296.05
434.49	5400.49
434.70	5685.16
434.91	5580.71
435.12	5644.20
435.33	5623.72
435.54	5648.30
435.75	5461.93
435.96	5734.31
436.17	5509.04
436.38	5812.14
436.59	5810.09
436.80	5805.99
437.01	5965.73
437.22	5754.79
437.43	5885.86
437.64	5590.95
437.85	5975.97
438.06	5949.35
438.27	5705.64
438.48	5883.81
438.69	5982.12
438.90	6023.08
439.11	5687.21
439.32	6027.17
439.53	5910.44
439.74	6045.60
439.95	6148.00
440.16	6125.47
440.37	6082.47
440.57	6111.14
440.78	6188.96
440.99	6301.60
441.20	6152.10
441.41	6102.95
441.62	6201.25
441.83	5916.58
442.04	6399.90
442.25	6221.73
442.46	6274.98
442.67	6447.01
442.88	6797.21
443.09	6197.15
443.30	6363.04
443.51	6426.53
443.72	6703.00
443.93	6391.71
444.14	6696.86
444.35	6412.19
444.56	6461.34
444.77	6393.76
444.98	6743.96
445.19	6655.90
445.40	6623.13
445.61	6619.04
445.81	6782.87
446.02	6741.91
446.23	6602.65
446.44	6490.01
446.65	6655.90
446.86	6690.71
447.07	6864.79
447.28	6920.09
447.49	6942.61
447.70	6823.83
447.91	6907.80
448.12	6920.09
448.33	7090.07
448.54	7075.73
448.74	6852.50
448.95	7079.83
449.16	6907.80
449.37	7387.02
449.58	7028.63
449.79	7235.47
450.00	6981.53
450.21	7100.31
450.42	7339.92
450.63	7137.17
450.84	7323.54
451.05	7290.77
451.25	7192.47
451.46	7210.90
451.67	7626.64
451.88	7550.86
452.09	7491.47
452.30	7319.44
452.51	7327.63
452.72	7432.08
452.93	7856.01
453.13	7427.98
453.34	7610.25
453.55	7716.75
453.76	7597.96
453.97	7886.73
454.18	7720.84
454.39	7776.14
454.60	7628.68
454.81	7587.72
455.01	7905.16
455.22	7618.44
455.43	7888.78
455.64	8210.31
455.85	8169.35
456.06	8208.26
456.27	8185.73
456.48	8105.86
456.68	8112.00
456.89	8009.61
457.10	8204.16
457.31	8146.82
457.52	8314.75
457.73	8286.08
457.94	8580.99
458.14	8281.99
458.35	8642.43
458.56	8535.93
458.77	8261.51
458.98	8494.97
459.19	8693.63
459.39	8560.51
459.60	8839.03
459.81	8716.16
460.02	8716.16
460.23	8634.24
460.44	8916.86
460.65	9043.83
460.85	8978.30
461.06	9160.56
461.27	8857.46
461.48	9211.76
461.69	9242.48
461.89	8935.29
462.10	9324.40
462.31	9060.21
462.52	9090.93
462.73	9213.81
462.94	9391.98
463.14	9391.98
463.35	9363.31
463.56	9850.73
463.77	9768.81
463.98	9617.26
464.18	9592.69
464.39	9846.63
464.60	10266.47
464.81	10010.47
465.02	9850.73
465.23	10282.85
465.43	10084.20
465.64	10231.65
465.85	10063.72
466.06	9998.18
466.27	10499.94
466.47	10377.06
466.68	10254.18
466.89	10475.36
467.10	10461.02
467.30	10391.39
467.51	10567.52
467.72	10903.39
467.93	10549.09
468.14	10639.20
468.34	10956.63
468.55	10995.54
468.76	10923.87
468.97	10913.63
469.17	11108.18
469.38	11235.16
469.59	11355.99
469.80	11282.26
470.01	11210.58
470.21	11278.16
470.42	11489.10
470.63	11542.35
470.84	11417.43
471.04	11702.09
471.25	11726.67
471.46	11784.01
471.67	12080.97
471.87	11671.37
472.08	12066.63
472.29	12091.21
472.50	11951.95
472.70	12169.03
472.91	12103.50
473.12	12357.44
473.33	12521.28
473.53	12719.93
473.74	12502.85
473.95	12605.25
474.16	12922.68
474.36	12918.59
474.57	13061.94
474.78	13145.91
474.99	12998.46
475.19	12904.25
475.40	13453.11
475.61	13336.37
475.81	13684.53
476.02	13592.37
476.23	13428.53
476.44	13735.73
476.64	13954.86
476.85	14065.45
477.06	13975.34
477.27	14262.05
477.47	14253.86
477.68	14182.18
477.89	14544.67
478.09	14493.47
478.30	14606.11
478.51	14602.02
478.71	14513.95
478.92	14886.68
479.13	14946.08
479.34	15087.39
479.54	15025.95
479.75	15247.13
479.96	15222.55
480.16	15382.29
480.37	15431.44
480.58	15566.61
480.78	15914.77
480.99	15961.87
481.20	16099.08
481.41	15834.89
481.61	16285.45
481.82	16217.86
482.03	16142.09
482.23	16447.24
482.44	16584.45
482.65	16862.97
482.85	16617.22
483.06	16584.45
483.27	16815.87
483.47	16809.73
483.68	17092.35
483.89	17108.73
484.09	16994.04
484.30	17116.92
484.51	17534.71
484.71	17731.31
484.92	17344.25
485.13	17757.94
485.33	17678.07
485.54	17712.88
485.75	18110.19
485.95	18241.26
486.16	18044.65
486.37	18601.70
486.57	18083.56
486.78	18310.89
486.98	18454.25
487.19	18689.76
487.40	18833.12
487.60	18749.15
487.81	18749.15
488.02	18747.11
488.22	18974.43
488.43	19191.52
488.64	19064.54
488.84	19302.11
489.05	19648.21
489.25	19490.52
489.46	19861.20
489.67	19789.52
489.87	19766.99
490.08	20098.77
490.29	19693.27
490.49	20260.55
490.70	20567.75
490.90	20389.58
491.11	20434.63
491.32	20559.56
491.52	20461.26
491.73	20737.73
491.94	20448.97
492.14	20971.20
492.35	21026.50
492.55	20688.58
492.76	21053.12
492.97	21380.79
493.17	21073.60
493.38	21399.23
493.58	21565.11
493.79	21565.11
494.00	21724.85
494.20	21704.37
494.41	21886.64
494.61	22048.43
494.82	22245.04
495.02	21868.21
495.23	22122.16
495.44	22185.65
495.64	22494.89
495.85	22351.53
496.05	22859.43
496.26	22509.22
496.47	22699.69
496.67	22556.33
496.88	23076.51
497.08	22859.43
497.29	23172.77
497.49	22980.26
497.70	23113.38
497.91	23346.84
498.11	23391.90
498.32	23514.78
498.52	23742.10
498.73	24073.87
498.93	23545.50
499.14	23555.74
499.34	24118.93
499.55	23957.14
499.76	24000.15
499.96	23828.12
500.17	24026.77
500.37	23813.78
500.58	24059.54
500.78	24245.90
500.99	24651.40
501.19	24931.97
501.40	24641.16
501.60	24491.66
501.81	24340.11
502.02	24733.32
502.22	24727.17
502.43	25067.14
502.63	25216.64
502.84	24991.36
503.04	24929.92
503.25	25106.05
503.45	25388.67
503.66	25462.40
503.86	25394.81
504.07	25681.53
504.27	25667.19
504.48	25691.77
504.68	25714.30
504.89	26181.23
505.09	25962.10
505.30	25937.52
505.50	25783.93
505.71	26084.98
505.91	26232.43
506.12	26289.77
506.32	26046.07
506.53	26007.16
506.73	26234.48
506.94	26592.87
507.14	26568.30
507.35	26642.03
507.55	26764.90
507.76	26875.49
507.96	26889.83
508.17	26926.69
508.37	26756.71
508.58	26678.89
508.78	27086.43
508.99	27115.11
509.19	27197.02
509.40	26971.75
509.60	27186.79
509.81	27217.50
510.01	27358.81
510.22	27215.46
510.42	27233.89
510.63	27487.84
510.83	27666.01
511.04	27477.60
511.24	27942.49
511.44	27737.69
511.65	27792.98
511.85	27659.87
512.06	28044.88
512.26	28157.52
512.47	28132.95
512.67	28077.65
512.88	27967.06
513.08	27876.95
513.29	28491.34
513.49	27936.34
513.69	27987.54
513.90	28259.92
514.10	28329.55
514.31	28556.88
514.51	28880.46
514.72	28534.35
514.92	28802.63
515.13	28761.67
515.33	29183.55
515.53	29025.86
515.74	29075.01
515.94	28997.19
516.15	29263.43
516.35	28816.97
516.56	29353.54
516.76	28968.52
516.96	29312.58
517.17	29357.63
517.37	29066.82
517.58	29361.73
517.78	29824.57
517.99	29238.85
518.19	29775.42
518.39	29693.50
518.60	30088.76
518.80	29699.64
519.01	30256.69
519.21	30119.48
519.41	30287.41
519.62	29967.93
519.82	30060.09
520.03	30373.42
520.23	30553.65
520.43	30279.22
520.64	30717.48
520.84	30549.55
521.05	30533.17
521.25	30711.34
521.45	30760.49
521.66	31198.76
521.86	30862.89
522.07	30901.80
522.27	31006.25
522.47	30998.06
522.68	31434.27
522.88	31231.52
523.08	31657.50
523.29	31430.18
523.49	31677.98
523.70	31395.36
523.90	31811.10
524.10	31725.08
524.31	32024.09
524.51	31829.53
524.71	32325.14
524.92	32169.49
525.12	32003.61
525.33	32339.47
525.53	32378.39
525.73	32859.66
525.94	32906.76
526.14	32476.69
526.34	32675.34
526.55	32714.25
526.75	32996.87
526.95	33048.07
527.16	33070.60
527.36	32714.25
527.56	33345.03
527.77	33728.00
527.97	33412.61
528.17	33437.19
528.38	33656.32
528.58	33644.03
528.78	33613.31
528.99	33572.35
529.19	34211.32
529.39	33834.49
529.60	34272.76
529.80	34037.24
530.00	34184.69
530.21	34264.57
530.41	34801.13
530.61	34506.23
530.82	34848.24
531.02	34475.51
531.22	34751.98
531.43	35061.22
531.63	35186.15
531.83	35173.86
532.04	35503.59
532.24	35036.65
532.44	35855.84
532.64	35487.20
532.85	35347.94
533.05	35780.06
533.25	35788.25
533.46	35601.89
533.66	35991.00
533.86	35794.40
534.07	36371.92
534.27	36083.16
534.47	36656.59
534.67	36453.84
534.88	36427.22
535.08	36611.54
535.28	36556.24
535.49	37012.94
535.69	37389.77
535.89	36953.55
536.09	36933.07
536.30	37582.27
536.50	37311.94
536.70	37205.45
536.91	37705.15
537.11	37416.39
537.31	37520.84
537.51	37395.91
537.72	38434.23
537.92	38116.79
538.12	38157.75
538.32	38135.23
538.53	38032.83
538.73	38106.55
538.93	38380.98
539.13	38274.49
539.34	38317.50
539.54	38376.89
539.74	38782.38
539.94	38714.80
540.15	38778.29
540.35	38991.28
540.55	38909.36
540.75	38817.20
540.96	39241.13
541.16	38995.37
541.36	39490.98
541.56	39136.68
541.77	39959.97
541.97	39308.71
542.17	39583.14
542.37	39671.20
542.58	40158.62
542.78	40000.93
542.98	39869.86
543.18	40070.56
543.38	39939.49
543.59	40297.88
543.79	40232.35
543.99	40199.58
544.19	40205.72
544.40	40531.35
544.60	40861.07
544.80	40543.64
545.00	40502.68
545.20	40687.00
545.41	40383.90
545.61	40797.59
545.81	41364.87
546.01	41215.37
546.21	40908.18
546.42	40451.48
546.62	41391.50
546.82	41383.30
547.02	41508.23
547.22	41332.11
547.43	41184.65
547.63	41680.26
547.83	41340.30
548.03	41624.96
548.23	41782.66
548.44	41487.75
548.64	41561.48
548.84	41688.45
549.04	41454.98
549.24	41837.95
549.45	42306.94
549.65	41917.82
549.85	41983.36
550.05	41801.09
550.25	42147.20
550.45	42839.41
550.66	42444.15
550.86	42087.81
551.06	42751.35
551.26	42319.23
551.46	42659.19
551.66	42581.37
551.87	42583.41
552.07	42347.90
552.27	42630.52
552.47	43373.93
552.67	43146.61
552.87	42474.87
553.07	43017.58
553.28	42997.10
553.48	43154.80
553.68	42872.18
553.88	43418.99
554.08	43052.40
554.28	43693.41
554.48	43373.93
554.69	43597.16
554.89	43521.38
555.09	43378.03
555.29	43537.77
555.49	43779.43
555.69	43939.17
555.89	43519.34
556.10	43928.93
556.30	43314.54
556.50	44039.52
556.70	43631.97
556.90	43951.46
557.10	44256.60
557.30	43787.62
557.50	44346.72
557.70	44301.66
557.91	44647.77
558.11	44164.45
558.31	44432.73
558.51	43687.27
558.71	44039.52
558.91	44789.08
559.11	44326.24
559.31	44260.70
559.51	44537.18
559.72	44330.33
559.92	44819.80
560.12	44619.10
560.32	44840.28
560.52	44332.38
560.72	44617.05
560.92	44619.10
561.12	44821.84
561.32	44963.15
561.52	44520.79
561.72	44991.83
561.93	44834.13
562.13	45231.44
562.33	44778.84
562.53	45239.63
562.73	44942.67
562.93	45040.98
563.13	45200.72
563.33	44897.62
563.53	45421.90
563.73	45032.78
563.93	45487.43
564.13	46015.81
564.33	45864.26
564.53	45213.01
564.74	45868.36
564.94	45561.16
565.14	45608.26
565.34	45245.77
565.54	45786.44
565.74	45784.39
565.94	45636.94
566.14	45395.28
566.34	45393.23
566.54	45733.19
566.74	45618.50
566.94	45843.78
567.14	45710.66
567.34	45897.03
567.54	45872.45
567.74	45909.32
567.94	45751.62
568.14	46175.55
568.34	46392.64
568.54	46306.62
568.74	46415.16
568.94	46185.79
569.14	46290.24
569.34	46396.73
569.54	46849.33
569.75	46382.40
569.95	46480.70
570.15	46812.47
570.35	46363.96
570.55	46472.51
570.75	46449.98
570.95	46773.56
571.15	46769.46
571.35	46804.28
571.55	46716.22
571.75	46900.53
571.95	47355.18
572.15	47056.18
572.35	47097.14
572.55	47346.99
572.75	47127.86
572.95	46839.09
573.15	47543.59
573.35	47273.26
573.55	47402.28
573.75	47494.44
573.95	47822.12
574.15	47150.38
574.35	47740.20
574.55	47420.72
574.75	47330.61
574.95	47562.03
575.15	47539.50
575.34	47551.79
575.54	47473.96
575.74	47828.26
575.94	48413.98
576.14	47783.21
576.34	48477.47
576.54	48153.89
576.74	48045.35
576.94	48121.12
577.14	48256.29
577.34	48530.72
577.54	48135.46
577.74	48366.88
577.94	47957.28
578.14	48311.58
578.34	48483.61
578.54	47709.48
578.74	48338.21
578.94	48567.58
579.14	48477.47
579.34	48401.69
579.54	48766.23
579.74	49470.73
579.94	49098.00
580.13	48878.87
580.33	48952.60
580.53	48727.32
580.73	49005.84
580.93	48690.46
581.13	48964.88
581.33	49333.52
581.53	49345.81
581.73	49132.82
581.93	49605.90
582.13	49575.18
582.33	49405.20
582.53	49569.04
582.73	49706.25
582.92	49345.81
583.12	49769.74
583.32	49632.52
583.52	49079.57
583.72	50060.55
583.92	50144.51
584.12	50179.33
584.32	50554.11
584.52	50103.56
584.72	50488.57
584.92	50406.65
585.11	50556.16
585.31	50081.03
585.51	50251.01
585.71	50263.30
585.91	50449.66
586.11	50345.22
586.31	50425.09
586.51	50816.25
586.71	50687.23
586.91	51072.24
587.10	51299.57
587.30	50853.11
587.50	50337.02
587.70	51252.47
587.90	51029.24
588.10	51270.90
588.30	50996.47
588.50	51240.18
588.69	51258.61
588.89	51268.85
589.09	51381.49
589.29	51143.92
589.49	51438.83
589.69	51211.51
589.89	51883.24
590.08	51479.79
590.28	51692.78
590.48	51713.26
590.68	51291.38
590.88	51461.36
591.08	51754.22
591.28	51221.75
591.47	52364.51
591.67	52223.20
591.87	51789.03
592.07	52071.65
592.27	51991.78
592.47	51852.52
592.67	51954.92
592.86	51934.44
593.06	52253.92
593.26	52077.80
593.46	52270.31
593.66	52356.32
593.86	52157.67
594.05	52198.63
594.25	52378.85
594.45	51936.49
594.65	52221.16
594.85	52161.76
595.05	53372.11
595.24	52950.23
595.44	52790.49
595.64	52739.29
595.84	52937.94
596.04	52778.20
596.23	52925.66
596.43	53359.83
596.63	52843.74
596.83	53015.77
597.03	53155.03
597.22	53552.33
597.42	53460.18
597.62	53576.91
597.82	53327.06
598.02	53189.84
598.21	53245.14
598.41	53157.08
598.61	53558.48
598.81	53527.76
599.01	53374.16
599.20	53576.91
599.40	53650.64
599.60	53755.08
599.80	53794.00
600.00	54148.29
600.19	54154.44
600.39	53767.37
600.59	54301.89
600.79	53912.78
600.98	54361.28
601.18	54056.14
601.38	54607.04
601.58	54211.78
601.78	54596.80
601.97	54400.19
602.17	55086.26
602.37	54437.06
602.57	54297.80
602.76	54838.46
602.96	54686.91
603.16	54971.58
603.36	54592.70
603.55	55213.24
603.75	54588.61
603.95	55297.20
604.15	54936.76
604.34	54748.35
604.54	55309.49
604.74	55098.55
604.94	55432.37
605.13	55438.51
605.33	55190.71
605.53	55254.20
605.73	55766.19
605.92	55553.20
606.12	55563.44
606.32	55481.52
606.52	55358.64
606.71	55393.46
606.91	55766.19
607.11	55747.76
607.30	55647.41
607.50	55616.69
607.70	56208.55
607.90	55868.59
608.09	55983.27
608.29	56114.34
608.49	55794.86
608.68	55956.65
608.88	56022.19
609.08	55882.92
609.28	56517.79
609.47	56384.68
609.67	56622.24
609.87	56366.24
610.06	56714.40
610.26	56456.35
610.46	56439.97
610.66	56122.54
610.85	56552.61
611.05	56476.83
611.25	56552.61
611.44	56554.66
611.64	56452.26
611.84	55927.98
612.03	56532.13
612.23	56423.59
612.43	56290.47
612.62	56468.64
612.82	56708.25
613.02	56546.47
613.21	56523.94
613.41	56384.68
613.61	56788.13
613.80	56558.75
614.00	56827.04
614.20	56442.02
614.39	56657.06
614.59	56958.11
614.79	56661.15
614.98	56550.56
615.18	56847.52
615.38	57037.98
615.57	56530.08
615.77	57113.75
615.97	57210.01
616.16	57128.09
616.36	56923.29
616.56	56898.72
616.75	57212.06
616.95	56620.19
617.15	56673.44
617.34	56628.38
617.54	56544.42
617.74	57668.75
617.93	56980.63
618.13	56628.38
618.32	56827.04
618.52	56431.78
618.72	56863.90
618.91	57439.38
619.11	56497.31
619.31	57330.84
619.50	56890.52
619.70	56661.15
619.90	57185.43
620.09	57035.93
620.29	56730.78
620.48	56796.32
620.68	57259.16
620.88	56601.76
621.07	56800.41
621.27	56982.68
621.46	56806.56
621.66	56931.48
621.86	57279.64
622.05	56761.50
622.25	57132.18
622.44	56882.33
622.64	56546.47
622.84	57064.60
623.03	56677.54
623.23	56751.26
623.42	57156.76
623.62	56933.53
623.82	57443.48
624.01	56849.56
624.21	57074.84
624.40	56906.91
624.60	56687.78
624.80	56650.91
624.99	56560.80
625.19	56456.35
625.38	56906.91
625.58	56874.14
625.77	56491.17
625.97	56540.32
626.17	56669.34
626.36	56655.01
626.56	57023.64
626.75	56480.93
626.95	56859.80
627.14	56396.96
627.34	57140.38
627.54	56808.61
627.73	57113.75
627.93	57322.65
628.12	56507.55
628.32	57392.28
628.51	56853.66
628.71	56845.47
628.90	56491.17
629.10	56861.85
629.30	57109.66
629.49	57310.36
629.69	56992.92
629.88	56689.82
630.08	57402.52
630.27	57066.65
630.47	56974.49
630.66	56781.98
630.86	57148.57
631.05	56630.43
631.25	57431.19
631.44	57271.45
631.64	57181.34
631.84	56939.68
632.03	57326.74
632.23	57128.09
632.42	57250.97
632.62	57312.41
632.81	56988.83
633.01	56708.25
633.20	57255.06
633.40	57138.33
633.59	57291.93
633.79	56966.30
633.98	57056.41
634.18	57453.72
634.37	57334.93
634.57	56994.97
634.76	57547.92
634.96	57296.02
635.15	57455.76
635.35	57314.45
635.54	56886.43
635.74	57431.19
635.93	56878.24
636.13	57451.67
636.32	57345.17
636.52	56824.99
636.71	57154.71
636.91	57078.94
637.10	57392.28
637.30	57228.44
637.49	57054.36
637.69	57427.09
637.88	57910.41
638.08	56868.00
638.27	57908.36
638.46	57597.07
638.66	57541.78
638.85	57463.96
639.05	57388.18
639.24	57435.28
639.44	57525.39
639.63	57549.97
639.83	57515.15
640.02	57582.74
640.22	57515.15
640.41	57513.11
640.61	56841.37
640.80	58043.53
640.99	57457.81
641.19	58088.59
641.38	57791.63
641.58	57441.43
641.77	57693.33
641.97	57578.64
642.16	57279.64
642.36	58086.54
642.55	57873.55
642.74	57406.61
642.94	57898.12
643.13	57490.58
643.33	57793.68
643.52	57980.04
643.72	57904.27
643.91	57726.10
644.10	58137.74
644.30	58006.67
644.49	58162.31
644.69	57812.11
644.88	57674.90
645.08	57887.88
645.27	57822.35
645.46	57840.78
645.66	58315.91
645.85	58043.53
646.05	58238.09
646.24	57906.32
646.43	58219.66
646.63	58143.88
646.82	58346.63
647.02	58582.15
647.21	58174.60
647.40	57769.10
647.60	58373.25
647.79	58072.20
647.99	58258.57
648.18	58541.19
648.37	58422.40
648.57	58770.56
648.76	58676.35
648.96	58471.56
649.15	58387.59
649.34	58643.59
649.54	58211.46
649.73	58051.72
649.92	58371.21
650.12	58375.30
650.31	58287.24
650.51	59104.38
650.70	58713.22
650.89	58348.68
651.09	59249.78
651.28	58451.08
651.47	58711.17
651.67	58686.59
651.86	59176.06
652.06	58277.00
652.25	58539.14
652.44	58539.14
652.64	58307.72
652.83	58600.58
653.02	58444.93
653.22	58416.26
653.41	58477.70
653.60	57971.85
653.80	58590.34
653.99	58795.13
654.18	58694.78
654.38	58537.09
654.57	58369.16
654.76	58422.40
654.96	58174.60
655.15	58563.71
655.34	58664.06
655.54	58295.43
655.73	58662.02
655.92	58979.45
656.12	58705.02
656.31	58422.40
656.50	58477.70
656.70	58803.33
656.89	58856.57
657.08	58594.43
657.28	58770.56
657.47	59085.95
657.66	58754.18
657.86	58315.91
658.05	59155.58
658.24	59399.29
658.43	58737.79
658.63	59059.32
658.82	58963.07
659.01	59008.12
659.21	58807.42
659.40	58774.66
659.59	58444.93
659.79	59358.33
659.98	59012.22
660.17	59169.91
660.36	59073.66
660.56	59014.27
660.75	58987.64
660.94	59307.13
661.14	59313.27
661.33	58932.35
661.52	58133.64
661.71	59300.98
661.91	58719.36
662.10	58729.60
662.29	59036.80
662.49	58932.35
662.68	58938.49
662.87	59049.08
663.06	59372.66
663.26	58905.73
663.45	59020.41
663.64	58862.72
663.83	59085.95
664.03	59167.87
664.22	59151.48
664.41	59073.66
664.60	58840.19
664.80	59296.89
664.99	59143.29
665.18	58752.13
665.37	59243.64
665.57	58868.86
665.76	59008.12
665.95	59094.14
666.14	59251.83
666.34	58629.25
666.53	58836.09
666.72	59028.60
666.91	58961.02
667.11	59110.52
667.30	58920.06
667.49	58692.74
667.68	58989.69
667.87	58950.78
668.07	59391.09
668.26	59430.01
668.45	59122.81
668.64	59114.62
668.84	59546.74
669.03	59227.26
669.22	59167.87
669.41	59180.15
669.60	58942.59
669.80	58905.73
669.99	59194.49
670.18	58545.28
670.37	59364.47
670.57	58948.73
670.76	58786.94
670.95	59317.37
671.14	58729.60
671.33	58971.26
671.53	59096.19
671.72	59245.69
671.91	59036.80
672.10	58717.31
672.29	58784.90
672.48	58958.97
672.68	59458.68
672.87	58496.13
673.06	58629.25
673.25	58905.73
673.44	58494.08
673.64	58672.26
673.83	58729.60
674.02	58891.39
674.21	58209.42
674.40	58999.93
674.59	58801.28
674.79	58764.42
674.98	59016.32
675.17	58883.20
675.36	59024.51
675.55	59032.70
675.74	58598.53
675.94	58776.70
676.13	59061.37
676.32	58983.55
676.51	59061.37
676.70	59087.99
676.89	58760.32
677.08	59374.71
677.28	58371.21
677.47	58762.37
677.66	59079.80
677.85	58684.54
678.04	59298.94
678.23	59040.89
678.42	59176.06
678.62	58385.54
678.81	59343.99
679.00	58698.88
679.19	59536.50
679.38	58877.05
679.57	58844.29
679.76	58360.97
679.96	59153.53
680.15	58907.77
680.34	58700.93
680.53	58524.80
680.72	58594.43
680.91	59196.54
681.10	58401.92
681.29	58578.05
681.48	58922.11
681.68	58485.89
681.87	58422.40
682.06	58719.36
682.25	57941.13
682.44	58434.69
682.63	58465.41
682.82	58102.92
683.01	58496.13
683.20	58242.18
683.39	58612.87
683.59	58471.56
683.78	58139.78
683.97	58293.38
684.16	57969.80
684.35	58066.06
684.54	59133.05
684.73	58008.71
684.92	58180.74
685.11	57934.99
685.30	58176.65
685.49	58365.06
685.69	58111.11
685.88	58043.53
686.07	57455.76
686.26	58029.19
686.45	58061.96
686.64	58164.36
686.83	58291.33
687.02	57783.44
687.21	58651.78
687.40	57916.56
687.59	58184.84
687.78	57990.28
687.97	58057.87
688.16	57828.49
688.35	57609.36
688.54	57810.06
688.74	57308.31
688.93	57564.31
689.12	57554.07
689.31	58205.32
689.50	58021.00
689.69	57177.24
689.88	57478.29
690.07	57978.00
690.26	57365.65
690.45	57967.76
690.64	57701.52
690.83	57306.26
691.02	57285.78
691.21	57934.99
691.40	57281.69
691.59	57812.11
691.78	57304.21
691.97	57197.72
692.16	57418.90
692.35	57623.70
692.54	57119.90
692.73	57474.20
692.92	57234.58
693.11	57365.65
693.30	57003.16
693.49	57554.07
693.68	57214.10
693.87	57197.72
694.06	56597.66
694.25	57334.93
694.44	57095.32
694.63	57152.66
694.82	57537.68
695.01	57230.49
695.20	56868.00
695.39	56966.30
695.58	57009.31
695.77	56542.37
695.96	56321.19
696.15	57138.33
696.34	56472.74
696.53	56683.68
696.72	56964.25
696.91	56669.34
697.10	56562.85
697.29	56534.18
697.48	57070.75
697.67	56794.27
697.86	56695.97
698.05	56095.91
698.24	56956.06
698.43	56415.40
698.62	56624.29
698.81	56353.96
699.00	56786.08
699.19	56333.48
699.38	56792.22
699.57	56188.07
699.76	56921.24
699.95	56245.41
700.14	56136.87
700.32	56179.88
700.51	56370.34
700.70	56562.85
700.89	55981.23
701.08	56390.82
701.27	55696.56
701.46	56063.14
701.65	55694.51
701.84	56399.01
702.03	55844.01
702.22	55686.32
702.41	56149.16
702.60	55895.21
702.79	55590.06
702.98	55573.68
703.17	55727.28
703.35	55522.48
703.54	55575.73
703.73	55880.88
703.92	55762.09
704.11	55899.31
704.30	55637.17
704.49	55727.28
704.68	55542.96
704.87	55504.05
705.06	55811.24
705.25	55903.40
705.43	55821.48
705.62	55260.34
705.81	55485.62
706.00	55524.53
706.19	55028.92
706.38	55239.86
706.57	55211.19
706.76	55237.81
706.95	55321.78
707.14	54938.81
707.32	55014.58
707.51	54705.34
707.70	54842.56
707.89	54867.13
708.08	54961.34
708.27	55018.68
708.46	55157.94
708.65	54850.75
708.84	54965.43
709.02	54998.20
709.21	55473.33
709.40	54652.09
709.59	55073.98
709.78	54449.35
709.97	55063.74
710.16	54492.35
710.34	54539.46
710.53	54705.34
710.72	54064.33
710.91	54346.95
711.10	54760.64
711.29	54711.49
711.48	54332.61
711.66	54215.88
711.85	54146.25
712.04	54514.88
712.23	54797.50
712.42	54645.95
712.61	54549.70
712.80	53976.26
712.98	54228.16
713.17	53912.78
713.36	54211.78
713.55	54142.15
713.74	54389.95
713.93	54437.06
714.11	54365.38
714.30	53642.45
714.49	54043.85
714.68	54205.64
714.87	54236.36
715.06	53894.35
715.24	53937.35
715.43	53800.14
715.62	53245.14
715.81	53718.22
716.00	53945.54
716.18	53351.63
716.37	53378.26
716.56	53095.64
716.75	53957.83
716.94	53527.76
717.12	53341.39
717.31	53529.81
717.50	53214.42
717.69	53292.24
717.88	53187.80
718.06	53431.50
718.25	53464.27
718.44	53116.12
718.63	53134.55
718.82	52927.70
719.00	52991.19
719.19	53091.54
719.38	53138.65
719.57	52565.21
719.76	52270.31
719.94	52507.87
720.13	52657.37
720.32	52298.98
720.51	52362.46
720.69	52124.90
720.88	51803.37
721.07	52440.29
721.26	52073.70
721.44	52100.32
721.63	51805.42
721.82	52120.80
722.01	51959.02
722.20	52018.41
722.38	52221.16
722.57	51600.62
722.76	51995.88
722.95	51416.30
723.13	51465.45
723.32	51692.78
723.51	51432.69
723.70	51082.48
723.88	51475.69
724.07	50967.80
724.26	51791.08
724.44	50793.72
724.63	51365.10
724.82	51295.47
725.01	51074.29
725.19	51260.66
725.38	50945.27
725.57	50529.53
725.76	50932.98
725.94	50832.63
726.13	50859.26
726.32	50865.40
726.51	50429.18
726.69	51184.88
726.88	51023.09
727.07	51279.09
727.25	50978.04
727.44	50920.70
727.63	51002.61
727.82	50527.48
728.00	51188.98
728.19	50322.69
728.38	50742.52
728.56	50574.59
728.75	50926.84
728.94	50883.83
729.12	50975.99
729.31	50990.33
729.50	50271.49
729.69	50468.09
729.87	50394.37
730.06	50631.93
730.25	50609.40
730.43	50820.34
730.62	50484.48
730.81	50648.32
730.99	50756.86
731.18	50564.35
731.37	50535.68
731.55	50410.75
731.74	50654.46
731.93	50593.02
732.11	50519.29
732.30	50375.94
732.49	50525.44
732.67	50402.56
732.86	50099.46
733.05	50326.78
733.23	50232.58
733.42	50457.85
733.61	49829.13
733.79	50457.85
733.98	50242.82
734.17	50343.17
734.35	50648.32
734.54	50377.98
734.73	50846.97
734.91	50197.76
735.10	49710.35
735.29	50228.48
735.47	49798.41
735.66	50353.41
735.84	50015.49
736.03	50181.38
736.22	50547.96
736.40	49896.71
736.59	50060.55
736.78	49878.28
736.96	50414.85
737.15	50279.68
737.33	50212.10
737.52	50021.64
737.71	49683.72
737.89	50001.16
738.08	49632.52
738.27	49440.01
738.45	50246.91
738.64	49771.78
738.82	49487.12
739.01	49632.52
739.20	49847.56
739.38	49710.35
739.57	49462.54
739.75	49902.85
739.94	49460.49
740.13	49607.95
740.31	49284.37
740.50	49425.68
740.68	49362.19
740.87	49337.62
741.06	49501.45
741.24	49345.81
741.43	49413.39
741.61	49181.97
741.80	49208.59
741.99	48788.76
742.17	49005.84
742.36	49227.02
742.54	49073.43
742.73	49102.10
742.91	49024.28
743.10	48874.77
743.29	49327.38
743.47	48833.81
743.66	49063.19
743.84	49468.69
744.03	48669.98
744.21	48641.31
744.40	48993.56
744.59	48766.23
744.77	48758.04
744.96	48790.81
745.14	48649.50
745.33	48919.83
745.51	48456.99
745.70	48790.81
745.88	48174.37
746.07	48807.19
746.26	48256.29
746.44	48940.31
746.63	48153.89
746.81	48356.64
747.00	48061.73
747.18	48358.69
747.37	48051.49
747.55	48399.65
747.74	48690.46
747.92	48047.39
748.11	48053.54
748.29	48223.52
748.48	48241.95
748.66	47912.23
748.85	48217.38
749.03	48074.02
749.22	48162.08
749.41	47625.51
749.59	48033.06
749.78	47736.10
749.96	47306.03
750.15	47891.75
750.33	47992.10
750.52	48047.39
750.70	47777.06
750.89	47428.91
751.07	47201.58
751.26	47549.74
751.44	47914.28
751.63	47572.27
751.81	47217.97
752.00	47523.11
752.18	47994.15
752.37	47727.91
752.55	47101.23
752.74	47101.23
752.92	47039.79
753.10	47162.67
753.29	47396.14
753.47	47244.59
753.66	46718.26
753.84	47109.43
754.03	46957.88
754.21	46748.98
754.40	47273.26
754.58	47047.99
754.77	46824.76
754.95	46466.36
755.14	46662.97
755.32	47052.08
755.51	46560.57
755.69	46601.53
755.88	46327.10
756.06	46648.63
756.24	46695.74
756.43	46347.58
756.61	46603.58
756.80	46492.99
756.98	45954.37
757.17	46515.51
757.35	46249.28
757.54	46017.86
757.72	46196.03
757.90	45960.51
758.09	46200.13
758.27	45913.41
758.46	45858.12
758.64	45997.38
758.83	46122.30
759.01	46021.95
759.19	46071.10
759.38	45827.40
759.56	46050.63
759.75	45911.36
759.93	46290.24
760.12	45403.47
760.30	45790.53
760.48	45448.52
760.67	45610.31
760.85	45733.19
761.04	45528.39
761.22	45614.41
761.40	45776.20
761.59	45790.53
761.77	45466.95
761.96	45874.50
762.14	45382.99
762.32	45008.21
762.51	45145.42
762.69	45307.21
762.88	45282.64
763.06	45417.80
763.24	45409.61
763.43	45227.34
763.61	44979.54
763.80	44930.39
763.98	45102.42
764.16	44889.43
764.35	44643.67
764.53	44281.18
764.72	44649.81
764.90	44664.15
765.08	44744.02
765.27	44336.48
765.45	44178.78
765.63	44402.01
765.82	44545.37
766.00	44047.71
766.18	44182.88
766.37	44877.14
766.55	44123.49
766.74	44051.81
766.92	44307.80
767.10	44078.43
767.29	44307.80
767.47	43902.31
767.65	44289.37
767.84	43797.86
768.02	44100.96
768.20	44062.05
768.39	44229.98
768.57	43988.32
768.75	43851.11
768.94	43775.33
769.12	43720.04
769.30	43582.82
769.49	43326.83
769.67	43644.26
769.85	43451.75
770.04	43273.58
770.22	43382.12
770.40	43236.72
770.59	43423.08
770.77	43687.27
770.95	43332.97
771.14	42958.19
771.32	43238.76
771.50	42737.01
771.69	42714.48
771.87	43572.58
772.05	43085.17
772.24	42106.24
772.42	42704.24
772.60	42767.73
772.78	42591.61
772.97	42454.39
773.15	42780.02
773.33	42638.71
773.52	42765.68
773.70	42468.73
773.88	42984.82
774.07	42323.32
774.25	42384.76
774.43	42796.40
774.61	42438.01
774.80	42816.88
774.98	42685.81
775.16	42636.66
775.34	42706.29
775.53	42374.52
775.71	42747.25
775.89	42726.77
776.08	42808.69
776.26	42943.86
776.44	42954.10
776.62	42253.69
776.81	42417.53
776.99	42474.87
777.17	42507.64
777.35	42704.24
777.54	42921.33
777.72	42474.87
777.90	42962.29
778.08	42767.73
778.27	42612.09
778.45	43269.48
778.63	43507.05
778.81	42591.61
779.00	43289.96
779.18	43447.66
779.36	43441.51
779.54	43062.64
779.73	42796.40
779.91	43070.83
780.09	43058.54
780.27	43425.13
780.46	43246.96
780.64	43279.72
780.82	42909.04
781.00	43068.78
781.19	43623.78
781.37	43429.23
781.55	43185.52
781.73	43494.76
781.91	42968.43
782.10	43476.33
782.28	43357.55
782.46	43744.61
782.64	43445.61
782.82	43005.30
783.01	43519.34
783.19	43511.14
783.37	43253.10
783.55	43281.77
783.74	43423.08
783.92	43320.68
784.10	43838.82
784.28	43793.76
784.46	43304.30
784.64	43330.92
784.83	43369.83
785.01	43521.38
785.19	43373.93
785.37	43603.30
785.55	43775.33
785.74	43218.28
785.92	43177.33
786.10	43650.41
786.28	43373.93
786.46	43058.54
786.64	42630.52
786.83	43226.48
787.01	43292.01
787.19	43187.56
787.37	43570.54
787.55	43289.96
787.74	43130.22
787.92	42702.20
788.10	42585.46
788.28	42526.07
788.46	42839.41
788.64	42239.36
788.82	42788.21
789.01	42487.16
789.19	42505.59
789.37	42386.81
789.55	42464.63
789.73	42038.65
789.91	42114.43
790.09	41817.47
790.28	42462.58
790.46	41823.62
790.64	42567.03
790.82	42096.00
791.00	41903.49
791.18	41753.99
791.36	41766.27
791.55	42050.94
791.73	41571.72
791.91	41119.12
792.09	41661.83
792.27	41643.40
792.45	41899.39
792.63	41409.93
792.81	41311.63
793.00	41497.99
793.18	41287.05
793.36	40887.70
793.54	40746.39
793.72	41143.69
793.90	41117.07
794.08	40617.36
794.26	41276.81
794.44	40541.59
794.62	40289.69
794.81	40723.86
794.99	40449.43
795.17	39810.46
795.35	40172.96
795.53	40369.56
795.71	40678.80
795.89	39933.34
796.07	39556.52
796.25	39820.70
796.43	39916.96
796.61	39400.87
796.80	39181.74
796.98	39679.39
797.16	39595.43
797.34	39335.34
797.52	38997.42
797.70	39767.46
797.88	39140.78
798.06	38966.70
798.24	39019.95
798.42	38528.44
798.60	38772.14
798.78	38860.21
798.96	38831.54
799.14	38870.45
799.32	38544.82
799.51	38190.52
799.69	38167.99
799.87	38561.20
800.05	37903.81
800.23	38149.56
800.41	37934.53
800.59	37998.01
800.77	37766.59
800.95	37332.42
801.13	37680.58
801.31	37254.60
801.49	37483.97
801.67	37342.66
801.85	37586.37
802.03	37199.30
802.21	37256.65
802.39	37131.72
802.57	37133.77
802.75	36543.95
802.93	36842.96
803.11	36943.31
803.29	36509.14
803.47	36406.74
803.65	36582.87
803.83	36488.66
804.01	36582.87
804.19	36083.16
804.37	35948.00
804.55	36091.35
804.73	36029.91
804.91	36185.56
805.09	36034.01
805.27	35634.66
805.45	36009.43
805.63	35859.93
805.81	35554.79
805.99	35589.60
806.17	35382.76
806.35	35438.05
806.53	35327.46
806.71	35200.49
806.89	35466.72
807.07	35208.68
807.25	35360.23
807.43	34893.29
807.61	35309.03
807.79	34973.16
807.97	34778.61
808.15	34604.53
808.33	34543.09
808.51	34805.23
808.69	34756.08
808.87	34649.58
809.05	34399.73
809.23	34289.14
809.41	34205.17
809.59	33926.65
809.77	34493.94
809.95	34127.35
810.13	34076.15
810.31	33920.51
810.49	34256.37
810.67	33994.23
810.84	34092.54
811.02	33986.04
811.20	33410.56
811.38	33633.79
811.56	33508.86
811.74	33365.51
811.92	33437.19
812.10	33646.08
812.28	33342.98
812.46	33109.51
812.64	33342.98
812.82	33134.09
813.00	33195.53
813.18	33164.81
813.36	32984.58
813.53	32663.05
813.71	32722.44
813.89	32634.38
814.07	32710.16
814.25	32566.80
814.43	32376.34
814.61	32529.94
814.79	32396.82
814.97	32149.01
815.15	32564.75
815.33	32114.20
815.50	32091.67
815.68	32157.21
815.86	32310.80
816.04	32218.64
816.22	31927.83
816.40	32292.37
816.58	31720.99
816.76	31471.14
816.94	32050.71
817.11	31821.34
817.29	31493.66
817.47	31776.28
817.65	31348.26
817.83	31540.77
818.01	31366.69
818.19	31106.60
818.37	30942.76
818.54	31141.41
818.72	31018.53
818.90	31106.60
819.08	30991.91
819.26	30965.29
819.44	30682.67
819.62	30979.62
819.80	30729.77
819.97	31102.50
820.15	30801.45
820.33	30424.62
820.51	30889.51
820.69	30514.73
820.87	30426.67
821.05	30610.99
821.22	30742.06
821.40	30584.37
821.58	30400.05
821.76	30170.68
821.94	29599.29
822.12	30402.10
822.29	30412.34
822.47	30158.39
822.65	30094.90
822.83	30107.19
823.01	29969.97
823.19	30326.32
823.36	29886.01
823.54	29697.59
823.72	29830.71
823.90	29904.44
824.08	29578.81
824.25	29765.18
824.43	29134.40
824.61	29222.47
824.79	29630.01
824.97	29398.59
825.15	29578.81
825.32	29607.48
825.50	29271.62
825.68	29066.82
825.86	29326.91
826.04	29625.92
826.21	29132.36
826.39	29044.29
826.57	29204.03
826.75	28995.14
826.93	28821.06
827.10	28806.73
827.28	28943.94
827.46	29222.47
827.64	28978.76
827.81	28671.56
827.99	29122.12
828.17	28483.15
828.35	28831.30
828.53	28911.17
828.70	28450.38
828.88	28743.24
829.06	28583.50
829.24	28769.86
829.41	28630.60
829.59	28466.77
829.77	28130.90
829.95	28595.79
830.12	28175.95
830.30	28243.54
830.48	28366.42
830.66	28280.40
830.84	28427.85
831.01	28042.84
831.19	28016.21
831.37	28147.28
831.55	27876.95
831.72	27817.56
831.90	27983.44
832.08	28225.11
832.25	27926.10
832.43	27760.22
832.61	27838.04
832.79	27342.43
832.96	27594.33
833.14	27792.98
833.32	27991.64
833.50	27760.22
833.67	27735.64
833.85	27754.07
834.03	27373.15
834.20	27418.21
834.38	27657.82
834.56	27688.54
834.74	27248.22
834.91	27145.83
835.09	27229.79
835.27	27151.97
835.44	27014.76
835.62	26883.69
835.80	26949.22
835.98	26973.80
836.15	27055.72
836.33	26971.75
836.51	26881.64
836.68	26656.36
836.86	26936.93
837.04	26785.38
837.21	26918.50
837.39	26928.74
837.57	26705.51
837.75	27002.47
837.92	26545.77
838.10	26490.48
838.28	26291.82
838.45	26281.58
838.63	26435.18
838.81	26318.45
838.98	26480.24
839.16	26437.23
839.34	26257.01
839.51	26375.79
839.69	26173.04
839.87	26396.27
840.04	26357.36
840.22	26406.51
840.40	26343.02
840.57	26087.03
840.75	25888.37
840.93	25697.91
841.10	26101.36
841.28	25980.53
841.46	26015.35
841.63	25894.52
841.81	25992.82
841.98	25960.05
842.16	25724.54
842.34	25728.63
842.51	25521.79
842.69	26013.30
842.87	25679.48
843.04	25714.30
843.22	25822.84
843.40	25728.63
843.57	25521.79
843.75	25808.50
843.92	25816.69
844.10	25392.76
844.28	25624.18
844.45	25456.25
844.63	25228.93
844.81	25325.18
844.98	25253.50
845.16	25167.49
845.33	25124.48
845.51	25280.13
845.69	25372.28
845.86	25017.99
846.04	25099.90
846.21	24974.98
846.39	24995.46
846.57	24931.97
846.74	24954.50
846.92	24903.30
847.09	24813.19
847.27	24805.00
847.45	24907.40
847.62	24954.50
847.80	25028.23
847.97	24569.48
848.15	24497.80
848.32	24690.31
848.50	24696.46
848.68	24721.03
848.85	24549.00
849.03	24252.05
849.20	24508.04
849.38	24491.66
849.56	24839.81
849.73	24317.58
849.91	24250.00
850.08	24673.93
850.26	24112.78
850.43	24213.13
850.61	24344.20
850.78	24094.35
850.96	24479.37
851.14	23887.51
851.31	24266.38
851.49	24006.29
851.66	23967.38
851.84	24217.23
852.01	24452.75
852.19	23977.62
852.36	23854.74
852.54	24069.78
852.71	23682.71
852.89	23805.59
853.07	23840.40
853.24	23746.20
853.42	23482.01
853.59	23811.73
853.77	23615.13
853.94	23932.56
854.12	23899.80
854.29	23596.70
854.47	23529.11
854.64	23318.17
854.82	23461.53
854.99	23746.20
855.17	23439.00
855.34	23283.36
855.52	23645.85
855.69	23436.95
855.87	23561.88
856.04	23119.52
856.22	23584.41
856.39	23070.37
856.57	23312.03
856.74	22984.35
856.92	22996.64
857.09	23058.08
857.27	23049.89
857.44	23135.90
857.62	23053.98
857.79	22892.19
857.97	22967.97
858.14	22716.07
858.32	22841.00
858.49	23088.80
858.67	22644.39
858.84	22900.39
859.02	22838.95
859.19	22922.91
859.37	22808.23
859.54	22441.64
859.72	22761.12
859.89	22650.53
860.06	22789.80
860.24	22269.61
860.41	22609.58
860.59	22294.19
860.76	22738.60
860.94	22480.55
861.11	22337.20
861.29	22267.56
861.46	22345.39
861.64	21909.17
861.81	22329.00
861.98	22417.07
862.16	22238.89
862.33	22017.71
862.51	22021.81
862.68	21943.99
862.86	22202.03
863.03	21837.49
863.21	22066.86
863.38	21868.21
863.55	21927.60
863.73	21978.80
863.90	21866.16
864.08	21870.26
864.25	21649.08
864.43	21946.03
864.60	21894.83
864.77	21612.21
864.95	21759.67
865.12	21628.60
865.30	21667.51
865.47	21593.78
865.64	21657.27
865.82	21796.53
865.99	21845.68
866.17	21309.11
866.34	21731.00
866.51	21356.22
866.69	21403.32
866.86	21321.40
867.04	21536.44
867.21	21331.64
867.38	21239.48
867.56	21229.24
867.73	21118.65
867.91	21196.48
868.08	21081.79
868.25	21169.85
868.43	21083.84
868.60	20952.77
868.78	20924.10
868.95	21491.38
869.12	21137.09
869.30	20836.03
869.47	21081.79
869.64	20874.95
869.82	20604.61
869.99	20704.96
870.16	20870.85
870.34	20557.51
870.51	20979.39
870.69	20205.26
870.86	20397.77
871.03	20823.75
871.21	20664.00
871.38	20680.39
871.55	20393.67
871.73	20340.43
871.90	20444.87
872.07	20549.32
872.25	20297.42
872.42	20321.99
872.59	19934.93
872.77	20238.03
872.94	20061.90
873.11	20098.77
873.29	20094.67
873.46	19941.07
873.63	19719.89
873.81	19936.98
873.98	19654.36
874.15	19826.39
874.33	19601.11
874.50	19728.08
874.67	20100.81
874.85	19588.82
875.02	19369.69
875.19	19660.50
875.37	19750.61
875.54	19537.62
875.71	19363.54
875.88	19003.10
876.06	19402.46
876.23	19259.10
876.40	19109.60
876.58	19132.12
876.75	19441.37
876.92	19351.26
877.10	19195.61
877.27	18876.13
877.44	18892.51
877.61	18992.86
877.79	18896.61
877.96	18861.79
878.13	18929.38
878.31	18747.11
878.48	18777.83
878.65	18894.56
878.82	18730.72
879.00	18618.08
879.17	18657.00
879.34	18609.89
879.51	18351.85
879.69	18321.13
879.86	18345.70
880.03	18181.87
880.21	18282.22
880.38	18601.70
880.55	18245.35
880.72	18263.79
880.90	18325.22
881.07	18097.90
881.24	18239.21
881.41	18343.66
881.59	18161.39
881.76	18145.00
881.93	18161.39
882.10	18114.28
882.28	17964.78
882.45	17966.83
882.62	18339.56
882.79	18163.43
882.96	17827.57
883.14	18018.03
883.31	18071.28
883.48	17870.58
883.65	17927.92
883.83	18099.95
884.00	17882.86
884.17	17872.62
884.34	17936.11
884.51	17729.27
884.69	17995.50
884.86	17829.62
885.03	17661.68
885.20	17628.92
885.38	17921.77
885.55	17497.84
885.72	17616.63
885.89	17733.36
886.06	17612.53
886.24	17692.40
886.41	17499.89
886.58	17733.36
886.75	17506.04
886.92	17168.12
887.10	17532.66
887.27	17211.13
887.44	17198.84
887.61	17436.41
887.78	17524.47
887.95	17403.64
888.13	17186.55
888.30	17340.15
888.47	17360.63
888.64	17274.62
888.81	17198.84
888.99	17086.20
889.16	16779.01
889.33	16877.31
889.50	17127.16
889.67	17024.76
889.84	16684.80
890.01	17073.92
890.19	16801.54
890.36	16992.00
890.53	16779.01
890.70	16881.41
890.87	16525.06
891.04	16672.51
891.22	16762.62
891.39	16723.71
891.56	16510.72
891.73	16576.26
891.90	16434.95
892.07	16412.42
892.24	16631.55
892.42	16496.39
892.59	16318.22
892.76	16539.40
892.93	16537.35
893.10	16361.22
893.27	16477.96
893.44	16230.15
893.61	16303.88
893.79	16287.50
893.96	16518.92
894.13	16336.65
894.30	16334.60
894.47	16244.49
894.64	16412.42
894.81	16115.47
894.98	16312.07
895.15	16334.60
895.33	16137.99
895.50	15959.82
895.67	16385.80
895.84	16183.05
896.01	15953.68
896.18	16193.29
896.35	16340.74
896.52	16248.58
896.69	15961.87
896.86	16277.26
897.04	16027.40
897.21	16148.23
897.38	16105.23
897.55	16230.15
897.72	16228.10
897.89	16367.37
898.06	16142.09
898.23	15974.16
898.40	15937.29
898.57	16137.99
898.74	16115.47
898.91	16107.27
899.08	15992.59
899.26	15949.58
899.43	16058.12
899.60	16006.92
899.77	15902.48
899.94	15855.37
900.11	15980.30
900.28	15986.44
900.45	15806.22
900.62	15750.93
900.79	16209.67
900.96	15841.04
901.13	15998.73
901.30	15822.61
901.47	15886.09
901.64	15974.16
901.81	15804.17
901.98	15800.08
902.15	16264.97
902.32	15724.30
902.49	15845.13
902.66	15910.67
902.83	15808.27
903.01	15945.48
903.18	15742.74
903.35	16174.86
903.52	15787.79
903.69	15861.52
903.86	15787.79
904.03	16084.75
904.20	16043.79
904.37	16183.05
904.54	15777.55
904.71	15802.13
904.88	15908.62
905.05	15890.19
905.22	16013.07
905.39	15783.70
905.56	15830.80
905.73	15730.45
905.90	15802.13
906.07	15712.02
906.24	15820.56
906.41	15580.95
906.58	15947.53
906.75	15777.55
906.92	15431.44
907.09	15658.77
907.26	15763.22
907.43	15777.55
907.60	15972.11
907.77	15834.89
907.93	15785.74
908.10	15632.15
908.27	15822.61
908.44	15679.25
908.61	15658.77
908.78	15597.33
908.95	15804.17
909.12	15709.97
909.29	15550.23
909.46	15662.86
909.63	15806.22
909.80	15863.57
909.97	15777.55
910.14	15847.18
910.31	15550.23
910.48	15539.99
910.65	15652.63
910.82	15611.67
910.99	15642.39
911.16	15456.02
911.33	15456.02
911.50	15380.25
911.66	15286.04
911.83	15283.99
912.00	15253.27
912.17	15275.80
912.34	15197.98
912.51	15302.42
912.68	15320.85
912.85	15243.03
913.02	15488.79
913.19	15173.40
913.36	15367.96
913.53	15189.78
913.70	15048.47
913.86	15269.66
914.03	15011.61
914.20	15087.39
914.37	15087.39
914.54	14984.99
914.71	15025.95
914.88	14765.85
915.05	14792.48
915.22	14597.92
915.39	14927.64
915.55	14911.26
915.72	14708.51
915.89	14688.03
916.06	14657.31
916.23	14794.53
916.40	14806.81
916.57	14452.52
916.74	14602.02
916.91	14432.04
917.07	14247.72
917.24	14448.42
917.41	14538.53
917.58	14436.13
917.75	14305.06
917.92	14124.84
918.09	14374.69
918.26	14587.68
918.42	14298.92
918.59	14245.67
918.76	14137.13
918.93	14016.30
919.10	14225.19
919.27	13993.77
919.44	14055.21
919.60	14112.55
919.77	13848.36
919.94	13836.08
920.11	13881.13
920.28	13772.59
920.45	14006.06
920.61	13502.26
920.78	13594.42
920.95	13561.65
921.12	13637.42
921.29	13432.63
921.46	13449.01
921.62	13328.18
921.79	13293.37
921.96	13373.24
922.13	13297.46
922.30	13145.91
922.47	13256.50
922.63	13039.42
922.80	13158.20
922.97	12814.14
923.14	12681.02
923.31	13061.94
923.47	12924.73
923.64	13012.79
923.81	12582.72
923.98	12869.44
924.15	12916.54
924.32	12695.36
924.48	12642.11
924.65	12928.83
924.82	12373.83
924.99	12420.93
925.15	12343.11
925.32	12429.12
925.49	12330.82
925.66	12246.85
925.83	12224.33
925.99	11771.72
926.16	12152.65
926.33	12422.98
926.50	12105.54
926.67	12003.14
926.83	12117.83
927.00	12035.91
927.17	12074.82
927.34	11730.76
927.50	11970.38
927.67	11992.90
927.84	11790.16
928.01	11683.66
928.17	11632.46
928.34	11458.39
928.51	11507.54
928.68	11652.94
928.84	11431.76
929.01	11343.70
929.18	11274.07
929.35	11181.91
929.51	11390.80
929.68	11071.32
929.85	11378.51
930.02	11145.05
930.18	11052.89
930.35	10956.63
930.52	11083.61
930.69	10981.21
930.85	11120.47
931.02	10770.27
931.19	10833.75
931.36	10594.14
931.52	10571.61
931.69	10846.04
931.86	10557.28
932.02	10436.45
932.19	10448.74
932.36	10631.01
932.53	10461.02
932.69	10270.56
932.86	10407.78
933.03	10190.69
933.19	10026.86
933.36	10137.45
933.53	10153.83
933.70	10276.71
933.86	9946.98
934.03	10100.58
934.20	9893.74
934.36	9924.46
934.53	9836.39
934.70	9406.32
934.86	9625.45
935.03	9559.92
935.20	9416.56
935.36	9523.05
935.53	9506.67
935.70	9312.11
935.86	9277.30
936.03	9066.36
936.20	8953.72
936.36	9166.71
936.53	8918.90
936.70	8779.64
936.86	9013.11
937.03	8724.35
937.20	8490.88
937.36	8540.03
937.53	8365.95
937.70	8322.94
937.86	8263.55
938.03	8161.16
938.20	8208.26
938.36	7939.97
938.53	8107.91
938.70	7759.75
938.86	7835.53
939.03	7759.75
939.20	7524.24
939.36	7528.33
939.53	7481.23
939.70	7696.27
939.86	7098.26
940.03	7143.32
940.19	7088.02
940.36	7077.78
940.53	7028.63
940.69	6926.23
940.86	6737.82
941.03	6846.36
941.19	6746.01
941.36	6754.20
941.52	6594.46
941.69	6432.67
941.86	6516.64
942.02	6549.40
942.19	6301.60
942.35	6348.70
942.52	6238.11
942.69	6107.04
942.85	6098.85
943.02	6201.25
943.18	6168.48
943.35	6092.71
943.52	5902.25
943.68	5793.70
943.85	5969.83
944.01	5902.25
944.18	5756.84
944.35	5861.29
944.51	5705.64
944.68	5578.67
944.84	5646.25
945.01	5646.25
945.17	5607.34
945.34	5656.49
945.51	5590.95
945.67	5613.48
945.84	5609.39
946.00	5423.02
946.17	5547.95
946.33	5461.93
946.50	5599.15
946.67	5404.59
946.83	5414.83
947.00	5554.09
947.16	5513.13
947.33	5640.11
947.49	5603.24
947.66	5320.62
947.82	5466.03
947.99	5472.17
948.16	5662.63
948.32	5322.67
948.49	5611.43
948.65	5529.52
948.82	5484.46
948.98	5484.46
949.15	5410.73
949.31	5435.31
949.48	5343.15
949.64	5418.93
949.81	5463.98
949.97	5482.41
950.14	5543.85
950.30	5451.69
950.47	5539.76
950.63	5601.19
950.80	5482.41
950.96	5453.74
951.13	5494.70
951.30	5593.00
951.46	5527.47
951.63	5660.59
951.79	5533.61
951.96	5439.40
952.12	5662.63
952.29	5490.60
952.45	5558.19
952.62	5607.34
952.78	5687.21
952.94	5539.76
953.11	5564.33
953.27	5523.37
953.44	5689.26
953.60	5613.48
953.77	5568.43
953.93	5638.06
954.10	5556.14
954.26	5631.91
954.43	5715.88
954.59	5701.54
954.76	5785.51
954.92	5525.42
955.09	5709.74
955.25	5738.41
955.42	5724.07
955.58	5787.56
955.75	5580.71
955.91	5660.59
956.07	5726.12
956.24	5722.02
956.40	5693.35
956.57	5767.08
956.73	5730.22
956.90	5650.35
957.06	5636.01
957.23	5640.11
957.39	5689.26
957.56	5818.28
957.72	5627.82
957.88	5574.57
958.05	5734.31
958.21	5705.64
958.38	5642.15
958.54	5599.15
958.71	5775.27
958.87	5568.43
959.03	5558.19
959.20	5726.12
959.36	5633.96
959.53	5599.15
959.69	5484.46
959.85	5679.02
960.02	5580.71
960.18	5629.87
960.35	5660.59
960.51	5666.73
960.68	5607.34
960.84	5492.65
961.00	5695.40
961.17	5490.60
961.33	5697.45
961.50	5652.39
961.66	5676.97
961.82	5586.86
961.99	5599.15
962.15	5703.59
962.31	5519.28
962.48	5666.73
962.64	5820.33
962.81	5652.39
962.97	5584.81
963.13	5668.78
963.30	5648.30
963.46	5490.60
963.62	5590.95
963.79	5484.46
963.95	5521.32
964.12	5474.22
964.28	5728.17
964.44	5566.38
964.61	5494.70
964.77	5709.74
964.93	5662.63
965.10	5656.49
965.26	5414.83
965.42	5427.12
965.59	5537.71
965.75	5509.04
965.92	5566.38
966.08	5443.50
966.24	5562.28
966.41	5418.93
966.57	5461.93
966.73	5584.81
966.90	5564.33
967.06	5470.12
967.22	5152.69
967.39	5349.29
967.55	5328.81
967.71	5351.34
967.88	5326.77
968.04	5355.44
968.20	5201.84
968.37	5380.01
968.53	5250.99
968.69	5408.69
968.85	5300.14
969.02	5398.45
969.18	5359.53
969.34	5281.71
969.51	5390.25
969.67	5457.84
969.83	5224.37
970.00	5357.49
970.16	5316.53
970.32	5361.58
970.48	5326.77
970.65	5269.42
970.81	5203.89
970.97	5271.47
971.14	5107.63
971.30	5351.34
971.46	5255.09
971.63	5115.83
971.79	5230.51
971.95	5279.66
972.11	5093.30
972.28	5138.35
972.44	5132.21
972.60	5009.33
972.76	5015.48
972.93	5081.01
973.09	5156.79
973.25	5099.44
973.42	4980.66
973.58	5103.54
973.74	5121.97
973.90	5130.16
974.07	5107.63
974.23	5013.43
974.39	4935.60
974.55	5056.43
974.72	4966.32
974.88	4974.52
975.04	5009.33
975.20	4923.32
975.37	4947.89
975.53	4861.88
975.69	4759.48
975.85	4861.88
976.01	4923.32
976.18	4958.13
976.34	4970.42
976.50	5089.20
976.66	4943.80
976.83	4911.03
976.99	4747.19
977.15	4798.39
977.31	4734.90
977.47	4868.02
977.64	4825.01
977.80	4888.50
977.96	4882.36
978.12	4777.91
978.29	4757.43
978.45	4640.70
978.61	4718.52
978.77	4716.47
978.93	4571.07
979.10	4710.33
979.26	4665.27
979.42	4779.96
979.58	4507.58
979.74	4577.21
979.91	4513.72
980.07	4505.53
980.23	4661.18
980.39	4571.07
980.55	4671.42
980.71	4571.07
980.88	4480.96
981.04	4552.63
981.20	4548.54
981.36	4618.17
981.52	4503.48
981.68	4417.47
981.85	4569.02
982.01	4493.24
982.17	4435.90
982.33	4456.38
982.49	4534.20
982.65	4489.15
982.82	4526.01
982.98	4530.11
983.14	4392.89
983.30	4583.35
983.46	4480.96
983.62	4452.28
983.79	4333.50
983.95	4480.96
984.11	4245.44
984.27	4308.93
984.43	4349.89
984.59	4353.98
984.75	4409.28
984.91	4194.24
985.08	4386.75
985.24	4239.30
985.40	4214.72
985.56	4220.86
985.72	4261.82
985.88	4366.27
986.04	4206.53
986.20	4153.28
986.37	4100.03
986.53	4040.64
986.69	4188.10
986.85	4204.48
987.01	4106.18
987.17	4188.10
987.33	4196.29
987.49	4245.44
987.65	4229.06
987.82	4184.00
987.98	4112.32
988.14	4022.21
988.30	4116.42
988.46	4079.55
988.62	4108.23
988.78	3968.96
988.94	4036.55
989.10	4054.98
989.26	3952.58
989.42	3977.16
989.59	3780.55
989.75	4007.87
989.91	4059.07
990.07	3899.33
990.23	3846.09
990.39	3956.68
990.55	4044.74
990.71	3878.85
990.87	3823.56
991.03	3999.68
991.19	3760.07
991.35	3956.68
991.51	3948.48
991.67	3973.06
991.83	3854.28
992.00	3753.93
992.16	3893.19
992.32	3925.96
992.48	3821.51
992.64	3854.28
992.80	3698.63
992.96	3758.02
993.12	3698.63
993.28	3784.65
993.44	3839.94
993.60	3782.60
993.76	3665.86
993.92	3835.85
994.08	3747.78
994.24	3631.05
994.40	3604.42
994.56	3639.24
994.72	3620.81
994.88	3575.75
995.04	3641.29
995.20	3674.06
995.36	3616.71
995.52	3633.10
995.68	3585.99
995.84	3651.53
996.00	3692.49
996.16	3551.18
996.32	3633.10
996.48	3495.88
996.64	3620.81
996.80	3483.59
996.96	3549.13
997.12	3622.86
997.28	3471.31
997.44	3481.55
997.60	3493.83
997.76	3456.97
997.92	3538.89
998.08	3577.80
998.24	3426.25
998.40	3387.34
998.56	3469.26
998.72	3409.87
998.88	3395.53
999.04	3536.84
999.20	3489.74
999.36	3399.63
999.52	3473.36
999.68	3456.97
999.84	3338.19
1000.00	3354.57
1000.16	3432.40
1000.32	3278.80
1000.48	3456.97
1000.64	3313.61
1000.80	3246.03
1000.95	3203.02
1001.11	3299.28
1001.27	3164.11
1001.43	3278.80
1001.59	3151.82
1001.75	3190.74
1001.91	3192.78
1002.07	3264.46
1002.23	3229.65
1002.39	3145.68
1002.55	3178.45
1002.71	3174.35
1002.87	3129.30
1003.03	3225.55
1003.19	3100.62
1003.34	3289.04
1003.50	3231.69
1003.66	3313.61
1003.82	3182.54
1003.98	3076.05
1004.14	3233.74
1004.30	3076.05
1004.46	3078.10
1004.62	3151.82
1004.78	3074.00
1004.94	3035.09
1005.09	3125.20
1005.25	3147.73
1005.41	3065.81
1005.57	3127.25
1005.73	2930.64
1005.89	3049.43
1006.05	3084.24
1006.21	2996.18
1006.37	3000.27
1006.52	2981.84
1006.68	2959.31
1006.84	3164.11
1007.00	2895.83
1007.16	2906.07
1007.32	2983.89
1007.48	2920.40
1007.64	2949.08
1007.79	2930.64
1007.95	2895.83
1008.11	2908.12
1008.27	2922.45
1008.43	2934.74
1008.59	2924.50
1008.75	2934.74
1008.91	2848.72
1009.06	2799.57
1009.22	2965.46
1009.38	2858.96
1009.54	2783.19
1009.70	2805.72
1009.86	2832.34
1010.01	2858.96
1010.17	2764.76
1010.33	2815.96
1010.49	2850.77
1010.65	2850.77
1010.81	2856.92
1010.96	2760.66
1011.12	2775.00
1011.28	2727.89
1011.44	2879.44
1011.60	2723.80
1011.76	2762.71
1011.91	2752.47
1012.07	2705.37
1012.23	2760.66
1012.39	2713.56
1012.55	2834.39
1012.71	2570.20
1012.86	2643.93
1013.02	2701.27
1013.18	2682.84
1013.34	2678.74
1013.50	2709.46
1013.65	2672.60
1013.81	2629.59
1013.97	2592.73
1014.13	2674.65
1014.29	2594.78
1014.44	2703.32
1014.60	2590.68
1014.76	2658.26
1014.92	2605.02
1015.07	2686.94
1015.23	2629.59
1015.39	2570.20
1015.55	2533.34
1015.71	2617.30
1015.86	2623.45
1016.02	2441.18
1016.18	2432.99
1016.34	2672.60
1016.49	2527.19
1016.65	2609.11
1016.81	2531.29
1016.97	2586.58
1017.12	2467.80
1017.28	2488.28
1017.44	2383.84
1017.60	2447.32
1017.75	2547.67
1017.91	2490.33
1018.07	2504.67
1018.23	2516.95
1018.38	2484.19
1018.54	2471.90
1018.70	2590.68
1018.86	2453.47
1019.01	2494.43
1019.17	2430.94
1019.33	2539.48
1019.49	2441.18
1019.64	2469.85
1019.80	2426.84
1019.96	2519.00
1020.12	2410.46
1020.27	2336.73
1020.43	2387.93
1020.59	2383.84
1020.74	2426.84
1020.90	2357.21
1021.06	2344.92
1021.22	2392.03
1021.37	2473.95
1021.53	2244.57
1021.69	2418.65
1021.84	2301.92
1022.00	2330.59
1022.16	2330.59
1022.31	2338.78
1022.47	2392.03
1022.63	2404.32
1022.79	2265.05
1022.94	2248.67
1023.10	2322.40
1023.26	2293.72
1023.41	2359.26
1023.57	2363.36
1023.73	2240.48
1023.88	2279.39
1024.04	2234.33
1024.20	2215.90
1024.35	2263.01
1024.51	2328.54
1024.67	2293.72
1024.82	2349.02
1024.98	2215.90
1025.14	2224.09
1025.29	2310.11
1025.45	2193.37
1025.61	2162.66
1025.76	2179.04
1025.92	2185.18
1026.08	2279.39
1026.23	2240.48
1026.39	2369.50
1026.55	2160.61
1026.70	2181.09
1026.86	2226.14
1027.02	2275.29
1027.17	2211.81
1027.33	2183.13
1027.48	2152.42
1027.64	2142.18
1027.80	2060.26
1027.95	2232.29
1028.11	2072.54
1028.27	2144.22
1028.42	2121.70
1028.58	2101.22
1028.73	2123.74
1028.89	2101.22
1029.05	2246.62
1029.20	2197.47
>>>>>End Processed Spectral Data<<<<<
