SpectraSuite Data File
++++++++++++++++++++++++++++++++++++
Date: Fri Jun 02 14:41:57 CEST 2017
User: INFO_000
Dark Spectrum Present: No
Reference Spectrum Present: No
Number of Sampled Component Spectra: 1
Spectrometers: USB4H00879
Integration Time (usec): 80000 (USB4H00879)
Spectra Averaged: 1 (USB4H00879)
Boxcar Smoothing: 0 (USB4H00879)
Correct for Electrical Dark: No (USB4H00879)
Strobe/Lamp Enabled: No (USB4H00879)
Correct for Detector Non-linearity: No (USB4H00879)
Correct for Stray Light: No (USB4H00879)
Number of Pixels in Processed Spectrum: 3648
>>>>>Begin Processed Spectral Data<<<<<
345.13	1255.40
345.34	1255.40
345.56	1255.40
345.78	1310.70
345.99	1327.08
346.21	1712.10
346.42	1794.02
346.64	1714.15
346.86	1849.32
347.07	1640.42
347.29	1712.10
347.50	1617.90
347.72	1714.15
347.94	1839.08
348.15	1581.03
348.37	1605.61
348.59	1736.68
348.80	1628.14
349.02	1751.01
349.23	1798.12
349.45	1841.12
349.67	1861.60
349.88	1814.50
350.10	1916.90
350.31	1822.69
350.53	1880.04
350.75	1935.33
350.96	1730.53
351.18	1890.28
351.39	1888.23
351.61	1798.12
351.82	1863.65
352.04	1910.75
352.26	1826.79
352.47	1873.89
352.69	1986.53
352.90	1808.36
353.12	1918.95
353.34	1853.41
353.55	1933.28
353.77	1910.75
353.98	1742.82
354.20	1820.64
354.41	1937.38
354.63	2047.97
354.85	1988.58
355.06	1832.93
355.28	1771.49
355.49	1925.09
355.71	1888.23
355.92	1884.13
356.14	1923.04
356.35	1892.32
356.57	1951.71
356.79	1902.56
357.00	1890.28
357.22	1970.15
357.43	1822.69
357.65	1994.72
357.86	1906.66
358.08	1867.75
358.29	1896.42
358.51	1976.29
358.72	2050.02
358.94	1974.24
359.16	1916.90
359.37	1894.37
359.59	1927.14
359.80	2078.69
360.02	1953.76
360.23	2009.06
360.45	1982.43
360.66	1902.56
360.88	1863.65
361.09	1920.99
361.31	2068.45
361.52	1931.23
361.74	2074.59
361.95	2023.39
362.17	2009.06
362.38	2123.74
362.60	1990.63
362.81	1949.67
363.03	1941.47
363.24	1906.66
363.46	2052.06
363.67	2099.17
363.89	2011.11
364.10	1972.19
364.32	1949.67
364.53	2060.26
364.75	1849.32
364.96	2029.54
365.18	2037.73
365.39	1986.53
365.61	1951.71
365.82	2138.08
366.04	2033.63
366.25	1982.43
366.47	2078.69
366.68	2041.82
366.90	1953.76
367.11	2074.59
367.33	2031.58
367.54	2174.94
367.76	2043.87
367.97	2088.93
368.19	2068.45
368.40	2068.45
368.62	1990.63
368.83	2015.20
369.05	2056.16
369.26	1978.34
369.48	1992.67
369.69	2029.54
369.91	2009.06
370.12	2011.11
370.33	2131.94
370.55	1972.19
370.76	2103.26
370.98	2113.50
371.19	2066.40
371.41	2025.44
371.62	2052.06
371.84	1986.53
372.05	2154.46
372.27	2037.73
372.48	2082.78
372.69	2109.41
372.91	2125.79
373.12	2107.36
373.34	2197.47
373.55	2113.50
373.77	2117.60
373.98	2205.66
374.20	2115.55
374.41	2244.57
374.62	2150.37
374.84	2119.65
375.05	2191.33
375.27	2189.28
375.48	2240.48
375.70	2209.76
375.91	2293.72
376.12	2265.05
376.34	2230.24
376.55	2209.76
376.77	2224.09
376.98	2166.75
377.19	2140.13
377.41	2082.78
377.62	2183.13
377.84	2248.67
378.05	2324.44
378.27	2260.96
378.48	2303.96
378.69	2367.45
378.91	2342.88
379.12	2338.78
379.34	2252.77
379.55	2297.82
379.76	2252.77
379.98	2195.42
380.19	2322.40
380.41	2404.32
380.62	2283.49
380.83	2289.63
381.05	2179.04
381.26	2478.04
381.47	2220.00
381.69	2330.59
381.90	2426.84
382.12	2357.21
382.33	2355.16
382.54	2242.53
382.76	2363.36
382.97	2320.35
383.19	2281.44
383.40	2400.22
383.61	2244.57
383.83	2295.77
384.04	2336.73
384.25	2334.68
384.47	2428.89
384.68	2459.61
384.89	2330.59
385.11	2400.22
385.32	2381.79
385.54	2463.71
385.75	2330.59
385.96	2402.27
386.18	2430.94
386.39	2410.46
386.60	2344.92
386.82	2416.60
387.03	2494.43
387.24	2521.05
387.46	2461.66
387.67	2453.47
387.88	2613.21
388.10	2523.10
388.31	2465.75
388.52	2519.00
388.74	2539.48
388.95	2537.43
389.16	2559.96
389.38	2568.15
389.59	2668.50
389.80	2752.47
390.02	2574.30
390.23	2654.17
390.44	2596.82
390.66	2611.16
390.87	2656.22
391.08	2602.97
391.30	2731.99
391.51	2709.46
391.72	2682.84
391.94	2662.36
392.15	2564.06
392.36	2686.94
392.58	2617.30
392.79	2770.90
393.00	2742.23
393.22	2709.46
393.43	2785.24
393.64	2783.19
393.85	2834.39
394.07	2717.65
394.28	2813.91
394.49	2877.40
394.71	2838.48
394.92	2828.24
395.13	2795.48
395.35	2756.57
395.56	2899.92
395.77	2871.25
395.98	2815.96
396.20	3012.56
396.41	2895.83
396.62	2899.92
396.84	2842.58
397.05	2828.24
397.26	3000.27
397.47	2934.74
397.69	2858.96
397.90	3051.47
398.11	2942.93
398.32	2916.31
398.54	2981.84
398.75	3049.43
398.96	3010.51
399.18	3125.20
399.39	3004.37
399.60	3022.80
399.81	2983.89
400.03	2983.89
400.24	3266.51
400.45	2961.36
400.66	3045.33
400.88	3069.91
401.09	3194.83
401.30	3166.16
401.51	3264.46
401.73	3149.78
401.94	3272.65
402.15	3174.35
402.36	3209.17
402.58	3170.26
402.79	3286.99
403.00	3192.78
403.21	3313.61
403.43	3299.28
403.64	3397.58
403.85	3151.82
404.06	3282.89
404.27	3176.40
404.49	3352.52
404.70	3264.46
404.91	3229.65
405.12	3338.19
405.34	3248.08
405.55	3387.34
405.76	3334.09
405.97	3301.33
406.19	3442.64
406.40	3241.93
406.61	3420.11
406.82	3502.03
407.03	3379.15
407.25	3448.78
407.46	3573.71
407.67	3463.12
407.88	3598.28
408.09	3391.44
408.31	3426.25
408.52	3483.59
408.73	3456.97
408.94	3434.44
409.15	3426.25
409.37	3489.74
409.58	3538.89
409.79	3600.33
410.00	3528.65
410.21	3522.51
410.43	3557.32
410.64	3485.64
410.85	3514.31
411.06	3579.85
411.27	3717.06
411.48	3755.97
411.70	3475.40
411.91	3639.24
412.12	3772.36
412.33	3563.47
412.54	3669.96
412.76	3727.30
412.97	3721.16
413.18	3706.82
413.39	3649.48
413.60	3737.54
413.81	3786.69
414.03	3684.30
414.24	3626.95
414.45	3893.19
414.66	3663.82
414.87	3749.83
415.08	3821.51
415.30	3862.47
415.51	3837.89
415.72	3776.45
415.93	3796.93
416.14	3954.63
416.35	3893.19
416.56	4050.88
416.78	3975.11
416.99	4003.78
417.20	3964.87
417.41	3925.96
417.62	3905.48
417.83	4024.26
418.04	3925.96
418.26	4065.22
418.47	3993.54
418.68	4102.08
418.89	4059.07
419.10	4251.58
419.31	4042.69
419.52	4196.29
419.73	4120.51
419.95	4255.68
420.16	4046.79
420.37	4147.14
420.58	4302.78
420.79	4018.11
421.00	4161.47
421.21	4214.72
421.42	4126.66
421.63	4184.00
421.85	4198.34
422.06	4349.89
422.27	4427.71
422.48	4298.69
422.69	4392.89
422.90	4323.26
423.11	4317.12
423.32	4425.66
423.53	4521.92
423.75	4538.30
423.96	4521.92
424.17	4612.03
424.38	4628.41
424.59	4427.71
424.80	4665.27
425.01	4665.27
425.22	4579.26
425.43	4612.03
425.64	4798.39
425.85	4679.61
426.06	4577.21
426.28	4648.89
426.49	4638.65
426.70	4724.66
426.91	4796.34
427.12	4773.82
427.33	4800.44
427.54	4769.72
427.75	4730.81
427.96	4988.85
428.17	4812.73
428.38	4966.32
428.59	4927.41
428.80	4917.17
429.01	4911.03
429.23	4923.32
429.44	5175.22
429.65	5099.44
429.86	5173.17
430.07	5027.76
430.28	5027.76
430.49	5128.11
430.70	5271.47
430.91	5214.13
431.12	5062.58
431.33	5304.24
431.54	5263.28
431.75	5197.74
431.96	5236.66
432.17	5349.29
432.38	5193.65
432.59	5459.88
432.80	5455.79
433.01	5435.31
433.22	5552.04
433.43	5423.02
433.64	5459.88
433.85	5353.39
434.06	5654.44
434.27	5478.32
434.49	5568.43
434.70	5545.90
434.91	5683.11
435.12	5783.46
435.33	5603.24
435.54	5672.87
435.75	5431.21
435.96	5480.36
436.17	5492.65
436.38	5869.48
436.59	5744.55
436.80	5705.64
437.01	5973.92
437.22	5851.05
437.43	5869.48
437.64	5744.55
437.85	5904.29
438.06	5949.35
438.27	5871.53
438.48	5840.81
438.69	6057.89
438.90	5982.12
439.11	5797.80
439.32	6109.09
439.53	5984.16
439.74	5959.59
439.95	6059.94
440.16	6178.72
440.37	6121.38
440.57	5844.90
440.78	6264.74
440.99	6209.44
441.20	6098.85
441.41	6131.62
441.62	6160.29
441.83	6049.70
442.04	6168.48
442.25	6358.94
442.46	6203.30
442.67	6342.56
442.88	6729.63
443.09	6279.07
443.30	6287.26
443.51	6358.94
443.72	6539.16
443.93	6381.47
444.14	6561.69
444.35	6299.55
444.56	6526.88
444.77	6547.36
444.98	6533.02
445.19	6559.64
445.40	6590.36
445.61	6383.52
445.81	6795.16
446.02	6616.99
446.23	6715.29
446.44	6457.25
446.65	6619.04
446.86	6659.99
447.07	6868.89
447.28	6776.73
447.49	6944.66
447.70	6703.00
447.91	6981.53
448.12	6856.60
448.33	6967.19
448.54	7022.48
448.74	6983.57
448.95	6963.09
449.16	6832.02
449.37	7212.95
449.58	7059.35
449.79	7282.58
450.00	7016.34
450.21	7239.57
450.42	7294.86
450.63	7348.11
450.84	7233.43
451.05	7268.24
451.25	7188.37
451.46	7143.32
451.67	7374.74
451.88	7528.33
452.09	7366.54
452.30	7432.08
452.51	7294.86
452.72	7575.44
452.93	7690.12
453.13	7454.61
453.34	7542.67
453.55	7593.87
453.76	7446.41
453.97	7888.78
454.18	7726.99
454.39	7749.51
454.60	7694.22
454.81	7837.58
455.01	7903.11
455.22	7698.31
455.43	7794.57
455.64	8003.46
455.85	8243.07
456.06	8277.89
456.27	8140.68
456.48	7999.37
456.68	8038.28
456.89	7962.50
457.10	8243.07
457.31	8306.56
457.52	8281.99
457.73	8398.72
457.94	8439.68
458.14	8232.83
458.35	8494.97
458.56	8554.37
458.77	8320.90
458.98	8757.11
459.19	8445.82
459.39	8691.58
459.60	8886.14
459.81	8568.70
460.02	8968.06
460.23	8855.42
460.44	8961.91
460.65	9011.06
460.85	9148.28
461.06	9019.25
461.27	8843.13
461.48	9256.82
461.69	9312.11
461.89	8941.43
462.10	9166.71
462.31	9174.90
462.52	9103.22
462.73	9242.48
462.94	9471.86
463.14	9391.98
463.35	9400.18
463.56	9873.26
463.77	9772.91
463.98	9613.17
464.18	9629.55
464.39	9822.06
464.60	9936.74
464.81	9922.41
465.02	9879.40
465.23	10153.83
465.43	9873.26
465.64	10321.76
465.85	10196.84
466.06	10104.68
466.27	10524.51
466.47	10289.00
466.68	10340.19
466.89	10495.84
467.10	10645.34
467.30	10227.56
467.51	10620.77
467.72	10884.95
467.93	10479.46
468.14	10538.85
468.34	10864.47
468.55	10985.30
468.76	10837.85
468.97	10882.91
469.17	11243.35
469.38	11194.20
469.59	11382.61
469.80	11181.91
470.01	11067.22
470.21	11347.79
470.42	11616.08
470.63	11642.70
470.84	11689.81
471.04	11601.74
471.25	11913.03
471.46	11659.09
471.67	12115.78
471.87	12089.16
472.08	11966.28
472.29	12293.96
472.50	11980.62
472.70	12113.74
472.91	12328.77
473.12	12554.05
473.33	12306.24
473.53	12439.36
473.74	12562.24
473.95	12658.49
474.16	12996.41
474.36	12885.82
474.57	13242.17
474.78	13233.97
474.99	12977.98
475.19	13125.43
475.40	13397.81
475.61	13162.30
475.81	13444.91
476.02	13741.87
476.23	13578.03
476.44	13868.84
476.64	13745.97
476.85	14122.79
477.06	14024.49
477.27	14278.44
477.47	14325.54
477.68	14210.86
477.89	14460.71
478.09	14556.96
478.30	14520.10
478.51	14640.93
478.71	14874.40
478.92	14747.42
479.13	14991.13
479.34	15286.04
479.54	15089.43
479.75	15240.98
479.96	15224.60
480.16	15288.09
480.37	15525.65
480.58	15675.15
480.78	15884.05
480.99	15513.36
481.20	16047.88
481.41	15861.52
481.61	16074.51
481.82	16207.62
482.03	16019.21
482.23	16267.02
482.44	16625.41
482.65	16604.93
482.85	16731.90
483.06	16572.16
483.27	16832.26
483.47	16764.67
483.68	17174.27
483.89	17194.75
484.09	16996.09
484.30	17188.60
484.51	17559.28
484.71	17608.44
484.92	17567.48
485.13	17723.12
485.33	17729.27
485.54	17872.62
485.75	18296.55
485.95	18116.33
486.16	18171.63
486.37	18507.49
486.57	18235.11
486.78	18245.35
486.98	18278.12
487.19	18712.29
487.40	18638.56
487.60	18667.24
487.81	18984.67
488.02	18974.43
488.22	19123.93
488.43	19181.28
488.64	19353.30
488.84	19404.50
489.05	19766.99
489.25	19271.39
489.46	19932.88
489.67	19635.92
489.87	19828.43
490.08	19994.32
490.29	20043.47
490.49	20129.48
490.70	20195.02
490.90	20440.78
491.11	20276.94
491.32	20469.45
491.52	20606.66
491.73	20606.66
491.94	20606.66
492.14	20719.30
492.35	21040.83
492.55	21167.80
492.76	21247.68
492.97	21454.52
493.17	21149.37
493.38	21558.97
493.58	21692.08
493.79	21423.80
494.00	21417.66
494.20	21624.50
494.41	22021.81
494.61	21882.55
494.82	22060.72
495.02	22124.21
495.23	21870.26
495.44	22124.21
495.64	22511.27
495.85	22548.14
496.05	22541.99
496.26	22447.79
496.47	22943.39
496.67	22515.37
496.88	23070.37
497.08	22472.36
497.29	23285.40
497.49	22863.52
497.70	23178.91
497.91	23348.89
498.11	23410.33
498.32	23508.63
498.52	23598.74
498.73	23758.49
498.93	23774.87
499.14	23920.28
499.34	24071.82
499.55	24178.32
499.76	24170.13
499.96	24012.43
500.17	23932.56
500.37	24319.63
500.58	24286.86
500.78	24305.29
500.99	24434.32
501.19	24616.58
501.40	24747.65
501.60	24637.06
501.81	24723.08
502.02	24807.05
502.22	24561.29
502.43	25093.76
502.63	24913.54
502.84	25341.57
503.04	24911.49
503.25	24987.27
503.45	25337.47
503.66	25624.18
503.86	25419.39
504.07	25745.02
504.27	25376.38
504.48	25849.46
504.68	25595.51
504.89	26033.78
505.09	25933.43
505.30	25683.58
505.50	25951.86
505.71	26041.97
505.91	26056.31
506.12	26240.62
506.32	26289.77
506.53	26164.85
506.73	26173.04
506.94	26369.65
507.14	26502.76
507.35	26629.74
507.55	26508.91
507.76	26785.38
507.96	26443.37
508.17	26773.10
508.37	26926.69
508.58	26992.23
508.78	26756.71
508.99	27266.66
509.19	27283.04
509.40	27397.73
509.60	27033.19
509.81	27201.12
510.01	27137.63
510.22	27317.86
510.42	27080.29
510.63	27442.78
510.83	27276.90
511.04	27666.01
511.24	27801.18
511.44	27639.39
511.65	27604.57
511.85	27545.18
512.06	28065.36
512.26	28175.95
512.47	28139.09
512.67	28022.36
512.88	27772.50
513.08	27967.06
513.29	28667.47
513.49	27883.09
513.69	28337.74
513.90	28503.63
514.10	28552.78
514.31	28612.17
514.51	28661.32
514.72	28665.42
514.92	28595.79
515.13	28702.28
515.33	28724.81
515.53	28636.75
515.74	28907.08
515.94	29267.52
516.15	28929.61
516.35	28900.94
516.56	29611.58
516.76	28993.09
516.96	29132.36
517.17	29460.03
517.37	29275.71
517.58	29537.85
517.78	29580.86
517.99	29793.85
518.19	29748.79
518.39	29599.29
518.60	29943.35
518.80	29871.67
519.01	29816.38
519.21	29902.39
519.41	30279.22
519.62	29906.49
519.82	30223.92
520.03	30180.92
520.23	30250.55
520.43	29996.60
520.64	30469.68
520.84	30615.08
521.05	30643.76
521.25	30821.93
521.45	30858.79
521.66	30883.37
521.86	30727.72
522.07	30967.34
522.27	30932.52
522.47	31127.08
522.68	31409.70
522.88	31114.79
523.08	31485.47
523.29	31397.41
523.49	31503.90
523.70	31544.86
523.90	31532.57
524.10	32106.01
524.31	31809.05
524.51	31475.23
524.71	32292.37
524.92	31997.46
525.12	32253.46
525.33	32065.05
525.53	32448.02
525.73	32568.85
525.94	32398.87
526.14	32540.18
526.34	32587.28
526.55	32816.65
526.75	32777.74
526.95	33224.20
527.16	32595.47
527.36	33000.97
527.56	33207.81
527.77	33439.23
527.97	33463.81
528.17	33314.31
528.38	33748.48
528.58	33353.22
528.78	33603.07
528.99	33644.03
529.19	33684.99
529.39	33877.50
529.60	34260.47
529.80	33979.90
530.00	34291.19
530.21	34551.28
530.41	34579.95
530.61	34293.24
530.82	34569.71
531.02	34723.31
531.22	34538.99
531.43	34700.78
531.63	34991.59
531.83	35210.73
532.04	35259.88
532.24	35075.56
532.44	35722.72
532.64	35433.96
532.85	35780.06
533.05	35495.39
533.25	35648.99
533.46	35509.73
533.66	35851.74
533.86	35743.20
534.07	36302.29
534.27	36064.73
534.47	36144.60
534.67	36658.64
534.88	36109.78
535.08	36363.73
535.28	36644.30
535.49	36599.25
535.69	37178.82
535.89	36855.25
536.09	37205.45
536.30	37225.93
536.50	36941.26
536.70	37649.86
536.91	37619.14
537.11	37561.79
537.31	37496.26
537.51	37776.83
537.72	38026.68
537.92	38358.45
538.12	38208.95
538.32	38243.77
538.53	38548.92
538.73	38108.60
538.93	38151.61
539.13	38067.64
539.34	38348.21
539.54	38409.65
539.74	38690.23
539.94	38725.04
540.15	38487.48
540.35	38796.72
540.55	39073.20
540.75	38669.75
540.96	39140.78
541.16	38962.61
541.36	39548.32
541.56	39259.56
541.77	39675.30
541.97	39302.57
542.17	39441.83
542.37	39632.29
542.58	39677.35
542.78	39333.29
542.98	39746.98
543.18	39800.22
543.38	40025.50
543.59	40099.23
543.79	39941.53
543.99	40009.12
544.19	40416.66
544.40	40670.61
544.60	40816.02
544.80	40439.19
545.00	40760.72
545.20	40527.25
545.41	40557.97
545.61	40498.58
545.81	40770.96
546.01	40973.71
546.21	40750.48
546.42	41000.33
546.62	41276.81
546.82	40930.70
547.02	41366.92
547.22	41250.19
547.43	41342.35
547.63	41383.30
547.83	41649.54
548.03	41657.73
548.23	41774.47
548.44	41657.73
548.64	42093.95
548.84	41606.53
549.04	41956.74
549.24	42104.19
549.45	42431.86
549.65	41973.12
549.85	41874.82
550.05	42407.29
550.25	42001.79
550.45	42341.75
550.66	42227.07
550.86	42245.50
551.06	42276.22
551.26	42487.16
551.46	42409.34
551.66	42513.78
551.87	42632.57
552.07	42741.11
552.27	42956.14
552.47	42890.61
552.67	43244.91
552.87	42452.34
553.07	42870.13
553.28	42792.31
553.48	43402.60
553.68	43279.72
553.88	43425.13
554.08	43289.96
554.28	43365.74
554.48	43040.11
554.69	43337.07
554.89	43296.11
555.09	43912.55
555.29	43554.15
555.49	43865.44
555.69	43533.67
555.89	43455.85
556.10	44281.18
556.30	43408.75
556.50	43740.52
556.70	43625.83
556.90	43619.69
557.10	43867.49
557.30	43939.17
557.50	43887.97
557.70	44023.14
557.91	44098.91
558.11	44109.15
558.31	44275.04
558.51	44006.75
558.71	44215.65
558.91	44029.28
559.11	44266.84
559.31	43949.41
559.51	43814.24
559.72	44291.42
559.92	44825.94
560.12	44342.62
560.32	44455.26
560.52	44512.60
560.72	44809.56
560.92	44711.25
561.12	44725.59
561.32	44983.63
561.52	44516.70
561.72	44827.99
561.93	45294.92
562.13	45049.17
562.33	44893.52
562.53	45466.95
562.73	44801.36
562.93	45110.61
563.13	45319.50
563.33	45227.34
563.53	45348.17
563.73	45225.29
563.93	44832.08
564.13	45530.44
564.33	45393.23
564.53	45546.82
564.74	45731.14
564.94	45397.32
565.14	45851.97
565.34	45528.39
565.54	45845.83
565.74	45387.08
565.94	45915.46
566.14	45765.96
566.34	46038.34
566.54	45991.23
566.74	45770.05
566.94	45524.30
567.14	45851.97
567.34	45581.64
567.54	46306.62
567.74	45966.66
567.94	46263.61
568.14	46175.55
568.34	46357.82
568.54	46296.38
568.74	46898.48
568.94	46036.29
569.14	46832.95
569.34	46431.55
569.54	46323.01
569.75	45917.51
569.95	46394.68
570.15	46937.40
570.35	46785.85
570.55	46738.74
570.75	46505.27
570.95	46685.50
571.15	46906.68
571.35	47011.12
571.55	46867.76
571.75	46535.99
571.95	46976.31
572.15	46753.08
572.35	47383.85
572.55	47242.54
572.75	47129.90
572.95	47455.53
573.15	47596.84
573.35	47295.79
573.55	47041.84
573.75	47109.43
573.95	47539.50
574.15	47740.20
574.35	47707.43
574.55	47803.69
574.75	47195.44
574.95	47623.47
575.15	47361.33
575.34	47985.96
575.54	47754.54
575.74	47424.81
575.94	48102.69
576.14	47775.02
576.34	48250.14
576.54	47945.00
576.74	48190.75
576.94	48096.55
577.14	48362.78
577.34	48241.95
577.54	48184.61
577.74	48217.38
577.94	48323.87
578.14	48413.98
578.34	48684.31
578.54	47846.69
578.74	47904.04
578.94	48456.99
579.14	48520.48
579.34	48631.07
579.54	49007.89
579.74	49102.10
579.94	48692.50
580.13	48887.06
580.33	49186.07
580.53	49161.49
580.73	49329.42
580.93	48704.79
581.13	48964.88
581.33	49249.55
581.53	49876.23
581.73	49323.28
581.93	49788.17
582.13	49622.28
582.33	49497.36
582.53	49579.28
582.73	49933.57
582.92	50013.44
583.12	49300.75
583.32	49380.62
583.52	49599.76
583.72	49906.95
583.92	49906.95
584.12	50054.40
584.32	50498.81
584.52	49943.81
584.72	50119.94
584.92	50289.92
585.11	50517.25
585.31	50453.76
585.51	50595.07
585.71	50050.31
585.91	50920.70
586.11	50189.57
586.31	50629.88
586.51	50875.64
586.71	50783.48
586.91	50416.89
587.10	50689.27
587.30	50431.23
587.50	50769.15
587.70	51221.75
587.90	50877.69
588.10	50996.47
588.30	50967.80
588.50	51305.71
588.69	51262.71
588.89	51068.15
589.09	50984.18
589.29	50883.83
589.49	51436.78
589.69	50818.30
589.89	51324.14
590.08	51434.74
590.28	51420.40
590.48	51416.30
590.68	51272.95
590.88	51635.44
591.08	51440.88
591.28	51424.50
591.47	51946.73
591.67	51965.16
591.87	51715.31
592.07	51893.48
592.27	51487.98
592.47	52032.74
592.67	51778.79
592.86	51950.82
593.06	52096.23
593.26	51936.49
593.46	51823.85
593.66	51614.96
593.86	52253.92
594.05	52276.45
594.25	52210.92
594.45	51905.77
594.65	52507.87
594.85	51959.02
595.05	52735.20
595.24	52892.89
595.44	52497.63
595.64	52327.65
595.84	52819.16
596.04	52819.16
596.23	53449.94
596.43	53105.88
596.63	52866.27
596.83	52931.80
597.03	53171.41
597.22	53437.65
597.42	53501.14
597.62	53646.54
597.82	53396.69
598.02	53318.87
598.21	53814.47
598.41	53267.67
598.61	53585.10
598.81	53570.77
599.01	53810.38
599.20	53621.97
599.40	53255.38
599.60	53564.62
599.80	53877.96
600.00	53781.71
600.19	54529.22
600.39	54115.53
600.59	54076.61
600.79	53974.22
600.98	53933.26
601.18	54121.67
601.38	54262.98
601.58	54465.73
601.78	54475.97
601.97	54250.69
602.17	55080.12
602.37	54367.43
602.57	54633.66
602.76	54883.51
602.96	54549.70
603.16	54637.76
603.36	54748.35
603.55	55262.39
603.75	54936.76
603.95	54875.32
604.15	54531.26
604.34	55198.90
604.54	54924.47
604.74	55389.36
604.94	55631.02
605.13	55022.78
605.33	55708.85
605.53	55315.64
605.73	55391.41
605.92	55551.15
606.12	55700.65
606.32	55919.79
606.52	55561.39
606.71	55313.59
606.91	55835.82
607.11	55276.72
607.30	55415.99
607.50	55934.12
607.70	55714.99
607.90	55923.88
608.09	55522.48
608.29	55870.64
608.49	56106.15
608.68	56239.27
608.88	56003.75
609.08	55882.92
609.28	55999.66
609.47	55997.61
609.67	56601.76
609.87	56407.20
610.06	56259.75
610.26	56259.75
610.46	56669.34
610.66	56679.58
610.85	56587.42
611.05	56173.73
611.25	56597.66
611.44	55977.13
611.64	56523.94
611.84	56288.42
612.03	56581.28
612.23	56159.40
612.43	56308.90
612.62	56243.37
612.82	56931.48
613.02	56683.68
613.21	56898.72
613.41	56472.74
613.61	56999.07
613.80	55784.62
614.00	57070.75
614.20	56620.19
614.39	56540.32
614.59	56820.89
614.79	56902.81
614.98	56931.48
615.18	56634.53
615.38	57007.26
615.57	56738.97
615.77	57058.46
615.97	56908.96
616.16	56929.44
616.36	56661.15
616.56	57154.71
616.75	57052.31
616.95	56409.25
617.15	56911.00
617.34	56915.10
617.54	56925.34
617.74	57146.52
617.93	56902.81
618.13	56835.23
618.32	56849.56
618.52	56759.45
618.72	56624.29
618.91	56814.75
619.11	56685.73
619.31	56970.39
619.50	57103.51
619.70	57072.79
619.90	56859.80
620.09	56829.08
620.29	56700.06
620.48	56974.49
620.68	57943.18
620.88	56575.14
621.07	56915.10
621.27	56530.08
621.46	56622.24
621.66	56845.47
621.86	57123.99
622.05	56433.83
622.25	56896.67
622.44	57328.79
622.64	56497.31
622.84	56616.10
623.03	56329.38
623.23	56794.27
623.42	56728.73
623.62	57068.70
623.82	56956.06
624.01	56833.18
624.21	57119.90
624.40	56720.54
624.60	56820.89
624.80	56767.65
624.99	56857.76
625.19	56636.58
625.38	57175.19
625.58	56859.80
625.77	57181.34
625.97	57029.79
626.17	56452.26
626.36	56990.87
626.56	57083.03
626.75	56673.44
626.95	56898.72
627.14	56589.47
627.34	57259.16
627.54	56609.95
627.73	56894.62
627.93	56861.85
628.12	56667.30
628.32	56683.68
628.51	56988.83
628.71	56954.01
628.90	56571.04
629.10	56827.04
629.30	56923.29
629.49	57285.78
629.69	56595.62
629.88	56745.12
630.08	56868.00
630.27	57058.46
630.47	57099.42
630.66	57418.90
630.86	57326.74
631.05	56781.98
631.25	57386.13
631.44	56997.02
631.64	57087.13
631.84	57361.56
632.03	57308.31
632.23	56882.33
632.42	57375.89
632.62	56931.48
632.81	57103.51
633.01	56902.81
633.20	57459.86
633.40	57103.51
633.59	57072.79
633.79	56757.41
633.98	57109.66
634.18	57230.49
634.37	57078.94
634.57	57314.45
634.76	57871.50
634.96	57142.42
635.15	57466.00
635.35	57169.05
635.54	57126.04
635.74	57482.39
635.93	56951.96
636.13	57832.59
636.32	57588.88
636.52	57119.90
636.71	57210.01
636.91	57423.00
637.10	57275.54
637.30	57308.31
637.49	56767.65
637.69	57285.78
637.88	57459.86
638.08	57498.77
638.27	57709.71
638.46	57423.00
638.66	57316.50
638.85	57480.34
639.05	57705.62
639.24	57664.66
639.44	57162.90
639.63	57312.41
639.83	57525.39
640.02	57283.73
640.22	57560.21
640.41	58045.58
640.61	57080.98
640.80	57455.76
640.99	57423.00
641.19	58023.05
641.38	57410.71
641.58	57441.43
641.77	57408.66
641.97	57095.32
642.16	57611.41
642.36	57558.16
642.55	57922.70
642.74	57087.13
642.94	58021.00
643.13	57289.88
643.33	57623.70
643.52	57922.70
643.72	57898.12
643.91	58027.15
644.10	57482.39
644.30	58305.67
644.49	57711.76
644.69	58152.07
644.88	57889.93
645.08	57789.58
645.27	57959.56
645.46	57611.41
645.66	57871.50
645.85	57633.94
646.05	58008.71
646.24	58215.56
646.43	58381.45
646.63	58233.99
646.82	58064.01
647.02	58047.63
647.21	58414.21
647.40	58348.68
647.60	57898.12
647.79	58492.04
647.99	58262.66
648.18	57988.24
648.37	58682.50
648.57	58193.03
648.76	58264.71
648.96	58285.19
649.15	58745.98
649.34	58655.87
649.54	58885.25
649.73	58285.19
649.92	58444.93
650.12	58156.17
650.31	58524.80
650.51	58498.18
650.70	58373.25
650.89	58387.59
651.09	58971.26
651.28	58293.38
651.47	58598.53
651.67	58389.64
651.86	59245.69
652.06	58064.01
652.25	58954.88
652.44	58727.55
652.64	58363.01
652.83	58569.86
653.02	58432.64
653.22	58733.70
653.41	58541.19
653.60	58129.54
653.80	58451.08
653.99	58659.97
654.18	58821.76
654.38	58594.43
654.57	59032.70
654.76	58784.90
654.96	58107.02
655.15	58680.45
655.34	58811.52
655.54	58543.23
655.73	58862.72
655.92	58989.69
656.12	58872.96
656.31	59313.27
656.50	58991.74
656.70	58514.56
656.89	58784.90
657.08	58956.92
657.28	58619.01
657.47	58840.19
657.66	59044.99
657.86	58598.53
658.05	59200.63
658.24	59065.47
658.43	58782.85
658.63	58836.09
658.82	59010.17
659.01	59153.53
659.21	58893.44
659.40	58950.78
659.59	58784.90
659.79	58930.30
659.98	58920.06
660.17	59077.75
660.36	58770.56
660.56	58582.15
660.75	58852.48
660.94	58875.01
661.14	58819.71
661.33	58883.20
661.52	58848.38
661.71	59325.56
661.91	58504.32
662.10	58549.38
662.29	59202.68
662.49	59253.88
662.68	58815.61
662.87	58891.39
663.06	59059.32
663.26	59159.67
663.45	59219.06
663.64	58987.64
663.83	59434.10
664.03	59421.81
664.22	58926.20
664.41	59186.30
664.60	58586.24
664.80	59122.81
664.99	59032.70
665.18	59192.44
665.37	58868.86
665.57	59251.83
665.76	58582.15
665.95	58891.39
666.14	58530.95
666.34	58786.94
666.53	59022.46
666.72	59274.36
666.91	59161.72
667.11	59020.41
667.30	59194.49
667.49	59122.81
667.68	58813.57
667.87	58823.81
668.07	58901.63
668.26	59544.69
668.45	59030.65
668.64	58928.25
668.84	59427.96
669.03	59120.76
669.22	59223.16
669.41	58670.21
669.60	59018.36
669.80	58526.85
669.99	59114.62
670.18	59034.75
670.37	58774.66
670.57	59450.48
670.76	58508.42
670.95	59251.83
671.14	58485.89
671.33	58516.61
671.53	59192.44
671.72	58889.34
671.91	59026.56
672.10	59085.95
672.29	58788.99
672.48	58907.77
672.68	59159.67
672.87	58832.00
673.06	58451.08
673.25	58748.03
673.44	58946.68
673.64	58827.90
673.83	58698.88
674.02	58635.39
674.21	59131.00
674.40	59030.65
674.59	58872.96
674.79	58907.77
674.98	58684.54
675.17	58520.71
675.36	58631.30
675.55	58907.77
675.74	58676.35
675.94	58946.68
676.13	58586.24
676.32	58930.30
676.51	59225.21
676.70	59071.61
676.89	58426.50
677.08	59122.81
677.28	58627.20
677.47	59143.29
677.66	59118.71
677.85	58487.94
678.04	59153.53
678.23	58905.73
678.42	58721.41
678.62	58942.59
678.81	59434.10
679.00	58840.19
679.19	59090.04
679.38	58961.02
679.57	58774.66
679.76	58700.93
679.96	58807.42
680.15	58315.91
680.34	58913.92
680.53	58639.49
680.72	59085.95
680.91	59044.99
681.10	58631.30
681.29	58762.37
681.48	58455.17
681.68	58516.61
681.87	58471.56
682.06	58592.39
682.25	58530.95
682.44	58207.37
682.63	58397.83
682.82	57990.28
683.01	58102.92
683.20	58123.40
683.39	58320.01
683.59	58389.64
683.78	57797.77
683.97	58281.09
684.16	58147.98
684.35	58133.64
684.54	58363.01
684.73	58305.67
684.92	58180.74
685.11	58152.07
685.30	57978.00
685.49	58571.91
685.69	58037.39
685.88	57912.46
686.07	58322.05
686.26	57742.48
686.45	57992.33
686.64	58000.52
686.83	58403.97
687.02	57955.47
687.21	58127.50
687.40	58102.92
687.59	58107.02
687.78	58143.88
687.97	58115.21
688.16	57826.45
688.35	57554.07
688.54	57519.25
688.74	57955.47
688.93	57582.74
689.12	57345.17
689.31	57861.26
689.50	58102.92
689.69	57750.67
689.88	57509.01
690.07	57435.28
690.26	57564.31
690.45	58068.11
690.64	57484.43
690.83	57437.33
691.02	56964.25
691.21	57201.82
691.40	57099.42
691.59	57429.14
691.78	57111.70
691.97	57670.80
692.16	57347.22
692.35	57644.18
692.54	57171.10
692.73	57476.24
692.92	57423.00
693.11	57037.98
693.30	57164.95
693.49	57570.45
693.68	57304.21
693.87	57584.79
694.06	57150.62
694.25	57470.10
694.44	57046.17
694.63	57699.47
694.82	57128.09
695.01	56972.44
695.20	57087.13
695.39	56677.54
695.58	56751.26
695.77	56833.18
695.96	56521.89
696.15	56890.52
696.34	56980.63
696.53	56849.56
696.72	57072.79
696.91	56745.12
697.10	56605.86
697.29	56415.40
697.48	56702.11
697.67	56364.20
697.86	56206.50
698.05	56442.02
698.24	56403.11
698.43	56599.71
698.62	56646.82
698.81	56439.97
699.00	56550.56
699.19	55977.13
699.38	56097.96
699.57	55999.66
699.76	57083.03
699.95	56536.23
700.14	56321.19
700.32	56018.09
700.51	56214.69
700.70	56333.48
700.89	56413.35
701.08	56472.74
701.27	55848.11
701.46	56310.95
701.65	55266.48
701.84	55671.98
702.03	55688.37
702.22	56216.74
702.41	55973.03
702.60	55932.07
702.79	55782.57
702.98	55702.70
703.17	55768.24
703.35	55776.43
703.54	55499.95
703.73	55817.39
703.92	55887.02
704.11	55948.46
704.30	55620.78
704.49	55526.58
704.68	55760.05
704.87	55516.34
705.06	55235.77
705.25	55667.89
705.43	55211.19
705.62	55653.55
705.81	55325.88
706.00	55432.37
706.19	55033.02
706.38	55078.07
706.57	55555.25
706.76	55301.30
706.95	55246.00
707.14	54897.85
707.32	54551.74
707.51	55043.26
707.70	54910.14
707.89	55116.98
708.08	55059.64
708.27	54719.68
708.46	55073.98
708.65	54447.30
708.84	55203.00
709.02	54772.92
709.21	54656.19
709.40	55252.15
709.59	55137.46
709.78	54598.85
709.97	54777.02
710.16	54641.85
710.34	54912.19
710.53	54731.96
710.72	54850.75
710.91	54801.60
711.10	54418.63
711.29	54367.43
711.48	54609.09
711.66	54797.50
711.85	54598.85
712.04	54244.55
712.23	54224.07
712.42	54267.08
712.61	54357.19
712.80	54193.35
712.98	54152.39
713.17	54074.57
713.36	54168.77
713.55	54332.61
713.74	54136.01
713.93	54170.82
714.11	54254.79
714.30	53714.12
714.49	53675.21
714.68	54228.16
714.87	53986.50
715.06	54033.61
715.24	53456.08
715.43	53865.67
715.62	53447.89
715.81	53550.29
716.00	53785.80
716.18	53560.53
716.37	53333.20
716.56	53218.52
716.75	53648.59
716.94	53712.08
717.12	53144.79
717.31	53572.81
717.50	53239.00
717.69	53126.36
717.88	53359.83
718.06	53552.33
718.25	53685.45
718.44	52774.11
718.63	52913.37
718.82	52970.71
719.00	52645.08
719.19	52710.62
719.38	52815.07
719.57	52532.45
719.76	52423.90
719.94	52741.34
720.13	52395.23
720.32	52739.29
720.51	52499.68
720.69	52278.50
720.88	52503.77
721.07	51850.47
721.26	52008.17
721.44	51752.17
721.63	52071.65
721.82	51653.87
722.01	51574.00
722.20	52092.13
722.38	52159.72
722.57	51555.57
722.76	52059.37
722.95	51524.85
723.13	51270.90
723.32	51598.57
723.51	51571.95
723.70	51377.39
723.88	51240.18
724.07	51414.26
724.26	51176.69
724.44	50871.54
724.63	51459.31
724.82	51209.46
725.01	50939.13
725.19	51164.40
725.38	51049.72
725.57	50689.27
725.76	51234.03
725.94	50586.88
726.13	51010.81
726.32	50674.94
726.51	50488.57
726.69	50996.47
726.88	51326.19
727.07	50935.03
727.25	50836.73
727.44	50984.18
727.63	50662.65
727.82	50799.86
728.00	50869.50
728.19	50736.38
728.38	51049.72
728.56	50480.38
728.75	51019.00
728.94	50232.58
729.12	50461.95
729.31	50791.67
729.50	50521.34
729.69	50377.98
729.87	50363.65
730.06	50918.65
730.25	50273.54
730.43	51195.12
730.62	50533.63
730.81	50554.11
730.99	50795.77
731.18	50201.86
731.37	50676.99
731.55	50756.86
731.74	50885.88
731.93	50617.60
732.11	50736.38
732.30	50820.34
732.49	50771.19
732.67	50416.89
732.86	50572.54
733.05	50664.70
733.23	50384.13
733.42	50468.09
733.61	50597.12
733.79	50121.99
733.98	50300.16
734.17	50461.95
734.35	50382.08
734.54	50408.70
734.73	50093.32
734.91	50001.16
735.10	50140.42
735.29	50590.97
735.47	49798.41
735.66	49896.71
735.84	49943.81
736.03	49808.65
736.22	50377.98
736.40	49790.22
736.59	49841.42
736.78	49894.66
736.96	50195.71
737.15	49992.97
737.33	49657.10
737.52	49507.60
737.71	49583.37
737.89	49886.47
738.08	49550.60
738.27	49806.60
738.45	50453.76
738.64	49808.65
738.82	49460.49
739.01	49497.36
739.20	49411.34
739.38	49587.47
739.57	49759.50
739.75	49841.42
739.94	49100.05
740.13	49489.16
740.31	49298.70
740.50	49321.23
740.68	49306.90
740.87	49640.71
741.06	49632.52
741.24	49222.93
741.43	48907.54
741.61	49444.11
741.80	48907.54
741.99	49306.90
742.17	48948.50
742.36	49009.94
742.54	49122.58
742.73	48815.38
742.91	49229.07
743.10	49077.52
743.29	49857.80
743.47	49003.80
743.66	49206.55
743.84	49339.66
744.03	48758.04
744.21	48755.99
744.40	48897.30
744.59	48493.85
744.77	48891.16
744.96	48690.46
745.14	48608.54
745.33	48309.53
745.51	48387.36
745.70	48917.78
745.88	48586.01
746.07	48809.24
746.26	47826.21
746.44	48540.96
746.63	48274.72
746.81	48028.96
747.00	48100.64
747.18	48237.86
747.37	48108.83
747.55	48422.17
747.74	48647.45
747.92	48082.21
748.11	47922.47
748.29	48059.68
748.48	48493.85
748.66	47531.31
748.85	48131.36
749.03	48217.38
749.22	48026.92
749.41	47719.72
749.59	48178.46
749.78	48045.35
749.96	47418.67
750.15	47430.96
750.33	47793.45
750.52	47557.93
750.70	47734.06
750.89	47625.51
751.07	47322.41
751.26	47490.35
751.44	47768.87
751.63	46933.30
751.81	47258.93
752.00	47017.27
752.18	47564.07
752.37	47174.96
752.55	47273.26
752.74	47699.24
752.92	47287.60
753.10	47011.12
753.29	47543.59
753.47	47174.96
753.66	46888.24
753.84	47351.09
754.03	47447.34
754.21	46787.89
754.40	47052.08
754.58	46562.62
754.77	46857.52
754.95	47002.93
755.14	46634.30
755.32	46482.75
755.51	46421.31
755.69	46818.61
755.88	46628.15
756.06	46415.16
756.24	46603.58
756.43	46671.16
756.61	46171.46
756.80	46486.84
756.98	46533.95
757.17	46357.82
757.35	46449.98
757.54	46122.30
757.72	46417.21
757.90	46050.63
758.09	46116.16
758.27	45944.13
758.46	45718.85
758.64	45987.14
758.83	46316.86
759.01	46118.21
759.19	46067.01
759.38	46142.78
759.56	46122.30
759.75	45880.64
759.93	45727.05
760.12	45847.88
760.30	46060.87
760.48	45405.52
760.67	45626.70
760.85	45716.81
761.04	45725.00
761.22	46138.69
761.40	45528.39
761.59	45700.42
761.77	45704.52
761.96	45239.63
762.14	45278.54
762.32	45061.46
762.51	45294.92
762.69	45497.67
762.88	45368.65
763.06	45307.21
763.24	45176.14
763.43	45360.46
763.61	44653.91
763.80	45137.23
763.98	44680.53
764.16	45284.68
764.35	44488.03
764.53	44316.00
764.72	44774.74
764.90	44635.48
765.08	44868.95
765.27	44889.43
765.45	44348.76
765.63	44332.38
765.82	44873.04
766.00	44227.93
766.18	44545.37
766.37	44375.39
766.55	44152.16
766.74	44180.83
766.92	43890.02
767.10	44086.62
767.29	44203.36
767.47	43713.89
767.65	43976.03
767.84	43533.67
768.02	44033.38
768.20	43890.02
768.39	43941.22
768.57	43963.75
768.75	43394.41
768.94	43902.31
769.12	43642.21
769.30	43375.98
769.49	43521.38
769.67	43332.97
769.85	43226.48
770.04	42997.10
770.22	43230.57
770.40	43433.32
770.59	43324.78
770.77	43769.19
770.95	43074.93
771.14	43042.16
771.32	42919.28
771.50	42720.63
771.69	42968.43
771.87	43310.44
772.05	42952.05
772.24	42669.43
772.42	42732.92
772.60	42808.69
772.78	43076.97
772.97	42552.69
773.15	42900.85
773.33	42519.93
773.52	42335.61
773.70	42931.57
773.88	42689.91
774.07	42571.13
774.25	42268.03
774.43	42759.54
774.61	42532.22
774.80	42562.93
774.98	42462.58
775.16	42374.52
775.34	42597.75
775.53	42507.64
775.71	42669.43
775.89	42587.51
776.08	42263.93
776.26	42706.29
776.44	42671.48
776.62	42440.06
776.81	42485.11
776.99	42880.37
777.17	42823.03
777.35	42743.16
777.54	42831.22
777.72	42165.63
777.90	43087.21
778.08	43023.73
778.27	42863.99
778.45	43210.09
778.63	43224.43
778.81	42626.42
779.00	43380.07
779.18	42904.95
779.36	43103.60
779.54	42923.38
779.73	42921.33
779.91	43392.36
780.09	43195.76
780.27	43210.09
780.46	43285.87
780.64	43310.44
780.82	43083.12
781.00	43240.81
781.19	43617.64
781.37	43236.72
781.55	43328.87
781.73	43611.49
781.91	43160.94
782.10	43900.26
782.28	43271.53
782.46	43736.42
782.64	43687.27
782.82	43611.49
783.01	43498.86
783.19	43853.15
783.37	43613.54
783.55	43408.75
783.74	43867.49
783.92	43072.88
784.10	43691.37
784.28	43509.10
784.46	43285.87
784.64	43228.52
784.83	43457.90
785.01	43502.95
785.19	43550.06
785.37	43398.51
785.55	43271.53
785.74	43443.56
785.92	43648.36
786.10	43115.89
786.28	43230.57
786.46	43117.93
786.64	42921.33
786.83	43005.30
787.01	43085.17
787.19	42978.67
787.37	43576.68
787.55	43099.50
787.74	42777.97
787.92	42925.42
788.10	42954.10
788.28	42483.06
788.46	42687.86
788.64	42659.19
788.82	43263.34
789.01	42646.90
789.19	42739.06
789.37	42646.90
789.55	42542.45
789.73	42046.85
789.91	42308.99
790.09	42321.27
790.28	42044.80
790.46	41872.77
790.64	42573.17
790.82	42313.08
791.00	41596.29
791.18	41512.33
791.36	41821.57
791.55	42065.28
791.73	41805.19
791.91	41147.79
792.09	41751.94
792.27	41387.40
792.45	41293.19
792.63	41684.36
792.81	41557.38
793.00	41379.21
793.18	41125.26
793.36	41125.26
793.54	40838.54
793.72	41186.70
793.90	41207.18
794.08	40791.44
794.26	41012.62
794.44	40676.76
794.62	40273.31
794.81	40299.93
794.99	40189.34
795.17	40181.15
795.35	40084.89
795.53	40215.96
795.71	39998.88
795.89	40101.28
796.07	39706.02
796.25	39753.12
796.43	39685.54
796.61	39785.89
796.80	39493.03
796.98	39620.00
797.16	39687.59
797.34	39777.70
797.52	39036.33
797.70	39638.44
797.88	38897.07
798.06	38739.38
798.24	38890.93
798.42	38923.69
798.60	38938.03
798.78	38835.63
798.96	38950.32
799.14	38528.44
799.32	38657.46
799.51	38008.25
799.69	38395.32
799.87	38110.65
800.05	38139.32
800.23	37952.96
800.41	37928.38
800.59	37793.22
800.77	37750.21
800.95	37293.51
801.13	37524.93
801.31	37502.40
801.49	37608.90
801.67	37209.54
801.85	37277.13
802.03	37068.23
802.21	37098.95
802.39	36869.58
802.57	36826.57
802.75	36896.20
802.93	36531.67
803.11	36926.92
803.29	36578.77
803.47	36459.99
803.65	36457.94
803.83	36335.06
804.01	36255.19
804.19	36160.98
804.37	36230.62
804.55	35931.61
804.73	36042.20
804.91	36038.11
805.09	36279.77
805.27	36009.43
805.45	35796.45
805.63	35943.90
805.81	35612.13
805.99	35806.69
806.17	35214.82
806.35	35493.35
806.53	35333.60
806.71	35569.12
806.89	35685.86
807.07	35624.42
807.25	35421.67
807.43	34547.18
807.61	35268.07
807.79	34938.35
807.97	34866.67
808.15	34543.09
808.33	34866.67
808.51	34600.43
808.69	34678.25
808.87	34131.45
809.05	34383.35
809.23	33822.20
809.41	34225.65
809.59	34403.83
809.77	33983.99
809.95	33764.86
810.13	34377.20
810.31	33682.94
810.49	34022.90
810.67	33893.88
810.84	33936.89
811.02	33744.38
811.20	33625.60
811.38	33805.82
811.56	33326.60
811.74	33734.14
811.92	33629.69
812.10	33388.03
812.28	33500.67
812.46	33195.53
812.64	33152.52
812.82	32894.47
813.00	33121.80
813.18	32855.56
813.36	32812.56
813.53	32638.48
813.71	32736.78
813.89	32480.78
814.07	32761.36
814.25	32370.19
814.43	32302.61
814.61	32232.98
814.79	32677.39
814.97	32423.44
815.15	32335.38
815.33	32183.83
815.50	32052.76
815.68	32212.50
815.86	32077.33
816.04	32050.71
816.22	32249.36
816.40	31915.54
816.58	31905.31
816.76	31548.96
816.94	31733.28
817.11	32011.80
817.29	31782.43
817.47	31489.57
817.65	31659.55
817.83	31436.32
818.01	31147.56
818.19	31143.46
818.37	30797.35
818.54	31047.21
818.72	31016.49
818.90	31012.39
819.08	31372.83
819.26	30938.66
819.44	31012.39
819.62	31024.68
819.80	31084.07
819.97	30815.79
820.15	30864.94
820.33	30922.28
820.51	30729.77
820.69	30271.03
820.87	30791.21
821.05	30641.71
821.22	30846.51
821.40	30275.12
821.58	30402.10
821.76	30346.80
821.94	29920.82
822.12	30299.70
822.29	30498.35
822.47	30131.76
822.65	30324.27
822.83	29965.88
823.01	30146.10
823.19	29869.62
823.36	29869.62
823.54	29861.43
823.72	29582.91
823.90	29799.99
824.08	29523.52
824.25	29644.35
824.43	29343.30
824.61	29455.93
824.79	29701.69
824.97	29478.46
825.15	29789.75
825.32	29517.37
825.50	29214.27
825.68	29019.72
825.86	29466.17
826.04	29259.33
826.21	29210.18
826.39	29181.51
826.57	29091.40
826.75	28964.42
826.93	28970.57
827.10	28948.04
827.28	29185.60
827.46	29165.12
827.64	29066.82
827.81	28577.36
827.99	28681.80
828.17	28679.75
828.35	28593.74
828.53	28368.46
828.70	28575.31
828.88	28595.79
829.06	28427.85
829.24	28876.36
829.41	28446.29
829.59	28096.08
829.77	28307.02
829.95	28452.43
830.12	28278.35
830.30	28229.20
830.48	28044.88
830.66	28493.39
830.84	28417.61
831.01	27977.30
831.19	28251.73
831.37	28163.67
831.55	27735.64
831.72	27960.92
831.90	27852.38
832.08	28137.04
832.25	27649.63
832.43	28245.58
832.61	27969.11
832.79	27721.30
832.96	27891.29
833.14	28083.80
833.32	28030.55
833.50	27678.30
833.67	27833.94
833.85	27389.53
834.03	27477.60
834.20	27416.16
834.38	27526.75
834.56	27577.95
834.74	27395.68
834.91	27256.42
835.09	27203.17
835.27	26924.65
835.44	27397.73
835.62	27072.10
835.80	27160.16
835.98	27268.70
836.15	26984.04
836.33	26812.01
836.51	27031.14
836.68	26781.29
836.86	27061.86
837.04	26891.88
837.21	26902.12
837.39	26754.66
837.57	27006.56
837.75	26760.81
837.92	26472.04
838.10	26170.99
838.28	26023.54
838.45	26390.13
838.63	26097.27
838.81	26599.02
838.98	26324.59
839.16	26074.74
839.34	26246.77
839.51	26248.82
839.69	26431.08
839.87	26318.45
840.04	26107.51
840.22	26334.83
840.40	26289.77
840.57	25855.61
840.75	26064.50
840.93	25745.02
841.10	26121.84
841.28	26179.18
841.46	25915.00
841.63	26295.92
841.81	25740.92
841.98	25962.10
842.16	25937.52
842.34	25794.17
842.51	25783.93
842.69	25894.52
842.87	25708.15
843.04	25742.97
843.22	25624.18
843.40	25566.84
843.57	25708.15
843.75	25671.29
843.92	25702.01
844.10	25423.48
844.28	25456.25
844.45	25452.16
844.63	25304.70
844.81	25151.10
844.98	25441.92
845.16	25454.20
845.33	24931.97
845.51	25097.86
845.69	25153.15
845.86	25050.75
846.04	24833.67
846.21	25286.27
846.39	25009.79
846.57	24886.92
846.74	25335.42
846.92	24757.89
847.09	24807.05
847.27	24800.90
847.45	25081.47
847.62	24866.44
847.80	24817.29
847.97	24950.40
848.15	24565.39
848.32	24678.02
848.50	24671.88
848.68	24458.89
848.85	24729.22
849.03	24641.16
849.20	24430.22
849.38	24331.92
849.56	24209.04
849.73	24372.88
849.91	24454.79
850.08	24424.08
850.26	24409.74
850.43	24114.83
850.61	24313.48
850.78	24139.41
850.96	24284.81
851.14	24262.29
851.31	24100.50
851.49	24209.04
851.66	24014.48
851.84	24020.63
852.01	24188.56
852.19	24200.85
852.36	24125.07
852.54	24221.33
852.71	23807.64
852.89	23821.97
853.07	23826.07
853.24	23752.34
853.42	23580.31
853.59	23819.92
853.77	23699.09
853.94	23668.37
854.12	23934.61
854.29	23396.00
854.47	23619.22
854.64	23916.18
854.82	23496.35
854.99	23465.63
855.17	23686.81
855.34	23047.84
855.52	23381.66
855.69	23410.33
855.87	23396.00
856.04	23119.52
856.22	23056.03
856.39	23400.09
856.57	23396.00
856.74	23322.27
856.92	23332.51
857.09	23369.37
857.27	23086.75
857.44	23154.33
857.62	23017.12
857.79	22867.62
857.97	23125.66
858.14	22986.40
858.32	23072.42
858.49	22912.67
858.67	22922.91
858.84	22795.94
859.02	22886.05
859.19	22595.24
859.37	22720.17
859.54	22765.22
859.72	22904.48
859.89	22726.31
860.06	22957.73
860.24	22630.05
860.41	22617.77
860.59	22419.11
860.76	22636.20
860.94	22163.12
861.11	22609.58
861.29	22324.91
861.46	22412.97
861.64	22105.77
861.81	22038.19
861.98	22159.02
862.16	22132.40
862.33	22232.75
862.51	22202.03
862.68	22494.89
862.86	21827.25
863.03	22224.56
863.21	21923.51
863.38	21968.56
863.55	21874.35
863.73	21980.85
863.90	21950.13
864.08	22027.95
864.25	21847.73
864.43	21929.65
864.60	21718.71
864.77	21679.80
864.95	21753.52
865.12	21440.18
865.30	21829.30
865.47	21530.30
865.64	21569.21
865.82	21425.85
865.99	21687.99
866.17	21180.09
866.34	21669.56
866.51	21235.39
866.69	21710.52
866.86	21358.27
867.04	21612.21
867.21	21284.54
867.38	20956.86
867.56	21472.95
867.73	21200.57
867.91	21014.21
868.08	21350.07
868.25	21262.01
868.43	21161.66
868.60	20876.99
868.78	20797.12
868.95	21407.42
869.12	21098.17
869.30	21198.52
869.47	21087.93
869.64	20774.60
869.82	20586.18
869.99	20838.08
870.16	20850.37
870.34	20608.71
870.51	20704.96
870.69	20780.74
870.86	20543.17
871.03	20545.22
871.21	20381.38
871.38	20526.79
871.55	20508.36
871.73	20360.91
871.90	20074.19
872.07	20041.42
872.25	19795.67
872.42	20121.29
872.59	20147.92
872.77	20303.56
872.94	19662.55
873.11	20076.24
873.29	20147.92
873.46	19693.27
873.63	19979.98
873.81	19760.85
873.98	19924.69
874.15	19703.51
874.33	19472.09
874.50	19478.23
874.67	19527.38
874.85	19658.45
875.02	19670.74
875.19	19359.45
875.37	19658.45
875.54	19447.51
875.71	19537.62
875.88	19019.49
876.06	19453.66
876.23	19101.40
876.40	19162.84
876.58	19209.95
876.75	19330.78
876.92	19066.59
877.10	18933.47
877.27	18990.81
877.44	19093.21
877.61	18876.13
877.79	18984.67
877.96	19023.58
878.13	18919.14
878.31	18796.26
878.48	18818.78
878.65	18632.42
878.82	18820.83
879.00	18956.00
879.17	18978.53
879.34	18650.85
879.51	18441.96
879.69	18489.06
879.86	18634.47
880.03	18487.01
880.21	18251.50
880.38	18231.02
880.55	18454.25
880.72	18499.30
880.90	18460.39
881.07	18509.54
881.24	18179.82
881.41	18071.28
881.59	18388.71
881.76	18276.07
881.93	18034.41
882.10	18132.72
882.28	17661.68
882.45	18407.14
882.62	17932.01
882.79	18104.04
882.96	17868.53
883.14	18165.48
883.31	18239.21
883.48	17766.13
883.65	17880.82
883.83	18128.62
884.00	17866.48
884.17	18069.23
884.34	18003.69
884.51	18038.51
884.69	17862.38
884.86	17673.97
885.03	17676.02
885.20	17596.15
885.38	17663.73
885.55	17702.64
885.72	17614.58
885.89	17684.21
886.06	17655.54
886.24	17594.10
886.41	17569.52
886.58	17841.90
886.75	17690.35
886.92	17327.86
887.10	17463.03
887.27	17145.59
887.44	17444.60
887.61	17508.08
887.78	17458.93
887.95	17254.14
888.13	17198.84
888.30	17133.31
888.47	17045.24
888.64	17411.83
888.81	16965.37
888.99	16914.17
889.16	17059.58
889.33	16817.92
889.50	16721.66
889.67	16783.10
889.84	16789.25
890.01	16824.06
890.19	16953.09
890.36	16959.23
890.53	16598.79
890.70	16719.62
890.87	16963.33
891.04	16832.26
891.22	16525.06
891.39	16680.71
891.56	16731.90
891.73	16584.45
891.90	16572.16
892.07	16254.73
892.24	16598.79
892.42	16340.74
892.59	16455.43
892.76	16504.58
892.93	16508.68
893.10	16361.22
893.27	16463.62
893.44	16426.76
893.61	16181.00
893.79	16740.10
893.96	16434.95
894.13	16264.97
894.30	16412.42
894.47	16322.31
894.64	16242.44
894.81	16430.85
894.98	16230.15
895.15	16295.69
895.33	16312.07
895.50	16101.13
895.67	16355.08
895.84	16127.75
896.01	16021.26
896.18	16162.57
896.35	16701.19
896.52	16060.17
896.69	16203.53
896.86	16109.32
897.04	16219.91
897.21	15908.62
897.38	16217.86
897.55	16025.36
897.72	16084.75
897.89	15990.54
898.06	16181.00
898.23	16172.81
898.40	16162.57
898.57	16047.88
898.74	16076.55
898.91	16123.66
899.08	15992.59
899.26	15779.60
899.43	16160.52
899.60	15939.34
899.77	16006.92
899.94	15982.35
900.11	15904.53
900.28	15869.71
900.45	15929.10
900.62	15838.99
900.79	16215.82
900.96	15843.09
901.13	15925.00
901.30	15720.21
901.47	15691.54
901.64	15822.61
901.81	16152.33
901.98	15638.29
902.15	15892.24
902.32	15847.18
902.49	15724.30
902.66	15871.76
902.83	16068.36
903.01	15777.55
903.18	15820.56
903.35	15953.68
903.52	15752.98
903.69	15951.63
903.86	15900.43
904.03	16086.79
904.20	15931.15
904.37	16207.62
904.54	15904.53
904.71	15783.70
904.88	15968.01
905.05	15838.99
905.22	16084.75
905.39	15945.48
905.56	15697.68
905.73	15587.09
905.90	16064.27
906.07	15693.58
906.24	15740.69
906.41	15773.46
906.58	15695.63
906.75	15793.94
906.92	15554.32
907.09	15701.78
907.26	15755.02
907.43	15634.19
907.60	15847.18
907.77	15892.24
907.93	15724.30
908.10	15611.67
908.27	15871.76
908.44	15531.80
908.61	15795.98
908.78	15601.43
908.95	15744.78
909.12	15630.10
909.29	15730.45
909.46	15697.68
909.63	15660.82
909.80	15394.58
909.97	15662.86
910.14	15585.04
910.31	15777.55
910.48	15499.03
910.65	15666.96
910.82	15712.02
910.99	15564.56
911.16	15527.70
911.33	15679.25
911.50	15410.96
911.66	15267.61
911.83	15400.72
912.00	15320.85
912.17	15193.88
912.34	15312.66
912.51	15189.78
912.68	15236.89
912.85	15273.75
913.02	15185.69
913.19	15134.49
913.36	15253.27
913.53	15306.52
913.70	15101.72
913.86	15218.46
914.03	14870.30
914.20	15005.47
914.37	14913.31
914.54	15040.28
914.71	15097.63
914.88	15163.16
915.05	14837.53
915.22	14683.94
915.39	14888.73
915.55	14710.56
915.72	14513.95
915.89	14710.56
916.06	14763.81
916.23	14835.49
916.40	14651.17
916.57	14534.43
916.74	14448.42
916.91	14604.07
917.07	14395.17
917.24	14333.73
917.41	14618.40
917.58	14278.44
917.75	14401.32
917.92	14262.05
918.09	14524.19
918.26	14552.87
918.42	14266.15
918.59	14432.04
918.76	14028.59
918.93	14262.05
919.10	13944.62
919.27	14128.94
919.44	14014.25
919.60	14071.59
919.77	14130.98
919.94	14016.30
920.11	13768.49
920.28	13625.14
920.45	13588.27
920.61	13557.55
920.78	13768.49
920.95	13453.11
921.12	13475.63
921.29	13377.33
921.46	13532.98
921.62	13176.63
921.79	13481.78
921.96	13262.65
922.13	13301.56
922.30	13272.89
922.47	13090.62
922.63	12912.44
922.80	13076.28
922.97	12934.97
923.14	12887.87
923.31	13115.19
923.47	12824.38
923.64	13143.86
923.81	12967.74
923.98	12865.34
924.15	12545.86
924.32	12613.44
924.48	12754.75
924.65	12588.86
924.82	12635.97
924.99	12402.50
925.15	12461.89
925.32	12533.57
925.49	12209.99
925.66	12197.70
925.83	12322.63
925.99	12242.76
926.16	12263.24
926.33	12119.88
926.50	12101.45
926.67	12087.11
926.83	12115.78
927.00	12085.06
927.17	11802.44
927.34	11779.92
927.50	11874.12
927.67	11816.78
927.84	11800.40
928.01	11644.75
928.17	11577.17
928.34	11538.26
928.51	11306.84
928.68	11310.93
928.84	11493.20
929.01	11312.98
929.18	11329.36
929.35	11192.15
929.51	11351.89
929.68	11114.33
929.85	11104.09
930.02	11118.42
930.18	11059.03
930.35	11079.51
930.52	11130.71
930.69	11083.61
930.85	10790.75
931.02	10800.99
931.19	10588.00
931.36	10841.95
931.52	10706.78
931.69	10788.70
931.86	10651.49
932.02	10540.90
932.19	10426.21
932.36	10289.00
932.53	10190.69
932.69	10254.18
932.86	10375.01
933.03	10170.21
933.19	10293.09
933.36	10239.84
933.53	10252.13
933.70	9971.56
933.86	10071.91
934.03	10151.78
934.20	9944.94
934.36	9989.99
934.53	9578.35
934.70	9326.45
934.86	9590.64
935.03	9529.20
935.20	9414.51
935.36	9445.23
935.53	9346.93
935.70	9244.53
935.86	9447.28
936.03	9076.60
936.20	9027.45
936.36	8957.82
936.53	8730.49
936.70	8689.53
936.86	8816.51
937.03	8875.90
937.20	8630.14
937.36	8656.76
937.53	8230.79
937.70	8208.26
937.86	8245.12
938.03	8355.71
938.20	8284.03
938.36	7819.14
938.53	7847.82
938.70	7778.19
938.86	7821.19
939.03	7743.37
939.20	7524.24
939.36	7544.72
939.53	7456.65
939.70	7493.52
939.86	7247.76
940.03	7131.03
940.19	7063.44
940.36	7088.02
940.53	7024.53
940.69	6997.91
940.86	6903.70
941.03	6760.34
941.19	6639.51
941.36	6547.36
941.52	6629.27
941.69	6496.16
941.86	6573.98
942.02	6662.04
942.19	6371.23
942.35	6334.37
942.52	6301.60
942.69	6148.00
942.85	6256.54
943.02	6055.84
943.18	6184.87
943.35	5939.11
943.52	5900.20
943.68	5935.01
943.85	5867.43
944.01	5769.13
944.18	5814.18
944.35	5885.86
944.51	5699.50
944.68	5638.06
944.84	5724.07
945.01	5654.44
945.17	5676.97
945.34	5674.92
945.51	5679.02
945.67	5566.38
945.84	5631.91
946.00	5506.99
946.17	5435.31
946.33	5441.45
946.50	5713.83
946.67	5490.60
946.83	5431.21
947.00	5509.04
947.16	5511.08
947.33	5449.64
947.49	5355.44
947.66	5408.69
947.82	5595.05
947.99	5365.68
948.16	5562.28
948.32	5478.32
948.49	5564.33
948.65	5609.39
948.82	5341.10
948.98	5365.68
949.15	5558.19
949.31	5457.84
949.48	5425.07
949.64	5369.77
949.81	5449.64
949.97	5463.98
950.14	5541.80
950.30	5523.37
950.47	5459.88
950.63	5449.64
950.80	5509.04
950.96	5590.95
951.13	5621.67
951.30	5629.87
951.46	5468.08
951.63	5640.11
951.79	5631.91
951.96	5607.34
952.12	5533.61
952.29	5509.04
952.45	5588.91
952.62	5672.87
952.78	5722.02
952.94	5480.36
953.11	5605.29
953.27	5320.62
953.44	5744.55
953.60	5560.24
953.77	5748.65
953.93	5654.44
954.10	5572.52
954.26	5631.91
954.43	5648.30
954.59	5777.32
954.76	5662.63
954.92	5656.49
955.09	5529.52
955.25	5617.58
955.42	5679.02
955.58	5672.87
955.75	5746.60
955.91	5652.39
956.07	5705.64
956.24	5652.39
956.40	5668.78
956.57	5769.13
956.73	5533.61
956.90	5681.07
957.06	5605.29
957.23	5523.37
957.39	5615.53
957.56	5668.78
957.72	5615.53
957.88	5564.33
958.05	5810.09
958.21	5746.60
958.38	5754.79
958.54	5779.37
958.71	5724.07
958.87	5683.11
959.03	5558.19
959.20	5660.59
959.36	5564.33
959.53	5597.10
959.69	5572.52
959.85	5707.69
960.02	5709.74
960.18	5640.11
960.35	5666.73
960.51	5711.78
960.68	5570.48
960.84	5566.38
961.00	5646.25
961.17	5607.34
961.33	5654.44
961.50	5664.68
961.66	5785.51
961.82	5558.19
961.99	5621.67
962.15	5722.02
962.31	5547.95
962.48	5558.19
962.64	5683.11
962.81	5533.61
962.97	5676.97
963.13	5621.67
963.30	5756.84
963.46	5556.14
963.62	5504.94
963.79	5556.14
963.95	5439.40
964.12	5513.13
964.28	5638.06
964.44	5482.41
964.61	5556.14
964.77	5470.12
964.93	5531.56
965.10	5619.63
965.26	5459.88
965.42	5562.28
965.59	5494.70
965.75	5492.65
965.92	5492.65
966.08	5420.97
966.24	5523.37
966.41	5380.01
966.57	5500.84
966.73	5486.51
966.90	5500.84
967.06	5463.98
967.22	5429.17
967.39	5435.31
967.55	5359.53
967.71	5285.81
967.88	5472.17
968.04	5418.93
968.20	5304.24
968.37	5361.58
968.53	5396.40
968.69	5377.97
968.85	5470.12
969.02	5283.76
969.18	5500.84
969.34	5289.90
969.51	5343.15
969.67	5441.45
969.83	5285.81
970.00	5244.85
970.16	5355.44
970.32	5316.53
970.48	5332.91
970.65	5250.99
970.81	5140.40
970.97	5257.14
971.14	5035.96
971.30	5224.37
971.46	5205.94
971.63	5138.35
971.79	5089.20
971.95	5027.76
972.11	5193.65
972.28	5099.44
972.44	5148.59
972.60	5060.53
972.76	5007.28
972.93	5033.91
973.09	5046.20
973.25	5029.81
973.42	5060.53
973.58	5230.51
973.74	5089.20
973.90	5097.39
974.07	4958.13
974.23	5119.92
974.39	5052.34
974.55	5035.96
974.72	5025.72
974.88	4982.71
975.04	5021.62
975.20	4937.65
975.37	5064.63
975.53	4818.87
975.69	5052.34
975.85	4786.10
976.01	4868.02
976.18	4923.32
976.34	4933.56
976.50	4964.28
976.66	4968.37
976.83	4878.26
976.99	4865.97
977.15	4769.72
977.31	4661.18
977.47	4980.66
977.64	4894.65
977.80	4820.92
977.96	4788.15
978.12	4771.77
978.29	4775.86
978.45	4663.22
978.61	4650.94
978.77	4755.38
978.93	4796.34
979.10	4673.46
979.26	4708.28
979.42	4470.72
979.58	4530.11
979.74	4593.59
979.91	4593.59
980.07	4515.77
980.23	4564.92
980.39	4673.46
980.55	4620.22
980.71	4497.34
980.88	4683.70
981.04	4501.44
981.20	4526.01
981.36	4591.55
981.52	4548.54
981.68	4360.13
981.85	4530.11
982.01	4595.64
982.17	4505.53
982.33	4458.43
982.49	4577.21
982.65	4378.56
982.82	4394.94
982.98	4507.58
983.14	4450.24
983.30	4419.52
983.46	4476.86
983.62	4298.69
983.79	4313.02
983.95	4511.68
984.11	4313.02
984.27	4372.41
984.43	4411.32
984.59	4288.45
984.75	4362.17
984.91	4267.97
985.08	4419.52
985.24	4302.78
985.40	4222.91
985.56	4304.83
985.72	4290.49
985.88	4341.69
986.04	4202.43
986.20	4227.01
986.37	4237.25
986.53	4194.24
986.69	4227.01
986.85	4108.23
987.01	4249.54
987.17	4190.14
987.33	4122.56
987.49	4083.65
987.65	4050.88
987.82	4104.13
987.98	4001.73
988.14	4028.35
988.30	4214.72
988.46	4005.83
988.62	4112.32
988.78	3907.52
988.94	4052.93
989.10	4028.35
989.26	4134.85
989.42	4026.31
989.59	3938.24
989.75	3864.52
989.91	3991.49
990.07	3747.78
990.23	3911.62
990.39	3891.14
990.55	4009.92
990.71	3854.28
990.87	3831.75
991.03	4052.93
991.19	3774.41
991.35	3966.92
991.51	3907.52
991.67	4042.69
991.83	3811.27
992.00	3893.19
992.16	3866.56
992.32	3925.96
992.48	3987.40
992.64	3743.69
992.80	3829.70
992.96	3733.45
993.12	3745.73
993.28	3741.64
993.44	3719.11
993.60	3905.48
993.76	3766.21
993.92	3829.70
994.08	3739.59
994.24	3723.21
994.40	3788.74
994.56	3784.65
994.72	3573.71
994.88	3715.02
995.04	3733.45
995.20	3717.06
995.36	3516.36
995.52	3577.80
995.68	3618.76
995.84	3547.08
996.00	3684.30
996.16	3604.42
996.32	3620.81
996.48	3600.33
996.64	3678.15
996.80	3518.41
996.96	3547.08
997.12	3434.44
997.28	3557.32
997.44	3401.68
997.60	3475.40
997.76	3534.79
997.92	3530.70
998.08	3477.45
998.24	3405.77
998.40	3483.59
998.56	3461.07
998.72	3289.04
998.88	3299.28
999.04	3506.12
999.20	3403.72
999.36	3373.00
999.52	3440.59
999.68	3330.00
999.84	3416.01
1000.00	3411.92
1000.16	3418.06
1000.32	3321.81
1000.48	3534.79
1000.64	3356.62
1000.80	3313.61
1000.95	3223.50
1001.11	3375.05
1001.27	3264.46
1001.43	3258.32
1001.59	3229.65
1001.75	3280.85
1001.91	3231.69
1002.07	3172.30
1002.23	3178.45
1002.39	3184.59
1002.55	3319.76
1002.71	3076.05
1002.87	3192.78
1003.03	3196.88
1003.19	3147.73
1003.34	3188.69
1003.50	3157.97
1003.66	3182.54
1003.82	3192.78
1003.98	3143.63
1004.14	3088.34
1004.30	3157.97
1004.46	3086.29
1004.62	3045.33
1004.78	3141.58
1004.94	3178.45
1005.09	3063.76
1005.25	3114.96
1005.41	2981.84
1005.57	3092.43
1005.73	3047.38
1005.89	3000.27
1006.05	3088.34
1006.21	2967.51
1006.37	2981.84
1006.52	2969.55
1006.68	2949.08
1006.84	3039.19
1007.00	2949.08
1007.16	3045.33
1007.32	2877.40
1007.48	2969.55
1007.64	3024.85
1007.79	2969.55
1007.95	2871.25
1008.11	2912.21
1008.27	2838.48
1008.43	2965.46
1008.59	2992.08
1008.75	3006.42
1008.91	2912.21
1009.06	2852.82
1009.22	2922.45
1009.38	2842.58
1009.54	2836.44
1009.70	2756.57
1009.86	2899.92
1010.01	2912.21
1010.17	2768.85
1010.33	2795.48
1010.49	2803.67
1010.65	2934.74
1010.81	2750.42
1010.96	2777.05
1011.12	2789.33
1011.28	2797.53
1011.44	2856.92
1011.60	2721.75
1011.76	2758.61
1011.91	2756.57
1012.07	2656.22
1012.23	2713.56
1012.39	2691.03
1012.55	2766.81
1012.71	2619.35
1012.86	2680.79
1013.02	2727.89
1013.18	2574.30
1013.34	2721.75
1013.50	2789.33
1013.65	2627.54
1013.81	2629.59
1013.97	2664.41
1014.13	2625.50
1014.29	2691.03
1014.44	2688.98
1014.60	2684.89
1014.76	2627.54
1014.92	2609.11
1015.07	2609.11
1015.23	2605.02
1015.39	2592.73
1015.55	2562.01
1015.71	2533.34
1015.86	2512.86
1016.02	2562.01
1016.18	2490.33
1016.34	2592.73
1016.49	2533.34
1016.65	2670.55
1016.81	2478.04
1016.97	2686.94
1017.12	2584.54
1017.28	2555.86
1017.44	2463.71
1017.60	2471.90
1017.75	2426.84
1017.91	2471.90
1018.07	2584.54
1018.23	2535.39
1018.38	2412.51
1018.54	2478.04
1018.70	2549.72
1018.86	2369.50
1019.01	2351.07
1019.17	2430.94
1019.33	2535.39
1019.49	2420.70
1019.64	2437.08
1019.80	2547.67
1019.96	2471.90
1020.12	2469.85
1020.27	2344.92
1020.43	2400.22
1020.59	2379.74
1020.74	2478.04
1020.90	2445.27
1021.06	2297.82
1021.22	2488.28
1021.37	2392.03
1021.53	2320.35
1021.69	2402.27
1021.84	2277.34
1022.00	2357.21
1022.16	2236.38
1022.31	2351.07
1022.47	2400.22
1022.63	2349.02
1022.79	2238.43
1022.94	2281.44
1023.10	2361.31
1023.26	2267.10
1023.41	2342.88
1023.57	2240.48
1023.73	2295.77
1023.88	2271.20
1024.04	2254.81
1024.20	2277.34
1024.35	2205.66
1024.51	2328.54
1024.67	2203.61
1024.82	2273.25
1024.98	2224.09
1025.14	2254.81
1025.29	2140.13
1025.45	2310.11
1025.61	2099.17
1025.76	2215.90
1025.92	2199.52
1026.08	2291.68
1026.23	2265.05
1026.39	2230.24
1026.55	2154.46
1026.70	2127.84
1026.86	2189.28
1027.02	2263.01
1027.17	2232.29
1027.33	2162.66
1027.48	2127.84
1027.64	2220.00
1027.80	2080.74
1027.95	2254.81
1028.11	2082.78
1028.27	2203.61
1028.42	2207.71
1028.58	2109.41
1028.73	2138.08
1028.89	2052.06
1029.05	2256.86
1029.20	2117.60
>>>>>End Processed Spectral Data<<<<<
