SpectraSuite Data File
++++++++++++++++++++++++++++++++++++
Date: Fri Jun 02 14:41:57 CEST 2017
User: INFO_000
Dark Spectrum Present: No
Reference Spectrum Present: No
Number of Sampled Component Spectra: 1
Spectrometers: USB4H00879
Integration Time (usec): 80000 (USB4H00879)
Spectra Averaged: 1 (USB4H00879)
Boxcar Smoothing: 0 (USB4H00879)
Correct for Electrical Dark: No (USB4H00879)
Strobe/Lamp Enabled: No (USB4H00879)
Correct for Detector Non-linearity: No (USB4H00879)
Correct for Stray Light: No (USB4H00879)
Number of Pixels in Processed Spectrum: 3648
>>>>>Begin Processed Spectral Data<<<<<
345.13	1275.88
345.34	1275.88
345.56	1275.88
345.78	1322.99
345.99	1353.71
346.21	1742.82
346.42	1751.01
346.64	1636.33
346.86	1794.02
347.07	1583.08
347.29	1779.68
347.50	1615.85
347.72	1609.70
347.94	1744.87
348.15	1558.50
348.37	1634.28
348.59	1673.19
348.80	1665.00
349.02	1763.30
349.23	1910.75
349.45	1822.69
349.67	1935.33
349.88	1820.64
350.10	2027.49
350.31	1751.01
350.53	1798.12
350.75	1964.00
350.96	1732.58
351.18	1787.88
351.39	1816.55
351.61	1834.98
351.82	1912.80
352.04	1900.52
352.26	1775.59
352.47	1941.47
352.69	1914.85
352.90	1742.82
353.12	1884.13
353.34	1875.94
353.55	1943.52
353.77	1945.57
353.98	1843.17
354.20	1810.40
354.41	1941.47
354.63	1925.09
354.85	2066.40
355.06	1920.99
355.28	1794.02
355.49	1855.46
355.71	1861.60
355.92	1851.36
356.14	1918.95
356.35	1880.04
356.57	1802.21
356.79	1957.86
357.00	1902.56
357.22	1945.57
357.43	1892.32
357.65	1955.81
357.86	1875.94
358.08	1849.32
358.29	1892.32
358.51	1998.82
358.72	1998.82
358.94	1949.67
359.16	1896.42
359.37	1996.77
359.59	2009.06
359.80	1923.04
360.02	1980.39
360.23	1982.43
360.45	2029.54
360.66	1941.47
360.88	1877.99
361.09	1957.86
361.31	2039.78
361.52	2054.11
361.74	2027.49
361.95	2095.07
362.17	1931.23
362.38	2138.08
362.60	1998.82
362.81	2002.91
363.03	1984.48
363.24	1959.91
363.46	2043.87
363.67	2125.79
363.89	2035.68
364.10	1992.67
364.32	2023.39
364.53	2047.97
364.75	1972.19
364.96	2099.17
365.18	2072.54
365.39	2072.54
365.61	1933.28
365.82	2187.23
366.04	2017.25
366.25	2019.30
366.47	2056.16
366.68	2043.87
366.90	1982.43
367.11	2045.92
367.33	2191.33
367.54	2023.39
367.76	2088.93
367.97	1996.77
368.19	2021.35
368.40	2142.18
368.62	1927.14
368.83	1998.82
369.05	2023.39
369.26	1980.39
369.48	2074.59
369.69	1998.82
369.91	2086.88
370.12	2019.30
370.33	2105.31
370.55	2052.06
370.76	2035.68
370.98	2097.12
371.19	2017.25
371.41	1933.28
371.62	2056.16
371.84	2029.54
372.05	2166.75
372.27	2060.26
372.48	2052.06
372.69	2164.70
372.91	2162.66
373.12	2162.66
373.34	2121.70
373.55	2062.30
373.77	2222.05
373.98	2068.45
374.20	2199.52
374.41	2236.38
374.62	2148.32
374.84	2099.17
375.05	2181.09
375.27	2142.18
375.48	2129.89
375.70	2234.33
375.91	2199.52
376.12	2371.55
376.34	2158.56
376.55	2246.62
376.77	2187.23
376.98	2076.64
377.19	2209.76
377.41	2121.70
377.62	2187.23
377.84	2324.44
378.05	2328.54
378.27	2170.85
378.48	2318.30
378.69	2410.46
378.91	2385.88
379.12	2256.86
379.34	2201.57
379.55	2265.05
379.76	2279.39
379.98	2201.57
380.19	2238.43
380.41	2281.44
380.62	2273.25
380.83	2285.53
381.05	2224.09
381.26	2504.67
381.47	2271.20
381.69	2322.40
381.90	2469.85
382.12	2330.59
382.33	2254.81
382.54	2226.14
382.76	2369.50
382.97	2306.01
383.19	2273.25
383.40	2396.12
383.61	2312.16
383.83	2287.58
384.04	2367.45
384.25	2359.26
384.47	2430.94
384.68	2406.36
384.89	2258.91
385.11	2371.55
385.32	2357.21
385.54	2357.21
385.75	2377.69
385.96	2416.60
386.18	2346.97
386.39	2404.32
386.60	2367.45
386.82	2383.84
387.03	2416.60
387.24	2568.15
387.46	2453.47
387.67	2449.37
387.88	2443.23
388.10	2482.14
388.31	2625.50
388.52	2590.68
388.74	2531.29
388.95	2504.67
389.16	2643.93
389.38	2492.38
389.59	2621.40
389.80	2594.78
390.02	2582.49
390.23	2707.41
390.44	2648.02
390.66	2598.87
390.87	2580.44
391.08	2607.06
391.30	2727.89
391.51	2756.57
391.72	2727.89
391.94	2639.83
392.15	2678.74
392.36	2750.42
392.58	2584.54
392.79	2725.85
393.00	2682.84
393.22	2834.39
393.43	2789.33
393.64	2861.01
393.85	2865.11
394.07	2631.64
394.28	2744.28
394.49	2877.40
394.71	2793.43
394.92	2891.73
395.13	2830.29
395.35	2746.33
395.56	2736.09
395.77	2842.58
395.98	2822.10
396.20	2885.59
396.41	2809.81
396.62	2883.54
396.84	2875.35
397.05	2789.33
397.26	2901.97
397.47	2947.03
397.69	2879.44
397.90	3082.19
398.11	2977.75
398.32	2992.08
398.54	2936.79
398.75	3018.71
398.96	3045.33
399.18	3127.25
399.39	3026.90
399.60	3100.62
399.81	3084.24
400.03	3084.24
400.24	3342.28
400.45	3090.38
400.66	3016.66
400.88	3104.72
401.09	3223.50
401.30	3129.30
401.51	3162.06
401.73	3094.48
401.94	3112.91
402.15	3164.11
402.36	3143.63
402.58	3194.83
402.79	3227.60
403.00	3198.93
403.21	3231.69
403.43	3289.04
403.64	3295.18
403.85	3209.17
404.06	3342.28
404.27	3108.82
404.49	3311.57
404.70	3200.98
404.91	3278.80
405.12	3360.72
405.34	3323.85
405.55	3473.36
405.76	3358.67
405.97	3260.37
406.19	3436.49
406.40	3340.24
406.61	3465.16
406.82	3311.57
407.03	3385.29
407.25	3362.76
407.46	3467.21
407.67	3534.79
407.88	3485.64
408.09	3420.11
408.31	3391.44
408.52	3526.60
408.73	3436.49
408.94	3377.10
409.15	3534.79
409.37	3581.90
409.58	3598.28
409.79	3577.80
410.00	3510.22
410.21	3436.49
410.43	3473.36
410.64	3401.68
410.85	3680.20
411.06	3549.13
411.27	3524.55
411.48	3647.43
411.70	3624.90
411.91	3635.14
412.12	3850.18
412.33	3594.19
412.54	3655.62
412.76	3823.56
412.97	3755.97
413.18	3674.06
413.39	3704.78
413.60	3692.49
413.81	3786.69
414.03	3817.41
414.24	3796.93
414.45	3889.09
414.66	3637.19
414.87	3776.45
415.08	3712.97
415.30	3794.89
415.51	3858.37
415.72	3803.08
415.93	3813.32
416.14	3858.37
416.35	3983.30
416.56	3923.91
416.78	3968.96
416.99	3958.72
417.20	3930.05
417.41	4028.35
417.62	4046.79
417.83	3985.35
418.04	3878.85
418.26	4024.26
418.47	3909.57
418.68	4065.22
418.89	4147.14
419.10	4212.67
419.31	4124.61
419.52	4081.60
419.73	4097.99
419.95	4208.58
420.16	4073.41
420.37	4087.75
420.58	4161.47
420.79	4001.73
421.00	4227.01
421.21	4132.80
421.42	4202.43
421.63	4229.06
421.85	4276.16
422.06	4362.17
422.27	4310.97
422.48	4345.79
422.69	4415.42
422.90	4399.04
423.11	4388.80
423.32	4417.47
423.53	4435.90
423.75	4460.48
423.96	4632.51
424.17	4435.90
424.38	4577.21
424.59	4579.26
424.80	4661.18
425.01	4577.21
425.22	4450.24
425.43	4440.00
425.64	4771.77
425.85	4722.62
426.06	4638.65
426.28	4687.80
426.49	4722.62
426.70	4677.56
426.91	4671.42
427.12	4827.06
427.33	4706.23
427.54	4626.36
427.75	4859.83
427.96	4943.80
428.17	4669.37
428.38	4853.69
428.59	4917.17
428.80	4827.06
429.01	4829.11
429.23	4956.08
429.44	5179.31
429.65	5062.58
429.86	5167.03
430.07	4906.93
430.28	4917.17
430.49	5158.83
430.70	5214.13
430.91	5169.07
431.12	5009.33
431.33	5294.00
431.54	5332.91
431.75	5296.05
431.96	5322.67
432.17	5216.18
432.38	5253.04
432.59	5433.26
432.80	5320.62
433.01	5517.23
433.22	5388.21
433.43	5420.97
433.64	5498.80
433.85	5416.88
434.06	5476.27
434.27	5441.45
434.49	5584.81
434.70	5748.65
434.91	5588.91
435.12	5627.82
435.33	5658.54
435.54	5576.62
435.75	5488.56
435.96	5560.24
436.17	5656.49
436.38	5846.95
436.59	5791.66
436.80	5580.71
437.01	6082.47
437.22	5844.90
437.43	5808.04
437.64	5701.54
437.85	5963.68
438.06	5992.36
438.27	5828.52
438.48	5834.66
438.69	5951.40
438.90	5928.87
439.11	5961.64
439.32	6113.19
439.53	5910.44
439.74	6248.35
439.95	6051.75
440.16	5996.45
440.37	6129.57
440.57	5937.06
440.78	6160.29
440.99	6307.74
441.20	6043.56
441.41	6064.04
441.62	6191.01
441.83	6066.08
442.04	6401.95
442.25	6293.41
442.46	6197.15
442.67	6459.29
442.88	6715.29
443.09	6148.00
443.30	6467.49
443.51	6430.62
443.72	6457.25
443.93	6401.95
444.14	6705.05
444.35	6418.33
444.56	6584.22
444.77	6647.71
444.98	6627.23
445.19	6479.77
445.40	6645.66
445.61	6690.71
445.81	6727.58
446.02	6872.98
446.23	6643.61
446.44	6475.68
446.65	6533.02
446.86	6578.08
447.07	6754.20
447.28	6997.91
447.49	6838.17
447.70	6731.67
447.91	6940.57
448.12	6899.61
448.33	6956.95
448.54	7016.34
448.74	6846.36
448.95	7042.96
449.16	6791.06
449.37	7284.62
449.58	7047.06
449.79	7331.73
450.00	6965.14
450.21	7102.36
450.42	7325.58
450.63	7274.38
450.84	7198.61
451.05	7247.76
451.25	7174.03
451.46	7229.33
451.67	7384.98
451.88	7411.60
452.09	7374.74
452.30	7331.73
452.51	7280.53
452.72	7690.12
452.93	7794.57
453.13	7550.86
453.34	7552.91
453.55	7663.50
453.76	7516.05
453.97	7853.96
454.18	7454.61
454.39	7788.43
454.60	7817.10
454.81	7690.12
455.01	7882.63
455.22	7661.45
455.43	7790.47
455.64	8095.62
455.85	8200.07
456.06	8224.64
456.27	7997.32
456.48	8052.61
456.68	8163.20
456.89	8218.50
457.10	8417.15
457.31	8458.11
457.52	8249.22
457.73	8275.84
457.94	8429.44
458.14	8241.03
458.35	8609.66
458.56	8445.82
458.77	8255.36
458.98	8585.08
459.19	8474.49
459.39	8765.31
459.60	8800.12
459.81	8650.62
460.02	8875.90
460.23	8808.31
460.44	8996.73
460.65	8939.38
460.85	8896.38
461.06	9101.17
461.27	8818.55
461.48	9285.49
461.69	9170.80
461.89	8961.91
462.10	9195.38
462.31	9062.26
462.52	9213.81
462.73	9396.08
462.94	9680.75
463.14	9418.61
463.35	9394.03
463.56	9951.08
463.77	9637.74
463.98	9629.55
464.18	9623.41
464.39	9881.45
464.60	9975.66
464.81	9736.04
465.02	9834.35
465.23	10047.33
465.43	9922.41
465.64	10340.19
465.85	10200.93
466.06	10065.77
466.27	10667.87
466.47	10454.88
466.68	10393.44
466.89	10411.87
467.10	10508.13
467.30	10403.68
467.51	10452.83
467.72	10776.41
467.93	10487.65
468.14	10669.92
468.34	10833.75
468.55	10831.71
468.76	10852.19
468.97	10714.97
469.17	11153.24
469.38	10983.26
469.59	11251.54
469.80	10907.48
470.01	11054.94
470.21	11210.58
470.42	11554.64
470.63	11603.79
470.84	11564.88
471.04	11683.66
471.25	11728.72
471.46	11747.15
471.67	11956.04
471.87	11859.79
472.08	12070.73
472.29	12205.89
472.50	11753.29
472.70	12205.89
472.91	12091.21
473.12	12232.52
473.33	12468.03
473.53	12650.30
473.74	12410.69
473.95	12547.90
474.16	12855.10
474.36	12742.46
474.57	12908.35
474.78	13197.11
474.99	13049.66
475.19	12859.20
475.40	13313.84
475.61	13258.55
475.81	13496.11
476.02	13565.74
476.23	13528.88
476.44	13793.07
476.64	13819.69
476.85	13971.24
477.06	14034.73
477.27	14397.22
477.47	14130.98
477.68	14669.60
477.89	14642.98
478.09	14397.22
478.30	14690.08
478.51	14710.56
478.71	14763.81
478.92	14714.66
479.13	15001.37
479.34	15245.08
479.54	14993.18
479.75	15064.86
479.96	15474.45
480.16	15183.64
480.37	15470.36
480.58	15681.30
480.78	15884.05
480.99	15787.79
481.20	16037.64
481.41	15992.59
481.61	15935.24
481.82	16162.57
482.03	16465.67
482.23	16146.19
482.44	16752.38
482.65	16641.79
482.85	16654.08
483.06	16832.26
483.27	16727.81
483.47	16647.94
483.68	16815.87
483.89	17084.16
484.09	17221.37
484.30	17270.52
484.51	17395.45
484.71	17520.37
484.92	17596.15
485.13	17798.90
485.33	17784.56
485.54	17716.98
485.75	17999.60
485.95	18335.46
486.16	18024.17
486.37	18198.25
486.57	18435.81
486.78	18173.67
486.98	18468.58
487.19	18697.95
487.40	18697.95
487.60	18552.55
487.81	19089.12
488.02	19080.92
488.22	18917.09
488.43	19400.41
488.64	19355.35
488.84	19515.09
489.05	19533.53
489.25	19441.37
489.46	19810.00
489.67	19601.11
489.87	19992.27
490.08	20072.14
490.29	19926.74
490.49	20123.34
490.70	20281.03
490.90	20176.59
491.11	20293.32
491.32	20420.30
491.52	20534.98
491.73	20840.13
491.94	20760.26
492.14	20739.78
492.35	20870.85
492.55	20905.66
492.76	21298.88
492.97	21149.37
493.17	21292.73
493.38	21380.79
493.58	21472.95
493.79	21841.59
494.00	21354.17
494.20	21774.00
494.41	21669.56
494.61	21841.59
494.82	21913.27
495.02	22075.06
495.23	22132.40
495.44	22013.62
495.64	22449.83
495.85	22283.95
496.05	22638.25
496.26	22490.79
496.47	23123.62
496.67	22671.01
496.88	23072.42
497.08	22787.75
497.29	23064.22
497.49	23111.33
497.70	23359.13
497.91	23080.61
498.11	23389.85
498.32	23299.74
498.52	23500.44
498.73	23721.62
498.93	23918.23
499.14	23703.19
499.34	23643.80
499.55	24063.63
499.76	23758.49
499.96	23946.90
500.17	24497.80
500.37	24295.05
500.58	24106.64
500.78	24675.98
500.99	24583.82
501.19	24501.90
501.40	24368.78
501.60	24620.68
501.81	24692.36
502.02	24669.83
502.22	24843.91
502.43	25384.57
502.63	25120.38
502.84	25228.93
503.04	24993.41
503.25	25167.49
503.45	25185.92
503.66	25620.09
503.86	25179.78
504.07	25890.42
504.27	25257.60
504.48	25851.51
504.68	25646.71
504.89	25978.48
505.09	26056.31
505.30	25808.50
505.50	26119.79
505.71	26234.48
505.91	26570.35
506.12	26177.14
506.32	26095.22
506.53	26711.66
506.73	26424.94
506.94	26533.48
507.14	26523.24
507.35	26633.83
507.55	26570.35
507.76	26736.23
507.96	26834.53
508.17	26556.01
508.37	26834.53
508.58	26818.15
508.78	27113.06
508.99	27086.43
509.19	27250.27
509.40	27076.19
509.60	27405.92
509.81	27575.90
510.01	27145.83
510.22	27215.46
510.42	27592.28
510.63	28003.92
510.83	27287.14
511.04	27700.83
511.24	27960.92
511.44	27885.14
511.65	27582.04
511.85	27754.07
512.06	28053.08
512.26	28069.46
512.47	27887.19
512.67	28325.46
512.88	28114.52
513.08	27645.53
513.29	28462.67
513.49	28120.66
513.69	28212.82
513.90	28601.93
514.10	28505.68
514.31	28610.12
514.51	28345.94
514.72	28536.40
514.92	28616.27
515.13	28491.34
515.33	29040.20
515.53	28798.54
515.74	29009.48
515.94	28765.77
516.15	29185.60
516.35	28962.37
516.56	29388.35
516.76	28984.90
516.96	29132.36
517.17	29488.70
517.37	29445.69
517.58	29541.95
517.78	29644.35
517.99	29447.74
518.19	29521.47
518.39	29625.92
518.60	29677.12
518.80	29765.18
519.01	29724.22
519.21	29924.92
519.41	30303.79
519.62	30078.52
519.82	30377.52
520.03	30305.84
520.23	30529.07
520.43	30602.80
520.64	30803.50
520.84	30858.79
521.05	30379.57
521.25	30946.86
521.45	30778.92
521.66	30883.37
521.86	30899.75
522.07	30846.51
522.27	31260.20
522.47	31102.50
522.68	31508.00
522.88	31155.75
523.08	31460.90
523.29	31440.42
523.49	31510.05
523.70	31594.01
523.90	31856.15
524.10	31745.56
524.31	32048.66
524.51	31690.27
524.71	32382.48
524.92	32218.64
525.12	32732.68
525.33	32138.77
525.53	32570.90
525.73	32243.22
525.94	32534.03
526.14	32708.11
526.34	32669.20
526.55	32886.28
526.75	32626.19
526.95	32777.74
527.16	32917.00
527.36	32572.94
527.56	33269.25
527.77	32871.95
527.97	33238.53
528.17	33375.75
528.38	33904.12
528.58	33836.54
528.78	33613.31
528.99	33754.62
529.19	34229.75
529.39	33340.93
529.60	34352.63
529.80	34063.86
530.00	34326.00
530.21	34336.24
530.41	34389.49
530.61	34364.92
530.82	34436.59
531.02	34561.52
531.22	34756.08
531.43	34354.68
531.63	35120.62
531.83	35173.86
532.04	35671.52
532.24	35145.19
532.44	35642.85
532.64	35436.00
532.85	35599.84
533.05	35724.77
533.25	35921.37
533.46	36021.72
533.66	36206.04
533.86	35915.23
534.07	35874.27
534.27	36228.57
534.47	36937.16
534.67	36527.57
534.88	36322.77
535.08	36199.90
535.28	37037.51
535.49	36627.92
535.69	37035.47
535.89	37289.42
536.09	36912.59
536.30	37428.68
536.50	37252.55
536.70	37432.77
536.91	37268.94
537.11	37479.88
537.31	37526.98
537.51	37389.77
537.72	38028.73
537.92	38272.44
538.12	38151.61
538.32	38096.31
538.53	38227.38
538.73	37879.23
538.93	38303.16
539.13	38348.21
539.34	38376.89
539.54	38022.59
539.74	38559.16
539.94	38696.37
540.15	38770.10
540.35	39065.00
540.55	39196.07
540.75	39122.35
540.96	39517.60
541.16	39136.68
541.36	39173.55
541.56	39175.59
541.77	39372.20
541.97	39740.83
542.17	39529.89
542.37	39695.78
542.58	39531.94
542.78	39859.62
542.98	39495.08
543.18	39853.47
543.38	39912.86
543.59	40334.74
543.79	39654.82
543.99	39828.90
544.19	40279.45
544.40	40433.05
544.60	40809.87
544.80	40234.39
545.00	40478.10
545.20	40783.25
545.41	40525.21
545.61	40816.02
545.81	40652.18
546.01	40471.96
546.21	41164.17
546.42	40951.18
546.62	41256.33
546.82	40955.28
547.02	41106.83
547.22	41475.46
547.43	41221.52
547.63	41682.31
547.83	41854.34
548.03	41262.47
548.23	41622.92
548.44	41565.57
548.64	41702.79
548.84	41971.07
549.04	41684.36
549.24	42005.89
549.45	42249.60
549.65	41723.27
549.85	41604.49
550.05	42370.43
550.25	42136.96
550.45	42595.70
550.66	42153.34
550.86	42151.29
551.06	42409.34
551.26	42446.20
551.46	42734.96
551.66	42743.16
551.87	42438.01
552.07	42634.61
552.27	42679.67
552.47	42810.74
552.67	43312.49
552.87	42870.13
553.07	42849.65
553.28	42892.66
553.48	43461.99
553.68	42863.99
553.88	43720.04
554.08	43285.87
554.28	43619.69
554.48	43203.95
554.69	43461.99
554.89	42976.62
555.09	43367.79
555.29	43015.54
555.49	43304.30
555.69	43980.13
555.89	43674.98
556.10	43890.02
556.30	43431.27
556.50	44025.18
556.70	43593.06
556.90	43947.36
557.10	44301.66
557.30	43619.69
557.50	43920.74
557.70	44133.73
557.91	43935.07
558.11	44193.12
558.31	44135.77
558.51	43865.44
558.71	44203.36
558.91	44045.66
559.11	44451.16
559.31	44422.49
559.51	44313.95
559.72	44502.36
559.92	44404.06
560.12	43881.83
560.32	44610.90
560.52	44498.26
560.72	44868.95
560.92	44852.56
561.12	44832.08
561.32	44797.27
561.52	44768.60
561.72	45161.81
561.93	44440.92
562.13	44909.91
562.33	44475.74
562.53	45473.10
562.73	44809.56
562.93	45110.61
563.13	45014.35
563.33	45006.16
563.53	45428.04
563.73	44909.91
563.93	45106.51
564.13	45272.40
564.33	45485.39
564.53	45419.85
564.74	45579.59
564.94	44961.11
565.14	45323.60
565.34	45430.09
565.54	45258.06
565.74	45933.89
565.94	45929.80
566.14	45684.04
566.34	45761.86
566.54	45897.03
566.74	46177.60
566.94	46038.34
567.14	46255.42
567.34	45663.56
567.54	45821.25
567.74	46163.26
567.94	46030.15
568.14	46189.89
568.34	46423.36
568.54	46257.47
568.74	46140.74
568.94	46142.78
569.14	46675.26
569.34	46501.18
569.54	46445.88
569.75	46337.34
569.95	46572.86
570.15	46937.40
570.35	46904.63
570.55	46662.97
570.75	46398.78
570.95	46873.91
571.15	47099.19
571.35	46626.10
571.55	47047.99
571.75	46845.24
571.95	46929.20
572.15	47217.97
572.35	47146.29
572.55	46634.30
572.75	47185.20
572.95	47035.70
573.15	47779.11
573.35	47207.73
573.55	46916.92
573.75	46939.44
573.95	47619.37
574.15	47430.96
574.35	47805.73
574.55	47451.44
574.75	47037.75
574.95	47758.63
575.15	46966.07
575.34	47328.56
575.54	47564.07
575.74	47777.06
575.94	48080.16
576.14	47723.82
576.34	47887.65
576.54	48436.51
576.74	48332.06
576.94	47465.77
577.14	48362.78
577.34	48256.29
577.54	47815.97
577.74	48448.80
577.94	48633.11
578.14	48141.60
578.34	48596.25
578.54	48104.74
578.74	48190.75
578.94	48424.22
579.14	48354.59
579.34	48409.89
579.54	48862.49
579.74	48788.76
579.94	48745.75
580.13	48895.25
580.33	49278.22
580.53	49179.92
580.73	49210.64
580.93	48860.44
581.13	48796.95
581.33	49562.89
581.53	49245.46
581.73	49341.71
581.93	49237.26
582.13	49700.11
582.33	49370.38
582.53	49409.29
582.73	49644.81
582.92	49825.03
583.12	49732.87
583.32	49288.46
583.52	49317.14
583.72	49708.30
583.92	49628.43
584.12	50099.46
584.32	50187.52
584.52	49898.76
584.72	49929.48
584.92	50013.44
585.11	50423.04
585.31	50257.15
585.51	50332.93
585.71	50269.44
585.91	50545.92
586.11	50517.25
586.31	50203.91
586.51	50318.59
586.71	50814.20
586.91	51188.98
587.10	50578.68
587.30	50988.28
587.50	51283.19
587.70	50840.82
587.90	51291.38
588.10	51240.18
588.30	51076.34
588.50	51074.29
588.69	51508.46
588.89	50928.89
589.09	51567.85
589.29	51145.97
589.49	51688.68
589.69	50908.41
589.89	51754.22
590.08	51553.52
590.28	51242.23
590.48	51338.48
590.68	51334.38
590.88	51633.39
591.08	51864.81
591.28	51506.41
591.47	51821.80
591.67	51717.35
591.87	52042.98
592.07	51836.14
592.27	52045.03
592.47	52008.17
592.67	51856.62
592.86	51942.63
593.06	51813.61
593.26	52032.74
593.46	51926.25
593.66	52155.62
593.86	52065.51
594.05	51934.44
594.25	52360.42
594.45	52071.65
594.65	52559.07
594.85	52163.81
595.05	52640.99
595.24	52833.50
595.44	52800.73
595.64	52577.50
595.84	53052.63
596.04	52698.33
596.23	52808.92
596.43	52991.19
596.63	53169.36
596.83	52792.54
597.03	53474.51
597.22	53302.48
597.42	53640.40
597.62	53402.83
597.82	53636.30
598.02	53251.28
598.21	53892.30
598.41	53365.97
598.61	53830.86
598.81	53372.11
599.01	53750.99
599.20	53855.43
599.40	53650.64
599.60	53435.60
599.80	53736.65
600.00	53632.21
600.19	54357.19
600.39	53454.03
600.59	53949.64
600.79	53615.82
600.98	53937.35
601.18	54590.66
601.38	54400.19
601.58	54518.98
601.78	53867.72
601.97	54521.02
602.17	54459.58
602.37	54531.26
602.57	54387.91
602.76	54451.39
602.96	54283.46
603.16	55067.83
603.36	55071.93
603.55	54766.78
603.75	54289.60
603.95	54637.76
604.15	54932.67
604.34	55147.70
604.54	55622.83
604.74	55198.90
604.94	55274.68
605.13	55467.19
605.33	55354.55
605.53	54949.05
605.73	55438.51
605.92	55086.26
606.12	55243.96
606.32	55694.51
606.52	55366.84
606.71	55970.99
606.91	55805.10
607.11	55383.22
607.30	55811.24
607.50	55596.21
607.70	55856.30
607.90	55579.82
608.09	55581.87
608.29	56140.97
608.49	56302.76
608.68	56091.82
608.88	55964.84
609.08	56313.00
609.28	56222.89
609.47	55837.87
609.67	56650.91
609.87	55932.07
610.06	56575.14
610.26	55633.07
610.46	56685.73
610.66	56448.16
610.85	56337.57
611.05	56345.76
611.25	56677.54
611.44	56313.00
611.64	56356.00
611.84	55884.97
612.03	56282.28
612.23	56495.27
612.43	56710.30
612.62	56401.06
612.82	56560.80
613.02	56417.44
613.21	56716.45
613.41	56394.92
613.61	56802.46
613.80	56288.42
614.00	56583.33
614.20	56741.02
614.39	56831.13
614.59	56935.58
614.79	56478.88
614.98	55977.13
615.18	56960.15
615.38	57076.89
615.57	56632.48
615.77	57226.39
615.97	56837.28
616.16	57218.20
616.36	56667.30
616.56	57054.36
616.75	56833.18
616.95	56902.81
617.15	56597.66
617.34	57279.64
617.54	56691.87
617.74	57332.89
617.93	56837.28
618.13	56417.44
618.32	56523.94
618.52	56583.33
618.72	56919.20
618.91	57040.03
619.11	56704.16
619.31	56738.97
619.50	56931.48
619.70	56437.92
619.90	56673.44
620.09	56759.45
620.29	56601.76
620.48	56747.17
620.68	57126.04
620.88	56812.70
621.07	57095.32
621.27	56718.49
621.46	56628.38
621.66	57025.69
621.86	56990.87
622.05	56431.78
622.25	57017.50
622.44	56507.55
622.64	56456.35
622.84	56902.81
623.03	56399.01
623.23	56521.89
623.42	56896.67
623.62	57070.75
623.82	57586.83
624.01	56968.35
624.21	57023.64
624.40	56743.07
624.60	57195.67
624.80	56321.19
624.99	56808.61
625.19	56745.12
625.38	57406.61
625.58	56824.99
625.77	56917.15
625.97	56827.04
626.17	56480.93
626.36	56724.64
626.56	56900.76
626.75	56253.61
626.95	56599.71
627.14	56595.62
627.34	56962.20
627.54	56945.82
627.73	56855.71
627.93	56980.63
628.12	56341.67
628.32	56857.76
628.51	56978.59
628.71	56642.72
628.90	57056.41
629.10	56593.57
629.30	56992.92
629.49	56935.58
629.69	56874.14
629.88	57119.90
630.08	57179.29
630.27	56896.67
630.47	57066.65
630.66	56790.17
630.86	56884.38
631.05	56605.86
631.25	56939.68
631.44	57293.97
631.64	57066.65
631.84	57005.21
632.03	57259.16
632.23	57201.82
632.42	57439.38
632.62	57179.29
632.81	56652.96
633.01	57293.97
633.20	57097.37
633.40	57019.55
633.59	57269.40
633.79	57042.07
633.98	56992.92
634.18	57271.45
634.37	57107.61
634.57	56956.06
634.76	57529.49
634.96	57242.77
635.15	57210.01
635.35	56808.61
635.54	56710.30
635.74	57529.49
635.93	56972.44
636.13	57234.58
636.32	57275.54
636.52	56974.49
636.71	57218.20
636.91	57660.56
637.10	57103.51
637.30	57054.36
637.49	57363.60
637.69	57189.53
637.88	57744.53
638.08	57386.13
638.27	57978.00
638.46	57453.72
638.66	56865.95
638.85	57158.81
639.05	57214.10
639.24	57676.94
639.44	57097.37
639.63	57767.05
639.83	57351.32
640.02	57283.73
640.22	56980.63
640.41	57474.20
640.61	56784.03
640.80	57273.49
640.99	57037.98
641.19	57758.86
641.38	57271.45
641.58	57529.49
641.77	57308.31
641.97	57654.42
642.16	57570.45
642.36	58021.00
642.55	58023.05
642.74	57537.68
642.94	58285.19
643.13	57316.50
643.33	57869.45
643.52	57726.10
643.72	57953.42
643.91	57758.86
644.10	57889.93
644.30	58129.54
644.49	58143.88
644.69	57775.25
644.88	58389.64
645.08	57824.40
645.27	57941.13
645.46	57691.28
645.66	57857.17
645.85	57457.81
646.05	58487.94
646.24	57965.71
646.43	58178.70
646.63	58115.21
646.82	58170.50
647.02	57820.30
647.21	58115.21
647.40	57932.94
647.60	58287.24
647.79	57826.45
647.99	58662.02
648.18	58320.01
648.37	58139.78
648.57	58131.59
648.76	58506.37
648.96	58143.88
649.15	58457.22
649.34	58504.32
649.54	58363.01
649.73	58322.05
649.92	58594.43
650.12	58569.86
650.31	58530.95
650.51	58543.23
650.70	59096.19
650.89	58461.32
651.09	58827.90
651.28	58750.08
651.47	58561.67
651.67	58850.43
651.86	58895.49
652.06	58176.65
652.25	58645.63
652.44	58508.42
652.64	58109.07
652.83	58401.92
653.02	58397.83
653.22	58213.51
653.41	58203.27
653.60	58623.11
653.80	58463.36
653.99	58713.22
654.18	58514.56
654.38	58791.04
654.57	58629.25
654.76	58457.22
654.96	58664.06
655.15	58537.09
655.34	58387.59
655.54	58659.97
655.73	58748.03
655.92	58823.81
656.12	58645.63
656.31	58657.92
656.50	58825.85
656.70	58932.35
656.89	58508.42
657.08	58481.80
657.28	58840.19
657.47	58688.64
657.66	58610.82
657.86	58737.79
658.05	58985.60
658.24	58784.90
658.43	58188.94
658.63	58696.83
658.82	59245.69
659.01	58930.30
659.21	58676.35
659.40	59110.52
659.59	58532.99
659.79	59122.81
659.98	58709.12
660.17	58739.84
660.36	58551.43
660.56	59124.86
660.75	58774.66
660.94	58698.88
661.14	59047.04
661.33	58850.43
661.52	58414.21
661.71	59421.81
661.91	58500.23
662.10	58838.14
662.29	59366.52
662.49	58799.23
662.68	58885.25
662.87	58762.37
663.06	59313.27
663.26	58741.89
663.45	59405.43
663.64	58672.26
663.83	59106.43
664.03	59657.33
664.22	59053.18
664.41	59034.75
664.60	58899.58
664.80	59053.18
664.99	58430.60
665.18	58637.44
665.37	58705.02
665.57	59329.65
665.76	58494.08
665.95	58993.79
666.14	59042.94
666.34	59296.89
666.53	58768.51
666.72	58938.49
666.91	59063.42
667.11	58528.90
667.30	58909.82
667.49	59329.65
667.68	59174.01
667.87	58895.49
668.07	59163.77
668.26	59151.48
668.45	59094.14
668.64	58565.76
668.84	59274.36
669.03	59053.18
669.22	59300.98
669.41	58930.30
669.60	59014.27
669.80	58997.88
669.99	59174.01
670.18	59391.09
670.37	58737.79
670.57	59481.20
670.76	59104.38
670.95	59264.12
671.14	58848.38
671.33	58672.26
671.53	59372.66
671.72	59049.08
671.91	58975.36
672.10	58602.63
672.29	58848.38
672.48	58756.22
672.68	59356.28
672.87	58815.61
673.06	58686.59
673.25	58770.56
673.44	59008.12
673.64	58770.56
673.83	58918.01
674.02	58741.89
674.21	58842.24
674.40	58934.40
674.59	58553.47
674.79	58619.01
674.98	58825.85
675.17	58770.56
675.36	58870.91
675.55	59038.84
675.74	58795.13
675.94	58477.70
676.13	58834.05
676.32	58920.06
676.51	59001.98
676.70	58987.64
676.89	58619.01
677.08	58991.74
677.28	58541.19
677.47	58440.84
677.66	58920.06
677.85	58608.77
678.04	59118.71
678.23	58774.66
678.42	59147.39
678.62	58842.24
678.81	59071.61
679.00	58401.92
679.19	58971.26
679.38	59012.22
679.57	58735.74
679.76	58745.98
679.96	58549.38
680.15	58741.89
680.34	58653.82
680.53	58985.60
680.72	58958.97
680.91	59137.15
681.10	58977.40
681.29	58743.94
681.48	58717.31
681.68	58612.87
681.87	58479.75
682.06	58625.15
682.25	58180.74
682.44	58725.50
682.63	58606.72
682.82	58233.99
683.01	58682.50
683.20	58608.77
683.39	58588.29
683.59	58326.15
683.78	58209.42
683.97	58469.51
684.16	58129.54
684.35	58307.72
684.54	58133.64
684.73	58086.54
684.92	58029.19
685.11	57988.24
685.30	58135.69
685.49	58461.32
685.69	58303.62
685.88	58127.50
686.07	58008.71
686.26	57975.95
686.45	58117.26
686.64	58082.44
686.83	58287.24
687.02	58006.67
687.21	58172.55
687.40	58119.31
687.59	58115.21
687.78	57953.42
687.97	57922.70
688.16	58004.62
688.35	57873.55
688.54	57619.60
688.74	58029.19
688.93	57635.98
689.12	57734.29
689.31	57762.96
689.50	57742.48
689.69	57597.07
689.88	57255.06
690.07	57658.51
690.26	57658.51
690.45	57420.95
690.64	57658.51
690.83	57466.00
691.02	57287.83
691.21	57199.77
691.40	57218.20
691.59	57926.80
691.78	56972.44
691.97	57773.20
692.16	57515.15
692.35	57576.59
692.54	57584.79
692.73	57291.93
692.92	57263.25
693.11	56935.58
693.30	57447.57
693.49	57291.93
693.68	57144.47
693.87	56994.97
694.06	57050.27
694.25	56806.56
694.44	57105.56
694.63	56933.53
694.82	57367.70
695.01	57015.45
695.20	56534.18
695.39	56685.73
695.58	56763.55
695.77	56706.21
695.96	56657.06
696.15	56888.48
696.34	57046.17
696.53	56874.14
696.72	57146.52
696.91	56530.08
697.10	56501.41
697.29	56495.27
697.48	56738.97
697.67	56495.27
697.86	56515.75
698.05	56249.51
698.24	56810.65
698.43	56132.78
698.62	55866.54
698.81	56657.06
699.00	57015.45
699.19	56339.62
699.38	55925.93
699.57	55915.69
699.76	56374.44
699.95	56263.85
700.14	56194.21
700.32	56018.09
700.51	56046.76
700.70	56284.33
700.89	56079.53
701.08	56360.10
701.27	56050.86
701.46	56366.24
701.65	55246.00
701.84	55860.40
702.03	56417.44
702.22	56030.38
702.41	55762.09
702.60	55966.89
702.79	56071.34
702.98	55631.02
703.17	55688.37
703.35	55540.91
703.54	55293.11
703.73	56173.73
703.92	55745.71
704.11	56442.02
704.30	55848.11
704.49	55604.40
704.68	55340.21
704.87	55293.11
705.06	55561.39
705.25	55284.92
705.43	55317.68
705.62	55567.54
705.81	55432.37
706.00	55495.86
706.19	55237.81
706.38	55286.96
706.57	55458.99
706.76	55440.56
706.95	55508.14
707.14	55110.84
707.32	55030.97
707.51	54846.65
707.70	54955.19
707.89	55047.35
708.08	54811.84
708.27	54598.85
708.46	55631.02
708.65	54928.57
708.84	54916.28
709.02	54994.10
709.21	55016.63
709.40	55012.54
709.59	55153.85
709.78	54971.58
709.97	54621.37
710.16	54293.70
710.34	54545.60
710.53	54680.77
710.72	54387.91
710.91	54510.78
711.10	54445.25
711.29	54463.68
711.48	54488.26
711.66	54482.11
711.85	54719.68
712.04	54275.27
712.23	54277.32
712.42	54768.83
712.61	54265.03
712.80	54103.24
712.98	54179.01
713.17	53966.02
713.36	54039.75
713.55	54093.00
713.74	53998.79
713.93	54066.38
714.11	54203.59
714.30	53619.92
714.49	53945.54
714.68	53920.97
714.87	53963.98
715.06	53802.19
715.24	54033.61
715.43	53648.59
715.62	53673.16
715.81	53564.62
716.00	53515.47
716.18	53109.97
716.37	53486.80
716.56	53392.59
716.75	53746.89
716.94	53492.94
717.12	52987.10
717.31	53454.03
717.50	53511.38
717.69	53122.26
717.88	53871.82
718.06	53593.29
718.25	53849.29
718.44	52948.18
718.63	53327.06
718.82	52706.52
719.00	52841.69
719.19	52993.24
719.38	53335.25
719.57	52575.45
719.76	52704.48
719.94	52423.90
720.13	52739.29
720.32	52436.19
720.51	52524.25
720.69	52210.92
720.88	52026.60
721.07	52241.63
721.26	51893.48
721.44	51793.13
721.63	52155.62
721.82	52178.15
722.01	52235.49
722.20	52335.84
722.38	51696.88
722.57	51062.00
722.76	51500.27
722.95	51739.88
723.13	51471.60
723.32	51047.67
723.51	51313.90
723.70	50722.04
723.88	51420.40
724.07	51281.14
724.26	51105.01
724.44	50889.98
724.63	51115.25
724.82	51148.02
725.01	50984.18
725.19	50767.10
725.38	50697.47
725.57	50769.15
725.76	50793.72
725.94	50570.49
726.13	50885.88
726.32	50910.46
726.51	50875.64
726.69	51250.42
726.88	50832.63
727.07	51260.66
727.25	50724.09
727.44	50834.68
727.63	50717.95
727.82	50943.22
728.00	51119.35
728.19	50380.03
728.38	50851.06
728.56	50294.02
728.75	51045.62
728.94	50631.93
729.12	50595.07
729.31	50742.52
729.50	50857.21
729.69	50836.73
729.87	50355.46
730.06	50975.99
730.25	50613.50
730.43	51330.29
730.62	50181.38
730.81	50836.73
730.99	50545.92
731.18	50672.89
731.37	50568.44
731.55	50636.03
731.74	50785.53
731.93	50455.81
732.11	50216.19
732.30	50574.59
732.49	50164.99
732.67	50568.44
732.86	50294.02
733.05	50169.09
733.23	50232.58
733.42	50302.21
733.61	50060.55
733.79	50191.62
733.98	50296.06
734.17	50322.69
734.35	50132.23
734.54	50519.29
734.73	50226.43
734.91	50427.13
735.10	50349.31
735.29	50152.71
735.47	49546.51
735.66	50179.33
735.84	50181.38
736.03	49702.15
736.22	50181.38
736.40	49913.09
736.59	50384.13
736.78	49779.98
736.96	49667.34
737.15	49859.85
737.33	49843.46
737.52	49632.52
737.71	49784.07
737.89	49868.04
738.08	49859.85
738.27	49628.43
738.45	50382.08
738.64	49726.73
738.82	49687.82
739.01	49407.25
739.20	49317.14
739.38	49679.63
739.57	49730.83
739.75	50070.79
739.94	49761.54
740.13	49571.08
740.31	49464.59
740.50	49556.75
740.68	49192.21
740.87	49206.55
741.06	49775.88
741.24	49571.08
741.43	48997.65
741.61	49300.75
741.80	49284.37
741.99	48983.32
742.17	49122.58
742.36	49011.99
742.54	49171.73
742.73	48880.92
742.91	49272.08
743.10	49222.93
743.29	49059.09
743.47	48913.69
743.66	49079.57
743.84	49618.19
744.03	48829.72
744.21	48698.65
744.40	49132.82
744.59	48397.60
744.77	48266.53
744.96	48876.82
745.14	48497.95
745.33	48534.81
745.51	48389.41
745.70	48766.23
745.88	48567.58
746.07	48530.72
746.26	47879.46
746.44	48039.20
746.63	48010.53
746.81	48436.51
747.00	47899.94
747.18	48258.34
747.37	48481.56
747.55	47998.24
747.74	48463.13
747.92	47648.04
748.11	48141.60
748.29	48121.12
748.48	48364.83
748.66	47592.75
748.85	48162.08
749.03	48094.50
749.22	47953.19
749.41	47901.99
749.59	47924.52
749.78	47582.51
749.96	47295.79
750.15	47912.23
750.33	47985.96
750.52	47637.80
750.70	47629.61
750.89	47516.97
751.07	47473.96
751.26	47467.82
751.44	47494.44
751.63	47379.76
751.81	47299.89
752.00	46929.20
752.18	46988.60
752.37	46847.29
752.55	47076.66
752.74	47189.30
752.92	47009.07
753.10	46839.09
753.29	47379.76
753.47	46845.24
753.66	46814.52
753.84	47015.22
754.03	47287.60
754.21	47002.93
754.40	47093.04
754.58	46955.83
754.77	46943.54
754.95	46677.30
755.14	46650.68
755.32	46955.83
755.51	46601.53
755.69	46841.14
755.88	46579.00
756.06	46798.13
756.24	46484.79
756.43	46363.96
756.61	46675.26
756.80	46261.57
756.98	45970.75
757.17	46191.94
757.35	46476.60
757.54	46376.25
757.72	46732.60
757.90	45976.90
758.09	46236.99
758.27	46021.95
758.46	45927.75
758.64	45970.75
758.83	46021.95
759.01	45698.37
759.19	46083.39
759.38	45684.04
759.56	45978.95
759.75	45919.56
759.93	45950.27
760.12	45735.24
760.30	45524.30
760.48	45405.52
760.67	45495.63
760.85	45847.88
761.04	45679.94
761.22	45491.53
761.40	45505.87
761.59	45739.33
761.77	45135.18
761.96	45546.82
762.14	45407.56
762.32	44883.28
762.51	45350.22
762.69	45012.31
762.88	44838.23
763.06	45501.77
763.24	45710.66
763.43	45274.45
763.61	45004.11
763.80	45086.03
763.98	44688.73
764.16	44993.87
764.35	44799.32
764.53	44291.42
764.72	44557.66
764.90	44672.34
765.08	44834.13
765.27	44668.25
765.45	44438.87
765.63	44252.51
765.82	44744.02
766.00	44086.62
766.18	44379.48
766.37	44434.78
766.55	44590.42
766.74	44240.22
766.92	43963.75
767.10	44176.73
767.29	43769.19
767.47	43595.11
767.65	44234.08
767.84	43648.36
768.02	44494.17
768.20	43517.29
768.39	43984.22
768.57	43935.07
768.75	43816.29
768.94	43945.31
769.12	43636.07
769.30	43244.91
769.49	43552.10
769.67	43240.81
769.85	43294.06
770.04	43560.30
770.22	42997.10
770.40	43107.69
770.59	42902.90
770.77	43398.51
770.95	43011.44
771.14	42909.04
771.32	43269.48
771.50	42937.71
771.69	43056.50
771.87	43076.97
772.05	43099.50
772.24	42607.99
772.42	42777.97
772.60	42714.48
772.78	42792.31
772.97	42734.96
773.15	42802.55
773.33	42837.36
773.52	42653.05
773.70	42679.67
773.88	43068.78
774.07	42356.09
774.25	42581.37
774.43	42665.33
774.61	42257.79
774.80	42431.86
774.98	42585.46
775.16	42423.67
775.34	42698.10
775.53	42448.25
775.71	43206.00
775.89	42403.19
776.08	42571.13
776.26	42825.07
776.44	42722.68
776.62	42519.93
776.81	42595.70
776.99	42814.83
777.17	42669.43
777.35	42728.82
777.54	42679.67
777.72	42382.71
777.90	42653.05
778.08	43156.85
778.27	42485.11
778.45	43050.35
778.63	43122.03
778.81	42296.70
779.00	43492.71
779.18	43152.75
779.36	43390.31
779.54	42601.85
779.73	42853.75
779.91	43169.13
780.09	43009.39
780.27	43447.66
780.46	42759.54
780.64	43603.30
780.82	42802.55
781.00	43029.87
781.19	43351.40
781.37	43326.83
781.55	43273.58
781.73	43844.96
781.91	43138.41
782.10	42976.62
782.28	43988.32
782.46	43486.57
782.64	43529.58
782.82	43558.25
783.01	43609.45
783.19	43507.05
783.37	43414.89
783.55	42886.51
783.74	43447.66
783.92	43414.89
784.10	43887.97
784.28	43668.84
784.46	43107.69
784.64	43283.82
784.83	43427.18
785.01	43498.86
785.19	43412.84
785.37	43799.91
785.55	43441.51
785.74	43550.06
785.92	43302.25
786.10	43605.35
786.28	43275.63
786.46	42995.06
786.64	43025.78
786.83	43169.13
787.01	43414.89
787.19	43150.70
787.37	43228.52
787.55	43070.83
787.74	42902.90
787.92	42743.16
788.10	43150.70
788.28	42380.67
788.46	42759.54
788.64	42370.43
788.82	43099.50
789.01	42767.73
789.19	42786.16
789.37	42110.33
789.55	42718.58
789.73	42253.69
789.91	42268.03
790.09	42233.21
790.28	41999.74
790.46	42354.04
790.64	42528.12
790.82	42003.84
791.00	41766.27
791.18	41983.36
791.36	41952.64
791.55	41813.38
791.73	41721.22
791.91	41391.50
792.09	41395.59
792.27	41563.53
792.45	41665.92
792.63	41639.30
792.81	41366.92
793.00	41035.15
793.18	41049.49
793.36	41141.64
793.54	41358.73
793.72	41115.02
793.90	40844.69
794.08	40789.39
794.26	41164.17
794.44	40187.29
794.62	39953.82
794.81	40582.55
794.99	40267.16
795.17	40621.46
795.35	40172.96
795.53	40312.22
795.71	40195.48
795.89	39593.38
796.07	39695.78
796.25	40072.60
796.43	39624.10
796.61	39419.30
796.80	39277.99
796.98	39464.36
797.16	39173.55
797.34	39628.20
797.52	39130.54
797.70	39187.88
797.88	38809.01
798.06	38827.44
798.24	38854.06
798.42	38694.32
798.60	38782.38
798.78	38319.54
798.96	38786.48
799.14	38364.60
799.32	38481.33
799.51	38251.96
799.69	38563.25
799.87	38307.26
800.05	38131.13
800.23	38075.84
800.41	37549.51
800.59	37639.62
800.77	37522.88
800.95	37639.62
801.13	37576.13
801.31	37729.73
801.49	37711.30
801.67	36935.12
801.85	37490.12
802.03	37148.11
802.21	37002.70
802.39	36947.40
802.57	36679.12
802.75	37086.67
802.93	36758.99
803.11	36591.06
803.29	36283.86
803.47	36464.08
803.65	36462.04
803.83	36380.12
804.01	36308.44
804.19	36173.27
804.37	36068.83
804.55	36365.78
804.73	35937.76
804.91	35884.51
805.09	36077.02
805.27	35689.95
805.45	35765.73
805.63	35601.89
805.81	35587.55
805.99	35757.53
806.17	35829.21
806.35	35679.71
806.53	35436.00
806.71	35739.10
806.89	35765.73
807.07	35294.69
807.25	35114.47
807.43	35157.48
807.61	35569.12
807.79	34889.20
807.97	34651.63
808.15	34967.02
808.33	34661.87
808.51	34645.49
808.69	34283.00
808.87	34422.26
809.05	34299.38
809.23	34739.69
809.41	34160.12
809.59	34266.61
809.77	34516.47
809.95	33639.93
810.13	34432.50
810.31	33789.44
810.49	33881.60
810.67	34012.66
810.84	33705.47
811.02	33924.60
811.20	33375.75
811.38	33766.91
811.56	33336.84
811.74	33420.80
811.92	33361.41
812.10	33326.60
812.28	33406.47
812.46	33017.35
812.64	33295.88
812.82	33152.52
813.00	33312.26
813.18	33076.74
813.36	32818.70
813.53	32556.56
813.71	32552.46
813.89	32579.09
814.07	32503.31
814.25	32787.98
814.43	32366.10
814.61	32226.84
814.79	32142.87
814.97	32134.68
815.15	32116.25
815.33	32065.05
815.50	31987.22
815.68	32398.87
815.86	32185.88
816.04	32040.47
816.22	32024.09
816.40	32304.66
816.58	31854.11
816.76	31610.40
816.94	31720.99
817.11	31718.94
817.29	31348.26
817.47	31489.57
817.65	31467.04
817.83	31700.51
818.01	31290.91
818.19	31254.05
818.37	31004.20
818.54	30760.49
818.72	31071.78
818.90	31204.90
819.08	30979.62
819.26	31102.50
819.44	31204.90
819.62	30834.22
819.80	30793.26
819.97	30967.34
820.15	30721.58
820.33	30643.76
820.51	30856.75
820.69	30430.77
820.87	30731.82
821.05	30885.42
821.22	30492.21
821.40	30586.41
821.58	30432.82
821.76	30129.72
821.94	30176.82
822.12	30142.00
822.29	29994.55
822.47	30199.35
822.65	30000.69
822.83	30051.89
823.01	29789.75
823.19	30135.86
823.36	29734.46
823.54	29912.63
823.72	29849.14
823.90	29546.05
824.08	29060.68
824.25	29808.19
824.43	29273.67
824.61	29179.46
824.79	29533.76
824.97	29341.25
825.15	29609.53
825.32	29146.69
825.50	29425.22
825.68	29218.37
825.86	29222.47
826.04	29218.37
826.21	29169.22
826.39	29183.55
826.57	28997.19
826.75	28989.00
826.93	29195.84
827.10	28769.86
827.28	28925.51
827.46	28694.09
827.64	28927.56
827.81	28571.21
827.99	28835.40
828.17	28509.77
828.35	28560.97
828.53	28671.56
828.70	28550.73
828.88	28733.00
829.06	28393.04
829.24	28665.42
829.41	28614.22
829.59	28620.36
829.77	28190.29
829.95	28235.35
830.12	28159.57
830.30	28264.02
830.48	28544.59
830.66	28321.36
830.84	28468.81
831.01	28116.56
831.19	27973.21
831.37	27831.90
831.55	28104.28
831.72	28020.31
831.90	27825.75
832.08	28134.99
832.25	27952.73
832.43	27655.77
832.61	27811.42
832.79	27541.08
832.96	27502.17
833.14	27586.14
833.32	27807.32
833.50	27688.54
833.67	27737.69
833.85	27584.09
834.03	27627.10
834.20	27500.12
834.38	27741.78
834.56	27383.39
834.74	27082.34
834.91	27348.57
835.09	27049.57
835.27	27057.76
835.44	27223.65
835.62	26848.87
835.80	27047.52
835.98	27111.01
836.15	27205.22
836.33	27102.82
836.51	27010.66
836.68	26631.79
836.86	26771.05
837.04	27072.10
837.21	26775.14
837.39	26906.21
837.57	26926.69
837.75	27055.72
837.92	26308.21
838.10	26406.51
838.28	26340.97
838.45	26592.87
838.63	26336.88
838.81	26300.01
838.98	26084.98
839.16	26287.73
839.34	26136.18
839.51	26027.63
839.69	25953.91
839.87	26117.75
840.04	26199.66
840.22	26496.62
840.40	25910.90
840.57	25876.09
840.75	26084.98
840.93	25792.12
841.10	25589.37
841.28	25951.86
841.46	25775.73
841.63	25781.88
841.81	25937.52
841.98	25837.17
842.16	25710.20
842.34	25634.42
842.51	25595.51
842.69	25785.97
842.87	25781.88
843.04	25896.56
843.22	25495.16
843.40	25669.24
843.57	25773.69
843.75	25765.49
843.92	25689.72
844.10	25540.22
844.28	25417.34
844.45	25589.37
844.63	25652.86
844.81	25400.96
844.98	25382.52
845.16	25251.45
845.33	25230.98
845.51	25585.27
845.69	25085.57
845.86	25046.66
846.04	25273.98
846.21	25104.00
846.39	25153.15
846.57	24856.20
846.74	25048.71
846.92	25032.32
847.09	24841.86
847.27	24565.39
847.45	24970.88
847.62	24583.82
847.80	24716.93
847.97	24862.34
848.15	24528.52
848.32	24544.91
848.50	24475.27
848.68	24303.25
848.85	24415.88
849.03	24268.43
849.20	24436.36
849.38	24481.42
849.56	24440.46
849.73	24303.25
849.91	24667.78
850.08	24712.84
850.26	24274.57
850.43	24135.31
850.61	24196.75
850.78	24237.71
850.96	24071.82
851.14	24157.84
851.31	24284.81
851.49	24077.97
851.66	24379.02
851.84	23846.55
852.01	24282.77
852.19	23940.75
852.36	23752.34
852.54	24020.63
852.71	24082.06
852.89	23768.73
853.07	24041.11
853.24	23547.54
853.42	23604.89
853.59	23584.41
853.77	23682.71
853.94	23854.74
854.12	23836.31
854.29	23389.85
854.47	23629.46
854.64	23514.78
854.82	23469.72
854.99	23600.79
855.17	23398.04
855.34	23344.80
855.52	23344.80
855.69	23467.67
855.87	23039.65
856.04	23105.18
856.22	23400.09
856.39	23303.84
856.57	23056.03
856.74	23062.18
856.92	23248.54
857.09	22900.39
857.27	22965.92
857.44	23256.73
857.62	23107.23
857.79	22836.90
857.97	22959.78
858.14	22939.30
858.32	23170.72
858.49	22834.85
858.67	22740.64
858.84	22660.77
859.02	22832.80
859.19	22501.03
859.37	22783.65
859.54	22652.58
859.72	22943.39
859.89	22869.67
860.06	22748.84
860.24	22642.34
860.41	22709.93
860.59	22537.90
860.76	22412.97
860.94	22447.79
861.11	22498.98
861.29	22441.64
861.46	22240.94
861.64	21860.02
861.81	22290.09
861.98	22310.57
862.16	21931.70
862.33	21524.15
862.51	22017.71
862.68	21921.46
862.86	22351.53
863.03	22116.01
863.21	21878.45
863.38	22109.87
863.55	21874.35
863.73	22146.73
863.90	21974.70
864.08	21661.37
864.25	21616.31
864.43	21647.03
864.60	21724.85
864.77	21786.29
864.95	21683.89
865.12	21614.26
865.30	21616.31
865.47	21687.99
865.64	21587.64
865.82	21677.75
865.99	21704.37
866.17	21305.02
866.34	21700.28
866.51	21343.93
866.69	21599.93
866.86	21331.64
867.04	21409.47
867.21	21157.57
867.38	21139.13
867.56	21118.65
867.73	21327.55
867.91	21100.22
868.08	21202.62
868.25	20989.63
868.43	20760.26
868.60	20913.86
868.78	21155.52
868.95	21196.48
869.12	20858.56
869.30	20965.06
869.47	20678.34
869.64	20590.28
869.82	20862.66
869.99	20747.97
870.16	20924.10
870.34	20676.29
870.51	20694.72
870.69	20623.05
870.86	20483.78
871.03	20336.33
871.21	20745.92
871.38	20418.25
871.55	20510.41
871.73	20154.06
871.90	20455.11
872.07	20119.24
872.25	20141.77
872.42	19982.03
872.59	20041.42
872.77	20330.19
872.94	20031.18
873.11	19896.02
873.29	20188.88
873.46	19769.04
873.63	19982.03
873.81	20215.50
873.98	19703.51
874.15	19549.91
874.33	19588.82
874.50	19590.87
874.67	19633.88
874.85	19674.84
875.02	19449.56
875.19	19373.78
875.37	19248.86
875.54	19609.30
875.71	19629.78
875.88	19396.31
876.06	19203.80
876.23	19062.49
876.40	18988.77
876.58	19154.65
876.75	19271.39
876.92	18910.94
877.10	19244.76
877.27	19123.93
877.44	18706.15
877.61	18743.01
877.79	18880.22
877.96	18845.41
878.13	18992.86
878.31	18747.11
878.48	18855.65
878.65	18611.94
878.82	18722.53
879.00	18738.91
879.17	18480.87
879.34	18702.05
879.51	18595.56
879.69	18458.34
879.86	18444.01
880.03	18472.68
880.21	18413.29
880.38	18204.39
880.55	18411.24
880.72	18175.72
880.90	18255.59
881.07	18321.13
881.24	18102.00
881.41	18392.81
881.59	18145.00
881.76	17968.88
881.93	18116.33
882.10	18124.52
882.28	17975.02
882.45	18241.26
882.62	17721.07
882.79	18028.27
882.96	17846.00
883.14	17995.50
883.31	18106.09
883.48	18036.46
883.65	18063.08
883.83	18061.04
884.00	17968.88
884.17	17776.37
884.34	17940.21
884.51	17835.76
884.69	17981.17
884.86	17825.52
885.03	17710.83
885.20	17592.05
885.38	17510.13
885.55	17417.97
885.72	17874.67
885.89	17510.13
886.06	17577.72
886.24	17452.79
886.41	17755.89
886.58	17768.18
886.75	17936.11
886.92	17233.66
887.10	17514.23
887.27	17395.45
887.44	17276.66
887.61	17440.50
887.78	17571.57
887.95	17444.60
888.13	17157.88
888.30	17217.27
888.47	17168.12
888.64	17198.84
888.81	16887.55
888.99	17032.96
889.16	16754.43
889.33	16799.49
889.50	16824.06
889.67	16901.89
889.84	16850.69
890.01	16738.05
890.19	17039.10
890.36	16983.80
890.53	16766.72
890.70	16703.23
890.87	16762.62
891.04	16682.75
891.22	16590.59
891.39	16459.52
891.56	16342.79
891.73	16373.51
891.90	16297.74
892.07	16463.62
892.24	16770.82
892.42	16291.59
892.59	16711.42
892.76	16430.85
892.93	16318.22
893.10	16516.87
893.27	16418.57
893.44	16369.41
893.61	16361.22
893.79	16307.98
893.96	16264.97
894.13	16238.34
894.30	16477.96
894.47	16250.63
894.64	16414.47
894.81	16293.64
894.98	16353.03
895.15	16461.57
895.33	16254.73
895.50	16271.11
895.67	16187.14
895.84	16228.10
896.01	16135.95
896.18	16019.21
896.35	16156.43
896.52	16113.42
896.69	16195.34
896.86	16002.83
897.04	16142.09
897.21	16066.31
897.38	16017.16
897.55	16211.72
897.72	16043.79
897.89	16131.85
898.06	16322.31
898.23	16029.45
898.40	16084.75
898.57	15943.44
898.74	16107.27
898.91	15879.95
899.08	16162.57
899.26	16060.17
899.43	16072.46
899.60	15994.64
899.77	16049.93
899.94	15976.20
900.11	15814.41
900.28	15908.62
900.45	15863.57
900.62	15746.83
900.79	16064.27
900.96	15947.53
901.13	16144.14
901.30	16017.16
901.47	15724.30
901.64	16178.95
901.81	16137.99
901.98	15705.87
902.15	15945.48
902.32	15558.42
902.49	15871.76
902.66	15779.60
902.83	15925.00
903.01	15818.51
903.18	15935.24
903.35	15761.17
903.52	15841.04
903.69	15943.44
903.86	15738.64
904.03	15939.34
904.20	16019.21
904.37	16123.66
904.54	15974.16
904.71	15894.29
904.88	15949.58
905.05	15701.78
905.22	15920.91
905.39	15953.68
905.56	15841.04
905.73	15499.03
905.90	15902.48
906.07	15851.28
906.24	15683.34
906.41	15757.07
906.58	15771.41
906.75	15734.54
906.92	15429.40
907.09	15845.13
907.26	15793.94
907.43	15781.65
907.60	15771.41
907.77	15939.34
907.93	15798.03
908.10	15425.30
908.27	15929.10
908.44	15609.62
908.61	15806.22
908.78	15798.03
908.95	15898.38
909.12	15525.65
909.29	15611.67
909.46	15539.99
909.63	15576.85
909.80	15691.54
909.97	15589.14
910.14	15570.71
910.31	15605.52
910.48	15787.79
910.65	15484.69
910.82	15413.01
910.99	15482.64
911.16	15527.70
911.33	15556.37
911.50	15513.36
911.66	15437.59
911.83	15460.12
912.00	15232.79
912.17	15034.14
912.34	15054.62
912.51	15384.34
912.68	15165.21
912.85	15218.46
913.02	15308.57
913.19	15083.29
913.36	15150.87
913.53	15230.74
913.70	14939.93
913.86	15181.59
914.03	15122.20
914.20	15075.10
914.37	15081.24
914.54	15046.43
914.71	14941.98
914.88	15195.93
915.05	14827.29
915.22	14778.14
915.39	14774.05
915.55	14665.50
915.72	14702.37
915.89	14638.88
916.06	14462.76
916.23	14753.57
916.40	14444.32
916.57	14722.85
916.74	14692.13
916.91	14665.50
917.07	14579.49
917.24	14524.19
917.41	14370.60
917.58	14692.13
917.75	14425.89
917.92	14157.61
918.09	14253.86
918.26	14079.79
918.42	14399.27
918.59	14206.76
918.76	14157.61
918.93	13879.08
919.10	13987.63
919.27	14026.54
919.44	14233.38
919.60	14004.01
919.77	13913.90
919.94	13825.84
920.11	13799.21
920.28	13958.96
920.45	13850.41
920.61	13850.41
920.78	13387.57
920.95	13764.40
921.12	13406.00
921.29	13225.78
921.46	13551.41
921.62	13279.03
921.79	13479.73
921.96	13244.21
922.13	13283.13
922.30	13170.49
922.47	13129.53
922.63	12943.16
922.80	13084.47
922.97	13156.15
923.14	12748.61
923.31	12937.02
923.47	12932.92
923.64	13113.14
923.81	12730.17
923.98	12777.28
924.15	12635.97
924.32	12658.49
924.48	12668.73
924.65	12566.34
924.82	12601.15
924.99	12398.40
925.15	12617.54
925.32	12451.65
925.49	12328.77
925.66	12269.38
925.83	12425.03
925.99	12308.29
926.16	12175.17
926.33	12130.12
926.50	12013.38
926.67	12164.93
926.83	12068.68
927.00	12031.82
927.17	11773.77
927.34	11724.62
927.50	11724.62
927.67	11822.92
927.84	11685.71
928.01	11716.43
928.17	11618.13
928.34	11661.13
928.51	11585.36
928.68	11454.29
928.84	11433.81
929.01	11298.64
929.18	11278.16
929.35	11061.08
929.51	10934.11
929.68	11143.00
929.85	11102.04
930.02	11001.69
930.18	11329.36
930.35	10942.30
930.52	10981.21
930.69	11018.07
930.85	10944.34
931.02	10753.88
931.19	10729.31
931.36	10764.12
931.52	10643.29
931.69	10674.01
931.86	10694.49
932.02	10762.08
932.19	10420.06
932.36	10305.38
932.53	10612.57
932.69	10334.05
932.86	10321.76
933.03	10172.26
933.19	10147.69
933.36	10180.45
933.53	10024.81
933.70	10002.28
933.86	9969.51
934.03	9961.32
934.20	9946.98
934.36	9951.08
934.53	9533.29
934.70	9600.88
934.86	9514.86
935.03	9424.75
935.20	9447.28
935.36	9383.79
935.53	9318.26
935.70	9375.60
935.86	9404.27
936.03	9133.94
936.20	9031.54
936.36	9021.30
936.53	8890.23
936.70	8693.63
936.86	9025.40
937.03	8697.72
937.20	8652.67
937.36	8888.18
937.53	8454.02
937.70	8324.99
937.86	8079.24
938.03	8226.69
938.20	8175.49
938.36	7954.31
938.53	7956.36
938.70	7753.61
938.86	7905.16
939.03	7704.46
939.20	7573.39
939.36	7460.75
939.53	7159.70
939.70	7679.88
939.86	7249.81
940.03	7182.23
940.19	7081.88
940.36	7032.72
940.53	6973.33
940.69	6770.58
940.86	6860.70
941.03	6780.82
941.19	6633.37
941.36	6619.04
941.52	6625.18
941.69	6567.84
941.86	6414.24
942.02	6502.30
942.19	6426.53
942.35	6365.09
942.52	6201.25
942.69	6184.87
942.85	6039.46
943.02	6215.59
943.18	6186.91
943.35	6072.23
943.52	6090.66
943.68	5930.92
943.85	5967.78
944.01	5910.44
944.18	5724.07
944.35	5859.24
944.51	5752.74
944.68	5572.52
944.84	5582.76
945.01	5435.31
945.17	5603.24
945.34	5623.72
945.51	5724.07
945.67	5617.58
945.84	5578.67
946.00	5472.17
946.17	5468.08
946.33	5525.42
946.50	5486.51
946.67	5420.97
946.83	5486.51
947.00	5582.76
947.16	5451.69
947.33	5472.17
947.49	5457.84
947.66	5523.37
947.82	5394.35
947.99	5474.22
948.16	5513.13
948.32	5494.70
948.49	5482.41
948.65	5646.25
948.82	5361.58
948.98	5521.32
949.15	5439.40
949.31	5474.22
949.48	5582.76
949.64	5404.59
949.81	5494.70
949.97	5296.05
950.14	5488.56
950.30	5332.91
950.47	5420.97
950.63	5435.31
950.80	5410.73
950.96	5576.62
951.13	5574.57
951.30	5343.15
951.46	5576.62
951.63	5636.01
951.79	5599.15
951.96	5633.96
952.12	5603.24
952.29	5732.26
952.45	5621.67
952.62	5513.13
952.78	5607.34
952.94	5380.01
953.11	5576.62
953.27	5310.38
953.44	5697.45
953.60	5603.24
953.77	5615.53
953.93	5603.24
954.10	5582.76
954.26	5658.54
954.43	5492.65
954.59	5693.35
954.76	5593.00
954.92	5605.29
955.09	5756.84
955.25	5568.43
955.42	5814.18
955.58	5781.42
955.75	5556.14
955.91	5646.25
956.07	5699.50
956.24	5636.01
956.40	5851.05
956.57	5754.79
956.73	5636.01
956.90	5511.08
957.06	5699.50
957.23	5728.17
957.39	5599.15
957.56	5662.63
957.72	5478.32
957.88	5668.78
958.05	5654.44
958.21	5754.79
958.38	5601.19
958.54	5638.06
958.71	5783.46
958.87	5517.23
959.03	5582.76
959.20	5689.26
959.36	5570.48
959.53	5697.45
959.69	5644.20
959.85	5695.40
960.02	5597.10
960.18	5574.57
960.35	5646.25
960.51	5726.12
960.68	5513.13
960.84	5644.20
961.00	5597.10
961.17	5724.07
961.33	5597.10
961.50	5607.34
961.66	5695.40
961.82	5631.91
961.99	5717.93
962.15	5599.15
962.31	5564.33
962.48	5533.61
962.64	5652.39
962.81	5560.24
962.97	5586.86
963.13	5611.43
963.30	5523.37
963.46	5504.94
963.62	5513.13
963.79	5492.65
963.95	5498.80
964.12	5629.87
964.28	5582.76
964.44	5615.53
964.61	5562.28
964.77	5488.56
964.93	5629.87
965.10	5502.89
965.26	5289.90
965.42	5531.56
965.59	5519.28
965.75	5457.84
965.92	5509.04
966.08	5457.84
966.24	5463.98
966.41	5466.03
966.57	5457.84
966.73	5404.59
966.90	5515.18
967.06	5359.53
967.22	5398.45
967.39	5455.79
967.55	5351.34
967.71	5269.42
967.88	5570.48
968.04	5304.24
968.20	5341.10
968.37	5363.63
968.53	5347.25
968.69	5439.40
968.85	5357.49
969.02	5410.73
969.18	5437.36
969.34	5250.99
969.51	5394.35
969.67	5306.29
969.83	5218.22
970.00	5216.18
970.16	5164.98
970.32	5339.05
970.48	5337.01
970.65	5085.11
970.81	5236.66
970.97	5283.76
971.14	5132.21
971.30	5363.63
971.46	5107.63
971.63	5240.75
971.79	5218.22
971.95	5097.39
972.11	5111.73
972.28	4988.85
972.44	5253.04
972.60	5048.24
972.76	5169.07
972.93	4958.13
973.09	4992.95
973.25	4974.52
973.42	5009.33
973.58	5117.87
973.74	4974.52
973.90	5146.55
974.07	5001.14
974.23	5136.31
974.39	5091.25
974.55	5121.97
974.72	5074.87
974.88	4779.96
975.04	4997.04
975.20	4982.71
975.37	4958.13
975.53	4829.11
975.69	5048.24
975.85	4988.85
976.01	4820.92
976.18	4933.56
976.34	4917.17
976.50	4960.18
976.66	4853.69
976.83	4820.92
976.99	4796.34
977.15	4763.58
977.31	4851.64
977.47	4753.34
977.64	4874.17
977.80	4939.70
977.96	4747.19
978.12	4743.10
978.29	4739.00
978.45	4761.53
978.61	4669.37
978.77	4804.53
978.93	4648.89
979.10	4677.56
979.26	4714.42
979.42	4628.41
979.58	4571.07
979.74	4542.39
979.91	4657.08
980.07	4560.83
980.23	4665.27
980.39	4616.12
980.55	4622.27
980.71	4624.31
980.88	4538.30
981.04	4431.80
981.20	4577.21
981.36	4560.83
981.52	4581.31
981.68	4464.57
981.85	4628.41
982.01	4517.82
982.17	4499.39
982.33	4517.82
982.49	4466.62
982.65	4351.93
982.82	4466.62
982.98	4378.56
983.14	4366.27
983.30	4511.68
983.46	4448.19
983.62	4435.90
983.79	4347.84
983.95	4333.50
984.11	4358.08
984.27	4378.56
984.43	4370.37
984.59	4206.53
984.75	4435.90
984.91	4331.45
985.08	4450.24
985.24	4206.53
985.40	4143.04
985.56	4308.93
985.72	4356.03
985.88	4284.35
986.04	4155.33
986.20	4212.67
986.37	4218.82
986.53	4124.61
986.69	4190.14
986.85	4087.75
987.01	4216.77
987.17	4181.95
987.33	4143.04
987.49	3977.16
987.65	4149.18
987.82	4036.55
987.98	4102.08
988.14	4155.33
988.30	4042.69
988.46	4118.47
988.62	4140.99
988.78	4014.02
988.94	4061.12
989.10	3948.48
989.26	3839.94
989.42	3983.30
989.59	3809.22
989.75	3960.77
989.91	3960.77
990.07	3878.85
990.23	3903.43
990.39	4044.74
990.55	3985.35
990.71	3928.00
990.87	3940.29
991.03	3964.87
991.19	3852.23
991.35	3805.13
991.51	3905.48
991.67	3968.96
991.83	3825.61
992.00	3780.55
992.16	3866.56
992.32	3901.38
992.48	3930.05
992.64	3629.00
992.80	3731.40
992.96	3809.22
993.12	3776.45
993.28	3786.69
993.44	3772.36
993.60	3717.06
993.76	3678.15
993.92	3770.31
994.08	3805.13
994.24	3690.44
994.40	3639.24
994.56	3735.50
994.72	3567.56
994.88	3612.62
995.04	3655.62
995.20	3446.73
995.36	3545.03
995.52	3547.08
995.68	3504.07
995.84	3485.64
996.00	3688.39
996.16	3637.19
996.32	3446.73
996.48	3608.52
996.64	3624.90
996.80	3444.68
996.96	3598.28
997.12	3520.46
997.28	3510.22
997.44	3522.51
997.60	3567.56
997.76	3432.40
997.92	3549.13
998.08	3467.21
998.24	3450.83
998.40	3438.54
998.56	3475.40
998.72	3354.57
998.88	3395.53
999.04	3370.96
999.20	3475.40
999.36	3366.86
999.52	3426.25
999.68	3401.68
999.84	3485.64
1000.00	3258.32
1000.16	3262.41
1000.32	3289.04
1000.48	3420.11
1000.64	3264.46
1000.80	3248.08
1000.95	3215.31
1001.11	3379.15
1001.27	3180.50
1001.43	3274.70
1001.59	3196.88
1001.75	3110.86
1001.91	3164.11
1002.07	3303.37
1002.23	3252.17
1002.39	3260.37
1002.55	3229.65
1002.71	3188.69
1002.87	3211.22
1003.03	3174.35
1003.19	3098.58
1003.34	3305.42
1003.50	2992.08
1003.66	3221.45
1003.82	3250.13
1003.98	3149.78
1004.14	3082.19
1004.30	3223.50
1004.46	2992.08
1004.62	3147.73
1004.78	3026.90
1004.94	3157.97
1005.09	3149.78
1005.25	3157.97
1005.41	3045.33
1005.57	3035.09
1005.73	2996.18
1005.89	3000.27
1006.05	3096.53
1006.21	3074.00
1006.37	2996.18
1006.52	2981.84
1006.68	2795.48
1006.84	3080.14
1007.00	2959.31
1007.16	2965.46
1007.32	3028.95
1007.48	2940.88
1007.64	2891.73
1007.79	2918.36
1007.95	2932.69
1008.11	2914.26
1008.27	2961.36
1008.43	2965.46
1008.59	2973.65
1008.75	2897.88
1008.91	2887.64
1009.06	2856.92
1009.22	2969.55
1009.38	2828.24
1009.54	2887.64
1009.70	2787.29
1009.86	2824.15
1010.01	2856.92
1010.17	2752.47
1010.33	2850.77
1010.49	2830.29
1010.65	2887.64
1010.81	2674.65
1010.96	2803.67
1011.12	2691.03
1011.28	2777.05
1011.44	2805.72
1011.60	2699.22
1011.76	2699.22
1011.91	2811.86
1012.07	2615.26
1012.23	2686.94
1012.39	2533.34
1012.55	2768.85
1012.71	2779.09
1012.86	2617.30
1013.02	2682.84
1013.18	2582.49
1013.34	2676.70
1013.50	2676.70
1013.65	2746.33
1013.81	2674.65
1013.97	2631.64
1014.13	2596.82
1014.29	2605.02
1014.44	2699.22
1014.60	2721.75
1014.76	2625.50
1014.92	2600.92
1015.07	2633.69
1015.23	2586.58
1015.39	2580.44
1015.55	2514.91
1015.71	2641.88
1015.86	2633.69
1016.02	2578.39
1016.18	2498.52
1016.34	2600.92
1016.49	2510.81
1016.65	2590.68
1016.81	2455.51
1016.97	2525.15
1017.12	2633.69
1017.28	2523.10
1017.44	2428.89
1017.60	2502.62
1017.75	2437.08
1017.91	2637.78
1018.07	2586.58
1018.23	2459.61
1018.38	2465.75
1018.54	2467.80
1018.70	2396.12
1018.86	2428.89
1019.01	2371.55
1019.17	2383.84
1019.33	2510.81
1019.49	2398.17
1019.64	2445.27
1019.80	2437.08
1019.96	2508.76
1020.12	2451.42
1020.27	2437.08
1020.43	2408.41
1020.59	2394.08
1020.74	2467.80
1020.90	2441.18
1021.06	2344.92
1021.22	2363.36
1021.37	2355.16
1021.53	2279.39
1021.69	2432.99
1021.84	2330.59
1022.00	2375.64
1022.16	2306.01
1022.31	2400.22
1022.47	2369.50
1022.63	2328.54
1022.79	2203.61
1022.94	2314.20
1023.10	2387.93
1023.26	2269.15
1023.41	2215.90
1023.57	2197.47
1023.73	2367.45
1023.88	2275.29
1024.04	2236.38
1024.20	2199.52
1024.35	2387.93
1024.51	2226.14
1024.67	2217.95
1024.82	2334.68
1024.98	2158.56
1025.14	2318.30
1025.29	2232.29
1025.45	2263.01
1025.61	2105.31
1025.76	2172.89
1025.92	2226.14
1026.08	2306.01
1026.23	2265.05
1026.39	2289.63
1026.55	2113.50
1026.70	2148.32
1026.86	2203.61
1027.02	2258.91
1027.17	2176.99
1027.33	2230.24
1027.48	2191.33
1027.64	2146.27
1027.80	2140.13
1027.95	2183.13
1028.11	2039.78
1028.27	2213.85
1028.42	2183.13
1028.58	2140.13
1028.73	2138.08
1028.89	2080.74
1029.05	2197.47
1029.20	2205.66
>>>>>End Processed Spectral Data<<<<<
