SpectraSuite Data File
++++++++++++++++++++++++++++++++++++
Date: Fri Jun 02 14:41:56 CEST 2017
User: INFO_000
Dark Spectrum Present: No
Reference Spectrum Present: No
Number of Sampled Component Spectra: 1
Spectrometers: USB4H00879
Integration Time (usec): 80000 (USB4H00879)
Spectra Averaged: 1 (USB4H00879)
Boxcar Smoothing: 0 (USB4H00879)
Correct for Electrical Dark: No (USB4H00879)
Strobe/Lamp Enabled: No (USB4H00879)
Correct for Detector Non-linearity: No (USB4H00879)
Correct for Stray Light: No (USB4H00879)
Number of Pixels in Processed Spectrum: 3648
>>>>>Begin Processed Spectral Data<<<<<
345.13	1241.07
345.34	1241.07
345.56	1241.07
345.78	1290.22
345.99	1290.22
346.21	1724.39
346.42	1720.29
346.64	1609.70
346.86	1837.03
347.07	1708.01
347.29	1679.33
347.50	1613.80
347.72	1603.56
347.94	1746.92
348.15	1550.31
348.37	1626.09
348.59	1644.52
348.80	1644.52
349.02	1837.03
349.23	1902.56
349.45	1806.31
349.67	1888.23
349.88	1853.41
350.10	2045.92
350.31	1767.40
350.53	1753.06
350.75	1920.99
350.96	1761.25
351.18	1855.46
351.39	1820.64
351.61	1855.46
351.82	1910.75
352.04	1896.42
352.26	1812.45
352.47	1853.41
352.69	1937.38
352.90	1732.58
353.12	1826.79
353.34	1847.27
353.55	1920.99
353.77	1890.28
353.98	1857.51
354.20	1830.88
354.41	1970.15
354.63	2027.49
354.85	2041.82
355.06	1847.27
355.28	1759.21
355.49	1849.32
355.71	1877.99
355.92	1892.32
356.14	1863.65
356.35	1869.80
356.57	1855.46
356.79	1945.57
357.00	1920.99
357.22	1933.28
357.43	1847.27
357.65	1945.57
357.86	1841.12
358.08	1920.99
358.29	1943.52
358.51	2009.06
358.72	1949.67
358.94	1943.52
359.16	2000.87
359.37	1855.46
359.59	1984.48
359.80	2060.26
360.02	1877.99
360.23	2004.96
360.45	2009.06
360.66	1945.57
360.88	1742.82
361.09	1941.47
361.31	2009.06
361.52	1992.67
361.74	2023.39
361.95	2035.68
362.17	1970.15
362.38	2072.54
362.60	2011.11
362.81	1966.05
363.03	1904.61
363.24	1982.43
363.46	2074.59
363.67	2039.78
363.89	1900.52
364.10	1945.57
364.32	2011.11
364.53	2009.06
364.75	1863.65
364.96	2068.45
365.18	2072.54
365.39	1959.91
365.61	1978.34
365.82	2142.18
366.04	2015.20
366.25	1955.81
366.47	2095.07
366.68	2017.25
366.90	2066.40
367.11	2158.56
367.33	2103.26
367.54	2021.35
367.76	1986.53
367.97	2117.60
368.19	2062.30
368.40	2093.02
368.62	1961.95
368.83	1990.63
369.05	2025.44
369.26	2035.68
369.48	1996.77
369.69	2023.39
369.91	2146.27
370.12	2082.78
370.33	2090.98
370.55	2009.06
370.76	2076.64
370.98	2060.26
371.19	2062.30
371.41	2084.83
371.62	2127.84
371.84	2009.06
372.05	2152.42
372.27	2099.17
372.48	2095.07
372.69	2090.98
372.91	2220.00
373.12	2176.99
373.34	2115.55
373.55	2191.33
373.77	2158.56
373.98	2197.47
374.20	2146.27
374.41	2228.19
374.62	2113.50
374.84	2164.70
375.05	2181.09
375.27	2183.13
375.48	2232.29
375.70	2191.33
375.91	2160.61
376.12	2385.88
376.34	2174.94
376.55	2226.14
376.77	2211.81
376.98	2154.46
377.19	2146.27
377.41	2244.57
377.62	2273.25
377.84	2224.09
378.05	2281.44
378.27	2144.22
378.48	2301.92
378.69	2447.32
378.91	2283.49
379.12	2342.88
379.34	2289.63
379.55	2240.48
379.76	2320.35
379.98	2285.53
380.19	2269.15
380.41	2265.05
380.62	2279.39
380.83	2260.96
381.05	2133.98
381.26	2381.79
381.47	2215.90
381.69	2289.63
381.90	2357.21
382.12	2365.40
382.33	2392.03
382.54	2310.11
382.76	2351.07
382.97	2260.96
383.19	2365.40
383.40	2349.02
383.61	2375.64
383.83	2308.06
384.04	2344.92
384.25	2330.59
384.47	2398.17
384.68	2373.60
384.89	2355.16
385.11	2316.25
385.32	2310.11
385.54	2414.56
385.75	2371.55
385.96	2418.65
386.18	2381.79
386.39	2398.17
386.60	2326.49
386.82	2543.58
387.03	2443.23
387.24	2553.82
387.46	2506.71
387.67	2449.37
387.88	2492.38
388.10	2428.89
388.31	2527.19
388.52	2549.72
388.74	2600.92
388.95	2559.96
389.16	2525.15
389.38	2570.20
389.59	2582.49
389.80	2693.08
390.02	2549.72
390.23	2709.46
390.44	2525.15
390.66	2607.06
390.87	2596.82
391.08	2588.63
391.30	2711.51
391.51	2672.60
391.72	2809.81
391.94	2729.94
392.15	2623.45
392.36	2711.51
392.58	2564.06
392.79	2697.17
393.00	2785.24
393.22	2742.23
393.43	2801.62
393.64	2830.29
393.85	2830.29
394.07	2760.66
394.28	2879.44
394.49	2789.33
394.71	2803.67
394.92	2957.27
395.13	2725.85
395.35	2797.53
395.56	2871.25
395.77	2826.20
395.98	2908.12
396.20	2840.53
396.41	2826.20
396.62	2918.36
396.84	2844.63
397.05	2959.31
397.26	2940.88
397.47	2961.36
397.69	2856.92
397.90	3043.28
398.11	2959.31
398.32	2987.99
398.54	2901.97
398.75	2971.60
398.96	2953.17
399.18	3172.30
399.39	2992.08
399.60	2998.23
399.81	2994.13
400.03	2957.27
400.24	3280.85
400.45	3002.32
400.66	3153.87
400.88	3051.47
401.09	3180.50
401.30	3131.34
401.51	3155.92
401.73	3151.82
401.94	3196.88
402.15	3182.54
402.36	3065.81
402.58	3260.37
402.79	3297.23
403.00	3172.30
403.21	3260.37
403.43	3348.43
403.64	3383.24
403.85	3205.07
404.06	3352.52
404.27	3196.88
404.49	3332.05
404.70	3178.45
404.91	3346.38
405.12	3342.28
405.34	3338.19
405.55	3438.54
405.76	3284.94
405.97	3311.57
406.19	3389.39
406.40	3241.93
406.61	3368.91
406.82	3407.82
407.03	3348.43
407.25	3309.52
407.46	3545.03
407.67	3489.74
407.88	3520.46
408.09	3450.83
408.31	3483.59
408.52	3487.69
408.73	3393.48
408.94	3409.87
409.15	3590.09
409.37	3606.47
409.58	3538.89
409.79	3479.50
410.00	3606.47
410.21	3428.30
410.43	3475.40
410.64	3508.17
410.85	3743.69
411.06	3694.54
411.27	3567.56
411.48	3692.49
411.70	3631.05
411.91	3735.50
412.12	3672.01
412.33	3641.29
412.54	3702.73
412.76	3841.99
412.97	3715.02
413.18	3653.58
413.39	3692.49
413.60	3790.79
413.81	3717.06
414.03	3737.54
414.24	3682.25
414.45	3911.62
414.66	3731.40
414.87	3801.03
415.08	3731.40
415.30	3803.08
415.51	3911.62
415.72	3905.48
415.93	3770.31
416.14	3915.72
416.35	3846.09
416.56	3909.57
416.78	3958.72
416.99	3934.15
417.20	3913.67
417.41	4116.42
417.62	3995.59
417.83	4087.75
418.04	3954.63
418.26	4095.94
418.47	3954.63
418.68	4097.99
418.89	3940.29
419.10	4145.09
419.31	4112.32
419.52	4124.61
419.73	4190.14
419.95	4212.67
420.16	4071.36
420.37	4245.44
420.58	4167.62
420.79	4052.93
421.00	4147.14
421.21	4177.86
421.42	4128.70
421.63	4257.73
421.85	4171.71
422.06	4351.93
422.27	4315.07
422.48	4229.06
422.69	4216.77
422.90	4358.08
423.11	4351.93
423.32	4366.27
423.53	4425.66
423.75	4403.13
423.96	4609.98
424.17	4458.43
424.38	4667.32
424.59	4751.29
424.80	4599.74
425.01	4440.00
425.22	4614.07
425.43	4575.16
425.64	4741.05
425.85	4906.93
426.06	4646.84
426.28	4640.70
426.49	4571.07
426.70	4667.32
426.91	4706.23
427.12	4980.66
427.33	4837.30
427.54	4761.53
427.75	4755.38
427.96	4919.22
428.17	4763.58
428.38	4937.65
428.59	5048.24
428.80	4884.41
429.01	4992.95
429.23	4937.65
429.44	5136.31
429.65	5042.10
429.86	5169.07
430.07	4923.32
430.28	5048.24
430.49	5164.98
430.70	5253.04
430.91	5277.62
431.12	5134.26
431.33	5330.86
431.54	5220.27
431.75	5289.90
431.96	5377.97
432.17	5353.39
432.38	5402.54
432.59	5517.23
432.80	5517.23
433.01	5441.45
433.22	5619.63
433.43	5504.94
433.64	5525.42
433.85	5416.88
434.06	5572.52
434.27	5521.32
434.49	5500.84
434.70	5670.83
434.91	5732.26
435.12	5744.55
435.33	5523.37
435.54	5619.63
435.75	5466.03
435.96	5527.47
436.17	5414.83
436.38	5752.74
436.59	5734.31
436.80	5760.94
437.01	6031.27
437.22	5814.18
437.43	5846.95
437.64	5578.67
437.85	5910.44
438.06	5836.71
438.27	5826.47
438.48	5904.29
438.69	6098.85
438.90	5965.73
439.11	5836.71
439.32	6301.60
439.53	6006.69
439.74	6055.84
439.95	6086.56
440.16	6154.15
440.37	6094.76
440.57	6035.36
440.78	6168.48
440.99	6156.19
441.20	6139.81
441.41	6111.14
441.62	6250.40
441.83	6057.89
442.04	6299.55
442.25	6283.17
442.46	6252.45
442.67	6393.76
442.88	6860.70
443.09	6348.70
443.30	6457.25
443.51	6449.05
443.72	6711.19
443.93	6444.96
444.14	6715.29
444.35	6363.04
444.56	6444.96
444.77	6619.04
444.98	6666.14
445.19	6668.19
445.40	6598.56
445.61	6475.68
445.81	6729.63
446.02	6643.61
446.23	6678.43
446.44	6528.92
446.65	6795.16
446.86	6731.67
447.07	6877.08
447.28	6991.77
447.49	6807.45
447.70	6784.92
447.91	6920.09
448.12	7026.58
448.33	7178.13
448.54	6918.04
448.74	6940.57
448.95	7219.09
449.16	6862.74
449.37	7241.62
449.58	6959.00
449.79	7341.97
450.00	7083.92
450.21	7339.92
450.42	7438.22
450.63	7227.28
450.84	7401.36
451.05	7401.36
451.25	7151.51
451.46	7067.54
451.67	7495.57
451.88	7442.32
452.09	7501.71
452.30	7495.57
452.51	7493.52
452.72	7669.64
452.93	7841.67
453.13	7481.23
453.34	7448.46
453.55	7608.20
453.76	7661.45
453.97	8048.52
454.18	7675.79
454.39	7663.50
454.60	7935.88
454.81	7800.71
455.01	8058.76
455.22	7786.38
455.43	7851.91
455.64	8245.12
455.85	8232.83
456.06	8318.85
456.27	8091.52
456.48	8155.01
456.68	8142.72
456.89	8101.76
457.10	8322.94
457.31	8425.34
457.52	8353.66
457.73	8406.91
457.94	8642.43
458.14	8400.77
458.35	8703.87
458.56	8394.62
458.77	8406.91
458.98	8478.59
459.19	8626.04
459.39	8931.19
459.60	8669.05
459.81	8773.50
460.02	8906.62
460.23	8824.70
460.44	9129.84
460.65	8972.15
460.85	9267.06
461.06	9115.51
461.27	8843.13
461.48	9187.19
461.69	9240.44
461.89	9064.31
462.10	9326.45
462.31	9078.65
462.52	9181.04
462.73	9299.83
462.94	9582.45
463.14	9469.81
463.35	9496.43
463.56	9955.18
463.77	9901.93
463.98	9529.20
464.18	9693.04
464.39	9961.32
464.60	9985.90
464.81	9899.88
465.02	9879.40
465.23	10061.67
465.43	9924.46
465.64	10256.23
465.85	10248.04
466.06	10114.92
466.27	10489.70
466.47	10360.67
466.68	10280.80
466.89	10395.49
467.10	10465.12
467.30	10284.90
467.51	10506.08
467.72	11024.22
467.93	10479.46
468.14	10592.09
468.34	10973.02
468.55	10710.88
468.76	11093.85
468.97	10944.34
469.17	11151.19
469.38	11345.75
469.59	11302.74
469.80	11026.26
470.01	11259.73
470.21	11372.37
470.42	11784.01
470.63	11634.51
470.84	11546.45
471.04	11945.80
471.25	11673.42
471.46	11685.71
471.67	11953.99
471.87	11747.15
472.08	11980.62
472.29	12287.81
472.50	12021.58
472.70	12029.77
472.91	12162.89
473.12	12562.24
473.33	12674.88
473.53	12781.37
473.74	12500.80
473.95	12744.51
474.16	13092.66
474.36	12781.37
474.57	13037.37
474.78	13139.77
474.99	13086.52
475.19	13074.23
475.40	13469.49
475.61	13518.64
475.81	13778.73
476.02	13915.95
476.23	13610.80
476.44	13692.72
476.64	14026.54
476.85	13877.04
477.06	14102.31
477.27	14315.30
477.47	14323.49
477.68	14239.53
477.89	14442.28
478.09	14452.52
478.30	14683.94
478.51	14608.16
478.71	14862.11
478.92	14968.60
479.13	15195.93
479.34	15296.28
479.54	15054.62
479.75	15355.67
479.96	15519.51
480.16	15499.03
480.37	15490.84
480.58	15650.58
480.78	15830.80
480.99	15845.13
481.20	16017.16
481.41	16035.60
481.61	16250.63
481.82	16252.68
482.03	16398.09
482.23	16283.40
482.44	16592.64
482.65	16666.37
482.85	16688.90
483.06	16586.50
483.27	17030.91
483.47	16926.46
483.68	16926.46
483.89	17149.69
484.09	16887.55
484.30	17372.92
484.51	17671.92
484.71	17657.59
484.92	17460.98
485.13	17927.92
485.33	17585.91
485.54	17870.58
485.75	18003.69
485.95	18128.62
486.16	18087.66
486.37	18341.61
486.57	18415.34
486.78	18362.09
486.98	18284.26
487.19	18835.17
487.40	19029.73
487.60	18958.05
487.81	19029.73
488.02	18996.96
488.22	18845.41
488.43	19082.97
488.64	19236.57
488.84	19236.57
489.05	19554.01
489.25	19584.73
489.46	19736.27
489.67	19898.06
489.87	19637.97
490.08	19699.41
490.29	20076.24
490.49	20416.20
490.70	20395.72
490.90	20528.84
491.11	20684.48
491.32	20481.74
491.52	20303.56
491.73	20672.20
491.94	20924.10
492.14	20930.24
492.35	21188.28
492.55	21358.27
492.76	21219.00
492.97	21309.11
493.17	21266.11
493.38	21466.81
493.58	21710.52
493.79	21786.29
494.00	21524.15
494.20	21878.45
494.41	21857.97
494.61	22410.92
494.82	21989.04
495.02	22105.77
495.23	22122.16
495.44	22316.72
495.64	22527.66
495.85	22580.90
496.05	22572.71
496.26	22585.00
496.47	23162.53
496.67	22757.03
496.88	22986.40
497.08	23027.36
497.29	23193.25
497.49	23283.36
497.70	23500.44
497.91	23264.92
498.11	23457.43
498.32	23498.39
498.52	23772.82
498.73	24139.41
498.93	23805.59
499.14	23697.05
499.34	23838.36
499.55	24151.70
499.76	24166.03
499.96	24002.19
500.17	24569.48
500.37	24258.19
500.58	24399.50
500.78	24366.73
500.99	24379.02
501.19	24794.76
501.40	24616.58
501.60	24665.74
501.81	24469.13
502.02	25085.57
502.22	24845.96
502.43	25198.21
502.63	25015.94
502.84	25433.72
503.04	25181.82
503.25	25265.79
503.45	25351.81
503.66	25423.48
503.86	25190.02
504.07	25847.41
504.27	25523.83
504.48	25785.97
504.68	25773.69
504.89	26355.31
505.09	26402.41
505.30	26046.07
505.50	26105.46
505.71	26259.06
505.91	26623.59
506.12	26099.31
506.32	26371.69
506.53	26424.94
506.73	26637.93
506.94	26631.79
507.14	26476.14
507.35	26588.78
507.55	26975.84
507.76	26760.81
507.96	26971.75
508.17	26865.25
508.37	26830.44
508.58	26902.12
508.78	27096.67
508.99	27469.40
509.19	27125.35
509.40	27340.38
509.60	27287.14
509.81	27364.96
510.01	27315.81
510.22	27332.19
510.42	27731.54
510.63	27682.39
510.83	27811.42
511.04	27848.28
511.24	27788.89
511.44	27866.71
511.65	27936.34
511.85	27903.57
512.06	27977.30
512.26	28663.37
512.47	28034.64
512.67	28286.54
512.88	28210.77
513.08	27807.32
513.29	28585.55
513.49	28339.79
513.69	28507.72
513.90	28284.50
514.10	28526.16
514.31	28692.04
514.51	28665.42
514.72	28366.42
514.92	28880.46
515.13	28880.46
515.33	28993.09
515.53	28874.31
515.74	29152.84
515.94	29193.79
516.15	29201.99
516.35	28796.49
516.56	29068.87
516.76	29425.22
516.96	29294.14
517.17	29558.33
517.37	29640.25
517.58	29793.85
517.78	29879.86
517.99	30072.37
518.19	29767.23
518.39	30354.99
518.60	30154.29
518.80	29677.12
519.01	30240.31
519.21	30246.45
519.41	30234.16
519.62	30332.47
519.82	30510.64
520.03	30424.62
520.23	30428.72
520.43	30391.86
520.64	30633.52
520.84	30590.51
521.05	30844.46
521.25	31122.98
521.45	31110.69
521.66	30926.38
521.86	31274.53
522.07	30948.90
522.27	31235.62
522.47	31139.36
522.68	31290.91
522.88	31344.16
523.08	31860.25
523.29	31712.80
523.49	31626.78
523.70	31624.73
523.90	31802.91
524.10	31749.66
524.31	32251.41
524.51	31718.94
524.71	32409.11
524.92	32220.69
525.12	32501.26
525.33	32110.10
525.53	32613.90
525.73	32804.36
525.94	32519.70
526.14	32738.83
526.34	32648.72
526.55	32790.03
526.75	32828.94
526.95	33469.95
527.16	33129.99
527.36	33273.35
527.56	33222.15
527.77	33539.58
527.97	33359.36
528.17	33385.99
528.38	33840.64
528.58	33768.96
528.78	33893.88
528.99	33783.29
529.19	34485.75
529.39	33586.69
529.60	34262.52
529.80	34477.55
530.00	34135.54
530.21	34610.67
530.41	34452.98
530.61	34842.09
530.82	34375.16
531.02	34850.28
531.22	34604.53
531.43	35040.75
531.63	34756.08
531.83	35397.09
532.04	35294.69
532.24	35218.92
532.44	35845.60
532.64	35618.27
532.85	35810.78
533.05	35818.97
533.25	36144.60
533.46	35579.36
533.66	36079.07
533.86	35751.39
534.07	36343.25
534.27	36095.45
534.47	36924.88
534.67	36607.44
534.88	36238.81
535.08	36599.25
535.28	37021.13
535.49	36703.70
535.69	37295.56
535.89	37121.48
536.09	37477.83
536.30	37436.87
536.50	37252.55
536.70	37660.10
536.91	37479.88
537.11	37823.93
537.31	37715.39
537.51	37385.67
537.72	37920.19
537.92	38319.54
538.12	38524.34
538.32	38383.03
538.53	38694.32
538.73	38385.08
538.93	38176.19
539.13	38735.28
539.34	38524.34
539.54	38100.41
539.74	39241.13
539.94	38915.50
540.15	38669.75
540.35	39054.76
540.55	39261.61
540.75	38978.99
540.96	39206.31
541.16	39318.95
541.36	39361.96
541.56	39441.83
541.77	39812.51
541.97	39519.65
542.17	39691.68
542.37	39822.75
542.58	39886.24
542.78	39898.53
542.98	39972.25
543.18	40127.90
543.38	40318.36
543.59	40633.75
543.79	40232.35
543.99	40301.98
544.19	40791.44
544.40	40619.41
544.60	40805.78
544.80	40648.08
545.00	40969.61
545.20	41076.11
545.41	40807.83
545.61	40674.71
545.81	41008.53
546.01	40842.64
546.21	40852.88
546.42	41024.91
546.62	41225.61
546.82	41680.26
547.02	41158.03
547.22	41526.66
547.43	41373.06
547.63	41291.15
547.83	41811.33
548.03	41450.89
548.23	41964.93
548.44	41796.99
548.64	41958.78
548.84	42009.98
549.04	42298.75
549.24	41911.68
549.45	42511.74
549.65	42384.76
549.85	41915.78
550.05	42696.05
550.25	42155.39
550.45	43040.11
550.66	42556.79
550.86	42169.72
551.06	42954.10
551.26	42818.93
551.46	42853.75
551.66	42726.77
551.87	42556.79
552.07	42659.19
552.27	43128.17
552.47	42843.51
552.67	43369.83
552.87	43074.93
553.07	43115.89
553.28	43353.45
553.48	43431.27
553.68	43212.14
553.88	43584.87
554.08	43650.41
554.28	43717.99
554.48	43488.62
554.69	43582.82
554.89	43568.49
555.09	43560.30
555.29	43273.58
555.49	43900.26
555.69	43406.70
555.89	43924.83
556.10	43861.35
556.30	44012.90
556.50	44135.77
556.70	43902.31
556.90	44385.63
557.10	44311.90
557.30	43703.65
557.50	44164.45
557.70	44313.95
557.91	44703.06
558.11	44408.15
558.31	44713.30
558.51	44148.06
558.71	44447.07
558.91	44887.38
559.11	44318.04
559.31	44193.12
559.51	44283.23
559.72	44565.85
559.92	44770.64
560.12	44668.25
560.32	44758.36
560.52	44668.25
560.72	44987.73
560.92	44864.85
561.12	44868.95
561.32	45172.05
561.52	44447.07
561.72	45139.28
561.93	44991.83
562.13	44897.62
562.33	44623.19
562.53	45190.48
562.73	45268.30
562.93	45489.48
563.13	45403.47
563.33	45053.26
563.53	45671.75
563.73	45088.08
563.93	45405.52
564.13	45923.65
564.33	45704.52
564.53	45448.52
564.74	45960.51
564.94	45372.75
565.14	45688.13
565.34	45716.81
565.54	45667.66
565.74	45495.63
565.94	45843.78
566.14	45950.27
566.34	45710.66
566.54	46345.53
566.74	46132.54
566.94	46239.04
567.14	46132.54
567.34	45940.04
567.54	46396.73
567.74	46157.12
567.94	46001.47
568.14	46132.54
568.34	46601.53
568.54	46107.97
568.74	46259.52
568.94	46544.19
569.14	46626.10
569.34	47031.60
569.54	46744.89
569.75	46234.94
569.95	46583.10
570.15	47047.99
570.35	47154.48
570.55	46771.51
570.75	46634.30
570.95	47023.41
571.15	46718.26
571.35	46994.74
571.55	47433.00
571.75	46832.95
571.95	47291.69
572.15	47359.28
572.35	47330.61
572.55	47412.52
572.75	46822.71
572.95	47367.47
573.15	47469.87
573.35	47146.29
573.55	47480.11
573.75	47023.41
573.95	47437.10
574.15	47338.80
574.35	47609.13
574.55	47842.60
574.75	47928.61
574.95	47570.22
575.15	47461.68
575.34	47732.01
575.54	47887.65
575.74	47756.58
575.94	47830.31
576.14	48190.75
576.34	48276.77
576.54	48645.40
576.74	48256.29
576.94	47932.71
577.14	48821.53
577.34	48497.95
577.54	48233.76
577.74	48801.05
577.94	48518.43
578.14	48555.29
578.34	48762.14
578.54	48004.39
578.74	48565.53
578.94	48674.07
579.14	48287.01
579.34	48729.37
579.54	48876.82
579.74	48866.58
579.94	48895.25
580.13	48856.34
580.33	49349.90
580.53	49050.90
580.73	48940.31
580.93	48948.50
581.13	49591.56
581.33	49489.16
581.53	49612.04
581.73	49280.27
581.93	49909.00
582.13	49689.87
582.33	49460.49
582.53	49591.56
582.73	49554.70
582.92	49853.70
583.12	49978.63
583.32	49945.86
583.52	49646.86
583.72	50273.54
583.92	50132.23
584.12	49962.25
584.32	50679.03
584.52	50132.23
584.72	50793.72
584.92	50623.74
585.11	50619.64
585.31	50371.84
585.51	50451.71
585.71	50605.31
585.91	51033.33
586.11	50529.53
586.31	50507.01
586.51	50558.20
586.71	50771.19
586.91	51338.48
587.10	51326.19
587.30	51352.82
587.50	51305.71
587.70	51451.12
587.90	51299.57
588.10	50816.25
588.30	51361.01
588.50	51365.10
588.69	51262.71
588.89	51291.38
589.09	51602.67
589.29	51150.07
589.49	51623.15
589.69	51348.72
589.89	51942.63
590.08	51459.31
590.28	51645.68
590.48	51879.14
590.68	51559.66
590.88	51762.41
591.08	52133.09
591.28	51588.33
591.47	52225.25
591.67	51883.24
591.87	51952.87
592.07	52085.99
592.27	51983.59
592.47	52458.72
592.67	52169.96
592.86	51979.49
593.06	52180.20
593.26	52296.93
593.46	52597.98
593.66	52786.39
593.86	52663.52
594.05	52548.83
594.25	53075.16
594.45	52196.58
594.65	52921.56
594.85	52112.61
595.05	53105.88
595.24	52874.46
595.44	52843.74
595.64	52585.69
595.84	52729.05
596.04	52755.68
596.23	52993.24
596.43	52876.51
596.63	53079.25
596.83	53167.32
597.03	53265.62
597.22	53646.54
597.42	53376.21
597.62	53628.11
597.82	53656.78
598.02	53460.18
598.21	53822.67
598.41	53617.87
598.61	53654.73
598.81	53824.71
599.01	53810.38
599.20	53656.78
599.40	53646.54
599.60	53728.46
599.80	54056.14
600.00	54289.60
600.19	54441.15
600.39	53990.60
600.59	54367.43
600.79	54574.27
600.98	54654.14
601.18	54197.44
601.38	54830.27
601.58	54465.73
601.78	54600.89
601.97	54353.09
602.17	55131.32
602.37	54897.85
602.57	54371.52
602.76	54695.10
602.96	54428.87
603.16	55272.63
603.36	55055.54
603.55	55389.36
603.75	55053.50
603.95	54998.20
604.15	55069.88
604.34	55055.54
604.54	55536.82
604.74	55510.19
604.94	55850.16
605.13	55473.33
605.33	55753.90
605.53	55655.60
605.73	55737.52
605.92	55821.48
606.12	55534.77
606.32	55755.95
606.52	55684.27
606.71	55747.76
606.91	56317.09
607.11	55981.23
607.30	56106.15
607.50	56120.49
607.70	56120.49
607.90	55870.64
608.09	56304.80
608.29	56251.56
608.49	56425.64
608.68	56061.10
608.88	56153.26
609.08	56571.04
609.28	56675.49
609.47	55927.98
609.67	56564.90
609.87	56411.30
610.06	56693.92
610.26	56435.87
610.46	56499.36
610.66	56353.96
610.85	56562.85
611.05	56548.51
611.25	57175.19
611.44	56665.25
611.64	56802.46
611.84	56640.67
612.03	56818.84
612.23	56429.73
612.43	56534.18
612.62	56530.08
612.82	56972.44
613.02	56726.69
613.21	56777.89
613.41	56169.64
613.61	57169.05
613.80	56147.11
614.00	57109.66
614.20	56728.73
614.39	56583.33
614.59	56667.30
614.79	57015.45
614.98	56945.82
615.18	56562.85
615.38	56931.48
615.57	56650.91
615.77	57197.72
615.97	56978.59
616.16	57242.77
616.36	56745.12
616.56	57228.44
616.75	57152.66
616.95	56755.36
617.15	57042.07
617.34	56911.00
617.54	56743.07
617.74	57201.82
617.93	56775.84
618.13	56607.90
618.32	56968.35
618.52	56925.34
618.72	57439.38
618.91	56984.73
619.11	57154.71
619.31	57160.86
619.50	56790.17
619.70	56722.59
619.90	57027.74
620.09	56972.44
620.29	57492.63
620.48	57185.43
620.68	57779.34
620.88	57148.57
621.07	57099.42
621.27	57164.95
621.46	56638.62
621.66	56775.84
621.86	57085.08
622.05	56652.96
622.25	57160.86
622.44	57107.61
622.64	56546.47
622.84	56992.92
623.03	56954.01
623.23	57210.01
623.42	56970.39
623.62	57664.66
623.82	57126.04
624.01	56921.24
624.21	57357.46
624.40	57613.46
624.60	56714.40
624.80	56704.16
624.99	56984.73
625.19	56607.90
625.38	56904.86
625.58	57031.83
625.77	57130.14
625.97	57167.00
626.17	56792.22
626.36	56710.30
626.56	57003.16
626.75	56618.14
626.95	57205.91
627.14	56773.79
627.34	57312.41
627.54	57078.94
627.73	57164.95
627.93	57195.67
628.12	56900.76
628.32	57169.05
628.51	57154.71
628.71	56986.78
628.90	56597.66
629.10	57062.55
629.30	57334.93
629.49	57392.28
629.69	56951.96
629.88	57171.10
630.08	57156.76
630.27	57455.76
630.47	57220.25
630.66	57291.93
630.86	57449.62
631.05	56571.04
631.25	57140.38
631.44	56882.33
631.64	57423.00
631.84	57146.52
632.03	57128.09
632.23	57418.90
632.42	57957.52
632.62	57017.50
632.81	57539.73
633.01	57060.51
633.20	57259.16
633.40	57386.13
633.59	57339.03
633.79	57095.32
633.98	57324.69
634.18	57711.76
634.37	57459.86
634.57	56906.91
634.76	57504.91
634.96	57218.20
635.15	57509.01
635.35	57212.06
635.54	57037.98
635.74	57693.33
635.93	57392.28
636.13	57484.43
636.32	57584.79
636.52	56939.68
636.71	56906.91
636.91	57762.96
637.10	57484.43
637.30	57504.91
637.49	57406.61
637.69	57427.09
637.88	57572.50
638.08	57431.19
638.27	57988.24
638.46	57932.94
638.66	57912.46
638.85	57777.29
639.05	57707.66
639.24	57513.11
639.44	57709.71
639.63	57957.52
639.83	57824.40
640.02	57709.71
640.22	57439.38
640.41	57873.55
640.61	57453.72
640.80	57773.20
640.99	57435.28
641.19	57801.87
641.38	57742.48
641.58	58150.02
641.77	57521.30
641.97	57332.89
642.16	57615.50
642.36	57781.39
642.55	58045.58
642.74	57988.24
642.94	58438.79
643.13	57967.76
643.33	58414.21
643.52	57877.64
643.72	58258.57
643.91	57586.83
644.10	58311.81
644.30	58356.87
644.49	58299.53
644.69	58365.06
644.88	58334.34
645.08	57816.21
645.27	57744.53
645.46	57605.26
645.66	58430.60
645.85	57971.85
646.05	58184.84
646.24	58569.86
646.43	57998.48
646.63	58279.05
646.82	58502.28
647.02	58274.95
647.21	58205.32
647.40	58303.62
647.60	58530.95
647.79	58662.02
647.99	58479.75
648.18	57986.19
648.37	58758.27
648.57	58559.62
648.76	59010.17
648.96	58168.46
649.15	58733.70
649.34	58793.09
649.54	58563.71
649.73	58508.42
649.92	58635.39
650.12	58705.02
650.31	58543.23
650.51	58610.82
650.70	58645.63
650.89	58209.42
651.09	59083.90
651.28	58705.02
651.47	58823.81
651.67	58940.54
651.86	58889.34
652.06	58086.54
652.25	59141.24
652.44	58659.97
652.64	58647.68
652.83	58465.41
653.02	58340.49
653.22	59143.29
653.41	58971.26
653.60	58557.57
653.80	58696.83
653.99	59196.54
654.18	59077.75
654.38	58770.56
654.57	59012.22
654.76	58725.50
654.96	58795.13
655.15	58745.98
655.34	58688.64
655.54	58797.18
655.73	58975.36
655.92	58758.27
656.12	58727.55
656.31	58829.95
656.50	59106.43
656.70	59145.34
656.89	58768.51
657.08	59188.34
657.28	58856.57
657.47	58913.92
657.66	58954.88
657.86	58858.62
658.05	58727.55
658.24	59178.10
658.43	59085.95
658.63	59274.36
658.82	59155.58
659.01	59188.34
659.21	59522.16
659.40	59124.86
659.59	59004.03
659.79	59401.33
659.98	59169.91
660.17	59208.82
660.36	58864.77
660.56	59282.55
660.75	58922.11
660.94	59294.84
661.14	59178.10
661.33	58973.31
661.52	58950.78
661.71	59565.17
661.91	58891.39
662.10	59221.11
662.29	59196.54
662.49	59268.22
662.68	58614.91
662.87	59026.56
663.06	59313.27
663.26	59298.94
663.45	58905.73
663.64	58803.33
663.83	59495.54
664.03	59241.59
664.22	59219.06
664.41	59274.36
664.60	59030.65
664.80	59184.25
664.99	58834.05
665.18	59270.26
665.37	59004.03
665.57	59257.98
665.76	58920.06
665.95	59100.28
666.14	58991.74
666.34	59292.79
666.53	58643.59
666.72	59323.51
666.91	58983.55
667.11	59100.28
667.30	58889.34
667.49	59055.23
667.68	59382.90
667.87	59116.67
668.07	59415.67
668.26	58954.88
668.45	59032.70
668.64	59180.15
668.84	59503.73
669.03	59300.98
669.22	59006.08
669.41	59286.65
669.60	59405.43
669.80	59389.05
669.99	59182.20
670.18	58971.26
670.37	58832.00
670.57	59843.69
670.76	58555.52
670.95	59454.58
671.14	59309.18
671.33	58768.51
671.53	59356.28
671.72	59094.14
671.91	58842.24
672.10	59171.96
672.29	59026.56
672.48	59085.95
672.68	59372.66
672.87	59194.49
673.06	58946.68
673.25	58684.54
673.44	58897.53
673.64	59034.75
673.83	59085.95
674.02	59014.27
674.21	58745.98
674.40	59194.49
674.59	58487.94
674.79	58524.80
674.98	58502.28
675.17	59473.01
675.36	58666.11
675.55	59405.43
675.74	59036.80
675.94	58817.66
676.13	58901.63
676.32	58838.14
676.51	59274.36
676.70	59167.87
676.89	59053.18
677.08	59124.86
677.28	58721.41
677.47	59272.31
677.66	58985.60
677.85	58305.67
678.04	58606.72
678.23	59307.13
678.42	59405.43
678.62	59040.89
678.81	59004.03
679.00	58664.06
679.19	59507.83
679.38	58905.73
679.57	59032.70
679.76	59227.26
679.96	58875.01
680.15	58868.86
680.34	58647.68
680.53	58915.96
680.72	58979.45
680.91	59366.52
681.10	58578.05
681.29	59229.30
681.48	58549.38
681.68	59307.13
681.87	58356.87
682.06	58922.11
682.25	58571.91
682.44	58438.79
682.63	58897.53
682.82	58422.40
683.01	58645.63
683.20	58139.78
683.39	58836.09
683.59	58080.39
683.78	58145.93
683.97	58725.50
684.16	58473.60
684.35	58274.95
684.54	58293.38
684.73	58143.88
684.92	58283.14
685.11	58045.58
685.30	57908.36
685.49	58252.42
685.69	57920.65
685.88	58397.83
686.07	58092.68
686.26	57904.27
686.45	58215.56
686.64	58315.91
686.83	58291.33
687.02	58184.84
687.21	58502.28
687.40	58287.24
687.59	58389.64
687.78	58041.48
687.97	58233.99
688.16	57988.24
688.35	57603.22
688.54	57357.46
688.74	58039.43
688.93	57818.25
689.12	57767.05
689.31	58182.79
689.50	58373.25
689.69	57668.75
689.88	57664.66
690.07	57580.69
690.26	57871.50
690.45	57990.28
690.64	57615.50
690.83	57752.72
691.02	57635.98
691.21	57459.86
691.40	57758.86
691.59	57722.00
691.78	57635.98
691.97	57762.96
692.16	57613.46
692.35	57939.08
692.54	58137.74
692.73	57547.92
692.92	57468.05
693.11	57797.77
693.30	57126.04
693.49	57574.55
693.68	57300.12
693.87	57597.07
694.06	56833.18
694.25	57398.42
694.44	56949.92
694.63	57298.07
694.82	57269.40
695.01	57017.50
695.20	56894.62
695.39	57097.37
695.58	57023.64
695.77	56741.02
695.96	56583.33
696.15	57111.70
696.34	57013.40
696.53	57189.53
696.72	56982.68
696.91	57001.11
697.10	56902.81
697.29	56487.07
697.48	56693.92
697.67	56409.25
697.86	56616.10
698.05	56571.04
698.24	56954.01
698.43	56669.34
698.62	56732.83
698.81	56335.52
699.00	56667.30
699.19	55975.08
699.38	56812.70
699.57	56005.80
699.76	56882.33
699.95	56345.76
700.14	56773.79
700.32	56425.64
700.51	56177.83
700.70	56509.60
700.89	56546.47
701.08	56689.82
701.27	56292.52
701.46	56743.07
701.65	55588.02
701.84	56239.27
702.03	56695.97
702.22	55919.79
702.41	56335.52
702.60	56308.90
702.79	56210.60
702.98	55917.74
703.17	56067.24
703.35	56173.73
703.54	56083.62
703.73	55880.88
703.92	55968.94
704.11	55506.10
704.30	55817.39
704.49	55893.16
704.68	55239.86
704.87	55856.30
705.06	55649.45
705.25	55495.86
705.43	55375.03
705.62	55948.46
705.81	55803.05
706.00	55829.68
706.19	55352.50
706.38	55106.74
706.57	55485.62
706.76	55569.58
706.95	55585.97
707.14	55106.74
707.32	54883.51
707.51	54817.98
707.70	55194.81
707.89	55211.19
708.08	55360.69
708.27	55301.30
708.46	55567.54
708.65	54807.74
708.84	55176.37
709.02	55100.60
709.21	55182.52
709.40	55180.47
709.59	54746.30
709.78	54615.23
709.97	55108.79
710.16	54701.25
710.34	54574.27
710.53	54760.64
710.72	54473.92
710.91	54885.56
711.10	54815.93
711.29	54795.45
711.48	54695.10
711.66	54215.88
711.85	54809.79
712.04	54121.67
712.23	54527.17
712.42	54445.25
712.61	54430.91
712.80	54465.73
712.98	54494.40
713.17	54326.47
713.36	53974.22
713.55	54449.35
713.74	54129.86
713.93	54377.67
714.11	54246.60
714.30	54191.30
714.49	54060.23
714.68	54240.45
714.87	54131.91
715.06	54127.81
715.24	53791.95
715.43	54119.62
715.62	53179.60
715.81	53888.20
716.00	54041.80
716.18	53595.34
716.37	53499.09
716.56	53198.04
716.75	53810.38
716.94	53501.14
717.12	53636.30
717.31	53755.08
717.50	53566.67
717.69	53470.42
717.88	53081.30
718.06	53275.86
718.25	53642.45
718.44	53091.54
718.63	53187.80
718.82	52645.08
719.00	52917.46
719.19	53001.43
719.38	52892.89
719.57	52585.69
719.76	52597.98
719.94	52440.29
720.13	52432.10
720.32	52620.51
720.51	52708.57
720.69	52632.80
720.88	52131.04
721.07	52454.62
721.26	51836.14
721.44	51774.70
721.63	52004.07
721.82	52045.03
722.01	51887.34
722.20	52434.14
722.38	52122.85
722.57	51688.68
722.76	51995.88
722.95	51797.23
723.13	51295.47
723.32	51766.51
723.51	51537.13
723.70	51565.81
723.88	51627.24
724.07	51367.15
724.26	51365.10
724.44	50957.56
724.63	51533.04
724.82	51471.60
725.01	51557.61
725.19	51557.61
725.38	51021.05
725.57	50937.08
725.76	51143.92
725.94	50984.18
726.13	50648.32
726.32	51027.19
726.51	50892.02
726.69	51293.43
726.88	50816.25
727.07	50949.37
727.25	50771.19
727.44	51000.57
727.63	51049.72
727.82	51016.95
728.00	50689.27
728.19	50578.68
728.38	51404.02
728.56	50640.12
728.75	50765.05
728.94	50476.29
729.12	50930.93
729.31	50670.84
729.50	50859.26
729.69	50943.22
729.87	50701.56
730.06	50869.50
730.25	50748.67
730.43	50982.13
730.62	50320.64
730.81	50846.97
730.99	50844.92
731.18	50478.33
731.37	50820.34
731.55	50982.13
731.74	50996.47
731.93	50355.46
732.11	50689.27
732.30	50904.31
732.49	50597.12
732.67	50480.38
732.86	50836.73
733.05	50480.38
733.23	49972.49
733.42	50521.34
733.61	50154.75
733.79	50435.33
733.98	50697.47
734.17	50347.26
734.35	50742.52
734.54	50226.43
734.73	50451.71
734.91	50394.37
735.10	50306.30
735.29	50400.51
735.47	50222.34
735.66	50439.42
735.84	50236.67
736.03	50132.23
736.22	50312.45
736.40	49560.84
736.59	50300.16
736.78	50072.84
736.96	49822.98
737.15	50545.92
737.33	50181.38
737.52	50152.71
737.71	49923.33
737.89	49925.38
738.08	49741.06
738.27	49980.68
738.45	50392.32
738.64	49921.29
738.82	49696.01
739.01	49800.46
739.20	49741.06
739.38	49816.84
739.57	50050.31
739.75	49839.37
739.94	49808.65
740.13	49409.29
740.31	49315.09
740.50	49562.89
740.68	49612.04
740.87	49646.86
741.06	49644.81
741.24	49528.08
741.43	49046.80
741.61	49388.81
741.80	49212.69
741.99	49296.66
742.17	49147.15
742.36	49153.30
742.54	48780.57
742.73	49456.40
742.91	49321.23
743.10	49046.80
743.29	49298.70
743.47	48801.05
743.66	49130.77
743.84	49429.77
744.03	48788.76
744.21	48995.60
744.40	49300.75
744.59	48522.52
744.77	48852.25
744.96	48629.02
745.14	48925.97
745.33	48645.40
745.51	48776.47
745.70	48688.41
745.88	48375.07
746.07	48684.31
746.26	48233.76
746.44	48561.44
746.63	48309.53
746.81	48207.14
747.00	47965.48
747.18	48774.42
747.37	48215.33
747.55	48135.46
747.74	48923.93
747.92	47928.61
748.11	47969.57
748.29	48442.65
748.48	48289.06
748.66	48209.18
748.85	48043.30
749.03	48129.31
749.22	47838.50
749.41	47977.76
749.59	47897.89
749.78	47988.00
749.96	47549.74
750.15	47940.90
750.33	48104.74
750.52	47797.54
750.70	48010.53
750.89	47770.92
751.07	47529.26
751.26	47836.45
751.44	47234.35
751.63	47680.81
751.81	47486.25
752.00	47562.03
752.18	47877.41
752.37	47766.82
752.55	47445.29
752.74	47248.69
752.92	47453.48
753.10	47146.29
753.29	47543.59
753.47	47191.34
753.66	47168.82
753.84	47555.88
754.03	47211.82
754.21	46998.83
754.40	47164.72
754.58	47420.72
754.77	47344.94
754.95	46658.87
755.14	46888.24
755.32	47346.99
755.51	47009.07
755.69	46478.65
755.88	46988.60
756.06	46847.29
756.24	46495.03
756.43	46847.29
756.61	46380.35
756.80	46480.70
756.98	46632.25
757.17	46722.36
757.35	46374.20
757.54	46318.91
757.72	46144.83
757.90	46433.60
758.09	46339.39
758.27	46214.46
758.46	45892.93
758.64	46482.75
758.83	46230.85
759.01	46259.52
759.19	45921.60
759.38	46069.06
759.56	46245.18
759.75	46118.21
759.93	46017.86
760.12	45784.39
760.30	45772.10
760.48	45600.07
760.67	45540.68
760.85	46093.63
761.04	45966.66
761.22	46079.30
761.40	45688.13
761.59	45999.43
761.77	45708.61
761.96	45765.96
762.14	45133.14
762.32	45143.38
762.51	45458.76
762.69	45458.76
762.88	45516.11
763.06	45610.31
763.24	45534.54
763.43	45354.32
763.61	45032.78
763.80	44762.45
763.98	44883.28
764.16	44774.74
764.35	44746.07
764.53	44498.26
764.72	44637.53
764.90	44733.78
765.08	44635.48
765.27	44766.55
765.45	44346.72
765.63	44180.83
765.82	44729.69
766.00	44610.90
766.18	44025.18
766.37	44410.20
766.55	44729.69
766.74	44121.44
766.92	44283.23
767.10	44088.67
767.29	44373.34
767.47	44184.93
767.65	44469.59
767.84	43939.17
768.02	44266.84
768.20	43795.81
768.39	44449.11
768.57	43875.68
768.75	43793.76
768.94	43732.32
769.12	43904.35
769.30	43541.86
769.49	43556.20
769.67	43687.27
769.85	42933.62
770.04	43529.58
770.22	43715.94
770.40	43105.65
770.59	43203.95
770.77	43556.20
770.95	42906.99
771.14	42915.19
771.32	42937.71
771.50	43033.97
771.69	43171.18
771.87	43453.80
772.05	42980.72
772.24	42825.07
772.42	42835.31
772.60	42548.60
772.78	42884.47
772.97	42767.73
773.15	43115.89
773.33	42771.83
773.52	42857.84
773.70	42673.52
773.88	42673.52
774.07	42714.48
774.25	42388.86
774.43	42753.40
774.61	43095.41
774.80	42986.86
774.98	42634.61
775.16	42839.41
775.34	42726.77
775.53	42481.02
775.71	43132.27
775.89	42521.98
776.08	42636.66
776.26	43052.40
776.44	42605.94
776.62	42415.48
776.81	42554.74
776.99	42859.89
777.17	43058.54
777.35	42417.53
777.54	43451.75
777.72	42825.07
777.90	42675.57
778.08	43253.10
778.27	43224.43
778.45	43095.41
778.63	43328.87
778.81	42409.34
779.00	43769.19
779.18	43146.61
779.36	43502.95
779.54	43093.36
779.73	43105.65
779.91	43156.85
780.09	43640.17
780.27	43711.84
780.46	43482.47
780.64	43801.96
780.82	42997.10
781.00	43076.97
781.19	43455.85
781.37	43478.38
781.55	43234.67
781.73	43494.76
781.91	43418.99
782.10	43619.69
782.28	43634.02
782.46	43521.38
782.64	43433.32
782.82	43527.53
783.01	43898.21
783.19	43717.99
783.37	43752.80
783.55	43408.75
783.74	43670.89
783.92	43206.00
784.10	43771.24
784.28	43769.19
784.46	43238.76
784.64	43318.64
784.83	43273.58
785.01	43928.93
785.19	43378.03
785.37	43965.79
785.55	43599.21
785.74	43214.19
785.92	43478.38
786.10	43451.75
786.28	43621.73
786.46	43201.90
786.64	43044.21
786.83	43296.11
787.01	43398.51
787.19	43357.55
787.37	43304.30
787.55	43238.76
787.74	42700.15
787.92	43353.45
788.10	42993.01
788.28	42753.40
788.46	43072.88
788.64	43085.17
788.82	42978.67
789.01	42782.07
789.19	42734.96
789.37	42634.61
789.55	42732.92
789.73	42366.33
789.91	42472.82
790.09	42196.35
790.28	42331.51
790.46	42284.41
790.64	42863.99
790.82	42245.50
791.00	42120.57
791.18	41727.36
791.36	42167.68
791.55	41850.24
791.73	41610.63
791.91	41620.87
792.09	41772.42
792.27	41776.51
792.45	41477.51
792.63	41536.90
792.81	42126.72
793.00	41524.61
793.18	41469.32
793.36	41207.18
793.54	41397.64
793.72	41047.44
793.90	40973.71
794.08	40578.45
794.26	40832.40
794.44	40498.58
794.62	40373.66
794.81	40310.17
794.99	40197.53
795.17	40267.16
795.35	40408.47
795.53	40510.87
795.71	40320.41
795.89	40400.28
796.07	39720.35
796.25	39751.07
796.43	39810.46
796.61	39443.88
796.80	39472.55
796.98	39898.53
797.16	39321.00
797.34	39372.20
797.52	39222.70
797.70	39658.91
797.88	39376.30
798.06	38774.19
798.24	39101.87
798.42	38876.59
798.60	38942.13
798.78	38458.81
798.96	38766.00
799.14	38528.44
799.32	38516.15
799.51	38747.57
799.69	38618.55
799.87	38555.06
800.05	38567.35
800.23	38116.79
800.41	37979.58
800.59	37901.76
800.77	37973.44
800.95	37483.97
801.13	37834.17
801.31	37572.03
801.49	37780.93
801.67	37258.70
801.85	37522.88
802.03	37342.66
802.21	37096.91
802.39	37219.78
802.57	37146.06
802.75	36875.73
802.93	37084.62
803.11	36920.78
803.29	36339.16
803.47	36546.00
803.65	36683.22
803.83	36509.14
804.01	36478.42
804.19	36357.59
804.37	36117.98
804.55	36304.34
804.73	36132.31
804.91	36160.98
805.09	36183.51
805.27	36031.96
805.45	36279.77
805.63	36079.07
805.81	35952.09
805.99	35964.38
806.17	35773.92
806.35	35571.17
806.53	35263.97
806.71	35276.26
806.89	35442.15
807.07	35177.96
807.25	35313.13
807.43	35153.38
807.61	35302.89
807.79	35247.59
807.97	34960.87
808.15	34747.89
808.33	34881.00
808.51	34643.44
808.69	34170.36
808.87	34412.02
809.05	34389.49
809.23	34313.72
809.41	34110.97
809.59	34291.19
809.77	34930.16
809.95	34137.59
810.13	34342.39
810.31	34104.82
810.49	33977.85
810.67	33764.86
810.84	33922.55
811.02	33945.08
811.20	33576.45
811.38	33543.68
811.56	33560.06
811.74	33515.01
811.92	33467.91
812.10	33533.44
812.28	33369.60
812.46	33252.87
812.64	33512.96
812.82	33142.28
813.00	33459.71
813.18	33099.27
813.36	33070.60
813.53	32462.35
813.71	32947.72
813.89	32673.29
814.07	32634.38
814.25	32962.06
814.43	32697.87
814.61	32386.58
814.79	32349.71
814.97	32306.71
815.15	32542.22
815.33	31989.27
815.50	32126.49
815.68	32202.26
815.86	32060.95
816.04	32181.78
816.22	32198.16
816.40	32005.66
816.58	31954.46
816.76	31927.83
816.94	31690.27
817.11	31829.53
817.29	31938.07
817.47	31819.29
817.65	31677.98
817.83	31667.74
818.01	31421.98
818.19	31436.32
818.37	31376.93
818.54	31022.63
818.72	31024.68
818.90	31200.80
819.08	31204.90
819.26	31129.12
819.44	30895.66
819.62	31305.25
819.80	31335.97
819.97	30746.15
820.15	30719.53
820.33	30750.25
820.51	31049.25
820.69	30625.32
820.87	30895.66
821.05	30930.47
821.22	30578.22
821.40	30740.01
821.58	30436.91
821.76	30277.17
821.94	30191.16
822.12	30283.31
822.29	30795.31
822.47	29929.02
822.65	30340.66
822.83	30344.75
823.01	30002.74
823.19	29959.73
823.36	29509.18
823.54	29675.07
823.72	29843.00
823.90	30004.79
824.08	29552.19
824.25	29720.12
824.43	29517.37
824.61	29756.99
824.79	29443.65
824.97	29445.69
825.15	29720.12
825.32	29474.37
825.50	29300.29
825.68	29247.04
825.86	29386.30
826.04	29484.61
826.21	29269.57
826.39	29269.57
826.57	28966.47
826.75	28989.00
826.93	29337.15
827.10	28835.40
827.28	28917.32
827.46	29079.11
827.64	29576.76
827.81	29044.29
827.99	28892.74
828.17	28554.83
828.35	28517.96
828.53	28698.19
828.70	28943.94
828.88	28700.23
829.06	28851.78
829.24	28671.56
829.41	28653.13
829.59	28763.72
829.77	28474.96
829.95	28427.85
830.12	28292.69
830.30	28186.19
830.48	28169.81
830.66	28200.53
830.84	28405.33
831.01	28286.54
831.19	28171.86
831.37	27762.26
831.55	28233.30
831.72	27860.57
831.90	27899.48
832.08	27997.78
832.25	27917.91
832.43	27983.44
832.61	27709.02
832.79	28016.21
832.96	27805.27
833.14	27506.27
833.32	27762.26
833.50	28165.71
833.67	27881.05
833.85	27428.45
834.03	27145.83
834.20	27465.31
834.38	27559.52
834.56	27485.79
834.74	27362.91
834.91	27479.64
835.09	27528.80
835.27	27178.59
835.44	27221.60
835.62	26871.40
835.80	27084.39
835.98	27227.74
836.15	27149.92
836.33	27070.05
836.51	27182.69
836.68	26586.73
836.86	26797.67
837.04	26840.68
837.21	26910.31
837.39	26990.18
837.57	26842.73
837.75	26969.70
837.92	26660.46
838.10	26861.16
838.28	26338.93
838.45	26664.55
838.63	26713.70
838.81	26670.70
838.98	26433.13
839.16	26455.66
839.34	26304.11
839.51	26117.75
839.69	26054.26
839.87	26277.49
840.04	26437.23
840.22	26691.18
840.40	26633.83
840.57	25915.00
840.75	26001.01
840.93	25816.69
841.10	25943.67
841.28	26037.87
841.46	25917.04
841.63	26265.20
841.81	25935.48
841.98	25964.15
842.16	25970.29
842.34	25949.81
842.51	25603.71
842.69	25915.00
842.87	25777.78
843.04	25775.73
843.22	25736.82
843.40	25814.65
843.57	25945.72
843.75	25949.81
843.92	25679.48
844.10	25349.76
844.28	26017.40
844.45	25802.36
844.63	25388.67
844.81	25374.33
844.98	25130.62
845.16	25259.65
845.33	25243.26
845.51	25314.94
845.69	25095.81
845.86	25140.86
846.04	25038.47
846.21	25132.67
846.39	25233.02
846.57	25040.51
846.74	24874.63
846.92	25028.23
847.09	24690.31
847.27	24694.41
847.45	24901.25
847.62	24807.05
847.80	24856.20
847.97	24882.82
848.15	25024.13
848.32	24692.36
848.50	24534.67
848.68	24645.26
848.85	24716.93
849.03	24182.42
849.20	24686.22
849.38	24540.81
849.56	24800.90
849.73	24469.13
849.91	24362.64
850.08	24477.32
850.26	24063.63
850.43	24338.06
850.61	24200.85
850.78	23860.88
850.96	24051.34
851.14	23948.95
851.31	24280.72
851.49	24075.92
851.66	23924.37
851.84	24241.81
852.01	24141.46
852.19	24229.52
852.36	23922.32
852.54	23776.92
852.71	23914.13
852.89	24090.26
853.07	23934.61
853.24	23686.81
853.42	23893.65
853.59	23432.86
853.77	23879.32
853.94	23969.43
854.12	23918.23
854.29	23559.83
854.47	23529.11
854.64	23506.59
854.82	23645.85
854.99	23592.60
855.17	23553.69
855.34	23537.30
855.52	23600.79
855.69	23482.01
855.87	23457.43
856.04	23164.57
856.22	23533.21
856.39	23445.15
856.57	23426.71
856.74	23303.84
856.92	23207.58
857.09	22941.35
857.27	23252.64
857.44	23381.66
857.62	23045.79
857.79	23332.51
857.97	23088.80
858.14	23154.33
858.32	23080.61
858.49	22957.73
858.67	23178.91
858.84	22634.15
859.02	22410.92
859.19	22797.99
859.37	22539.94
859.54	22480.55
859.72	22814.37
859.89	22492.84
860.06	22619.81
860.24	22656.68
860.41	22724.26
860.59	22392.49
860.76	22675.11
860.94	22429.35
861.11	22656.68
861.29	22394.54
861.46	22474.41
861.64	22126.25
861.81	22140.59
861.98	22253.23
862.16	21892.79
862.33	22128.30
862.51	21999.28
862.68	22531.75
862.86	22165.17
863.03	22032.05
863.21	22003.38
863.38	21986.99
863.55	22105.77
863.73	21839.54
863.90	22171.31
864.08	22052.53
864.25	21862.07
864.43	21907.12
864.60	21841.59
864.77	21808.82
864.95	21579.45
865.12	21872.31
865.30	21853.87
865.47	21376.70
865.64	21731.00
865.82	21644.98
865.99	21700.28
866.17	21542.58
866.34	22169.26
866.51	21329.59
866.69	21442.23
866.86	21212.86
867.04	21616.31
867.21	21274.30
867.38	21411.51
867.56	21120.70
867.73	21237.44
867.91	20938.43
868.08	21055.17
868.25	20973.25
868.43	21302.97
868.60	21259.96
868.78	20788.93
868.95	21159.61
869.12	20842.18
869.30	20836.03
869.47	20860.61
869.64	20678.34
869.82	20661.96
869.99	20645.57
870.16	20827.84
870.34	20553.41
870.51	20842.18
870.69	20412.10
870.86	20670.15
871.03	20606.66
871.21	20602.57
871.38	20416.20
871.55	20444.87
871.73	20487.88
871.90	20223.69
872.07	20338.38
872.25	20278.99
872.42	20127.44
872.59	20182.73
872.77	20164.30
872.94	20260.55
873.11	20160.20
873.29	20031.18
873.46	19783.38
873.63	20242.12
873.81	19603.16
873.98	19744.47
874.15	19793.62
874.33	19781.33
874.50	19764.95
874.67	19941.07
874.85	19402.46
875.02	19443.42
875.19	19304.15
875.37	19500.76
875.54	19511.00
875.71	19363.54
875.88	19273.43
876.06	19447.51
876.23	19341.02
876.40	19449.56
876.58	19033.82
876.75	19457.75
876.92	19089.12
877.10	19373.78
877.27	18876.13
877.44	19015.39
877.61	18841.31
877.79	18783.97
877.96	19019.49
878.13	19003.10
878.31	18716.39
878.48	18960.09
878.65	18779.87
878.82	19050.21
879.00	18857.70
879.17	18661.09
879.34	18849.50
879.51	18491.11
879.69	18503.40
879.86	18345.70
880.03	18599.65
880.21	18306.79
880.38	18390.76
880.55	18370.28
880.72	18437.86
880.90	18530.02
881.07	18521.83
881.24	18259.69
881.41	18319.08
881.59	18200.30
881.76	18161.39
881.93	17923.82
882.10	18241.26
882.28	17925.87
882.45	18366.18
882.62	18034.41
882.79	18353.90
882.96	18024.17
883.14	18185.96
883.31	18173.67
883.48	17972.97
883.65	17889.01
883.83	18077.42
884.00	17796.85
884.17	18038.51
884.34	18058.99
884.51	17733.36
884.69	17991.41
884.86	17866.48
885.03	17592.05
885.20	17409.78
885.38	18069.23
885.55	17678.07
885.72	17903.34
885.89	17532.66
886.06	17700.59
886.24	17612.53
886.41	17606.39
886.58	17807.09
886.75	17585.91
886.92	17346.30
887.10	17428.21
887.27	17424.12
887.44	17428.21
887.61	17544.95
887.78	17450.74
887.95	17508.08
888.13	17147.64
888.30	17393.40
888.47	17092.35
888.64	17280.76
888.81	16957.18
888.99	17073.92
889.16	17063.68
889.33	16871.17
889.50	16860.93
889.67	16871.17
889.84	16785.15
890.01	17184.51
890.19	17049.34
890.36	16934.65
890.53	16830.21
890.70	16699.14
890.87	16824.06
891.04	16563.97
891.22	16871.17
891.39	16742.14
891.56	16733.95
891.73	16629.51
891.90	16379.65
892.07	16371.46
892.24	16686.85
892.42	16316.17
892.59	16658.18
892.76	16400.13
892.93	16563.97
893.10	16684.80
893.27	16516.87
893.44	16332.55
893.61	16467.72
893.79	16414.47
893.96	16357.13
894.13	16410.37
894.30	16492.29
894.47	16244.49
894.64	16377.61
894.81	16238.34
894.98	16404.23
895.15	16281.35
895.33	16197.38
895.50	16187.14
895.67	16187.14
895.84	16312.07
896.01	15994.64
896.18	16017.16
896.35	16267.02
896.52	16344.84
896.69	16066.31
896.86	16320.26
897.04	16217.86
897.21	16275.21
897.38	16101.13
897.55	16107.27
897.72	16256.78
897.89	15941.39
898.06	16285.45
898.23	16207.62
898.40	16154.38
898.57	16383.75
898.74	16207.62
898.91	16115.47
899.08	16174.86
899.26	16338.69
899.43	16166.67
899.60	16080.65
899.77	16170.76
899.94	15925.00
900.11	15824.65
900.28	16011.02
900.45	15978.25
900.62	15855.37
900.79	15978.25
900.96	15994.64
901.13	15998.73
901.30	15908.62
901.47	15890.19
901.64	16125.71
901.81	15974.16
901.98	15617.81
902.15	15994.64
902.32	15716.11
902.49	15869.71
902.66	16004.88
902.83	15888.14
903.01	15761.17
903.18	15978.25
903.35	15943.44
903.52	15894.29
903.69	16070.41
903.86	16017.16
904.03	15900.43
904.20	16019.21
904.37	16246.54
904.54	15935.24
904.71	15968.01
904.88	15963.92
905.05	15951.63
905.22	15767.31
905.39	15947.53
905.56	15912.72
905.73	15736.59
905.90	15869.71
906.07	15851.28
906.24	15724.30
906.41	15841.04
906.58	15806.22
906.75	15748.88
906.92	15705.87
907.09	15783.70
907.26	15894.29
907.43	15642.39
907.60	15550.23
907.77	16224.01
907.93	15904.53
908.10	15900.43
908.27	15945.48
908.44	15566.61
908.61	15564.56
908.78	15386.39
908.95	15666.96
909.12	15685.39
909.29	15691.54
909.46	15685.39
909.63	15677.20
909.80	15916.81
909.97	15640.34
910.14	15726.35
910.31	15429.40
910.48	15740.69
910.65	15640.34
910.82	15533.84
910.99	15537.94
911.16	15372.05
911.33	15550.23
911.50	15427.35
911.66	15357.72
911.83	15544.08
912.00	15439.64
912.17	15167.26
912.34	15206.17
912.51	15394.58
912.68	15283.99
912.85	15283.99
913.02	15302.42
913.19	15134.49
913.36	15126.30
913.53	15177.50
913.70	15136.54
913.86	15462.16
914.03	15177.50
914.20	14982.94
914.37	15222.55
914.54	15210.26
914.71	14980.89
914.88	14997.28
915.05	14886.68
915.22	14978.84
915.39	14966.56
915.55	14849.82
915.72	14507.81
915.89	14546.72
916.06	14634.78
916.23	14685.98
916.40	14704.42
916.57	14538.53
916.74	14593.83
916.91	14659.36
917.07	14405.41
917.24	14489.38
917.41	14743.33
917.58	14300.97
917.75	14526.24
917.92	14153.51
918.09	14389.03
918.26	14356.26
918.42	14317.35
918.59	14427.94
918.76	14071.59
918.93	14098.22
919.10	14243.62
919.27	14092.07
919.44	13975.34
919.60	14008.11
919.77	13928.24
919.94	13965.10
920.11	13864.75
920.28	13881.13
920.45	13758.25
920.61	13596.46
920.78	13754.16
920.95	13702.96
921.12	13385.52
921.29	13481.78
921.46	13231.93
921.62	13332.28
921.79	13393.72
921.96	13514.55
922.13	13383.48
922.30	13301.56
922.47	13076.28
922.63	13080.38
922.80	12912.44
922.97	13086.52
923.14	12861.24
923.31	13063.99
923.47	13020.99
923.64	12980.03
923.81	12816.19
923.98	12787.52
924.15	12658.49
924.32	12711.74
924.48	12826.43
924.65	12629.82
924.82	12717.89
924.99	12638.02
925.15	12269.38
925.32	12590.91
925.49	12121.93
925.66	12148.55
925.83	12316.48
925.99	12169.03
926.16	12160.84
926.33	12156.74
926.50	12068.68
926.67	12263.24
926.83	11935.56
927.00	11931.47
927.17	11894.60
927.34	11863.88
927.50	11833.16
927.67	12115.78
927.84	11904.84
928.01	11644.75
928.17	11585.36
928.34	11700.05
928.51	11618.13
928.68	11587.41
928.84	11579.22
929.01	11284.31
929.18	11259.73
929.35	11243.35
929.51	11290.45
929.68	11052.89
929.85	11331.41
930.02	11065.18
930.18	11245.40
930.35	11153.24
930.52	11018.07
930.69	10948.44
930.85	10944.34
931.02	10733.40
931.19	10635.10
931.36	10596.19
931.52	10708.83
931.69	10534.75
931.86	10514.27
932.02	10522.46
932.19	10501.98
932.36	10284.90
932.53	10606.43
932.69	10389.35
932.86	10483.55
933.03	10370.91
933.19	10116.97
933.36	10217.32
933.53	10202.98
933.70	10051.43
933.86	10100.58
934.03	9955.18
934.20	9944.94
934.36	10102.63
934.53	9613.17
934.70	9627.50
934.86	9588.59
935.03	9514.86
935.20	9459.57
935.36	9441.14
935.53	9414.51
935.70	9326.45
935.86	9338.74
936.03	9316.21
936.20	9219.96
936.36	9068.41
936.53	8951.67
936.70	8855.42
936.86	9047.93
937.03	8605.56
937.20	8556.41
937.36	8757.11
937.53	8359.81
937.70	8245.12
937.86	8181.64
938.03	8177.54
938.20	8284.03
938.36	7905.16
938.53	8073.09
938.70	7741.32
938.86	7821.19
939.03	7632.78
939.20	7565.20
939.36	7563.15
939.53	7249.81
939.70	7548.81
939.86	7163.79
940.03	7118.74
940.19	6989.72
940.36	7090.07
940.53	7036.82
940.69	6864.79
940.86	6928.28
941.03	6659.99
941.19	6639.51
941.36	6662.04
941.52	6774.68
941.69	6410.14
941.86	6561.69
942.02	6561.69
942.19	6367.13
942.35	6311.84
942.52	6330.27
942.69	6332.32
942.85	6127.52
943.02	6170.53
943.18	6115.23
943.35	6025.12
943.52	5941.16
943.68	5869.48
943.85	5920.68
944.01	5855.14
944.18	5816.23
944.35	5988.26
944.51	5730.22
944.68	5719.98
944.84	5799.85
945.01	5722.02
945.17	5621.67
945.34	5683.11
945.51	5746.60
945.67	5719.98
945.84	5574.57
946.00	5359.53
946.17	5574.57
946.33	5531.56
946.50	5527.47
946.67	5527.47
946.83	5377.97
947.00	5562.28
947.16	5453.74
947.33	5562.28
947.49	5437.36
947.66	5492.65
947.82	5498.80
947.99	5459.88
948.16	5423.02
948.32	5617.58
948.49	5586.86
948.65	5414.83
948.82	5574.57
948.98	5412.78
949.15	5394.35
949.31	5574.57
949.48	5488.56
949.64	5476.27
949.81	5341.10
949.97	5502.89
950.14	5595.05
950.30	5527.47
950.47	5539.76
950.63	5521.32
950.80	5451.69
950.96	5607.34
951.13	5570.48
951.30	5404.59
951.46	5621.67
951.63	5672.87
951.79	5588.91
951.96	5560.24
952.12	5560.24
952.29	5574.57
952.45	5427.12
952.62	5623.72
952.78	5595.05
952.94	5574.57
953.11	5482.41
953.27	5519.28
953.44	5758.89
953.60	5619.63
953.77	5797.80
953.93	5607.34
954.10	5654.44
954.26	5726.12
954.43	5662.63
954.59	5638.06
954.76	5580.71
954.92	5435.31
955.09	5898.15
955.25	5468.08
955.42	5554.09
955.58	5754.79
955.75	5558.19
955.91	5580.71
956.07	5732.26
956.24	5685.16
956.40	5550.00
956.57	5828.52
956.73	5621.67
956.90	5728.17
957.06	5730.22
957.23	5717.93
957.39	5627.82
957.56	5599.15
957.72	5554.09
957.88	5738.41
958.05	5754.79
958.21	5713.83
958.38	5693.35
958.54	5578.67
958.71	5830.57
958.87	5463.98
959.03	5658.54
959.20	5822.38
959.36	5636.01
959.53	5619.63
959.69	5496.75
959.85	5662.63
960.02	5722.02
960.18	5748.65
960.35	5719.98
960.51	5691.31
960.68	5709.74
960.84	5730.22
961.00	5601.19
961.17	5715.88
961.33	5683.11
961.50	5756.84
961.66	5636.01
961.82	5621.67
961.99	5642.15
962.15	5564.33
962.31	5658.54
962.48	5724.07
962.64	5607.34
962.81	5623.72
962.97	5545.90
963.13	5685.16
963.30	5654.44
963.46	5529.52
963.62	5578.67
963.79	5504.94
963.95	5543.85
964.12	5588.91
964.28	5707.69
964.44	5578.67
964.61	5693.35
964.77	5492.65
964.93	5623.72
965.10	5570.48
965.26	5519.28
965.42	5478.32
965.59	5455.79
965.75	5492.65
965.92	5552.04
966.08	5494.70
966.24	5494.70
966.41	5509.04
966.57	5457.84
966.73	5525.42
966.90	5509.04
967.06	5357.49
967.22	5484.46
967.39	5400.49
967.55	5320.62
967.71	5521.32
967.88	5365.68
968.04	5435.31
968.20	5240.75
968.37	5259.18
968.53	5394.35
968.69	5318.57
968.85	5314.48
969.02	5404.59
969.18	5410.73
969.34	5316.53
969.51	5302.19
969.67	5304.24
969.83	5466.03
970.00	5410.73
970.16	5269.42
970.32	5187.50
970.48	5324.72
970.65	5222.32
970.81	5201.84
970.97	5214.13
971.14	5140.40
971.30	5236.66
971.46	5126.07
971.63	5300.14
971.79	5197.74
971.95	5187.50
972.11	5164.98
972.28	5021.62
972.44	5169.07
972.60	4960.18
972.76	5089.20
972.93	5066.67
973.09	5212.08
973.25	5072.82
973.42	5171.12
973.58	5103.54
973.74	5138.35
973.90	5132.21
974.07	4874.17
974.23	5050.29
974.39	5107.63
974.55	4945.84
974.72	4845.49
974.88	4904.89
975.04	4855.73
975.20	4898.74
975.37	4960.18
975.53	4941.75
975.69	5001.14
975.85	4868.02
976.01	4949.94
976.18	4976.56
976.34	4937.65
976.50	4908.98
976.66	4943.80
976.83	4984.76
976.99	4917.17
977.15	4734.90
977.31	4710.33
977.47	4913.08
977.64	4851.64
977.80	4894.65
977.96	4755.38
978.12	4749.24
978.29	4679.61
978.45	4704.18
978.61	4550.59
978.77	4831.16
978.93	4712.38
979.10	4644.79
979.26	4714.42
979.42	4759.48
979.58	4620.22
979.74	4489.15
979.91	4665.27
980.07	4589.50
980.23	4790.20
980.39	4548.54
980.55	4628.41
980.71	4573.11
980.88	4542.39
981.04	4575.16
981.20	4530.11
981.36	4536.25
981.52	4534.20
981.68	4370.37
981.85	4605.88
982.01	4495.29
982.17	4356.03
982.33	4474.81
982.49	4519.87
982.65	4429.76
982.82	4505.53
982.98	4554.68
983.14	4437.95
983.30	4413.37
983.46	4480.96
983.62	4407.23
983.79	4415.42
983.95	4284.35
984.11	4313.02
984.27	4282.30
984.43	4331.45
984.59	4327.36
984.75	4353.98
984.91	4212.67
985.08	4421.56
985.24	4284.35
985.40	4233.15
985.56	4270.01
985.72	4343.74
985.88	4276.16
986.04	4245.44
986.20	4136.90
986.37	4165.57
986.53	4059.07
986.69	4151.23
986.85	4042.69
987.01	4179.90
987.17	4184.00
987.33	4134.85
987.49	4204.48
987.65	4149.18
987.82	4140.99
987.98	4048.83
988.14	4128.70
988.30	4059.07
988.46	3966.92
988.62	4083.65
988.78	3987.40
988.94	3948.48
989.10	4077.51
989.26	4016.07
989.42	3936.20
989.59	3887.04
989.75	4048.83
989.91	3956.68
990.07	3821.51
990.23	3936.20
990.39	3919.81
990.55	3932.10
990.71	3917.76
990.87	3856.33
991.03	3979.20
991.19	3971.01
991.35	3739.59
991.51	3962.82
991.67	3997.64
991.83	3938.24
992.00	3839.94
992.16	3915.72
992.32	3876.80
992.48	3764.17
992.64	3796.93
992.80	3864.52
992.96	3774.41
993.12	3733.45
993.28	3827.65
993.44	3780.55
993.60	3731.40
993.76	3680.20
993.92	3811.27
994.08	3782.60
994.24	3747.78
994.40	3702.73
994.56	3792.84
994.72	3645.38
994.88	3645.38
995.04	3643.34
995.20	3706.82
995.36	3592.14
995.52	3669.96
995.68	3592.14
995.84	3479.50
996.00	3684.30
996.16	3413.96
996.32	3538.89
996.48	3559.37
996.64	3596.23
996.80	3473.36
996.96	3585.99
997.12	3475.40
997.28	3512.27
997.44	3383.24
997.60	3379.15
997.76	3452.88
997.92	3522.51
998.08	3547.08
998.24	3479.50
998.40	3502.03
998.56	3502.03
998.72	3397.58
998.88	3420.11
999.04	3448.78
999.20	3448.78
999.36	3323.85
999.52	3469.26
999.68	3383.24
999.84	3344.33
1000.00	3434.44
1000.16	3510.22
1000.32	3231.69
1000.48	3557.32
1000.64	3229.65
1000.80	3215.31
1000.95	3198.93
1001.11	3403.72
1001.27	3248.08
1001.43	3340.24
1001.59	3235.79
1001.75	3215.31
1001.91	3305.42
1002.07	3334.09
1002.23	3280.85
1002.39	3260.37
1002.55	3276.75
1002.71	3082.19
1002.87	3164.11
1003.03	3129.30
1003.19	3207.12
1003.34	3221.45
1003.50	3117.01
1003.66	3190.74
1003.82	3205.07
1003.98	3135.44
1004.14	3166.16
1004.30	3096.53
1004.46	3059.67
1004.62	3067.86
1004.78	3059.67
1004.94	3086.29
1005.09	3172.30
1005.25	3106.77
1005.41	3002.32
1005.57	3094.48
1005.73	3033.04
1005.89	3012.56
1006.05	3069.91
1006.21	3106.77
1006.37	2961.36
1006.52	2936.79
1006.68	2908.12
1006.84	3059.67
1007.00	3016.66
1007.16	2983.89
1007.32	2957.27
1007.48	2992.08
1007.64	3053.52
1007.79	3024.85
1007.95	2863.06
1008.11	3076.05
1008.27	2887.64
1008.43	2906.07
1008.59	2994.13
1008.75	2951.12
1008.91	2942.93
1009.06	2840.53
1009.22	2938.84
1009.38	2830.29
1009.54	2916.31
1009.70	2781.14
1009.86	2840.53
1010.01	2863.06
1010.17	2772.95
1010.33	2895.83
1010.49	2813.91
1010.65	2824.15
1010.81	2881.49
1010.96	2813.91
1011.12	2750.42
1011.28	2756.57
1011.44	2942.93
1011.60	2766.81
1011.76	2678.74
1011.91	2887.64
1012.07	2701.27
1012.23	2660.31
1012.39	2688.98
1012.55	2740.18
1012.71	2752.47
1012.86	2586.58
1013.02	2775.00
1013.18	2699.22
1013.34	2758.61
1013.50	2684.89
1013.65	2740.18
1013.81	2641.88
1013.97	2615.26
1014.13	2650.07
1014.29	2645.98
1014.44	2727.89
1014.60	2559.96
1014.76	2533.34
1014.92	2613.21
1015.07	2574.30
1015.23	2596.82
1015.39	2578.39
1015.55	2482.14
1015.71	2529.24
1015.86	2555.86
1016.02	2549.72
1016.18	2496.47
1016.34	2541.53
1016.49	2648.02
1016.65	2660.31
1016.81	2529.24
1016.97	2590.68
1017.12	2596.82
1017.28	2490.33
1017.44	2443.23
1017.60	2422.75
1017.75	2459.61
1017.91	2437.08
1018.07	2475.99
1018.23	2514.91
1018.38	2494.43
1018.54	2541.53
1018.70	2463.71
1018.86	2531.29
1019.01	2396.12
1019.17	2428.89
1019.33	2582.49
1019.49	2459.61
1019.64	2420.70
1019.80	2410.46
1019.96	2498.52
1020.12	2441.18
1020.27	2457.56
1020.43	2467.80
1020.59	2455.51
1020.74	2453.47
1020.90	2383.84
1021.06	2297.82
1021.22	2357.21
1021.37	2308.06
1021.53	2375.64
1021.69	2439.13
1021.84	2373.60
1022.00	2334.68
1022.16	2283.49
1022.31	2338.78
1022.47	2269.15
1022.63	2271.20
1022.79	2322.40
1022.94	2234.33
1023.10	2465.75
1023.26	2250.72
1023.41	2312.16
1023.57	2277.34
1023.73	2320.35
1023.88	2293.72
1024.04	2189.28
1024.20	2197.47
1024.35	2265.05
1024.51	2363.36
1024.67	2222.05
1024.82	2322.40
1024.98	2125.79
1025.14	2222.05
1025.29	2183.13
1025.45	2281.44
1025.61	2205.66
1025.76	2240.48
1025.92	2236.38
1026.08	2133.98
1026.23	2285.53
1026.39	2312.16
1026.55	2166.75
1026.70	2220.00
1026.86	2172.89
1027.02	2197.47
1027.17	2189.28
1027.33	2295.77
1027.48	2150.37
1027.64	2277.34
1027.80	2170.85
1027.95	2152.42
1028.11	2076.64
1028.27	2170.85
1028.42	2164.70
1028.58	2191.33
1028.73	2117.60
1028.89	2072.54
1029.05	2191.33
1029.20	2144.22
>>>>>End Processed Spectral Data<<<<<
