SpectraSuite Data File
++++++++++++++++++++++++++++++++++++
Date: Fri Jun 02 14:44:33 CEST 2017
User: INFO_000
Dark Spectrum Present: No
Reference Spectrum Present: No
Number of Sampled Component Spectra: 1
Spectrometers: USB4H00879
Integration Time (usec): 80000 (USB4H00879)
Spectra Averaged: 1 (USB4H00879)
Boxcar Smoothing: 0 (USB4H00879)
Correct for Electrical Dark: No (USB4H00879)
Strobe/Lamp Enabled: No (USB4H00879)
Correct for Detector Non-linearity: No (USB4H00879)
Correct for Stray Light: No (USB4H00879)
Number of Pixels in Processed Spectrum: 3648
>>>>>Begin Processed Spectral Data<<<<<
345.13	1269.74
345.34	1269.74
345.56	1269.74
345.78	1310.70
345.99	1269.74
346.21	1734.63
346.42	1728.49
346.64	1542.12
346.86	1859.56
347.07	1652.71
347.29	1769.44
347.50	1642.47
347.72	1669.09
347.94	1742.82
348.15	1544.17
348.37	1593.32
348.59	1724.39
348.80	1640.42
349.02	1769.44
349.23	1812.45
349.45	1877.99
349.67	1875.94
349.88	1824.74
350.10	2004.96
350.31	1851.36
350.53	1783.78
350.75	2009.06
350.96	1781.73
351.18	1834.98
351.39	1781.73
351.61	1759.21
351.82	1808.36
352.04	1925.09
352.26	1847.27
352.47	1884.13
352.69	1884.13
352.90	1826.79
353.12	1896.42
353.34	1920.99
353.55	1916.90
353.77	1912.80
353.98	1935.33
354.20	1896.42
354.41	1918.95
354.63	1918.95
354.85	1986.53
355.06	1890.28
355.28	1789.92
355.49	1855.46
355.71	1818.60
355.92	1820.64
356.14	1894.37
356.35	1912.80
356.57	1837.03
356.79	1830.88
357.00	1773.54
357.22	1994.72
357.43	1800.16
357.65	1992.67
357.86	1824.74
358.08	1894.37
358.29	1925.09
358.51	2047.97
358.72	1998.82
358.94	1998.82
359.16	1980.39
359.37	1894.37
359.59	2043.87
359.80	1982.43
360.02	1961.95
360.23	1964.00
360.45	1970.15
360.66	1949.67
360.88	1863.65
361.09	1927.14
361.31	1884.13
361.52	1892.32
361.74	2039.78
361.95	2017.25
362.17	1937.38
362.38	2035.68
362.60	2033.63
362.81	2000.87
363.03	2013.15
363.24	2035.68
363.46	2015.20
363.67	2011.11
363.89	1998.82
364.10	1984.48
364.32	1943.52
364.53	2056.16
364.75	1933.28
364.96	1982.43
365.18	2070.50
365.39	1974.24
365.61	2019.30
365.82	2043.87
366.04	2004.96
366.25	1951.71
366.47	2025.44
366.68	2068.45
366.90	1929.19
367.11	2099.17
367.33	2101.22
367.54	2111.46
367.76	1986.53
367.97	2099.17
368.19	2021.35
368.40	2068.45
368.62	1933.28
368.83	1896.42
369.05	2033.63
369.26	1974.24
369.48	2056.16
369.69	2019.30
369.91	2058.21
370.12	2047.97
370.33	2115.55
370.55	1957.86
370.76	2009.06
370.98	2029.54
371.19	2043.87
371.41	2027.49
371.62	2090.98
371.84	2013.15
372.05	2125.79
372.27	2136.03
372.48	2228.19
372.69	2060.26
372.91	2133.98
373.12	2072.54
373.34	2115.55
373.55	2187.23
373.77	2162.66
373.98	2115.55
374.20	2131.94
374.41	2256.86
374.62	2170.85
374.84	2093.02
375.05	2187.23
375.27	2148.32
375.48	2150.37
375.70	2144.22
375.91	2234.33
376.12	2355.16
376.34	2164.70
376.55	2117.60
376.77	2131.94
376.98	2197.47
377.19	2183.13
377.41	2191.33
377.62	2156.51
377.84	2220.00
378.05	2373.60
378.27	2133.98
378.48	2322.40
378.69	2320.35
378.91	2283.49
379.12	2250.72
379.34	2179.04
379.55	2340.83
379.76	2310.11
379.98	2174.94
380.19	2328.54
380.41	2291.68
380.62	2349.02
380.83	2256.86
381.05	2246.62
381.26	2330.59
381.47	2254.81
381.69	2226.14
381.90	2297.82
382.12	2330.59
382.33	2295.77
382.54	2265.05
382.76	2318.30
382.97	2306.01
383.19	2256.86
383.40	2404.32
383.61	2365.40
383.83	2209.76
384.04	2263.01
384.25	2346.97
384.47	2408.41
384.68	2414.56
384.89	2312.16
385.11	2291.68
385.32	2410.46
385.54	2430.94
385.75	2404.32
385.96	2437.08
386.18	2500.57
386.39	2404.32
386.60	2318.30
386.82	2447.32
387.03	2353.12
387.24	2392.03
387.46	2490.33
387.67	2492.38
387.88	2533.34
388.10	2473.95
388.31	2461.66
388.52	2639.83
388.74	2566.10
388.95	2457.56
389.16	2516.95
389.38	2545.63
389.59	2564.06
389.80	2623.45
390.02	2498.52
390.23	2750.42
390.44	2539.48
390.66	2566.10
390.87	2471.90
391.08	2539.48
391.30	2668.50
391.51	2635.74
391.72	2635.74
391.94	2584.54
392.15	2666.46
392.36	2619.35
392.58	2566.10
392.79	2576.34
393.00	2815.96
393.22	2742.23
393.43	2805.72
393.64	2787.29
393.85	2768.85
394.07	2703.32
394.28	2768.85
394.49	2650.07
394.71	2734.04
394.92	2918.36
395.13	2701.27
395.35	2779.09
395.56	2797.53
395.77	2736.09
395.98	2760.66
396.20	2883.54
396.41	2895.83
396.62	2850.77
396.84	2897.88
397.05	2877.40
397.26	2852.82
397.47	2965.46
397.69	2750.42
397.90	2977.75
398.11	2953.17
398.32	2813.91
398.54	2871.25
398.75	2904.02
398.96	2908.12
399.18	3022.80
399.39	2781.14
399.60	2955.22
399.81	3022.80
400.03	2965.46
400.24	3305.42
400.45	2981.84
400.66	3086.29
400.88	3018.71
401.09	3198.93
401.30	3096.53
401.51	3219.41
401.73	3112.91
401.94	3196.88
402.15	3203.02
402.36	3051.47
402.58	3207.12
402.79	3160.02
403.00	3239.89
403.21	3166.16
403.43	3194.83
403.64	3182.54
403.85	3114.96
404.06	3250.13
404.27	3135.44
404.49	3256.27
404.70	3102.67
404.91	3246.03
405.12	3325.90
405.34	3229.65
405.55	3379.15
405.76	3209.17
405.97	3254.22
406.19	3469.26
406.40	3151.82
406.61	3364.81
406.82	3305.42
407.03	3325.90
407.25	3272.65
407.46	3428.30
407.67	3444.68
407.88	3434.44
408.09	3364.81
408.31	3325.90
408.52	3479.50
408.73	3350.48
408.94	3350.48
409.15	3514.31
409.37	3403.72
409.58	3561.42
409.79	3549.13
410.00	3561.42
410.21	3465.16
410.43	3571.66
410.64	3424.20
410.85	3657.67
411.06	3508.17
411.27	3604.42
411.48	3661.77
411.70	3581.90
411.91	3600.33
412.12	3692.49
412.33	3694.54
412.54	3563.47
412.76	3731.40
412.97	3610.57
413.18	3569.61
413.39	3725.26
413.60	3674.06
413.81	3846.09
414.03	3590.09
414.24	3608.52
414.45	3837.89
414.66	3672.01
414.87	3848.13
415.08	3678.15
415.30	3692.49
415.51	3887.04
415.72	3696.58
415.93	3751.88
416.14	3856.33
416.35	3856.33
416.56	3882.95
416.78	3864.52
416.99	3887.04
417.20	3798.98
417.41	3805.13
417.62	3841.99
417.83	3885.00
418.04	3919.81
418.26	3934.15
418.47	3960.77
418.68	3936.20
418.89	3983.30
419.10	4161.47
419.31	4036.55
419.52	4110.27
419.73	3977.16
419.95	4130.75
420.16	3983.30
420.37	4052.93
420.58	4097.99
420.79	3975.11
421.00	4063.17
421.21	4040.64
421.42	3981.25
421.63	4079.55
421.85	4054.98
422.06	4206.53
422.27	4167.62
422.48	4208.58
422.69	4257.73
422.90	4292.54
423.11	4239.30
423.32	4282.30
423.53	4388.80
423.75	4245.44
423.96	4450.24
424.17	4478.91
424.38	4534.20
424.59	4362.17
424.80	4523.96
425.01	4511.68
425.22	4493.24
425.43	4442.04
425.64	4679.61
425.85	4669.37
426.06	4558.78
426.28	4558.78
426.49	4450.24
426.70	4491.20
426.91	4659.13
427.12	4730.81
427.33	4577.21
427.54	4712.38
427.75	4605.88
427.96	4822.97
428.17	4704.18
428.38	4745.14
428.59	4861.88
428.80	4753.34
429.01	4855.73
429.23	4720.57
429.44	5076.91
429.65	5021.62
429.86	5062.58
430.07	4845.49
430.28	5023.67
430.49	4911.03
430.70	5130.16
430.91	5070.77
431.12	5050.29
431.33	5130.16
431.54	5148.59
431.75	5377.97
431.96	5140.40
432.17	5197.74
432.38	5197.74
432.59	5310.38
432.80	5189.55
433.01	5332.91
433.22	5337.01
433.43	5441.45
433.64	5351.34
433.85	5214.13
434.06	5347.25
434.27	5367.73
434.49	5468.08
434.70	5482.41
434.91	5590.95
435.12	5570.48
435.33	5523.37
435.54	5494.70
435.75	5453.74
435.96	5437.36
436.17	5494.70
436.38	5427.12
436.59	5691.31
436.80	5697.45
437.01	5801.90
437.22	5773.22
437.43	5801.90
437.64	5654.44
437.85	5752.74
438.06	5783.46
438.27	5826.47
438.48	5760.94
438.69	5887.91
438.90	5838.76
439.11	5734.31
439.32	6033.32
439.53	5769.13
439.74	5937.06
439.95	5990.31
440.16	6035.36
440.37	5978.02
440.57	5879.72
440.78	5943.21
440.99	5971.88
441.20	6000.55
441.41	5818.28
441.62	6039.46
441.83	6012.84
442.04	6234.02
442.25	6139.81
442.46	6055.84
442.67	6234.02
442.88	6453.15
443.09	6182.82
443.30	6248.35
443.51	6246.30
443.72	6375.33
443.93	6272.93
444.14	6412.19
444.35	6037.41
444.56	6414.24
444.77	6389.66
444.98	6576.03
445.19	6461.34
445.40	6561.69
445.61	6461.34
445.81	6586.27
446.02	6473.63
446.23	6606.75
446.44	6334.37
446.65	6524.83
446.86	6633.37
447.07	6741.91
447.28	6883.22
447.49	6778.78
447.70	6533.02
447.91	6848.41
448.12	6647.71
448.33	6762.39
448.54	6789.02
448.74	6680.47
448.95	6879.13
449.16	6694.81
449.37	6995.86
449.58	6872.98
449.79	7063.44
450.00	6711.19
450.21	6926.23
450.42	6944.66
450.63	7137.17
450.84	7014.29
451.05	7075.73
451.25	6946.71
451.46	6995.86
451.67	7180.18
451.88	7206.80
452.09	7110.55
452.30	7061.40
452.51	7030.68
452.72	7212.95
452.93	7645.07
453.13	7169.94
453.34	7235.47
453.55	7417.74
453.76	7270.29
453.97	7917.45
454.18	7307.15
454.39	7376.78
454.60	7378.83
454.81	7473.04
455.01	7675.79
455.22	7200.66
455.43	7659.40
455.64	7921.54
455.85	7755.66
456.06	8060.80
456.27	7810.95
456.48	7667.60
456.68	7929.74
456.89	7849.86
457.10	8148.87
457.31	8015.75
457.52	7974.79
457.73	8116.10
457.94	8322.94
458.14	7825.29
458.35	8329.09
458.56	8134.53
458.77	8236.93
458.98	8464.25
459.19	8308.61
459.39	8492.93
459.60	8585.08
459.81	8281.99
460.02	8472.45
460.23	8490.88
460.44	8624.00
460.65	8703.87
460.85	8722.30
461.06	8789.88
461.27	8634.24
461.48	9052.02
461.69	9121.65
461.89	8712.06
462.10	8884.09
462.31	8724.35
462.52	8982.39
462.73	9019.25
462.94	9215.86
463.14	9238.39
463.35	9187.19
463.56	9602.93
463.77	9439.09
463.98	9324.40
464.18	9609.07
464.39	9441.14
464.60	9621.36
464.81	9709.42
465.02	9676.65
465.23	9752.43
465.43	9865.07
465.64	10045.29
465.85	9908.07
466.06	9856.87
466.27	10119.01
466.47	10133.35
466.68	10166.12
466.89	10217.32
467.10	10415.97
467.30	10063.72
467.51	10411.87
467.72	10674.01
467.93	10325.86
468.14	10483.55
468.34	10594.14
468.55	10698.59
468.76	10686.30
468.97	10557.28
469.17	10946.39
469.38	11036.50
469.59	11091.80
469.80	11036.50
470.01	11104.09
470.21	11091.80
470.42	11192.15
470.63	11390.80
470.84	11153.24
471.04	11460.43
471.25	11519.82
471.46	11439.95
471.67	11843.40
471.87	11636.56
472.08	11687.76
472.29	12078.92
472.50	11415.38
472.70	11865.93
472.91	12093.26
473.12	11966.28
473.33	12246.85
473.53	12392.26
473.74	12146.50
473.95	12558.14
474.16	12429.12
474.36	12449.60
474.57	12681.02
474.78	12824.38
474.99	12564.29
475.19	12646.21
475.40	12949.31
475.61	13078.33
475.81	13207.35
476.02	13276.98
476.23	13158.20
476.44	13324.08
476.64	13418.29
476.85	13489.97
477.06	13606.70
477.27	13852.46
477.47	13934.38
477.68	13827.88
477.89	13887.28
478.09	13942.57
478.30	14079.79
478.51	13940.52
478.71	14382.88
478.92	14432.04
479.13	14626.59
479.34	14511.91
479.54	14528.29
479.75	14516.00
479.96	14745.38
480.16	14821.15
480.37	14866.21
480.58	15044.38
480.78	15451.92
480.99	15240.98
481.20	15367.96
481.41	15335.19
481.61	15277.85
481.82	15734.54
482.03	15505.17
482.23	15689.49
482.44	15908.62
482.65	16054.03
482.85	15892.24
483.06	15998.73
483.27	16064.27
483.47	16318.22
483.68	16183.05
483.89	16488.20
484.09	16359.17
484.30	16652.03
484.51	16752.38
484.71	16695.04
484.92	16979.71
485.13	17078.01
485.33	16971.52
485.54	17026.81
485.75	17139.45
485.95	17293.05
486.16	17428.21
486.37	17772.27
486.57	17331.96
486.78	17516.28
486.98	17751.79
487.19	17987.31
487.40	18069.23
487.60	18022.12
487.81	18384.62
488.02	18009.84
488.22	18321.13
488.43	18503.40
488.64	18460.39
488.84	18540.26
489.05	18788.07
489.25	18327.27
489.46	18869.98
489.67	18853.60
489.87	18902.75
490.08	19025.63
490.29	19072.73
490.49	19629.78
490.70	19705.56
490.90	19439.32
491.11	19580.63
491.32	19826.39
491.52	20098.77
491.73	19871.44
491.94	20080.33
492.14	20061.90
492.35	20354.76
492.55	20338.38
492.76	20522.69
492.97	20534.98
493.17	20420.30
493.38	20647.62
493.58	20567.75
493.79	21073.60
494.00	20739.78
494.20	21102.27
494.41	21472.95
494.61	21505.72
494.82	21214.91
495.02	21403.32
495.23	21614.26
495.44	21436.09
495.64	22017.71
495.85	21667.51
496.05	21905.07
496.26	21941.94
496.47	22255.28
496.67	22025.90
496.88	22068.91
497.08	22222.51
497.29	22519.46
497.49	22427.31
497.70	22619.81
497.91	22519.46
498.11	22879.91
498.32	23123.62
498.52	22877.86
498.73	23363.23
498.93	23398.04
499.14	23283.36
499.34	23238.30
499.55	23266.97
499.76	23119.52
499.96	23676.57
500.17	23588.50
500.37	23606.94
500.58	23396.00
500.78	23568.02
500.99	23936.66
501.19	24293.01
501.40	24043.15
501.60	23840.40
501.81	24012.43
502.02	24225.42
502.22	24129.17
502.43	24581.77
502.63	24684.17
502.84	24499.85
503.04	24575.62
503.25	24876.68
503.45	24931.97
503.66	24786.57
503.86	24684.17
504.07	25216.64
504.27	25032.32
504.48	25089.67
504.68	25173.63
504.89	25484.92
505.09	25298.56
505.30	25294.46
505.50	25714.30
505.71	25618.04
505.91	25269.89
506.12	25630.33
506.32	25446.01
506.53	25507.45
506.73	25564.79
506.94	25779.83
507.14	26009.20
507.35	26123.89
507.55	26029.68
507.76	25880.18
507.96	25951.86
508.17	26150.51
508.37	26076.79
508.58	25919.09
508.78	26367.60
508.99	26580.59
509.19	26261.10
509.40	26558.06
509.60	26328.69
509.81	26510.96
510.01	26517.10
510.22	26639.98
510.42	26302.06
510.63	26531.44
510.83	26660.46
511.04	26478.19
511.24	26584.68
511.44	26697.32
511.65	26680.94
511.85	26943.08
512.06	27205.22
512.26	27213.41
512.47	26979.94
512.67	26918.50
512.88	26908.26
513.08	26818.15
513.29	27463.26
513.49	27326.05
513.69	27274.85
513.90	27209.31
514.10	27364.96
514.31	27319.90
514.51	27483.74
514.72	27145.83
514.92	27588.19
515.13	27981.40
515.33	27285.09
515.53	27498.08
515.74	27844.18
515.94	27575.90
516.15	27823.70
516.35	27922.01
516.56	27981.40
516.76	27727.45
516.96	27784.79
517.17	28003.92
517.37	28122.71
517.58	28145.23
517.78	28167.76
517.99	27926.10
518.19	28384.85
518.39	28677.71
518.60	28542.54
518.80	28675.66
519.01	28503.63
519.21	28700.23
519.41	28919.37
519.62	28487.25
519.82	28870.22
520.03	28866.12
520.23	29150.79
520.43	28882.50
520.64	29566.52
520.84	28945.99
521.05	29077.06
521.25	29636.16
521.45	29206.08
521.66	29587.00
521.86	29847.10
522.07	29412.93
522.27	29636.16
522.47	29773.37
522.68	30254.64
522.88	30041.65
523.08	30174.77
523.29	29890.10
523.49	30383.66
523.70	30174.77
523.90	30275.12
524.10	30340.66
524.31	30420.53
524.51	30232.11
524.71	30715.44
524.92	30660.14
525.12	31258.15
525.33	30780.97
525.53	31143.46
525.73	31202.85
525.94	31297.06
526.14	31084.07
526.34	31360.55
526.55	31295.01
526.75	31651.36
526.95	31903.26
527.16	31735.32
527.36	31630.88
527.56	32202.26
527.77	32466.45
527.97	32005.66
528.17	32165.40
528.38	32433.68
528.58	32419.35
528.78	32620.05
528.99	32859.66
529.19	32785.93
529.39	32534.03
529.60	33279.49
529.80	32583.18
530.00	33132.04
530.21	33193.48
530.41	33523.20
530.61	33238.53
530.82	33263.11
531.02	33211.91
531.22	33787.39
531.43	33981.95
531.63	33945.08
531.83	34309.62
532.04	34285.04
532.24	34160.12
532.44	34584.05
532.64	34688.49
532.85	34715.12
533.05	35126.76
533.25	34829.80
533.46	34950.63
533.66	35057.13
533.86	35167.72
534.07	35227.11
534.27	34936.30
534.47	35673.57
534.67	35728.86
534.88	35831.26
535.08	35730.91
535.28	36122.07
535.49	35616.22
535.69	36142.55
535.89	36406.74
536.09	36318.68
536.30	36705.74
536.50	36546.00
536.70	36650.45
536.91	36353.49
537.11	36693.46
537.31	37101.00
537.51	37076.43
537.72	37236.17
537.92	37295.56
538.12	37352.90
538.32	36736.46
538.53	37496.26
538.73	37000.65
538.93	37242.31
539.13	37428.68
539.34	37565.89
539.54	37518.79
539.74	37680.58
539.94	37811.65
540.15	37744.06
540.35	38262.20
540.55	38254.01
540.75	38127.03
540.96	38313.40
541.16	37948.86
541.36	38235.58
541.56	38518.20
541.77	38704.56
541.97	38430.13
542.17	38641.07
542.37	38645.17
542.58	38905.26
542.78	38852.02
542.98	38968.75
543.18	39187.88
543.38	39183.79
543.59	39273.90
543.79	39005.61
543.99	39222.70
544.19	39249.32
544.40	39042.48
544.60	39654.82
544.80	39667.11
545.00	39323.05
545.20	39642.53
545.41	39560.61
545.61	39277.99
545.81	40029.60
546.01	39622.05
546.21	39603.62
546.42	39837.09
546.62	40238.49
546.82	39765.41
547.02	39853.47
547.22	40238.49
547.43	39617.96
547.63	40228.25
547.83	40170.91
548.03	40019.36
548.23	40347.03
548.44	39798.18
548.64	40213.91
548.84	40263.07
549.04	40330.65
549.24	40777.11
549.45	40564.12
549.65	40506.77
549.85	40306.07
550.05	40572.31
550.25	40412.57
550.45	41084.30
550.66	40691.09
550.86	40297.88
551.06	40736.15
551.26	40795.54
551.46	41178.51
551.66	40793.49
551.87	40736.15
552.07	40859.02
552.27	41106.83
552.47	41186.70
552.67	41291.15
552.87	40938.90
553.07	41016.72
553.28	41452.94
553.48	41340.30
553.68	41069.97
553.88	41416.07
554.08	41733.51
554.28	41491.85
554.48	41348.49
554.69	41520.52
554.89	41440.65
555.09	41436.55
555.29	41229.71
555.49	42200.44
555.69	41661.83
555.89	41653.64
556.10	41676.16
556.30	41440.65
556.50	41846.15
556.70	42096.00
556.90	41700.74
557.10	42153.34
557.30	41889.15
557.50	42059.13
557.70	42648.95
557.91	42296.70
558.11	42055.04
558.31	42155.39
558.51	41805.19
558.71	41971.07
558.91	42308.99
559.11	42120.57
559.31	42169.72
559.51	42245.50
559.72	42501.50
559.92	42556.79
560.12	42237.31
560.32	42743.16
560.52	42411.38
560.72	42792.31
560.92	42726.77
561.12	42593.65
561.32	43246.96
561.52	43081.07
561.72	42906.99
561.93	43040.11
562.13	43150.70
562.33	42884.47
562.53	42984.82
562.73	42915.19
562.93	42784.12
563.13	43062.64
563.33	43179.37
563.53	43423.08
563.73	42984.82
563.93	43638.12
564.13	43752.80
564.33	43619.69
564.53	43488.62
564.74	44137.82
564.94	43177.33
565.14	43779.43
565.34	43509.10
565.54	43720.04
565.74	44037.47
565.94	44137.82
566.14	43840.87
566.34	43791.72
566.54	44381.53
566.74	43980.13
566.94	44238.17
567.14	44174.69
567.34	44121.44
567.54	44359.00
567.74	44252.51
567.94	44170.59
568.14	44447.07
568.34	44860.76
568.54	44723.54
568.74	45004.11
568.94	44559.70
569.14	44631.38
569.34	45014.35
569.54	45206.86
569.75	44860.76
569.95	44875.09
570.15	45159.76
570.35	45393.23
570.55	45180.24
570.75	45425.99
570.95	45344.08
571.15	45219.15
571.35	45317.45
571.55	45749.57
571.75	45538.63
571.95	45561.16
572.15	45356.36
572.35	45741.38
572.55	45489.48
572.75	45700.42
572.95	46355.77
573.15	45688.13
573.35	45888.84
573.55	45880.64
573.75	45684.04
573.95	46138.69
574.15	45790.53
574.35	46488.89
574.55	46142.78
574.75	46013.76
574.95	45909.32
575.15	45911.36
575.34	46419.26
575.54	46609.72
575.74	46380.35
575.94	46550.33
576.14	46667.06
576.34	46785.85
576.54	47238.45
576.74	47205.68
576.94	46843.19
577.14	47138.10
577.34	47068.47
577.54	47342.89
577.74	47404.33
577.94	47088.95
578.14	47289.65
578.34	47289.65
578.54	46665.02
578.74	47242.54
578.94	47672.62
579.14	47314.22
579.34	47596.84
579.54	47392.04
579.74	47887.65
579.94	47858.98
580.13	48260.38
580.33	47740.20
580.53	48121.12
580.73	47848.74
580.93	47916.32
581.13	48370.97
581.33	48291.10
581.53	48323.87
581.73	48356.64
581.93	48641.31
582.13	48475.42
582.33	48407.84
582.53	48674.07
582.73	48497.95
582.92	48280.86
583.12	48936.21
583.32	48448.80
583.52	48608.54
583.72	48809.24
583.92	48289.06
584.12	48373.02
584.32	49321.23
584.52	48954.64
584.72	49241.36
584.92	49220.88
585.11	49229.07
585.31	49147.15
585.51	49519.88
585.71	49143.06
585.91	49847.56
586.11	48989.46
586.31	49300.75
586.51	49562.89
586.71	49386.77
586.91	49628.43
587.10	49483.02
587.30	49753.35
587.50	49667.34
587.70	49605.90
587.90	50148.61
588.10	50058.50
588.30	49642.76
588.50	49784.07
588.69	49800.46
588.89	49863.94
589.09	49829.13
589.29	49939.72
589.49	50373.89
589.69	49595.66
589.89	49943.81
590.08	50437.37
590.28	49863.94
590.48	49812.74
590.68	50408.70
590.88	50029.83
591.08	50109.70
591.28	49812.74
591.47	50767.10
591.67	49970.44
591.87	50199.81
592.07	50474.24
592.27	50691.32
592.47	50332.93
592.67	50418.94
592.86	50216.19
593.06	50429.18
593.26	50457.85
593.46	50726.14
593.66	50584.83
593.86	50830.58
594.05	50701.56
594.25	50889.98
594.45	50738.43
594.65	50836.73
594.85	50269.44
595.05	50865.40
595.24	51092.72
595.44	50650.36
595.64	50957.56
595.84	50959.61
596.04	50842.87
596.23	50699.51
596.43	50963.70
596.63	51010.81
596.83	50650.36
597.03	51219.70
597.22	51381.49
597.42	51014.90
597.62	51188.98
597.82	51141.88
598.02	51148.02
598.21	51913.96
598.41	51252.47
598.61	51655.92
598.81	51559.66
599.01	51358.96
599.20	51432.69
599.40	51311.86
599.60	51692.78
599.80	51412.21
600.00	51574.00
600.19	51690.73
600.39	51434.74
600.59	51848.42
600.79	51737.83
600.98	51713.26
601.18	51590.38
601.38	52081.89
601.58	52403.42
601.78	52026.60
601.97	51961.06
602.17	52378.85
602.37	52108.52
602.57	51969.26
602.76	52681.95
602.96	52016.36
603.16	52172.00
603.36	52540.64
603.55	52487.39
603.75	52663.52
603.95	52980.95
604.15	52696.28
604.34	52554.97
604.54	52698.33
604.74	52554.97
604.94	52966.62
605.13	52819.16
605.33	52978.90
605.53	52724.96
605.73	53204.18
605.92	52733.15
606.12	52839.64
606.32	52718.81
606.52	52686.04
606.71	53128.41
606.91	52927.70
607.11	52958.42
607.30	53533.90
607.50	52917.46
607.70	53462.22
607.90	53400.79
608.09	52907.22
608.29	53339.35
608.49	53517.52
608.68	53259.48
608.88	53421.26
609.08	53533.90
609.28	53601.49
609.47	53347.54
609.67	54084.81
609.87	53490.90
610.06	53904.59
610.26	53771.47
610.46	54006.98
610.66	53933.26
610.85	54011.08
611.05	53720.27
611.25	54260.93
611.44	53277.91
611.64	53558.48
611.84	53585.10
612.03	54191.30
612.23	54101.19
612.43	54271.17
612.62	54090.95
612.82	54396.10
613.02	54404.29
613.21	54379.71
613.41	53828.81
613.61	54596.80
613.80	53900.49
614.00	54336.71
614.20	54195.40
614.39	54504.64
614.59	54672.57
614.79	54940.86
614.98	54039.75
615.18	54518.98
615.38	54604.99
615.57	54486.21
615.77	54998.20
615.97	54971.58
616.16	54559.94
616.36	54625.47
616.56	54813.88
616.75	54760.64
616.95	54924.47
617.15	54791.36
617.34	54963.39
617.54	54715.58
617.74	55405.75
617.93	54830.27
618.13	54482.11
618.32	54699.20
618.52	54811.84
618.72	54940.86
618.91	55315.64
619.11	54602.94
619.31	55153.85
619.50	54985.91
619.70	54785.21
619.90	55125.17
620.09	54971.58
620.29	55112.89
620.48	55041.21
620.68	54992.06
620.88	54566.08
621.07	55137.46
621.27	54981.82
621.46	54807.74
621.66	55153.85
621.86	54996.15
622.05	54860.99
622.25	55358.64
622.44	54650.05
622.64	55125.17
622.84	55086.26
623.03	55223.48
623.23	55190.71
623.42	54899.90
623.62	55266.48
623.82	55809.20
624.01	55442.61
624.21	55528.62
624.40	55424.18
624.60	55274.68
624.80	54826.17
624.99	55475.38
625.19	55200.95
625.38	55585.97
625.58	55749.81
625.77	55428.27
625.97	55723.18
626.17	55497.91
626.36	55424.18
626.56	55930.03
626.75	55053.50
626.95	55825.58
627.14	55397.55
627.34	55833.77
627.54	55727.28
627.73	55686.32
627.93	55678.13
628.12	55526.58
628.32	56073.38
628.51	55442.61
628.71	55387.31
628.90	55702.70
629.10	55760.05
629.30	55733.42
629.49	55999.66
629.69	55735.47
629.88	55631.02
630.08	56552.61
630.27	55782.57
630.47	55850.16
630.66	55686.32
630.86	56507.55
631.05	55588.02
631.25	56208.55
631.44	55899.31
631.64	55540.91
631.84	55717.04
632.03	56593.57
632.23	56050.86
632.42	56083.62
632.62	55809.20
632.81	55817.39
633.01	55946.41
633.20	56145.06
633.40	56112.30
633.59	56339.62
633.79	55581.87
633.98	56161.45
634.18	56212.65
634.37	56388.77
634.57	56292.52
634.76	56284.33
634.96	55862.44
635.15	56120.49
635.35	55397.55
635.54	55590.06
635.74	56200.36
635.93	55772.33
636.13	56112.30
636.32	56179.88
636.52	55985.32
636.71	56040.62
636.91	56317.09
637.10	56177.83
637.30	55727.28
637.49	56468.64
637.69	55921.83
637.88	56360.10
638.08	55993.51
638.27	56534.18
638.46	56341.67
638.66	55932.07
638.85	56407.20
639.05	56505.51
639.24	56317.09
639.44	55891.12
639.63	56018.09
639.83	56093.86
640.02	56235.17
640.22	55915.69
640.41	56464.55
640.61	55839.92
640.80	56169.64
640.99	56296.61
641.19	56429.73
641.38	56210.60
641.58	56013.99
641.77	55786.67
641.97	55927.98
642.16	55821.48
642.36	56329.38
642.55	56261.80
642.74	56130.73
642.94	56538.27
643.13	56009.90
643.33	56104.10
643.52	56169.64
643.72	56249.51
643.91	55997.61
644.10	56532.13
644.30	56306.85
644.49	56267.94
644.69	56990.87
644.88	56261.80
645.08	55659.69
645.27	56200.36
645.46	55671.98
645.66	56487.07
645.85	56460.45
646.05	56272.04
646.24	56319.14
646.43	56130.73
646.63	56274.09
646.82	56538.27
647.02	56206.50
647.21	56124.58
647.40	56104.10
647.60	55905.45
647.79	56261.80
647.99	56450.21
648.18	56140.97
648.37	56792.22
648.57	56462.50
648.76	56073.38
648.96	56050.86
649.15	56491.17
649.34	56546.47
649.54	56333.48
649.73	55600.30
649.92	56155.30
650.12	56374.44
650.31	56337.57
650.51	56157.35
650.70	56265.89
650.89	55891.12
651.09	56868.00
651.28	55876.78
651.47	56255.65
651.67	56016.04
651.86	56951.96
652.06	55780.52
652.25	56202.41
652.44	56206.50
652.64	56122.54
652.83	55714.99
653.02	56018.09
653.22	55993.51
653.41	56079.53
653.60	56116.39
653.80	55391.41
653.99	56149.16
654.18	55811.24
654.38	55864.49
654.57	55852.20
654.76	55766.19
654.96	55731.37
655.15	56202.41
655.34	56077.48
655.54	55438.51
655.73	56188.07
655.92	56366.24
656.12	56034.47
656.31	56153.26
656.50	56091.82
656.70	56523.94
656.89	56030.38
657.08	56173.73
657.28	56521.89
657.47	56423.59
657.66	56054.95
657.86	56026.28
658.05	55923.88
658.24	56321.19
658.43	56222.89
658.63	56370.34
658.82	55985.32
659.01	56265.89
659.21	56059.05
659.40	55776.43
659.59	55770.28
659.79	55999.66
659.98	56069.29
660.17	55831.72
660.36	56186.02
660.56	56126.63
660.75	56358.05
660.94	56288.42
661.14	56083.62
661.33	56558.75
661.52	56126.63
661.71	56511.65
661.91	56233.13
662.10	56188.07
662.29	56835.23
662.49	56235.17
662.68	56368.29
662.87	56419.49
663.06	56448.16
663.26	56243.37
663.45	56386.72
663.64	56153.26
663.83	56313.00
664.03	56407.20
664.22	56515.75
664.41	56089.77
664.60	55780.52
664.80	56372.39
664.99	56302.76
665.18	56245.41
665.37	56466.59
665.57	56261.80
665.76	56130.73
665.95	56161.45
666.14	55952.55
666.34	55995.56
666.53	55841.96
666.72	56079.53
666.91	55862.44
667.11	56515.75
667.30	56364.20
667.49	56392.87
667.68	56181.93
667.87	56259.75
668.07	56509.60
668.26	56392.87
668.45	55825.58
668.64	56157.35
668.84	57232.53
669.03	56173.73
669.22	56112.30
669.41	56233.13
669.60	56308.90
669.80	56401.06
669.99	56396.96
670.18	56243.37
670.37	56280.23
670.57	56958.11
670.76	56177.83
670.95	56917.15
671.14	56042.66
671.33	56366.24
671.53	56530.08
671.72	56923.29
671.91	56417.44
672.10	55927.98
672.29	56548.51
672.48	56196.26
672.68	56419.49
672.87	56612.00
673.06	56284.33
673.25	56226.98
673.44	56624.29
673.64	56405.16
673.83	56458.40
674.02	56700.06
674.21	56800.41
674.40	56878.24
674.59	56001.71
674.79	56663.20
674.98	56153.26
675.17	56583.33
675.36	56437.92
675.55	56646.82
675.74	56775.84
675.94	56659.10
676.13	56759.45
676.32	56669.34
676.51	57111.70
676.70	56972.44
676.89	56620.19
677.08	56956.06
677.28	56706.21
677.47	57160.86
677.66	56597.66
677.85	57253.01
678.04	57144.47
678.23	57130.14
678.42	57169.05
678.62	56849.56
678.81	57214.10
679.00	56960.15
679.19	57496.72
679.38	56951.96
679.57	56882.33
679.76	56933.53
679.96	57271.45
680.15	56753.31
680.34	56816.80
680.53	56876.19
680.72	57056.41
680.91	57261.21
681.10	56911.00
681.29	56915.10
681.48	56818.84
681.68	56706.21
681.87	57193.62
682.06	56992.92
682.25	56935.58
682.44	56554.66
682.63	56710.30
682.82	56665.25
683.01	56777.89
683.20	56683.68
683.39	57072.79
683.59	56890.52
683.78	56587.42
683.97	56632.48
684.16	56824.99
684.35	56726.69
684.54	56947.87
684.73	56650.91
684.92	56759.45
685.11	56528.03
685.30	56546.47
685.49	57154.71
685.69	56784.03
685.88	57240.73
686.07	56775.84
686.26	56990.87
686.45	57197.72
686.64	56562.85
686.83	56882.33
687.02	56790.17
687.21	56822.94
687.40	56894.62
687.59	56267.94
687.78	56884.38
687.97	56915.10
688.16	56997.02
688.35	56956.06
688.54	56288.42
688.74	56335.52
688.93	56362.15
689.12	56671.39
689.31	56790.17
689.50	56708.25
689.69	56544.42
689.88	56269.99
690.07	56810.65
690.26	56396.96
690.45	56933.53
690.64	56814.75
690.83	56554.66
691.02	55915.69
691.21	56560.80
691.40	56429.73
691.59	56800.41
691.78	56741.02
691.97	56536.23
692.16	56640.67
692.35	56784.03
692.54	56917.15
692.73	56673.44
692.92	56204.45
693.11	56333.48
693.30	55846.06
693.49	56536.23
693.68	56050.86
693.87	56081.58
694.06	55958.70
694.25	56218.79
694.44	55665.84
694.63	55803.05
694.82	56198.31
695.01	55721.13
695.20	56147.11
695.39	56149.16
695.58	56208.55
695.77	55823.53
695.96	55553.20
696.15	55647.41
696.34	55958.70
696.53	55813.29
696.72	55901.36
696.91	55553.20
697.10	55776.43
697.29	55125.17
697.48	56196.26
697.67	55393.46
697.86	55014.58
698.05	55256.24
698.24	55764.14
698.43	54983.86
698.62	55542.96
698.81	55452.85
699.00	55372.98
699.19	55348.40
699.38	55162.04
699.57	54662.33
699.76	55540.91
699.95	54998.20
700.14	55059.64
700.32	54453.44
700.51	55024.82
700.70	55295.16
700.89	55213.24
701.08	54725.82
701.27	54660.29
701.46	55329.97
701.65	54291.65
701.84	54639.81
702.03	54981.82
702.22	54734.01
702.41	54875.32
702.60	54762.68
702.79	54588.61
702.98	54314.18
703.17	54547.65
703.35	54019.27
703.54	54025.42
703.73	55030.97
703.92	54516.93
704.11	54502.59
704.30	54170.82
704.49	54236.36
704.68	54215.88
704.87	53685.45
705.06	54133.96
705.25	54160.58
705.43	54316.23
705.62	54326.47
705.81	54486.21
706.00	53804.24
706.19	53875.91
706.38	54015.18
706.57	53832.91
706.76	53714.12
706.95	53837.00
707.14	53306.58
707.32	53210.32
707.51	53044.44
707.70	53652.69
707.89	53945.54
708.08	53376.21
708.27	53564.62
708.46	53716.17
708.65	53413.07
708.84	53589.20
709.02	53511.38
709.21	53056.73
709.40	53079.25
709.59	52999.38
709.78	52876.51
709.97	53615.82
710.16	52559.07
710.34	52802.78
710.53	52835.55
710.72	52600.03
710.91	52870.36
711.10	53019.86
711.29	53013.72
711.48	53069.01
711.66	52903.13
711.85	52659.42
712.04	52337.89
712.23	52702.43
712.42	52548.83
712.61	52147.43
712.80	52077.80
712.98	52180.20
713.17	52100.32
713.36	51938.54
713.55	52239.59
713.74	52139.24
713.93	52251.87
714.11	52483.30
714.30	51823.85
714.49	51963.11
714.68	51930.34
714.87	51926.25
715.06	51848.42
715.24	51584.24
715.43	51762.41
715.62	51377.39
715.81	51070.20
716.00	51758.31
716.18	51170.55
716.37	51320.05
716.56	51205.36
716.75	51621.10
716.94	51473.65
717.12	50816.25
717.31	51639.53
717.50	51240.18
717.69	50699.51
717.88	51203.31
718.06	51201.27
718.25	51076.34
718.44	50924.79
718.63	50617.60
718.82	50388.22
719.00	50763.00
719.19	50517.25
719.38	50744.57
719.57	50525.44
719.76	50050.31
719.94	49648.91
720.13	49915.14
720.32	50146.56
720.51	50070.79
720.69	50353.41
720.88	49939.72
721.07	49822.98
721.26	49734.92
721.44	49458.45
721.63	49591.56
721.82	49437.97
722.01	49280.27
722.20	49460.49
722.38	49298.70
722.57	48772.38
722.76	49229.07
722.95	49292.56
723.13	49005.84
723.32	48833.81
723.51	48831.77
723.70	48776.47
723.88	49141.01
724.07	48637.21
724.26	48602.39
724.44	48289.06
724.63	49132.82
724.82	48921.88
725.01	48327.97
725.19	48583.96
725.38	48403.74
725.57	48477.47
725.76	48403.74
725.94	48084.26
726.13	48106.79
726.32	48033.06
726.51	48223.52
726.69	48495.90
726.88	48299.30
727.07	48393.50
727.25	48186.66
727.44	48420.13
727.63	48137.51
727.82	48373.02
728.00	48203.04
728.19	47947.04
728.38	48606.49
728.56	47549.74
728.75	48139.55
728.94	47945.00
729.12	48018.72
729.31	48071.97
729.50	47768.87
729.69	47965.48
729.87	47883.56
730.06	48020.77
730.25	48354.59
730.43	48088.35
730.62	47385.90
730.81	48112.93
730.99	48037.16
731.18	47766.82
731.37	47781.16
731.55	48166.18
731.74	48207.14
731.93	48088.35
732.11	47985.96
732.30	48260.38
732.49	47742.25
732.67	48170.27
732.86	47605.03
733.05	47805.73
733.23	47723.82
733.42	47576.36
733.61	47871.27
733.79	47453.48
733.98	47942.95
734.17	47400.24
734.35	47691.05
734.54	47689.00
734.73	48223.52
734.91	47963.43
735.10	47562.03
735.29	47854.89
735.47	47045.94
735.66	47727.91
735.84	47578.41
736.03	47052.08
736.22	48080.16
736.40	47097.14
736.59	47846.69
736.78	47672.62
736.96	47428.91
737.15	47420.72
737.33	47107.38
737.52	47545.64
737.71	47265.07
737.89	47496.49
738.08	47166.77
738.27	47279.41
738.45	47748.39
738.64	47443.24
738.82	47568.17
739.01	47443.24
739.20	47144.24
739.38	47232.30
739.57	47222.06
739.75	47275.31
739.94	47269.17
740.13	47113.52
740.31	47113.52
740.50	47019.31
740.68	47127.86
740.87	47506.73
741.06	47117.62
741.24	47035.70
741.43	46617.91
741.61	47453.48
741.80	46560.57
741.99	47213.87
742.17	47119.66
742.36	47144.24
742.54	47080.75
742.73	47312.17
742.91	47172.91
743.10	46882.10
743.29	46988.60
743.47	47082.80
743.66	46837.05
743.84	47187.25
744.03	46970.16
744.21	46880.05
744.40	47271.21
744.59	47168.82
744.77	46302.53
744.96	46632.25
745.14	46767.41
745.33	46550.33
745.51	46705.98
745.70	46529.85
745.88	46660.92
746.07	46869.81
746.26	46388.54
746.44	46552.38
746.63	46390.59
746.81	46366.01
747.00	46390.59
747.18	46622.01
747.37	46656.82
747.55	46634.30
747.74	46757.17
747.92	46118.21
748.11	46619.96
748.29	46427.45
748.48	46886.20
748.66	46370.11
748.85	46341.44
749.03	46187.84
749.22	46298.43
749.41	46122.30
749.59	46636.34
749.78	45921.60
749.96	46126.40
750.15	46153.02
750.33	46339.39
750.52	46452.03
750.70	45960.51
750.89	46331.20
751.07	45956.42
751.26	45595.98
751.44	45722.95
751.63	46150.98
751.81	46064.96
752.00	45436.23
752.18	46003.52
752.37	45999.43
752.55	45602.12
752.74	45466.95
752.92	45858.12
753.10	45487.43
753.29	46314.81
753.47	45755.72
753.66	45407.56
753.84	45919.56
754.03	45563.21
754.21	45798.73
754.40	46054.72
754.58	45686.09
754.77	45712.71
754.95	45552.97
755.14	45309.26
755.32	45649.22
755.51	45184.33
755.69	45106.51
755.88	45679.94
756.06	45890.88
756.24	45303.12
756.43	45131.09
756.61	45378.89
756.80	45092.18
756.98	45020.50
757.17	45260.11
757.35	45407.56
757.54	44991.83
757.72	45544.78
757.90	45321.55
758.09	44942.67
758.27	45174.09
758.46	44770.64
758.64	44795.22
758.83	44961.11
759.01	45266.25
759.19	44805.46
759.38	44924.24
759.56	45430.09
759.75	44997.97
759.93	44612.95
760.12	44189.02
760.30	44965.20
760.48	44576.09
760.67	44412.25
760.85	45405.52
761.04	44725.59
761.22	44356.96
761.40	44412.25
761.59	44799.32
761.77	44154.21
761.96	44731.73
762.14	44498.26
762.32	44492.12
762.51	44602.71
762.69	44129.63
762.88	44277.08
763.06	44422.49
763.24	44776.79
763.43	44250.46
763.61	44123.49
763.80	44027.23
763.98	44373.34
764.16	44125.53
764.35	44174.69
764.53	43869.54
764.72	43791.72
764.90	43568.49
765.08	43535.72
765.27	44115.29
765.45	43357.55
765.63	43263.34
765.82	43824.48
766.00	43144.56
766.18	43713.89
766.37	43894.11
766.55	43441.51
766.74	43384.17
766.92	42982.77
767.10	43418.99
767.29	43457.90
767.47	42956.14
767.65	43382.12
767.84	43070.83
768.02	43545.96
768.20	43005.30
768.39	43398.51
768.57	43119.98
768.75	42857.84
768.94	43275.63
769.12	42683.76
769.30	42601.85
769.49	43087.21
769.67	42868.08
769.85	42032.51
770.04	42640.76
770.22	42349.95
770.40	42548.60
770.59	41764.23
770.77	42653.05
770.95	42644.85
771.14	42378.62
771.32	42222.97
771.50	42161.53
771.69	41758.08
771.87	42440.06
772.05	42157.44
772.24	42339.71
772.42	42077.57
772.60	41805.19
772.78	42098.05
772.97	41790.85
773.15	42241.40
773.33	41930.11
773.52	41805.19
773.70	41667.97
773.88	42036.61
774.07	41635.20
774.25	41516.42
774.43	42200.44
774.61	41788.80
774.80	41973.12
774.98	42034.56
775.16	41923.97
775.34	41760.13
775.53	41676.16
775.71	42085.76
775.89	41846.15
776.08	41829.76
776.26	41862.53
776.44	41962.88
776.62	41739.65
776.81	41440.65
776.99	42061.18
777.17	41944.45
777.35	41987.46
777.54	42222.97
777.72	41522.57
777.90	41883.01
778.08	41870.72
778.27	41809.28
778.45	42190.20
778.63	42169.72
778.81	41448.84
779.00	42405.24
779.18	42079.61
779.36	42290.55
779.54	41956.74
779.73	42204.54
779.91	42425.72
780.09	42351.99
780.27	42571.13
780.46	42689.91
780.64	42659.19
780.82	42040.70
781.00	42397.05
781.19	42288.51
781.37	42392.95
781.55	42425.72
781.73	42509.69
781.91	42497.40
782.10	42290.55
782.28	42440.06
782.46	42651.00
782.64	42122.62
782.82	42286.46
783.01	42126.72
783.19	42556.79
783.37	42579.32
783.55	42167.68
783.74	42687.86
783.92	42067.33
784.10	42577.27
784.28	42741.11
784.46	42114.43
784.64	42102.14
784.83	42210.68
785.01	42079.61
785.19	42368.38
785.37	42732.92
785.55	42448.25
785.74	41686.40
785.92	41926.02
786.10	42255.74
786.28	42188.16
786.46	42016.13
786.64	41545.09
786.83	41837.95
787.01	41891.20
787.19	41794.95
787.37	41950.59
787.55	41381.26
787.74	41309.58
787.92	41604.49
788.10	40859.02
788.28	41172.36
788.46	41278.86
788.64	41285.00
788.82	41704.84
789.01	41522.57
789.19	41682.31
789.37	41297.29
789.55	41047.44
789.73	40396.18
789.91	41059.73
790.09	40834.45
790.28	40865.17
790.46	40547.73
790.64	40617.36
790.82	40404.38
791.00	40643.99
791.18	40197.53
791.36	40207.77
791.55	40854.93
791.73	40635.80
791.91	39968.16
792.09	40295.83
792.27	40175.00
792.45	40072.60
792.63	40146.33
792.81	40007.07
793.00	39994.78
793.18	39970.21
793.36	39974.30
793.54	39560.61
793.72	39376.30
793.90	39376.30
794.08	39097.77
794.26	39548.32
794.44	38411.70
794.62	39069.10
794.81	39019.95
794.99	38737.33
795.17	38528.44
795.35	38976.94
795.53	38899.12
795.71	38624.69
795.89	38542.77
796.07	37854.65
796.25	38094.27
796.43	38297.02
796.61	37993.92
796.80	37715.39
796.98	37905.85
797.16	37365.19
797.34	37557.70
797.52	37563.84
797.70	37596.61
797.88	37301.70
798.06	37010.89
798.24	37400.01
798.42	37195.21
798.60	37330.37
798.78	36836.81
798.96	36928.97
799.14	36679.12
799.32	36748.75
799.51	36271.57
799.69	36705.74
799.87	36677.07
800.05	36369.88
800.23	36197.85
800.41	36122.07
800.59	36165.08
800.77	35884.51
800.95	35470.82
801.13	35898.84
801.31	35911.13
801.49	35788.25
801.67	35739.10
801.85	35708.38
802.03	35231.21
802.21	35012.07
802.39	35005.93
802.57	35177.96
802.75	35104.23
802.93	35204.58
803.11	34991.59
803.29	34620.91
803.47	34633.20
803.65	34874.86
803.83	34405.88
804.01	34618.86
804.19	34387.44
804.37	34297.33
804.55	34469.36
804.73	34086.39
804.91	34270.71
805.09	34029.05
805.27	33732.09
805.45	34037.24
805.63	34299.38
805.81	33953.27
805.99	34037.24
806.17	33678.85
806.35	33936.89
806.53	33453.57
806.71	33560.06
806.89	33447.43
807.07	33461.76
807.25	33504.77
807.43	33054.22
807.61	33414.66
807.79	33164.81
807.97	32665.10
808.15	33136.13
808.33	33146.37
808.51	32882.19
808.69	32865.80
808.87	32919.05
809.05	32425.49
809.23	32278.04
809.41	32081.43
809.59	32599.57
809.77	32151.06
809.95	31989.27
810.13	32077.33
810.31	32003.61
810.49	32097.81
810.67	32151.06
810.84	32060.95
811.02	32314.90
811.20	31626.78
811.38	31794.71
811.56	31827.48
811.74	31864.35
811.92	31577.63
812.10	31604.25
812.28	31720.99
812.46	31546.91
812.64	31587.87
812.82	31204.90
813.00	31376.93
813.18	31127.08
813.36	31051.30
813.53	31028.77
813.71	30879.27
813.89	30944.81
814.07	30979.62
814.25	30920.23
814.43	30649.90
814.61	30842.41
814.79	30565.93
814.97	30414.38
815.15	30561.84
815.33	30436.91
815.50	30017.08
815.68	30324.27
815.86	30600.75
816.04	30414.38
816.22	30381.62
816.40	30086.71
816.58	30316.08
816.76	29976.12
816.94	29967.93
817.11	29773.37
817.29	29867.58
817.47	29914.68
817.65	29931.06
817.83	29877.82
818.01	29574.72
818.19	29453.89
818.37	29681.21
818.54	29314.62
818.72	29134.40
818.90	29249.09
819.08	29361.73
819.26	29429.31
819.44	29265.47
819.62	29257.28
819.80	29275.71
819.97	29085.25
820.15	28966.47
820.33	29040.20
820.51	29011.53
820.69	29062.72
820.87	28857.93
821.05	29269.57
821.22	29218.37
821.40	29048.39
821.58	28845.64
821.76	28810.82
821.94	28542.54
822.12	28563.02
822.29	28415.57
822.47	28530.25
822.65	28558.92
822.83	28659.27
823.01	28610.12
823.19	28528.20
823.36	28372.56
823.54	28069.46
823.72	28415.57
823.90	28253.78
824.08	27905.62
824.25	27895.38
824.43	28024.40
824.61	28028.50
824.79	27944.53
824.97	28091.99
825.15	28079.70
825.32	27719.26
825.50	27768.41
825.68	27835.99
825.86	28061.27
826.04	27725.40
826.21	28200.53
826.39	27946.58
826.57	27694.68
826.75	27504.22
826.93	27661.91
827.10	27260.51
827.28	27641.43
827.46	27498.08
827.64	27397.73
827.81	27641.43
827.99	27756.12
828.17	27459.16
828.35	27055.72
828.53	27332.19
828.70	27657.82
828.88	27123.30
829.06	27442.78
829.24	27561.56
829.41	27268.70
829.59	27221.60
829.77	27313.76
829.95	27133.54
830.12	27262.56
830.30	27158.11
830.48	27272.80
830.66	27145.83
830.84	27035.24
831.01	27194.98
831.19	26840.68
831.37	26607.21
831.55	26644.07
831.72	26752.62
831.90	26814.05
832.08	26725.99
832.25	26746.47
832.43	26605.16
832.61	26914.41
832.79	26748.52
832.96	26754.66
833.14	26680.94
833.32	26646.12
833.50	26857.06
833.67	26646.12
833.85	26594.92
834.03	25929.33
834.20	26347.12
834.38	26250.86
834.56	26463.85
834.74	26168.94
834.91	26181.23
835.09	26392.17
835.27	26013.30
835.44	26111.60
835.62	25575.03
835.80	26211.95
835.98	26084.98
836.15	26168.94
836.33	25998.96
836.51	26195.57
836.68	25884.28
836.86	25822.84
837.04	26140.27
837.21	26007.16
837.39	25665.14
837.57	25730.68
837.75	26220.14
837.92	25556.60
838.10	25562.75
838.28	25503.35
838.45	25312.89
838.63	25605.75
838.81	25618.04
838.98	25575.03
839.16	25439.87
839.34	25222.78
839.51	25282.17
839.69	25243.26
839.87	25476.73
840.04	25452.16
840.22	25734.78
840.40	25388.67
840.57	25241.21
840.75	25474.68
840.93	24647.30
841.10	25247.36
841.28	25618.04
841.46	25212.54
841.63	25306.75
841.81	25364.09
841.98	25202.30
842.16	25173.63
842.34	25271.93
842.51	24759.94
842.69	25228.93
842.87	24979.07
843.04	24966.79
843.22	24858.24
843.40	25009.79
843.57	25024.13
843.75	24929.92
843.92	24981.12
844.10	24811.14
844.28	24725.13
844.45	24745.61
844.63	24819.33
844.81	24321.68
844.98	24751.75
845.16	24561.29
845.33	24710.79
845.51	24678.02
845.69	24465.03
845.86	24471.18
846.04	24237.71
846.21	24413.84
846.39	24352.40
846.57	24370.83
846.74	24542.86
846.92	24323.72
847.09	24184.46
847.27	24139.41
847.45	24608.39
847.62	24282.77
847.80	24268.43
847.97	24039.06
848.15	24168.08
848.32	24002.19
848.50	24151.70
848.68	24084.11
848.85	24034.96
849.03	23856.79
849.20	23932.56
849.38	23821.97
849.56	23971.47
849.73	23797.40
849.91	23877.27
850.08	24139.41
850.26	23717.53
850.43	23664.28
850.61	23975.57
850.78	23406.23
850.96	23787.16
851.14	23488.15
851.31	23824.02
851.49	23561.88
851.66	23545.50
851.84	23781.01
852.01	23621.27
852.19	23512.73
852.36	23895.70
852.54	23502.49
852.71	23611.03
852.89	23115.42
853.07	23463.58
853.24	23148.19
853.42	23312.03
853.59	23269.02
853.77	23269.02
853.94	23510.68
854.12	23318.17
854.29	22996.64
854.47	23221.92
854.64	22877.86
854.82	23234.21
854.99	23213.73
855.17	22859.43
855.34	23004.83
855.52	22949.54
855.69	23150.24
855.87	22873.76
856.04	22689.45
856.22	23023.26
856.39	22570.66
856.57	22628.01
856.74	22484.65
856.92	23045.79
857.09	22972.07
857.27	22679.21
857.44	22791.84
857.62	22720.17
857.79	22650.53
857.97	22611.62
858.14	22533.80
858.32	22853.28
858.49	22585.00
858.67	22431.40
858.84	22679.21
859.02	22525.61
859.19	22388.39
859.37	22169.26
859.54	22322.86
859.72	22423.21
859.89	22333.10
860.06	22488.74
860.24	22070.96
860.41	22238.89
860.59	21903.03
860.76	21997.23
860.94	22236.84
861.11	22277.80
861.29	21898.93
861.46	22089.39
861.64	22167.21
861.81	22085.30
861.98	21878.45
862.16	21794.48
862.33	21862.07
862.51	21653.17
862.68	21810.87
862.86	21577.40
863.03	21759.67
863.21	21827.25
863.38	21673.65
863.55	21597.88
863.73	21413.56
863.90	21743.28
864.08	21501.62
864.25	21624.50
864.43	21606.07
864.60	21520.06
864.77	21155.52
864.95	21499.58
865.12	21311.16
865.30	21456.57
865.47	21290.68
865.64	21386.94
865.82	21507.77
865.99	21202.62
866.17	21239.48
866.34	21202.62
866.51	21120.70
866.69	21214.91
866.86	20997.82
867.04	20989.63
867.21	20946.62
867.38	20989.63
867.56	20874.95
867.73	20991.68
867.91	21141.18
868.08	20981.44
868.25	20588.23
868.43	20690.63
868.60	20596.42
868.78	20444.87
868.95	20608.71
869.12	20717.25
869.30	20274.89
869.47	20772.55
869.64	20444.87
869.82	20248.27
869.99	20379.34
870.16	20557.51
870.34	20332.23
870.51	20539.08
870.69	20201.16
870.86	20297.42
871.03	20209.36
871.21	20043.47
871.38	20201.16
871.55	20049.61
871.73	20121.29
871.90	19939.02
872.07	19885.78
872.25	19867.34
872.42	19662.55
872.59	19898.06
872.77	19695.32
872.94	19470.04
873.11	19451.61
873.29	19730.13
873.46	19582.68
873.63	19351.26
873.81	19435.22
873.98	19504.85
874.15	19281.63
874.33	19465.94
874.50	19384.02
874.67	19369.69
874.85	19306.20
875.02	19027.68
875.19	18968.29
875.37	18988.77
875.54	19136.22
875.71	19136.22
875.88	18802.40
876.06	18908.90
876.23	19078.88
876.40	18659.04
876.58	19189.47
876.75	19117.79
876.92	18800.35
877.10	18650.85
877.27	18654.95
877.44	18474.73
877.61	18685.67
877.79	18345.70
877.96	18319.08
878.13	18484.97
878.31	18296.55
878.48	18394.86
878.65	18487.01
878.82	18308.84
879.00	18382.57
879.17	18241.26
879.34	18491.11
879.51	18124.52
879.69	17786.61
879.86	17925.87
880.03	18140.91
880.21	17882.86
880.38	18067.18
880.55	17872.62
880.72	17725.17
880.90	17934.06
881.07	17942.25
881.24	18097.90
881.41	17716.98
881.59	17870.58
881.76	17751.79
881.93	17673.97
882.10	17526.52
882.28	17563.38
882.45	17641.20
882.62	17923.82
882.79	17680.11
882.96	17270.52
883.14	17489.65
883.31	17563.38
883.48	17360.63
883.65	17397.49
883.83	17604.34
884.00	17446.65
884.17	17280.76
884.34	17282.81
884.51	17256.18
884.69	17379.06
884.86	17196.79
885.03	17317.62
885.20	17004.28
885.38	17247.99
885.55	17258.23
885.72	17211.13
885.89	16998.14
886.06	17102.59
886.24	16867.07
886.41	16852.73
886.58	17301.24
886.75	17059.58
886.92	16652.03
887.10	16971.52
887.27	16899.84
887.44	16922.37
887.61	16848.64
887.78	17096.44
887.95	16850.69
888.13	16518.92
888.30	16803.58
888.47	16400.13
888.64	16723.71
888.81	16709.38
888.99	16510.72
889.16	16490.24
889.33	16320.26
889.50	16348.93
889.67	16510.72
889.84	16224.01
890.01	16348.93
890.19	16379.65
890.36	16242.44
890.53	16166.67
890.70	16103.18
890.87	16371.46
891.04	16117.51
891.22	16162.57
891.39	16008.97
891.56	16152.33
891.73	15898.38
891.90	16097.03
892.07	15914.77
892.24	15869.71
892.42	15912.72
892.59	15843.09
892.76	15740.69
892.93	15832.85
893.10	15838.99
893.27	15828.75
893.44	15607.57
893.61	15609.62
893.79	15769.36
893.96	15689.49
894.13	15660.82
894.30	15626.00
894.47	15619.86
894.64	15687.44
894.81	15582.99
894.98	15671.06
895.15	15488.79
895.33	15490.84
895.50	15318.81
895.67	15687.44
895.84	15347.48
896.01	15363.86
896.18	15556.37
896.35	15599.38
896.52	15441.68
896.69	15423.25
896.86	15392.53
897.04	15478.55
897.21	15376.15
897.38	15423.25
897.55	15396.63
897.72	15453.97
897.89	15447.83
898.06	15558.42
898.23	15251.22
898.40	15476.50
898.57	15333.14
898.74	15228.70
898.91	15525.65
899.08	15519.51
899.26	15374.10
899.43	15613.71
899.60	15197.98
899.77	15277.85
899.94	15118.11
900.11	15130.39
900.28	15290.13
900.45	15101.72
900.62	15292.18
900.79	15283.99
900.96	15134.49
901.13	15044.38
901.30	15154.97
901.47	15027.99
901.64	15365.91
901.81	15204.12
901.98	14944.03
902.15	15480.60
902.32	15071.00
902.49	15251.22
902.66	15159.06
902.83	15279.89
903.01	15107.87
903.18	15091.48
903.35	15109.91
903.52	15058.71
903.69	15101.72
903.86	15230.74
904.03	15036.19
904.20	15363.86
904.37	15367.96
904.54	15126.30
904.71	15091.48
904.88	15179.54
905.05	14909.21
905.22	15150.87
905.39	14915.36
905.56	15236.89
905.73	14692.13
905.90	14974.75
906.07	15050.52
906.24	15134.49
906.41	14991.13
906.58	15167.26
906.75	15064.86
906.92	14790.43
907.09	14921.50
907.26	15132.44
907.43	14704.42
907.60	14694.18
907.77	15111.96
907.93	15140.63
908.10	14868.25
908.27	15046.43
908.44	14917.40
908.61	14757.66
908.78	14669.60
908.95	14860.06
909.12	14925.60
909.29	14728.99
909.46	14741.28
909.63	14667.55
909.80	14917.40
909.97	14690.08
910.14	14819.10
910.31	14855.97
910.48	14901.02
910.65	14812.96
910.82	14698.27
910.99	14724.90
911.16	14497.57
911.33	14620.45
911.50	14741.28
911.66	14436.13
911.83	14815.01
912.00	14706.46
912.17	14427.94
912.34	14251.81
912.51	14522.15
912.68	14395.17
912.85	14659.36
913.02	14438.18
913.19	14386.98
913.36	14389.03
913.53	14475.04
913.70	14298.92
913.86	14468.90
914.03	14219.05
914.20	14143.27
914.37	14165.80
914.54	13958.96
914.71	14196.52
914.88	14196.52
915.05	14143.27
915.22	14040.87
915.39	14098.22
915.55	14143.27
915.72	13999.91
915.89	13872.94
916.06	13954.86
916.23	13879.08
916.40	13922.09
916.57	13651.76
916.74	13844.27
916.91	13674.29
917.07	13715.25
917.24	13752.11
917.41	13569.84
917.58	13731.63
917.75	13565.74
917.92	13440.82
918.09	13438.77
918.26	13449.01
918.42	13483.83
918.59	13578.03
918.76	13358.90
918.93	13215.54
919.10	13201.21
919.27	13213.49
919.44	13358.90
919.60	13207.35
919.77	13299.51
919.94	13072.18
920.11	12808.00
920.28	13078.33
920.45	13035.32
920.61	12930.87
920.78	12863.29
920.95	12980.03
921.12	12848.96
921.29	12719.93
921.46	12816.19
921.62	12578.62
921.79	12676.93
921.96	12574.53
922.13	12572.48
922.30	12570.43
922.47	12613.44
922.63	12619.58
922.80	12433.22
922.97	12283.72
923.14	12066.63
923.31	12318.53
923.47	12068.68
923.64	12345.16
923.81	12042.06
923.98	12052.30
924.15	12173.13
924.32	11935.56
924.48	12064.58
924.65	11945.80
924.82	11747.15
924.99	11777.87
925.15	11714.38
925.32	11958.09
925.49	11738.96
925.66	11898.70
925.83	11630.41
925.99	11452.24
926.16	11640.65
926.33	11558.74
926.50	11446.10
926.67	11710.29
926.83	11554.64
927.00	11417.43
927.17	11138.90
927.34	11229.01
927.50	11366.23
927.67	11491.15
927.84	11102.04
928.01	11067.22
928.17	11120.47
928.34	10981.21
928.51	10792.80
928.68	10792.80
928.84	10739.55
929.01	10766.17
929.18	10499.94
929.35	10749.79
929.51	10721.12
929.68	10610.53
929.85	10602.33
930.02	10624.86
930.18	10592.09
930.35	10440.54
930.52	10510.18
930.69	10475.36
930.85	10430.30
931.02	10293.09
931.19	10221.41
931.36	10176.36
931.52	10170.21
931.69	10350.43
931.86	10043.24
932.02	10037.09
932.19	10219.36
932.36	9916.26
932.53	10143.59
932.69	9977.70
932.86	10028.90
933.03	9764.72
933.19	9498.48
933.36	9629.55
933.53	9768.81
933.70	9641.84
933.86	9541.49
934.03	9549.68
934.20	9459.57
934.36	9394.03
934.53	9357.17
934.70	9047.93
934.86	9318.26
935.03	9162.61
935.20	9070.45
935.36	8949.62
935.53	8902.52
935.70	8787.83
935.86	8843.13
936.03	8697.72
936.20	8580.99
936.36	8603.52
936.53	8630.14
936.70	8478.59
936.86	8521.60
937.03	8341.38
937.20	8175.49
937.36	8189.83
937.53	7880.58
937.70	8075.14
937.86	7960.45
938.03	7860.10
938.20	7790.47
938.36	7645.07
938.53	7571.34
938.70	7450.51
938.86	7516.05
939.03	7233.43
939.20	7249.81
939.36	7196.56
939.53	7090.07
939.70	7204.75
939.86	6942.61
940.03	6883.22
940.19	6750.10
940.36	6776.73
940.53	6721.43
940.69	6610.84
940.86	6823.83
941.03	6436.77
941.19	6518.68
941.36	6496.16
941.52	6211.49
941.69	6213.54
941.86	6203.30
942.02	6246.30
942.19	6285.22
942.35	6059.94
942.52	5992.36
942.69	5955.49
942.85	5861.29
943.02	6031.27
943.18	5853.09
943.35	5769.13
943.52	5746.60
943.68	5693.35
943.85	5765.03
944.01	5597.10
944.18	5533.61
944.35	5554.09
944.51	5550.00
944.68	5466.03
944.84	5410.73
945.01	5543.85
945.17	5496.75
945.34	5484.46
945.51	5459.88
945.67	5468.08
945.84	5463.98
946.00	5369.77
946.17	5314.48
946.33	5367.73
946.50	5334.96
946.67	5234.61
946.83	5271.47
947.00	5355.44
947.16	5300.14
947.33	5304.24
947.49	5234.61
947.66	5371.82
947.82	5420.97
947.99	5312.43
948.16	5367.73
948.32	5214.13
948.49	5392.30
948.65	5429.17
948.82	5287.86
948.98	5238.70
949.15	5273.52
949.31	5306.29
949.48	5246.90
949.64	5244.85
949.81	5398.45
949.97	5210.03
950.14	5328.81
950.30	5255.09
950.47	5394.35
950.63	5298.10
950.80	5197.74
950.96	5226.42
951.13	5386.16
951.30	5263.28
951.46	5234.61
951.63	5431.21
951.79	5308.34
951.96	5287.86
952.12	5220.27
952.29	5496.75
952.45	5334.96
952.62	5453.74
952.78	5433.26
952.94	5361.58
953.11	5416.88
953.27	5472.17
953.44	5466.03
953.60	5429.17
953.77	5574.57
953.93	5474.22
954.10	5416.88
954.26	5443.50
954.43	5337.01
954.59	5447.60
954.76	5722.02
954.92	5451.69
955.09	5451.69
955.25	5416.88
955.42	5568.43
955.58	5597.10
955.75	5476.27
955.91	5390.25
956.07	5488.56
956.24	5527.47
956.40	5676.97
956.57	5543.85
956.73	5439.40
956.90	5617.58
957.06	5447.60
957.23	5482.41
957.39	5435.31
957.56	5498.80
957.72	5500.84
957.88	5367.73
958.05	5541.80
958.21	5509.04
958.38	5361.58
958.54	5572.52
958.71	5654.44
958.87	5580.71
959.03	5564.33
959.20	5562.28
959.36	5504.94
959.53	5394.35
959.69	5578.67
959.85	5537.71
960.02	5408.69
960.18	5377.97
960.35	5506.99
960.51	5570.48
960.68	5410.73
960.84	5560.24
961.00	5607.34
961.17	5541.80
961.33	5550.00
961.50	5590.95
961.66	5498.80
961.82	5484.46
961.99	5629.87
962.15	5535.66
962.31	5478.32
962.48	5504.94
962.64	5613.48
962.81	5523.37
962.97	5375.92
963.13	5535.66
963.30	5357.49
963.46	5435.31
963.62	5408.69
963.79	5547.95
963.95	5515.18
964.12	5492.65
964.28	5484.46
964.44	5349.29
964.61	5552.04
964.77	5490.60
964.93	5547.95
965.10	5394.35
965.26	5480.36
965.42	5586.86
965.59	5402.54
965.75	5273.52
965.92	5388.21
966.08	5210.03
966.24	5414.83
966.41	5238.70
966.57	5474.22
966.73	5476.27
966.90	5343.15
967.06	5304.24
967.22	5339.05
967.39	5402.54
967.55	5312.43
967.71	5240.75
967.88	5306.29
968.04	5248.94
968.20	5343.15
968.37	5164.98
968.53	5302.19
968.69	5285.81
968.85	5330.86
969.02	5351.34
969.18	5359.53
969.34	5255.09
969.51	5226.42
969.67	5193.65
969.83	5130.16
970.00	5296.05
970.16	5142.45
970.32	5261.23
970.48	5267.38
970.65	5072.82
970.81	5250.99
970.97	5167.03
971.14	5134.26
971.30	5316.53
971.46	5091.25
971.63	5095.35
971.79	5179.31
971.95	5140.40
972.11	4931.51
972.28	5009.33
972.44	5087.15
972.60	4917.17
972.76	5212.08
972.93	5005.24
973.09	5109.68
973.25	4992.95
973.42	5099.44
973.58	5052.34
973.74	5038.00
973.90	5033.91
974.07	4919.22
974.23	4820.92
974.39	5103.54
974.55	4962.23
974.72	4990.90
974.88	4923.32
975.04	4956.08
975.20	4968.37
975.37	4943.80
975.53	5027.76
975.69	4769.72
975.85	4814.77
976.01	4820.92
976.18	4712.38
976.34	4730.81
976.50	4835.25
976.66	4931.51
976.83	4734.90
976.99	4663.22
977.15	4919.22
977.31	4575.16
977.47	4906.93
977.64	4708.28
977.80	4720.57
977.96	4706.23
978.12	4734.90
978.29	4759.48
978.45	4734.90
978.61	4618.17
978.77	4753.34
978.93	4577.21
979.10	4726.71
979.26	4714.42
979.42	4685.75
979.58	4634.55
979.74	4605.88
979.91	4638.65
980.07	4515.77
980.23	4601.79
980.39	4460.48
980.55	4460.48
980.71	4550.59
980.88	4636.60
981.04	4519.87
981.20	4444.09
981.36	4569.02
981.52	4519.87
981.68	4376.51
981.85	4499.39
982.01	4382.65
982.17	4374.46
982.33	4378.56
982.49	4407.23
982.65	4364.22
982.82	4399.04
982.98	4321.21
983.14	4294.59
983.30	4427.71
983.46	4388.80
983.62	4333.50
983.79	4245.44
983.95	4257.73
984.11	4239.30
984.27	4323.26
984.43	4210.62
984.59	4290.49
984.75	4325.31
984.91	4233.15
985.08	4249.54
985.24	4222.91
985.40	4288.45
985.56	4186.05
985.72	4239.30
985.88	4204.48
986.04	4136.90
986.20	4087.75
986.37	4298.69
986.53	4038.59
986.69	4087.75
986.85	3983.30
987.01	4063.17
987.17	4157.38
987.33	4149.18
987.49	4057.03
987.65	4167.62
987.82	4050.88
987.98	4065.22
988.14	4081.60
988.30	4079.55
988.46	3944.39
988.62	4081.60
988.78	3946.44
988.94	3923.91
989.10	3987.40
989.26	3925.96
989.42	3968.96
989.59	3850.18
989.75	3819.46
989.91	3903.43
990.07	3960.77
990.23	3817.41
990.39	3981.25
990.55	3944.39
990.71	3928.00
990.87	3794.89
991.03	3917.76
991.19	3829.70
991.35	3796.93
991.51	3866.56
991.67	3934.15
991.83	3921.86
992.00	3798.98
992.16	3846.09
992.32	3737.54
992.48	3739.59
992.64	3672.01
992.80	3669.96
992.96	3706.82
993.12	3780.55
993.28	3917.76
993.44	3710.92
993.60	3669.96
993.76	3729.35
993.92	3725.26
994.08	3680.20
994.24	3710.92
994.40	3698.63
994.56	3758.02
994.72	3655.62
994.88	3502.03
995.04	3661.77
995.20	3610.57
995.36	3536.84
995.52	3592.14
995.68	3545.03
995.84	3485.64
996.00	3602.38
996.16	3534.79
996.32	3575.75
996.48	3516.36
996.64	3563.47
996.80	3524.55
996.96	3557.32
997.12	3616.71
997.28	3459.02
997.44	3510.22
997.60	3422.16
997.76	3401.68
997.92	3473.36
998.08	3553.23
998.24	3358.67
998.40	3549.13
998.56	3344.33
998.72	3418.06
998.88	3438.54
999.04	3354.57
999.20	3424.20
999.36	3407.82
999.52	3459.02
999.68	3393.48
999.84	3387.34
1000.00	3342.28
1000.16	3442.64
1000.32	3358.67
1000.48	3391.44
1000.64	3293.13
1000.80	3209.17
1000.95	3205.07
1001.11	3362.76
1001.27	3104.72
1001.43	3297.23
1001.59	3125.20
1001.75	3155.92
1001.91	3211.22
1002.07	3182.54
1002.23	3168.21
1002.39	3143.63
1002.55	3176.40
1002.71	3084.24
1002.87	3190.74
1003.03	3067.86
1003.19	3166.16
1003.34	3188.69
1003.50	3096.53
1003.66	3074.00
1003.82	3135.44
1003.98	3024.85
1004.14	3037.14
1004.30	3000.27
1004.46	3071.95
1004.62	3012.56
1004.78	3102.67
1004.94	3119.06
1005.09	3086.29
1005.25	3119.06
1005.41	2930.64
1005.57	2996.18
1005.73	3010.51
1005.89	3041.23
1006.05	3016.66
1006.21	3125.20
1006.37	2871.25
1006.52	2904.02
1006.68	2934.74
1006.84	2973.65
1007.00	2926.55
1007.16	2985.94
1007.32	2910.16
1007.48	2904.02
1007.64	2953.17
1007.79	2981.84
1007.95	2791.38
1008.11	2901.97
1008.27	2899.92
1008.43	2863.06
1008.59	2838.48
1008.75	3000.27
1008.91	2901.97
1009.06	2850.77
1009.22	2797.53
1009.38	2879.44
1009.54	2961.36
1009.70	2826.20
1009.86	2822.10
1010.01	2777.05
1010.17	2797.53
1010.33	2858.96
1010.49	2822.10
1010.65	2818.00
1010.81	2764.76
1010.96	2764.76
1011.12	2713.56
1011.28	2668.50
1011.44	2824.15
1011.60	2756.57
1011.76	2666.46
1011.91	2805.72
1012.07	2592.73
1012.23	2592.73
1012.39	2709.46
1012.55	2762.71
1012.71	2756.57
1012.86	2629.59
1013.02	2627.54
1013.18	2723.80
1013.34	2693.08
1013.50	2748.37
1013.65	2750.42
1013.81	2645.98
1013.97	2758.61
1014.13	2709.46
1014.29	2701.27
1014.44	2680.79
1014.60	2568.15
1014.76	2605.02
1014.92	2615.26
1015.07	2592.73
1015.23	2598.87
1015.39	2570.20
1015.55	2502.62
1015.71	2580.44
1015.86	2473.95
1016.02	2527.19
1016.18	2510.81
1016.34	2533.34
1016.49	2525.15
1016.65	2568.15
1016.81	2559.96
1016.97	2586.58
1017.12	2594.78
1017.28	2437.08
1017.44	2443.23
1017.60	2478.04
1017.75	2435.03
1017.91	2480.09
1018.07	2519.00
1018.23	2449.37
1018.38	2404.32
1018.54	2467.80
1018.70	2408.41
1018.86	2443.23
1019.01	2379.74
1019.17	2465.75
1019.33	2521.05
1019.49	2457.56
1019.64	2432.99
1019.80	2402.27
1019.96	2420.70
1020.12	2404.32
1020.27	2375.64
1020.43	2432.99
1020.59	2445.27
1020.74	2410.46
1020.90	2361.31
1021.06	2279.39
1021.22	2322.40
1021.37	2410.46
1021.53	2344.92
1021.69	2410.46
1021.84	2238.43
1022.00	2346.97
1022.16	2324.44
1022.31	2273.25
1022.47	2250.72
1022.63	2318.30
1022.79	2240.48
1022.94	2295.77
1023.10	2265.05
1023.26	2246.62
1023.41	2254.81
1023.57	2287.58
1023.73	2269.15
1023.88	2271.20
1024.04	2252.77
1024.20	2238.43
1024.35	2242.53
1024.51	2316.25
1024.67	2246.62
1024.82	2279.39
1024.98	2207.71
1025.14	2256.86
1025.29	2195.42
1025.45	2254.81
1025.61	2109.41
1025.76	2174.94
1025.92	2109.41
1026.08	2136.03
1026.23	2191.33
1026.39	2236.38
1026.55	2121.70
1026.70	2131.94
1026.86	2236.38
1027.02	2246.62
1027.17	2119.65
1027.33	2224.09
1027.48	2115.55
1027.64	2113.50
1027.80	2099.17
1027.95	2240.48
1028.11	2095.07
1028.27	2115.55
1028.42	2222.05
1028.58	2113.50
1028.73	2142.18
1028.89	2007.01
1029.05	2246.62
1029.20	2148.32
>>>>>End Processed Spectral Data<<<<<
