SpectraSuite Data File
++++++++++++++++++++++++++++++++++++
Date: Fri Jun 02 14:44:34 CEST 2017
User: INFO_000
Dark Spectrum Present: No
Reference Spectrum Present: No
Number of Sampled Component Spectra: 1
Spectrometers: USB4H00879
Integration Time (usec): 80000 (USB4H00879)
Spectra Averaged: 1 (USB4H00879)
Boxcar Smoothing: 0 (USB4H00879)
Correct for Electrical Dark: No (USB4H00879)
Strobe/Lamp Enabled: No (USB4H00879)
Correct for Detector Non-linearity: No (USB4H00879)
Correct for Stray Light: No (USB4H00879)
Number of Pixels in Processed Spectrum: 3648
>>>>>Begin Processed Spectral Data<<<<<
345.13	1318.89
345.34	1318.89
345.56	1318.89
345.78	1294.32
345.99	1282.03
346.21	1691.62
346.42	1708.01
346.64	1667.05
346.86	1712.10
347.07	1624.04
347.29	1673.19
347.50	1581.03
347.72	1703.91
347.94	1716.20
348.15	1599.46
348.37	1646.57
348.59	1726.44
348.80	1699.81
349.02	1826.79
349.23	1869.80
349.45	1861.60
349.67	1851.36
349.88	1785.83
350.10	1966.05
350.31	1892.32
350.53	1828.84
350.75	1943.52
350.96	1703.91
351.18	1849.32
351.39	1810.40
351.61	1839.08
351.82	1871.84
352.04	1888.23
352.26	1804.26
352.47	1912.80
352.69	1929.19
352.90	1755.11
353.12	1855.46
353.34	1900.52
353.55	1869.80
353.77	1867.75
353.98	1896.42
354.20	1845.22
354.41	1886.18
354.63	1935.33
354.85	2007.01
355.06	1880.04
355.28	1826.79
355.49	1961.95
355.71	1886.18
355.92	1892.32
356.14	1998.82
356.35	1863.65
356.57	1902.56
356.79	1978.34
357.00	1888.23
357.22	1937.38
357.43	1890.28
357.65	1908.71
357.86	1898.47
358.08	1982.43
358.29	1972.19
358.51	2015.20
358.72	1974.24
358.94	1910.75
359.16	1918.95
359.37	1873.89
359.59	1920.99
359.80	1937.38
360.02	1875.94
360.23	1925.09
360.45	1974.24
360.66	1873.89
360.88	1925.09
361.09	1982.43
361.31	2004.96
361.52	1945.57
361.74	2019.30
361.95	2043.87
362.17	1978.34
362.38	2023.39
362.60	2021.35
362.81	2017.25
363.03	1845.22
363.24	2007.01
363.46	2076.64
363.67	2021.35
363.89	1945.57
364.10	1937.38
364.32	1959.91
364.53	1980.39
364.75	1953.76
364.96	2097.12
365.18	2019.30
365.39	2025.44
365.61	1974.24
365.82	2088.93
366.04	2004.96
366.25	1929.19
366.47	2050.02
366.68	1992.67
366.90	1996.77
367.11	2047.97
367.33	2027.49
367.54	2068.45
367.76	2015.20
367.97	2150.37
368.19	1957.86
368.40	2068.45
368.62	1900.52
368.83	1974.24
369.05	2109.41
369.26	2013.15
369.48	1943.52
369.69	1982.43
369.91	2125.79
370.12	2019.30
370.33	2041.82
370.55	1992.67
370.76	1957.86
370.98	2133.98
371.19	2000.87
371.41	1908.71
371.62	2072.54
371.84	1974.24
372.05	2281.44
372.27	2043.87
372.48	2058.21
372.69	2117.60
372.91	2189.28
373.12	2205.66
373.34	2035.68
373.55	2158.56
373.77	2125.79
373.98	2060.26
374.20	2101.22
374.41	2252.77
374.62	2131.94
374.84	2142.18
375.05	2174.94
375.27	2191.33
375.48	2148.32
375.70	2111.46
375.91	2205.66
376.12	2289.63
376.34	2109.41
376.55	2238.43
376.77	2220.00
376.98	2136.03
377.19	2121.70
377.41	2109.41
377.62	2232.29
377.84	2306.01
378.05	2320.35
378.27	2248.67
378.48	2273.25
378.69	2422.75
378.91	2254.81
379.12	2338.78
379.34	2226.14
379.55	2346.97
379.76	2224.09
379.98	2254.81
380.19	2248.67
380.41	2269.15
380.62	2312.16
380.83	2324.44
381.05	2183.13
381.26	2342.88
381.47	2334.68
381.69	2267.10
381.90	2349.02
382.12	2340.83
382.33	2267.10
382.54	2301.92
382.76	2318.30
382.97	2287.58
383.19	2162.66
383.40	2359.26
383.61	2316.25
383.83	2297.82
384.04	2295.77
384.25	2418.65
384.47	2385.88
384.68	2246.62
384.89	2306.01
385.11	2299.87
385.32	2351.07
385.54	2330.59
385.75	2353.12
385.96	2379.74
386.18	2367.45
386.39	2400.22
386.60	2326.49
386.82	2469.85
387.03	2369.50
387.24	2482.14
387.46	2461.66
387.67	2441.18
387.88	2557.91
388.10	2418.65
388.31	2555.86
388.52	2621.40
388.74	2488.28
388.95	2467.80
389.16	2510.81
389.38	2502.62
389.59	2557.91
389.80	2539.48
390.02	2559.96
390.23	2648.02
390.44	2527.19
390.66	2566.10
390.87	2543.58
391.08	2519.00
391.30	2682.84
391.51	2658.26
391.72	2600.92
391.94	2611.16
392.15	2623.45
392.36	2674.65
392.58	2576.34
392.79	2693.08
393.00	2707.41
393.22	2729.94
393.43	2680.79
393.64	2779.09
393.85	2772.95
394.07	2637.78
394.28	2731.99
394.49	2781.14
394.71	2715.61
394.92	2779.09
395.13	2648.02
395.35	2744.28
395.56	2760.66
395.77	2828.24
395.98	2836.44
396.20	2916.31
396.41	2850.77
396.62	2912.21
396.84	2893.78
397.05	2777.05
397.26	2805.72
397.47	2996.18
397.69	2822.10
397.90	3076.05
398.11	2981.84
398.32	2858.96
398.54	2842.58
398.75	2891.73
398.96	2906.07
399.18	3088.34
399.39	2973.65
399.60	2967.51
399.81	2824.15
400.03	2942.93
400.24	3248.08
400.45	3022.80
400.66	3008.47
400.88	3092.43
401.09	3174.35
401.30	3051.47
401.51	3119.06
401.73	3135.44
401.94	3041.23
402.15	3117.01
402.36	3239.89
402.58	3078.10
402.79	3098.58
403.00	3100.62
403.21	3192.78
403.43	3180.50
403.64	3342.28
403.85	3119.06
404.06	3350.48
404.27	3160.02
404.49	3223.50
404.70	3088.34
404.91	3350.48
405.12	3362.76
405.34	3227.60
405.55	3497.93
405.76	3196.88
405.97	3225.55
406.19	3387.34
406.40	3188.69
406.61	3399.63
406.82	3352.52
407.03	3284.94
407.25	3340.24
407.46	3438.54
407.67	3440.59
407.88	3497.93
408.09	3325.90
408.31	3282.89
408.52	3401.68
408.73	3338.19
408.94	3364.81
409.15	3416.01
409.37	3518.41
409.58	3581.90
409.79	3504.07
410.00	3604.42
410.21	3502.03
410.43	3477.45
410.64	3356.62
410.85	3518.41
411.06	3461.07
411.27	3577.80
411.48	3667.91
411.70	3551.18
411.91	3669.96
412.12	3657.67
412.33	3563.47
412.54	3663.82
412.76	3698.63
412.97	3731.40
413.18	3608.52
413.39	3600.33
413.60	3811.27
413.81	3844.04
414.03	3524.55
414.24	3567.56
414.45	3794.89
414.66	3573.71
414.87	3727.30
415.08	3788.74
415.30	3825.61
415.51	3807.17
415.72	3741.64
415.93	3700.68
416.14	3739.59
416.35	3706.82
416.56	3882.95
416.78	3794.89
416.99	3887.04
417.20	3768.26
417.41	4011.97
417.62	3876.80
417.83	3946.44
418.04	3968.96
418.26	3973.06
418.47	3792.84
418.68	3862.47
418.89	3971.01
419.10	4104.13
419.31	4014.02
419.52	4108.23
419.73	4030.40
419.95	4038.59
420.16	4036.55
420.37	4075.46
420.58	4065.22
420.79	4083.65
421.00	4116.42
421.21	4153.28
421.42	4046.79
421.63	4212.67
421.85	4288.45
422.06	4188.10
422.27	4190.14
422.48	4159.42
422.69	4265.92
422.90	4233.15
423.11	4196.29
423.32	4278.21
423.53	4392.89
423.75	4521.92
423.96	4437.95
424.17	4353.98
424.38	4491.20
424.59	4378.56
424.80	4556.73
425.01	4503.48
425.22	4415.42
425.43	4612.03
425.64	4546.49
425.85	4685.75
426.06	4485.05
426.28	4679.61
426.49	4480.96
426.70	4634.55
426.91	4538.30
427.12	4747.19
427.33	4767.67
427.54	4646.84
427.75	4794.29
427.96	4878.26
428.17	4747.19
428.38	4890.55
428.59	4843.45
428.80	4812.73
429.01	4847.54
429.23	4818.87
429.44	4958.13
429.65	4802.49
429.86	5042.10
430.07	4779.96
430.28	4894.65
430.49	5128.11
430.70	5140.40
430.91	5070.77
431.12	4874.17
431.33	5081.01
431.54	5244.85
431.75	4988.85
431.96	5191.60
432.17	5238.70
432.38	5154.74
432.59	5310.38
432.80	5250.99
433.01	5269.42
433.22	5402.54
433.43	5214.13
433.64	5332.91
433.85	5289.90
434.06	5556.14
434.27	5244.85
434.49	5412.78
434.70	5509.04
434.91	5533.61
435.12	5437.36
435.33	5410.73
435.54	5511.08
435.75	5441.45
435.96	5447.60
436.17	5330.86
436.38	5584.81
436.59	5701.54
436.80	5578.67
437.01	5941.16
437.22	5871.53
437.43	5740.46
437.64	5597.10
437.85	5713.83
438.06	5705.64
438.27	5711.78
438.48	5683.11
438.69	5730.22
438.90	5728.17
439.11	5607.34
439.32	5937.06
439.53	5781.42
439.74	5853.09
439.95	5935.01
440.16	5830.57
440.37	5889.96
440.57	5861.29
440.78	5957.54
440.99	6098.85
441.20	6043.56
441.41	5875.62
441.62	5949.35
441.83	5916.58
442.04	6102.95
442.25	6158.24
442.46	5988.26
442.67	6158.24
442.88	6586.27
443.09	6031.27
443.30	6061.99
443.51	6215.59
443.72	6428.57
443.93	6283.17
444.14	6526.88
444.35	6080.42
444.56	6328.22
444.77	6336.42
444.98	6502.30
445.19	6393.76
445.40	6483.87
445.61	6404.00
445.81	6563.74
446.02	6481.82
446.23	6389.66
446.44	6197.15
446.65	6539.16
446.86	6545.31
447.07	6655.90
447.28	6762.39
447.49	6715.29
447.70	6496.16
447.91	6522.78
448.12	6657.95
448.33	6823.83
448.54	6864.79
448.74	6825.88
448.95	6799.26
449.16	6866.84
449.37	7139.22
449.58	6868.89
449.79	7272.34
450.00	6862.74
450.21	7012.24
450.42	7133.08
450.63	7051.16
450.84	6915.99
451.05	7090.07
451.25	6961.05
451.46	7161.75
451.67	7303.06
451.88	7155.60
452.09	7233.43
452.30	7131.03
452.51	7219.09
452.72	7282.58
452.93	7526.29
453.13	7214.99
453.34	7217.04
453.55	7274.38
453.76	7554.96
453.97	7813.00
454.18	7487.37
454.39	7614.35
454.60	7505.81
454.81	7542.67
455.01	7712.65
455.22	7573.39
455.43	7559.05
455.64	7903.11
455.85	7911.30
456.06	8105.86
456.27	7907.21
456.48	7776.14
456.68	7851.91
456.89	8038.28
457.10	8167.30
457.31	8021.89
457.52	7880.58
457.73	8253.31
457.94	8425.34
458.14	8054.66
458.35	8476.54
458.56	8206.21
458.77	8132.48
458.98	8195.97
459.19	8443.78
459.39	8451.97
459.60	8425.34
459.81	8474.49
460.02	8525.69
460.23	8669.05
460.44	8753.02
460.65	8714.11
460.85	8935.29
461.06	8802.17
461.27	8585.08
461.48	8869.75
461.69	9140.08
461.89	8664.96
462.10	8847.22
462.31	8744.83
462.52	8695.68
462.73	9121.65
462.94	9248.63
463.14	9211.76
463.35	9135.99
463.56	9525.10
463.77	9310.07
463.98	9228.15
464.18	9207.67
464.39	9629.55
464.60	9615.21
464.81	9547.63
465.02	9541.49
465.23	9693.04
465.43	9490.29
465.64	9760.62
465.85	9766.76
466.06	9488.24
466.27	9764.72
466.47	9918.31
466.68	9994.09
466.89	10108.77
467.10	10092.39
467.30	10004.33
467.51	9992.04
467.72	10354.53
467.93	10014.57
468.14	10276.71
468.34	10434.40
468.55	10438.50
468.76	10456.93
468.97	10504.03
469.17	10710.88
469.38	10915.67
469.59	10919.77
469.80	10829.66
470.01	10917.72
470.21	10866.52
470.42	11171.67
470.63	10975.06
470.84	11061.08
471.04	11292.50
471.25	11243.35
471.46	11257.68
471.67	11661.13
471.87	11317.08
472.08	11644.75
472.29	11841.36
472.50	11568.98
472.70	11736.91
472.91	11786.06
473.12	11937.61
473.33	12015.43
473.53	12392.26
473.74	12246.85
473.95	12431.17
474.16	12216.13
474.36	12457.79
474.57	12359.49
474.78	12650.30
474.99	12500.80
475.19	12586.82
475.40	13119.29
475.61	12920.63
475.81	13197.11
476.02	13070.14
476.23	13346.61
476.44	13328.18
476.64	13627.18
476.85	13774.64
477.06	13813.55
477.27	13860.65
477.47	13844.27
477.68	13707.05
477.89	14085.93
478.09	13971.24
478.30	14065.45
478.51	14311.21
478.71	14516.00
478.92	14419.75
479.13	14421.80
479.34	14636.83
479.54	14866.21
479.75	14866.21
479.96	14851.87
480.16	15122.20
480.37	15062.81
480.58	15251.22
480.78	15316.76
480.99	15320.85
481.20	15437.59
481.41	15476.50
481.61	15621.91
481.82	15638.29
482.03	15845.13
482.23	15865.61
482.44	16183.05
482.65	16176.91
482.85	16289.54
483.06	16305.93
483.27	16383.75
483.47	16398.09
483.68	16523.01
483.89	16477.96
484.09	16736.00
484.30	16836.35
484.51	17078.01
484.71	17151.74
484.92	17116.92
485.13	17301.24
485.33	17133.31
485.54	17362.68
485.75	17426.17
485.95	17592.05
486.16	17798.90
486.37	17913.58
486.57	17598.20
486.78	17823.47
486.98	17815.28
487.19	18202.35
487.40	18396.90
487.60	18040.56
487.81	18423.53
488.02	18194.15
488.22	18130.67
488.43	18624.23
488.64	18720.48
488.84	18826.98
489.05	18945.76
489.25	19025.63
489.46	19121.88
489.67	18990.81
489.87	19097.31
490.08	19091.16
490.29	19162.84
490.49	19623.64
490.70	19558.10
490.90	19621.59
491.11	19613.40
491.32	19773.14
491.52	19826.39
491.73	19936.98
491.94	19803.86
492.14	20047.57
492.35	20338.38
492.55	20289.23
492.76	20395.72
492.97	20365.00
493.17	20471.50
493.38	20481.74
493.58	20745.92
493.79	20698.82
494.00	20823.75
494.20	20926.14
494.41	21161.66
494.61	20920.00
494.82	21180.09
495.02	21247.68
495.23	21149.37
495.44	21163.71
495.64	21479.10
495.85	21296.83
496.05	21655.22
496.26	21690.04
496.47	21874.35
496.67	21616.31
496.88	22093.49
497.08	21862.07
497.29	22279.85
497.49	22122.16
497.70	22283.95
497.91	22306.48
498.11	22349.48
498.32	22558.38
498.52	22724.26
498.73	22812.32
498.93	22646.44
499.14	22994.59
499.34	22757.03
499.55	23217.82
499.76	22730.41
499.96	23240.35
500.17	23053.98
500.37	23074.46
500.58	23176.86
500.78	23496.35
500.99	23502.49
501.19	23635.61
501.40	23410.33
501.60	23318.17
501.81	23864.98
502.02	23684.76
502.22	23748.25
502.43	23733.91
502.63	23996.05
502.84	24065.68
503.04	24114.83
503.25	24256.14
503.45	24075.92
503.66	24618.63
503.86	24250.00
504.07	24708.74
504.27	24524.43
504.48	24917.64
504.68	24438.41
504.89	24718.98
505.09	24860.29
505.30	24583.82
505.50	25065.09
505.71	25413.24
505.91	25048.71
506.12	24876.68
506.32	25450.11
506.53	25329.28
506.73	25605.75
506.94	25437.82
507.14	25362.04
507.35	25695.86
507.55	25638.52
507.76	26074.74
507.96	25683.58
508.17	25685.62
508.37	26023.54
508.58	26076.79
508.78	25947.76
508.99	26383.98
509.19	26205.81
509.40	26396.27
509.60	26664.55
509.81	26422.89
510.01	26367.60
510.22	26594.92
510.42	26996.32
510.63	26873.45
510.83	26592.87
511.04	26701.42
511.24	26967.65
511.44	26986.08
511.65	26879.59
511.85	27172.45
512.06	27397.73
512.26	27162.21
512.47	27170.40
512.67	27141.73
512.88	27463.26
513.08	27014.76
513.29	27563.61
513.49	27526.75
513.69	27536.99
513.90	27676.25
514.10	27702.87
514.31	27944.53
514.51	27844.18
514.72	27801.18
514.92	27768.41
515.13	27795.03
515.33	27971.16
515.53	28186.19
515.74	28098.13
515.94	28264.02
516.15	28524.11
516.35	28077.65
516.56	28540.49
516.76	28264.02
516.96	28362.32
517.17	28778.06
517.37	28454.48
517.58	28505.68
517.78	28819.02
517.99	28716.62
518.19	28810.82
518.39	28814.92
518.60	29443.65
518.80	28978.76
519.01	29132.36
519.21	29163.08
519.41	29216.32
519.62	29134.40
519.82	29054.53
520.03	29630.01
520.23	29464.13
520.43	29109.83
520.64	29689.40
520.84	29818.42
521.05	29711.93
521.25	29716.03
521.45	30060.09
521.66	30053.94
521.86	29830.71
522.07	30182.96
522.27	30291.51
522.47	30004.79
522.68	30594.61
522.88	30252.59
523.08	30445.10
523.29	30254.64
523.49	30701.10
523.70	30672.43
523.90	30651.95
524.10	30842.41
524.31	31215.14
524.51	30799.40
524.71	31297.06
524.92	30559.79
525.12	31008.29
525.33	31096.36
525.53	31569.44
525.73	31497.76
525.94	31520.29
526.14	31669.79
526.34	31573.53
526.55	31837.72
526.75	31637.02
526.95	31962.65
527.16	31686.17
527.36	31860.25
527.56	32372.24
527.77	32560.66
527.97	32196.12
528.17	32257.56
528.38	32095.77
528.58	32343.57
528.78	32312.85
528.99	32618.00
529.19	32423.44
529.39	32480.78
529.60	33291.78
529.80	32454.16
530.00	32933.39
530.21	33097.22
530.41	33154.57
530.61	33011.21
530.82	33058.31
531.02	33031.69
531.22	33650.17
531.43	33400.32
531.63	33494.53
531.83	33533.44
532.04	33916.41
532.24	33617.41
532.44	34104.82
532.64	34395.64
532.85	34348.53
533.05	34420.21
533.25	34108.92
533.46	34213.37
533.66	34647.54
533.86	34321.91
534.07	34672.11
534.27	34481.65
534.47	35100.14
534.67	34792.94
534.88	34797.04
535.08	34838.00
535.28	35251.69
535.49	34942.44
535.69	35450.34
535.89	35462.63
536.09	35306.98
536.30	35810.78
536.50	35745.25
536.70	35767.77
536.91	35329.51
537.11	35991.00
537.31	35966.43
537.51	35900.89
537.72	35978.72
537.92	36474.32
538.12	36609.49
538.32	36376.02
538.53	36498.90
538.73	36488.66
538.93	36666.83
539.13	36660.69
539.34	36722.13
539.54	36840.91
539.74	37172.68
539.94	37146.06
540.15	37207.50
540.35	37440.96
540.55	37629.38
540.75	37176.78
540.96	37357.00
541.16	37137.87
541.36	37270.98
541.56	37760.45
541.77	38247.86
541.97	37512.64
542.17	37758.40
542.37	38131.13
542.58	38206.90
542.78	38010.30
542.98	38000.06
543.18	38516.15
543.38	38921.65
543.59	38612.40
543.79	38290.87
543.99	38489.52
544.19	38663.60
544.40	38577.59
544.60	38837.68
544.80	38843.82
545.00	38659.51
545.20	39253.42
545.41	39194.03
545.61	39013.80
545.81	39402.92
546.01	39695.78
546.21	39452.07
546.42	39308.71
546.62	39519.65
546.82	39544.23
547.02	39572.90
547.22	39890.34
547.43	39787.94
547.63	39966.11
547.83	40228.25
548.03	39550.37
548.23	40344.98
548.44	40125.85
548.64	40498.58
548.84	40326.55
549.04	40293.79
549.24	40666.52
549.45	40957.33
549.65	40619.41
549.85	40809.87
550.05	40910.22
550.25	40600.98
550.45	41321.87
550.66	41225.61
550.86	40906.13
551.06	41399.69
551.26	41246.09
551.46	41096.59
551.66	41237.90
551.87	41428.36
552.07	41391.50
552.27	41526.66
552.47	41518.47
552.67	41547.14
552.87	41684.36
553.07	41758.08
553.28	41782.66
553.48	41733.51
553.68	41559.43
553.88	42034.56
554.08	41971.07
554.28	41858.43
554.48	42024.32
554.69	42136.96
554.89	42319.23
555.09	42212.73
555.29	42530.17
555.49	42206.59
555.69	42573.17
555.89	42624.37
556.10	42997.10
556.30	42403.19
556.50	42491.26
556.70	42780.02
556.90	42702.20
557.10	43029.87
557.30	42476.92
557.50	42814.83
557.70	42962.29
557.91	43365.74
558.11	42767.73
558.31	43406.70
558.51	42927.47
558.71	43103.60
558.91	43357.55
559.11	43066.73
559.31	43447.66
559.51	43046.26
559.72	43505.00
559.92	43269.48
560.12	43040.11
560.32	43658.60
560.52	43244.91
560.72	43724.13
560.92	43433.32
561.12	43337.07
561.32	44275.04
561.52	43443.56
561.72	43994.46
561.93	43631.97
562.13	43799.91
562.33	43195.76
562.53	44395.87
562.73	43578.73
562.93	43953.51
563.13	43892.07
563.33	43738.47
563.53	44066.14
563.73	43779.43
563.93	43990.37
564.13	44342.62
564.33	44316.00
564.53	43939.17
564.74	44397.91
564.94	44371.29
565.14	44098.91
565.34	44248.41
565.54	44279.13
565.74	44348.76
565.94	44836.18
566.14	44170.59
566.34	44641.62
566.54	44959.06
566.74	44170.59
566.94	44528.98
567.14	44844.37
567.34	44289.37
567.54	44696.92
567.74	44281.18
567.94	44387.67
568.14	45094.22
568.34	44838.23
568.54	44760.40
568.74	44879.19
568.94	44741.97
569.14	45073.74
569.34	45069.65
569.54	44942.67
569.75	44514.65
569.95	45307.21
570.15	45217.10
570.35	44948.82
570.55	44936.53
570.75	45331.79
570.95	45241.68
571.15	45122.90
571.35	45086.03
571.55	45423.95
571.75	45040.98
571.95	45446.47
572.15	45366.60
572.35	45163.85
572.55	45389.13
572.75	45460.81
572.95	45636.94
573.15	45696.33
573.35	45360.46
573.55	45421.90
573.75	45385.04
573.95	45937.99
574.15	45258.06
574.35	45983.04
574.55	45733.19
574.75	45227.34
574.95	45473.10
575.15	45937.99
575.34	45899.08
575.54	45815.11
575.74	46069.06
575.94	45933.89
576.14	46189.89
576.34	45907.27
576.54	46263.61
576.74	46347.58
576.94	45897.03
577.14	46136.64
577.34	46497.08
577.54	46183.74
577.74	46546.23
577.94	46341.44
578.14	46282.05
578.34	46597.43
578.54	45962.56
578.74	46286.14
578.94	46449.98
579.14	46456.12
579.34	46245.18
579.54	47043.89
579.74	47297.84
579.94	47009.07
580.13	46996.79
580.33	46863.67
580.53	47156.53
580.73	47160.62
580.93	47076.66
581.13	47129.90
581.33	46884.15
581.53	47254.83
581.73	46814.52
581.93	47340.85
582.13	47316.27
582.33	47496.49
582.53	47316.27
582.73	47574.31
582.92	47559.98
583.12	47611.18
583.32	47398.19
583.52	47291.69
583.72	47973.67
583.92	47506.73
584.12	47752.49
584.32	48047.39
584.52	48057.63
584.72	47875.37
584.92	47945.00
585.11	48522.52
585.31	47969.57
585.51	47977.76
585.71	48108.83
585.91	48413.98
586.11	48225.57
586.31	48200.99
586.51	48604.44
586.71	48669.98
586.91	48526.62
587.10	48755.99
587.30	48678.17
587.50	48899.35
587.70	48608.54
587.90	48839.96
588.10	48973.08
588.30	48897.30
588.50	49175.83
588.69	48833.81
588.89	48383.26
589.09	49435.92
589.29	49169.68
589.49	49362.19
589.69	49179.92
589.89	49642.76
590.08	49407.25
590.28	49904.90
590.48	49345.81
590.68	49337.62
590.88	49734.92
591.08	49779.98
591.28	49663.24
591.47	49671.43
591.67	50246.91
591.87	50015.49
592.07	49745.16
592.27	50083.08
592.47	50156.80
592.67	50001.16
592.86	50169.09
593.06	50074.88
593.26	50373.89
593.46	50255.11
593.66	50275.58
593.86	50545.92
594.05	50289.92
594.25	50349.31
594.45	50451.71
594.65	50781.43
594.85	50318.59
595.05	50734.33
595.24	50918.65
595.44	50734.33
595.64	50918.65
595.84	50988.28
596.04	51008.76
596.23	51010.81
596.43	51684.59
596.63	50885.88
596.83	51299.57
597.03	51592.43
597.22	51922.15
597.42	51541.23
597.62	51791.08
597.82	51328.24
598.02	51965.16
598.21	52016.36
598.41	51829.99
598.61	51834.09
598.81	52245.73
599.01	51977.45
599.20	51703.02
599.40	51993.83
599.60	52204.77
599.80	52026.60
600.00	52473.06
600.19	52282.59
600.39	52253.92
600.59	52491.49
600.79	52182.24
600.98	52110.56
601.18	52401.38
601.38	52798.68
601.58	52458.72
601.78	52866.27
601.97	52909.27
602.17	53218.52
602.37	53253.33
602.57	52987.10
602.76	53308.63
602.96	53124.31
603.16	53271.76
603.36	53408.98
603.55	54131.91
603.75	53783.76
603.95	54205.64
604.15	53755.08
604.34	53728.46
604.54	54150.34
604.74	53466.32
604.94	53894.35
605.13	53908.68
605.33	54252.74
605.53	53724.36
605.73	54318.28
605.92	53605.58
606.12	54494.40
606.32	54131.91
606.52	54056.14
606.71	54127.81
606.91	54492.35
607.11	54043.85
607.30	54553.79
607.50	54580.42
607.70	54244.55
607.90	54547.65
608.09	54564.03
608.29	54615.23
608.49	54754.49
608.68	54621.37
608.88	55073.98
609.08	55207.09
609.28	54940.86
609.47	54760.64
609.67	55180.47
609.87	54854.84
610.06	55321.78
610.26	54973.63
610.46	55350.45
610.66	55143.61
610.85	55665.84
611.05	55219.38
611.25	54854.84
611.44	55182.52
611.64	55286.96
611.84	54676.67
612.03	54709.44
612.23	55051.45
612.43	55497.91
612.62	55223.48
612.82	55155.89
613.02	54865.08
613.21	55606.45
613.41	54875.32
613.61	55432.37
613.80	54709.44
614.00	55235.77
614.20	55309.49
614.39	55252.15
614.59	55137.46
614.79	55342.26
614.98	54807.74
615.18	55430.32
615.38	55338.16
615.57	55426.23
615.77	55203.00
615.97	55440.56
616.16	55489.71
616.36	55174.33
616.56	55411.89
616.75	55323.83
616.95	54826.17
617.15	55493.81
617.34	55483.57
617.54	55143.61
617.74	55508.14
617.93	55475.38
618.13	54908.09
618.32	55448.75
618.52	54850.75
618.72	55356.60
618.91	55420.08
619.11	55319.73
619.31	55276.72
619.50	55186.61
619.70	54756.54
619.90	54918.33
620.09	55348.40
620.29	54932.67
620.48	55268.53
620.68	55205.05
620.88	54731.96
621.07	55229.62
621.27	55162.04
621.46	54500.54
621.66	54725.82
621.86	54977.72
622.05	54559.94
622.25	55051.45
622.44	54699.20
622.64	54881.47
622.84	54793.40
623.03	54758.59
623.23	54893.75
623.42	54883.51
623.62	55116.98
623.82	55151.80
624.01	55108.79
624.21	55192.76
624.40	55084.22
624.60	54594.75
624.80	54774.97
624.99	54678.72
625.19	54373.57
625.38	54717.63
625.58	54521.02
625.77	54437.06
625.97	54854.84
626.17	54363.33
626.36	54338.75
626.56	54727.87
626.75	54209.73
626.95	55112.89
627.14	54713.53
627.34	54928.57
627.54	54602.94
627.73	54797.50
627.93	54678.72
628.12	54234.31
628.32	54574.27
628.51	54389.95
628.71	54334.66
628.90	54369.47
629.10	54518.98
629.30	54625.47
629.49	54455.49
629.69	54695.10
629.88	54326.47
630.08	55055.54
630.27	54682.81
630.47	55182.52
630.66	54666.43
630.86	54836.41
631.05	54420.67
631.25	55018.68
631.44	54426.82
631.64	54205.64
631.84	54367.43
632.03	55243.96
632.23	54742.20
632.42	54314.18
632.62	54697.15
632.81	54584.51
633.01	54688.96
633.20	54772.92
633.40	54676.67
633.59	54850.75
633.79	54394.05
633.98	54559.94
634.18	54994.10
634.37	54811.84
634.57	54555.84
634.76	54746.30
634.96	54844.60
635.15	54441.15
635.35	54486.21
635.54	54471.87
635.74	54901.95
635.93	54789.31
636.13	55094.46
636.32	54867.13
636.52	54277.32
636.71	54533.31
636.91	54768.83
637.10	54252.74
637.30	54576.32
637.49	54539.46
637.69	54860.99
637.88	55033.02
638.08	54461.63
638.27	54928.57
638.46	54826.17
638.66	54629.57
638.85	54918.33
639.05	55151.80
639.24	55182.52
639.44	54711.49
639.63	55014.58
639.83	54779.07
640.02	54793.40
640.22	55170.23
640.41	55090.36
640.61	54949.05
640.80	54785.21
640.99	54736.06
641.19	55493.81
641.38	54850.75
641.58	55243.96
641.77	54609.09
641.97	54912.19
642.16	54740.16
642.36	55022.78
642.55	55229.62
642.74	55051.45
642.94	55647.41
643.13	55254.20
643.33	55239.86
643.52	55532.72
643.72	55481.52
643.91	55119.03
644.10	55489.71
644.30	55907.50
644.49	55577.78
644.69	55452.85
644.88	55356.60
645.08	55223.48
645.27	55559.34
645.46	55581.87
645.66	55309.49
645.85	55467.19
646.05	55700.65
646.24	55495.86
646.43	55866.54
646.63	56243.37
646.82	55975.08
647.02	56030.38
647.21	56081.58
647.40	55792.81
647.60	56130.73
647.79	56341.67
647.99	56171.69
648.18	55989.42
648.37	56280.23
648.57	56407.20
648.76	56382.63
648.96	55944.36
649.15	56435.87
649.34	56276.13
649.54	56568.99
649.73	56167.59
649.92	56435.87
650.12	56095.91
650.31	56304.80
650.51	56321.19
650.70	56468.64
650.89	56087.72
651.09	57238.68
651.28	56927.39
651.47	56550.56
651.67	56114.34
651.86	56888.48
652.06	55948.46
652.25	56448.16
652.44	56444.07
652.64	56628.38
652.83	56474.79
653.02	56663.20
653.22	56384.68
653.41	56671.39
653.60	56534.18
653.80	56874.14
653.99	56984.73
654.18	56736.93
654.38	56769.69
654.57	57234.58
654.76	56988.83
654.96	56859.80
655.15	56634.53
655.34	56624.29
655.54	56540.32
655.73	56974.49
655.92	56929.44
656.12	57013.40
656.31	56855.71
656.50	57169.05
656.70	56960.15
656.89	57343.12
657.08	57234.58
657.28	56917.15
657.47	57066.65
657.66	57011.35
657.86	56919.20
658.05	57300.12
658.24	57562.26
658.43	56714.40
658.63	57554.07
658.82	57541.78
659.01	57541.78
659.21	57339.03
659.40	57382.04
659.59	57382.04
659.79	57210.01
659.98	57296.02
660.17	57234.58
660.36	57336.98
660.56	57341.08
660.75	57545.87
660.94	57455.76
661.14	57080.98
661.33	57744.53
661.52	57384.08
661.71	57345.17
661.91	57582.74
662.10	57037.98
662.29	57810.06
662.49	57664.66
662.68	57621.65
662.87	57607.31
663.06	57857.17
663.26	57732.24
663.45	57824.40
663.64	57670.80
663.83	58074.25
664.03	57855.12
664.22	57857.17
664.41	57736.34
664.60	57582.74
664.80	57865.36
664.99	57750.67
665.18	57515.15
665.37	57959.56
665.57	57924.75
665.76	57437.33
665.95	57889.93
666.14	57703.57
666.34	57758.86
666.53	57392.28
666.72	58021.00
666.91	57681.04
667.11	57705.62
667.30	58004.62
667.49	57916.56
667.68	57676.94
667.87	57703.57
668.07	58023.05
668.26	57742.48
668.45	57930.89
668.64	57478.29
668.84	58360.97
669.03	58109.07
669.22	58025.10
669.41	58010.76
669.60	57904.27
669.80	58178.70
669.99	57978.00
670.18	57758.86
670.37	57898.12
670.57	58119.31
670.76	57652.37
670.95	57824.40
671.14	57549.97
671.33	57666.70
671.53	58287.24
671.72	57670.80
671.91	57681.04
672.10	57263.25
672.29	57713.81
672.48	57351.32
672.68	57722.00
672.87	57472.15
673.06	57353.36
673.25	57359.51
673.44	57560.21
673.64	57306.26
673.83	57095.32
674.02	57513.11
674.21	57265.30
674.40	57715.86
674.59	57414.80
674.79	57289.88
674.98	56722.59
675.17	57304.21
675.36	57320.60
675.55	58045.58
675.74	57140.38
675.94	57119.90
676.13	57162.90
676.32	57595.03
676.51	57611.41
676.70	56990.87
676.89	57400.47
677.08	57660.56
677.28	57275.54
677.47	57504.91
677.66	57971.85
677.85	56954.01
678.04	57308.31
678.23	57234.58
678.42	57398.42
678.62	57167.00
678.81	57406.61
679.00	57349.27
679.19	57664.66
679.38	57238.68
679.57	57191.58
679.76	57191.58
679.96	57189.53
680.15	57642.13
680.34	56898.72
680.53	56870.04
680.72	56667.30
680.91	57144.47
681.10	57119.90
681.29	57332.89
681.48	57146.52
681.68	56886.43
681.87	56603.81
682.06	56720.54
682.25	56439.97
682.44	56636.58
682.63	56640.67
682.82	56951.96
683.01	56616.10
683.20	56331.43
683.39	56532.13
683.59	56487.07
683.78	56167.59
683.97	56446.11
684.16	56495.27
684.35	56499.36
684.54	56458.40
684.73	56349.86
684.92	56269.99
685.11	56026.28
685.30	55678.13
685.49	56022.19
685.69	55790.76
685.88	55985.32
686.07	55973.03
686.26	55780.52
686.45	56104.10
686.64	55997.61
686.83	55874.73
687.02	55583.92
687.21	56167.59
687.40	55600.30
687.59	55811.24
687.78	55936.17
687.97	55858.35
688.16	55639.22
688.35	55768.24
688.54	55588.02
688.74	56143.02
688.93	55252.15
689.12	55336.12
689.31	55366.84
689.50	55801.00
689.69	55444.66
689.88	55073.98
690.07	55368.88
690.26	55755.95
690.45	55899.31
690.64	55000.25
690.83	54840.51
691.02	54918.33
691.21	54881.47
691.40	54899.90
691.59	55491.76
691.78	55731.37
691.97	55080.12
692.16	54922.43
692.35	54893.75
692.54	55057.59
692.73	54863.03
692.92	55129.27
693.11	54674.62
693.30	54801.60
693.49	54779.07
693.68	55268.53
693.87	54930.62
694.06	54572.22
694.25	54555.84
694.44	54858.94
694.63	54357.19
694.82	54744.25
695.01	54664.38
695.20	54482.11
695.39	54328.52
695.58	54379.71
695.77	54097.09
695.96	54086.85
696.15	54498.50
696.34	53918.92
696.53	54049.99
696.72	54711.49
696.91	53947.59
697.10	54170.82
697.29	54197.44
697.48	54457.54
697.67	54187.21
697.86	53478.61
698.05	53877.96
698.24	54109.38
698.43	54080.71
698.62	53877.96
698.81	53548.24
699.00	54088.90
699.19	53599.44
699.38	53908.68
699.57	53134.55
699.76	54449.35
699.95	53636.30
700.14	53288.15
700.32	53320.91
700.51	53296.34
700.70	53785.80
700.89	53329.11
701.08	53314.77
701.27	53345.49
701.46	53763.28
701.65	53120.21
701.84	53484.75
702.03	53523.66
702.22	53247.19
702.41	53204.18
702.60	53484.75
702.79	52800.73
702.98	52684.00
703.17	53212.37
703.35	53048.53
703.54	53013.72
703.73	53488.85
703.92	53165.27
704.11	52913.37
704.30	53109.97
704.49	53152.98
704.68	52708.57
704.87	53046.49
705.06	52892.89
705.25	52643.04
705.43	52942.04
705.62	52733.15
705.81	52665.56
706.00	52655.32
706.19	52702.43
706.38	52073.70
706.57	52919.51
706.76	52552.93
706.95	52614.37
707.14	52792.54
707.32	52053.22
707.51	52321.51
707.70	52499.68
707.89	52487.39
708.08	52065.51
708.27	52360.42
708.46	52638.94
708.65	51758.31
708.84	52425.95
709.02	52268.26
709.21	52634.84
709.40	52618.46
709.59	52307.17
709.78	51780.84
709.97	52311.27
710.16	52102.37
710.34	52548.83
710.53	52262.11
710.72	51950.82
710.91	51819.75
711.10	52350.18
711.29	52245.73
711.48	52493.54
711.66	52114.66
711.85	51569.90
712.04	51594.48
712.23	52053.22
712.42	51633.39
712.61	51770.60
712.80	51930.34
712.98	51963.11
713.17	51406.06
713.36	51592.43
713.55	51825.90
713.74	51555.57
713.93	52110.56
714.11	51799.27
714.30	51739.88
714.49	51795.18
714.68	51580.14
714.87	51447.02
715.06	51805.42
715.24	51737.83
715.43	51283.19
715.62	51373.30
715.81	51504.37
716.00	51371.25
716.18	51027.19
716.37	50869.50
716.56	51217.65
716.75	51698.92
716.94	51639.53
717.12	51066.10
717.31	51145.97
717.50	51576.04
717.69	51426.54
717.88	51000.57
718.06	51213.55
718.25	51483.89
718.44	50973.94
718.63	50844.92
718.82	50570.49
719.00	51105.01
719.19	50799.86
719.38	50926.84
719.57	50099.46
719.76	50652.41
719.94	50515.20
720.13	50451.71
720.32	50783.48
720.51	50588.92
720.69	50648.32
720.88	50382.08
721.07	50629.88
721.26	50287.87
721.44	50353.41
721.63	50181.38
721.82	50140.42
722.01	49995.01
722.20	49923.33
722.38	50017.54
722.57	49409.29
722.76	49849.61
722.95	50242.82
723.13	49511.69
723.32	49954.05
723.51	49810.70
723.70	49476.88
723.88	49720.59
724.07	49616.14
724.26	49571.08
724.44	49063.19
724.63	50306.30
724.82	49456.40
725.01	49849.61
725.19	49423.63
725.38	49310.99
725.57	49378.57
725.76	49220.88
725.94	48848.15
726.13	49011.99
726.32	49423.63
726.51	49177.87
726.69	49722.63
726.88	49591.56
727.07	49698.06
727.25	49587.47
727.44	49442.06
727.63	49181.97
727.82	49345.81
728.00	49542.41
728.19	49784.07
728.38	49667.34
728.56	48805.14
728.75	49575.18
728.94	49501.45
729.12	49333.52
729.31	49351.95
729.50	48923.93
729.69	49267.98
729.87	49290.51
730.06	48823.58
730.25	49016.08
730.43	49894.66
730.62	49241.36
730.81	49523.98
730.99	49753.35
731.18	49194.26
731.37	49601.80
731.55	49632.52
731.74	49693.96
731.93	49452.30
732.11	49421.58
732.30	49542.41
732.49	48934.17
732.67	48975.12
732.86	49427.73
733.05	49155.35
733.23	49116.43
733.42	49204.50
733.61	49016.08
733.79	49517.84
733.98	49259.79
734.17	48811.29
734.35	49206.55
734.54	49364.24
734.73	49235.22
734.91	49087.76
735.10	48882.97
735.29	49386.77
735.47	48487.71
735.66	49120.53
735.84	48731.42
736.03	49116.43
736.22	48813.34
736.40	48960.79
736.59	48805.14
736.78	48925.97
736.96	48819.48
737.15	48917.78
737.33	48721.18
737.52	48751.90
737.71	48780.57
737.89	48737.56
738.08	48633.11
738.27	48354.59
738.45	48977.17
738.64	49009.94
738.82	48680.22
739.01	48827.67
739.20	48651.55
739.38	48483.61
739.57	48647.45
739.75	48418.08
739.94	48284.96
740.13	48465.18
740.31	48248.10
740.50	48155.94
740.68	48307.49
740.87	48463.13
741.06	48327.97
741.24	48153.89
741.43	47951.14
741.61	48370.97
741.80	48039.20
741.99	48133.41
742.17	48244.00
742.36	48604.44
742.54	48057.63
742.73	47953.19
742.91	48317.73
743.10	48090.40
743.29	48293.15
743.47	48166.18
743.66	48022.82
743.84	48301.34
744.03	48289.06
744.21	47398.19
744.40	48108.83
744.59	47848.74
744.77	47576.36
744.96	47750.44
745.14	47699.24
745.33	47498.54
745.51	47232.30
745.70	47734.06
745.88	47576.36
746.07	47760.68
746.26	47328.56
746.44	47248.69
746.63	47222.06
746.81	47691.05
747.00	47125.81
747.18	47310.13
747.37	47052.08
747.55	47107.38
747.74	47441.20
747.92	47076.66
748.11	47174.96
748.29	47058.23
748.48	46898.48
748.66	46937.40
748.85	46851.38
749.03	47093.04
749.22	47070.51
749.41	46966.07
749.59	47201.58
749.78	46243.13
749.96	46525.75
750.15	46941.49
750.33	47103.28
750.52	46736.69
750.70	46650.68
750.89	46343.48
751.07	46495.03
751.26	46656.82
751.44	46310.72
751.63	46355.77
751.81	46003.52
752.00	46439.74
752.18	46542.14
752.37	46228.80
752.55	45649.22
752.74	46044.48
752.92	46155.07
753.10	45626.70
753.29	46343.48
753.47	45540.68
753.66	45733.19
753.84	45753.67
754.03	45770.05
754.21	45716.81
754.40	45983.04
754.58	45884.74
754.77	45872.45
754.95	45350.22
755.14	45538.63
755.32	45589.83
755.51	45241.68
755.69	45464.91
755.88	45399.37
756.06	45315.40
756.24	45399.37
756.43	45243.73
756.61	45221.20
756.80	45012.31
756.98	44676.44
757.17	45006.16
757.35	45096.27
757.54	44610.90
757.72	45102.42
757.90	44764.50
758.09	44752.21
758.27	45014.35
758.46	44651.86
758.64	44594.52
758.83	44545.37
759.01	44510.55
759.19	44504.41
759.38	44610.90
759.56	44707.16
759.75	44615.00
759.93	44408.15
760.12	44096.86
760.30	44707.16
760.48	44381.53
760.67	44229.98
760.85	44203.36
761.04	44111.20
761.22	44043.62
761.40	43926.88
761.59	43978.08
761.77	43652.45
761.96	43795.81
762.14	44127.58
762.32	43717.99
762.51	43887.97
762.69	43677.03
762.88	43926.88
763.06	43564.39
763.24	43570.54
763.43	43390.31
763.61	43410.79
763.80	43382.12
763.98	43144.56
764.16	43040.11
764.35	42788.21
764.53	43289.96
764.72	43066.73
764.90	42673.52
765.08	42988.91
765.27	43029.87
765.45	42595.70
765.63	42524.02
765.82	42515.83
766.00	42564.98
766.18	42685.81
766.37	42390.91
766.55	42544.50
766.74	42595.70
766.92	42370.43
767.10	42321.27
767.29	42468.73
767.47	41950.59
767.65	42100.09
767.84	41940.35
768.02	42413.43
768.20	41919.87
768.39	42024.32
768.57	42096.00
768.75	41475.46
768.94	41930.11
769.12	41905.54
769.30	41700.74
769.49	41993.60
769.67	41844.10
769.85	41647.49
770.04	41538.95
770.22	41588.10
770.40	41422.22
770.59	40942.99
770.77	41459.08
770.95	41635.20
771.14	41379.21
771.32	40701.33
771.50	40969.61
771.69	40998.29
771.87	41002.38
772.05	40813.97
772.24	40891.79
772.42	40926.61
772.60	40687.00
772.78	41002.38
772.97	40906.13
773.15	40727.95
773.33	40547.73
773.52	40523.16
773.70	40623.51
773.88	41104.78
774.07	40316.31
774.25	40545.69
774.43	40658.32
774.61	40641.94
774.80	41041.29
774.98	40572.31
775.16	40383.90
775.34	40936.85
775.53	40650.13
775.71	40922.51
775.89	40301.98
776.08	39935.39
776.26	40543.64
776.44	40662.42
776.62	40252.83
776.81	40523.16
776.99	40859.02
777.17	40461.72
777.35	40551.83
777.54	40504.73
777.72	40068.51
777.90	40650.13
778.08	41024.91
778.27	40396.18
778.45	40922.51
778.63	41112.97
778.81	40238.49
779.00	41098.64
779.18	40916.37
779.36	40930.70
779.54	40424.86
779.73	40969.61
779.91	41457.03
780.09	40912.27
780.27	41223.56
780.46	41334.15
780.64	40785.30
780.82	40840.59
781.00	40517.01
781.19	41239.95
781.37	41475.46
781.55	41313.67
781.73	41311.63
781.91	41000.33
782.10	41268.62
782.28	41528.71
782.46	41307.53
782.64	41391.50
782.82	41084.30
783.01	41262.47
783.19	41141.64
783.37	41145.74
783.55	41258.38
783.74	41524.61
783.92	41155.98
784.10	41870.72
784.28	41407.88
784.46	41033.10
784.64	41110.92
784.83	41043.34
785.01	41371.02
785.19	41371.02
785.37	41244.04
785.55	41532.81
785.74	40813.97
785.92	41258.38
786.10	41268.62
786.28	41182.60
786.46	40883.60
786.64	40680.85
786.83	40854.93
787.01	40801.68
787.19	40773.01
787.37	40836.50
787.55	40795.54
787.74	40451.48
787.92	40879.50
788.10	40590.74
788.28	40590.74
788.46	40551.83
788.64	40289.69
788.82	41127.31
789.01	40084.89
789.19	40228.25
789.37	40185.24
789.55	40600.98
789.73	40007.07
789.91	40154.52
790.09	40033.69
790.28	40289.69
790.46	39673.25
790.64	40099.23
790.82	40281.50
791.00	39855.52
791.18	39632.29
791.36	39812.51
791.55	39845.28
791.73	39361.96
791.91	39239.08
792.09	39345.58
792.27	39431.59
792.45	39486.89
792.63	39654.82
792.81	39110.06
793.00	39347.62
793.18	39280.04
793.36	39249.32
793.54	39290.28
793.72	38915.50
793.90	39157.16
794.08	39042.48
794.26	39019.95
794.44	38649.27
794.62	38385.08
794.81	38743.47
794.99	38720.95
795.17	38225.34
795.35	38436.28
795.53	38415.80
795.71	38669.75
795.89	37762.50
796.07	38055.36
796.25	37856.70
796.43	38073.79
796.61	37832.13
796.80	37621.19
796.98	37873.09
797.16	37598.66
797.34	37973.44
797.52	37225.93
797.70	37426.63
797.88	37187.02
798.06	37035.47
798.24	37066.19
798.42	37019.08
798.60	37098.95
798.78	36744.66
798.96	36931.02
799.14	36455.89
799.32	36699.60
799.51	36883.92
799.69	36818.38
799.87	36617.68
800.05	36609.49
800.23	36564.43
800.41	35948.00
800.59	36017.63
800.77	36130.26
800.95	35661.28
801.13	35716.58
801.31	35812.83
801.49	36169.18
801.67	35509.73
801.85	35698.14
802.03	35673.57
802.21	35708.38
802.39	35567.07
802.57	35685.86
802.75	35270.12
802.93	35388.90
803.11	34907.63
803.29	35417.57
803.47	34919.92
803.65	34993.64
803.83	35132.90
804.01	35132.90
804.19	34567.66
804.37	34821.61
804.55	34772.46
804.73	34485.75
804.91	34538.99
805.09	34608.62
805.27	34442.74
805.45	34758.13
805.63	34774.51
805.81	34459.12
805.99	34833.90
806.17	34362.87
806.35	34147.83
806.53	34018.81
806.71	34250.23
806.89	34137.59
807.07	33717.76
807.25	33877.50
807.43	33691.13
807.61	33904.12
807.79	33742.33
807.97	33543.68
808.15	33510.91
808.33	33312.26
808.51	33158.66
808.69	33779.20
808.87	33523.20
809.05	33285.64
809.23	33084.94
809.41	33115.65
809.59	32783.88
809.77	33379.84
809.95	33072.65
810.13	32792.08
810.31	32587.28
810.49	32468.50
810.67	32775.69
810.84	32972.30
811.02	32783.88
811.20	32618.00
811.38	32568.85
811.56	32075.29
811.74	32312.85
811.92	32228.88
812.10	32441.87
812.28	32321.04
812.46	32464.40
812.64	32337.43
812.82	31813.15
813.00	32065.05
813.18	32396.82
813.36	32216.60
813.53	31972.89
813.71	31665.69
813.89	31755.80
814.07	32132.63
814.25	31890.97
814.43	31671.84
814.61	31434.27
814.79	31446.56
814.97	31673.88
815.15	31391.26
815.33	31360.55
815.50	31079.97
815.68	31239.72
815.86	31174.18
816.04	31118.89
816.22	31362.59
816.40	31069.73
816.58	31307.30
816.76	30914.09
816.94	30860.84
817.11	30770.73
817.29	30424.62
817.47	30600.75
817.65	30490.16
817.83	30694.96
818.01	30492.21
818.19	30361.14
818.37	30391.86
818.54	30121.52
818.72	30004.79
818.90	30660.14
819.08	30348.85
819.26	30500.40
819.44	30283.31
819.62	30283.31
819.80	30279.22
819.97	30340.66
820.15	29931.06
820.33	30176.82
820.51	30154.29
820.69	29963.83
820.87	30271.03
821.05	30049.85
821.22	29881.91
821.40	29910.58
821.58	29859.38
821.76	29734.46
821.94	29494.85
822.12	29457.98
822.29	29720.12
822.47	29472.32
822.65	29505.09
822.83	29425.22
823.01	29515.33
823.19	29201.99
823.36	29101.64
823.54	29048.39
823.72	29406.78
823.90	29265.47
824.08	29236.80
824.25	28829.26
824.43	29005.38
824.61	28790.34
824.79	28853.83
824.97	28702.28
825.15	28546.64
825.32	28993.09
825.50	28417.61
825.68	28896.84
825.86	28925.51
826.04	28898.89
826.21	28653.13
826.39	28446.29
826.57	28237.39
826.75	28640.84
826.93	28380.75
827.10	28370.51
827.28	28653.13
827.46	28573.26
827.64	28528.20
827.81	28477.01
827.99	28268.11
828.17	28038.74
828.35	28089.94
828.53	28137.04
828.70	28317.26
828.88	27926.10
829.06	28071.51
829.24	28294.74
829.41	27813.46
829.59	28003.92
829.77	28161.62
829.95	27629.15
830.12	27876.95
830.30	27610.71
830.48	27991.64
830.66	27926.10
830.84	27590.24
831.01	27666.01
831.19	27735.64
831.37	27545.18
831.55	27405.92
831.72	27395.68
831.90	27371.10
832.08	27211.36
832.25	27586.14
832.43	27500.12
832.61	27274.85
832.79	27549.28
832.96	26908.26
833.14	27393.63
833.32	27184.74
833.50	27315.81
833.67	27154.02
833.85	27135.59
834.03	26914.41
834.20	26979.94
834.38	27039.33
834.56	27100.77
834.74	26990.18
834.91	26830.44
835.09	26898.02
835.27	26590.83
835.44	26676.84
835.62	26406.51
835.80	26392.17
835.98	26531.44
836.15	26553.96
836.33	26543.72
836.51	26877.54
836.68	26013.30
836.86	26349.17
837.04	26359.41
837.21	26390.13
837.39	26068.59
837.57	26519.15
837.75	26474.09
837.92	25958.00
838.10	26170.99
838.28	25669.24
838.45	25953.91
838.63	26072.69
838.81	26107.51
838.98	25775.73
839.16	25908.85
839.34	25984.63
839.51	25855.61
839.69	25382.52
839.87	25728.63
840.04	25939.57
840.22	25800.31
840.40	25529.98
840.57	25474.68
840.75	25501.31
840.93	25327.23
841.10	25587.32
841.28	25798.26
841.46	25634.42
841.63	25376.38
841.81	25648.76
841.98	25407.10
842.16	25486.97
842.34	25278.08
842.51	25089.67
842.69	25681.53
842.87	25333.37
843.04	25423.48
843.22	25128.58
843.40	25083.52
843.57	24893.06
843.75	24981.12
843.92	25267.84
844.10	25091.71
844.28	24927.88
844.45	25034.37
844.63	24913.54
844.81	24620.68
844.98	24981.12
845.16	24379.02
845.33	24729.22
845.51	24579.72
845.69	24675.98
845.86	24657.54
846.04	24583.82
846.21	24651.40
846.39	24596.10
846.57	24364.68
846.74	24450.70
846.92	24460.94
847.09	24403.60
847.27	24000.15
847.45	24176.27
847.62	24385.16
847.80	24135.31
847.97	24311.44
848.15	24055.44
848.32	23758.49
848.50	23744.15
848.68	23979.67
848.85	24071.82
849.03	23965.33
849.20	23991.95
849.38	23719.57
849.56	23819.92
849.73	23494.30
849.91	24039.06
850.08	24313.48
850.26	23604.89
850.43	23469.72
850.61	23471.77
850.78	23611.03
850.96	23586.46
851.14	23289.50
851.31	23803.54
851.49	23469.72
851.66	23232.16
851.84	23492.25
852.01	23684.76
852.19	23473.82
852.36	23332.51
852.54	23301.79
852.71	23109.28
852.89	23230.11
853.07	23232.16
853.24	23053.98
853.42	23099.04
853.59	23060.13
853.77	23031.46
853.94	23260.83
854.12	23033.50
854.29	23053.98
854.47	23105.18
854.64	22945.44
854.82	22824.61
854.99	22558.38
855.17	22537.90
855.34	22558.38
855.52	22761.12
855.69	22957.73
855.87	22687.40
856.04	22468.27
856.22	22505.13
856.39	22455.98
856.57	22685.35
856.74	22509.22
856.92	22652.58
857.09	22197.93
857.27	22050.48
857.44	22515.37
857.62	22333.10
857.79	22130.35
857.97	22267.56
858.14	22187.69
858.32	22181.55
858.49	22222.51
858.67	22062.77
858.84	22079.15
859.02	22085.30
859.19	22159.02
859.37	21747.38
859.54	21823.16
859.72	21882.55
859.89	21794.48
860.06	21976.75
860.24	21759.67
860.41	21935.79
860.59	21462.71
860.76	21673.65
860.94	21325.50
861.11	21665.46
861.29	21657.27
861.46	21411.51
861.64	21378.75
861.81	21513.91
861.98	21546.68
862.16	21472.95
862.33	21139.13
862.51	21456.57
862.68	21429.94
862.86	21362.36
863.03	21180.09
863.21	21167.80
863.38	21114.56
863.55	21079.74
863.73	21395.13
863.90	21057.21
864.08	21145.28
864.25	20979.39
864.43	21094.08
864.60	20698.82
864.77	20885.19
864.95	20842.18
865.12	20571.85
865.30	20975.30
865.47	20817.60
865.64	20563.65
865.82	21067.45
865.99	20930.24
866.17	20633.29
866.34	20719.30
866.51	20340.43
866.69	20528.84
866.86	20608.71
867.04	20649.67
867.21	20334.28
867.38	20248.27
867.56	20170.44
867.73	20207.31
867.91	20170.44
868.08	20121.29
868.25	19961.55
868.43	20227.79
868.60	20227.79
868.78	20035.28
868.95	20295.37
869.12	20119.24
869.30	19836.63
869.47	20008.65
869.64	19766.99
869.82	19992.27
869.99	19502.81
870.16	20102.86
870.34	19723.99
870.51	20004.56
870.69	19721.94
870.86	19500.76
871.03	19699.41
871.21	19308.25
871.38	19498.71
871.55	19373.78
871.73	19404.50
871.90	19244.76
872.07	19347.16
872.25	19072.73
872.42	19248.86
872.59	19400.41
872.77	19328.73
872.94	19191.52
873.11	18939.62
873.29	19166.94
873.46	18982.62
873.63	18892.51
873.81	18878.18
873.98	19113.69
874.15	18724.58
874.33	18816.74
874.50	18407.14
874.67	18837.22
874.85	18532.07
875.02	18636.52
875.19	18728.67
875.37	18634.47
875.54	18478.82
875.71	18417.38
875.88	18405.10
876.06	18728.67
876.23	18335.46
876.40	18292.46
876.58	18491.11
876.75	18087.66
876.92	18126.57
877.10	18167.53
877.27	18058.99
877.44	17739.51
877.61	17979.12
877.79	18185.96
877.96	17932.01
878.13	17958.64
878.31	17659.63
878.48	17889.01
878.65	17907.44
878.82	17811.18
879.00	17964.78
879.17	17880.82
879.34	17833.71
879.51	17551.09
879.69	17372.92
879.86	17508.08
880.03	17350.39
880.21	17549.04
880.38	17567.48
880.55	17649.39
880.72	17387.25
880.90	17350.39
881.07	17223.42
881.24	17252.09
881.41	17252.09
881.59	17137.40
881.76	17356.54
881.93	17149.69
882.10	17219.32
882.28	17014.52
882.45	17301.24
882.62	17037.05
882.79	17204.99
882.96	16787.20
883.14	17125.11
883.31	17229.56
883.48	16922.37
883.65	17026.81
883.83	16797.44
884.00	16922.37
884.17	16819.97
884.34	17051.39
884.51	16805.63
884.69	16893.69
884.86	16830.21
885.03	16895.74
885.20	16498.44
885.38	16611.07
885.55	16662.27
885.72	16680.71
885.89	16760.58
886.06	16547.59
886.24	16545.54
886.41	16746.24
886.58	16576.26
886.75	16774.91
886.92	16338.69
887.10	16561.92
887.27	16258.82
887.44	16285.45
887.61	16754.43
887.78	16559.88
887.95	16613.12
888.13	16234.25
888.30	16289.54
888.47	16035.60
888.64	16344.84
888.81	16006.92
888.99	16137.99
889.16	16107.27
889.33	16041.74
889.50	16033.55
889.67	16084.75
889.84	15943.44
890.01	15802.13
890.19	15836.94
890.36	15980.30
890.53	16107.27
890.70	15916.81
890.87	16051.98
891.04	15943.44
891.22	15918.86
891.39	15927.05
891.56	15529.75
891.73	15695.63
891.90	15795.98
892.07	15462.16
892.24	15539.99
892.42	15337.24
892.59	15423.25
892.76	15806.22
892.93	15539.99
893.10	15615.76
893.27	15576.85
893.44	15415.06
893.61	15576.85
893.79	15449.88
893.96	15361.81
894.13	15343.38
894.30	15419.16
894.47	15206.17
894.64	15511.32
894.81	15310.61
894.98	15419.16
895.15	15445.78
895.33	15363.86
895.50	15398.68
895.67	15496.98
895.84	15308.57
896.01	15372.05
896.18	15300.37
896.35	15621.91
896.52	15253.27
896.69	15333.14
896.86	15103.77
897.04	15312.66
897.21	15261.46
897.38	15226.65
897.55	15202.07
897.72	15548.18
897.89	15204.12
898.06	15392.53
898.23	15304.47
898.40	15380.25
898.57	15314.71
898.74	15445.78
898.91	15292.18
899.08	15193.88
899.26	15191.83
899.43	15320.85
899.60	15154.97
899.77	15312.66
899.94	15146.78
900.11	15111.96
900.28	15103.77
900.45	15152.92
900.62	14837.53
900.79	15228.70
900.96	15396.63
901.13	15327.00
901.30	15079.19
901.47	15195.93
901.64	15077.15
901.81	15296.28
901.98	15124.25
902.15	15200.02
902.32	14989.08
902.49	15281.94
902.66	15447.83
902.83	15163.16
903.01	15056.67
903.18	15068.95
903.35	15290.13
903.52	14974.75
903.69	15267.61
903.86	15222.55
904.03	15306.52
904.20	15097.63
904.37	15232.79
904.54	15292.18
904.71	15159.06
904.88	15255.32
905.05	14999.32
905.22	15171.35
905.39	15202.07
905.56	15189.78
905.73	14913.31
905.90	15095.58
906.07	15296.28
906.24	15013.66
906.41	14974.75
906.58	15238.94
906.75	14939.93
906.92	15171.35
907.09	14878.49
907.26	15304.47
907.43	14987.04
907.60	14921.50
907.77	15189.78
907.93	15134.49
908.10	15073.05
908.27	15175.45
908.44	14821.15
908.61	15017.75
908.78	14937.88
908.95	15126.30
909.12	14974.75
909.29	14817.05
909.46	15083.29
909.63	15017.75
909.80	15097.63
909.97	14929.69
910.14	15019.80
910.31	15093.53
910.48	15095.58
910.65	15011.61
910.82	14720.80
910.99	14976.80
911.16	14733.09
911.33	14769.95
911.50	14958.36
911.66	14792.48
911.83	14835.49
912.00	14718.75
912.17	14608.16
912.34	14673.70
912.51	14645.02
912.68	14659.36
912.85	14735.14
913.02	14610.21
913.19	14702.37
913.36	14792.48
913.53	14556.96
913.70	14554.91
913.86	14888.73
914.03	14712.61
914.20	14642.98
914.37	14442.28
914.54	14528.29
914.71	14458.66
914.88	14393.12
915.05	14108.46
915.22	14253.86
915.39	14307.11
915.55	14337.83
915.72	14266.15
915.89	14278.44
916.06	13967.15
916.23	14100.26
916.40	14112.55
916.57	14114.60
916.74	13948.72
916.91	14079.79
917.07	13901.61
917.24	13799.21
917.41	14018.35
917.58	13946.67
917.75	13915.95
917.92	13752.11
918.09	13840.17
918.26	13543.22
918.42	13870.89
918.59	13717.29
918.76	13702.96
918.93	13543.22
919.10	13391.67
919.27	13596.46
919.44	13799.21
919.60	13643.57
919.77	13360.95
919.94	13365.04
920.11	13422.39
920.28	13578.03
920.45	13315.89
920.61	13176.63
920.78	13225.78
920.95	13322.04
921.12	13033.27
921.29	13061.94
921.46	13010.75
921.62	12891.96
921.79	12889.92
921.96	13061.94
922.13	12855.10
922.30	12547.90
922.47	12728.13
922.63	12742.46
922.80	12781.37
922.97	12570.43
923.14	12652.35
923.31	12552.00
923.47	12453.70
923.64	12642.11
923.81	12453.70
923.98	12422.98
924.15	12386.12
924.32	12431.17
924.48	12412.74
924.65	12339.01
924.82	12236.61
924.99	12095.30
925.15	12080.97
925.32	12289.86
925.49	11663.18
925.66	12111.69
925.83	11831.12
925.99	11730.76
926.16	11872.07
926.33	11882.31
926.50	11480.91
926.67	11872.07
926.83	11804.49
927.00	11603.79
927.17	11663.18
927.34	11458.39
927.50	11505.49
927.67	11734.86
927.84	11446.10
928.01	11507.54
928.17	11347.79
928.34	11167.57
928.51	11429.71
928.68	11243.35
928.84	11196.25
929.01	10772.32
929.18	10903.39
929.35	11038.55
929.51	10981.21
929.68	10735.45
929.85	10790.75
930.02	10983.26
930.18	10719.07
930.35	10835.80
930.52	10757.98
930.69	10698.59
930.85	10710.88
931.02	10508.13
931.19	10571.61
931.36	10448.74
931.52	10471.26
931.69	10334.05
931.86	10381.15
932.02	10323.81
932.19	10209.12
932.36	10344.29
932.53	10456.93
932.69	10155.88
932.86	10344.29
933.03	10018.66
933.19	9989.99
933.36	10010.47
933.53	9895.78
933.70	9756.52
933.86	9613.17
934.03	9774.95
934.20	9652.08
934.36	9830.25
934.53	9351.03
934.70	9439.09
934.86	9447.28
935.03	9244.53
935.20	9267.06
935.36	9187.19
935.53	9131.89
935.70	9068.41
935.86	9019.25
936.03	8859.51
936.20	8787.83
936.36	8966.01
936.53	8736.63
936.70	8912.76
936.86	8697.72
937.03	8550.27
937.20	8404.86
937.36	8353.66
937.53	8155.01
937.70	8081.28
937.86	7974.79
938.03	8036.23
938.20	8083.33
938.36	7888.78
938.53	7866.25
938.70	7729.03
938.86	7765.90
939.03	7534.48
939.20	7417.74
939.36	7497.61
939.53	7409.55
939.70	7557.00
939.86	7122.84
940.03	7012.24
940.19	6987.67
940.36	6997.91
940.53	7053.20
940.69	6782.87
940.86	6754.20
941.03	6678.43
941.19	6533.02
941.36	6621.08
941.52	6526.88
941.69	6424.48
941.86	6311.84
942.02	6262.69
942.19	6389.66
942.35	6317.98
942.52	6057.89
942.69	6197.15
942.85	5996.45
943.02	5943.21
943.18	6041.51
943.35	5918.63
943.52	5918.63
943.68	5767.08
943.85	5801.90
944.01	5855.14
944.18	5744.55
944.35	5824.42
944.51	5638.06
944.68	5599.15
944.84	5560.24
945.01	5599.15
945.17	5547.95
945.34	5619.63
945.51	5537.71
945.67	5595.05
945.84	5576.62
946.00	5433.26
946.17	5511.08
946.33	5377.97
946.50	5533.61
946.67	5564.33
946.83	5525.42
947.00	5562.28
947.16	5326.77
947.33	5363.63
947.49	5390.25
947.66	5203.89
947.82	5410.73
947.99	5425.07
948.16	5390.25
948.32	5545.90
948.49	5543.85
948.65	5466.03
948.82	5392.30
948.98	5410.73
949.15	5302.19
949.31	5367.73
949.48	5314.48
949.64	5445.55
949.81	5496.75
949.97	5375.92
950.14	5427.12
950.30	5308.34
950.47	5523.37
950.63	5334.96
950.80	5488.56
950.96	5414.83
951.13	5547.95
951.30	5453.74
951.46	5392.30
951.63	5447.60
951.79	5529.52
951.96	5439.40
952.12	5451.69
952.29	5517.23
952.45	5390.25
952.62	5541.80
952.78	5490.60
952.94	5576.62
953.11	5504.94
953.27	5427.12
953.44	5670.83
953.60	5533.61
953.77	5564.33
953.93	5552.04
954.10	5390.25
954.26	5515.18
954.43	5517.23
954.59	5459.88
954.76	5787.56
954.92	5523.37
955.09	5525.42
955.25	5599.15
955.42	5525.42
955.58	5554.09
955.75	5744.55
955.91	5617.58
956.07	5562.28
956.24	5584.81
956.40	5640.11
956.57	5642.15
956.73	5582.76
956.90	5611.43
957.06	5597.10
957.23	5613.48
957.39	5689.26
957.56	5738.41
957.72	5451.69
957.88	5547.95
958.05	5562.28
958.21	5656.49
958.38	5537.71
958.54	5586.86
958.71	5754.79
958.87	5640.11
959.03	5584.81
959.20	5531.56
959.36	5513.13
959.53	5574.57
959.69	5484.46
959.85	5658.54
960.02	5519.28
960.18	5506.99
960.35	5621.67
960.51	5832.62
960.68	5468.08
960.84	5631.91
961.00	5509.04
961.17	5554.09
961.33	5543.85
961.50	5619.63
961.66	5590.95
961.82	5572.52
961.99	5480.36
962.15	5554.09
962.31	5550.00
962.48	5572.52
962.64	5574.57
962.81	5377.97
962.97	5506.99
963.13	5515.18
963.30	5623.72
963.46	5312.43
963.62	5482.41
963.79	5490.60
963.95	5511.08
964.12	5580.71
964.28	5521.32
964.44	5443.50
964.61	5455.79
964.77	5398.45
964.93	5722.02
965.10	5455.79
965.26	5375.92
965.42	5455.79
965.59	5210.03
965.75	5427.12
965.92	5476.27
966.08	5416.88
966.24	5353.39
966.41	5373.87
966.57	5388.21
966.73	5429.17
966.90	5388.21
967.06	5410.73
967.22	5394.35
967.39	5291.95
967.55	5314.48
967.71	5355.44
967.88	5185.46
968.04	5259.18
968.20	5259.18
968.37	5193.65
968.53	5349.29
968.69	5384.11
968.85	5171.12
969.02	5316.53
969.18	5377.97
969.34	5226.42
969.51	5355.44
969.67	5310.38
969.83	4976.56
970.00	5269.42
970.16	5253.04
970.32	5187.50
970.48	5207.98
970.65	5205.94
970.81	5040.05
970.97	5140.40
971.14	5060.53
971.30	5216.18
971.46	5060.53
971.63	5097.39
971.79	5101.49
971.95	5031.86
972.11	4997.04
972.28	5078.96
972.44	5070.77
972.60	4990.90
972.76	5066.67
972.93	4956.08
973.09	5054.39
973.25	4949.94
973.42	4919.22
973.58	5042.10
973.74	4923.32
973.90	4956.08
974.07	4906.93
974.23	4865.97
974.39	4999.09
974.55	4929.46
974.72	4929.46
974.88	4767.67
975.04	4956.08
975.20	4902.84
975.37	4908.98
975.53	5029.81
975.69	4880.31
975.85	4771.77
976.01	4749.24
976.18	4798.39
976.34	4798.39
976.50	4908.98
976.66	4833.21
976.83	4911.03
976.99	4812.73
977.15	4806.58
977.31	4569.02
977.47	4718.52
977.64	4800.44
977.80	4747.19
977.96	4765.62
978.12	4501.44
978.29	4554.68
978.45	4589.50
978.61	4616.12
978.77	4702.14
978.93	4497.34
979.10	4591.55
979.26	4587.45
979.42	4497.34
979.58	4452.28
979.74	4394.94
979.91	4523.96
980.07	4446.14
980.23	4581.31
980.39	4415.42
980.55	4607.93
980.71	4489.15
980.88	4382.65
981.04	4437.95
981.20	4440.00
981.36	4364.22
981.52	4384.70
981.68	4296.64
981.85	4487.10
982.01	4251.58
982.17	4372.41
982.33	4399.04
982.49	4474.81
982.65	4366.27
982.82	4331.45
982.98	4353.98
983.14	4298.69
983.30	4288.45
983.46	4327.36
983.62	4206.53
983.79	4202.43
983.95	4253.63
984.11	4134.85
984.27	4286.40
984.43	4151.23
984.59	4257.73
984.75	4206.53
984.91	4087.75
985.08	4401.08
985.24	4177.86
985.40	4124.61
985.56	4196.29
985.72	4227.01
985.88	4290.49
986.04	4124.61
986.20	4069.31
986.37	4143.04
986.53	4091.84
986.69	4261.82
986.85	4018.11
987.01	4157.38
987.17	4126.66
987.33	3991.49
987.49	4057.03
987.65	4100.03
987.82	4102.08
987.98	3938.24
988.14	3981.25
988.30	4001.73
988.46	3901.38
988.62	3989.44
988.78	4034.50
988.94	4016.07
989.10	3895.24
989.26	3895.24
989.42	3848.13
989.59	3708.87
989.75	3835.85
989.91	3854.28
990.07	3698.63
990.23	3760.07
990.39	3760.07
990.55	4009.92
990.71	3733.45
990.87	3796.93
991.03	3872.71
991.19	3829.70
991.35	3846.09
991.51	3837.89
991.67	3723.21
991.83	3672.01
992.00	3727.30
992.16	3766.21
992.32	3805.13
992.48	3727.30
992.64	3545.03
992.80	3674.06
992.96	3805.13
993.12	3792.84
993.28	3725.26
993.44	3743.69
993.60	3581.90
993.76	3579.85
993.92	3635.14
994.08	3616.71
994.24	3667.91
994.40	3557.32
994.56	3616.71
994.72	3604.42
994.88	3532.75
995.04	3557.32
995.20	3475.40
995.36	3481.55
995.52	3594.19
995.68	3538.89
995.84	3502.03
996.00	3698.63
996.16	3510.22
996.32	3411.92
996.48	3395.53
996.64	3573.71
996.80	3481.55
996.96	3461.07
997.12	3424.20
997.28	3366.86
997.44	3456.97
997.60	3436.49
997.76	3411.92
997.92	3366.86
998.08	3448.78
998.24	3207.12
998.40	3405.77
998.56	3399.63
998.72	3307.47
998.88	3307.47
999.04	3325.90
999.20	3467.21
999.36	3258.32
999.52	3352.52
999.68	3321.81
999.84	3334.09
1000.00	3250.13
1000.16	3383.24
1000.32	3305.42
1000.48	3352.52
1000.64	3209.17
1000.80	3301.33
1000.95	3198.93
1001.11	3178.45
1001.27	3190.74
1001.43	3217.36
1001.59	3123.15
1001.75	3280.85
1001.91	3133.39
1002.07	3098.58
1002.23	3133.39
1002.39	3010.51
1002.55	3145.68
1002.71	3069.91
1002.87	3108.82
1003.03	3141.58
1003.19	2916.31
1003.34	3076.05
1003.50	3080.14
1003.66	3137.49
1003.82	3051.47
1003.98	3045.33
1004.14	3131.34
1004.30	3082.19
1004.46	3016.66
1004.62	2985.94
1004.78	2963.41
1004.94	2987.99
1005.09	3063.76
1005.25	3119.06
1005.41	2959.31
1005.57	2967.51
1005.73	3000.27
1005.89	2858.96
1006.05	3002.32
1006.21	2924.50
1006.37	2987.99
1006.52	2885.59
1006.68	2891.73
1006.84	3016.66
1007.00	2926.55
1007.16	2910.16
1007.32	2793.43
1007.48	2738.13
1007.64	2963.41
1007.79	2879.44
1007.95	2811.86
1008.11	2893.78
1008.27	2901.97
1008.43	2836.44
1008.59	2891.73
1008.75	2899.92
1008.91	2912.21
1009.06	2885.59
1009.22	2863.06
1009.38	2818.00
1009.54	2873.30
1009.70	2711.51
1009.86	2756.57
1010.01	2799.57
1010.17	2719.70
1010.33	2936.79
1010.49	2719.70
1010.65	2830.29
1010.81	2697.17
1010.96	2756.57
1011.12	2686.94
1011.28	2605.02
1011.44	2764.76
1011.60	2643.93
1011.76	2656.22
1011.91	2750.42
1012.07	2697.17
1012.23	2627.54
1012.39	2559.96
1012.55	2641.88
1012.71	2668.50
1012.86	2680.79
1013.02	2629.59
1013.18	2615.26
1013.34	2611.16
1013.50	2711.51
1013.65	2705.37
1013.81	2549.72
1013.97	2496.47
1014.13	2541.53
1014.29	2584.54
1014.44	2721.75
1014.60	2584.54
1014.76	2580.44
1014.92	2488.28
1015.07	2537.43
1015.23	2611.16
1015.39	2527.19
1015.55	2514.91
1015.71	2568.15
1015.86	2539.48
1016.02	2447.32
1016.18	2418.65
1016.34	2543.58
1016.49	2490.33
1016.65	2605.02
1016.81	2496.47
1016.97	2519.00
1017.12	2459.61
1017.28	2428.89
1017.44	2371.55
1017.60	2408.41
1017.75	2412.51
1017.91	2396.12
1018.07	2455.51
1018.23	2432.99
1018.38	2478.04
1018.54	2351.07
1018.70	2486.23
1018.86	2377.69
1019.01	2394.08
1019.17	2478.04
1019.33	2449.37
1019.49	2408.41
1019.64	2428.89
1019.80	2418.65
1019.96	2361.31
1020.12	2412.51
1020.27	2355.16
1020.43	2267.10
1020.59	2449.37
1020.74	2355.16
1020.90	2435.03
1021.06	2308.06
1021.22	2437.08
1021.37	2443.23
1021.53	2273.25
1021.69	2418.65
1021.84	2244.57
1022.00	2383.84
1022.16	2320.35
1022.31	2320.35
1022.47	2328.54
1022.63	2377.69
1022.79	2166.75
1022.94	2285.53
1023.10	2351.07
1023.26	2199.52
1023.41	2222.05
1023.57	2193.37
1023.73	2314.20
1023.88	2297.82
1024.04	2207.71
1024.20	2199.52
1024.35	2250.72
1024.51	2301.92
1024.67	2207.71
1024.82	2328.54
1024.98	2201.57
1025.14	2353.12
1025.29	2187.23
1025.45	2246.62
1025.61	2187.23
1025.76	2254.81
1025.92	2226.14
1026.08	2265.05
1026.23	2230.24
1026.39	2240.48
1026.55	2234.33
1026.70	2131.94
1026.86	2140.13
1027.02	2205.66
1027.17	2179.04
1027.33	2189.28
1027.48	2058.21
1027.64	2205.66
1027.80	2236.38
1027.95	2129.89
1028.11	2101.22
1028.27	2205.66
1028.42	2115.55
1028.58	2117.60
1028.73	2035.68
1028.89	2068.45
1029.05	2195.42
1029.20	2170.85
>>>>>End Processed Spectral Data<<<<<
