SpectraSuite Data File
++++++++++++++++++++++++++++++++++++
Date: Fri Jun 02 14:44:34 CEST 2017
User: INFO_000
Dark Spectrum Present: No
Reference Spectrum Present: No
Number of Sampled Component Spectra: 1
Spectrometers: USB4H00879
Integration Time (usec): 80000 (USB4H00879)
Spectra Averaged: 1 (USB4H00879)
Boxcar Smoothing: 0 (USB4H00879)
Correct for Electrical Dark: No (USB4H00879)
Strobe/Lamp Enabled: No (USB4H00879)
Correct for Detector Non-linearity: No (USB4H00879)
Correct for Stray Light: No (USB4H00879)
Number of Pixels in Processed Spectrum: 3648
>>>>>Begin Processed Spectral Data<<<<<
345.13	1304.56
345.34	1304.56
345.56	1304.56
345.78	1279.98
345.99	1316.84
346.21	1712.10
346.42	1685.48
346.64	1667.05
346.86	1855.46
347.07	1626.09
347.29	1722.34
347.50	1607.66
347.72	1640.42
347.94	1744.87
348.15	1585.13
348.37	1603.56
348.59	1722.34
348.80	1687.53
349.02	1712.10
349.23	1880.04
349.45	1820.64
349.67	1871.84
349.88	1798.12
350.10	1912.80
350.31	1851.36
350.53	1789.92
350.75	1986.53
350.96	1765.35
351.18	1888.23
351.39	1875.94
351.61	1791.97
351.82	1904.61
352.04	1916.90
352.26	1853.41
352.47	1916.90
352.69	1914.85
352.90	1751.01
353.12	1804.26
353.34	1863.65
353.55	1980.39
353.77	1861.60
353.98	1802.21
354.20	1787.88
354.41	1986.53
354.63	1910.75
354.85	2027.49
355.06	1914.85
355.28	1808.36
355.49	1851.36
355.71	1896.42
355.92	1877.99
356.14	1937.38
356.35	1849.32
356.57	1837.03
356.79	1925.09
357.00	1859.56
357.22	1877.99
357.43	1900.52
357.65	1898.47
357.86	1818.60
358.08	1894.37
358.29	1953.76
358.51	1968.10
358.72	1986.53
358.94	1882.08
359.16	1900.52
359.37	1888.23
359.59	1929.19
359.80	1986.53
360.02	1980.39
360.23	2060.26
360.45	2019.30
360.66	1923.04
360.88	1923.04
361.09	1941.47
361.31	2090.98
361.52	1957.86
361.74	2047.97
361.95	2138.08
362.17	1951.71
362.38	2088.93
362.60	2093.02
362.81	2035.68
363.03	1943.52
363.24	2029.54
363.46	2056.16
363.67	2068.45
363.89	1972.19
364.10	1970.15
364.32	1855.46
364.53	2021.35
364.75	1929.19
364.96	2029.54
365.18	1980.39
365.39	1964.00
365.61	1986.53
365.82	2078.69
366.04	1968.10
366.25	1976.29
366.47	2070.50
366.68	2035.68
366.90	1961.95
367.11	2113.50
367.33	2011.11
367.54	2080.74
367.76	1968.10
367.97	2154.46
368.19	2031.58
368.40	2066.40
368.62	2021.35
368.83	1888.23
369.05	2074.59
369.26	2002.91
369.48	2013.15
369.69	1951.71
369.91	2125.79
370.12	2013.15
370.33	2197.47
370.55	1984.48
370.76	2015.20
370.98	2095.07
371.19	2045.92
371.41	1961.95
371.62	2101.22
371.84	2054.11
372.05	2166.75
372.27	1955.81
372.48	2023.39
372.69	2084.83
372.91	2119.65
373.12	2226.14
373.34	2115.55
373.55	2138.08
373.77	2195.42
373.98	2050.02
374.20	2105.31
374.41	2240.48
374.62	2078.69
374.84	2142.18
375.05	2164.70
375.27	2179.04
375.48	2217.95
375.70	2228.19
375.91	2166.75
376.12	2289.63
376.34	2164.70
376.55	2113.50
376.77	2160.61
376.98	2205.66
377.19	2191.33
377.41	2174.94
377.62	2199.52
377.84	2265.05
378.05	2306.01
378.27	2220.00
378.48	2371.55
378.69	2363.36
378.91	2322.40
379.12	2207.71
379.34	2246.62
379.55	2289.63
379.76	2332.64
379.98	2242.53
380.19	2203.61
380.41	2338.78
380.62	2336.73
380.83	2273.25
381.05	2217.95
381.26	2469.85
381.47	2252.77
381.69	2310.11
381.90	2437.08
382.12	2338.78
382.33	2230.24
382.54	2387.93
382.76	2295.77
382.97	2365.40
383.19	2193.37
383.40	2441.18
383.61	2289.63
383.83	2277.34
384.04	2355.16
384.25	2355.16
384.47	2385.88
384.68	2375.64
384.89	2355.16
385.11	2332.64
385.32	2336.73
385.54	2387.93
385.75	2402.27
385.96	2412.51
386.18	2418.65
386.39	2381.79
386.60	2385.88
386.82	2422.75
387.03	2480.09
387.24	2435.03
387.46	2467.80
387.67	2432.99
387.88	2527.19
388.10	2418.65
388.31	2553.82
388.52	2596.82
388.74	2580.44
388.95	2471.90
389.16	2551.77
389.38	2541.53
389.59	2621.40
389.80	2584.54
390.02	2562.01
390.23	2643.93
390.44	2631.64
390.66	2596.82
390.87	2514.91
391.08	2525.15
391.30	2707.41
391.51	2670.55
391.72	2670.55
391.94	2656.22
392.15	2658.26
392.36	2568.15
392.58	2660.31
392.79	2576.34
393.00	2699.22
393.22	2785.24
393.43	2629.59
393.64	2836.44
393.85	2688.98
394.07	2637.78
394.28	2840.53
394.49	2717.65
394.71	2633.69
394.92	2867.16
395.13	2680.79
395.35	2713.56
395.56	2744.28
395.77	2795.48
395.98	2748.37
396.20	2799.57
396.41	2854.87
396.62	2981.84
396.84	2834.39
397.05	2795.48
397.26	2811.86
397.47	3016.66
397.69	2897.88
397.90	3074.00
398.11	2955.22
398.32	2852.82
398.54	2846.68
398.75	2942.93
398.96	2861.01
399.18	3090.38
399.39	2955.22
399.60	3104.72
399.81	2987.99
400.03	3022.80
400.24	3346.38
400.45	2998.23
400.66	3108.82
400.88	3000.27
401.09	3248.08
401.30	2953.17
401.51	3162.06
401.73	3125.20
401.94	3076.05
402.15	3125.20
402.36	3078.10
402.58	3102.67
402.79	3305.42
403.00	3071.95
403.21	3180.50
403.43	3215.31
403.64	3190.74
403.85	3117.01
404.06	3289.04
404.27	3069.91
404.49	3211.22
404.70	3100.62
404.91	3305.42
405.12	3137.49
405.34	3325.90
405.55	3411.92
405.76	3121.10
405.97	3196.88
406.19	3325.90
406.40	3209.17
406.61	3227.60
406.82	3317.71
407.03	3342.28
407.25	3272.65
407.46	3354.57
407.67	3428.30
407.88	3459.02
408.09	3311.57
408.31	3403.72
408.52	3436.49
408.73	3321.81
408.94	3231.69
409.15	3360.72
409.37	3553.23
409.58	3567.56
409.79	3479.50
410.00	3508.17
410.21	3434.44
410.43	3508.17
410.64	3385.29
410.85	3430.35
411.06	3557.32
411.27	3579.85
411.48	3606.47
411.70	3510.22
411.91	3645.38
412.12	3792.84
412.33	3612.62
412.54	3614.66
412.76	3583.95
412.97	3706.82
413.18	3585.99
413.39	3667.91
413.60	3676.10
413.81	3686.34
414.03	3706.82
414.24	3692.49
414.45	3817.41
414.66	3542.99
414.87	3811.27
415.08	3690.44
415.30	3661.77
415.51	3651.53
415.72	3688.39
415.93	3821.51
416.14	3690.44
416.35	3788.74
416.56	3813.32
416.78	3903.43
416.99	3872.71
417.20	3893.19
417.41	3962.82
417.62	3876.80
417.83	3928.00
418.04	3940.29
418.26	3878.85
418.47	4003.78
418.68	3989.44
418.89	3987.40
419.10	4263.87
419.31	3983.30
419.52	4118.47
419.73	4005.83
419.95	4177.86
420.16	3936.20
420.37	4003.78
420.58	4128.70
420.79	4018.11
421.00	4106.18
421.21	4106.18
421.42	4116.42
421.63	4124.61
421.85	4140.99
422.06	4200.38
422.27	4227.01
422.48	4147.14
422.69	4278.21
422.90	4325.31
423.11	4310.97
423.32	4251.58
423.53	4388.80
423.75	4417.47
423.96	4452.28
424.17	4480.96
424.38	4495.29
424.59	4530.11
424.80	4712.38
425.01	4460.48
425.22	4448.19
425.43	4538.30
425.64	4640.70
425.85	4644.79
426.06	4626.36
426.28	4521.92
426.49	4609.98
426.70	4583.35
426.91	4573.11
427.12	4693.94
427.33	4583.35
427.54	4661.18
427.75	4675.51
427.96	4820.92
428.17	4739.00
428.38	4861.88
428.59	4974.52
428.80	4790.20
429.01	4870.07
429.23	4755.38
429.44	4976.56
429.65	5066.67
429.86	4884.41
430.07	4886.45
430.28	4921.27
430.49	4927.41
430.70	5064.63
430.91	5158.83
431.12	4919.22
431.33	5119.92
431.54	5171.12
431.75	5124.02
431.96	5142.45
432.17	4970.42
432.38	5066.67
432.59	5265.33
432.80	5132.21
433.01	5414.83
433.22	5472.17
433.43	5265.33
433.64	5289.90
433.85	5306.29
434.06	5416.88
434.27	5359.53
434.49	5408.69
434.70	5480.36
434.91	5496.75
435.12	5390.25
435.33	5470.12
435.54	5486.51
435.75	5441.45
435.96	5547.95
436.17	5488.56
436.38	5523.37
436.59	5611.43
436.80	5515.18
437.01	5730.22
437.22	5803.94
437.43	5679.02
437.64	5463.98
437.85	5773.22
438.06	5697.45
438.27	5492.65
438.48	5705.64
438.69	5994.40
438.90	5871.53
439.11	5799.85
439.32	5945.25
439.53	5967.78
439.74	5885.86
439.95	5875.62
440.16	5937.06
440.37	5986.21
440.57	5863.33
440.78	6074.28
440.99	6016.93
441.20	6205.35
441.41	5822.38
441.62	6098.85
441.83	5906.34
442.04	6090.66
442.25	6076.32
442.46	6172.58
442.67	6287.26
442.88	6557.60
443.09	6129.57
443.30	6139.81
443.51	6168.48
443.72	6451.10
443.93	6186.91
444.14	6539.16
444.35	6219.68
444.56	6381.47
444.77	6297.50
444.98	6387.61
445.19	6428.57
445.40	6383.52
445.61	6461.34
445.81	6512.54
446.02	6422.43
446.23	6420.38
446.44	6246.30
446.65	6438.81
446.86	6551.45
447.07	6571.93
447.28	6827.93
447.49	6756.25
447.70	6588.32
447.91	6598.56
448.12	6567.84
448.33	6864.79
448.54	6737.82
448.74	6754.20
448.95	6823.83
449.16	6725.53
449.37	7059.35
449.58	6797.21
449.79	6930.33
450.00	6653.85
450.21	6973.33
450.42	7040.92
450.63	7161.75
450.84	6963.09
451.05	7024.53
451.25	6930.33
451.46	7012.24
451.67	7298.96
451.88	7182.23
452.09	7112.60
452.30	7204.75
452.51	7243.67
452.72	7468.94
452.93	7520.14
453.13	7151.51
453.34	7128.98
453.55	7303.06
453.76	7339.92
453.97	7532.43
454.18	7348.11
454.39	7638.92
454.60	7589.77
454.81	7536.52
455.01	7681.93
455.22	7466.89
455.43	7604.11
455.64	7917.45
455.85	7856.01
456.06	7974.79
456.27	7868.30
456.48	7915.40
456.68	8028.04
456.89	7880.58
457.10	7974.79
457.31	8046.47
457.52	8021.89
457.73	8087.43
457.94	8232.83
458.14	8134.53
458.35	8374.14
458.56	8243.07
458.77	8251.27
458.98	8245.12
459.19	8333.18
459.39	8468.35
459.60	8507.26
459.81	8587.13
460.02	8523.65
460.23	8550.27
460.44	8697.72
460.65	8798.07
460.85	8630.14
461.06	8941.43
461.27	8667.00
461.48	8888.18
461.69	9146.23
461.89	8675.20
462.10	8892.28
462.31	8720.25
462.52	8873.85
462.73	8832.89
462.94	9209.72
463.14	9129.84
463.35	9273.20
463.56	9523.05
463.77	9381.74
463.98	9222.00
464.18	9527.15
464.39	9516.91
464.60	9639.79
464.81	9674.60
465.02	9629.55
465.23	9916.26
465.43	9461.62
465.64	9908.07
465.85	9873.26
466.06	9731.95
466.27	10172.26
466.47	10219.36
466.68	10176.36
466.89	10207.08
467.10	9955.18
467.30	9953.13
467.51	10356.58
467.72	10231.65
467.93	10143.59
468.14	10223.46
468.34	10651.49
468.55	10579.81
468.76	10411.87
468.97	10497.89
469.17	10977.11
469.38	10778.46
469.59	10790.75
469.80	10852.19
470.01	10755.93
470.21	11009.88
470.42	11394.90
470.63	11208.53
470.84	11112.28
471.04	11517.78
471.25	11390.80
471.46	11208.53
471.67	11710.29
471.87	11485.01
472.08	11654.99
472.29	11669.33
472.50	11427.67
472.70	11759.44
472.91	11730.76
473.12	12128.07
473.33	12105.54
473.53	12085.06
473.74	12162.89
473.95	12193.61
474.16	12461.89
474.36	12412.74
474.57	12787.52
474.78	12445.51
474.99	12611.39
475.19	12361.54
475.40	12910.40
475.61	12900.16
475.81	13240.12
476.02	13356.85
476.23	13213.49
476.44	13184.82
476.64	13512.50
476.85	13465.39
477.06	13514.55
477.27	13848.36
477.47	13707.05
477.68	13848.36
477.89	13989.67
478.09	13979.43
478.30	14032.68
478.51	14429.99
478.71	14235.43
478.92	14307.11
479.13	14599.97
479.34	14728.99
479.54	14657.31
479.75	14591.78
479.96	14815.01
480.16	14751.52
480.37	14794.53
480.58	15283.99
480.78	15179.54
480.99	15197.98
481.20	15308.57
481.41	15464.21
481.61	15570.71
481.82	15601.43
482.03	15703.82
482.23	15838.99
482.44	16058.12
482.65	15755.02
482.85	16191.24
483.06	16074.51
483.27	16174.86
483.47	16418.57
483.68	16219.91
483.89	16547.59
484.09	16230.15
484.30	16613.12
484.51	16617.22
484.71	17209.08
484.92	16920.32
485.13	17096.44
485.33	17276.66
485.54	16938.75
485.75	17508.08
485.95	17622.77
486.16	17559.28
486.37	17815.28
486.57	17422.07
486.78	17534.71
486.98	17837.81
487.19	18091.76
487.40	18317.03
487.60	18071.28
487.81	18460.39
488.02	18261.74
488.22	18329.32
488.43	18515.69
488.64	18599.65
488.84	18917.09
489.05	19136.22
489.25	18777.83
489.46	19052.25
489.67	18878.18
489.87	19246.81
490.08	19316.44
490.29	19410.65
490.49	19533.53
490.70	19433.18
490.90	19535.57
491.11	19420.89
491.32	19576.53
491.52	19971.79
491.73	19998.41
491.94	20287.18
492.14	19805.91
492.35	20328.14
492.55	20377.29
492.76	20436.68
492.97	20438.73
493.17	20700.87
493.38	20922.05
493.58	20940.48
493.79	20942.53
494.00	20922.05
494.20	21055.17
494.41	21178.04
494.61	21403.32
494.82	21403.32
495.02	21360.31
495.23	21415.61
495.44	21395.13
495.64	21755.57
495.85	21751.48
496.05	21829.30
496.26	21503.67
496.47	22089.39
496.67	21993.14
496.88	22099.63
497.08	21964.46
497.29	22259.37
497.49	22286.00
497.70	22533.80
497.91	22501.03
498.11	22800.04
498.32	22677.16
498.52	22886.05
498.73	23084.70
498.93	22972.07
499.14	23017.12
499.34	23019.17
499.55	23297.69
499.76	23137.95
499.96	23250.59
500.17	23303.84
500.37	23504.54
500.58	23226.01
500.78	23957.14
500.99	23535.26
501.19	23905.94
501.40	23604.89
501.60	23592.60
501.81	23801.49
502.02	23854.74
502.22	23633.56
502.43	24067.73
502.63	24516.23
502.84	24338.06
503.04	24368.78
503.25	24397.45
503.45	24329.87
503.66	24549.00
503.86	24467.08
504.07	24897.16
504.27	24471.18
504.48	24802.95
504.68	24913.54
504.89	25132.67
505.09	25190.02
505.30	24925.83
505.50	24956.55
505.71	25140.86
505.91	25095.81
506.12	25374.33
506.32	25464.44
506.53	25409.15
506.73	25587.32
506.94	25710.20
507.14	25228.93
507.35	25417.34
507.55	25800.31
507.76	25898.61
507.96	25790.07
508.17	25798.26
508.37	25794.17
508.58	26089.07
508.78	26420.84
508.99	26156.66
509.19	26240.62
509.40	26320.49
509.60	26297.97
509.81	26482.28
510.01	25992.82
510.22	26273.39
510.42	26347.12
510.63	26646.12
510.83	26451.56
511.04	26494.57
511.24	26748.52
511.44	26506.86
511.65	26777.19
511.85	26891.88
512.06	26922.60
512.26	26918.50
512.47	27252.32
512.67	26879.59
512.88	27274.85
513.08	26949.22
513.29	27397.73
513.49	27225.70
513.69	27041.38
513.90	27248.22
514.10	27367.01
514.31	27604.57
514.51	27825.75
514.72	27549.28
514.92	27553.37
515.13	27506.27
515.33	27975.25
515.53	27592.28
515.74	27721.30
515.94	27799.13
516.15	27772.50
516.35	27762.26
516.56	28108.37
516.76	27973.21
516.96	28350.03
517.17	28288.59
517.37	28411.47
517.58	28053.08
517.78	28517.96
517.99	28489.29
518.19	28702.28
518.39	28933.70
518.60	28835.40
518.80	28618.32
519.01	28923.46
519.21	28991.05
519.41	29056.58
519.62	29118.02
519.82	29343.30
520.03	29281.86
520.23	29259.33
520.43	29007.43
520.64	29460.03
520.84	29595.20
521.05	29601.34
521.25	29580.86
521.45	29791.80
521.66	29732.41
521.86	29799.99
522.07	29822.52
522.27	30121.52
522.47	29982.26
522.68	30387.76
522.88	29861.43
523.08	30531.12
523.29	30580.27
523.49	30541.36
523.70	30846.51
523.90	30539.31
524.10	30506.54
524.31	30975.53
524.51	30748.20
524.71	31315.49
524.92	30930.47
525.12	31387.17
525.33	31213.09
525.53	31378.98
525.73	31591.97
525.94	31835.67
526.14	31460.90
526.34	31540.77
526.55	31594.01
526.75	31929.88
526.95	31983.13
527.16	31741.47
527.36	31553.05
527.56	32527.89
527.77	32423.44
527.97	32448.02
528.17	32327.19
528.38	32472.59
528.58	32298.52
528.78	32593.42
528.99	32519.70
529.19	33015.30
529.39	32431.63
529.60	32904.71
529.80	33191.43
530.00	33410.56
530.21	33351.17
530.41	33883.64
530.61	33353.22
530.82	33611.26
531.02	33562.11
531.22	33578.50
531.43	33816.06
531.63	33936.89
531.83	34186.74
532.04	34594.29
532.24	34305.52
532.44	34168.31
532.64	34211.32
532.85	34792.94
533.05	34561.52
533.25	34551.28
533.46	34565.62
533.66	34897.39
533.86	34897.39
534.07	34903.53
534.27	34641.39
534.47	35423.72
534.67	35028.46
534.88	35339.75
535.08	35194.34
535.28	35685.86
535.49	35632.61
535.69	35833.31
535.89	35995.10
536.09	35651.04
536.30	35745.25
536.50	36122.07
536.70	36244.95
536.91	36150.74
537.11	36013.53
537.31	36664.78
537.51	36396.50
537.72	36615.63
537.92	36738.51
538.12	36924.88
538.32	36648.40
538.53	37254.60
538.73	36701.65
538.93	36898.25
539.13	37209.54
539.34	37346.76
539.54	36992.46
539.74	37203.40
539.94	37180.87
540.15	37567.94
540.35	37553.60
540.55	37598.66
540.75	37434.82
540.96	37676.48
541.16	37946.81
541.36	37932.48
541.56	38237.62
541.77	38430.13
541.97	38090.17
542.17	37807.55
542.37	38385.08
542.58	38264.25
542.78	37934.53
542.98	38442.42
543.18	38405.56
543.38	38811.06
543.59	38960.56
543.79	38700.47
543.99	38555.06
544.19	38567.35
544.40	38710.71
544.60	38954.41
544.80	38837.68
545.00	39003.56
545.20	39282.09
545.41	39218.60
545.61	39253.42
545.81	39898.53
546.01	39810.46
546.21	39548.32
546.42	39450.02
546.62	39888.29
546.82	39550.37
547.02	39632.29
547.22	39601.57
547.43	39490.98
547.63	39919.01
547.83	40035.74
548.03	39982.49
548.23	39832.99
548.44	39947.68
548.64	40250.78
548.84	40265.11
549.04	40310.17
549.24	40301.98
549.45	40543.64
549.65	40201.63
549.85	40199.58
550.05	40721.81
550.25	40566.16
550.45	41295.24
550.66	40439.19
550.86	40406.42
551.06	40828.30
551.26	40899.98
551.46	40922.51
551.66	41002.38
551.87	40633.75
552.07	41158.03
552.27	41072.01
552.47	41133.45
552.67	41196.94
552.87	41301.39
553.07	41282.95
553.28	41510.28
553.48	41528.71
553.68	41051.53
553.88	41739.65
554.08	41678.21
554.28	41624.96
554.48	41487.75
554.69	41895.30
554.89	41956.74
555.09	41686.40
555.29	41485.70
555.49	41956.74
555.69	42128.77
555.89	41803.14
556.10	41991.55
556.30	41837.95
556.50	42134.91
556.70	42323.32
556.90	42370.43
557.10	42536.31
557.30	42202.49
557.50	42634.61
557.70	42591.61
557.91	42395.00
558.11	42321.27
558.31	43099.50
558.51	42472.82
558.71	42771.83
558.91	42747.25
559.11	42927.47
559.31	42868.08
559.51	42290.55
559.72	42892.66
559.92	42743.16
560.12	42694.00
560.32	43146.61
560.52	42759.54
560.72	43316.59
560.92	43230.57
561.12	43136.37
561.32	43382.12
561.52	42929.52
561.72	43459.94
561.93	42980.72
562.13	43515.24
562.33	43423.08
562.53	43726.18
562.73	43169.13
562.93	43398.51
563.13	43523.43
563.33	43490.66
563.53	43928.93
563.73	43818.34
563.93	44066.14
564.13	44324.19
564.33	43799.91
564.53	43715.94
564.74	44078.43
564.94	43910.50
565.14	44014.94
565.34	44283.23
565.54	44103.01
565.74	44211.55
565.94	44336.48
566.14	44125.53
566.34	44402.01
566.54	44774.74
566.74	44445.02
566.94	44604.76
567.14	44449.11
567.34	44627.29
567.54	44905.81
567.74	44172.64
567.94	44649.81
568.14	44602.71
568.34	44473.69
568.54	44565.85
568.74	45129.04
568.94	44948.82
569.14	44864.85
569.34	45088.08
569.54	45049.17
569.75	45088.08
569.95	45276.49
570.15	45421.90
570.35	45360.46
570.55	45462.86
570.75	45161.81
570.95	45174.09
571.15	45757.77
571.35	45124.94
571.55	45630.79
571.75	45466.95
571.95	45937.99
572.15	45413.71
572.35	46146.88
572.55	45382.99
572.75	45886.79
572.95	45806.92
573.15	45837.64
573.35	46032.19
573.55	45684.04
573.75	45446.47
573.95	45921.60
574.15	46122.30
574.35	46275.90
574.55	45991.23
574.75	46449.98
574.95	45976.90
575.15	45778.25
575.34	46052.67
575.54	46220.61
575.74	46568.76
575.94	46548.28
576.14	46294.33
576.34	46839.09
576.54	46529.85
576.74	46478.65
576.94	46255.42
577.14	46456.12
577.34	46689.59
577.54	47060.27
577.74	46714.17
577.94	46791.99
578.14	46839.09
578.34	46849.33
578.54	46482.75
578.74	46871.86
578.94	46748.98
579.14	46771.51
579.34	46961.97
579.54	47183.15
579.74	47559.98
579.94	47134.00
580.13	47566.12
580.33	47437.10
580.53	47449.39
580.73	48098.59
580.93	47588.65
581.13	47420.72
581.33	47697.19
581.53	48137.51
581.73	47748.39
581.93	47729.96
582.13	48241.95
582.33	47947.04
582.53	47764.78
582.73	47691.05
582.92	48151.84
583.12	47990.05
583.32	47775.02
583.52	47680.81
583.72	48160.03
583.92	48043.30
584.12	48108.83
584.32	48796.95
584.52	48231.71
584.72	48411.93
584.92	48084.26
585.11	48704.79
585.31	48641.31
585.51	48655.64
585.71	48833.81
585.91	48821.53
586.11	48676.12
586.31	48663.83
586.51	48676.12
586.71	48665.88
586.91	48848.15
587.10	49274.13
587.30	48917.78
587.50	49239.31
587.70	49349.90
587.90	49116.43
588.10	49267.98
588.30	48964.88
588.50	49806.60
588.69	49327.38
588.89	49122.58
589.09	49302.80
589.29	49130.77
589.49	49675.53
589.69	49628.43
589.89	49730.83
590.08	49509.64
590.28	49726.73
590.48	49237.26
590.68	49452.30
590.88	49501.45
591.08	49470.73
591.28	49583.37
591.47	49958.15
591.67	49943.81
591.87	49929.48
592.07	49624.33
592.27	50025.73
592.47	49759.50
592.67	49796.36
592.86	49814.79
593.06	50220.29
593.26	50130.18
593.46	50175.23
593.66	50361.60
593.86	50269.44
594.05	50595.07
594.25	50382.08
594.45	49972.49
594.65	50322.69
594.85	49784.07
595.05	50390.27
595.24	51049.72
595.44	50547.96
595.64	50341.12
595.84	50447.61
596.04	50369.79
596.23	50531.58
596.43	51033.33
596.63	50910.46
596.83	51049.72
597.03	51123.44
597.22	51178.74
597.42	51197.17
597.62	51641.58
597.82	51569.90
598.02	51166.45
598.21	51481.84
598.41	51303.67
598.61	51492.08
598.81	51537.13
599.01	51328.24
599.20	51653.87
599.40	51129.59
599.60	51684.59
599.80	51717.35
600.00	51950.82
600.19	51895.53
600.39	51105.01
600.59	52045.03
600.79	51829.99
600.98	52159.72
601.18	52344.03
601.38	52194.53
601.58	52483.30
601.78	52403.42
601.97	52176.10
602.17	52546.78
602.37	52675.80
602.57	52516.06
602.76	52772.06
602.96	52419.81
603.16	52888.79
603.36	52770.01
603.55	53028.05
603.75	52694.24
603.95	52727.00
604.15	53230.80
604.34	53103.83
604.54	53062.87
604.74	52950.23
604.94	53179.60
605.13	53214.42
605.33	53628.11
605.53	53038.29
605.73	53337.30
605.92	53386.45
606.12	53380.31
606.32	53693.64
606.52	53114.07
606.71	53425.36
606.91	53626.06
607.11	53339.35
607.30	53318.87
607.50	54097.09
607.70	54273.22
607.90	54133.96
608.09	53877.96
608.29	54125.77
608.49	53974.22
608.68	54201.54
608.88	54187.21
609.08	54027.46
609.28	54179.01
609.47	53675.21
609.67	54514.88
609.87	54514.88
610.06	54342.85
610.26	54508.74
610.46	54457.54
610.66	54355.14
610.85	54736.06
611.05	54305.99
611.25	54793.40
611.44	54731.96
611.64	54611.13
611.84	54711.49
612.03	54551.74
612.23	54906.04
612.43	54867.13
612.62	54392.00
612.82	54951.10
613.02	54543.55
613.21	55022.78
613.41	54965.43
613.61	55129.27
613.80	54727.87
614.00	54924.47
614.20	55225.53
614.39	54682.81
614.59	55518.38
614.79	55188.66
614.98	55112.89
615.18	55203.00
615.38	54926.52
615.57	54893.75
615.77	55362.74
615.97	55176.37
616.16	55508.14
616.36	55286.96
616.56	55432.37
616.75	55198.90
616.95	54908.09
617.15	55563.44
617.34	55096.50
617.54	55502.00
617.74	55536.82
617.93	55475.38
618.13	55030.97
618.32	55223.48
618.52	54783.16
618.72	55399.60
618.91	55375.03
619.11	55411.89
619.31	55377.08
619.50	55211.19
619.70	54736.06
619.90	55094.46
620.09	55317.68
620.29	55225.53
620.48	55092.41
620.68	56024.23
620.88	55360.69
621.07	55344.31
621.27	55233.72
621.46	54475.97
621.66	55043.26
621.86	54957.24
622.05	55092.41
622.25	55354.55
622.44	55391.41
622.64	54918.33
622.84	55583.92
623.03	54918.33
623.23	55329.97
623.42	55526.58
623.62	55334.07
623.82	55645.36
624.01	55080.12
624.21	55317.68
624.40	55180.47
624.60	55426.23
624.80	55213.24
624.99	55246.00
625.19	54672.57
625.38	55676.08
625.58	54891.71
625.77	55342.26
625.97	55342.26
626.17	54881.47
626.36	55415.99
626.56	55696.56
626.75	54918.33
626.95	55157.94
627.14	54817.98
627.34	55874.73
627.54	55252.15
627.73	55219.38
627.93	55585.97
628.12	54783.16
628.32	55317.68
628.51	55211.19
628.71	55129.27
628.90	55250.10
629.10	55272.63
629.30	55254.20
629.49	55440.56
629.69	55182.52
629.88	55280.82
630.08	55350.45
630.27	55526.58
630.47	55389.36
630.66	55299.25
630.86	55270.58
631.05	55174.33
631.25	55440.56
631.44	55438.51
631.64	55520.43
631.84	55479.47
632.03	55934.12
632.23	55522.48
632.42	55841.96
632.62	55426.23
632.81	54891.71
633.01	55293.11
633.20	55190.71
633.40	55446.71
633.59	54551.74
633.79	55162.04
633.98	55372.98
634.18	55489.71
634.37	55274.68
634.57	55276.72
634.76	55547.06
634.96	55786.67
635.15	55147.70
635.35	55045.30
635.54	55254.20
635.74	55704.75
635.93	55211.19
636.13	55710.89
636.32	54865.08
636.52	55119.03
636.71	55567.54
636.91	55286.96
637.10	55309.49
637.30	55323.83
637.49	55493.81
637.69	55231.67
637.88	55606.45
638.08	55256.24
638.27	55559.34
638.46	55309.49
638.66	55209.14
638.85	55553.20
639.05	55534.77
639.24	55649.45
639.44	55186.61
639.63	55557.30
639.83	55194.81
640.02	55217.33
640.22	55368.88
640.41	55368.88
640.61	55628.98
640.80	55366.84
640.99	55194.81
641.19	55917.74
641.38	55602.35
641.58	54977.72
641.77	55295.16
641.97	55045.30
642.16	55379.12
642.36	55471.28
642.55	55645.36
642.74	55295.16
642.94	56093.86
643.13	55278.77
643.33	55702.70
643.52	55549.10
643.72	55491.76
643.91	55413.94
644.10	55788.72
644.30	56022.19
644.49	55866.54
644.69	55682.22
644.88	55825.58
645.08	55776.43
645.27	55659.69
645.46	55444.66
645.66	55999.66
645.85	55276.72
646.05	55823.53
646.24	55682.22
646.43	55719.09
646.63	56087.72
646.82	56196.26
647.02	55696.56
647.21	55794.86
647.40	55755.95
647.60	56026.28
647.79	55903.40
647.99	55825.58
648.18	55717.04
648.37	56482.98
648.57	56046.76
648.76	56132.78
648.96	55536.82
649.15	56224.93
649.34	55704.75
649.54	55583.92
649.73	56337.57
649.92	56108.20
650.12	56181.93
650.31	56382.63
650.51	55973.03
650.70	56237.22
650.89	55913.64
651.09	56425.64
651.28	56329.38
651.47	56347.81
651.67	56032.42
651.86	56538.27
652.06	56071.34
652.25	56515.75
652.44	56003.75
652.64	56038.57
652.83	56417.44
653.02	56147.11
653.22	56231.08
653.41	55858.35
653.60	55751.85
653.80	56018.09
653.99	56044.71
654.18	56255.65
654.38	55997.61
654.57	56579.23
654.76	56394.92
654.96	56149.16
655.15	56546.47
655.34	55837.87
655.54	55833.77
655.73	56366.24
655.92	56536.23
656.12	56259.75
656.31	56468.64
656.50	56857.76
656.70	56243.37
656.89	56116.39
657.08	56358.05
657.28	56161.45
657.47	56538.27
657.66	56618.14
657.86	56237.22
658.05	56390.82
658.24	56507.55
658.43	56175.78
658.63	56708.25
658.82	56679.58
659.01	56718.49
659.21	56267.94
659.40	56810.65
659.59	56313.00
659.79	56726.69
659.98	56573.09
660.17	56894.62
660.36	56992.92
660.56	56837.28
660.75	56939.68
660.94	56124.58
661.14	56622.24
661.33	56646.82
661.52	56196.26
661.71	57021.59
661.91	56605.86
662.10	56278.18
662.29	56691.87
662.49	57054.36
662.68	56792.22
662.87	57019.55
663.06	56767.65
663.26	57011.35
663.45	56945.82
663.64	57035.93
663.83	57269.40
664.03	56857.76
664.22	57140.38
664.41	57103.51
664.60	57091.22
664.80	57080.98
664.99	56777.89
665.18	56972.44
665.37	56755.36
665.57	57253.01
665.76	56738.97
665.95	56767.65
666.14	56716.45
666.34	57263.25
666.53	56835.23
666.72	56689.82
666.91	56964.25
667.11	56808.61
667.30	56988.83
667.49	56992.92
667.68	57285.78
667.87	57068.70
668.07	57453.72
668.26	57132.18
668.45	56960.15
668.64	57083.03
668.84	57613.46
669.03	56997.02
669.22	57197.72
669.41	57287.83
669.60	57076.89
669.80	56859.80
669.99	57121.94
670.18	57087.13
670.37	57318.55
670.57	57625.74
670.76	57291.93
670.95	57267.35
671.14	56609.95
671.33	57029.79
671.53	57517.20
671.72	57549.97
671.91	57472.15
672.10	57054.36
672.29	56992.92
672.48	57271.45
672.68	57699.47
672.87	56800.41
673.06	57410.71
673.25	57046.17
673.44	57121.94
673.64	57351.32
673.83	57308.31
674.02	57273.49
674.21	57162.90
674.40	57107.61
674.59	57123.99
674.79	57033.88
674.98	56925.34
675.17	57095.32
675.36	56865.95
675.55	57408.66
675.74	57394.32
675.94	57408.66
676.13	57445.52
676.32	57205.91
676.51	57316.50
676.70	57420.95
676.89	57080.98
677.08	57511.06
677.28	57210.01
677.47	57525.39
677.66	57783.44
677.85	57134.23
678.04	57308.31
678.23	57824.40
678.42	57625.74
678.62	57052.31
678.81	57441.43
679.00	57263.25
679.19	58094.73
679.38	57474.20
679.57	57046.17
679.76	56997.02
679.96	57482.39
680.15	57285.78
680.34	57420.95
680.53	57031.83
680.72	57468.05
680.91	57185.43
681.10	56894.62
681.29	57529.49
681.48	57382.04
681.68	56921.24
681.87	56777.89
682.06	56902.81
682.25	56657.06
682.44	56831.13
682.63	56743.07
682.82	56757.41
683.01	56718.49
683.20	56644.77
683.39	57146.52
683.59	56773.79
683.78	56779.93
683.97	56618.14
684.16	56704.16
684.35	56935.58
684.54	56669.34
684.73	56968.35
684.92	56777.89
685.11	56448.16
685.30	56349.86
685.49	57250.97
685.69	56577.18
685.88	56759.45
686.07	56439.97
686.26	56603.81
686.45	56564.90
686.64	56792.22
686.83	56368.29
687.02	56470.69
687.21	56470.69
687.40	56667.30
687.59	56425.64
687.78	56734.88
687.97	56693.92
688.16	56433.83
688.35	56396.96
688.54	56382.63
688.74	56061.10
688.93	55907.50
689.12	56173.73
689.31	56153.26
689.50	56226.98
689.69	55811.24
689.88	56089.77
690.07	55956.65
690.26	56222.89
690.45	56906.91
690.64	55745.71
690.83	55342.26
691.02	55395.51
691.21	56186.02
691.40	55727.28
691.59	55755.95
691.78	55950.51
691.97	56515.75
692.16	55964.84
692.35	56003.75
692.54	56114.34
692.73	55735.47
692.92	55710.89
693.11	55651.50
693.30	55882.92
693.49	55682.22
693.68	55684.27
693.87	55739.57
694.06	55551.15
694.25	55508.14
694.44	55252.15
694.63	55426.23
694.82	55432.37
695.01	55448.75
695.20	55047.35
695.39	55694.51
695.58	55469.23
695.77	55104.70
695.96	55041.21
696.15	55262.39
696.34	54953.15
696.53	55022.78
696.72	55047.35
696.91	54949.05
697.10	55002.30
697.29	54600.89
697.48	54994.10
697.67	54607.04
697.86	54596.80
698.05	54437.06
698.24	54705.34
698.43	54342.85
698.62	54598.85
698.81	54113.48
699.00	54783.16
699.19	54258.88
699.38	54506.69
699.57	54250.69
699.76	54781.12
699.95	54297.80
700.14	54353.09
700.32	54371.52
700.51	54379.71
700.70	54592.70
700.89	54408.39
701.08	54373.57
701.27	54017.22
701.46	54545.60
701.65	53593.29
701.84	53988.55
702.03	54392.00
702.22	53779.66
702.41	54095.05
702.60	54017.22
702.79	53994.70
702.98	53501.14
703.17	53572.81
703.35	53484.75
703.54	53527.76
703.73	54129.86
703.92	53439.70
704.11	53824.71
704.30	53365.97
704.49	53341.39
704.68	53380.31
704.87	53046.49
705.06	53550.29
705.25	53675.21
705.43	53388.50
705.62	53144.79
705.81	53208.28
706.00	53130.45
706.19	53023.96
706.38	52925.66
706.57	53232.85
706.76	53185.75
706.95	52786.39
707.14	53304.53
707.32	52671.71
707.51	52597.98
707.70	53245.14
707.89	53038.29
708.08	52546.78
708.27	52884.70
708.46	52868.31
708.65	52509.92
708.84	52745.44
709.02	52876.51
709.21	52720.86
709.40	52622.56
709.59	52471.01
709.78	52401.38
709.97	52755.68
710.16	52487.39
710.34	52188.39
710.53	52239.59
710.72	52413.66
710.91	52468.96
711.10	52139.24
711.29	52288.74
711.48	52315.36
711.66	52286.69
711.85	52315.36
712.04	51881.19
712.23	52124.90
712.42	51954.92
712.61	51782.89
712.80	51766.51
712.98	52106.47
713.17	51637.48
713.36	51819.75
713.55	51864.81
713.74	52206.82
713.93	51709.16
714.11	51442.93
714.30	51516.65
714.49	51451.12
714.68	51797.23
714.87	51492.08
715.06	51887.34
715.24	51451.12
715.43	51651.82
715.62	51139.83
715.81	51598.57
716.00	51297.52
716.18	51141.88
716.37	50431.23
716.56	50998.52
716.75	51541.23
716.94	51172.60
717.12	50590.97
717.31	51363.06
717.50	50728.19
717.69	50724.09
717.88	51047.67
718.06	50787.58
718.25	51287.28
718.44	50343.17
718.63	50668.79
718.82	50412.80
719.00	50920.70
719.19	50267.39
719.38	50519.29
719.57	49927.43
719.76	49648.91
719.94	50060.55
720.13	50337.02
720.32	50191.62
720.51	50533.63
720.69	50074.88
720.88	49730.83
721.07	49749.26
721.26	49784.07
721.44	49368.33
721.63	49413.39
721.82	49700.11
722.01	49827.08
722.20	50031.88
722.38	49546.51
722.57	49046.80
722.76	49716.49
722.95	49358.09
723.13	49218.83
723.32	49206.55
723.51	48631.07
723.70	48897.30
723.88	49059.09
724.07	49067.28
724.26	49073.43
724.44	48495.90
724.63	49069.33
724.82	48729.37
725.01	48712.98
725.19	49270.03
725.38	49038.61
725.57	48543.00
725.76	48799.00
725.94	48923.93
726.13	48772.38
726.32	48678.17
726.51	48733.46
726.69	48774.42
726.88	49165.59
727.07	48760.09
727.25	48921.88
727.44	48399.65
727.63	48608.54
727.82	48682.27
728.00	48588.06
728.19	48647.45
728.38	48682.27
728.56	47981.86
728.75	48874.77
728.94	48690.46
729.12	48657.69
729.31	48669.98
729.50	48678.17
729.69	48473.37
729.87	48534.81
730.06	48440.60
730.25	48393.50
730.43	48977.17
730.62	48428.32
730.81	48915.73
730.99	48510.24
731.18	48504.09
731.37	48436.51
731.55	48608.54
731.74	48815.38
731.93	48885.01
732.11	48508.19
732.30	48469.28
732.49	48354.59
732.67	48596.25
732.86	48149.79
733.05	48100.64
733.23	48364.83
733.42	48293.15
733.61	48616.73
733.79	48301.34
733.98	48643.35
734.17	48215.33
734.35	48704.79
734.54	48325.92
734.73	48626.97
734.91	47971.62
735.10	47965.48
735.29	48123.17
735.47	47932.71
735.66	48379.17
735.84	47813.93
736.03	48350.49
736.22	48592.15
736.40	48256.29
736.59	48315.68
736.78	48020.77
736.96	48203.04
737.15	48166.18
737.33	48160.03
737.52	48088.35
737.71	48002.34
737.89	48178.46
738.08	47658.28
738.27	48022.82
738.45	48440.60
738.64	48157.99
738.82	47914.28
739.01	48194.85
739.20	48028.96
739.38	48184.61
739.57	47994.15
739.75	48047.39
739.94	47349.04
740.13	47858.98
740.31	48086.31
740.50	47895.85
740.68	48010.53
740.87	47635.75
741.06	47906.08
741.24	47824.17
741.43	47390.00
741.61	47732.01
741.80	47564.07
741.99	47627.56
742.17	47508.78
742.36	47437.10
742.54	47648.04
742.73	47502.64
742.91	47846.69
743.10	47314.22
743.29	47729.96
743.47	47684.90
743.66	48018.72
743.84	47330.61
744.03	47318.32
744.21	47426.86
744.40	48049.44
744.59	47265.07
744.77	46978.36
744.96	47215.92
745.14	47275.31
745.33	47344.94
745.51	46970.16
745.70	47600.94
745.88	47140.14
746.07	47363.37
746.26	46871.86
746.44	46634.30
746.63	46830.90
746.81	47240.50
747.00	46644.54
747.18	47232.30
747.37	46902.58
747.55	47172.91
747.74	47441.20
747.92	47031.60
748.11	46943.54
748.29	46865.72
748.48	46921.01
748.66	46701.88
748.85	46685.50
749.03	47076.66
749.22	46675.26
749.41	46910.77
749.59	46800.18
749.78	46445.88
749.96	46017.86
750.15	46654.78
750.33	46855.48
750.52	46259.52
750.70	46859.57
750.89	46292.29
751.07	46083.39
751.26	46384.44
751.44	46337.34
751.63	46357.82
751.81	46097.73
752.00	46511.42
752.18	46296.38
752.37	46271.81
752.55	45849.92
752.74	46314.81
752.92	45940.04
753.10	45763.91
753.29	46007.62
753.47	46150.98
753.66	45806.92
753.84	45935.94
754.03	45919.56
754.21	45776.20
754.40	45759.81
754.58	46179.65
754.77	45622.60
754.95	45612.36
755.14	45718.85
755.32	45458.76
755.51	45542.73
755.69	45727.05
755.88	45208.91
756.06	45684.04
756.24	45544.78
756.43	45278.54
756.61	45288.78
756.80	45258.06
756.98	44725.59
757.17	45317.45
757.35	45258.06
757.54	45038.93
757.72	45522.25
757.90	45401.42
758.09	45116.75
758.27	45204.81
758.46	44737.88
758.64	45008.21
758.83	45157.71
759.01	45032.78
759.19	44725.59
759.38	45221.20
759.56	44825.94
759.75	45034.83
759.93	44555.61
760.12	45020.50
760.30	44709.21
760.48	44791.12
760.67	44729.69
760.85	44856.66
761.04	44264.80
761.22	44363.10
761.40	44709.21
761.59	44342.62
761.77	44404.06
761.96	44350.81
762.14	44547.42
762.32	44186.97
762.51	44379.48
762.69	44359.00
762.88	44408.15
763.06	44504.41
763.24	44201.31
763.43	44031.33
763.61	44111.20
763.80	43926.88
763.98	43457.90
764.16	44100.96
764.35	43214.19
764.53	43406.70
764.72	43627.88
764.90	43363.69
765.08	43795.81
765.27	43498.86
765.45	43066.73
765.63	43005.30
765.82	42839.41
766.00	42847.60
766.18	43285.87
766.37	43484.52
766.55	43003.25
766.74	43201.90
766.92	43132.27
767.10	42868.08
767.29	42734.96
767.47	42952.05
767.65	42876.27
767.84	42636.66
768.02	42995.06
768.20	42493.30
768.39	42851.70
768.57	42507.64
768.75	42358.14
768.94	42272.12
769.12	42159.48
769.30	42012.03
769.49	42315.13
769.67	41817.47
769.85	42206.59
770.04	41952.64
770.22	41956.74
770.40	41823.62
770.59	41966.98
770.77	42098.05
770.95	41858.43
771.14	41823.62
771.32	41287.05
771.50	41426.31
771.69	41571.72
771.87	41692.55
772.05	41700.74
772.24	41072.01
772.42	41459.08
772.60	41502.09
772.78	41409.93
772.97	41276.81
773.15	41426.31
773.33	41375.11
773.52	41190.80
773.70	41561.48
773.88	41207.18
774.07	41139.60
774.25	41235.85
774.43	40945.04
774.61	41383.30
774.80	41366.92
774.98	41416.07
775.16	41319.82
775.34	41098.64
775.53	41108.88
775.71	41366.92
775.89	41203.08
776.08	40992.14
776.26	41328.01
776.44	41473.42
776.62	41264.52
776.81	40951.18
776.99	41108.88
777.17	41246.09
777.35	41061.77
777.54	41491.85
777.72	41414.02
777.90	41383.30
778.08	41328.01
778.27	41393.54
778.45	41608.58
778.63	41665.92
778.81	41045.39
779.00	41768.32
779.18	41713.03
779.36	41917.82
779.54	41913.73
779.73	41473.42
779.91	41629.06
780.09	41870.72
780.27	41641.35
780.46	41452.94
780.64	41592.20
780.82	41416.07
781.00	41565.57
781.19	41481.61
781.37	41862.53
781.55	41796.99
781.73	41919.87
781.91	41932.16
782.10	41946.50
782.28	42020.22
782.46	42239.36
782.64	42042.75
782.82	41418.12
783.01	42104.19
783.19	41670.02
783.37	41481.61
783.55	41911.68
783.74	41911.68
783.92	41997.70
784.10	41956.74
784.28	41784.71
784.46	41115.02
784.64	41590.15
784.83	41604.49
785.01	42022.27
785.19	41756.03
785.37	41653.64
785.55	41362.82
785.74	41403.78
785.92	41364.87
786.10	41584.01
786.28	41831.81
786.46	41631.11
786.64	41248.14
786.83	41389.45
787.01	41385.35
787.19	40998.29
787.37	41389.45
787.55	41194.89
787.74	41217.42
787.92	41366.92
788.10	41407.88
788.28	40902.03
788.46	40625.56
788.64	40605.08
788.82	41389.45
789.01	40736.15
789.19	40553.88
789.37	40811.92
789.55	40539.54
789.73	40457.62
789.91	40138.14
790.09	40369.56
790.28	40263.07
790.46	40158.62
790.64	40527.25
790.82	40537.49
791.00	39943.58
791.18	39732.64
791.36	39787.94
791.55	40287.64
791.73	39628.20
791.91	39730.59
792.09	39998.88
792.27	39640.48
792.45	39427.49
792.63	39394.73
792.81	39546.28
793.00	39804.32
793.18	39542.18
793.36	39533.99
793.54	39378.34
793.72	38927.79
793.90	39005.61
794.08	38817.20
794.26	39075.24
794.44	38489.52
794.62	38524.34
794.81	38239.67
794.99	38792.62
795.17	38460.85
795.35	38378.93
795.53	38600.12
795.71	38303.16
795.89	37905.85
796.07	38075.84
796.25	37862.85
796.43	37901.76
796.61	37838.27
796.80	37844.41
796.98	37819.84
797.16	37473.73
797.34	37535.17
797.52	37305.80
797.70	37518.79
797.88	37529.03
798.06	36808.14
798.24	37047.75
798.42	37156.30
798.60	36367.83
798.78	36920.78
798.96	36871.63
799.14	36308.44
799.32	36574.67
799.51	36447.70
799.69	36578.77
799.87	36509.14
800.05	36363.73
800.23	36314.58
800.41	35878.36
800.59	36046.30
800.77	35669.47
800.95	35794.40
801.13	36013.53
801.31	35622.37
801.49	35689.95
801.67	35427.81
801.85	35214.82
802.03	34958.83
802.21	35497.44
802.39	35401.19
802.57	35247.59
802.75	35300.84
802.93	35390.95
803.11	34735.60
803.29	34846.19
803.47	34684.40
803.65	34731.50
803.83	34831.85
804.01	34678.25
804.19	34168.31
804.37	34065.91
804.55	34446.83
804.73	34278.90
804.91	34416.11
805.09	34475.51
805.27	34117.11
805.45	33949.18
805.63	34141.69
805.81	34293.24
805.99	34076.15
806.17	33764.86
806.35	33961.47
806.53	33627.65
806.71	33762.81
806.89	33424.90
807.07	33566.21
807.25	33445.38
807.43	33216.01
807.61	33322.50
807.79	33197.57
807.97	32914.95
808.15	32896.52
808.33	32812.56
808.51	32876.04
808.69	32781.84
808.87	32830.99
809.05	32665.10
809.23	32806.41
809.41	32230.93
809.59	32321.04
809.77	32949.77
809.95	32755.21
810.13	32708.11
810.31	32206.36
810.49	32216.60
810.67	32357.91
810.84	32198.16
811.02	32257.56
811.20	32128.53
811.38	32347.67
811.56	32110.10
811.74	32224.79
811.92	31991.32
812.10	31813.15
812.28	31944.22
812.46	31645.21
812.64	31854.11
812.82	31587.87
813.00	31936.02
813.18	32075.29
813.36	31315.49
813.53	31219.24
813.71	31272.48
813.89	31276.58
814.07	31131.17
814.25	31557.15
814.43	31139.36
814.61	31051.30
814.79	30676.52
814.97	30850.60
815.15	30983.72
815.33	30697.00
815.50	30449.20
815.68	30711.34
815.86	30520.88
816.04	30467.63
816.22	30553.65
816.40	30527.02
816.58	30649.90
816.76	30232.11
816.94	30354.99
817.11	30391.86
817.29	30408.24
817.47	30117.43
817.65	30221.87
817.83	30412.34
818.01	29869.62
818.19	29990.45
818.37	30133.81
818.54	29728.31
818.72	29494.85
818.90	29734.46
819.08	29763.13
819.26	30119.48
819.44	29859.38
819.62	29421.12
819.80	29875.77
819.97	29830.71
820.15	29419.07
820.33	29199.94
820.51	29435.45
820.69	28907.08
820.87	29558.33
821.05	29623.87
821.22	29359.68
821.40	29179.46
821.58	29185.60
821.76	28862.02
821.94	29034.05
822.12	29118.02
822.29	29015.62
822.47	28700.23
822.65	29085.25
822.83	28825.16
823.01	28857.93
823.19	28845.64
823.36	28640.84
823.54	28552.78
823.72	28556.88
823.90	28485.20
824.08	28370.51
824.25	28313.17
824.43	28292.69
824.61	28270.16
824.79	28470.86
824.97	28266.06
825.15	28644.94
825.32	28575.31
825.50	28393.04
825.68	28005.97
825.86	28595.79
826.04	28061.27
826.21	28063.32
826.39	28032.60
826.57	27897.43
826.75	27876.95
826.93	27778.65
827.10	27760.22
827.28	27866.71
827.46	27967.06
827.64	27919.96
827.81	28038.74
827.99	28194.39
828.17	27987.54
828.35	27586.14
828.53	27369.05
828.70	27264.61
828.88	27762.26
829.06	27555.42
829.24	27833.94
829.41	27573.85
829.59	27487.84
829.77	27438.69
829.95	27592.28
830.12	27186.79
830.30	27493.98
830.48	27256.42
830.66	27315.81
830.84	27405.92
831.01	27164.26
831.19	27215.46
831.37	27121.25
831.55	27100.77
831.72	26953.32
831.90	27403.87
832.08	27037.28
832.25	27264.61
832.43	27074.15
832.61	27018.85
832.79	26744.42
832.96	26869.35
833.14	27100.77
833.32	27135.59
833.50	26920.55
833.67	26644.07
833.85	26531.44
834.03	26631.79
834.20	26596.97
834.38	26883.69
834.56	26566.25
834.74	26682.98
834.91	26644.07
835.09	26271.34
835.27	26162.80
835.44	26261.10
835.62	26437.23
835.80	26383.98
835.98	26418.80
836.15	26185.33
836.33	26527.34
836.51	26365.55
836.68	26146.42
836.86	26039.92
837.04	26109.55
837.21	26240.62
837.39	26111.60
837.57	26168.94
837.75	26379.89
837.92	25919.09
838.10	25904.76
838.28	25470.59
838.45	25740.92
838.63	25579.13
838.81	25763.45
838.98	25804.41
839.16	25693.82
839.34	25593.47
839.51	25534.07
839.69	25468.54
839.87	25433.72
840.04	25544.31
840.22	25593.47
840.40	25585.27
840.57	25280.13
840.75	25540.22
840.93	25112.19
841.10	25511.55
841.28	25816.69
841.46	25572.99
841.63	25314.94
841.81	25159.30
841.98	25388.67
842.16	25349.76
842.34	25183.87
842.51	24960.64
842.69	25341.57
842.87	25030.27
843.04	25304.70
843.22	25265.79
843.40	24909.44
843.57	25159.30
843.75	25140.86
843.92	25091.71
844.10	24954.50
844.28	25128.58
844.45	24962.69
844.63	24864.39
844.81	24739.46
844.98	24487.56
845.16	24743.56
845.33	24667.78
845.51	24733.32
845.69	24501.90
845.86	24508.04
846.04	24422.03
846.21	24376.97
846.39	24731.27
846.57	24323.72
846.74	24180.37
846.92	24557.19
847.09	24520.33
847.27	24344.20
847.45	24438.41
847.62	24340.11
847.80	24467.08
847.97	24184.46
848.15	24147.60
848.32	24059.54
848.50	24118.93
848.68	24180.37
848.85	23819.92
849.03	23844.50
849.20	23828.12
849.38	23961.23
849.56	23971.47
849.73	23950.99
849.91	23684.76
850.08	23969.43
850.26	23602.84
850.43	23606.94
850.61	23807.64
850.78	23664.28
850.96	23633.56
851.14	23617.18
851.31	23553.69
851.49	23539.35
851.66	23506.59
851.84	23568.02
852.01	23885.46
852.19	23834.26
852.36	23568.02
852.54	23363.23
852.71	23330.46
852.89	23096.99
853.07	23205.53
853.24	23463.58
853.42	22982.31
853.59	23076.51
853.77	23494.30
853.94	23146.14
854.12	23324.32
854.29	22982.31
854.47	23260.83
854.64	23383.71
854.82	22828.71
854.99	23215.77
855.17	22978.21
855.34	23031.46
855.52	23316.12
855.69	23123.62
855.87	22808.23
856.04	22841.00
856.22	22726.31
856.39	22593.19
856.57	22761.12
856.74	22480.55
856.92	22658.73
857.09	22654.63
857.27	22218.41
857.44	22693.54
857.62	22359.72
857.79	22689.45
857.97	22482.60
858.14	22644.39
858.32	22585.00
858.49	22261.42
858.67	22423.21
858.84	22472.36
859.02	22359.72
859.19	22206.13
859.37	21878.45
859.54	22150.83
859.72	22498.98
859.89	21966.51
860.06	22116.01
860.24	21939.89
860.41	22101.68
860.59	21821.11
860.76	22009.52
860.94	21851.83
861.11	22073.01
861.29	21864.11
861.46	22032.05
861.64	21610.17
861.81	21935.79
861.98	21722.80
862.16	21690.04
862.33	21286.59
862.51	21300.92
862.68	21784.24
862.86	21522.10
863.03	21462.71
863.21	21558.97
863.38	21280.44
863.55	21444.28
863.73	21487.29
863.90	21325.50
864.08	21468.86
864.25	21264.06
864.43	21176.00
864.60	21225.15
864.77	21044.93
864.95	21274.30
865.12	20807.36
865.30	21370.55
865.47	21184.19
865.64	21083.84
865.82	20977.34
865.99	21210.81
866.17	20969.15
866.34	21147.33
866.51	20639.43
866.69	20948.67
866.86	20954.82
867.04	20879.04
867.21	20571.85
867.38	20793.03
867.56	20717.25
867.73	20596.42
867.91	20682.44
868.08	20688.58
868.25	20418.25
868.43	20516.55
868.60	20223.69
868.78	20303.56
868.95	20287.18
869.12	20680.39
869.30	20172.49
869.47	20278.99
869.64	19889.87
869.82	20285.13
869.99	20006.61
870.16	20072.14
870.34	19941.07
870.51	20037.33
870.69	19922.64
870.86	20109.01
871.03	20082.38
871.21	19916.50
871.38	20076.24
871.55	19693.27
871.73	19752.66
871.90	19951.31
872.07	19670.74
872.25	19492.57
872.42	19336.92
872.59	19519.19
872.77	19173.08
872.94	19572.44
873.11	19494.61
873.29	19275.48
873.46	19105.50
873.63	19402.46
873.81	19179.23
873.98	19113.69
874.15	19324.63
874.33	18900.70
874.50	19150.56
874.67	18927.33
874.85	19189.47
875.02	18769.63
875.19	18710.24
875.37	18874.08
875.54	18659.04
875.71	19031.77
875.88	18573.03
876.06	18691.81
876.23	18788.07
876.40	18509.54
876.58	18525.93
876.75	18591.46
876.92	18179.82
877.10	18382.57
877.27	18292.46
877.44	18351.85
877.61	18280.17
877.79	18419.43
877.96	18300.65
878.13	17991.41
878.31	18333.42
878.48	18052.84
878.65	18065.13
878.82	17997.55
879.00	18339.56
879.17	18145.00
879.34	17991.41
879.51	17948.40
879.69	17782.51
879.86	17757.94
880.03	17696.50
880.21	17770.22
880.38	17780.46
880.55	17786.61
880.72	17655.54
880.90	17780.46
881.07	17673.97
881.24	17311.48
881.41	17784.56
881.59	17454.84
881.76	17600.24
881.93	17252.09
882.10	17395.45
882.28	17440.50
882.45	17311.48
882.62	17063.68
882.79	17561.33
882.96	17131.26
883.14	17293.05
883.31	17168.12
883.48	17149.69
883.65	17383.16
883.83	17487.61
884.00	17243.90
884.17	17233.66
884.34	17319.67
884.51	17151.74
884.69	17088.25
884.86	17149.69
885.03	17301.24
885.20	16719.62
885.38	16799.49
885.55	17149.69
885.72	16852.73
885.89	16932.61
886.06	16942.85
886.24	16899.84
886.41	16647.94
886.58	16926.46
886.75	16942.85
886.92	16719.62
887.10	16992.00
887.27	16738.05
887.44	16703.23
887.61	16834.30
887.78	16676.61
887.95	16785.15
888.13	16645.89
888.30	16299.78
888.47	16244.49
888.64	16426.76
888.81	16377.61
888.99	16189.19
889.16	16451.33
889.33	16320.26
889.50	16342.79
889.67	16312.07
889.84	16244.49
890.01	16148.23
890.19	16097.03
890.36	16170.76
890.53	15861.52
890.70	15976.20
890.87	15986.44
891.04	16060.17
891.22	15902.48
891.39	15994.64
891.56	15693.58
891.73	15916.81
891.90	15798.03
892.07	15533.84
892.24	15812.37
892.42	15847.18
892.59	15775.50
892.76	15501.08
892.93	15533.84
893.10	15746.83
893.27	15712.02
893.44	15480.60
893.61	15265.56
893.79	15877.90
893.96	15576.85
894.13	15775.50
894.30	15353.62
894.47	15359.77
894.64	15439.64
894.81	15290.13
894.98	15470.36
895.15	15468.31
895.33	15660.82
895.50	15359.77
895.67	15525.65
895.84	15232.79
896.01	15228.70
896.18	15322.90
896.35	15558.42
896.52	15267.61
896.69	15378.20
896.86	15195.93
897.04	15126.30
897.21	15488.79
897.38	15324.95
897.55	15202.07
897.72	15509.27
897.89	15390.49
898.06	15361.81
898.23	15136.54
898.40	15394.58
898.57	15204.12
898.74	15116.06
898.91	15136.54
899.08	15271.70
899.26	15351.57
899.43	15306.52
899.60	15308.57
899.77	15230.74
899.94	15109.91
900.11	15111.96
900.28	14997.28
900.45	15046.43
900.62	15175.45
900.79	15410.96
900.96	15124.25
901.13	15398.68
901.30	15154.97
901.47	15009.56
901.64	15103.77
901.81	15216.41
901.98	14939.93
902.15	15161.11
902.32	15085.34
902.49	14896.92
902.66	15185.69
902.83	15157.02
903.01	14995.23
903.18	15265.56
903.35	15075.10
903.52	15058.71
903.69	15197.98
903.86	15134.49
904.03	14927.64
904.20	15054.62
904.37	15269.66
904.54	15062.81
904.71	15150.87
904.88	15193.88
905.05	14972.70
905.22	15036.19
905.39	14911.26
905.56	15095.58
905.73	14855.97
905.90	15091.48
906.07	14937.88
906.24	15351.57
906.41	14829.34
906.58	14890.78
906.75	15136.54
906.92	14710.56
907.09	14937.88
907.26	15050.52
907.43	14960.41
907.60	15038.23
907.77	15173.40
907.93	14980.89
908.10	14829.34
908.27	15118.11
908.44	14890.78
908.61	14919.45
908.78	15114.01
908.95	15251.22
909.12	14931.74
909.29	14874.40
909.46	14849.82
909.63	14913.31
909.80	14800.67
909.97	14962.46
910.14	14841.63
910.31	14831.39
910.48	14941.98
910.65	14833.44
910.82	14714.66
910.99	14767.90
911.16	14692.13
911.33	14868.25
911.50	14759.71
911.66	14581.54
911.83	14739.23
912.00	14536.48
912.17	14364.45
912.34	14651.17
912.51	14327.59
912.68	14909.21
912.85	14706.46
913.02	14366.50
913.19	14503.71
913.36	14442.28
913.53	14468.90
913.70	14368.55
913.86	14468.90
914.03	14464.80
914.20	14309.16
914.37	14319.40
914.54	14212.90
914.71	14419.75
914.88	14274.34
915.05	14126.89
915.22	14110.50
915.39	14016.30
915.55	14110.50
915.72	14094.12
915.89	14227.24
916.06	13946.67
916.23	14135.08
916.40	14044.97
916.57	13811.50
916.74	14008.11
916.91	13717.29
917.07	13905.71
917.24	13739.82
917.41	13815.60
917.58	13877.04
917.75	13881.13
917.92	13590.32
918.09	13770.54
918.26	13748.01
918.42	13719.34
918.59	13451.06
918.76	13444.91
918.93	13457.20
919.10	13154.10
919.27	13180.73
919.44	13268.79
919.60	13438.77
919.77	13393.72
919.94	13119.29
920.11	13336.37
920.28	13152.06
920.45	12986.17
920.61	12957.50
920.78	13020.99
920.95	12910.40
921.12	13002.55
921.29	12799.80
921.46	12769.09
921.62	12762.94
921.79	12805.95
921.96	12652.35
922.13	12683.07
922.30	12666.69
922.47	12685.12
922.63	12635.97
922.80	12529.47
922.97	12513.09
923.14	12246.85
923.31	12341.06
923.47	12144.45
923.64	12371.78
923.81	12048.20
923.98	12144.45
924.15	12312.39
924.32	12216.13
924.48	12050.25
924.65	12140.36
924.82	11732.81
924.99	12070.73
925.15	11890.51
925.32	11999.05
925.49	11757.39
925.66	11845.45
925.83	11462.48
925.99	11837.26
926.16	11730.76
926.33	11640.65
926.50	11456.34
926.67	11607.89
926.83	11448.15
927.00	11394.90
927.17	11405.14
927.34	11274.07
927.50	11528.02
927.67	11489.10
927.84	11290.45
928.01	11282.26
928.17	11198.29
928.34	11251.54
928.51	11167.57
928.68	10899.29
928.84	10966.87
929.01	11046.74
929.18	10809.18
929.35	10954.58
929.51	10850.14
929.68	10588.00
929.85	10588.00
930.02	10708.83
930.18	10735.45
930.35	10559.33
930.52	10631.01
930.69	10669.92
930.85	10442.59
931.02	10323.81
931.19	10463.07
931.36	10315.62
931.52	10305.38
931.69	10325.86
931.86	10061.67
932.02	10116.97
932.19	9926.50
932.36	9949.03
932.53	10006.38
932.69	9826.15
932.86	10098.53
933.03	10071.91
933.19	9670.51
933.36	10022.76
933.53	10035.05
933.70	9815.91
933.86	9602.93
934.03	9645.93
934.20	9490.29
934.36	9639.79
934.53	9463.66
934.70	9240.44
934.86	9461.62
935.03	9179.00
935.20	9209.72
935.36	9181.04
935.53	9090.93
935.70	8861.56
935.86	9035.64
936.03	8890.23
936.20	8605.56
936.36	8695.68
936.53	8669.05
936.70	8626.04
936.86	8517.50
937.03	8327.04
937.20	8161.16
937.36	8355.71
937.53	7980.93
937.70	8040.33
937.86	7882.63
938.03	7980.93
938.20	8073.09
938.36	7813.00
938.53	7720.84
938.70	7514.00
938.86	7565.20
939.03	7542.67
939.20	7440.27
939.36	7253.91
939.53	7169.94
939.70	7258.00
939.86	6997.91
940.03	7010.20
940.19	6858.65
940.36	6961.05
940.53	6887.32
940.69	6772.63
940.86	6770.58
941.03	6479.77
941.19	6471.58
941.36	6594.46
941.52	6436.77
941.69	6330.27
941.86	6229.92
942.02	6336.42
942.19	6211.49
942.35	6113.19
942.52	6107.04
942.69	6061.99
942.85	6098.85
943.02	5883.81
943.18	5971.88
943.35	5853.09
943.52	5939.11
943.68	5808.04
943.85	5730.22
944.01	5562.28
944.18	5666.73
944.35	5676.97
944.51	5644.20
944.68	5597.10
944.84	5478.32
945.01	5509.04
945.17	5562.28
945.34	5605.29
945.51	5386.16
945.67	5615.53
945.84	5500.84
946.00	5308.34
946.17	5400.49
946.33	5298.10
946.50	5607.34
946.67	5459.88
946.83	5408.69
947.00	5345.20
947.16	5283.76
947.33	5345.20
947.49	5291.95
947.66	5294.00
947.82	5521.32
947.99	5291.95
948.16	5341.10
948.32	5291.95
948.49	5304.24
948.65	5398.45
948.82	5425.07
948.98	5281.71
949.15	5320.62
949.31	5420.97
949.48	5351.34
949.64	5232.56
949.81	5353.39
949.97	5398.45
950.14	5322.67
950.30	5410.73
950.47	5330.86
950.63	5386.16
950.80	5418.93
950.96	5455.79
951.13	5300.14
951.30	5296.05
951.46	5429.17
951.63	5617.58
951.79	5490.60
951.96	5552.04
952.12	5625.77
952.29	5400.49
952.45	5494.70
952.62	5418.93
952.78	5523.37
952.94	5441.45
953.11	5474.22
953.27	5447.60
953.44	5609.39
953.60	5447.60
953.77	5537.71
953.93	5595.05
954.10	5468.08
954.26	5672.87
954.43	5480.36
954.59	5629.87
954.76	5564.33
954.92	5566.38
955.09	5519.28
955.25	5496.75
955.42	5457.84
955.58	5662.63
955.75	5463.98
955.91	5529.52
956.07	5537.71
956.24	5547.95
956.40	5482.41
956.57	5689.26
956.73	5541.80
956.90	5642.15
957.06	5619.63
957.23	5490.60
957.39	5537.71
957.56	5611.43
957.72	5576.62
957.88	5478.32
958.05	5679.02
958.21	5627.82
958.38	5558.19
958.54	5593.00
958.71	5726.12
958.87	5660.59
959.03	5480.36
959.20	5564.33
959.36	5517.23
959.53	5550.00
959.69	5566.38
959.85	5572.52
960.02	5484.46
960.18	5572.52
960.35	5566.38
960.51	5674.92
960.68	5740.46
960.84	5664.68
961.00	5611.43
961.17	5418.93
961.33	5590.95
961.50	5582.76
961.66	5517.23
961.82	5451.69
961.99	5504.94
962.15	5365.68
962.31	5451.69
962.48	5486.51
962.64	5607.34
962.81	5373.87
962.97	5476.27
963.13	5390.25
963.30	5537.71
963.46	5390.25
963.62	5390.25
963.79	5373.87
963.95	5558.19
964.12	5396.40
964.28	5533.61
964.44	5357.49
964.61	5474.22
964.77	5545.90
964.93	5406.64
965.10	5550.00
965.26	5367.73
965.42	5517.23
965.59	5330.86
965.75	5377.97
965.92	5400.49
966.08	5484.46
966.24	5355.44
966.41	5312.43
966.57	5502.89
966.73	5367.73
966.90	5506.99
967.06	5334.96
967.22	5429.17
967.39	5363.63
967.55	5330.86
967.71	5224.37
967.88	5361.58
968.04	5408.69
968.20	5257.14
968.37	5185.46
968.53	5156.79
968.69	5281.71
968.85	5275.57
969.02	5361.58
969.18	5263.28
969.34	5298.10
969.51	5345.20
969.67	5357.49
969.83	5220.27
970.00	5250.99
970.16	5222.32
970.32	5191.60
970.48	5246.90
970.65	5162.93
970.81	5054.39
970.97	5117.87
971.14	5111.73
971.30	5263.28
971.46	5158.83
971.63	5003.19
971.79	5109.68
971.95	5017.52
972.11	5117.87
972.28	5179.31
972.44	5289.90
972.60	4960.18
972.76	5191.60
972.93	5042.10
973.09	5003.19
973.25	4925.36
973.42	4908.98
973.58	5097.39
973.74	4931.51
973.90	4845.49
974.07	4997.04
974.23	4894.65
974.39	4923.32
974.55	4757.43
974.72	5042.10
974.88	4790.20
975.04	4872.12
975.20	4859.83
975.37	4911.03
975.53	4761.53
975.69	5021.62
975.85	4845.49
976.01	4763.58
976.18	4878.26
976.34	4898.74
976.50	4892.60
976.66	4808.63
976.83	4853.69
976.99	4847.54
977.15	4706.23
977.31	4718.52
977.47	4947.89
977.64	4706.23
977.80	4763.58
977.96	4663.22
978.12	4753.34
978.29	4695.99
978.45	4691.90
978.61	4599.74
978.77	4548.54
978.93	4607.93
979.10	4745.14
979.26	4667.32
979.42	4691.90
979.58	4417.47
979.74	4534.20
979.91	4691.90
980.07	4624.31
980.23	4507.58
980.39	4538.30
980.55	4519.87
980.71	4425.66
980.88	4468.67
981.04	4417.47
981.20	4587.45
981.36	4454.33
981.52	4388.80
981.68	4392.89
981.85	4505.53
982.01	4380.61
982.17	4435.90
982.33	4405.18
982.49	4540.35
982.65	4300.73
982.82	4356.03
982.98	4423.61
983.14	4245.44
983.30	4509.63
983.46	4433.85
983.62	4382.65
983.79	4319.17
983.95	4308.93
984.11	4229.06
984.27	4284.35
984.43	4339.65
984.59	4177.86
984.75	4224.96
984.91	4276.16
985.08	4212.67
985.24	4175.81
985.40	4147.14
985.56	4210.62
985.72	4259.78
985.88	4169.66
986.04	4069.31
986.20	4222.91
986.37	4130.75
986.53	4081.60
986.69	4038.59
986.85	4093.89
987.01	4016.07
987.17	4198.34
987.33	4050.88
987.49	3934.15
987.65	4157.38
987.82	4042.69
987.98	4089.79
988.14	4048.83
988.30	4100.03
988.46	4114.37
988.62	3981.25
988.78	3807.17
988.94	4057.03
989.10	3983.30
989.26	3796.93
989.42	3932.10
989.59	3858.37
989.75	3864.52
989.91	4001.73
990.07	3801.03
990.23	3968.96
990.39	3858.37
990.55	3901.38
990.71	3784.65
990.87	3925.96
991.03	3874.76
991.19	3729.35
991.35	3825.61
991.51	3850.18
991.67	3887.04
991.83	3801.03
992.00	3809.22
992.16	3784.65
992.32	3938.24
992.48	3841.99
992.64	3798.98
992.80	3821.51
992.96	3717.06
993.12	3655.62
993.28	3612.62
993.44	3741.64
993.60	3649.48
993.76	3684.30
993.92	3715.02
994.08	3755.97
994.24	3616.71
994.40	3602.38
994.56	3686.34
994.72	3659.72
994.88	3547.08
995.04	3649.48
995.20	3567.56
995.36	3483.59
995.52	3555.27
995.68	3553.23
995.84	3600.33
996.00	3743.69
996.16	3403.72
996.32	3428.30
996.48	3469.26
996.64	3667.91
996.80	3510.22
996.96	3555.27
997.12	3530.70
997.28	3407.82
997.44	3493.83
997.60	3362.76
997.76	3379.15
997.92	3426.25
998.08	3499.98
998.24	3289.04
998.40	3432.40
998.56	3377.10
998.72	3418.06
998.88	3252.17
999.04	3246.03
999.20	3432.40
999.36	3334.09
999.52	3411.92
999.68	3340.24
999.84	3377.10
1000.00	3428.30
1000.16	3334.09
1000.32	3243.98
1000.48	3354.57
1000.64	3133.39
1000.80	3344.33
1000.95	3205.07
1001.11	3309.52
1001.27	3127.25
1001.43	3278.80
1001.59	3149.78
1001.75	3155.92
1001.91	3166.16
1002.07	3278.80
1002.23	3194.83
1002.39	3129.30
1002.55	3198.93
1002.71	3141.58
1002.87	3076.05
1003.03	3125.20
1003.19	3102.67
1003.34	3149.78
1003.50	3153.87
1003.66	3178.45
1003.82	3153.87
1003.98	3047.38
1004.14	3092.43
1004.30	3117.01
1004.46	3022.80
1004.62	3117.01
1004.78	3166.16
1004.94	3035.09
1005.09	3078.10
1005.25	2994.13
1005.41	2936.79
1005.57	2947.03
1005.73	3045.33
1005.89	3030.99
1006.05	3016.66
1006.21	2981.84
1006.37	2854.87
1006.52	2918.36
1006.68	2908.12
1006.84	2879.44
1007.00	2953.17
1007.16	2944.98
1007.32	3018.71
1007.48	2846.68
1007.64	2861.01
1007.79	2854.87
1007.95	2826.20
1008.11	3016.66
1008.27	2865.11
1008.43	2920.40
1008.59	2861.01
1008.75	2918.36
1008.91	2805.72
1009.06	2805.72
1009.22	2801.62
1009.38	2885.59
1009.54	2871.25
1009.70	2738.13
1009.86	2904.02
1010.01	2854.87
1010.17	2715.61
1010.33	2912.21
1010.49	2746.33
1010.65	2803.67
1010.81	2660.31
1010.96	2801.62
1011.12	2734.04
1011.28	2746.33
1011.44	2748.37
1011.60	2799.57
1011.76	2811.86
1011.91	2715.61
1012.07	2725.85
1012.23	2688.98
1012.39	2584.54
1012.55	2723.80
1012.71	2721.75
1012.86	2625.50
1013.02	2678.74
1013.18	2607.06
1013.34	2555.86
1013.50	2602.97
1013.65	2670.55
1013.81	2613.21
1013.97	2535.39
1014.13	2678.74
1014.29	2543.58
1014.44	2680.79
1014.60	2617.30
1014.76	2471.90
1014.92	2664.41
1015.07	2623.45
1015.23	2590.68
1015.39	2537.43
1015.55	2551.77
1015.71	2519.00
1015.86	2570.20
1016.02	2514.91
1016.18	2379.74
1016.34	2555.86
1016.49	2510.81
1016.65	2535.39
1016.81	2473.95
1016.97	2533.34
1017.12	2484.19
1017.28	2420.70
1017.44	2435.03
1017.60	2439.13
1017.75	2473.95
1017.91	2373.60
1018.07	2482.14
1018.23	2455.51
1018.38	2428.89
1018.54	2334.68
1018.70	2316.25
1018.86	2445.27
1019.01	2406.36
1019.17	2349.02
1019.33	2512.86
1019.49	2426.84
1019.64	2426.84
1019.80	2424.80
1019.96	2467.80
1020.12	2396.12
1020.27	2279.39
1020.43	2385.88
1020.59	2396.12
1020.74	2377.69
1020.90	2426.84
1021.06	2355.16
1021.22	2439.13
1021.37	2183.13
1021.53	2306.01
1021.69	2355.16
1021.84	2252.77
1022.00	2277.34
1022.16	2242.53
1022.31	2285.53
1022.47	2269.15
1022.63	2361.31
1022.79	2228.19
1022.94	2142.18
1023.10	2389.98
1023.26	2291.68
1023.41	2176.99
1023.57	2248.67
1023.73	2263.01
1023.88	2258.91
1024.04	2246.62
1024.20	2260.96
1024.35	2285.53
1024.51	2308.06
1024.67	2301.92
1024.82	2330.59
1024.98	2142.18
1025.14	2209.76
1025.29	2164.70
1025.45	2220.00
1025.61	2179.04
1025.76	2234.33
1025.92	2154.46
1026.08	2191.33
1026.23	2164.70
1026.39	2217.95
1026.55	2197.47
1026.70	2164.70
1026.86	2115.55
1027.02	2191.33
1027.17	2252.77
1027.33	2195.42
1027.48	2115.55
1027.64	2080.74
1027.80	2103.26
1027.95	2230.24
1028.11	2076.64
1028.27	2150.37
1028.42	2138.08
1028.58	2088.93
1028.73	2074.59
1028.89	2060.26
1029.05	2254.81
1029.20	2148.32
>>>>>End Processed Spectral Data<<<<<
