SpectraSuite Data File
++++++++++++++++++++++++++++++++++++
Date: Fri Jun 02 14:44:34 CEST 2017
User: INFO_000
Dark Spectrum Present: No
Reference Spectrum Present: No
Number of Sampled Component Spectra: 1
Spectrometers: USB4H00879
Integration Time (usec): 80000 (USB4H00879)
Spectra Averaged: 1 (USB4H00879)
Boxcar Smoothing: 0 (USB4H00879)
Correct for Electrical Dark: No (USB4H00879)
Strobe/Lamp Enabled: No (USB4H00879)
Correct for Detector Non-linearity: No (USB4H00879)
Correct for Stray Light: No (USB4H00879)
Number of Pixels in Processed Spectrum: 3648
>>>>>Begin Processed Spectral Data<<<<<
345.13	1284.08
345.34	1284.08
345.56	1284.08
345.78	1249.26
345.99	1265.64
346.21	1689.57
346.42	1710.05
346.64	1650.66
346.86	1753.06
347.07	1667.05
347.29	1671.14
347.50	1597.42
347.72	1677.29
347.94	1703.91
348.15	1630.18
348.37	1593.32
348.59	1728.49
348.80	1642.47
349.02	1804.26
349.23	1902.56
349.45	1781.73
349.67	1814.50
349.88	1771.49
350.10	1939.43
350.31	1910.75
350.53	1886.18
350.75	1984.48
350.96	1816.55
351.18	1855.46
351.39	1839.08
351.61	1816.55
351.82	1863.65
352.04	1912.80
352.26	1816.55
352.47	1894.37
352.69	1875.94
352.90	1822.69
353.12	1847.27
353.34	1884.13
353.55	1935.33
353.77	1884.13
353.98	1828.84
354.20	1857.51
354.41	1904.61
354.63	1890.28
354.85	2060.26
355.06	1896.42
355.28	1802.21
355.49	1886.18
355.71	1929.19
355.92	1902.56
356.14	1955.81
356.35	1855.46
356.57	1804.26
356.79	1925.09
357.00	1888.23
357.22	1986.53
357.43	1765.35
357.65	1918.95
357.86	1923.04
358.08	1830.88
358.29	1964.00
358.51	1972.19
358.72	1908.71
358.94	1859.56
359.16	1966.05
359.37	1910.75
359.59	1892.32
359.80	1964.00
360.02	1871.84
360.23	1925.09
360.45	2027.49
360.66	1906.66
360.88	1959.91
361.09	1976.29
361.31	2007.01
361.52	1935.33
361.74	2066.40
361.95	2039.78
362.17	1943.52
362.38	2090.98
362.60	2025.44
362.81	1955.81
363.03	1968.10
363.24	1972.19
363.46	2070.50
363.67	1972.19
363.89	2002.91
364.10	2002.91
364.32	1986.53
364.53	2060.26
364.75	1974.24
364.96	1990.63
365.18	2029.54
365.39	2039.78
365.61	1920.99
365.82	2121.70
366.04	1972.19
366.25	1929.19
366.47	2041.82
366.68	2031.58
366.90	1966.05
367.11	2162.66
367.33	2082.78
367.54	2045.92
367.76	2068.45
367.97	2117.60
368.19	1992.67
368.40	2060.26
368.62	2027.49
368.83	2027.49
369.05	2031.58
369.26	1978.34
369.48	2019.30
369.69	2000.87
369.91	1951.71
370.12	2084.83
370.33	2107.36
370.55	2050.02
370.76	2011.11
370.98	2066.40
371.19	2013.15
371.41	1961.95
371.62	2090.98
371.84	2054.11
372.05	2156.51
372.27	2150.37
372.48	2078.69
372.69	2066.40
372.91	2117.60
373.12	2142.18
373.34	2105.31
373.55	2197.47
373.77	2185.18
373.98	2086.88
374.20	2158.56
374.41	2236.38
374.62	2109.41
374.84	2133.98
375.05	2164.70
375.27	2238.43
375.48	2129.89
375.70	2152.42
375.91	2250.72
376.12	2287.58
376.34	2191.33
376.55	2148.32
376.77	2179.04
376.98	2129.89
377.19	2103.26
377.41	2183.13
377.62	2236.38
377.84	2279.39
378.05	2285.53
378.27	2138.08
378.48	2285.53
378.69	2371.55
378.91	2277.34
379.12	2170.85
379.34	2166.75
379.55	2256.86
379.76	2265.05
379.98	2228.19
380.19	2273.25
380.41	2217.95
380.62	2246.62
380.83	2297.82
381.05	2197.47
381.26	2312.16
381.47	2277.34
381.69	2283.49
381.90	2441.18
382.12	2283.49
382.33	2306.01
382.54	2250.72
382.76	2310.11
382.97	2256.86
383.19	2250.72
383.40	2428.89
383.61	2342.88
383.83	2346.97
384.04	2387.93
384.25	2306.01
384.47	2420.70
384.68	2293.72
384.89	2291.68
385.11	2453.47
385.32	2295.77
385.54	2365.40
385.75	2396.12
385.96	2428.89
386.18	2414.56
386.39	2367.45
386.60	2383.84
386.82	2473.95
387.03	2469.85
387.24	2516.95
387.46	2381.79
387.67	2410.46
387.88	2533.34
388.10	2465.75
388.31	2416.60
388.52	2461.66
388.74	2502.62
388.95	2564.06
389.16	2537.43
389.38	2469.85
389.59	2600.92
389.80	2721.75
390.02	2602.97
390.23	2617.30
390.44	2527.19
390.66	2588.63
390.87	2533.34
391.08	2611.16
391.30	2740.18
391.51	2731.99
391.72	2605.02
391.94	2719.70
392.15	2668.50
392.36	2688.98
392.58	2566.10
392.79	2600.92
393.00	2650.07
393.22	2783.19
393.43	2709.46
393.64	2883.54
393.85	2820.05
394.07	2738.13
394.28	2807.77
394.49	2764.76
394.71	2750.42
394.92	2881.49
395.13	2668.50
395.35	2662.36
395.56	2703.32
395.77	2785.24
395.98	2824.15
396.20	2869.20
396.41	2838.48
396.62	2869.20
396.84	2885.59
397.05	2885.59
397.26	2916.31
397.47	2867.16
397.69	2861.01
397.90	3000.27
398.11	2879.44
398.32	2830.29
398.54	2881.49
398.75	2865.11
398.96	2914.26
399.18	3065.81
399.39	2926.55
399.60	3051.47
399.81	2895.83
400.03	2887.64
400.24	3307.47
400.45	2955.22
400.66	3024.85
400.88	2965.46
401.09	3297.23
401.30	3082.19
401.51	3112.91
401.73	3110.86
401.94	3131.34
402.15	3180.50
402.36	3153.87
402.58	3227.60
402.79	3090.38
403.00	3098.58
403.21	3264.46
403.43	3231.69
403.64	3293.13
403.85	3000.27
404.06	3264.46
404.27	3067.86
404.49	3264.46
404.70	3276.75
404.91	3356.62
405.12	3301.33
405.34	3258.32
405.55	3432.40
405.76	3215.31
405.97	3348.43
406.19	3370.96
406.40	3178.45
406.61	3336.14
406.82	3260.37
407.03	3293.13
407.25	3254.22
407.46	3428.30
407.67	3379.15
407.88	3465.16
408.09	3235.79
408.31	3358.67
408.52	3370.96
408.73	3303.37
408.94	3330.00
409.15	3485.64
409.37	3430.35
409.58	3459.02
409.79	3518.41
410.00	3573.71
410.21	3555.27
410.43	3481.55
410.64	3416.01
410.85	3573.71
411.06	3655.62
411.27	3549.13
411.48	3690.44
411.70	3618.76
411.91	3555.27
412.12	3674.06
412.33	3661.77
412.54	3649.48
412.76	3807.17
412.97	3741.64
413.18	3514.31
413.39	3641.29
413.60	3643.34
413.81	3678.15
414.03	3667.91
414.24	3674.06
414.45	3774.41
414.66	3694.54
414.87	3745.73
415.08	3727.30
415.30	3702.73
415.51	3780.55
415.72	3715.02
415.93	3712.97
416.14	3772.36
416.35	3872.71
416.56	3733.45
416.78	3786.69
416.99	3878.85
417.20	3848.13
417.41	3819.46
417.62	3889.09
417.83	3991.49
418.04	3905.48
418.26	3928.00
418.47	3899.33
418.68	4038.59
418.89	4036.55
419.10	4128.70
419.31	4100.03
419.52	4149.18
419.73	4179.90
419.95	4280.25
420.16	3878.85
420.37	4032.45
420.58	4069.31
420.79	3995.59
421.00	4120.51
421.21	4165.57
421.42	4071.36
421.63	4097.99
421.85	4181.95
422.06	4255.68
422.27	4210.62
422.48	4091.84
422.69	4247.49
422.90	4177.86
423.11	4222.91
423.32	4294.59
423.53	4421.56
423.75	4263.87
423.96	4517.82
424.17	4343.74
424.38	4517.82
424.59	4362.17
424.80	4591.55
425.01	4487.10
425.22	4280.25
425.43	4399.04
425.64	4616.12
425.85	4546.49
426.06	4628.41
426.28	4587.45
426.49	4464.57
426.70	4624.31
426.91	4726.71
427.12	4704.18
427.33	4607.93
427.54	4657.08
427.75	4710.33
427.96	4777.91
428.17	4767.67
428.38	4822.97
428.59	4777.91
428.80	4829.11
429.01	4937.65
429.23	4724.66
429.44	4956.08
429.65	4915.12
429.86	4880.31
430.07	4921.27
430.28	4976.56
430.49	4935.60
430.70	5068.72
430.91	5212.08
431.12	5021.62
431.33	5218.22
431.54	5189.55
431.75	5136.31
431.96	5124.02
432.17	5056.43
432.38	5228.46
432.59	5189.55
432.80	5341.10
433.01	5263.28
433.22	5449.64
433.43	5287.86
433.64	5132.21
433.85	5480.36
434.06	5406.64
434.27	5351.34
434.49	5498.80
434.70	5539.76
434.91	5365.68
435.12	5480.36
435.33	5543.85
435.54	5433.26
435.75	5394.35
435.96	5562.28
436.17	5439.40
436.38	5787.56
436.59	5525.42
436.80	5496.75
437.01	5689.26
437.22	5799.85
437.43	5697.45
437.64	5588.91
437.85	5906.34
438.06	5740.46
438.27	5699.50
438.48	5746.60
438.69	5783.46
438.90	5857.19
439.11	5701.54
439.32	5922.73
439.53	5916.58
439.74	5828.52
439.95	5849.00
440.16	6006.69
440.37	6072.23
440.57	5846.95
440.78	6004.64
440.99	6201.25
441.20	6066.08
441.41	5943.21
441.62	5916.58
441.83	5978.02
442.04	6289.31
442.25	6070.18
442.46	5965.73
442.67	6311.84
442.88	6467.49
443.09	6025.12
443.30	6324.13
443.51	6223.78
443.72	6449.05
443.93	6209.44
444.14	6582.17
444.35	6107.04
444.56	6311.84
444.77	6371.23
444.98	6401.95
445.19	6565.79
445.40	6449.05
445.61	6553.50
445.81	6510.49
446.02	6721.43
446.23	6678.43
446.44	6449.05
446.65	6543.26
446.86	6561.69
447.07	6680.47
447.28	6733.72
447.49	6791.06
447.70	6645.66
447.91	6784.92
448.12	6762.39
448.33	7006.10
448.54	6782.87
448.74	6621.08
448.95	6805.40
449.16	6748.06
449.37	7098.26
449.58	6893.46
449.79	7141.27
450.00	6961.05
450.21	6883.22
450.42	7024.53
450.63	7049.11
450.84	6954.90
451.05	7182.23
451.25	7061.40
451.46	7147.41
451.67	7147.41
451.88	7307.15
452.09	7270.29
452.30	7116.69
452.51	7124.88
452.72	7456.65
452.93	7501.71
453.13	7165.84
453.34	7536.52
453.55	7436.17
453.76	7352.21
453.97	7665.55
454.18	7509.90
454.39	7628.68
454.60	7516.05
454.81	7628.68
455.01	7673.74
455.22	7356.30
455.43	7694.22
455.64	8003.46
455.85	7882.63
456.06	8003.46
456.27	7784.33
456.48	7845.77
456.68	7677.83
456.89	7942.02
457.10	8097.67
457.31	7974.79
457.52	7982.98
457.73	8183.68
457.94	8370.05
458.14	7870.34
458.35	8417.15
458.56	8249.22
458.77	8265.60
458.98	8302.47
459.19	8191.88
459.39	8531.84
459.60	8441.73
459.81	8542.08
460.02	8687.48
460.23	8566.65
460.44	8814.46
460.65	8597.37
460.85	8796.03
461.06	8963.96
461.27	8611.71
461.48	8712.06
461.69	8966.01
461.89	8576.89
462.10	8896.38
462.31	8769.40
462.52	8984.44
462.73	9047.93
462.94	9123.70
463.14	9105.27
463.35	9199.48
463.56	9512.81
463.77	9355.12
463.98	9224.05
464.18	9291.63
464.39	9402.22
464.60	9473.90
464.81	9559.92
465.02	9488.24
465.23	9795.43
465.43	9684.84
465.64	9946.98
465.85	9854.83
466.06	9820.01
466.27	10010.47
466.47	9912.17
466.68	10076.01
466.89	10116.97
467.10	10252.13
467.30	10133.35
467.51	10401.63
467.72	10518.37
467.93	10098.53
468.14	10454.88
468.34	10700.64
468.55	10506.08
468.76	10628.96
468.97	10534.75
469.17	10956.63
469.38	11018.07
469.59	11075.42
469.80	10817.37
470.01	11028.31
470.21	10997.59
470.42	11143.00
470.63	11229.01
470.84	11269.97
471.04	11374.42
471.25	11358.03
471.46	11421.52
471.67	11620.17
471.87	11548.50
472.08	11712.33
472.29	12101.45
472.50	11560.78
472.70	11753.29
472.91	11884.36
473.12	11958.09
473.33	12158.79
473.53	12320.58
473.74	11982.67
473.95	12420.93
474.16	12492.61
474.36	12648.26
474.57	12560.19
474.78	12752.70
474.99	12527.42
475.19	12646.21
475.40	12961.59
475.61	13098.81
475.81	13209.40
476.02	13403.96
476.23	13346.61
476.44	13178.68
476.64	13551.41
476.85	13682.48
477.06	13770.54
477.27	13987.63
477.47	13897.52
477.68	13750.06
477.89	13948.72
478.09	13924.14
478.30	14221.10
478.51	14354.21
478.71	14413.60
478.92	14575.39
479.13	14731.04
479.34	14722.85
479.54	14800.67
479.75	14659.36
479.96	14837.53
480.16	15077.15
480.37	15187.74
480.58	15193.88
480.78	15396.63
480.99	15365.91
481.20	15220.50
481.41	15662.86
481.61	15769.36
481.82	15779.60
482.03	15697.68
482.23	15818.51
482.44	15900.43
482.65	15982.35
482.85	16299.78
483.06	16156.43
483.27	16400.13
483.47	16273.16
483.68	16213.77
483.89	16572.16
484.09	16510.72
484.30	16539.40
484.51	17065.72
484.71	17004.28
484.92	16920.32
485.13	17250.04
485.33	17121.02
485.54	17168.12
485.75	17583.86
485.95	17587.96
486.16	17602.29
486.37	18034.41
486.57	17594.10
486.78	17921.77
486.98	17948.40
487.19	18042.60
487.40	18185.96
487.60	18200.30
487.81	18407.14
488.02	18536.17
488.22	18536.17
488.43	18538.21
488.64	18583.27
488.84	18714.34
489.05	18863.84
489.25	18933.47
489.46	19185.37
489.67	19154.65
489.87	19070.68
490.08	19336.92
490.29	19451.61
490.49	19711.70
490.70	19537.62
490.90	19601.11
491.11	19476.18
491.32	19793.62
491.52	19658.45
491.73	19934.93
491.94	20184.78
492.14	20104.91
492.35	20385.48
492.55	20240.08
492.76	20278.99
492.97	20715.20
493.17	20735.68
493.38	20778.69
493.58	20698.82
493.79	20891.33
494.00	21079.74
494.20	20778.69
494.41	21143.23
494.61	21231.29
494.82	21235.39
495.02	21384.89
495.23	21450.42
495.44	21534.39
495.64	21614.26
495.85	21612.21
496.05	21997.23
496.26	21690.04
496.47	22234.80
496.67	21827.25
496.88	21995.18
497.08	21829.30
497.29	22216.36
497.49	22359.72
497.70	22378.15
497.91	22437.55
498.11	22533.80
498.32	22673.06
498.52	22765.22
498.73	22988.45
498.93	22804.13
499.14	22994.59
499.34	22937.25
499.55	22988.45
499.76	23096.99
499.96	23396.00
500.17	23178.91
500.37	23187.10
500.58	23594.65
500.78	23131.81
500.99	23791.25
501.19	23836.31
501.40	23971.47
501.60	23676.57
501.81	23783.06
502.02	24088.21
502.22	23772.82
502.43	23907.99
502.63	24520.33
502.84	24116.88
503.04	24080.02
503.25	24256.14
503.45	24475.27
503.66	24784.52
503.86	24696.46
504.07	24864.39
504.27	24583.82
504.48	25001.60
504.68	25087.62
504.89	25112.19
505.09	24850.05
505.30	25288.32
505.50	24985.22
505.71	25179.78
505.91	25327.23
506.12	25407.10
506.32	25337.47
506.53	25456.25
506.73	25497.21
506.94	25554.55
507.14	25618.04
507.35	25728.63
507.55	25906.80
507.76	26252.91
507.96	25689.72
508.17	26166.90
508.37	25892.47
508.58	26130.03
508.78	26087.03
508.99	26467.95
509.19	26232.43
509.40	26123.89
509.60	26392.17
509.81	26574.44
510.01	26359.41
510.22	26701.42
510.42	26637.93
510.63	26840.68
510.83	26705.51
511.04	26904.17
511.24	27010.66
511.44	26750.57
511.65	26902.12
511.85	26945.12
512.06	27125.35
512.26	27029.09
512.47	27135.59
512.67	27006.56
512.88	27225.70
513.08	26846.82
513.29	27428.45
513.49	27461.21
513.69	27043.43
513.90	27534.94
514.10	27799.13
514.31	27643.48
514.51	27723.35
514.72	27580.00
514.92	27616.86
515.13	27854.42
515.33	27723.35
515.53	27889.24
515.74	27651.67
515.94	28194.39
516.15	27760.22
516.35	27932.25
516.56	28268.11
516.76	28096.08
516.96	28386.89
517.17	28483.15
517.37	28571.21
517.58	28694.09
517.78	28728.91
517.99	28491.34
518.19	28943.94
518.39	28882.50
518.60	29210.18
518.80	29124.16
519.01	29005.38
519.21	29093.44
519.41	29300.29
519.62	29345.34
519.82	29148.74
520.03	29546.05
520.23	29308.48
520.43	29443.65
520.64	29926.97
520.84	29693.50
521.05	29560.38
521.25	29795.90
521.45	30107.19
521.66	29836.86
521.86	29843.00
522.07	30158.39
522.27	30035.51
522.47	30033.46
522.68	30367.28
522.88	30432.82
523.08	30531.12
523.29	30692.91
523.49	30780.97
523.70	30410.29
523.90	30797.35
524.10	30666.28
524.31	31047.21
524.51	30666.28
524.71	31286.82
524.92	31133.22
525.12	31114.79
525.33	31071.78
525.53	31694.36
525.73	31661.60
525.94	31571.49
526.14	31331.87
526.34	31577.63
526.55	31643.17
526.75	31817.24
526.95	31913.50
527.16	31788.57
527.36	32089.62
527.56	32144.92
527.77	32273.94
527.97	32321.04
528.17	32505.36
528.38	32673.29
528.58	32792.08
528.78	32929.29
528.99	32595.47
529.19	32869.90
529.39	32937.48
529.60	33009.16
529.80	32939.53
530.00	33074.70
530.21	33162.76
530.41	33287.68
530.61	33355.27
530.82	33459.71
531.02	33318.40
531.22	33562.11
531.43	33928.70
531.63	33725.95
531.83	33768.96
532.04	34063.86
532.24	33586.69
532.44	34221.56
532.64	34547.18
532.85	34532.85
533.05	34565.62
533.25	34590.19
533.46	34203.13
533.66	34936.30
533.86	34625.01
534.07	35075.56
534.27	34764.27
534.47	35263.97
534.67	35317.22
534.88	35235.30
535.08	35243.49
535.28	35735.01
535.49	35634.66
535.69	35642.85
535.89	35849.69
536.09	35796.45
536.30	35982.81
536.50	36138.46
536.70	36001.24
536.91	35927.52
537.11	36337.11
537.31	36371.92
537.51	36376.02
537.72	36472.28
537.92	36670.93
538.12	37049.80
538.32	36687.31
538.53	36877.77
538.73	36933.07
538.93	36847.05
539.13	37125.58
539.34	37326.28
539.54	36941.26
539.74	37490.12
539.94	37299.65
540.15	37313.99
540.35	37363.14
540.55	37471.68
540.75	37701.06
540.96	37500.36
541.16	37615.04
541.36	38114.75
541.56	38098.36
541.77	37717.44
541.97	38161.85
542.17	38176.19
542.37	38372.79
542.58	38456.76
542.78	38376.89
542.98	38630.83
543.18	38532.53
543.38	38876.59
543.59	38772.14
543.79	38421.94
543.99	38931.89
544.19	39028.14
544.40	38892.97
544.60	39282.09
544.80	39036.33
545.00	39400.87
545.20	39157.16
545.41	39026.09
545.61	39462.31
545.81	39617.96
546.01	39482.79
546.21	39785.89
546.42	39587.24
546.62	39804.32
546.82	39466.41
547.02	39595.43
547.22	39970.21
547.43	39667.11
547.63	39910.82
547.83	40523.16
548.03	40019.36
548.23	40261.02
548.44	39876.00
548.64	40191.39
548.84	40674.71
549.04	40213.91
549.24	40467.86
549.45	40750.48
549.65	40412.57
549.85	40775.06
550.05	40684.95
550.25	40361.37
550.45	41131.40
550.66	40748.43
550.86	40770.96
551.06	41088.40
551.26	41246.09
551.46	40951.18
551.66	40938.90
551.87	41065.87
552.07	41301.39
552.27	41168.27
552.47	41373.06
552.67	41368.97
552.87	41407.88
553.07	41272.71
553.28	41411.98
553.48	41452.94
553.68	41307.53
553.88	41850.24
554.08	42079.61
554.28	41915.78
554.48	41399.69
554.69	42020.22
554.89	41958.78
555.09	41764.23
555.29	41766.27
555.49	42042.75
555.69	42276.22
555.89	42085.76
556.10	42190.20
556.30	42241.40
556.50	42200.44
556.70	42157.44
556.90	42642.81
557.10	42593.65
557.30	42440.06
557.50	42612.09
557.70	42945.90
557.91	42765.68
558.11	42728.82
558.31	42806.64
558.51	42906.99
558.71	42638.71
558.91	43081.07
559.11	42956.14
559.31	42890.61
559.51	42868.08
559.72	43103.60
559.92	43236.72
560.12	43087.21
560.32	43224.43
560.52	43287.92
560.72	43230.57
560.92	43347.31
561.12	43480.42
561.32	43505.00
561.52	43193.71
561.72	43890.02
561.93	43472.23
562.13	43623.78
562.33	43445.61
562.53	43935.07
562.73	43222.38
562.93	43717.99
563.13	43785.57
563.33	43707.75
563.53	43822.44
563.73	43599.21
563.93	43959.65
564.13	44098.91
564.33	44094.82
564.53	44066.14
564.74	44342.62
564.94	43814.24
565.14	44250.46
565.34	44094.82
565.54	44180.83
565.74	44416.35
565.94	44701.01
566.14	44240.22
566.34	44727.64
566.54	45143.38
566.74	44490.07
566.94	44662.10
567.14	44803.41
567.34	44125.53
567.54	45266.25
567.74	44619.10
567.94	44522.84
568.14	45206.86
568.34	44756.31
568.54	45036.88
568.74	44762.45
568.94	44856.66
569.14	45475.15
569.34	45425.99
569.54	45321.55
569.75	44733.78
569.95	45208.91
570.15	45550.92
570.35	45319.50
570.55	45094.22
570.75	45536.59
570.95	45421.90
571.15	45720.90
571.35	45487.43
571.55	45665.61
571.75	45620.55
571.95	45696.33
572.15	45737.29
572.35	45307.21
572.55	45604.17
572.75	45976.90
572.95	45735.24
573.15	46216.51
573.35	45976.90
573.55	46083.39
573.75	45675.85
573.95	46265.66
574.15	46003.52
574.35	46353.72
574.55	46236.99
574.75	45993.28
574.95	46202.18
575.15	46267.71
575.34	46415.16
575.54	46163.26
575.74	46724.41
575.94	46243.13
576.14	46585.15
576.34	46894.39
576.54	47263.02
576.74	47037.75
576.94	46419.26
577.14	46929.20
577.34	47379.76
577.54	46998.83
577.74	47035.70
577.94	46904.63
578.14	46826.81
578.34	47142.19
578.54	46527.80
578.74	46880.05
578.94	46961.97
579.14	46826.81
579.34	47203.63
579.54	47082.80
579.74	47482.16
579.94	47791.40
580.13	47639.85
580.33	47363.37
580.53	47584.55
580.73	47938.85
580.93	47672.62
581.13	47623.47
581.33	48020.77
581.53	47940.90
581.73	47815.97
581.93	48170.27
582.13	47822.12
582.33	48207.14
582.53	48258.34
582.73	47830.31
582.92	48184.61
583.12	48391.45
583.32	48053.54
583.52	47981.86
583.72	48321.82
583.92	48133.41
584.12	47969.57
584.32	48805.14
584.52	48575.77
584.72	48604.44
584.92	48672.03
585.11	48844.05
585.31	48850.20
585.51	48862.49
585.71	48755.99
585.91	49227.02
586.11	48850.20
586.31	48837.91
586.51	48633.11
586.71	48895.25
586.91	49141.01
587.10	49192.21
587.30	48776.47
587.50	48719.13
587.70	49261.84
587.90	49286.42
588.10	49329.42
588.30	49028.37
588.50	49399.05
588.69	49296.66
588.89	49452.30
589.09	49591.56
589.29	49661.19
589.49	49784.07
589.69	49333.52
589.89	49921.29
590.08	49691.91
590.28	49681.67
590.48	49915.14
590.68	49698.06
590.88	49771.78
591.08	49954.05
591.28	49503.50
591.47	50240.77
591.67	50062.60
591.87	49986.82
592.07	50074.88
592.27	50021.64
592.47	50173.19
592.67	50109.70
592.86	50132.23
593.06	50148.61
593.26	50285.82
593.46	50054.40
593.66	50437.37
593.86	50445.57
594.05	50646.27
594.25	50574.59
594.45	50607.36
594.65	50861.30
594.85	50316.54
595.05	50404.61
595.24	50935.03
595.44	50588.92
595.64	50464.00
595.84	50636.03
596.04	50830.58
596.23	50748.67
596.43	51191.03
596.63	50263.30
596.83	51043.57
597.03	51340.53
597.22	51608.81
597.42	51326.19
597.62	51442.93
597.82	51778.79
598.02	51307.76
598.21	51559.66
598.41	51059.96
598.61	51397.87
598.81	51483.89
599.01	51711.21
599.20	51463.41
599.40	51270.90
599.60	51721.45
599.80	51733.74
600.00	51836.14
600.19	52088.04
600.39	51846.38
600.59	51825.90
600.79	51832.04
600.98	51725.55
601.18	52458.72
601.38	52544.73
601.58	52329.70
601.78	52733.15
601.97	52827.35
602.17	52954.33
602.37	52362.46
602.57	52321.51
602.76	52886.74
602.96	52290.79
603.16	52317.41
603.36	52583.65
603.55	53167.32
603.75	52659.42
603.95	52872.41
604.15	53370.07
604.34	52581.60
604.54	53064.92
604.74	52956.38
604.94	53286.10
605.13	53044.44
605.33	53091.54
605.53	53507.28
605.73	53617.87
605.92	53279.96
606.12	53624.01
606.32	53503.18
606.52	53032.15
606.71	53404.88
606.91	53871.82
607.11	53302.48
607.30	53583.05
607.50	53394.64
607.70	53949.64
607.90	53783.76
608.09	53466.32
608.29	54162.63
608.49	54093.00
608.68	53892.30
608.88	53873.87
609.08	54439.11
609.28	54514.88
609.47	54115.53
609.67	54633.66
609.87	54021.32
610.06	54555.84
610.26	54072.52
610.46	54627.52
610.66	54664.38
610.85	54445.25
611.05	54336.71
611.25	55170.23
611.44	54566.08
611.64	54334.66
611.84	54650.05
612.03	54287.56
612.23	54930.62
612.43	54670.53
612.62	54533.31
612.82	55076.02
613.02	54918.33
613.21	55172.28
613.41	54641.85
613.61	55055.54
613.80	54385.86
614.00	55207.09
614.20	54566.08
614.39	55104.70
614.59	54985.91
614.79	55065.78
614.98	54754.49
615.18	55119.03
615.38	55098.55
615.57	55055.54
615.77	55571.63
615.97	55024.82
616.16	55219.38
616.36	55346.36
616.56	55192.76
616.75	55045.30
616.95	55041.21
617.15	54981.82
617.34	55391.41
617.54	55063.74
617.74	55057.59
617.93	55123.13
618.13	55186.61
618.32	55671.98
618.52	55192.76
618.72	55323.83
618.91	55456.95
619.11	54779.07
619.31	55121.08
619.50	55411.89
619.70	55059.64
619.90	55090.36
620.09	55209.14
620.29	55366.84
620.48	55248.05
620.68	55956.65
620.88	54748.35
621.07	55309.49
621.27	55532.72
621.46	55010.49
621.66	55149.75
621.86	55162.04
622.05	54772.92
622.25	55868.59
622.44	55145.65
622.64	55055.54
622.84	55504.05
623.03	55225.53
623.23	55188.66
623.42	55145.65
623.62	55749.81
623.82	55329.97
624.01	55545.01
624.21	55567.54
624.40	55520.43
624.60	55776.43
624.80	55065.78
624.99	55444.66
625.19	54985.91
625.38	55198.90
625.58	55286.96
625.77	55516.34
625.97	55481.52
626.17	55282.87
626.36	55256.24
626.56	55719.09
626.75	54840.51
626.95	55860.40
627.14	55168.18
627.34	55807.15
627.54	55278.77
627.73	55565.49
627.93	55874.73
628.12	55450.80
628.32	55409.84
628.51	56005.80
628.71	55618.74
628.90	55321.78
629.10	55553.20
629.30	55620.78
629.49	55637.17
629.69	55499.95
629.88	55620.78
630.08	55884.97
630.27	55524.53
630.47	55192.76
630.66	55616.69
630.86	55694.51
631.05	55471.28
631.25	55999.66
631.44	56005.80
631.64	55469.23
631.84	55641.26
632.03	56038.57
632.23	55436.47
632.42	56448.16
632.62	55719.09
632.81	55569.58
633.01	55588.02
633.20	56218.79
633.40	55813.29
633.59	55887.02
633.79	55319.73
633.98	55581.87
634.18	55753.90
634.37	55930.03
634.57	55651.50
634.76	56145.06
634.96	55907.50
635.15	55671.98
635.35	55626.93
635.54	55950.51
635.74	55553.20
635.93	55581.87
636.13	56114.34
636.32	56472.74
636.52	55680.17
636.71	56218.79
636.91	55921.83
637.10	56153.26
637.30	55342.26
637.49	55446.71
637.69	55649.45
637.88	56091.82
638.08	55743.66
638.27	55921.83
638.46	56243.37
638.66	55563.44
638.85	55776.43
639.05	55743.66
639.24	55919.79
639.44	55700.65
639.63	55950.51
639.83	56022.19
640.02	55878.83
640.22	55661.74
640.41	56546.47
640.61	55590.06
640.80	55964.84
640.99	55633.07
641.19	55956.65
641.38	55770.28
641.58	55942.31
641.77	56243.37
641.97	55913.64
642.16	55727.28
642.36	55934.12
642.55	56067.24
642.74	55141.56
642.94	56300.71
643.13	55852.20
643.33	56214.69
643.52	56071.34
643.72	56063.14
643.91	56327.33
644.10	55854.25
644.30	56464.55
644.49	56194.21
644.69	56515.75
644.88	55923.88
645.08	56235.17
645.27	56114.34
645.46	55854.25
645.66	56120.49
645.85	56046.76
646.05	56327.33
646.24	56259.75
646.43	55784.62
646.63	56628.38
646.82	56591.52
647.02	56192.17
647.21	56341.67
647.40	56057.00
647.60	56628.38
647.79	56452.26
647.99	56259.75
648.18	55985.32
648.37	56513.70
648.57	56665.25
648.76	56450.21
648.96	56022.19
649.15	56730.78
649.34	56280.23
649.54	56448.16
649.73	56108.20
649.92	56716.45
650.12	56376.48
650.31	56435.87
650.51	56407.20
650.70	56478.88
650.89	56386.72
651.09	56882.33
651.28	56743.07
651.47	56278.18
651.67	56382.63
651.86	57193.62
652.06	56218.79
652.25	56392.87
652.44	56327.33
652.64	56564.90
652.83	56429.73
653.02	55946.41
653.22	56880.28
653.41	56210.60
653.60	56120.49
653.80	55942.31
653.99	57015.45
654.18	56054.95
654.38	56495.27
654.57	56366.24
654.76	56392.87
654.96	55909.55
655.15	56263.85
655.34	56650.91
655.54	56001.71
655.73	56407.20
655.92	56247.46
656.12	56577.18
656.31	56487.07
656.50	56200.36
656.70	56390.82
656.89	56413.35
657.08	56775.84
657.28	56730.78
657.47	56349.86
657.66	56579.23
657.86	56220.84
658.05	56755.36
658.24	56523.94
658.43	56329.38
658.63	56841.37
658.82	56564.90
659.01	56743.07
659.21	56765.60
659.40	56759.45
659.59	56532.13
659.79	56769.69
659.98	56388.77
660.17	56695.97
660.36	56204.45
660.56	56384.68
660.75	56890.52
660.94	56390.82
661.14	56579.23
661.33	56224.93
661.52	55815.34
661.71	56433.83
661.91	56554.66
662.10	56310.95
662.29	56499.36
662.49	56685.73
662.68	57021.59
662.87	56824.99
663.06	56988.83
663.26	56702.11
663.45	56802.46
663.64	56657.06
663.83	56779.93
664.03	56845.47
664.22	56726.69
664.41	56853.66
664.60	56579.23
664.80	56419.49
664.99	56470.69
665.18	56337.57
665.37	56980.63
665.57	57023.64
665.76	56370.34
665.95	56612.00
666.14	56784.03
666.34	56116.39
666.53	56755.36
666.72	56423.59
666.91	56558.75
667.11	56140.97
667.30	56632.48
667.49	56480.93
667.68	56538.27
667.87	56693.92
668.07	56736.93
668.26	56706.21
668.45	56683.68
668.64	56685.73
668.84	57187.48
669.03	56509.60
669.22	56566.94
669.41	56630.43
669.60	56558.75
669.80	56444.07
669.99	56968.35
670.18	56444.07
670.37	56431.78
670.57	56962.20
670.76	56736.93
670.95	56763.55
671.14	56855.71
671.33	56464.55
671.53	57259.16
671.72	56751.26
671.91	56790.17
672.10	56501.41
672.29	56835.23
672.48	56212.65
672.68	57119.90
672.87	56333.48
673.06	56341.67
673.25	56251.56
673.44	56487.07
673.64	56597.66
673.83	57171.10
674.02	56423.59
674.21	56188.07
674.40	56466.59
674.59	56390.82
674.79	56421.54
674.98	56337.57
675.17	57320.60
675.36	56534.18
675.55	56954.01
675.74	56593.57
675.94	56597.66
676.13	56685.73
676.32	56634.53
676.51	56861.85
676.70	57029.79
676.89	56865.95
677.08	57089.18
677.28	56800.41
677.47	56800.41
677.66	56984.73
677.85	56540.32
678.04	56706.21
678.23	56894.62
678.42	56851.61
678.62	56609.95
678.81	57353.36
679.00	57078.94
679.19	57308.31
679.38	57300.12
679.57	56523.94
679.76	56966.30
679.96	57046.17
680.15	56468.64
680.34	56675.49
680.53	56702.11
680.72	56552.61
680.91	57037.98
681.10	56644.77
681.29	57083.03
681.48	57025.69
681.68	56771.74
681.87	56622.24
682.06	56765.60
682.25	56220.84
682.44	56734.88
682.63	56982.68
682.82	56540.32
683.01	56706.21
683.20	56599.71
683.39	56659.10
683.59	56337.57
683.78	56257.70
683.97	56390.82
684.16	56700.06
684.35	56208.55
684.54	56587.42
684.73	56208.55
684.92	56220.84
685.11	56120.49
685.30	56853.66
685.49	56329.38
685.69	56650.91
685.88	56628.38
686.07	56616.10
686.26	56407.20
686.45	56388.77
686.64	56196.26
686.83	56474.79
687.02	56865.95
687.21	56597.66
687.40	56900.76
687.59	56489.12
687.78	56054.95
687.97	56980.63
688.16	56534.18
688.35	56386.72
688.54	56153.26
688.74	56065.19
688.93	56163.50
689.12	56448.16
689.31	56097.96
689.50	56573.09
689.69	55747.76
689.88	55995.56
690.07	56323.24
690.26	56241.32
690.45	56372.39
690.64	56378.53
690.83	56183.97
691.02	56233.13
691.21	56063.14
691.40	56026.28
691.59	56255.65
691.78	56028.33
691.97	56194.21
692.16	55893.16
692.35	56587.42
692.54	56554.66
692.73	56272.04
692.92	56235.17
693.11	56083.62
693.30	55637.17
693.49	56071.34
693.68	55874.73
693.87	55997.61
694.06	55686.32
694.25	56079.53
694.44	55968.94
694.63	55458.99
694.82	56259.75
695.01	55254.20
695.20	55714.99
695.39	55923.88
695.58	55784.62
695.77	55381.17
695.96	55448.75
696.15	56026.28
696.34	55434.42
696.53	55786.67
696.72	55743.66
696.91	55342.26
697.10	55614.64
697.29	55674.03
697.48	55710.89
697.67	55551.15
697.86	54885.56
698.05	55104.70
698.24	55454.90
698.43	55114.94
698.62	55284.92
698.81	55366.84
699.00	55743.66
699.19	54883.51
699.38	55235.77
699.57	54908.09
699.76	55489.71
699.95	54924.47
700.14	55149.75
700.32	54441.15
700.51	54688.96
700.70	55192.76
700.89	54895.80
701.08	55035.06
701.27	54604.99
701.46	55098.55
701.65	54195.40
701.84	54822.08
702.03	55002.30
702.22	54494.40
702.41	54602.94
702.60	54742.20
702.79	54809.79
702.98	54611.13
703.17	54828.22
703.35	53916.87
703.54	54414.53
703.73	54953.15
703.92	54615.23
704.11	54432.96
704.30	54207.68
704.49	54693.05
704.68	54392.00
704.87	54367.43
705.06	54183.11
705.25	54029.51
705.43	54258.88
705.62	54455.49
705.81	54176.97
706.00	54154.44
706.19	53896.39
706.38	53847.24
706.57	54015.18
706.76	53585.10
706.95	54207.68
707.14	53400.79
707.32	53871.82
707.51	53714.12
707.70	53877.96
707.89	54064.33
708.08	53603.53
708.27	53591.25
708.46	53841.10
708.65	53605.58
708.84	53888.20
709.02	53769.42
709.21	53572.81
709.40	53904.59
709.59	53566.67
709.78	53497.04
709.97	53626.06
710.16	53073.11
710.34	53109.97
710.53	53187.80
710.72	53208.28
710.91	53378.26
711.10	53449.94
711.29	53210.32
711.48	53226.71
711.66	52995.29
711.85	52581.60
712.04	53165.27
712.23	52952.28
712.42	52425.95
712.61	52948.18
712.80	52247.78
712.98	53001.43
713.17	52962.52
713.36	52896.98
713.55	52692.19
713.74	52710.62
713.93	52712.67
714.11	52585.69
714.30	52241.63
714.49	52268.26
714.68	52487.39
714.87	52509.92
715.06	52339.94
715.24	52155.62
715.43	52167.91
715.62	51844.33
715.81	51500.27
716.00	52075.75
716.18	51252.47
716.37	51451.12
716.56	52028.65
716.75	52341.99
716.94	52026.60
717.12	51260.66
717.31	51987.69
717.50	51682.54
717.69	51664.11
717.88	51678.44
718.06	51729.64
718.25	51901.67
718.44	51113.20
718.63	51653.87
718.82	50902.26
719.00	50816.25
719.19	50609.40
719.38	51477.74
719.57	50885.88
719.76	50726.14
719.94	50685.18
720.13	50777.34
720.32	50545.92
720.51	51053.81
720.69	50267.39
720.88	50291.97
721.07	50693.37
721.26	50205.95
721.44	50351.36
721.63	49972.49
721.82	49771.78
722.01	49788.17
722.20	50185.47
722.38	49675.53
722.57	49599.76
722.76	49812.74
722.95	49530.12
723.13	49552.65
723.32	49591.56
723.51	49405.20
723.70	49722.63
723.88	49544.46
724.07	49141.01
724.26	49145.11
724.44	48690.46
724.63	49284.37
724.82	49526.03
725.01	49247.50
725.19	49450.25
725.38	48917.78
725.57	49009.94
725.76	49274.13
725.94	48815.38
726.13	49059.09
726.32	48911.64
726.51	48829.72
726.69	49331.47
726.88	49022.23
727.07	48706.84
727.25	48753.94
727.44	48446.75
727.63	48704.79
727.82	49132.82
728.00	48848.15
728.19	48262.43
728.38	49042.71
728.56	48252.19
728.75	48676.12
728.94	48260.38
729.12	48968.98
729.31	47988.00
729.50	48391.45
729.69	48543.00
729.87	48688.41
730.06	48098.59
730.25	48055.59
730.43	48923.93
730.62	48422.17
730.81	48381.21
730.99	48399.65
731.18	47682.86
731.37	48317.73
731.55	48215.33
731.74	48592.15
731.93	48309.53
732.11	48715.03
732.30	48297.25
732.49	48219.42
732.67	48358.69
732.86	48258.34
733.05	48280.86
733.23	48104.74
733.42	48045.35
733.61	47789.35
733.79	48172.32
733.98	47942.95
734.17	48086.31
734.35	47998.24
734.54	48280.86
734.73	47973.67
734.91	47979.81
735.10	47824.17
735.29	47969.57
735.47	47562.03
735.66	47926.56
735.84	47936.80
736.03	47574.31
736.22	48186.66
736.40	47445.29
736.59	47781.16
736.78	47521.07
736.96	47928.61
737.15	47531.31
737.33	47375.66
737.52	47437.10
737.71	47721.77
737.89	47430.96
738.08	47465.77
738.27	47330.61
738.45	47461.68
738.64	47234.35
738.82	47652.14
739.01	47650.09
739.20	47641.90
739.38	47166.77
739.57	47361.33
739.75	47459.63
739.94	47297.84
740.13	47107.38
740.31	46810.42
740.50	47047.99
740.68	47070.51
740.87	46884.15
741.06	47152.43
741.24	46587.19
741.43	46800.18
741.61	46671.16
741.80	46501.18
741.99	46923.06
742.17	47160.62
742.36	46918.96
742.54	46708.02
742.73	46945.59
742.91	47187.25
743.10	46357.82
743.29	46871.86
743.47	46693.69
743.66	47074.61
743.84	47027.51
744.03	46683.45
744.21	46818.61
744.40	46740.79
744.59	46673.21
744.77	46406.97
744.96	46540.09
745.14	46609.72
745.33	46505.27
745.51	46161.22
745.70	46501.18
745.88	46355.77
746.07	46210.37
746.26	45735.24
746.44	46142.78
746.63	46013.76
746.81	46046.53
747.00	46001.47
747.18	46183.74
747.37	45974.85
747.55	45995.33
747.74	46519.61
747.92	45788.49
748.11	45907.27
748.29	46335.29
748.48	46523.71
748.66	45565.26
748.85	46173.50
749.03	45921.60
749.22	45937.99
749.41	45688.13
749.59	45995.33
749.78	45886.79
749.96	45241.68
750.15	45860.16
750.33	45692.23
750.52	45608.26
750.70	45757.77
750.89	45276.49
751.07	45702.47
751.26	45704.52
751.44	45086.03
751.63	45538.63
751.81	45464.91
752.00	45196.62
752.18	45337.93
752.37	45180.24
752.55	45425.99
752.74	45356.36
752.92	44811.60
753.10	44612.95
753.29	45272.40
753.47	45442.38
753.66	44817.75
753.84	45454.67
754.03	45053.26
754.21	44903.76
754.40	45182.29
754.58	45464.91
754.77	45088.08
754.95	44840.28
755.14	45086.03
755.32	45231.44
755.51	44729.69
755.69	44690.77
755.88	44664.15
756.06	44821.84
756.24	44537.18
756.43	44764.50
756.61	44821.84
756.80	44580.18
756.98	44301.66
757.17	44723.54
757.35	44709.21
757.54	44670.29
757.72	44852.56
757.90	44737.88
758.09	44545.37
758.27	44440.92
758.46	44189.02
758.64	44162.40
758.83	44664.15
759.01	44604.76
759.19	44334.43
759.38	44365.15
759.56	44766.55
759.75	44385.63
759.93	44129.63
760.12	44211.55
760.30	44232.03
760.48	44326.24
760.67	44023.14
760.85	44223.84
761.04	44342.62
761.22	43912.55
761.40	44152.16
761.59	44055.90
761.77	43664.74
761.96	44074.34
762.14	43767.14
762.32	43865.44
762.51	43597.16
762.69	44088.67
762.88	44070.24
763.06	43777.38
763.24	44012.90
763.43	43728.23
763.61	43812.20
763.80	43607.40
763.98	43523.43
764.16	43619.69
764.35	43384.17
764.53	43322.73
764.72	43134.32
764.90	42984.82
765.08	43607.40
765.27	43445.61
765.45	43062.64
765.63	43083.12
765.82	43697.51
766.00	42892.66
766.18	42714.48
766.37	43349.35
766.55	42982.77
766.74	42798.45
766.92	42886.51
767.10	43162.99
767.29	42732.92
767.47	42380.67
767.65	43081.07
767.84	42706.29
768.02	42562.93
768.20	42257.79
768.39	42591.61
768.57	42485.11
768.75	42657.14
768.94	42442.10
769.12	42603.89
769.30	42347.90
769.49	42603.89
769.67	42196.35
769.85	42147.20
770.04	42175.87
770.22	41936.26
770.40	41792.90
770.59	42077.57
770.77	42243.45
770.95	42249.60
771.14	41778.56
771.32	41835.91
771.50	41606.53
771.69	41770.37
771.87	42229.12
772.05	41649.54
772.24	41850.24
772.42	41715.08
772.60	41610.63
772.78	41854.34
772.97	41506.18
773.15	41778.56
773.33	41606.53
773.52	41489.80
773.70	41467.27
773.88	41354.63
774.07	41188.75
774.25	41383.30
774.43	41895.30
774.61	41993.60
774.80	41688.45
774.98	41438.60
775.16	41868.67
775.34	41661.83
775.53	41708.93
775.71	41719.17
775.89	41434.50
776.08	41414.02
776.26	41612.68
776.44	41694.60
776.62	41530.76
776.81	41543.05
776.99	41608.58
777.17	41979.26
777.35	41817.47
777.54	41817.47
777.72	41784.71
777.90	41678.21
778.08	41946.50
778.27	41751.94
778.45	42012.03
778.63	42165.63
778.81	41577.86
779.00	42124.67
779.18	41973.12
779.36	42556.79
779.54	42339.71
779.73	42343.80
779.91	42331.51
780.09	42382.71
780.27	42341.75
780.46	42499.45
780.64	42694.00
780.82	42229.12
781.00	42173.82
781.19	42814.83
781.37	42622.33
781.55	42716.53
781.73	42507.64
781.91	42255.74
782.10	42253.69
782.28	42532.22
782.46	42429.82
782.64	42872.18
782.82	42487.16
783.01	42501.50
783.19	42763.64
783.37	42806.64
783.55	42784.12
783.74	43003.25
783.92	42448.25
784.10	43173.23
784.28	42263.93
784.46	42411.38
784.64	42863.99
784.83	42775.92
785.01	42610.04
785.19	42462.58
785.37	42681.72
785.55	42388.86
785.74	42589.56
785.92	42423.67
786.10	42728.82
786.28	42356.09
786.46	41966.98
786.64	42222.97
786.83	41964.93
787.01	42184.06
787.19	42571.13
787.37	42534.26
787.55	42362.23
787.74	42481.02
787.92	42319.23
788.10	42284.41
788.28	41475.46
788.46	42087.81
788.64	41575.81
788.82	42276.22
789.01	42167.68
789.19	41850.24
789.37	41891.20
789.55	41919.87
789.73	41131.40
789.91	41667.97
790.09	41276.81
790.28	41383.30
790.46	41428.36
790.64	41596.29
790.82	41293.19
791.00	41196.94
791.18	41289.10
791.36	41254.28
791.55	41293.19
791.73	40752.53
791.91	40656.28
792.09	40795.54
792.27	41121.16
792.45	40932.75
792.63	40381.85
792.81	40373.66
793.00	41039.25
793.18	40652.18
793.36	40355.22
793.54	39962.01
793.72	40113.56
793.90	40322.46
794.08	40103.32
794.26	40017.31
794.44	39361.96
794.62	39466.41
794.81	39810.46
794.99	39583.14
795.17	39429.54
795.35	39306.66
795.53	39280.04
795.71	39370.15
795.89	38421.94
796.07	38856.11
796.25	38852.02
796.43	38702.51
796.61	38577.59
796.80	38755.76
796.98	38614.45
797.16	38477.24
797.34	38872.49
797.52	38315.45
797.70	38544.82
797.88	38006.20
798.06	38049.21
798.24	37877.18
798.42	37891.52
798.60	38096.31
798.78	37678.53
798.96	37451.20
799.14	37475.78
799.32	37699.01
799.51	37481.92
799.69	37418.44
799.87	37391.81
800.05	37328.33
800.23	36787.66
800.41	36939.21
800.59	37027.28
800.77	36427.22
800.95	36546.00
801.13	36980.17
801.31	36593.11
801.49	36574.67
801.67	36361.69
801.85	36484.56
802.03	36515.28
802.21	36244.95
802.39	35956.19
802.57	35593.70
802.75	35950.04
802.93	35495.39
803.11	35874.27
803.29	35542.50
803.47	35470.82
803.65	35417.57
803.83	35370.47
804.01	35364.32
804.19	35360.23
804.37	35214.82
804.55	35124.71
804.73	34913.77
804.91	34921.96
805.09	34803.18
805.27	35198.44
805.45	34864.62
805.63	34686.45
805.81	34309.62
805.99	34895.34
806.17	35022.31
806.35	34792.94
806.53	34407.92
806.71	34401.78
806.89	34547.18
807.07	34061.82
807.25	34092.54
807.43	33846.78
807.61	34334.20
807.79	34092.54
807.97	33779.20
808.15	33869.31
808.33	33697.28
808.51	33586.69
808.69	33732.09
808.87	32980.49
809.05	33148.42
809.23	33222.15
809.41	33293.83
809.59	33074.70
809.77	32970.25
809.95	32484.88
810.13	33181.19
810.31	32460.30
810.49	32765.45
810.67	32704.01
810.84	32826.89
811.02	32693.77
811.20	32351.76
811.38	32658.96
811.56	32128.53
811.74	32462.35
811.92	32189.97
812.10	32450.06
812.28	32413.20
812.46	31874.59
812.64	32194.07
812.82	31913.50
813.00	31976.98
813.18	31948.31
813.36	31780.38
813.53	31608.35
813.71	31710.75
813.89	31673.88
814.07	31555.10
814.25	31493.66
814.43	31157.80
814.61	31206.95
814.79	31032.87
814.97	30803.50
815.15	31082.02
815.33	31067.69
815.50	30930.47
815.68	30879.27
815.86	31284.77
816.04	30914.09
816.22	30785.07
816.40	30631.47
816.58	30701.10
816.76	30438.96
816.94	30766.63
817.11	30522.93
817.29	30344.75
817.47	30043.70
817.65	30176.82
817.83	30647.85
818.01	29982.26
818.19	30023.22
818.37	30297.65
818.54	29922.87
818.72	29550.14
818.90	30021.17
819.08	29974.07
819.26	29855.29
819.44	29460.03
819.62	29556.28
819.80	29967.93
819.97	29767.23
820.15	29482.56
820.33	29445.69
820.51	29525.57
820.69	29113.92
820.87	29083.20
821.05	29646.40
821.22	29447.74
821.40	29294.14
821.58	29064.77
821.76	29060.68
821.94	28927.56
822.12	29312.58
822.29	29128.26
822.47	28909.13
822.65	28868.17
822.83	28632.65
823.01	28468.81
823.19	28626.51
823.36	28520.01
823.54	28544.59
823.72	28409.42
823.90	28436.05
824.08	28198.48
824.25	28216.91
824.43	28327.50
824.61	28020.31
824.79	28186.19
824.97	27907.67
825.15	28341.84
825.32	28186.19
825.50	27780.70
825.68	28118.61
825.86	28153.43
826.04	28161.62
826.21	27911.77
826.39	27844.18
826.57	27721.30
826.75	27745.88
826.93	27367.01
827.10	27588.19
827.28	27543.13
827.46	27883.09
827.64	27684.44
827.81	27240.03
827.99	27479.64
828.17	27483.74
828.35	27235.94
828.53	27623.00
828.70	27260.51
828.88	27268.70
829.06	27631.19
829.24	27457.12
829.41	27416.16
829.59	27637.34
829.77	27045.48
829.95	26807.91
830.12	26797.67
830.30	26789.48
830.48	27233.89
830.66	26805.86
830.84	26666.60
831.01	26924.65
831.19	26496.62
831.37	26535.53
831.55	26263.15
831.72	26402.41
831.90	26558.06
832.08	26824.29
832.25	26670.70
832.43	26988.13
832.61	26486.38
832.79	26277.49
832.96	26361.45
833.14	26390.13
833.32	26668.65
833.50	26406.51
833.67	26093.17
833.85	26330.73
834.03	25933.43
834.20	26211.95
834.38	26328.69
834.56	26560.11
834.74	25953.91
834.91	25964.15
835.09	26019.44
835.27	25785.97
835.44	25560.70
835.62	25482.88
835.80	25419.39
835.98	25806.45
836.15	25820.79
836.33	25878.13
836.51	25876.09
836.68	25620.09
836.86	25327.23
837.04	25581.18
837.21	25521.79
837.39	25540.22
837.57	25654.90
837.75	25708.15
837.92	25235.07
838.10	25118.34
838.28	25005.70
838.45	25192.06
838.63	25128.58
838.81	25065.09
838.98	24891.01
839.16	24794.76
839.34	25020.03
839.51	25169.54
839.69	24673.93
839.87	24684.17
840.04	24721.03
840.22	25130.62
840.40	24843.91
840.57	24858.24
840.75	24948.36
840.93	24055.44
841.10	24567.43
841.28	24895.11
841.46	24555.15
841.63	24903.30
841.81	24475.27
841.98	24671.88
842.16	24718.98
842.34	24411.79
842.51	24422.03
842.69	24419.98
842.87	24551.05
843.04	24751.75
843.22	24469.13
843.40	24366.73
843.57	24456.84
843.75	24305.29
843.92	24174.22
844.10	24135.31
844.28	24364.68
844.45	24348.30
844.63	24307.34
844.81	23942.80
844.98	24073.87
845.16	23899.80
845.33	24112.78
845.51	23963.28
845.69	23781.01
845.86	23914.13
846.04	23727.77
846.21	23879.32
846.39	23676.57
846.57	23799.44
846.74	23991.95
846.92	23891.60
847.09	23860.88
847.27	23328.41
847.45	23596.70
847.62	23783.06
847.80	23594.65
847.97	23656.09
848.15	23381.66
848.32	23201.44
848.50	23651.99
848.68	23350.94
848.85	23463.58
849.03	23123.62
849.20	23271.07
849.38	23428.76
849.56	23109.28
849.73	23142.05
849.91	23361.18
850.08	23348.89
850.26	22857.38
850.43	23027.36
850.61	23076.51
850.78	22912.67
850.96	23199.39
851.14	23266.97
851.31	22914.72
851.49	22812.32
851.66	22974.11
851.84	23101.09
852.01	23006.88
852.19	23086.75
852.36	22822.56
852.54	22941.35
852.71	22961.83
852.89	22566.57
853.07	22773.41
853.24	22654.63
853.42	22896.29
853.59	22623.91
853.77	22707.88
853.94	22523.56
854.12	22744.74
854.29	22419.11
854.47	22562.47
854.64	22488.74
854.82	22488.74
854.99	22560.42
855.17	22720.17
855.34	22484.65
855.52	22609.58
855.69	22750.88
855.87	22298.28
856.04	22165.17
856.22	22566.57
856.39	22077.10
856.57	22308.52
856.74	21911.22
856.92	22286.00
857.09	22068.91
857.27	22189.74
857.44	22492.84
857.62	22226.60
857.79	21878.45
857.97	22185.65
858.14	22185.65
858.32	22120.11
858.49	22050.48
858.67	21909.17
858.84	21956.27
859.02	21757.62
859.19	21749.43
859.37	21638.84
859.54	21567.16
859.72	21978.80
859.89	21767.86
860.06	21800.63
860.24	21659.32
860.41	21845.68
860.59	21423.80
860.76	21647.03
860.94	21376.70
861.11	21753.52
861.29	21638.84
861.46	21667.51
861.64	21413.56
861.81	21454.52
861.98	21520.06
862.16	21493.43
862.33	21290.68
862.51	21229.24
862.68	21413.56
862.86	21176.00
863.03	21352.12
863.21	21094.08
863.38	21202.62
863.55	21040.83
863.73	21059.26
863.90	21112.51
864.08	21092.03
864.25	20965.06
864.43	20731.59
864.60	21366.46
864.77	21044.93
864.95	20795.07
865.12	20827.84
865.30	21102.27
865.47	20960.96
865.64	20737.73
865.82	20750.02
865.99	20995.78
866.17	20872.90
866.34	20803.27
866.51	20463.30
866.69	20702.92
866.86	20627.14
867.04	20647.62
867.21	20661.96
867.38	20530.89
867.56	20475.59
867.73	20537.03
867.91	20520.65
868.08	20426.44
868.25	20272.84
868.43	20389.58
868.60	20375.24
868.78	20381.38
868.95	20481.74
869.12	20616.90
869.30	20360.91
869.47	20291.27
869.64	19881.68
869.82	20233.93
869.99	20152.01
870.16	20299.47
870.34	19957.46
870.51	20246.22
870.69	19822.29
870.86	19873.49
871.03	19832.53
871.21	20045.52
871.38	19934.93
871.55	19801.81
871.73	19707.60
871.90	19672.79
872.07	19830.48
872.25	19599.06
872.42	19588.82
872.59	19453.66
872.77	19707.60
872.94	19496.66
873.11	19648.21
873.29	19621.59
873.46	19613.40
873.63	19455.70
873.81	19287.77
873.98	19420.89
874.15	19238.62
874.33	18890.46
874.50	19070.68
874.67	19240.67
874.85	18968.29
875.02	18937.57
875.19	18876.13
875.37	19060.45
875.54	18845.41
875.71	19017.44
875.88	18427.62
876.06	18960.09
876.23	18849.50
876.40	18669.28
876.58	18728.67
876.75	18810.59
876.92	18765.54
877.10	18743.01
877.27	18360.04
877.44	18532.07
877.61	18407.14
877.79	18304.74
877.96	18456.29
878.13	18509.54
878.31	18284.26
878.48	18407.14
878.65	18454.25
878.82	18302.70
879.00	18241.26
879.17	18462.44
879.34	18384.62
879.51	18128.62
879.69	17874.67
879.86	17964.78
880.03	17897.20
880.21	17952.49
880.38	18065.13
880.55	18110.19
880.72	17962.73
880.90	17936.11
881.07	17999.60
881.24	18005.74
881.41	17993.45
881.59	17925.87
881.76	18126.57
881.93	17753.84
882.10	17856.24
882.28	17467.13
882.45	17743.60
882.62	17639.15
882.79	17680.11
882.96	17327.86
883.14	17694.45
883.31	17669.87
883.48	17598.20
883.65	17428.21
883.83	17501.94
884.00	17712.88
884.17	17600.24
884.34	17667.83
884.51	17542.90
884.69	17600.24
884.86	17583.86
885.03	17481.46
885.20	17329.91
885.38	17827.57
885.55	17510.13
885.72	17288.95
885.89	17280.76
886.06	17426.17
886.24	17407.73
886.41	17059.58
886.58	17209.08
886.75	17237.75
886.92	16881.41
887.10	17313.53
887.27	16869.12
887.44	17039.10
887.61	17254.14
887.78	17059.58
887.95	16926.46
888.13	17139.45
888.30	16893.69
888.47	16832.26
888.64	17041.15
888.81	16854.78
888.99	16721.66
889.16	16701.19
889.33	16658.18
889.50	16520.96
889.67	16670.47
889.84	16449.28
890.01	16281.35
890.19	16672.51
890.36	16473.86
890.53	16408.33
890.70	16529.16
890.87	16490.24
891.04	16717.57
891.22	16439.05
891.39	16242.44
891.56	16287.50
891.73	16426.76
891.90	16156.43
892.07	15916.81
892.24	16277.26
892.42	16183.05
892.59	16181.00
892.76	16129.80
892.93	16154.38
893.10	16336.65
893.27	16140.04
893.44	15982.35
893.61	15961.87
893.79	16103.18
893.96	16336.65
894.13	16097.03
894.30	16029.45
894.47	15968.01
894.64	15867.66
894.81	15767.31
894.98	16062.22
895.15	16193.29
895.33	15724.30
895.50	16000.78
895.67	15988.49
895.84	15884.05
896.01	15994.64
896.18	15587.09
896.35	16076.55
896.52	15910.67
896.69	15908.62
896.86	15863.57
897.04	15847.18
897.21	15820.56
897.38	15662.86
897.55	15869.71
897.72	15884.05
897.89	15691.54
898.06	15757.07
898.23	15937.29
898.40	15873.81
898.57	15689.49
898.74	15765.26
898.91	15716.11
899.08	15882.00
899.26	15892.24
899.43	15904.53
899.60	15732.50
899.77	15748.88
899.94	15740.69
900.11	15638.29
900.28	15386.39
900.45	15568.66
900.62	15544.08
900.79	15628.05
900.96	15523.60
901.13	15634.19
901.30	15644.43
901.47	15601.43
901.64	15693.58
901.81	15795.98
901.98	15705.87
902.15	15466.26
902.32	15615.76
902.49	15548.18
902.66	15822.61
902.83	15730.45
903.01	15568.66
903.18	15523.60
903.35	15494.93
903.52	15462.16
903.69	15609.62
903.86	16002.83
904.03	15580.95
904.20	15791.89
904.37	15752.98
904.54	15714.06
904.71	15615.76
904.88	15396.63
905.05	15752.98
905.22	15726.35
905.39	15361.81
905.56	15345.43
905.73	15390.49
905.90	15605.52
906.07	15396.63
906.24	15355.67
906.41	15443.73
906.58	15691.54
906.75	15640.34
906.92	15482.64
907.09	15423.25
907.26	15517.46
907.43	15390.49
907.60	15539.99
907.77	15822.61
907.93	15671.06
908.10	15419.16
908.27	15484.69
908.44	15347.48
908.61	15447.83
908.78	15413.01
908.95	15275.80
909.12	15347.48
909.29	15195.93
909.46	15161.11
909.63	15415.06
909.80	15288.09
909.97	15370.01
910.14	15238.94
910.31	15410.96
910.48	15249.18
910.65	15308.57
910.82	15116.06
910.99	14995.23
911.16	15138.58
911.33	15071.00
911.50	15150.87
911.66	15179.54
911.83	15204.12
912.00	15122.20
912.17	15079.19
912.34	14919.45
912.51	14915.36
912.68	14960.41
912.85	14868.25
913.02	14845.73
913.19	14999.32
913.36	15085.34
913.53	15044.38
913.70	14837.53
913.86	15013.66
914.03	14790.43
914.20	14839.58
914.37	14757.66
914.54	14767.90
914.71	14798.62
914.88	14651.17
915.05	14419.75
915.22	14561.06
915.39	14712.61
915.55	14378.79
915.72	14397.22
915.89	14468.90
916.06	14210.86
916.23	14278.44
916.40	14438.18
916.57	14223.14
916.74	14223.14
916.91	13987.63
917.07	13965.10
917.24	14171.94
917.41	14081.83
917.58	13971.24
917.75	14114.60
917.92	13848.36
918.09	13948.72
918.26	14044.97
918.42	14094.12
918.59	13827.88
918.76	13825.84
918.93	13694.77
919.10	13582.13
919.27	13799.21
919.44	13672.24
919.60	13858.60
919.77	13631.28
919.94	13541.17
920.11	13461.30
920.28	13606.70
920.45	13344.56
920.61	13170.49
920.78	13291.32
920.95	13172.54
921.12	13074.23
921.29	13109.05
921.46	12869.44
921.62	13018.94
921.79	13264.69
921.96	13035.32
922.13	12918.59
922.30	13137.72
922.47	12672.83
922.63	12693.31
922.80	12896.06
922.97	12717.89
923.14	12545.86
923.31	12650.30
923.47	12398.40
923.64	12511.04
923.81	12341.06
923.98	12517.18
924.15	12328.77
924.32	12566.34
924.48	12543.81
924.65	12349.25
924.82	12166.98
924.99	12177.22
925.15	12187.46
925.32	12160.84
925.49	12007.24
925.66	11947.85
925.83	11867.98
925.99	11859.79
926.16	11908.94
926.33	11951.95
926.50	11593.55
926.67	11755.34
926.83	11853.64
927.00	11530.06
927.17	11597.65
927.34	11433.81
927.50	11599.70
927.67	11620.17
927.84	11480.91
928.01	11329.36
928.17	11239.25
928.34	11212.63
928.51	11276.12
928.68	11116.37
928.84	11188.05
929.01	10962.78
929.18	10913.63
929.35	10884.95
929.51	10772.32
929.68	10760.03
929.85	10588.00
930.02	10760.03
930.18	10815.32
930.35	10755.93
930.52	10739.55
930.69	10757.98
930.85	10413.92
931.02	10522.46
931.19	10514.27
931.36	10375.01
931.52	10317.67
931.69	10370.91
931.86	10268.52
932.02	10305.38
932.19	10069.86
932.36	10166.12
932.53	10112.87
932.69	9856.87
932.86	10301.28
933.03	9863.02
933.19	9801.58
933.36	9953.13
933.53	9848.68
933.70	9881.45
933.86	9781.10
934.03	9701.23
934.20	9564.01
934.36	9607.02
934.53	9412.46
934.70	9209.72
934.86	9277.30
935.03	9310.07
935.20	9197.43
935.36	9076.60
935.53	8970.10
935.70	8963.96
935.86	9029.49
936.03	8724.35
936.20	8849.27
936.36	8572.80
936.53	8718.20
936.70	8533.89
936.86	8466.30
937.03	8454.02
937.20	8284.03
937.36	8236.93
937.53	7858.06
937.70	7923.59
937.86	7882.63
938.03	7739.27
938.20	8060.80
938.36	7647.12
938.53	7708.55
938.70	7524.24
938.86	7579.53
939.03	7528.33
939.20	7448.46
939.36	7210.90
939.53	7280.53
939.70	7284.62
939.86	7075.73
940.03	6729.63
940.19	6819.74
940.36	6784.92
940.53	6811.54
940.69	6672.28
940.86	6555.55
941.03	6578.08
941.19	6385.57
941.36	6393.76
941.52	6459.29
941.69	6424.48
941.86	6223.78
942.02	6244.26
942.19	6201.25
942.35	6174.63
942.52	6121.38
942.69	5973.92
942.85	5816.23
943.02	5767.08
943.18	5896.10
943.35	5863.33
943.52	5685.16
943.68	5730.22
943.85	5646.25
944.01	5578.67
944.18	5738.41
944.35	5554.09
944.51	5666.73
944.68	5437.36
944.84	5496.75
945.01	5443.50
945.17	5466.03
945.34	5623.72
945.51	5496.75
945.67	5363.63
945.84	5412.78
946.00	5361.58
946.17	5476.27
946.33	5205.94
946.50	5382.06
946.67	5359.53
946.83	5382.06
947.00	5420.97
947.16	5250.99
947.33	5244.85
947.49	5279.66
947.66	5187.50
947.82	5306.29
947.99	5375.92
948.16	5353.39
948.32	5302.19
948.49	5203.89
948.65	5259.18
948.82	5322.67
948.98	5136.31
949.15	5296.05
949.31	5244.85
949.48	5160.88
949.64	5189.55
949.81	5263.28
949.97	5351.34
950.14	5285.81
950.30	5226.42
950.47	5343.15
950.63	5324.72
950.80	5455.79
950.96	5365.68
951.13	5388.21
951.30	5281.71
951.46	5461.93
951.63	5443.50
951.79	5472.17
951.96	5484.46
952.12	5312.43
952.29	5506.99
952.45	5269.42
952.62	5347.25
952.78	5398.45
952.94	5345.20
953.11	5337.01
953.27	5128.11
953.44	5539.76
953.60	5316.53
953.77	5517.23
953.93	5531.56
954.10	5400.49
954.26	5396.40
954.43	5382.06
954.59	5412.78
954.76	5478.32
954.92	5423.02
955.09	5615.53
955.25	5402.54
955.42	5283.76
955.58	5496.75
955.75	5410.73
955.91	5463.98
956.07	5418.93
956.24	5416.88
956.40	5410.73
956.57	5459.88
956.73	5543.85
956.90	5447.60
957.06	5533.61
957.23	5463.98
957.39	5261.23
957.56	5646.25
957.72	5349.29
957.88	5259.18
958.05	5625.77
958.21	5513.13
958.38	5402.54
958.54	5420.97
958.71	5541.80
958.87	5437.36
959.03	5584.81
959.20	5482.41
959.36	5380.01
959.53	5435.31
959.69	5384.11
959.85	5416.88
960.02	5291.95
960.18	5345.20
960.35	5513.13
960.51	5506.99
960.68	5283.76
960.84	5474.22
961.00	5406.64
961.17	5449.64
961.33	5437.36
961.50	5423.02
961.66	5427.12
961.82	5390.25
961.99	5506.99
962.15	5357.49
962.31	5296.05
962.48	5277.62
962.64	5392.30
962.81	5431.21
962.97	5412.78
963.13	5308.34
963.30	5380.01
963.46	5197.74
963.62	5328.81
963.79	5437.36
963.95	5392.30
964.12	5365.68
964.28	5294.00
964.44	5248.94
964.61	5468.08
964.77	5554.09
964.93	5449.64
965.10	5230.51
965.26	5224.37
965.42	5273.52
965.59	5302.19
965.75	5199.79
965.92	5298.10
966.08	5275.57
966.24	5326.77
966.41	5148.59
966.57	5279.66
966.73	5097.39
966.90	5328.81
967.06	5134.26
967.22	5222.32
967.39	5261.23
967.55	5093.30
967.71	5242.80
967.88	5134.26
968.04	5126.07
968.20	5142.45
968.37	5140.40
968.53	5046.20
968.69	5083.06
968.85	5152.69
969.02	5107.63
969.18	5242.80
969.34	5148.59
969.51	5130.16
969.67	5146.55
969.83	5099.44
970.00	5207.98
970.16	5138.35
970.32	5056.43
970.48	5076.91
970.65	5062.58
970.81	5013.43
970.97	4919.22
971.14	4851.64
971.30	5164.98
971.46	4956.08
971.63	5038.00
971.79	5068.72
971.95	5001.14
972.11	4870.07
972.28	4976.56
972.44	4902.84
972.60	4968.37
972.76	4870.07
972.93	4847.54
973.09	4896.69
973.25	4892.60
973.42	4820.92
973.58	5021.62
973.74	4911.03
973.90	4806.58
974.07	4870.07
974.23	4859.83
974.39	4759.48
974.55	4917.17
974.72	4812.73
974.88	4667.32
975.04	4908.98
975.20	4827.06
975.37	4782.01
975.53	4698.04
975.69	4728.76
975.85	4755.38
976.01	4714.42
976.18	4571.07
976.34	4757.43
976.50	4718.52
976.66	4677.56
976.83	4749.24
976.99	4644.79
977.15	4650.94
977.31	4566.97
977.47	4698.04
977.64	4681.66
977.80	4544.44
977.96	4628.41
978.12	4554.68
978.29	4540.35
978.45	4515.77
978.61	4474.81
978.77	4630.46
978.93	4511.68
979.10	4485.05
979.26	4476.86
979.42	4523.96
979.58	4442.04
979.74	4616.12
979.91	4466.62
980.07	4446.14
980.23	4386.75
980.39	4505.53
980.55	4394.94
980.71	4362.17
980.88	4304.83
981.04	4335.55
981.20	4339.65
981.36	4501.44
981.52	4317.12
981.68	4409.28
981.85	4251.58
982.01	4362.17
982.17	4302.78
982.33	4290.49
982.49	4470.72
982.65	4224.96
982.82	4304.83
982.98	4296.64
983.14	4255.68
983.30	4212.67
983.46	4233.15
983.62	4356.03
983.79	4200.38
983.95	4192.19
984.11	4077.51
984.27	4149.18
984.43	4235.20
984.59	4116.42
984.75	4288.45
984.91	4126.66
985.08	4192.19
985.24	4128.70
985.40	4079.55
985.56	4118.47
985.72	4073.41
985.88	4192.19
986.04	4016.07
986.20	3946.44
986.37	4104.13
986.53	3960.77
986.69	4079.55
986.85	3956.68
987.01	4048.83
987.17	4171.71
987.33	4009.92
987.49	3905.48
987.65	4085.70
987.82	4009.92
987.98	3932.10
988.14	3946.44
988.30	3948.48
988.46	3891.14
988.62	3936.20
988.78	3968.96
988.94	3987.40
989.10	3964.87
989.26	3932.10
989.42	3831.75
989.59	3710.92
989.75	3792.84
989.91	3971.01
990.07	3663.82
990.23	3811.27
990.39	3774.41
990.55	3958.72
990.71	3895.24
990.87	3739.59
991.03	3811.27
991.19	3778.50
991.35	3723.21
991.51	3708.87
991.67	3801.03
991.83	3731.40
992.00	3686.34
992.16	3905.48
992.32	3837.89
992.48	3737.54
992.64	3694.54
992.80	3585.99
992.96	3647.43
993.12	3608.52
993.28	3747.78
993.44	3653.58
993.60	3633.10
993.76	3542.99
993.92	3772.36
994.08	3633.10
994.24	3520.46
994.40	3653.58
994.56	3626.95
994.72	3487.69
994.88	3592.14
995.04	3614.66
995.20	3483.59
995.36	3411.92
995.52	3567.56
995.68	3626.95
995.84	3485.64
996.00	3639.24
996.16	3508.17
996.32	3475.40
996.48	3456.97
996.64	3561.42
996.80	3467.21
996.96	3545.03
997.12	3579.85
997.28	3428.30
997.44	3276.75
997.60	3526.60
997.76	3440.59
997.92	3389.39
998.08	3319.76
998.24	3246.03
998.40	3436.49
998.56	3411.92
998.72	3411.92
998.88	3239.89
999.04	3350.48
999.20	3426.25
999.36	3323.85
999.52	3284.94
999.68	3205.07
999.84	3280.85
1000.00	3282.89
1000.16	3311.57
1000.32	3211.22
1000.48	3307.47
1000.64	3155.92
1000.80	3248.08
1000.95	3055.57
1001.11	3309.52
1001.27	3190.74
1001.43	3256.27
1001.59	3196.88
1001.75	3125.20
1001.91	3200.98
1002.07	3071.95
1002.23	3037.14
1002.39	3096.53
1002.55	3162.06
1002.71	3174.35
1002.87	3074.00
1003.03	3086.29
1003.19	3127.25
1003.34	3209.17
1003.50	3123.15
1003.66	3063.76
1003.82	3086.29
1003.98	3207.12
1004.14	3125.20
1004.30	2967.51
1004.46	3012.56
1004.62	3000.27
1004.78	2934.74
1004.94	2963.41
1005.09	3108.82
1005.25	3098.58
1005.41	2977.75
1005.57	2987.99
1005.73	3047.38
1005.89	2895.83
1006.05	3047.38
1006.21	2961.36
1006.37	2811.86
1006.52	2944.98
1006.68	2875.35
1006.84	3004.37
1007.00	2983.89
1007.16	3008.47
1007.32	3008.47
1007.48	2811.86
1007.64	2963.41
1007.79	2916.31
1007.95	2807.77
1008.11	2848.72
1008.27	2762.71
1008.43	2850.77
1008.59	2873.30
1008.75	2850.77
1008.91	2865.11
1009.06	2772.95
1009.22	2904.02
1009.38	2805.72
1009.54	2793.43
1009.70	2764.76
1009.86	2746.33
1010.01	2869.20
1010.17	2787.29
1010.33	2910.16
1010.49	2834.39
1010.65	2877.40
1010.81	2731.99
1010.96	2717.65
1011.12	2707.41
1011.28	2648.02
1011.44	2772.95
1011.60	2703.32
1011.76	2682.84
1011.91	2756.57
1012.07	2666.46
1012.23	2678.74
1012.39	2756.57
1012.55	2650.07
1012.71	2629.59
1012.86	2664.41
1013.02	2748.37
1013.18	2652.12
1013.34	2588.63
1013.50	2695.13
1013.65	2668.50
1013.81	2625.50
1013.97	2537.43
1014.13	2699.22
1014.29	2539.48
1014.44	2736.09
1014.60	2602.97
1014.76	2623.45
1014.92	2611.16
1015.07	2627.54
1015.23	2605.02
1015.39	2555.86
1015.55	2519.00
1015.71	2549.72
1015.86	2545.63
1016.02	2394.08
1016.18	2447.32
1016.34	2547.67
1016.49	2539.48
1016.65	2584.54
1016.81	2580.44
1016.97	2430.94
1017.12	2584.54
1017.28	2461.66
1017.44	2404.32
1017.60	2469.85
1017.75	2457.56
1017.91	2428.89
1018.07	2510.81
1018.23	2510.81
1018.38	2383.84
1018.54	2394.08
1018.70	2492.38
1018.86	2314.20
1019.01	2416.60
1019.17	2467.80
1019.33	2523.10
1019.49	2445.27
1019.64	2424.80
1019.80	2416.60
1019.96	2461.66
1020.12	2359.26
1020.27	2410.46
1020.43	2359.26
1020.59	2361.31
1020.74	2402.27
1020.90	2451.42
1021.06	2277.34
1021.22	2373.60
1021.37	2377.69
1021.53	2318.30
1021.69	2330.59
1021.84	2220.00
1022.00	2271.20
1022.16	2361.31
1022.31	2394.08
1022.47	2346.97
1022.63	2416.60
1022.79	2220.00
1022.94	2281.44
1023.10	2365.40
1023.26	2301.92
1023.41	2283.49
1023.57	2287.58
1023.73	2291.68
1023.88	2217.95
1024.04	2205.66
1024.20	2191.33
1024.35	2267.10
1024.51	2220.00
1024.67	2260.96
1024.82	2379.74
1024.98	2131.94
1025.14	2285.53
1025.29	2211.81
1025.45	2260.96
1025.61	2121.70
1025.76	2183.13
1025.92	2174.94
1026.08	2205.66
1026.23	2224.09
1026.39	2293.72
1026.55	2242.53
1026.70	2138.08
1026.86	2117.60
1027.02	2236.38
1027.17	2240.48
1027.33	2150.37
1027.48	2246.62
1027.64	2166.75
1027.80	2129.89
1027.95	2228.19
1028.11	2068.45
1028.27	2156.51
1028.42	2164.70
1028.58	2140.13
1028.73	2121.70
1028.89	2115.55
1029.05	2222.05
1029.20	2160.61
>>>>>End Processed Spectral Data<<<<<
