SpectraSuite Data File
++++++++++++++++++++++++++++++++++++
Date: Fri Jun 02 14:44:35 CEST 2017
User: INFO_000
Dark Spectrum Present: No
Reference Spectrum Present: No
Number of Sampled Component Spectra: 1
Spectrometers: USB4H00879
Integration Time (usec): 80000 (USB4H00879)
Spectra Averaged: 1 (USB4H00879)
Boxcar Smoothing: 0 (USB4H00879)
Correct for Electrical Dark: No (USB4H00879)
Strobe/Lamp Enabled: No (USB4H00879)
Correct for Detector Non-linearity: No (USB4H00879)
Correct for Stray Light: No (USB4H00879)
Number of Pixels in Processed Spectrum: 3648
>>>>>Begin Processed Spectral Data<<<<<
345.13	1271.79
345.34	1271.79
345.56	1271.79
345.78	1226.73
345.99	1247.21
346.21	1675.24
346.42	1675.24
346.64	1597.42
346.86	1773.54
347.07	1617.90
347.29	1753.06
347.50	1630.18
347.72	1640.42
347.94	1761.25
348.15	1609.70
348.37	1695.72
348.59	1687.53
348.80	1691.62
349.02	1757.16
349.23	1859.56
349.45	1824.74
349.67	1943.52
349.88	1837.03
350.10	1886.18
350.31	1896.42
350.53	1783.78
350.75	1986.53
350.96	1665.00
351.18	1847.27
351.39	1837.03
351.61	1822.69
351.82	1888.23
352.04	1886.18
352.26	1884.13
352.47	1824.74
352.69	1859.56
352.90	1814.50
353.12	1851.36
353.34	1888.23
353.55	1904.61
353.77	1884.13
353.98	1812.45
354.20	1773.54
354.41	1871.84
354.63	1902.56
354.85	2037.73
355.06	1914.85
355.28	1912.80
355.49	1925.09
355.71	1890.28
355.92	1802.21
356.14	1957.86
356.35	1947.62
356.57	1812.45
356.79	1925.09
357.00	1888.23
357.22	1953.76
357.43	1900.52
357.65	2017.25
357.86	1865.70
358.08	1927.14
358.29	1896.42
358.51	1974.24
358.72	1964.00
358.94	1935.33
359.16	1916.90
359.37	1904.61
359.59	1957.86
359.80	1939.43
360.02	1959.91
360.23	2013.15
360.45	2035.68
360.66	1910.75
360.88	1957.86
361.09	1974.24
361.31	1939.43
361.52	1984.48
361.74	1994.72
361.95	2031.58
362.17	1951.71
362.38	2004.96
362.60	2084.83
362.81	2023.39
363.03	1925.09
363.24	1939.43
363.46	2121.70
363.67	2043.87
363.89	1966.05
364.10	2037.73
364.32	1976.29
364.53	2084.83
364.75	1923.04
364.96	1970.15
365.18	2066.40
365.39	1970.15
365.61	1996.77
365.82	2072.54
366.04	2021.35
366.25	2009.06
366.47	2039.78
366.68	2027.49
366.90	1988.58
367.11	1996.77
367.33	2127.84
367.54	2105.31
367.76	2043.87
367.97	2084.83
368.19	2033.63
368.40	2062.30
368.62	1959.91
368.83	1941.47
369.05	2090.98
369.26	1939.43
369.48	2002.91
369.69	1943.52
369.91	2090.98
370.12	2019.30
370.33	2058.21
370.55	2002.91
370.76	2093.02
370.98	2123.74
371.19	2056.16
371.41	2043.87
371.62	2084.83
371.84	2029.54
372.05	2211.81
372.27	2068.45
372.48	2154.46
372.69	2068.45
372.91	2154.46
373.12	2164.70
373.34	2025.44
373.55	2123.74
373.77	2150.37
373.98	2058.21
374.20	2170.85
374.41	2222.05
374.62	2166.75
374.84	2203.61
375.05	2125.79
375.27	2154.46
375.48	2238.43
375.70	2166.75
375.91	2314.20
376.12	2361.31
376.34	2105.31
376.55	2174.94
376.77	2174.94
376.98	2099.17
377.19	2195.42
377.41	2088.93
377.62	2181.09
377.84	2193.37
378.05	2435.03
378.27	2213.85
378.48	2299.87
378.69	2320.35
378.91	2320.35
379.12	2269.15
379.34	2252.77
379.55	2244.57
379.76	2322.40
379.98	2203.61
380.19	2285.53
380.41	2240.48
380.62	2267.10
380.83	2246.62
381.05	2158.56
381.26	2355.16
381.47	2222.05
381.69	2310.11
381.90	2355.16
382.12	2342.88
382.33	2326.49
382.54	2330.59
382.76	2258.91
382.97	2265.05
383.19	2285.53
383.40	2385.88
383.61	2330.59
383.83	2324.44
384.04	2263.01
384.25	2422.75
384.47	2357.21
384.68	2418.65
384.89	2314.20
385.11	2303.96
385.32	2316.25
385.54	2336.73
385.75	2312.16
385.96	2344.92
386.18	2459.61
386.39	2422.75
386.60	2361.31
386.82	2463.71
387.03	2461.66
387.24	2531.29
387.46	2523.10
387.67	2549.72
387.88	2533.34
388.10	2406.36
388.31	2519.00
388.52	2568.15
388.74	2519.00
388.95	2496.47
389.16	2564.06
389.38	2490.33
389.59	2564.06
389.80	2684.89
390.02	2559.96
390.23	2662.36
390.44	2512.86
390.66	2566.10
390.87	2455.51
391.08	2605.02
391.30	2748.37
391.51	2605.02
391.72	2609.11
391.94	2686.94
392.15	2631.64
392.36	2629.59
392.58	2549.72
392.79	2686.94
393.00	2625.50
393.22	2785.24
393.43	2709.46
393.64	2744.28
393.85	2803.67
394.07	2656.22
394.28	2740.18
394.49	2756.57
394.71	2789.33
394.92	2836.44
395.13	2756.57
395.35	2789.33
395.56	2795.48
395.77	2865.11
395.98	2789.33
396.20	2865.11
396.41	2781.14
396.62	2867.16
396.84	2787.29
397.05	2813.91
397.26	2813.91
397.47	2973.65
397.69	2828.24
397.90	2975.70
398.11	3010.51
398.32	2930.64
398.54	2887.64
398.75	2944.98
398.96	2912.21
399.18	3065.81
399.39	2975.70
399.60	3045.33
399.81	2901.97
400.03	2971.60
400.24	3254.22
400.45	2985.94
400.66	3018.71
400.88	3055.57
401.09	3190.74
401.30	3010.51
401.51	3203.02
401.73	3096.53
401.94	3162.06
402.15	3157.97
402.36	3129.30
402.58	3203.02
402.79	3192.78
403.00	3270.61
403.21	3239.89
403.43	3215.31
403.64	3264.46
403.85	3018.71
404.06	3264.46
404.27	3055.57
404.49	3190.74
404.70	3198.93
404.91	3424.20
405.12	3303.37
405.34	3190.74
405.55	3411.92
405.76	3209.17
405.97	3254.22
406.19	3420.11
406.40	3272.65
406.61	3338.19
406.82	3383.24
407.03	3327.95
407.25	3338.19
407.46	3366.86
407.67	3325.90
407.88	3493.83
408.09	3422.16
408.31	3373.00
408.52	3448.78
408.73	3385.29
408.94	3409.87
409.15	3434.44
409.37	3559.37
409.58	3424.20
409.79	3409.87
410.00	3583.95
410.21	3491.79
410.43	3590.09
410.64	3461.07
410.85	3573.71
411.06	3553.23
411.27	3649.48
411.48	3680.20
411.70	3516.36
411.91	3579.85
412.12	3766.21
412.33	3604.42
412.54	3643.34
412.76	3626.95
412.97	3676.10
413.18	3553.23
413.39	3661.77
413.60	3704.78
413.81	3665.86
414.03	3692.49
414.24	3661.77
414.45	3989.44
414.66	3588.04
414.87	3846.09
415.08	3780.55
415.30	3813.32
415.51	3762.12
415.72	3723.21
415.93	3696.58
416.14	3780.55
416.35	3874.76
416.56	3796.93
416.78	3882.95
416.99	3966.92
417.20	3870.66
417.41	3899.33
417.62	3848.13
417.83	4032.45
418.04	3919.81
418.26	3999.68
418.47	3887.04
418.68	4102.08
418.89	3983.30
419.10	4016.07
419.31	3987.40
419.52	4120.51
419.73	3985.35
419.95	4083.65
420.16	3973.06
420.37	4075.46
420.58	4024.26
420.79	3975.11
421.00	4122.56
421.21	4163.52
421.42	4202.43
421.63	4071.36
421.85	4247.49
422.06	4235.20
422.27	4257.73
422.48	4261.82
422.69	4247.49
422.90	4104.13
423.11	4237.25
423.32	4370.37
423.53	4394.94
423.75	4216.77
423.96	4427.71
424.17	4415.42
424.38	4495.29
424.59	4331.45
424.80	4566.97
425.01	4442.04
425.22	4435.90
425.43	4403.13
425.64	4739.00
425.85	4667.32
426.06	4487.10
426.28	4566.97
426.49	4497.34
426.70	4483.00
426.91	4587.45
427.12	4687.80
427.33	4773.82
427.54	4614.07
427.75	4755.38
427.96	4810.68
428.17	4796.34
428.38	4802.49
428.59	4876.21
428.80	4704.18
429.01	4919.22
429.23	4784.06
429.44	4937.65
429.65	4956.08
429.86	5066.67
430.07	4743.10
430.28	4884.41
430.49	5029.81
430.70	4970.42
430.91	5109.68
431.12	4990.90
431.33	5042.10
431.54	5201.84
431.75	5132.21
431.96	5097.39
432.17	5031.86
432.38	4947.89
432.59	5334.96
432.80	5136.31
433.01	5341.10
433.22	5275.57
433.43	5271.47
433.64	5240.75
433.85	5191.60
434.06	5369.77
434.27	5275.57
434.49	5351.34
434.70	5484.46
434.91	5377.97
435.12	5564.33
435.33	5414.83
435.54	5394.35
435.75	5371.82
435.96	5556.14
436.17	5238.70
436.38	5621.67
436.59	5816.23
436.80	5552.04
437.01	5894.05
437.22	5875.62
437.43	5668.78
437.64	5674.92
437.85	5803.94
438.06	5937.06
438.27	5679.02
438.48	5779.37
438.69	5910.44
438.90	5795.75
439.11	5636.01
439.32	5789.61
439.53	5834.66
439.74	5885.86
439.95	5885.86
440.16	5975.97
440.37	6008.74
440.57	5900.20
440.78	5904.29
440.99	6047.65
441.20	5889.96
441.41	5971.88
441.62	6088.61
441.83	5867.43
442.04	6178.72
442.25	6047.65
442.46	6070.18
442.67	6328.22
442.88	6645.66
443.09	6223.78
443.30	6213.54
443.51	6457.25
443.72	6557.60
443.93	6252.45
444.14	6573.98
444.35	6137.76
444.56	6385.57
444.77	6334.37
444.98	6401.95
445.19	6453.15
445.40	6371.23
445.61	6383.52
445.81	6590.36
446.02	6530.97
446.23	6596.51
446.44	6414.24
446.65	6580.12
446.86	6659.99
447.07	6725.53
447.28	6639.51
447.49	6821.78
447.70	6694.81
447.91	6649.75
448.12	6746.01
448.33	6924.18
448.54	6823.83
448.74	6629.27
448.95	6819.74
449.16	6733.72
449.37	7096.21
449.58	6754.20
449.79	7098.26
450.00	6819.74
450.21	7065.49
450.42	7008.15
450.63	6944.66
450.84	6967.19
451.05	7118.74
451.25	6981.53
451.46	7079.83
451.67	7139.22
451.88	7311.25
452.09	7223.19
452.30	7128.98
452.51	7180.18
452.72	7370.64
452.93	7448.46
453.13	7260.05
453.34	7227.28
453.55	7376.78
453.76	7272.34
453.97	7661.45
454.18	7464.85
454.39	7528.33
454.60	7530.38
454.81	7495.57
455.01	7647.12
455.22	7323.54
455.43	7546.76
455.64	7683.98
455.85	7896.97
456.06	7931.78
456.27	7907.21
456.48	7655.31
456.68	7870.34
456.89	7890.82
457.10	8044.42
457.31	8081.28
457.52	7858.06
457.73	8105.86
457.94	8273.79
458.14	7878.54
458.35	8370.05
458.56	8292.23
458.77	8259.46
458.98	8232.83
459.19	8365.95
459.39	8464.25
459.60	8615.80
459.81	8417.15
460.02	8388.48
460.23	8445.82
460.44	8597.37
460.65	8671.10
460.85	8761.21
461.06	8759.16
461.27	8548.22
461.48	9031.54
461.69	8810.36
461.89	8546.17
462.10	8863.61
462.31	8724.35
462.52	8777.59
462.73	9023.35
462.94	9215.86
463.14	9052.02
463.35	8984.44
463.56	9736.04
463.77	9301.87
463.98	9035.64
464.18	9389.94
464.39	9529.20
464.60	9664.36
464.81	9641.84
465.02	9576.30
465.23	9715.56
465.43	9596.78
465.64	10000.23
465.85	9826.15
466.06	9768.81
466.27	10129.25
466.47	10217.32
466.68	9967.46
466.89	10063.72
467.10	10313.57
467.30	9924.46
467.51	10198.88
467.72	10499.94
467.93	10063.72
468.14	10286.95
468.34	10663.77
468.55	10624.86
468.76	10774.36
468.97	10649.44
469.17	10657.63
469.38	10973.02
469.59	11106.13
469.80	10930.01
470.01	10719.07
470.21	11075.42
470.42	11200.34
470.63	11378.51
470.84	11077.46
471.04	11177.81
471.25	11319.12
471.46	11360.08
471.67	11650.89
471.87	11571.02
472.08	11818.83
472.29	12037.96
472.50	11599.70
472.70	11693.90
472.91	11822.92
473.12	12087.11
473.33	12087.11
473.53	12341.06
473.74	12312.39
473.95	12455.75
474.16	12693.31
474.36	12359.49
474.57	12900.16
474.78	12717.89
474.99	12560.19
475.19	12558.14
475.40	13147.96
475.61	13117.24
475.81	13264.69
476.02	13457.20
476.23	13262.65
476.44	13395.76
476.64	13545.27
476.85	13750.06
477.06	13770.54
477.27	14061.35
477.47	13936.43
477.68	14010.15
477.89	14337.83
478.09	14206.76
478.30	14212.90
478.51	14296.87
478.71	14429.99
478.92	14794.53
479.13	14513.95
479.34	14870.30
479.54	14597.92
479.75	14884.64
479.96	14817.05
480.16	15109.91
480.37	15224.60
480.58	15372.05
480.78	15499.03
480.99	15288.09
481.20	15423.25
481.41	15773.46
481.61	15619.86
481.82	15716.11
482.03	15906.57
482.23	15890.19
482.44	16224.01
482.65	16162.57
482.85	16164.62
483.06	16293.64
483.27	16496.39
483.47	16314.12
483.68	16287.50
483.89	16688.90
484.09	16547.59
484.30	16615.17
484.51	17016.57
484.71	17155.83
484.92	16989.95
485.13	17112.83
485.33	17467.13
485.54	17420.02
485.75	17491.70
485.95	17612.53
486.16	17577.72
486.37	17784.56
486.57	17846.00
486.78	17698.55
486.98	17770.22
487.19	17870.58
487.40	18157.29
487.60	17960.69
487.81	18044.65
488.02	18441.96
488.22	18257.64
488.43	18683.62
488.64	18671.33
488.84	18542.31
489.05	18882.27
489.25	18726.63
489.46	19017.44
489.67	18880.22
489.87	19220.19
490.08	19144.41
490.29	19207.90
490.49	19685.08
490.70	19629.78
490.90	19441.37
491.11	19594.96
491.32	19629.78
491.52	19680.98
491.73	19664.60
491.94	19842.77
492.14	19900.11
492.35	20260.55
492.55	19914.45
492.76	20430.54
492.97	20362.95
493.17	20362.95
493.38	20559.56
493.58	20676.29
493.79	20692.68
494.00	20680.39
494.20	20723.40
494.41	20975.30
494.61	21247.68
494.82	21069.50
495.02	21059.26
495.23	21368.51
495.44	21427.90
495.64	21579.45
495.85	21421.75
496.05	21612.21
496.26	21518.01
496.47	21479.10
496.67	21878.45
496.88	22152.88
497.08	21446.33
497.29	22187.69
497.49	22406.83
497.70	22271.66
497.91	22343.34
498.11	22351.53
498.32	22572.71
498.52	22351.53
498.73	22697.64
498.93	22935.20
499.14	22886.05
499.34	22775.46
499.55	23113.38
499.76	22832.80
499.96	23062.18
500.17	23101.09
500.37	23246.49
500.58	23346.84
500.78	23551.64
500.99	23332.51
501.19	23979.67
501.40	23522.97
501.60	23389.85
501.81	23570.07
502.02	23791.25
502.22	24034.96
502.43	23895.70
502.63	24360.59
502.84	24116.88
503.04	24141.46
503.25	24282.77
503.45	24536.71
503.66	24483.47
503.86	24370.83
504.07	24553.10
504.27	24456.84
504.48	24882.82
504.68	24729.22
504.89	25030.27
505.09	25312.89
505.30	25114.24
505.50	24841.86
505.71	25331.33
505.91	25284.22
506.12	25347.71
506.32	25392.76
506.53	25599.61
506.73	25628.28
506.94	25607.80
507.14	25347.71
507.35	25890.42
507.55	25906.80
507.76	25540.22
507.96	25718.39
508.17	25904.76
508.37	26031.73
508.58	25982.58
508.78	26003.06
508.99	26498.67
509.19	26236.53
509.40	26453.61
509.60	26639.98
509.81	26617.45
510.01	26787.43
510.22	26603.11
510.42	26490.48
510.63	27280.99
510.83	26840.68
511.04	26859.11
511.24	27194.98
511.44	26977.89
511.65	27244.13
511.85	27004.52
512.06	27203.17
512.26	27358.81
512.47	27567.71
512.67	27661.91
512.88	27512.41
513.08	27344.48
513.29	27741.78
513.49	27586.14
513.69	27625.05
513.90	27702.87
514.10	27913.81
514.31	27944.53
514.51	27835.99
514.72	27577.95
514.92	28278.35
515.13	28122.71
515.33	28251.73
515.53	28335.70
515.74	28405.33
515.94	28319.31
516.15	28464.72
516.35	28438.09
516.56	28362.32
516.76	28327.50
516.96	28403.28
517.17	28927.56
517.37	28640.84
517.58	28552.78
517.78	28827.21
517.99	28868.17
518.19	28872.26
518.39	28999.24
518.60	29134.40
518.80	29142.60
519.01	29488.70
519.21	29455.93
519.41	29419.07
519.62	29388.35
519.82	29517.37
520.03	29587.00
520.23	29410.88
520.43	29455.93
520.64	30004.79
520.84	29748.79
521.05	29582.91
521.25	29773.37
521.45	30160.44
521.66	30131.76
521.86	29838.90
522.07	29883.96
522.27	30324.27
522.47	30230.07
522.68	30514.73
522.88	30264.88
523.08	30688.81
523.29	30375.47
523.49	30654.00
523.70	30502.45
523.90	31022.63
524.10	30746.15
524.31	31174.18
524.51	30905.90
524.71	31237.67
524.92	30854.70
525.12	31223.33
525.33	31002.15
525.53	31555.10
525.73	31544.86
525.94	31526.43
526.14	31456.80
526.34	31526.43
526.55	31684.12
526.75	31700.51
526.95	31825.43
527.16	31921.69
527.36	31555.10
527.56	31704.60
527.77	32179.73
527.97	32220.69
528.17	32228.88
528.38	32396.82
528.58	32126.49
528.78	32777.74
528.99	32585.23
529.19	32628.24
529.39	32282.13
529.60	33060.36
529.80	32740.88
530.00	32736.78
530.21	32679.44
530.41	33183.24
530.61	32828.94
530.82	33273.35
531.02	33050.12
531.22	33439.23
531.43	33369.60
531.63	33627.65
531.83	33936.89
532.04	34067.96
532.24	33854.97
532.44	34158.07
532.64	34063.86
532.85	34029.05
533.05	33850.88
533.25	33973.75
533.46	34121.21
533.66	34678.25
533.86	34414.07
534.07	34780.65
534.27	34500.08
534.47	34764.27
534.67	34794.99
534.88	34725.36
535.08	34995.69
535.28	35057.13
535.49	35218.92
535.69	35526.11
535.89	35493.35
536.09	35593.70
536.30	35960.28
536.50	35730.91
536.70	35571.17
536.91	36087.26
537.11	35689.95
537.31	36074.97
537.51	35853.79
537.72	36238.81
537.92	36361.69
538.12	36519.38
538.32	36167.13
538.53	36574.67
538.73	36404.69
538.93	36242.90
539.13	36662.74
539.34	36531.67
539.54	36308.44
539.74	36742.61
539.94	37072.33
540.15	36920.78
540.35	37043.66
540.55	37270.98
540.75	37369.29
540.96	37373.38
541.16	37598.66
541.36	37520.84
541.56	37746.11
541.77	37774.78
541.97	37744.06
542.17	37879.23
542.37	38165.95
542.58	38043.07
542.78	37664.19
542.98	38143.42
543.18	38507.96
543.38	38512.05
543.59	38708.66
543.79	38553.01
543.99	38409.65
544.19	38925.74
544.40	38737.33
544.60	39343.53
544.80	38917.55
545.00	39054.76
545.20	39359.91
545.41	38712.75
545.61	39187.88
545.81	39359.91
546.01	39296.42
546.21	39374.25
546.42	39304.62
546.62	39824.80
546.82	39398.82
547.02	39986.59
547.22	39947.68
547.43	39783.84
547.63	40093.08
547.83	40273.31
548.03	39789.98
548.23	40234.39
548.44	39927.20
548.64	40600.98
548.84	40467.86
549.04	40390.04
549.24	40760.72
549.45	40910.22
549.65	40287.64
549.85	40535.45
550.05	40842.64
550.25	40656.28
550.45	41074.06
550.66	41252.23
550.86	41092.49
551.06	41311.63
551.26	41090.44
551.46	41137.55
551.66	41006.48
551.87	41606.53
552.07	41432.46
552.27	41473.42
552.47	41647.49
552.67	41274.76
552.87	41860.48
553.07	41323.91
553.28	41573.77
553.48	41866.63
553.68	41827.71
553.88	42290.55
554.08	42231.16
554.28	41889.15
554.48	41723.27
554.69	41891.20
554.89	42104.19
555.09	42458.49
555.29	42024.32
555.49	42472.82
555.69	42601.85
555.89	42505.59
556.10	43158.89
556.30	42569.08
556.50	42747.25
556.70	42417.53
556.90	43074.93
557.10	43111.79
557.30	42341.75
557.50	43001.20
557.70	43193.71
557.91	43425.13
558.11	43439.47
558.31	43386.22
558.51	43206.00
558.71	43363.69
558.91	43158.89
559.11	43249.00
559.31	43216.24
559.51	43240.81
559.72	43689.32
559.92	43769.19
560.12	43539.82
560.32	43812.20
560.52	43341.16
560.72	43580.78
560.92	43808.10
561.12	43785.57
561.32	44219.74
561.52	43828.58
561.72	44232.03
561.93	43670.89
562.13	43933.03
562.33	43861.35
562.53	44623.19
562.73	43724.13
562.93	44088.67
563.13	44092.77
563.33	43988.32
563.53	44348.76
563.73	44260.70
563.93	44096.86
564.13	44537.18
564.33	44512.60
564.53	44320.09
564.74	44789.08
564.94	44422.49
565.14	44608.86
565.34	44311.90
565.54	44528.98
565.74	44873.04
565.94	44623.19
566.14	44782.93
566.34	44541.27
566.54	44922.19
566.74	44836.18
566.94	44678.49
567.14	45206.86
567.34	44842.32
567.54	44873.04
567.74	44619.10
567.94	44612.95
568.14	44633.43
568.34	44926.29
568.54	44752.21
568.74	45198.67
568.94	45673.80
569.14	45344.08
569.34	45299.02
569.54	45112.66
569.75	45065.55
569.95	45430.09
570.15	45657.42
570.35	45251.92
570.55	45165.90
570.75	45475.15
570.95	45684.04
571.15	45589.83
571.35	45399.37
571.55	45706.57
571.75	45389.13
571.95	45413.71
572.15	45466.95
572.35	45845.83
572.55	45821.25
572.75	46486.84
572.95	45763.91
573.15	45679.94
573.35	45524.30
573.55	45448.52
573.75	45696.33
573.95	45735.24
574.15	46048.58
574.35	46079.30
574.55	46034.24
574.75	45768.01
574.95	45913.41
575.15	45851.97
575.34	45835.59
575.54	46136.64
575.74	46337.34
575.94	46148.93
576.14	46316.86
576.34	46531.90
576.54	46353.72
576.74	46708.02
576.94	45991.23
577.14	46581.05
577.34	46697.78
577.54	46552.38
577.74	46744.89
577.94	46574.91
578.14	46728.50
578.34	46445.88
578.54	46341.44
578.74	46740.79
578.94	46802.23
579.14	46374.20
579.34	46320.96
579.54	46837.05
579.74	46957.88
579.94	46966.07
580.13	47179.06
580.33	47394.09
580.53	46748.98
580.73	46906.68
580.93	47062.32
581.13	46961.97
581.33	47400.24
581.53	47537.45
581.73	47535.40
581.93	47873.32
582.13	47359.28
582.33	47406.38
582.53	47310.13
582.73	47596.84
582.92	47476.01
583.12	47854.89
583.32	47543.59
583.52	47142.19
583.72	47576.36
583.92	47498.54
584.12	47805.73
584.32	48209.18
584.52	48153.89
584.72	48127.27
584.92	48510.24
585.11	48573.72
585.31	48162.08
585.51	48452.89
585.71	48059.68
585.91	48571.67
586.11	47650.09
586.31	48215.33
586.51	48100.64
586.71	48442.65
586.91	48686.36
587.10	48831.77
587.30	48710.94
587.50	48530.72
587.70	48514.33
587.90	48940.31
588.10	48698.65
588.30	48794.90
588.50	48497.95
588.69	48919.83
588.89	48993.56
589.09	49100.05
589.29	49026.32
589.49	49216.78
589.69	48760.09
589.89	49333.52
590.08	49317.14
590.28	49069.33
590.48	49302.80
590.68	49456.40
590.88	49384.72
591.08	49792.26
591.28	49044.76
591.47	49853.70
591.67	49536.27
591.87	49913.09
592.07	50130.18
592.27	49599.76
592.47	49450.25
592.67	50197.76
592.86	49653.00
593.06	49919.24
593.26	50451.71
593.46	50021.64
593.66	50023.68
593.86	49935.62
594.05	50009.35
594.25	50570.49
594.45	50091.27
594.65	50136.32
594.85	50054.40
595.05	50224.39
595.24	50539.77
595.44	50623.74
595.64	50476.29
595.84	50541.82
596.04	50773.24
596.23	50889.98
596.43	50922.74
596.63	50717.95
596.83	50894.07
597.03	51121.40
597.22	51199.22
597.42	51369.20
597.62	51291.38
597.82	50951.41
598.02	50935.03
598.21	51653.87
598.41	51168.50
598.61	51672.30
598.81	51834.09
599.01	51664.11
599.20	51981.54
599.40	51272.95
599.60	52333.79
599.80	52036.84
600.00	51815.66
600.19	52065.51
600.39	51791.08
600.59	52057.32
600.79	52122.85
600.98	52210.92
601.18	52436.19
601.38	52608.22
601.58	52266.21
601.78	52622.56
601.97	52663.52
602.17	53142.74
602.37	52673.76
602.57	52896.98
602.76	52993.24
602.96	52223.20
603.16	52810.97
603.36	53218.52
603.55	53460.18
603.75	53097.69
603.95	53601.49
604.15	53451.98
604.34	53753.04
604.54	53179.60
604.74	53728.46
604.94	53550.29
605.13	54095.05
605.33	53714.12
605.53	53384.40
605.73	54154.44
605.92	53755.08
606.12	54166.73
606.32	54201.54
606.52	54013.13
606.71	53912.78
606.91	54480.06
607.11	53990.60
607.30	54392.00
607.50	54172.87
607.70	54531.26
607.90	54482.11
608.09	54361.28
608.29	54691.01
608.49	54985.91
608.68	54162.63
608.88	54875.32
609.08	54965.43
609.28	54813.88
609.47	54631.61
609.67	55221.43
609.87	55192.76
610.06	55262.39
610.26	54863.03
610.46	55516.34
610.66	54887.61
610.85	55256.24
611.05	54947.00
611.25	55088.31
611.44	55114.94
611.64	55303.35
611.84	54893.75
612.03	55051.45
612.23	55465.14
612.43	55594.16
612.62	55340.21
612.82	55413.94
613.02	55391.41
613.21	55491.76
613.41	55299.25
613.61	56018.09
613.80	55114.94
614.00	55585.97
614.20	55440.56
614.39	55667.89
614.59	55561.39
614.79	55868.59
614.98	55391.41
615.18	55237.81
615.38	55661.74
615.57	55596.21
615.77	56220.84
615.97	56108.20
616.16	55884.97
616.36	56095.91
616.56	55483.57
616.75	55987.37
616.95	55227.57
617.15	55510.19
617.34	55608.50
617.54	55491.76
617.74	56024.23
617.93	56100.01
618.13	55530.67
618.32	56120.49
618.52	55878.83
618.72	55768.24
618.91	55553.20
619.11	55698.61
619.31	55780.52
619.50	55592.11
619.70	55223.48
619.90	55565.49
620.09	56050.86
620.29	55895.21
620.48	55983.27
620.68	55837.87
620.88	55458.99
621.07	55776.43
621.27	55801.00
621.46	55381.17
621.66	55321.78
621.86	55643.31
622.05	55289.01
622.25	55506.10
622.44	55612.59
622.64	55319.73
622.84	55475.38
623.03	55334.07
623.23	55649.45
623.42	55696.56
623.62	55659.69
623.82	55749.81
624.01	55583.92
624.21	55755.95
624.40	55651.50
624.60	55686.32
624.80	55489.71
624.99	55387.31
625.19	55155.89
625.38	55338.16
625.58	55379.12
625.77	55448.75
625.97	55493.81
626.17	55137.46
626.36	55561.39
626.56	55391.41
626.75	54912.19
626.95	55780.52
627.14	55491.76
627.34	55778.48
627.54	55205.05
627.73	55182.52
627.93	55321.78
628.12	55141.56
628.32	55608.50
628.51	55415.99
628.71	55225.53
628.90	54949.05
629.10	55194.81
629.30	55114.94
629.49	55325.88
629.69	55184.57
629.88	54875.32
630.08	55186.61
630.27	55467.19
630.47	55559.34
630.66	54957.24
630.86	55489.71
631.05	55035.06
631.25	55637.17
631.44	55188.66
631.64	54848.70
631.84	55442.61
632.03	55497.91
632.23	54826.17
632.42	55680.17
632.62	55262.39
632.81	54865.08
633.01	55217.33
633.20	55350.45
633.40	55522.48
633.59	55063.74
633.79	54785.21
633.98	54975.67
634.18	54977.72
634.37	55542.96
634.57	54842.56
634.76	55092.41
634.96	55153.85
635.15	55182.52
635.35	54828.22
635.54	55311.54
635.74	55262.39
635.93	54969.53
636.13	55334.07
636.32	55153.85
636.52	54754.49
636.71	55125.17
636.91	54955.19
637.10	55295.16
637.30	55225.53
637.49	54877.37
637.69	55051.45
637.88	55522.48
638.08	55076.02
638.27	55321.78
638.46	55088.31
638.66	55178.42
638.85	55340.21
639.05	55477.43
639.24	55547.06
639.44	55110.84
639.63	55123.13
639.83	55008.44
640.02	54967.48
640.22	55276.72
640.41	55166.13
640.61	54338.75
640.80	55379.12
640.99	54635.71
641.19	55411.89
641.38	55026.87
641.58	55127.22
641.77	55168.18
641.97	54949.05
642.16	55186.61
642.36	55305.40
642.55	55129.27
642.74	54887.61
642.94	55547.06
643.13	55082.17
643.33	55563.44
643.52	55426.23
643.72	55166.13
643.91	55180.47
644.10	55346.36
644.30	55579.82
644.49	55360.69
644.69	55385.27
644.88	55284.92
645.08	55026.87
645.27	55088.31
645.46	55141.56
645.66	55231.67
645.85	55061.69
646.05	55559.34
646.24	55653.55
646.43	55370.93
646.63	55557.30
646.82	55657.65
647.02	55866.54
647.21	55700.65
647.40	55411.89
647.60	55858.35
647.79	55936.17
647.99	56054.95
648.18	55395.51
648.37	55809.20
648.57	55559.34
648.76	55520.43
648.96	55612.59
649.15	55866.54
649.34	56018.09
649.54	56229.03
649.73	55579.82
649.92	55944.36
650.12	55655.60
650.31	55538.86
650.51	55780.52
650.70	56097.96
650.89	55643.31
651.09	56372.39
651.28	55583.92
651.47	55786.67
651.67	55764.14
651.86	56640.67
652.06	55248.05
652.25	55760.05
652.44	55768.24
652.64	55794.86
652.83	56087.72
653.02	55665.84
653.22	56329.38
653.41	55653.55
653.60	55719.09
653.80	55907.50
653.99	55626.93
654.18	55712.94
654.38	55942.31
654.57	56069.29
654.76	56134.82
654.96	55557.30
655.15	55923.88
655.34	56095.91
655.54	55506.10
655.73	56212.65
655.92	56044.71
656.12	56339.62
656.31	56034.47
656.50	56118.44
656.70	56169.64
656.89	56470.69
657.08	56341.67
657.28	56288.42
657.47	56470.69
657.66	56497.31
657.86	56204.45
658.05	56210.60
658.24	56212.65
658.43	56183.97
658.63	56587.42
658.82	56943.77
659.01	56509.60
659.21	56571.04
659.40	56280.23
659.59	56360.10
659.79	57119.90
659.98	56736.93
660.17	56415.40
660.36	56282.28
660.56	56726.69
660.75	56575.14
660.94	56861.85
661.14	56460.45
661.33	57126.04
661.52	56255.65
661.71	56976.54
661.91	56339.62
662.10	56251.56
662.29	57023.64
662.49	57259.16
662.68	57007.26
662.87	57404.56
663.06	57007.26
663.26	57048.22
663.45	57558.16
663.64	56747.17
663.83	57007.26
664.03	57091.22
664.22	57083.03
664.41	56976.54
664.60	56845.47
664.80	57050.27
664.99	57121.94
665.18	56683.68
665.37	57250.97
665.57	56954.01
665.76	56857.76
665.95	57388.18
666.14	57152.66
666.34	57343.12
666.53	57195.67
666.72	56710.30
666.91	56757.41
667.11	57087.13
667.30	57412.76
667.49	57390.23
667.68	57259.16
667.87	56865.95
668.07	57398.42
668.26	57027.74
668.45	57341.08
668.64	56849.56
668.84	57574.55
669.03	57558.16
669.22	57171.10
669.41	57791.63
669.60	57115.80
669.80	57033.88
669.99	57564.31
670.18	56947.87
670.37	57451.67
670.57	57824.40
670.76	57291.93
670.95	57529.49
671.14	57218.20
671.33	57080.98
671.53	57914.51
671.72	57656.46
671.91	57545.87
672.10	57220.25
672.29	57423.00
672.48	57404.56
672.68	57648.27
672.87	57289.88
673.06	57410.71
673.25	57072.79
673.44	57400.47
673.64	57322.65
673.83	57089.18
674.02	57635.98
674.21	57707.66
674.40	57644.18
674.59	57478.29
674.79	57451.67
674.98	56997.02
675.17	57525.39
675.36	56976.54
675.55	57896.08
675.74	57248.92
675.94	57435.28
676.13	57855.12
676.32	57468.05
676.51	58045.58
676.70	57857.17
676.89	57576.59
677.08	57937.04
677.28	57423.00
677.47	57418.90
677.66	57693.33
677.85	57615.50
678.04	57949.32
678.23	57525.39
678.42	57767.05
678.62	57224.34
678.81	57992.33
679.00	57595.03
679.19	58195.08
679.38	57988.24
679.57	57674.90
679.76	57767.05
679.96	57597.07
680.15	57889.93
680.34	57777.29
680.53	57042.07
680.72	57818.25
680.91	57556.11
681.10	57611.41
681.29	57855.12
681.48	57851.02
681.68	57564.31
681.87	57281.69
682.06	57439.38
682.25	57312.41
682.44	57529.49
682.63	57734.29
682.82	57466.00
683.01	57289.88
683.20	57132.18
683.39	57472.15
683.59	56972.44
683.78	57197.72
683.97	57099.42
684.16	57586.83
684.35	57013.40
684.54	57175.19
684.73	56980.63
684.92	57203.86
685.11	56980.63
685.30	57148.57
685.49	57379.99
685.69	57058.46
685.88	57160.86
686.07	56808.61
686.26	56501.41
686.45	57246.87
686.64	57185.43
686.83	56622.24
687.02	56880.28
687.21	57046.17
687.40	56855.71
687.59	57023.64
687.78	56853.66
687.97	56599.71
688.16	57359.51
688.35	56702.11
688.54	56528.03
688.74	56562.85
688.93	56652.96
689.12	56906.91
689.31	56876.19
689.50	56859.80
689.69	56726.69
689.88	56241.32
690.07	56745.12
690.26	56394.92
690.45	56913.05
690.64	56386.72
690.83	55958.70
691.02	56054.95
691.21	56067.24
691.40	56210.60
691.59	56069.29
691.78	56083.62
691.97	56396.96
692.16	56181.93
692.35	56341.67
692.54	56669.34
692.73	56358.05
692.92	55907.50
693.11	56376.48
693.30	55805.10
693.49	56300.71
693.68	55684.27
693.87	56489.12
694.06	55788.72
694.25	55858.35
694.44	55751.85
694.63	56120.49
694.82	56487.07
695.01	55866.54
695.20	55211.19
695.39	54992.06
695.58	55809.20
695.77	55809.20
695.96	55137.46
696.15	55743.66
696.34	55319.73
696.53	55239.86
696.72	55934.12
696.91	55362.74
697.10	55121.08
697.29	55194.81
697.48	55418.03
697.67	55137.46
697.86	55164.09
698.05	54744.25
698.24	55131.32
698.43	54768.83
698.62	55325.88
698.81	54561.98
699.00	55133.37
699.19	54584.51
699.38	55295.16
699.57	54361.28
699.76	55174.33
699.95	54858.94
700.14	54516.93
700.32	54295.75
700.51	54529.22
700.70	54879.42
700.89	54547.65
701.08	54703.29
701.27	54398.15
701.46	54607.04
701.65	54181.06
701.84	54318.28
702.03	54146.25
702.22	54445.25
702.41	53990.60
702.60	54035.66
702.79	54156.49
702.98	53978.31
703.17	53908.68
703.35	53697.74
703.54	53484.75
703.73	54181.06
703.92	53853.39
704.11	53843.15
704.30	53892.30
704.49	53494.99
704.68	53451.98
704.87	53449.94
705.06	53675.21
705.25	53148.88
705.43	53284.05
705.62	53646.54
705.81	53021.91
706.00	53595.34
706.19	53083.35
706.38	52835.55
706.57	53304.53
706.76	53189.84
706.95	53181.65
707.14	53318.87
707.32	52995.29
707.51	52540.64
707.70	52896.98
707.89	52849.88
708.08	52573.41
708.27	52614.37
708.46	52950.23
708.65	52581.60
708.84	52831.45
709.02	52866.27
709.21	52741.34
709.40	52909.27
709.59	52606.17
709.78	52536.54
709.97	52720.86
710.16	52919.51
710.34	52575.45
710.53	52159.72
710.72	52030.69
710.91	52188.39
711.10	52339.94
711.29	52557.02
711.48	52204.77
711.66	52065.51
711.85	51930.34
712.04	52255.97
712.23	52180.20
712.42	52020.45
712.61	52380.90
712.80	52083.94
712.98	52065.51
713.17	51569.90
713.36	51825.90
713.55	52034.79
713.74	51590.38
713.93	51692.78
714.11	51807.47
714.30	51240.18
714.49	51463.41
714.68	51389.68
714.87	51739.88
715.06	51756.27
715.24	51150.07
715.43	51647.72
715.62	51293.43
715.81	51049.72
716.00	51062.00
716.18	50961.65
716.37	50500.86
716.56	50781.43
716.75	51533.04
716.94	51246.32
717.12	50539.77
717.31	51315.95
717.50	50779.39
717.69	50834.68
717.88	50812.15
718.06	50961.65
718.25	50791.67
718.44	50578.68
718.63	50545.92
718.82	50576.64
719.00	50478.33
719.19	50337.02
719.38	50208.00
719.57	50179.33
719.76	50126.08
719.94	50154.75
720.13	49839.37
720.32	49894.66
720.51	49949.96
720.69	50146.56
720.88	49763.59
721.07	49876.23
721.26	49317.14
721.44	49591.56
721.63	49323.28
721.82	49519.88
722.01	49323.28
722.20	49077.52
722.38	49339.66
722.57	48987.41
722.76	49083.67
722.95	49354.00
723.13	48676.12
723.32	48741.66
723.51	48733.46
723.70	48889.11
723.88	49163.54
724.07	48522.52
724.26	48579.87
724.44	48006.44
724.63	48755.99
724.82	48250.14
725.01	48633.11
725.19	48299.30
725.38	48516.38
725.57	48641.31
725.76	48301.34
725.94	48149.79
726.13	48229.66
726.32	48495.90
726.51	47928.61
726.69	48809.24
726.88	48669.98
727.07	48704.79
727.25	48397.60
727.44	48340.25
727.63	48180.51
727.82	48422.17
728.00	48350.49
728.19	48014.63
728.38	48932.12
728.56	47934.76
728.75	48948.50
728.94	48051.49
729.12	48256.29
729.31	48155.94
729.50	48405.79
729.69	48252.19
729.87	48395.55
730.06	47652.14
730.25	47910.18
730.43	48330.01
730.62	48327.97
730.81	48203.04
730.99	47938.85
731.18	47981.86
731.37	48063.78
731.55	48088.35
731.74	48114.98
731.93	48049.44
732.11	48110.88
732.30	48022.82
732.49	47846.69
732.67	48090.40
732.86	48069.92
733.05	48082.21
733.23	47734.06
733.42	47891.75
733.61	47461.68
733.79	47707.43
733.98	48092.45
734.17	47828.26
734.35	47852.84
734.54	47770.92
734.73	48137.51
734.91	47975.72
735.10	47570.22
735.29	47891.75
735.47	47521.07
735.66	47947.04
735.84	48018.72
736.03	47576.36
736.22	47791.40
736.40	47357.23
736.59	47584.55
736.78	47936.80
736.96	47568.17
737.15	47590.70
737.33	47924.52
737.52	47586.60
737.71	47521.07
737.89	47754.54
738.08	47357.23
738.27	47248.69
738.45	47901.99
738.64	47637.80
738.82	47308.08
739.01	47856.93
739.20	47953.19
739.38	47693.10
739.57	47848.74
739.75	47498.54
739.94	47449.39
740.13	47469.87
740.31	46982.45
740.50	47054.13
740.68	47332.65
740.87	47717.67
741.06	47510.83
741.24	47330.61
741.43	47371.57
741.61	47451.44
741.80	46949.68
741.99	46880.05
742.17	47019.31
742.36	46871.86
742.54	47351.09
742.73	47344.94
742.91	47478.06
743.10	47275.31
743.29	47207.73
743.47	47346.99
743.66	47127.86
743.84	47136.05
744.03	47105.33
744.21	47199.54
744.40	47459.63
744.59	46961.97
744.77	47027.51
744.96	46777.65
745.14	47152.43
745.33	47047.99
745.51	46800.18
745.70	47211.82
745.88	47041.84
746.07	46712.12
746.26	46548.28
746.44	46888.24
746.63	46683.45
746.81	46812.47
747.00	46552.38
747.18	46933.30
747.37	46579.00
747.55	46572.86
747.74	47222.06
747.92	46449.98
748.11	46439.74
748.29	46333.24
748.48	46687.54
748.66	46683.45
748.85	46650.68
749.03	46814.52
749.22	46243.13
749.41	46390.59
749.59	46386.49
749.78	46359.87
749.96	46413.12
750.15	46499.13
750.33	46486.84
750.52	46423.36
750.70	46228.80
750.89	46060.87
751.07	46163.26
751.26	46138.69
751.44	46110.02
751.63	46355.77
751.81	46140.74
752.00	45725.00
752.18	46083.39
752.37	46009.67
752.55	45759.81
752.74	45929.80
752.92	45540.68
753.10	45725.00
753.29	46294.33
753.47	45651.27
753.66	45532.49
753.84	45839.68
754.03	45604.17
754.21	45526.35
754.40	45940.04
754.58	45884.74
754.77	45993.28
754.95	45339.98
755.14	45671.75
755.32	45804.87
755.51	45688.13
755.69	45030.74
755.88	45544.78
756.06	45540.68
756.24	45499.72
756.43	45448.52
756.61	45884.74
756.80	45104.46
756.98	44914.00
757.17	45362.51
757.35	45544.78
757.54	45260.11
757.72	45108.56
757.90	45509.96
758.09	45032.78
758.27	45014.35
758.46	45106.51
758.64	44973.39
758.83	45413.71
759.01	45124.94
759.19	45174.09
759.38	44801.36
759.56	45075.79
759.75	44608.86
759.93	45151.57
760.12	44776.79
760.30	44891.48
760.48	45094.22
760.67	44733.78
760.85	44406.11
761.04	44983.63
761.22	44625.24
761.40	44528.98
761.59	45036.88
761.77	44082.53
761.96	44799.32
762.14	44651.86
762.32	44492.12
762.51	44627.29
762.69	44416.35
762.88	44760.40
763.06	44588.38
763.24	44905.81
763.43	44363.10
763.61	43986.27
763.80	44260.70
763.98	43955.55
764.16	44025.18
764.35	43613.54
764.53	43228.52
764.72	43943.27
764.90	43763.04
765.08	43890.02
765.27	44008.80
765.45	43375.98
765.63	43292.01
765.82	43709.80
766.00	43482.47
766.18	43545.96
766.37	43793.76
766.55	43369.83
766.74	43367.79
766.92	43038.06
767.10	43251.05
767.29	43298.16
767.47	43341.16
767.65	43722.08
767.84	43269.48
768.02	43672.93
768.20	42976.62
768.39	43070.83
768.57	42990.96
768.75	42872.18
768.94	43310.44
769.12	43079.02
769.30	42446.20
769.49	42925.42
769.67	42921.33
769.85	42116.48
770.04	42831.22
770.22	42698.10
770.40	42521.98
770.59	42345.85
770.77	42485.11
770.95	42249.60
771.14	42335.61
771.32	42112.38
771.50	42132.86
771.69	42202.49
771.87	42833.27
772.05	41708.93
772.24	41723.27
772.42	42050.94
772.60	41852.29
772.78	41964.93
772.97	41780.61
773.15	42192.25
773.33	41979.26
773.52	41659.78
773.70	41629.06
773.88	41946.50
774.07	41461.13
774.25	41708.93
774.43	41934.21
774.61	42134.91
774.80	41940.35
774.98	42022.27
775.16	41760.13
775.34	41950.59
775.53	41782.66
775.71	42116.48
775.89	42055.04
776.08	42022.27
776.26	41573.77
776.44	41903.49
776.62	41567.62
776.81	41475.46
776.99	42087.81
777.17	41659.78
777.35	41954.69
777.54	42153.34
777.72	41989.50
777.90	42038.65
778.08	42161.53
778.27	41692.55
778.45	41923.97
778.63	42354.04
778.81	41661.83
779.00	42325.37
779.18	42280.31
779.36	42337.66
779.54	41999.74
779.73	42186.11
779.91	42401.14
780.09	42329.47
780.27	42438.01
780.46	42222.97
780.64	42640.76
780.82	42313.08
781.00	42386.81
781.19	42251.64
781.37	42493.30
781.55	42407.29
781.73	42687.86
781.91	42302.84
782.10	42190.20
782.28	42407.29
782.46	42841.46
782.64	42696.05
782.82	42476.92
783.01	42935.66
783.19	42630.52
783.37	42491.26
783.55	42022.27
783.74	42657.14
783.92	42601.85
784.10	42620.28
784.28	42841.46
784.46	42347.90
784.64	42368.38
784.83	42311.03
785.01	42841.46
785.19	42407.29
785.37	42126.72
785.55	42505.59
785.74	41854.34
785.92	42071.42
786.10	41944.45
786.28	42130.81
786.46	42038.65
786.64	42251.64
786.83	41862.53
787.01	42087.81
787.19	42255.74
787.37	41710.98
787.55	41895.30
787.74	41665.92
787.92	41743.75
788.10	41321.87
788.28	41266.57
788.46	41596.29
788.64	41430.41
788.82	41862.53
789.01	42007.94
789.19	41239.95
789.37	41137.55
789.55	41272.71
789.73	41125.26
789.91	41084.30
790.09	40877.46
790.28	40816.02
790.46	40762.77
790.64	40840.59
790.82	41051.53
791.00	40592.79
791.18	40598.93
791.36	40414.62
791.55	40549.78
791.73	40478.10
791.91	40222.11
792.09	40539.54
792.27	40097.18
792.45	40459.67
792.63	40203.67
792.81	39710.11
793.00	40244.63
793.18	39636.39
793.36	40125.85
793.54	39493.03
793.72	39253.42
793.90	39718.31
794.08	39609.76
794.26	39204.27
794.44	38888.88
794.62	38858.16
794.81	39142.83
794.99	38667.70
795.17	38806.96
795.35	38819.25
795.53	38847.92
795.71	38524.34
795.89	38331.83
796.07	38045.12
796.25	38460.85
796.43	38049.21
796.61	38182.33
796.80	37809.60
796.98	37955.00
797.16	37858.75
797.34	37885.37
797.52	37940.67
797.70	37676.48
797.88	38057.40
798.06	37408.20
798.24	37512.64
798.42	37340.61
798.60	37281.22
798.78	37027.28
798.96	37330.37
799.14	37131.72
799.32	36632.02
799.51	36523.47
799.69	36928.97
799.87	36734.42
800.05	36400.60
800.23	36546.00
800.41	36220.38
800.59	36433.36
800.77	35845.60
800.95	35999.19
801.13	35861.98
801.31	36074.97
801.49	35866.08
801.67	35681.76
801.85	35696.10
802.03	35669.47
802.21	35634.66
802.39	35081.70
802.57	35302.89
802.75	34964.97
802.93	34997.74
803.11	35251.69
803.29	34977.26
803.47	35034.60
803.65	34919.92
803.83	34862.57
804.01	34772.46
804.19	34518.51
804.37	34332.15
804.55	34502.13
804.73	34645.49
804.91	34340.34
805.09	34332.15
805.27	34119.16
805.45	34196.98
805.63	34184.69
805.81	33805.82
805.99	33826.30
806.17	34264.57
806.35	34004.47
806.53	33506.82
806.71	33449.47
806.89	33394.18
807.07	33510.91
807.25	33723.90
807.43	33164.81
807.61	33508.86
807.79	33271.30
807.97	32970.25
808.15	33414.66
808.33	32810.51
808.51	32849.42
808.69	33086.98
808.87	32562.70
809.05	32710.16
809.23	32493.07
809.41	32415.25
809.59	32488.98
809.77	32527.89
809.95	32355.86
810.13	32566.80
810.31	32159.25
810.49	32470.54
810.67	32380.43
810.84	31886.87
811.02	31942.17
811.20	32054.81
811.38	31630.88
811.56	31610.40
811.74	31581.73
811.92	31520.29
812.10	31811.10
812.28	31512.10
812.46	31661.60
812.64	31409.70
812.82	31346.21
813.00	31710.75
813.18	31534.62
813.36	31071.78
813.53	31069.73
813.71	30920.23
813.89	31241.76
814.07	30637.61
814.25	30705.20
814.43	30578.22
814.61	30901.80
814.79	30533.17
814.97	30699.05
815.15	30629.42
815.33	30172.72
815.50	30105.14
815.68	30377.52
815.86	30832.17
816.04	30436.91
816.22	30113.33
816.40	30320.18
816.58	29967.93
816.76	30275.12
816.94	30109.24
817.11	29994.55
817.29	30344.75
817.47	29767.23
817.65	29791.80
817.83	29924.92
818.01	29541.95
818.19	29318.72
818.37	29865.53
818.54	29310.53
818.72	29288.00
818.90	29578.81
819.08	29466.17
819.26	29419.07
819.44	29521.47
819.62	29347.39
819.80	29427.26
819.97	29210.18
820.15	29222.47
820.33	29265.47
820.51	29351.49
820.69	28954.18
820.87	28991.05
821.05	28896.84
821.22	28952.13
821.40	29013.57
821.58	29095.49
821.76	28571.21
821.94	28765.77
822.12	28646.99
822.29	28878.41
822.47	28175.95
822.65	28808.78
822.83	28759.63
823.01	28214.87
823.19	28528.20
823.36	28075.60
823.54	28268.11
823.72	28411.47
823.90	28395.09
824.08	27870.81
824.25	28149.33
824.43	28008.02
824.61	28008.02
824.79	28001.88
824.97	27905.62
825.15	27709.02
825.32	28110.42
825.50	27647.58
825.68	27663.96
825.86	27944.53
826.04	28055.12
826.21	27897.43
826.39	27821.66
826.57	27743.83
826.75	27510.36
826.93	27438.69
827.10	27491.93
827.28	27483.74
827.46	27641.43
827.64	27377.25
827.81	27340.38
827.99	27348.57
828.17	26963.56
828.35	27199.07
828.53	27205.22
828.70	27133.54
828.88	27000.42
829.06	26924.65
829.24	27237.98
829.41	27188.83
829.59	27229.79
829.77	26916.45
829.95	26852.97
830.12	26617.45
830.30	26801.77
830.48	26898.02
830.66	27016.80
830.84	26826.34
831.01	26666.60
831.19	26611.31
831.37	26302.06
831.55	26242.67
831.72	26558.06
831.90	26535.53
832.08	26910.31
832.25	26693.22
832.43	26723.94
832.61	26455.66
832.79	26373.74
832.96	26136.18
833.14	26349.17
833.32	26408.56
833.50	26318.45
833.67	26263.15
833.85	26125.94
834.03	25945.72
834.20	26125.94
834.38	26283.63
834.56	26115.70
834.74	25882.23
834.91	26123.89
835.09	25915.00
835.27	25540.22
835.44	26181.23
835.62	25597.56
835.80	25874.04
835.98	25958.00
836.15	25736.82
836.33	25675.38
836.51	25988.72
836.68	25722.49
836.86	25478.78
837.04	25472.64
837.21	25376.38
837.39	25876.09
837.57	25468.54
837.75	25863.80
837.92	25689.72
838.10	25480.83
838.28	25056.90
838.45	25482.88
838.63	25423.48
838.81	25228.93
838.98	25325.18
839.16	25126.53
839.34	25276.03
839.51	24966.79
839.69	25052.80
839.87	25280.13
840.04	24983.17
840.22	25034.37
840.40	25181.82
840.57	24909.44
840.75	25153.15
840.93	24737.41
841.10	25157.25
841.28	25302.65
841.46	24845.96
841.63	25333.37
841.81	24583.82
841.98	25063.04
842.16	24700.55
842.34	24915.59
842.51	24520.33
842.69	25028.23
842.87	24882.82
843.04	25009.79
843.22	24966.79
843.40	24848.00
843.57	24481.42
843.75	24817.29
843.92	24598.15
844.10	24747.65
844.28	24616.58
844.45	24571.53
844.63	24321.68
844.81	24102.54
844.98	24297.10
845.16	24417.93
845.33	24239.76
845.51	24366.73
845.69	24002.19
845.86	24202.89
846.04	24192.65
846.21	24104.59
846.39	24102.54
846.57	24063.63
846.74	23797.40
846.92	24153.74
847.09	24336.01
847.27	23801.49
847.45	24102.54
847.62	23989.91
847.80	24037.01
847.97	23832.21
848.15	24010.39
848.32	23539.35
848.50	23803.54
848.68	23608.98
848.85	23742.10
849.03	23637.66
849.20	23793.30
849.38	23619.22
849.56	23738.01
849.73	23525.02
849.91	23645.85
850.08	23690.90
850.26	23127.71
850.43	23443.10
850.61	23617.18
850.78	23361.18
850.96	23510.68
851.14	23295.64
851.31	23451.29
851.49	23281.31
851.66	23713.43
851.84	23465.63
852.01	23557.78
852.19	23428.76
852.36	23383.71
852.54	23215.77
852.71	23137.95
852.89	23432.86
853.07	23205.53
853.24	22720.17
853.42	22963.87
853.59	23037.60
853.77	23152.29
853.94	23086.75
854.12	23381.66
854.29	22920.87
854.47	23076.51
854.64	22863.52
854.82	23008.93
854.99	22832.80
855.17	22714.02
855.34	22951.59
855.52	22959.78
855.69	22951.59
855.87	22628.01
856.04	22417.07
856.22	22714.02
856.39	22531.75
856.57	22800.04
856.74	22308.52
856.92	22795.94
857.09	22458.03
857.27	22638.25
857.44	22701.73
857.62	22539.94
857.79	22498.98
857.97	22374.06
858.14	22415.02
858.32	22681.25
858.49	22482.60
858.67	22163.12
858.84	22134.45
859.02	22197.93
859.19	22195.89
859.37	22177.45
859.54	22116.01
859.72	22204.08
859.89	22001.33
860.06	22335.15
860.24	22204.08
860.41	22177.45
860.59	22148.78
860.76	22128.30
860.94	21876.40
861.11	22038.19
861.29	21620.41
861.46	21929.65
861.64	21534.39
861.81	21991.09
861.98	21868.21
862.16	21610.17
862.33	21556.92
862.51	21532.34
862.68	21604.02
862.86	21518.01
863.03	21710.52
863.21	21503.67
863.38	21716.66
863.55	21673.65
863.73	21628.60
863.90	21538.49
864.08	21446.33
864.25	21225.15
864.43	21296.83
864.60	21192.38
864.77	21370.55
864.95	21507.77
865.12	21139.13
865.30	21337.79
865.47	21151.42
865.64	21173.95
865.82	21223.10
865.99	21610.17
866.17	21313.21
866.34	21223.10
866.51	20956.86
866.69	21274.30
866.86	21104.32
867.04	21016.26
867.21	20889.28
867.38	20750.02
867.56	20846.27
867.73	20637.38
867.91	20995.78
868.08	20780.74
868.25	20670.15
868.43	20664.00
868.60	20598.47
868.78	20575.94
868.95	20655.81
869.12	20621.00
869.30	20510.41
869.47	20758.21
869.64	20162.25
869.82	20815.55
869.99	20528.84
870.16	20383.43
870.34	20383.43
870.51	20352.71
870.69	20252.36
870.86	20270.79
871.03	20375.24
871.21	20309.71
871.38	20463.30
871.55	20176.59
871.73	20029.13
871.90	19920.59
872.07	19758.80
872.25	19515.09
872.42	19924.69
872.59	19984.08
872.77	19807.95
872.94	19807.95
873.11	19594.96
873.29	19601.11
873.46	19709.65
873.63	19549.91
873.81	19367.64
873.98	19324.63
874.15	19408.60
874.33	19119.84
874.50	19230.43
874.67	19410.65
874.85	19486.42
875.02	19089.12
875.19	19021.53
875.37	19316.44
875.54	19152.60
875.71	19171.04
875.88	19220.19
876.06	19195.61
876.23	18976.48
876.40	19013.34
876.58	19046.11
876.75	18919.14
876.92	18818.78
877.10	19021.53
877.27	18906.85
877.44	18712.29
877.61	18751.20
877.79	18718.43
877.96	18484.97
878.13	18847.46
878.31	18521.83
878.48	18439.91
878.65	18511.59
878.82	18317.03
879.00	18534.12
879.17	18403.05
879.34	18695.91
879.51	18331.37
879.69	18235.11
879.86	18206.44
880.03	18030.32
880.21	18091.76
880.38	18214.63
880.55	18251.50
880.72	18091.76
880.90	18286.31
881.07	17991.41
881.24	17907.44
881.41	18011.89
881.59	17936.11
881.76	18110.19
881.93	17786.61
882.10	17870.58
882.28	17663.73
882.45	17956.59
882.62	17618.68
882.79	17630.96
882.96	17477.37
883.14	17592.05
883.31	17678.07
883.48	17624.82
883.65	17688.31
883.83	17829.62
884.00	17633.01
884.17	17497.84
884.34	17747.70
884.51	17813.23
884.69	17649.39
884.86	17639.15
885.03	17522.42
885.20	17123.07
885.38	17483.51
885.55	17397.49
885.72	17366.78
885.89	17348.34
886.06	17258.23
886.24	17278.71
886.41	17247.99
886.58	17733.36
886.75	17428.21
886.92	16998.14
887.10	17323.77
887.27	17102.59
887.44	16977.66
887.61	17030.91
887.78	17106.68
887.95	17188.60
888.13	16899.84
888.30	16811.78
888.47	16727.81
888.64	16971.52
888.81	16828.16
888.99	16692.99
889.16	16729.86
889.33	16690.95
889.50	16670.47
889.67	16776.96
889.84	16615.17
890.01	16676.61
890.19	16557.83
890.36	16633.60
890.53	16459.52
890.70	16404.23
890.87	16502.53
891.04	16330.50
891.22	16584.45
891.39	16369.41
891.56	16445.19
891.73	16320.26
891.90	16252.68
892.07	15998.73
892.24	16252.68
892.42	16238.34
892.59	16037.64
892.76	16523.01
892.93	15939.34
893.10	16326.41
893.27	16303.88
893.44	16080.65
893.61	15888.14
893.79	16252.68
893.96	15986.44
894.13	15814.41
894.30	15929.10
894.47	15867.66
894.64	16094.99
894.81	15818.51
894.98	15714.06
895.15	16033.55
895.33	15834.89
895.50	15755.02
895.67	15689.49
895.84	15953.68
896.01	15744.78
896.18	15892.24
896.35	15857.42
896.52	15961.87
896.69	15769.36
896.86	15859.47
897.04	15937.29
897.21	15697.68
897.38	15857.42
897.55	15570.71
897.72	15838.99
897.89	15527.70
898.06	15757.07
898.23	15931.15
898.40	15623.95
898.57	15615.76
898.74	15529.75
898.91	15654.67
899.08	15558.42
899.26	15650.58
899.43	15587.09
899.60	15591.19
899.77	15550.23
899.94	15654.67
900.11	15503.12
900.28	15681.30
900.45	15349.53
900.62	15271.70
900.79	15769.36
900.96	15636.24
901.13	15666.96
901.30	15507.22
901.47	15507.22
901.64	15568.66
901.81	15580.95
901.98	15286.04
902.15	15736.59
902.32	15318.81
902.49	15496.98
902.66	15783.70
902.83	15376.15
903.01	15445.78
903.18	15736.59
903.35	15441.68
903.52	15437.59
903.69	15488.79
903.86	15470.36
904.03	15210.26
904.20	15580.95
904.37	15392.53
904.54	15419.16
904.71	15415.06
904.88	15402.77
905.05	15515.41
905.22	15466.26
905.39	15185.69
905.56	15341.33
905.73	15396.63
905.90	15269.66
906.07	15462.16
906.24	15165.21
906.41	15462.16
906.58	15476.50
906.75	15380.25
906.92	15068.95
907.09	15210.26
907.26	15398.68
907.43	15175.45
907.60	15546.13
907.77	15230.74
907.93	15417.11
908.10	15271.70
908.27	15445.78
908.44	15243.03
908.61	15208.22
908.78	15200.02
908.95	15343.38
909.12	15212.31
909.29	15030.04
909.46	15173.40
909.63	15177.50
909.80	15370.01
909.97	14964.51
910.14	14831.39
910.31	15214.36
910.48	15025.95
910.65	14888.73
910.82	14999.32
910.99	14978.84
911.16	14853.92
911.33	14995.23
911.50	14847.77
911.66	14788.38
911.83	14946.08
912.00	14581.54
912.17	14702.37
912.34	14769.95
912.51	14808.86
912.68	14704.42
912.85	14587.68
913.02	14774.05
913.19	14604.07
913.36	14737.18
913.53	14798.62
913.70	14745.38
913.86	14663.46
914.03	14602.02
914.20	14429.99
914.37	14761.76
914.54	14378.79
914.71	14415.65
914.88	14266.15
915.05	14362.40
915.22	14241.57
915.39	14313.25
915.55	14176.04
915.72	14360.36
915.89	13977.39
916.06	14083.88
916.23	14036.78
916.40	14067.50
916.57	14032.68
916.74	14034.73
916.91	13872.94
917.07	14004.01
917.24	13700.91
917.41	13885.23
917.58	13750.06
917.75	13834.03
917.92	13723.44
918.09	13825.84
918.26	13590.32
918.42	13434.68
918.59	13682.48
918.76	13569.84
918.93	13469.49
919.10	13406.00
919.27	13391.67
919.44	13590.32
919.60	13330.23
919.77	13434.68
919.94	13262.65
920.11	13340.47
920.28	13389.62
920.45	13131.58
920.61	13215.54
920.78	12986.17
920.95	13059.90
921.12	12914.49
921.29	12908.35
921.46	12838.72
921.62	12562.24
921.79	12750.65
921.96	12779.32
922.13	12779.32
922.30	12846.91
922.47	12633.92
922.63	12463.94
922.80	12468.03
922.97	12592.96
923.14	12138.31
923.31	12508.99
923.47	12246.85
923.64	12400.45
923.81	12134.21
923.98	12316.48
924.15	12040.01
924.32	12296.00
924.48	12371.78
924.65	12218.18
924.82	11829.07
924.99	11878.22
925.15	11800.40
925.32	12123.98
925.49	11792.20
925.66	11839.31
925.83	11747.15
925.99	11636.56
926.16	11939.66
926.33	11677.52
926.50	11372.37
926.67	11548.50
926.83	11542.35
927.00	11495.25
927.17	11466.58
927.34	11143.00
927.50	11177.81
927.67	11394.90
927.84	11188.05
928.01	11312.98
928.17	11095.89
928.34	11079.51
928.51	11169.62
928.68	10909.53
928.84	10882.91
929.01	10598.24
929.18	10606.43
929.35	10739.55
929.51	10749.79
929.68	10604.38
929.85	10626.91
930.02	10434.40
930.18	10544.99
930.35	10596.19
930.52	10495.84
930.69	10461.02
930.85	10362.72
931.02	10258.28
931.19	10280.80
931.36	10119.01
931.52	10186.60
931.69	10235.75
931.86	9901.93
932.02	10147.69
932.19	10061.67
932.36	10090.34
932.53	9936.74
932.69	9875.31
932.86	9967.46
933.03	9840.49
933.19	9598.83
933.36	9760.62
933.53	9918.31
933.70	9588.59
933.86	9652.08
934.03	9234.29
934.20	9359.22
934.36	9420.66
934.53	9215.86
934.70	9142.13
934.86	9138.04
935.03	8914.81
935.20	8992.63
935.36	9002.87
935.53	8675.20
935.70	8933.24
935.86	8931.19
936.03	8605.56
936.20	8492.93
936.36	8511.36
936.53	8468.35
936.70	8382.34
936.86	8441.73
937.03	8134.53
937.20	8083.33
937.36	8179.59
937.53	7935.88
937.70	7948.17
937.86	7819.14
938.03	7683.98
938.20	7956.36
938.36	7511.95
938.53	7729.03
938.70	7491.47
938.86	7423.89
939.03	7378.83
939.20	7165.84
939.36	7221.14
939.53	6932.37
939.70	7233.43
939.86	6905.75
940.03	6780.82
940.19	6686.62
940.36	6778.78
940.53	6653.85
940.69	6545.31
940.86	6508.44
941.03	6399.90
941.19	6352.80
941.36	6348.70
941.52	6240.16
941.69	6113.19
941.86	6215.59
942.02	6131.62
942.19	5996.45
942.35	6152.10
942.52	5963.68
942.69	5898.15
942.85	5922.73
943.02	5881.77
943.18	5820.33
943.35	5820.33
943.52	5728.17
943.68	5820.33
943.85	5640.11
944.01	5580.71
944.18	5556.14
944.35	5511.08
944.51	5476.27
944.68	5537.71
944.84	5443.50
945.01	5314.48
945.17	5373.87
945.34	5380.01
945.51	5314.48
945.67	5359.53
945.84	5431.21
946.00	5406.64
946.17	5226.42
946.33	5167.03
946.50	5210.03
946.67	5310.38
946.83	5316.53
947.00	5371.82
947.16	5300.14
947.33	5148.59
947.49	5255.09
947.66	5081.01
947.82	5314.48
947.99	5099.44
948.16	5269.42
948.32	5226.42
948.49	5316.53
948.65	5308.34
948.82	5214.13
948.98	5236.66
949.15	5152.69
949.31	5267.38
949.48	5257.14
949.64	5259.18
949.81	5339.05
949.97	5117.87
950.14	5232.56
950.30	5179.31
950.47	5287.86
950.63	5396.40
950.80	5435.31
950.96	5228.46
951.13	5234.61
951.30	5265.33
951.46	5201.84
951.63	5355.44
951.79	5400.49
951.96	5375.92
952.12	5261.23
952.29	5398.45
952.45	5144.50
952.62	5359.53
952.78	5468.08
952.94	5431.21
953.11	5271.47
953.27	5398.45
953.44	5349.29
953.60	5457.84
953.77	5265.33
953.93	5332.91
954.10	5146.55
954.26	5236.66
954.43	5320.62
954.59	5504.94
954.76	5373.87
954.92	5451.69
955.09	5398.45
955.25	5285.81
955.42	5476.27
955.58	5562.28
955.75	5367.73
955.91	5359.53
956.07	5384.11
956.24	5619.63
956.40	5531.56
956.57	5476.27
956.73	5523.37
956.90	5384.11
957.06	5324.72
957.23	5296.05
957.39	5361.58
957.56	5461.93
957.72	5248.94
957.88	5431.21
958.05	5533.61
958.21	5554.09
958.38	5367.73
958.54	5482.41
958.71	5404.59
958.87	5416.88
959.03	5498.80
959.20	5509.04
959.36	5375.92
959.53	5332.91
959.69	5437.36
959.85	5474.22
960.02	5461.93
960.18	5437.36
960.35	5423.02
960.51	5449.64
960.68	5392.30
960.84	5414.83
961.00	5416.88
961.17	5357.49
961.33	5466.03
961.50	5404.59
961.66	5314.48
961.82	5412.78
961.99	5468.08
962.15	5476.27
962.31	5394.35
962.48	5343.15
962.64	5492.65
962.81	5494.70
962.97	5347.25
963.13	5361.58
963.30	5375.92
963.46	5298.10
963.62	5468.08
963.79	5320.62
963.95	5332.91
964.12	5289.90
964.28	5392.30
964.44	5199.79
964.61	5357.49
964.77	5345.20
964.93	5447.60
965.10	5294.00
965.26	5363.63
965.42	5246.90
965.59	5294.00
965.75	5306.29
965.92	5271.47
966.08	5277.62
966.24	5337.01
966.41	5164.98
966.57	5257.14
966.73	5265.33
966.90	5285.81
967.06	5207.98
967.22	5181.36
967.39	5250.99
967.55	5201.84
967.71	5242.80
967.88	5128.11
968.04	5144.50
968.20	5185.46
968.37	5033.91
968.53	5195.70
968.69	5156.79
968.85	5322.67
969.02	5171.12
969.18	5267.38
969.34	5265.33
969.51	5242.80
969.67	5271.47
969.83	5040.05
970.00	5089.20
970.16	5171.12
970.32	5074.87
970.48	5187.50
970.65	5001.14
970.81	4919.22
970.97	5091.25
971.14	4958.13
971.30	4951.99
971.46	4906.93
971.63	5029.81
971.79	5054.39
971.95	5035.96
972.11	4976.56
972.28	4847.54
972.44	4954.04
972.60	4857.78
972.76	4937.65
972.93	4941.75
973.09	4923.32
973.25	5025.72
973.42	4947.89
973.58	5005.24
973.74	5001.14
973.90	4876.21
974.07	4820.92
974.23	4857.78
974.39	4833.21
974.55	4931.51
974.72	4839.35
974.88	4906.93
975.04	4812.73
975.20	4810.68
975.37	4730.81
975.53	4710.33
975.69	4800.44
975.85	4689.85
976.01	4720.57
976.18	4859.83
976.34	4681.66
976.50	4818.87
976.66	4790.20
976.83	4829.11
976.99	4616.12
977.15	4628.41
977.31	4622.27
977.47	4741.05
977.64	4593.59
977.80	4638.65
977.96	4669.37
978.12	4607.93
978.29	4614.07
978.45	4521.92
978.61	4442.04
978.77	4687.80
978.93	4534.20
979.10	4581.31
979.26	4448.19
979.42	4661.18
979.58	4534.20
979.74	4501.44
979.91	4493.24
980.07	4413.37
980.23	4505.53
980.39	4566.97
980.55	4390.84
980.71	4440.00
980.88	4476.86
981.04	4368.32
981.20	4321.21
981.36	4483.00
981.52	4415.42
981.68	4351.93
981.85	4427.71
982.01	4409.28
982.17	4284.35
982.33	4394.94
982.49	4409.28
982.65	4296.64
982.82	4345.79
982.98	4382.65
983.14	4368.32
983.30	4294.59
983.46	4335.55
983.62	4296.64
983.79	4280.25
983.95	4188.10
984.11	4270.01
984.27	4380.61
984.43	4184.00
984.59	4249.54
984.75	4280.25
984.91	4188.10
985.08	4257.73
985.24	4155.33
985.40	4018.11
985.56	4155.33
985.72	4198.34
985.88	4151.23
986.04	4124.61
986.20	4118.47
986.37	4095.94
986.53	4145.09
986.69	4130.75
986.85	4009.92
987.01	3891.14
987.17	4179.90
987.33	3993.54
987.49	4005.83
987.65	4016.07
987.82	4083.65
987.98	4030.40
988.14	3981.25
988.30	3964.87
988.46	4054.98
988.62	4106.18
988.78	3925.96
988.94	3893.19
989.10	3880.90
989.26	3880.90
989.42	3905.48
989.59	3780.55
989.75	3792.84
989.91	3944.39
990.07	3753.93
990.23	3811.27
990.39	3854.28
990.55	3864.52
990.71	3870.66
990.87	3807.17
991.03	3977.16
991.19	3827.65
991.35	3829.70
991.51	3968.96
991.67	3850.18
991.83	3819.46
992.00	3848.13
992.16	3839.94
992.32	3762.12
992.48	3745.73
992.64	3600.33
992.80	3684.30
992.96	3786.69
993.12	3719.11
993.28	3727.30
993.44	3698.63
993.60	3563.47
993.76	3633.10
993.92	3719.11
994.08	3694.54
994.24	3583.95
994.40	3608.52
994.56	3563.47
994.72	3639.24
994.88	3567.56
995.04	3643.34
995.20	3616.71
995.36	3624.90
995.52	3491.79
995.68	3545.03
995.84	3510.22
996.00	3633.10
996.16	3452.88
996.32	3514.31
996.48	3479.50
996.64	3612.62
996.80	3596.23
996.96	3557.32
997.12	3557.32
997.28	3485.64
997.44	3395.53
997.60	3467.21
997.76	3467.21
997.92	3508.17
998.08	3549.13
998.24	3258.32
998.40	3346.38
998.56	3542.99
998.72	3327.95
998.88	3313.61
999.04	3262.41
999.20	3448.78
999.36	3229.65
999.52	3452.88
999.68	3305.42
999.84	3299.28
1000.00	3289.04
1000.16	3364.81
1000.32	3286.99
1000.48	3317.71
1000.64	3239.89
1000.80	3252.17
1000.95	3221.45
1001.11	3309.52
1001.27	3164.11
1001.43	3264.46
1001.59	3252.17
1001.75	3209.17
1001.91	3168.21
1002.07	3106.77
1002.23	3209.17
1002.39	3166.16
1002.55	3123.15
1002.71	3065.81
1002.87	3190.74
1003.03	3104.72
1003.19	3147.73
1003.34	3250.13
1003.50	3061.71
1003.66	3033.04
1003.82	3110.86
1003.98	3022.80
1004.14	3039.19
1004.30	3125.20
1004.46	3041.23
1004.62	3110.86
1004.78	2990.03
1004.94	3035.09
1005.09	3020.75
1005.25	3149.78
1005.41	3047.38
1005.57	3065.81
1005.73	2912.21
1005.89	3041.23
1006.05	3047.38
1006.21	2926.55
1006.37	2928.60
1006.52	2959.31
1006.68	2932.69
1006.84	3125.20
1007.00	2887.64
1007.16	2938.84
1007.32	2863.06
1007.48	2887.64
1007.64	2998.23
1007.79	3014.61
1007.95	2830.29
1008.11	2897.88
1008.27	2883.54
1008.43	2971.60
1008.59	2691.03
1008.75	2858.96
1008.91	2856.92
1009.06	2920.40
1009.22	2795.48
1009.38	2848.72
1009.54	2828.24
1009.70	2791.38
1009.86	2858.96
1010.01	2803.67
1010.17	2727.89
1010.33	2836.44
1010.49	2801.62
1010.65	2889.68
1010.81	2762.71
1010.96	2797.53
1011.12	2721.75
1011.28	2695.13
1011.44	2758.61
1011.60	2717.65
1011.76	2756.57
1011.91	2766.81
1012.07	2680.79
1012.23	2643.93
1012.39	2594.78
1012.55	2686.94
1012.71	2617.30
1012.86	2715.61
1013.02	2691.03
1013.18	2697.17
1013.34	2607.06
1013.50	2686.94
1013.65	2715.61
1013.81	2637.78
1013.97	2688.98
1014.13	2721.75
1014.29	2664.41
1014.44	2723.80
1014.60	2643.93
1014.76	2617.30
1014.92	2582.49
1015.07	2498.52
1015.23	2635.74
1015.39	2607.06
1015.55	2514.91
1015.71	2523.10
1015.86	2549.72
1016.02	2568.15
1016.18	2549.72
1016.34	2639.83
1016.49	2553.82
1016.65	2541.53
1016.81	2478.04
1016.97	2535.39
1017.12	2576.34
1017.28	2492.38
1017.44	2453.47
1017.60	2469.85
1017.75	2416.60
1017.91	2494.43
1018.07	2500.57
1018.23	2459.61
1018.38	2414.56
1018.54	2543.58
1018.70	2480.09
1018.86	2437.08
1019.01	2367.45
1019.17	2359.26
1019.33	2521.05
1019.49	2510.81
1019.64	2480.09
1019.80	2475.99
1019.96	2486.23
1020.12	2404.32
1020.27	2406.36
1020.43	2369.50
1020.59	2334.68
1020.74	2344.92
1020.90	2469.85
1021.06	2265.05
1021.22	2353.12
1021.37	2295.77
1021.53	2328.54
1021.69	2306.01
1021.84	2271.20
1022.00	2402.27
1022.16	2228.19
1022.31	2318.30
1022.47	2336.73
1022.63	2342.88
1022.79	2283.49
1022.94	2373.60
1023.10	2373.60
1023.26	2318.30
1023.41	2260.96
1023.57	2246.62
1023.73	2297.82
1023.88	2256.86
1024.04	2199.52
1024.20	2279.39
1024.35	2306.01
1024.51	2279.39
1024.67	2263.01
1024.82	2316.25
1024.98	2166.75
1025.14	2400.22
1025.29	2150.37
1025.45	2260.96
1025.61	2164.70
1025.76	2242.53
1025.92	2244.57
1026.08	2256.86
1026.23	2265.05
1026.39	2258.91
1026.55	2193.37
1026.70	2181.09
1026.86	2217.95
1027.02	2193.37
1027.17	2125.79
1027.33	2160.61
1027.48	2187.23
1027.64	2082.78
1027.80	2119.65
1027.95	2125.79
1028.11	2043.87
1028.27	2179.04
1028.42	2160.61
1028.58	2121.70
1028.73	2054.11
1028.89	2097.12
1029.05	2179.04
1029.20	2138.08
>>>>>End Processed Spectral Data<<<<<
