SpectraSuite Data File
++++++++++++++++++++++++++++++++++++
Date: Fri Jun 02 14:44:33 CEST 2017
User: INFO_000
Dark Spectrum Present: No
Reference Spectrum Present: No
Number of Sampled Component Spectra: 1
Spectrometers: USB4H00879
Integration Time (usec): 80000 (USB4H00879)
Spectra Averaged: 1 (USB4H00879)
Boxcar Smoothing: 0 (USB4H00879)
Correct for Electrical Dark: No (USB4H00879)
Strobe/Lamp Enabled: No (USB4H00879)
Correct for Detector Non-linearity: No (USB4H00879)
Correct for Stray Light: No (USB4H00879)
Number of Pixels in Processed Spectrum: 3648
>>>>>Begin Processed Spectral Data<<<<<
345.13	1267.69
345.34	1267.69
345.56	1267.69
345.78	1245.16
345.99	1267.69
346.21	1650.66
346.42	1712.10
346.64	1558.50
346.86	1845.22
347.07	1656.81
347.29	1724.39
347.50	1544.17
347.72	1660.90
347.94	1798.12
348.15	1576.94
348.37	1630.18
348.59	1738.73
348.80	1656.81
349.02	1804.26
349.23	1812.45
349.45	1757.16
349.67	1884.13
349.88	1861.60
350.10	1918.95
350.31	1880.04
350.53	1751.01
350.75	1871.84
350.96	1804.26
351.18	1923.04
351.39	1920.99
351.61	1834.98
351.82	1839.08
352.04	1929.19
352.26	1849.32
352.47	1951.71
352.69	1918.95
352.90	1677.29
353.12	1830.88
353.34	1851.36
353.55	1925.09
353.77	1822.69
353.98	1863.65
354.20	1796.07
354.41	1877.99
354.63	1943.52
354.85	2027.49
355.06	1890.28
355.28	1826.79
355.49	1912.80
355.71	1941.47
355.92	1896.42
356.14	1943.52
356.35	1886.18
356.57	1798.12
356.79	1875.94
357.00	1884.13
357.22	2025.44
357.43	1875.94
357.65	1937.38
357.86	1839.08
358.08	1841.12
358.29	1972.19
358.51	1920.99
358.72	1902.56
358.94	1966.05
359.16	1920.99
359.37	1896.42
359.59	1964.00
359.80	1888.23
360.02	1914.85
360.23	1978.34
360.45	2011.11
360.66	2004.96
360.88	1910.75
361.09	1888.23
361.31	1957.86
361.52	1964.00
361.74	2074.59
361.95	2023.39
362.17	1974.24
362.38	2095.07
362.60	1998.82
362.81	1986.53
363.03	1968.10
363.24	1882.08
363.46	2097.12
363.67	1976.29
363.89	1994.72
364.10	1939.43
364.32	1894.37
364.53	1986.53
364.75	1839.08
364.96	2054.11
365.18	2043.87
365.39	1980.39
365.61	1961.95
365.82	2123.74
366.04	2074.59
366.25	1884.13
366.47	2072.54
366.68	2093.02
366.90	1925.09
367.11	2047.97
367.33	2093.02
367.54	2070.50
367.76	2084.83
367.97	2113.50
368.19	2021.35
368.40	2084.83
368.62	2035.68
368.83	1935.33
369.05	2056.16
369.26	2004.96
369.48	1972.19
369.69	1925.09
369.91	2082.78
370.12	2095.07
370.33	2021.35
370.55	1933.28
370.76	2072.54
370.98	2158.56
371.19	2072.54
371.41	2011.11
371.62	2068.45
371.84	2013.15
372.05	2183.13
372.27	2088.93
372.48	2066.40
372.69	2084.83
372.91	2142.18
373.12	2113.50
373.34	2004.96
373.55	2162.66
373.77	2131.94
373.98	2138.08
374.20	2123.74
374.41	2256.86
374.62	2099.17
374.84	2162.66
375.05	2146.27
375.27	2222.05
375.48	2230.24
375.70	2211.81
375.91	2265.05
376.12	2301.92
376.34	2199.52
376.55	2232.29
376.77	2215.90
376.98	2109.41
377.19	2160.61
377.41	2191.33
377.62	2205.66
377.84	2232.29
378.05	2318.30
378.27	2287.58
378.48	2285.53
378.69	2287.58
378.91	2322.40
379.12	2203.61
379.34	2252.77
379.55	2312.16
379.76	2273.25
379.98	2250.72
380.19	2252.77
380.41	2312.16
380.62	2285.53
380.83	2224.09
381.05	2248.67
381.26	2504.67
381.47	2297.82
381.69	2283.49
381.90	2406.36
382.12	2285.53
382.33	2318.30
382.54	2336.73
382.76	2269.15
382.97	2283.49
383.19	2275.29
383.40	2396.12
383.61	2293.72
383.83	2269.15
384.04	2277.34
384.25	2349.02
384.47	2435.03
384.68	2306.01
384.89	2418.65
385.11	2416.60
385.32	2420.70
385.54	2394.08
385.75	2303.96
385.96	2375.64
386.18	2412.51
386.39	2387.93
386.60	2322.40
386.82	2346.97
387.03	2412.51
387.24	2539.48
387.46	2344.92
387.67	2441.18
387.88	2525.15
388.10	2478.04
388.31	2488.28
388.52	2502.62
388.74	2420.70
388.95	2541.53
389.16	2541.53
389.38	2510.81
389.59	2623.45
389.80	2654.17
390.02	2525.15
390.23	2664.41
390.44	2508.76
390.66	2498.52
390.87	2654.17
391.08	2562.01
391.30	2652.12
391.51	2674.65
391.72	2656.22
391.94	2715.61
392.15	2699.22
392.36	2715.61
392.58	2664.41
392.79	2641.88
393.00	2731.99
393.22	2682.84
393.43	2781.14
393.64	2834.39
393.85	2799.57
394.07	2635.74
394.28	2789.33
394.49	2660.31
394.71	2775.00
394.92	2920.40
395.13	2744.28
395.35	2764.76
395.56	2797.53
395.77	2691.03
395.98	2772.95
396.20	2772.95
396.41	2760.66
396.62	2854.87
396.84	2793.43
397.05	2815.96
397.26	2850.77
397.47	2869.20
397.69	2779.09
397.90	3041.23
398.11	2889.68
398.32	2793.43
398.54	2861.01
398.75	2834.39
398.96	3012.56
399.18	3045.33
399.39	2981.84
399.60	3026.90
399.81	2983.89
400.03	2875.35
400.24	3160.02
400.45	2918.36
400.66	3010.51
400.88	3086.29
401.09	3211.22
401.30	3082.19
401.51	3151.82
401.73	3168.21
401.94	3129.30
402.15	3149.78
402.36	3135.44
402.58	3162.06
402.79	3262.41
403.00	3207.12
403.21	3141.58
403.43	3260.37
403.64	3309.52
403.85	3162.06
404.06	3209.17
404.27	3194.83
404.49	3223.50
404.70	3223.50
404.91	3389.39
405.12	3258.32
405.34	3286.99
405.55	3375.05
405.76	3139.54
405.97	3264.46
406.19	3456.97
406.40	3286.99
406.61	3379.15
406.82	3395.53
407.03	3276.75
407.25	3354.57
407.46	3348.43
407.67	3409.87
407.88	3461.07
408.09	3379.15
408.31	3278.80
408.52	3446.73
408.73	3389.39
408.94	3436.49
409.15	3483.59
409.37	3467.21
409.58	3608.52
409.79	3526.60
410.00	3545.03
410.21	3442.64
410.43	3512.27
410.64	3436.49
410.85	3504.07
411.06	3481.55
411.27	3567.56
411.48	3672.01
411.70	3645.38
411.91	3573.71
412.12	3647.43
412.33	3645.38
412.54	3600.33
412.76	3758.02
412.97	3749.83
413.18	3653.58
413.39	3649.48
413.60	3678.15
413.81	3712.97
414.03	3616.71
414.24	3717.06
414.45	3813.32
414.66	3608.52
414.87	3825.61
415.08	3629.00
415.30	3766.21
415.51	3655.62
415.72	3721.16
415.93	3760.07
416.14	3751.88
416.35	3784.65
416.56	3776.45
416.78	3905.48
416.99	3846.09
417.20	3776.45
417.41	3854.28
417.62	3993.54
417.83	3868.61
418.04	3858.37
418.26	3872.71
418.47	3870.66
418.68	3993.54
418.89	3985.35
419.10	4204.48
419.31	3917.76
419.52	3936.20
419.73	4057.03
419.95	4028.35
420.16	3983.30
420.37	3874.76
420.58	3989.44
420.79	3841.99
421.00	4067.27
421.21	4190.14
421.42	4089.79
421.63	4220.86
421.85	4212.67
422.06	4155.33
422.27	4157.38
422.48	4282.30
422.69	4360.13
422.90	4353.98
423.11	4243.39
423.32	4341.69
423.53	4376.51
423.75	4282.30
423.96	4491.20
424.17	4335.55
424.38	4554.68
424.59	4562.87
424.80	4599.74
425.01	4470.72
425.22	4538.30
425.43	4472.76
425.64	4636.60
425.85	4583.35
426.06	4546.49
426.28	4450.24
426.49	4401.08
426.70	4532.15
426.91	4577.21
427.12	4601.79
427.33	4540.35
427.54	4534.20
427.75	4736.95
427.96	4802.49
428.17	4808.63
428.38	4820.92
428.59	4837.30
428.80	4773.82
429.01	4921.27
429.23	4790.20
429.44	4941.75
429.65	4939.70
429.86	4796.34
430.07	4929.46
430.28	4964.28
430.49	5050.29
430.70	5054.39
430.91	5255.09
431.12	5033.91
431.33	5246.90
431.54	5226.42
431.75	5228.46
431.96	5242.80
432.17	5019.57
432.38	5230.51
432.59	5289.90
432.80	5326.77
433.01	5429.17
433.22	5255.09
433.43	5375.92
433.64	5494.70
433.85	5183.41
434.06	5586.86
434.27	5367.73
434.49	5545.90
434.70	5672.87
434.91	5547.95
435.12	5500.84
435.33	5443.50
435.54	5593.00
435.75	5427.12
435.96	5453.74
436.17	5328.81
436.38	5740.46
436.59	5795.75
436.80	5633.96
437.01	5857.19
437.22	5801.90
437.43	5795.75
437.64	5611.43
437.85	5703.59
438.06	5746.60
438.27	5687.21
438.48	5810.09
438.69	5834.66
438.90	5722.02
439.11	5709.74
439.32	5961.64
439.53	5728.17
439.74	5988.26
439.95	5932.97
440.16	5898.15
440.37	6006.69
440.57	5767.08
440.78	6000.55
440.99	5855.14
441.20	5992.36
441.41	5920.68
441.62	6061.99
441.83	5920.68
442.04	6162.34
442.25	6025.12
442.46	5910.44
442.67	6186.91
442.88	6389.66
443.09	6088.61
443.30	6139.81
443.51	6172.58
443.72	6414.24
443.93	6250.40
444.14	6434.72
444.35	6219.68
444.56	6422.43
444.77	6297.50
444.98	6426.53
445.19	6301.60
445.40	6313.89
445.61	6305.70
445.81	6604.70
446.02	6479.77
446.23	6483.87
446.44	6324.13
446.65	6655.90
446.86	6600.60
447.07	6549.40
447.28	6862.74
447.49	6692.76
447.70	6621.08
447.91	6670.23
448.12	6707.10
448.33	6764.44
448.54	6743.96
448.74	6717.34
448.95	6731.67
449.16	6549.40
449.37	7053.20
449.58	6780.82
449.79	7008.15
450.00	6746.01
450.21	7159.70
450.42	7151.51
450.63	7032.72
450.84	6932.37
451.05	7141.27
451.25	6899.61
451.46	7024.53
451.67	7081.88
451.88	7221.14
452.09	7188.37
452.30	7202.71
452.51	7227.28
452.72	7358.35
452.93	7458.70
453.13	7264.15
453.34	7399.31
453.55	7260.05
453.76	7432.08
453.97	7694.22
454.18	7536.52
454.39	7622.54
454.60	7344.02
454.81	7514.00
455.01	7704.46
455.22	7430.03
455.43	7694.22
455.64	7765.90
455.85	8066.95
456.06	8038.28
456.27	7817.10
456.48	7915.40
456.68	7819.14
456.89	7860.10
457.10	8015.75
457.31	7946.12
457.52	8042.37
457.73	8212.35
457.94	8224.64
458.14	8185.73
458.35	8486.78
458.56	8329.09
458.77	8349.57
458.98	8447.87
459.19	8398.72
459.39	8675.20
459.60	8781.69
459.81	8517.50
460.02	8587.13
460.23	8472.45
460.44	8839.03
460.65	8728.44
460.85	8867.70
461.06	8816.51
461.27	8636.28
461.48	8918.90
461.69	9068.41
461.89	8644.48
462.10	9138.04
462.31	8836.99
462.52	8994.68
462.73	8996.73
462.94	9355.12
463.14	9199.48
463.35	9187.19
463.56	9551.73
463.77	9371.50
463.98	9242.48
464.18	9488.24
464.39	9652.08
464.60	9758.57
464.81	9656.17
465.02	9590.64
465.23	10049.38
465.43	9754.48
465.64	9949.03
465.85	9668.46
466.06	9731.95
466.27	10274.66
466.47	10096.49
466.68	10053.48
466.89	10071.91
467.10	10055.53
467.30	10121.06
467.51	10366.82
467.72	10491.74
467.93	10221.41
468.14	10616.67
468.34	10663.77
468.55	10657.63
468.76	10676.06
468.97	10465.12
469.17	10723.16
469.38	10776.41
469.59	10819.42
469.80	10714.97
470.01	10766.17
470.21	10909.53
470.42	11218.77
470.63	11321.17
470.84	11163.48
471.04	11194.20
471.25	11300.69
471.46	11210.58
471.67	11751.24
471.87	11607.89
472.08	11603.79
472.29	11824.97
472.50	11392.85
472.70	11564.88
472.91	11720.53
473.12	11753.29
473.33	11941.71
473.53	12166.98
473.74	12025.67
473.95	12267.33
474.16	12351.30
474.36	12320.58
474.57	12619.58
474.78	12828.48
474.99	12459.84
475.19	12394.31
475.40	12844.86
475.61	12889.92
475.81	13070.14
476.02	12934.97
476.23	12943.16
476.44	13315.89
476.64	13352.76
476.85	13432.63
477.06	13305.65
477.27	13868.84
477.47	13684.53
477.68	13913.90
477.89	13758.25
478.09	13901.61
478.30	14016.30
478.51	14077.74
478.71	14208.81
478.92	14239.53
479.13	14423.84
479.34	14544.67
479.54	14540.58
479.75	14632.74
479.96	14458.66
480.16	14731.04
480.37	14728.99
480.58	15019.80
480.78	15208.22
480.99	15329.05
481.20	15335.19
481.41	15324.95
481.61	15251.22
481.82	15669.01
482.03	15585.04
482.23	15613.71
482.44	15902.48
482.65	15746.83
482.85	15990.54
483.06	16082.70
483.27	16482.05
483.47	16094.99
483.68	16310.02
483.89	16492.29
484.09	16492.29
484.30	16797.44
484.51	16539.40
484.71	17059.58
484.92	16869.12
485.13	17094.40
485.33	17190.65
485.54	16951.04
485.75	17374.97
485.95	17633.01
486.16	17483.51
486.37	17772.27
486.57	17647.35
486.78	17686.26
486.98	17798.90
487.19	18081.52
487.40	17985.26
487.60	18196.20
487.81	18347.75
488.02	18069.23
488.22	18401.00
488.43	18759.39
488.64	18640.61
488.84	18902.75
489.05	19160.80
489.25	18657.00
489.46	19228.38
489.67	19142.36
489.87	19386.07
490.08	19269.34
490.29	19400.41
490.49	19822.29
490.70	19805.91
490.90	19779.28
491.11	19918.54
491.32	19975.89
491.52	20027.09
491.73	19803.86
491.94	20117.20
492.14	20135.63
492.35	20367.05
492.55	20401.86
492.76	20657.86
492.97	20872.90
493.17	20561.61
493.38	20909.76
493.58	21104.32
493.79	21116.61
494.00	20780.74
494.20	21120.70
494.41	21188.28
494.61	21448.38
494.82	21413.56
495.02	21317.31
495.23	21616.31
495.44	21769.91
495.64	21857.97
495.85	21954.22
496.05	22294.19
496.26	21778.10
496.47	22390.44
496.67	22056.62
496.88	22419.11
497.08	22081.20
497.29	22634.15
497.49	22292.14
497.70	22732.45
497.91	22816.42
498.11	22931.11
498.32	22953.63
498.52	22812.32
498.73	23238.30
498.93	23322.27
499.14	22947.49
499.34	23076.51
499.55	23500.44
499.76	23295.64
499.96	23436.95
500.17	23488.15
500.37	23307.93
500.58	23588.50
500.78	23529.11
500.99	23656.09
501.19	23795.35
501.40	23824.02
501.60	23545.50
501.81	23649.94
502.02	23996.05
502.22	23776.92
502.43	24061.58
502.63	24426.12
502.84	24462.99
503.04	24209.04
503.25	24221.33
503.45	24469.13
503.66	24579.72
503.86	24637.06
504.07	24579.72
504.27	24510.09
504.48	25042.56
504.68	24737.41
504.89	24911.49
505.09	24723.08
505.30	25161.34
505.50	24860.29
505.71	24825.48
505.91	25069.19
506.12	25257.60
506.32	25093.76
506.53	25190.02
506.73	25206.40
506.94	25583.23
507.14	25292.41
507.35	25448.06
507.55	25667.19
507.76	25691.77
507.96	25558.65
508.17	25564.79
508.37	25716.34
508.58	25822.84
508.78	26111.60
508.99	26150.51
509.19	26244.72
509.40	26154.61
509.60	26185.33
509.81	26250.86
510.01	25814.65
510.22	26353.26
510.42	26242.67
510.63	26420.84
510.83	26308.21
511.04	26257.01
511.24	26424.94
511.44	26416.75
511.65	26670.70
511.85	26607.21
512.06	26502.76
512.26	26760.81
512.47	26777.19
512.67	26646.12
512.88	26863.21
513.08	26539.63
513.29	27223.65
513.49	26932.84
513.69	27022.95
513.90	26996.32
514.10	27324.00
514.31	27213.41
514.51	27326.05
514.72	27346.53
514.92	27379.29
515.13	27360.86
515.33	27616.86
515.53	27680.35
515.74	27569.76
515.94	27657.82
516.15	27905.62
516.35	27473.50
516.56	27991.64
516.76	27661.91
516.96	28126.80
517.17	28147.28
517.37	27737.69
517.58	28048.98
517.78	28509.77
517.99	28284.50
518.19	28390.99
518.39	28579.40
518.60	28919.37
518.80	28528.20
519.01	28450.38
519.21	28905.03
519.41	28868.17
519.62	28665.42
519.82	29075.01
520.03	29001.29
520.23	29298.24
520.43	28882.50
520.64	29478.46
520.84	29486.65
521.05	29384.26
521.25	29759.03
521.45	29511.23
521.66	30004.79
521.86	29787.71
522.07	29742.65
522.27	29847.10
522.47	30072.37
522.68	30240.31
522.88	30228.02
523.08	30547.50
523.29	30303.79
523.49	30479.92
523.70	30770.73
523.90	30783.02
524.10	30938.66
524.31	30823.98
524.51	30516.78
524.71	31196.71
524.92	31143.46
525.12	31585.82
525.33	31309.35
525.53	31295.01
525.73	31856.15
525.94	31397.41
526.14	31493.66
526.34	31641.12
526.55	31966.74
526.75	31768.09
526.95	32151.06
527.16	32388.63
527.36	32347.67
527.56	32751.12
527.77	32456.21
527.97	32579.09
528.17	32413.20
528.38	32605.71
528.58	32861.71
528.78	32828.94
528.99	33082.89
529.19	32988.68
529.39	32757.26
529.60	33449.47
529.80	33269.25
530.00	33123.85
530.21	33711.61
530.41	33416.71
530.61	33404.42
530.82	33887.74
531.02	33699.33
531.22	33918.46
531.43	33715.71
531.63	34457.07
531.83	34414.07
532.04	34622.96
532.24	34024.95
532.44	34835.95
532.64	34362.87
532.85	34563.57
533.05	34538.99
533.25	34627.06
533.46	34844.14
533.66	35280.36
533.86	34835.95
534.07	35546.59
534.27	35268.07
534.47	35481.06
534.67	35415.52
534.88	35689.95
535.08	35886.56
535.28	35706.34
535.49	36077.02
535.69	35894.75
535.89	36077.02
536.09	36316.63
536.30	36271.57
536.50	36013.53
536.70	36685.26
536.91	36373.97
537.11	36656.59
537.31	36746.70
537.51	36396.50
537.72	36701.65
537.92	36957.64
538.12	37330.37
538.32	36775.37
538.53	37420.48
538.73	36789.71
538.93	36806.09
539.13	37275.08
539.34	37477.83
539.54	37617.09
539.74	37656.00
539.94	37696.96
540.15	37623.23
540.35	37791.17
540.55	37756.35
540.75	37930.43
540.96	37828.03
541.16	38051.26
541.36	38202.81
541.56	37780.93
541.77	38127.03
541.97	38122.94
542.17	38208.95
542.37	38258.10
542.58	38346.17
542.78	38356.41
542.98	38368.69
543.18	38372.79
543.38	38993.32
543.59	38753.71
543.79	38358.45
543.99	38788.53
544.19	39087.53
544.40	38788.53
544.60	39048.62
544.80	39034.28
545.00	38759.86
545.20	39208.36
545.41	38989.23
545.61	39198.12
545.81	39284.14
546.01	39620.00
546.21	39331.24
546.42	39030.19
546.62	39460.26
546.82	39302.57
547.02	39241.13
547.22	39683.49
547.43	39415.21
547.63	39474.60
547.83	39919.01
548.03	39527.84
548.23	39656.87
548.44	39777.70
548.64	39552.42
548.84	39939.49
549.04	40144.28
549.24	40463.77
549.45	40635.80
549.65	40381.85
549.85	39736.74
550.05	40332.70
550.25	39900.58
550.45	40471.96
550.66	40265.11
550.86	39994.78
551.06	40560.02
551.26	40605.08
551.46	40328.60
551.66	40725.91
551.87	40695.19
552.07	40551.83
552.27	40824.21
552.47	40973.71
552.67	41026.96
552.87	40844.69
553.07	40787.35
553.28	41461.13
553.48	41393.54
553.68	40904.08
553.88	41637.25
554.08	41313.67
554.28	40721.81
554.48	41227.66
554.69	41407.88
554.89	41409.93
555.09	41239.95
555.29	41246.09
555.49	41418.12
555.69	41649.54
555.89	41758.08
556.10	41586.05
556.30	41285.00
556.50	42014.08
556.70	41614.72
556.90	41891.20
557.10	42001.79
557.30	41756.03
557.50	41844.10
557.70	41909.63
557.91	42382.71
558.11	42093.95
558.31	42501.50
558.51	42210.68
558.71	42362.23
558.91	42685.81
559.11	41985.41
559.31	42913.14
559.51	42351.99
559.72	42583.41
559.92	42636.66
560.12	42812.79
560.32	42847.60
560.52	42833.27
560.72	42947.95
560.92	43267.44
561.12	43048.30
561.32	43375.98
561.52	42943.86
561.72	43343.21
561.93	42472.82
562.13	43136.37
562.33	42681.72
562.53	43873.63
562.73	43611.49
562.93	43154.80
563.13	43427.18
563.33	43609.45
563.53	44031.33
563.73	43558.25
563.93	43822.44
564.13	43928.93
564.33	43533.67
564.53	43847.01
564.74	44299.61
564.94	43988.32
565.14	44506.46
565.34	43580.78
565.54	44266.84
565.74	44227.93
565.94	44488.03
566.14	44227.93
566.34	44322.14
566.54	44731.73
566.74	43812.20
566.94	44514.65
567.14	44574.04
567.34	44528.98
567.54	44629.34
567.74	44809.56
567.94	44881.24
568.14	45012.31
568.34	44782.93
568.54	44983.63
568.74	45137.23
568.94	45000.02
569.14	45032.78
569.34	45024.59
569.54	45268.30
569.75	45079.89
569.95	45235.53
570.15	45737.29
570.35	45598.02
570.55	44909.91
570.75	45393.23
570.95	45788.49
571.15	45710.66
571.35	45831.49
571.55	45745.48
571.75	45544.78
571.95	46103.87
572.15	45829.44
572.35	46001.47
572.55	45901.12
572.75	45868.36
572.95	45933.89
573.15	46224.70
573.35	46527.80
573.55	45948.23
573.75	46007.62
573.95	46535.99
574.15	46234.94
574.35	46665.02
574.55	46667.06
574.75	46228.80
574.95	46638.39
575.15	46255.42
575.34	46710.07
575.54	46710.07
575.74	46718.26
575.94	46765.37
576.14	47121.71
576.34	47138.10
576.54	46908.72
576.74	46673.21
576.94	46753.08
577.14	47035.70
577.34	47629.61
577.54	46585.15
577.74	47582.51
577.94	47326.51
578.14	47107.38
578.34	47635.75
578.54	47183.15
578.74	47437.10
578.94	47656.23
579.14	47549.74
579.34	47453.48
579.54	47865.13
579.74	47828.26
579.94	47951.14
580.13	48182.56
580.33	47666.47
580.53	47990.05
580.73	48182.56
580.93	48033.06
581.13	47633.71
581.33	48340.25
581.53	48018.72
581.73	48248.10
581.93	48135.46
582.13	48256.29
582.33	48391.45
582.53	48475.42
582.73	48567.58
582.92	48330.01
583.12	48407.84
583.32	48213.28
583.52	48117.03
583.72	48620.83
583.92	48432.41
584.12	48487.71
584.32	48905.49
584.52	48432.41
584.72	48485.66
584.92	49169.68
585.11	49341.71
585.31	48672.03
585.51	49028.37
585.71	49059.09
585.91	49200.40
586.11	48551.20
586.31	49192.21
586.51	48907.54
586.71	48592.15
586.91	49306.90
587.10	49321.23
587.30	48995.60
587.50	48823.58
587.70	49310.99
587.90	49347.86
588.10	49104.15
588.30	49034.52
588.50	49497.36
588.69	49480.97
588.89	49374.48
589.09	49593.61
589.29	49597.71
589.49	49929.48
589.69	49132.82
589.89	49884.42
590.08	49511.69
590.28	49382.67
590.48	49589.52
590.68	49173.78
590.88	49759.50
591.08	49659.15
591.28	49302.80
591.47	49816.84
591.67	49292.56
591.87	49497.36
592.07	49849.61
592.27	49911.05
592.47	49528.08
592.67	49706.25
592.86	49829.13
593.06	50431.23
593.26	49825.03
593.46	49607.95
593.66	49859.85
593.86	50222.34
594.05	50124.04
594.25	50449.66
594.45	49851.66
594.65	49882.37
594.85	50111.75
595.05	50128.13
595.24	50087.17
595.44	50214.15
595.64	50218.24
595.84	49960.20
596.04	50251.01
596.23	50478.33
596.43	50564.35
596.63	50695.42
596.83	50443.52
597.03	51186.93
597.22	50455.81
597.42	50697.47
597.62	50588.92
597.82	50504.96
598.02	50877.69
598.21	50464.00
598.41	50816.25
598.61	51010.81
598.81	50615.55
599.01	50937.08
599.20	50771.19
599.40	50986.23
599.60	51186.93
599.80	50652.41
600.00	51455.21
600.19	51426.54
600.39	51358.96
600.59	51213.55
600.79	51274.99
600.98	51410.16
601.18	51887.34
601.38	51682.54
601.58	51981.54
601.78	52012.26
601.97	51592.43
602.17	51727.59
602.37	51893.48
602.57	52360.42
602.76	52018.41
602.96	51922.15
603.16	52223.20
603.36	52014.31
603.55	52239.59
603.75	52393.18
603.95	52376.80
604.15	52417.76
604.34	52221.16
604.54	52561.12
604.74	52569.31
604.94	52421.86
605.13	52806.87
605.33	52626.65
605.53	52802.78
605.73	52995.29
605.92	52335.84
606.12	52958.42
606.32	52745.44
606.52	52905.18
606.71	53382.35
606.91	52946.14
607.11	53103.83
607.30	53202.13
607.50	53101.78
607.70	53441.74
607.90	53474.51
608.09	52868.31
608.29	53234.90
608.49	53494.99
608.68	53476.56
608.88	53955.78
609.08	53849.29
609.28	53691.60
609.47	53482.70
609.67	54056.14
609.87	53810.38
610.06	54133.96
610.26	54037.70
610.46	54154.44
610.66	53894.35
610.85	54379.71
611.05	53959.88
611.25	54293.70
611.44	54017.22
611.64	54144.20
611.84	53933.26
612.03	54047.94
612.23	54125.77
612.43	54545.60
612.62	54351.04
612.82	54510.78
613.02	54944.95
613.21	54514.88
613.41	54533.31
613.61	54844.60
613.80	54224.07
614.00	54645.95
614.20	54965.43
614.39	55084.22
614.59	55004.34
614.79	54981.82
614.98	54750.40
615.18	55270.58
615.38	55002.30
615.57	54854.84
615.77	54949.05
615.97	55149.75
616.16	55100.60
616.36	55129.27
616.56	55239.86
616.75	54922.43
616.95	55129.27
617.15	55336.12
617.34	55030.97
617.54	55153.85
617.74	55852.20
617.93	55729.33
618.13	55248.05
618.32	55372.98
618.52	54979.77
618.72	55348.40
618.91	55667.89
619.11	55358.64
619.31	55209.14
619.50	55104.70
619.70	55516.34
619.90	55409.84
620.09	55594.16
620.29	55723.18
620.48	55469.23
620.68	55798.96
620.88	55104.70
621.07	55448.75
621.27	55555.25
621.46	55307.44
621.66	55753.90
621.86	55917.74
622.05	55714.99
622.25	56048.81
622.44	55311.54
622.64	55289.01
622.84	55833.77
623.03	55628.98
623.23	54973.63
623.42	55248.05
623.62	55676.08
623.82	55903.40
624.01	55721.13
624.21	55911.59
624.40	56020.14
624.60	55590.06
624.80	55448.75
624.99	55876.78
625.19	55508.14
625.38	56138.92
625.58	55651.50
625.77	55815.34
625.97	55895.21
626.17	55809.20
626.36	55915.69
626.56	56603.81
626.75	55209.14
626.95	56054.95
627.14	55571.63
627.34	55891.12
627.54	55819.44
627.73	55626.93
627.93	55887.02
628.12	55733.42
628.32	56048.81
628.51	55882.92
628.71	55850.16
628.90	55444.66
629.10	55794.86
629.30	55794.86
629.49	55669.93
629.69	56120.49
629.88	55268.53
630.08	56222.89
630.27	55964.84
630.47	55950.51
630.66	55778.48
630.86	56384.68
631.05	56067.24
631.25	56345.76
631.44	55758.00
631.64	55827.63
631.84	55723.18
632.03	56501.41
632.23	55948.46
632.42	56122.54
632.62	55940.27
632.81	55731.37
633.01	56030.38
633.20	55962.79
633.40	55821.48
633.59	55991.47
633.79	55628.98
633.98	55893.16
634.18	56118.44
634.37	55817.39
634.57	55993.51
634.76	56085.67
634.96	55893.16
635.15	56235.17
635.35	55694.51
635.54	55964.84
635.74	56216.74
635.93	55749.81
636.13	56097.96
636.32	56157.35
636.52	55770.28
636.71	55905.45
636.91	55778.48
637.10	55510.19
637.30	55641.26
637.49	55598.26
637.69	55532.72
637.88	56407.20
638.08	55522.48
638.27	56054.95
638.46	56229.03
638.66	55895.21
638.85	56003.75
639.05	55866.54
639.24	56149.16
639.44	55647.41
639.63	55934.12
639.83	55792.81
640.02	55776.43
640.22	55649.45
640.41	55817.39
640.61	55116.98
640.80	55846.06
640.99	55610.54
641.19	56128.68
641.38	55526.58
641.58	55751.85
641.77	55465.14
641.97	55524.53
642.16	55385.27
642.36	56087.72
642.55	56315.04
642.74	55588.02
642.94	55651.50
643.13	55639.22
643.33	55667.89
643.52	55850.16
643.72	55803.05
643.91	55526.58
644.10	55946.41
644.30	55817.39
644.49	55751.85
644.69	55860.40
644.88	55854.25
645.08	55383.22
645.27	55602.35
645.46	55291.06
645.66	55825.58
645.85	55440.56
646.05	55579.82
646.24	55942.31
646.43	55598.26
646.63	55727.28
646.82	56042.66
647.02	55825.58
647.21	55846.06
647.40	55592.11
647.60	56126.63
647.79	55897.26
647.99	55860.40
648.18	55407.79
648.37	56206.50
648.57	55588.02
648.76	55956.65
648.96	55614.64
649.15	55827.63
649.34	56022.19
649.54	55667.89
649.73	55418.03
649.92	55545.01
650.12	55422.13
650.31	55727.28
650.51	55608.50
650.70	55962.79
650.89	55702.70
651.09	56013.99
651.28	55956.65
651.47	55981.23
651.67	55958.70
651.86	56202.41
652.06	55706.80
652.25	55706.80
652.44	55719.09
652.64	55657.65
652.83	55403.70
653.02	55508.14
653.22	55319.73
653.41	55631.02
653.60	55309.49
653.80	55725.23
653.99	55944.36
654.18	55471.28
654.38	55145.65
654.57	55631.02
654.76	55717.04
654.96	55411.89
655.15	55002.30
655.34	55360.69
655.54	55139.51
655.73	55835.82
655.92	55731.37
656.12	55358.64
656.31	55946.41
656.50	55493.81
656.70	55295.16
656.89	55723.18
657.08	55671.98
657.28	55456.95
657.47	55420.08
657.66	55766.19
657.86	55379.12
658.05	56157.35
658.24	56229.03
658.43	55504.05
658.63	56224.93
658.82	55866.54
659.01	55858.35
659.21	55557.30
659.40	55817.39
659.59	55678.13
659.79	56315.04
659.98	55846.06
660.17	56499.36
660.36	55923.88
660.56	55882.92
660.75	56112.30
660.94	55854.25
661.14	55948.46
661.33	55733.42
661.52	55915.69
661.71	56460.45
661.91	55704.75
662.10	56083.62
662.29	56321.19
662.49	56231.08
662.68	56167.59
662.87	56255.65
663.06	56272.04
663.26	55571.63
663.45	56243.37
663.64	56349.86
663.83	56911.00
664.03	56278.18
664.22	56655.01
664.41	55989.42
664.60	56419.49
664.80	56095.91
664.99	56220.84
665.18	56046.76
665.37	56497.31
665.57	56603.81
665.76	56286.37
665.95	56200.36
666.14	56153.26
666.34	56118.44
666.53	56366.24
666.72	55987.37
666.91	56540.32
667.11	56292.52
667.30	56904.86
667.49	56304.80
667.68	56478.88
667.87	56245.41
668.07	56755.36
668.26	56325.28
668.45	56523.94
668.64	56038.57
668.84	56917.15
669.03	56759.45
669.22	56655.01
669.41	56661.15
669.60	56489.12
669.80	56566.94
669.99	56687.78
670.18	57103.51
670.37	56552.61
670.57	56759.45
670.76	56788.13
670.95	57001.11
671.14	56827.04
671.33	56485.03
671.53	57164.95
671.72	56661.15
671.91	56595.62
672.10	56405.16
672.29	56499.36
672.48	56732.83
672.68	57296.02
672.87	57064.60
673.06	56929.44
673.25	56695.97
673.44	56982.68
673.64	57054.36
673.83	56734.88
674.02	57121.94
674.21	56679.58
674.40	57312.41
674.59	56775.84
674.79	56773.79
674.98	56808.61
675.17	57314.45
675.36	57324.69
675.55	57418.90
675.74	57134.23
675.94	56902.81
676.13	56884.38
676.32	57525.39
676.51	57478.29
676.70	57308.31
676.89	57226.39
677.08	57439.38
677.28	56843.42
677.47	57525.39
677.66	57423.00
677.85	57117.85
678.04	57414.80
678.23	57730.19
678.42	57554.07
678.62	57599.12
678.81	57734.29
679.00	57017.50
679.19	58057.87
679.38	57285.78
679.57	57527.44
679.76	57537.68
679.96	57676.94
680.15	57271.45
680.34	57144.47
680.53	57570.45
680.72	57541.78
680.91	57906.32
681.10	57531.54
681.29	57480.34
681.48	57502.87
681.68	57078.94
681.87	57154.71
682.06	57648.27
682.25	56974.49
682.44	57484.43
682.63	57121.94
682.82	57087.13
683.01	57490.58
683.20	56794.27
683.39	57126.04
683.59	56990.87
683.78	57095.32
683.97	57205.91
684.16	56962.20
684.35	57062.55
684.54	57404.56
684.73	56837.28
684.92	57158.81
685.11	56947.87
685.30	57068.70
685.49	57271.45
685.69	57070.75
685.88	57066.65
686.07	57115.80
686.26	57027.74
686.45	57162.90
686.64	56816.80
686.83	57103.51
687.02	57293.97
687.21	56951.96
687.40	57035.93
687.59	56771.74
687.78	57005.21
687.97	57316.50
688.16	56970.39
688.35	57025.69
688.54	56763.55
688.74	56988.83
688.93	56943.77
689.12	56956.06
689.31	56882.33
689.50	56919.20
689.69	56716.45
689.88	56546.47
690.07	57007.26
690.26	56661.15
690.45	56972.44
690.64	56568.99
690.83	56798.37
691.02	56525.99
691.21	56374.44
691.40	56493.22
691.59	56779.93
691.78	56493.22
691.97	56994.97
692.16	56876.19
692.35	56913.05
692.54	56757.41
692.73	57019.55
692.92	56583.33
693.11	56669.34
693.30	56523.94
693.49	56472.74
693.68	56360.10
693.87	56769.69
694.06	55823.53
694.25	56073.38
694.44	56087.72
694.63	56140.97
694.82	56050.86
695.01	56245.41
695.20	55536.82
695.39	56063.14
695.58	56005.80
695.77	55530.67
695.96	55309.49
696.15	55721.13
696.34	55506.10
696.53	55610.54
696.72	55858.35
696.91	55633.07
697.10	55645.36
697.29	55567.54
697.48	55377.08
697.67	55164.09
697.86	55399.60
698.05	55303.35
698.24	55428.27
698.43	55174.33
698.62	55440.56
698.81	55198.90
699.00	55526.58
699.19	55039.16
699.38	55377.08
699.57	54848.70
699.76	55073.98
699.95	54887.61
700.14	54535.36
700.32	54793.40
700.51	54680.77
700.70	55119.03
700.89	55194.81
701.08	54725.82
701.27	54561.98
701.46	55338.16
701.65	54228.16
701.84	54801.60
702.03	54877.37
702.22	54543.55
702.41	54326.47
702.60	54162.63
702.79	54422.72
702.98	53912.78
703.17	54115.53
703.35	54179.01
703.54	53982.41
703.73	54090.95
703.92	54379.71
704.11	54545.60
704.30	54328.52
704.49	54080.71
704.68	53726.41
704.87	53791.95
705.06	53392.59
705.25	53449.94
705.43	53796.04
705.62	53849.29
705.81	53384.40
706.00	53208.28
706.19	52757.72
706.38	53228.76
706.57	53591.25
706.76	53310.67
706.95	53691.60
707.14	53204.18
707.32	53179.60
707.51	53052.63
707.70	53026.01
707.89	53089.49
708.08	52438.24
708.27	53159.12
708.46	53609.68
708.65	53105.88
708.84	53066.97
709.02	53081.30
709.21	53089.49
709.40	52806.87
709.59	52643.04
709.78	52655.32
709.97	52692.19
710.16	52444.38
710.34	52251.87
710.53	52454.62
710.72	51999.97
710.91	52382.94
711.10	52485.34
711.29	52618.46
711.48	52221.16
711.66	52565.21
711.85	51991.78
712.04	52358.37
712.23	52108.52
712.42	52139.24
712.61	51313.90
712.80	51989.73
712.98	51868.90
713.17	51389.68
713.36	51901.67
713.55	51660.01
713.74	52139.24
713.93	51762.41
714.11	51670.25
714.30	51100.92
714.49	51434.74
714.68	51670.25
714.87	51645.68
715.06	51739.88
715.24	51264.75
715.43	51014.90
715.62	50877.69
715.81	50973.94
716.00	51512.56
716.18	50629.88
716.37	50398.46
716.56	50599.16
716.75	51080.44
716.94	50713.85
717.12	50566.40
717.31	50902.26
717.50	50625.79
717.69	50377.98
717.88	50273.54
718.06	50517.25
718.25	50967.80
718.44	49935.62
718.63	50171.14
718.82	50035.97
719.00	50296.06
719.19	50011.40
719.38	50435.33
719.57	49640.71
719.76	49610.00
719.94	49720.59
720.13	49620.23
720.32	49937.67
720.51	49859.85
720.69	49870.09
720.88	49503.50
721.07	49634.57
721.26	48973.08
721.44	49075.48
721.63	49009.94
721.82	48870.68
722.01	48626.97
722.20	49046.80
722.38	48928.02
722.57	48368.93
722.76	48954.64
722.95	49157.39
723.13	48870.68
723.32	48811.29
723.51	48674.07
723.70	48395.55
723.88	48604.44
724.07	48391.45
724.26	48772.38
724.44	48076.07
724.63	48440.60
724.82	48125.22
725.01	48117.03
725.19	47994.15
725.38	47793.45
725.57	48002.34
725.76	48086.31
725.94	47299.89
726.13	48084.26
726.32	48092.45
726.51	47809.83
726.69	48065.83
726.88	48256.29
727.07	47844.65
727.25	47889.70
727.44	48194.85
727.63	47801.64
727.82	47775.02
728.00	47852.84
728.19	48151.84
728.38	47881.51
728.56	47273.26
728.75	48137.51
728.94	48252.19
729.12	47871.27
729.31	48041.25
729.50	48166.18
729.69	47922.47
729.87	47568.17
730.06	47740.20
730.25	47785.25
730.43	48104.74
730.62	47719.72
730.81	47830.31
730.99	47957.28
731.18	47478.06
731.37	47525.16
731.55	47781.16
731.74	48145.70
731.93	48174.37
732.11	47633.71
732.30	48213.28
732.49	47559.98
732.67	47856.93
732.86	47861.03
733.05	48016.68
733.23	47486.25
733.42	47521.07
733.61	47691.05
733.79	47449.39
733.98	48022.82
734.17	47594.79
734.35	47480.11
734.54	47654.18
734.73	47969.57
734.91	47715.62
735.10	47562.03
735.29	47858.98
735.47	47228.21
735.66	47363.37
735.84	47658.28
736.03	47473.96
736.22	47830.31
736.40	47424.81
736.59	47183.15
736.78	47117.62
736.96	47494.44
737.15	47523.11
737.33	47422.76
737.52	47674.66
737.71	47539.50
737.89	47340.85
738.08	47273.26
738.27	47492.40
738.45	47711.53
738.64	47346.99
738.82	47392.04
739.01	47553.83
739.20	47007.03
739.38	47203.63
739.57	47641.90
739.75	47136.05
739.94	47113.52
740.13	47562.03
740.31	47174.96
740.50	47271.21
740.68	47453.48
740.87	47170.86
741.06	47093.04
741.24	47123.76
741.43	46865.72
741.61	47066.42
741.80	47113.52
741.99	46816.57
742.17	46910.77
742.36	47453.48
742.54	46835.00
742.73	46884.15
742.91	47357.23
743.10	46945.59
743.29	47299.89
743.47	47076.66
743.66	47211.82
743.84	47527.21
744.03	46714.17
744.21	46587.19
744.40	47306.03
744.59	47076.66
744.77	46888.24
744.96	46787.89
745.14	47011.12
745.33	47187.25
745.51	46998.83
745.70	46791.99
745.88	46579.00
746.07	46718.26
746.26	46728.50
746.44	46216.51
746.63	46626.10
746.81	46679.35
747.00	46693.69
747.18	46787.89
747.37	46642.49
747.55	46466.36
747.74	47371.57
747.92	46816.57
748.11	46710.07
748.29	46744.89
748.48	46896.44
748.66	46560.57
748.85	46527.80
749.03	46837.05
749.22	47025.46
749.41	46544.19
749.59	46701.88
749.78	46767.41
749.96	45989.19
750.15	46699.83
750.33	46697.78
750.52	46591.29
750.70	46871.86
750.89	46802.23
751.07	46150.98
751.26	46368.06
751.44	46275.90
751.63	46359.87
751.81	46200.13
752.00	45995.33
752.18	46357.82
752.37	46073.15
752.55	45856.07
752.74	46036.29
752.92	45880.64
753.10	45954.37
753.29	46282.05
753.47	46067.01
753.66	45831.49
753.84	46200.13
754.03	46218.56
754.21	45841.73
754.40	46081.34
754.58	45874.50
754.77	46259.52
754.95	45862.21
755.14	45978.95
755.32	45851.97
755.51	45462.86
755.69	45729.09
755.88	45804.87
756.06	45890.88
756.24	45606.22
756.43	45561.16
756.61	45634.89
756.80	45858.12
756.98	45290.83
757.17	45503.82
757.35	45794.63
757.54	45466.95
757.72	45759.81
757.90	45544.78
758.09	45315.40
758.27	45536.59
758.46	44817.75
758.64	45163.85
758.83	45512.01
759.01	45464.91
759.19	45110.61
759.38	45202.77
759.56	45380.94
759.75	45063.50
759.93	45446.47
760.12	45149.52
760.30	45458.76
760.48	44850.52
760.67	45151.57
760.85	44946.77
761.04	45190.48
761.22	45202.77
761.40	45122.90
761.59	45194.57
761.77	44770.64
761.96	44899.67
762.14	44672.34
762.32	44287.32
762.51	44234.08
762.69	44698.97
762.88	44506.46
763.06	44930.39
763.24	44713.30
763.43	45337.93
763.61	44463.45
763.80	44488.03
763.98	44389.72
764.16	44496.22
764.35	43844.96
764.53	43859.30
764.72	43894.11
764.90	44125.53
765.08	44213.60
765.27	43867.49
765.45	44160.35
765.63	43470.18
765.82	43875.68
766.00	43595.11
766.18	43826.53
766.37	43951.46
766.55	43335.02
766.74	43328.87
766.92	43222.38
767.10	43705.70
767.29	43621.73
767.47	43089.26
767.65	43623.78
767.84	43197.80
768.02	43531.62
768.20	43017.58
768.39	43386.22
768.57	43234.67
768.75	42898.80
768.94	43337.07
769.12	42988.91
769.30	42876.27
769.49	43251.05
769.67	42997.10
769.85	42653.05
770.04	43013.49
770.22	42571.13
770.40	42517.88
770.59	42311.03
770.77	42399.10
770.95	42780.02
771.14	42567.03
771.32	41876.86
771.50	42018.17
771.69	42259.84
771.87	42315.13
772.05	42349.95
772.24	41934.21
772.42	42089.85
772.60	41833.86
772.78	41801.09
772.97	41977.22
773.15	41934.21
773.33	42091.90
773.52	42079.61
773.70	41811.33
773.88	41710.98
774.07	41563.53
774.25	41807.23
774.43	42104.19
774.61	41778.56
774.80	42057.09
774.98	41436.55
775.16	42118.53
775.34	42038.65
775.53	41825.67
775.71	42050.94
775.89	41823.62
776.08	41989.50
776.26	41872.77
776.44	41756.03
776.62	41485.70
776.81	41422.22
776.99	42096.00
777.17	41700.74
777.35	41989.50
777.54	42024.32
777.72	42024.32
777.90	41868.67
778.08	41958.78
778.27	42014.08
778.45	41956.74
778.63	42177.92
778.81	41561.48
779.00	42290.55
779.18	41739.65
779.36	42620.28
779.54	41936.26
779.73	41932.16
779.91	42249.60
780.09	42077.57
780.27	42431.86
780.46	42317.18
780.64	42227.07
780.82	42071.42
781.00	41743.75
781.19	42085.76
781.37	42040.70
781.55	42370.43
781.73	42427.77
781.91	42331.51
782.10	42294.65
782.28	42358.14
782.46	42685.81
782.64	42382.71
782.82	41684.36
783.01	42313.08
783.19	42286.46
783.37	42311.03
783.55	42259.84
783.74	42751.35
783.92	42024.32
784.10	42802.55
784.28	41930.11
784.46	41786.75
784.64	41799.04
784.83	42141.05
785.01	42327.42
785.19	42319.23
785.37	42159.48
785.55	41999.74
785.74	41735.56
785.92	41899.39
786.10	41991.55
786.28	41883.01
786.46	41534.85
786.64	41344.39
786.83	41704.84
787.01	41506.18
787.19	41694.60
787.37	41741.70
787.55	41409.93
787.74	41321.87
787.92	41172.36
788.10	41430.41
788.28	41100.68
788.46	41547.14
788.64	40588.69
788.82	41870.72
789.01	41135.50
789.19	41164.17
789.37	40914.32
789.55	41076.11
789.73	40582.55
789.91	40351.13
790.09	40787.35
790.28	40349.08
790.46	40334.74
790.64	40764.82
790.82	40306.07
791.00	40373.66
791.18	39789.98
791.36	40363.42
791.55	40043.93
791.73	40050.08
791.91	39376.30
792.09	40076.70
792.27	39683.49
792.45	40027.55
792.63	39800.22
792.81	39441.83
793.00	39583.14
793.18	39656.87
793.36	39249.32
793.54	39214.51
793.72	39183.79
793.90	39050.67
794.08	38788.53
794.26	39065.00
794.44	38688.18
794.62	38661.55
794.81	38350.26
794.99	38288.82
795.17	38485.43
795.35	38337.98
795.53	38454.71
795.71	38225.34
795.89	37754.30
796.07	37918.14
796.25	37721.54
796.43	37756.35
796.61	37672.39
796.80	37170.63
796.98	37879.23
797.16	37123.53
797.34	37369.29
797.52	37367.24
797.70	37526.98
797.88	37107.15
798.06	36867.53
798.24	36836.81
798.42	36689.36
798.60	36787.66
798.78	36666.83
798.96	36789.71
799.14	36318.68
799.32	36675.02
799.51	36091.35
799.69	36345.30
799.87	36564.43
800.05	35966.43
800.23	36369.88
800.41	36040.15
800.59	35884.51
800.77	35452.39
800.95	35163.62
801.13	35487.20
801.31	35227.11
801.49	35786.21
801.67	35440.10
801.85	35407.33
802.03	34999.79
802.21	35040.75
802.39	34741.74
802.57	34885.10
802.75	34936.30
802.93	34594.29
803.11	34731.50
803.29	34518.51
803.47	34596.34
803.65	34465.27
803.83	34280.95
804.01	34389.49
804.19	34199.03
804.37	34207.22
804.55	34203.13
804.73	34043.38
804.91	33983.99
805.09	34117.11
805.27	33775.10
805.45	33904.12
805.63	33498.62
805.81	33570.30
805.99	33437.19
806.17	33584.64
806.35	33162.76
806.53	33203.72
806.71	33414.66
806.89	33162.76
807.07	33117.70
807.25	33015.30
807.43	32591.37
807.61	33183.24
807.79	32890.38
807.97	32753.16
808.15	32626.19
808.33	32675.34
808.51	32720.40
808.69	32636.43
808.87	32488.98
809.05	32550.42
809.23	32308.76
809.41	32073.24
809.59	32108.05
809.77	32171.54
809.95	31907.35
810.13	32026.14
810.31	31839.77
810.49	31958.55
810.67	31946.26
810.84	31983.13
811.02	31608.35
811.20	31534.62
811.38	31493.66
811.56	31436.32
811.74	31630.88
811.92	31086.12
812.10	31450.66
812.28	31542.81
812.46	31311.39
812.64	31110.69
812.82	31387.17
813.00	31319.59
813.18	31247.91
813.36	31348.26
813.53	30697.00
813.71	31047.21
813.89	31065.64
814.07	31118.89
814.25	30656.04
814.43	30567.98
814.61	30484.01
814.79	30326.32
814.97	30576.17
815.15	30232.11
815.33	30418.48
815.50	30258.74
815.68	30316.08
815.86	30496.30
816.04	30062.13
816.22	30146.10
816.40	29904.44
816.58	30164.53
816.76	29828.66
816.94	30371.38
817.11	29779.51
817.29	29906.49
817.47	29955.64
817.65	29810.23
817.83	29861.43
818.01	29562.43
818.19	29572.67
818.37	29496.89
818.54	29242.95
818.72	28982.85
818.90	29470.27
819.08	29408.83
819.26	29638.20
819.44	29359.68
819.62	29466.17
819.80	29498.94
819.97	29570.62
820.15	29075.01
820.33	29046.34
820.51	28915.27
820.69	28984.90
820.87	29267.52
821.05	29161.03
821.22	28911.17
821.40	29124.16
821.58	28886.60
821.76	29189.70
821.94	28468.81
822.12	28567.12
822.29	28616.27
822.47	28499.53
822.65	28421.71
822.83	28501.58
823.01	28540.49
823.19	28448.33
823.36	28434.00
823.54	28458.57
823.72	28354.13
823.90	28251.73
824.08	27889.24
824.25	28071.51
824.43	28014.16
824.61	27944.53
824.79	28141.14
824.97	28032.60
825.15	28255.82
825.32	28145.23
825.50	27825.75
825.68	27819.61
825.86	27946.58
826.04	27858.52
826.21	28161.62
826.39	27500.12
826.57	27960.92
826.75	27340.38
826.93	27588.19
827.10	27414.11
827.28	27653.72
827.46	27735.64
827.64	27623.00
827.81	27698.78
827.99	27647.58
828.17	27475.55
828.35	27530.84
828.53	27346.53
828.70	27504.22
828.88	27219.55
829.06	27516.51
829.24	27580.00
829.41	27053.67
829.59	27461.21
829.77	27043.43
829.95	27012.71
830.12	27162.21
830.30	27211.36
830.48	27432.54
830.66	26938.98
830.84	27092.58
831.01	26961.51
831.19	27047.52
831.37	26750.57
831.55	26750.57
831.72	26756.71
831.90	26863.21
832.08	26846.82
832.25	26816.10
832.43	26646.12
832.61	26429.04
832.79	26402.41
832.96	26517.10
833.14	26637.93
833.32	26875.49
833.50	26699.37
833.67	27039.33
833.85	26179.18
834.03	26302.06
834.20	26707.56
834.38	26508.91
834.56	26642.03
834.74	26117.75
834.91	26529.39
835.09	26105.46
835.27	26039.92
835.44	26177.14
835.62	25898.61
835.80	25992.82
835.98	26103.41
836.15	26197.62
836.33	25996.92
836.51	25984.63
836.68	25966.20
836.86	26103.41
837.04	25865.85
837.21	25978.48
837.39	25996.92
837.57	25859.70
837.75	26017.40
837.92	25517.69
838.10	25583.23
838.28	25697.91
838.45	25523.83
838.63	25630.33
838.81	25765.49
838.98	25378.43
839.16	25626.23
839.34	25400.96
839.51	25570.94
839.69	25296.51
839.87	25380.48
840.04	25339.52
840.22	25955.96
840.40	25081.47
840.57	25357.95
840.75	25198.21
840.93	24944.26
841.10	25218.69
841.28	25378.43
841.46	25190.02
841.63	25558.65
841.81	25083.52
841.98	25374.33
842.16	25388.67
842.34	25292.41
842.51	24968.84
842.69	25364.09
842.87	25347.71
843.04	25376.38
843.22	25269.89
843.40	25038.47
843.57	25022.08
843.75	25271.93
843.92	25132.67
844.10	24682.12
844.28	24850.05
844.45	24940.16
844.63	24923.78
844.81	24860.29
844.98	24843.91
845.16	24641.16
845.33	24692.36
845.51	24669.83
845.69	24489.61
845.86	24592.01
846.04	24655.50
846.21	24727.17
846.39	24620.68
846.57	24376.97
846.74	24671.88
846.92	24641.16
847.09	24116.88
847.27	24231.57
847.45	24454.79
847.62	24342.16
847.80	24411.79
847.97	24307.34
848.15	24262.29
848.32	24037.01
848.50	24319.63
848.68	24000.15
848.85	23889.56
849.03	23928.47
849.20	24153.74
849.38	24147.60
849.56	24020.63
849.73	24061.58
849.91	23770.77
850.08	24206.99
850.26	23901.84
850.43	23994.00
850.61	23957.14
850.78	23819.92
850.96	24172.18
851.14	23742.10
851.31	24149.65
851.49	23713.43
851.66	23838.36
851.84	23647.90
852.01	23809.68
852.19	23651.99
852.36	23617.18
852.54	23740.05
852.71	23748.25
852.89	23338.65
853.07	23465.63
853.24	23387.80
853.42	23373.47
853.59	23563.93
853.77	23314.08
853.94	23549.59
854.12	23725.72
854.29	22927.01
854.47	23377.56
854.64	23197.34
854.82	23320.22
854.99	23197.34
855.17	23223.97
855.34	23064.22
855.52	23072.42
855.69	23094.94
855.87	23080.61
856.04	22922.91
856.22	23180.96
856.39	22898.34
856.57	23088.80
856.74	22949.54
856.92	22787.75
857.09	22765.22
857.27	22820.52
857.44	23238.30
857.62	22869.67
857.79	22761.12
857.97	22668.97
858.14	22474.41
858.32	22978.21
858.49	22126.25
858.67	22535.85
858.84	22417.07
859.02	22466.22
859.19	22412.97
859.37	22398.63
859.54	22525.61
859.72	22539.94
859.89	22296.24
860.06	22550.18
860.24	22570.66
860.41	22523.56
860.59	22089.39
860.76	22361.77
860.94	22134.45
861.11	22109.87
861.29	21997.23
861.46	22019.76
861.64	21878.45
861.81	22140.59
861.98	22279.85
862.16	21745.33
862.33	21700.28
862.51	21634.74
862.68	21966.51
862.86	21833.39
863.03	21622.45
863.21	21614.26
863.38	21864.11
863.55	21659.32
863.73	21520.06
863.90	21767.86
864.08	21857.97
864.25	21540.54
864.43	21364.41
864.60	21636.79
864.77	21483.19
864.95	21571.25
865.12	21089.98
865.30	21481.14
865.47	21436.09
865.64	21534.39
865.82	21366.46
865.99	21444.28
866.17	21341.88
866.34	21284.54
866.51	21018.30
866.69	21206.72
866.86	21180.09
867.04	20944.58
867.21	20766.40
867.38	20934.34
867.56	20987.58
867.73	20768.45
867.91	20926.14
868.08	21057.21
868.25	20790.98
868.43	20629.19
868.60	20618.95
868.78	20565.70
868.95	21051.07
869.12	20721.35
869.30	20448.97
869.47	20725.44
869.64	20465.35
869.82	20557.51
869.99	20514.50
870.16	20401.86
870.34	20281.03
870.51	20541.13
870.69	20209.36
870.86	20356.81
871.03	20283.08
871.21	19977.94
871.38	20387.53
871.55	19914.45
871.73	19914.45
871.90	19930.83
872.07	19939.02
872.25	19893.97
872.42	19975.89
872.59	19789.52
872.77	19619.54
872.94	19525.33
873.11	19758.80
873.29	19769.04
873.46	19465.94
873.63	19685.08
873.81	19728.08
873.98	19300.06
874.15	19285.72
874.33	19404.50
874.50	19154.65
874.67	19422.94
874.85	19347.16
875.02	19250.91
875.19	19093.21
875.37	19312.35
875.54	18939.62
875.71	18978.53
875.88	18986.72
876.06	18912.99
876.23	19164.89
876.40	18687.71
876.58	18861.79
876.75	18908.90
876.92	18810.59
877.10	18822.88
877.27	18759.39
877.44	18607.84
877.61	18507.49
877.79	18544.36
877.96	18398.95
878.13	18603.75
878.31	18501.35
878.48	18255.59
878.65	18202.35
878.82	18276.07
879.00	18206.44
879.17	18134.76
879.34	18069.23
879.51	18087.66
879.69	17811.18
879.86	17905.39
880.03	17966.83
880.21	17913.58
880.38	18085.61
880.55	18190.06
880.72	17790.70
880.90	17831.66
881.07	17719.03
881.24	17704.69
881.41	17719.03
881.59	17841.90
881.76	17729.27
881.93	17587.96
882.10	17370.87
882.28	17456.89
882.45	17559.28
882.62	17532.66
882.79	17745.65
882.96	17354.49
883.14	17583.86
883.31	17551.09
883.48	17307.38
883.65	17125.11
883.83	17659.63
884.00	17469.17
884.17	17428.21
884.34	17125.11
884.51	17258.23
884.69	17207.03
884.86	17166.07
885.03	17393.40
885.20	17010.43
885.38	17313.53
885.55	17065.72
885.72	17139.45
885.89	16969.47
886.06	16983.80
886.24	17055.48
886.41	16924.41
886.58	17118.97
886.75	16953.09
886.92	17037.05
887.10	16705.28
887.27	16611.07
887.44	16584.45
887.61	16881.41
887.78	17012.48
887.95	16647.94
888.13	16322.31
888.30	16443.14
888.47	16703.23
888.64	16670.47
888.81	16326.41
888.99	16451.33
889.16	16162.57
889.33	16301.83
889.50	16373.51
889.67	16312.07
889.84	15933.20
890.01	16586.50
890.19	16314.12
890.36	16097.03
890.53	16244.49
890.70	16174.86
890.87	16131.85
891.04	16148.23
891.22	15986.44
891.39	15976.20
891.56	15937.29
891.73	15714.06
891.90	15810.32
892.07	15859.47
892.24	15779.60
892.42	15812.37
892.59	15701.78
892.76	15736.59
892.93	15879.95
893.10	15703.82
893.27	15795.98
893.44	15703.82
893.61	15712.02
893.79	15654.67
893.96	15492.88
894.13	15709.97
894.30	15654.67
894.47	15441.68
894.64	15666.96
894.81	15433.49
894.98	15353.62
895.15	15650.58
895.33	15503.12
895.50	15318.81
895.67	15642.39
895.84	15484.69
896.01	15417.11
896.18	15429.40
896.35	15576.85
896.52	15324.95
896.69	15396.63
896.86	15283.99
897.04	15410.96
897.21	15451.92
897.38	15290.13
897.55	15243.03
897.72	15539.99
897.89	15453.97
898.06	15380.25
898.23	15339.29
898.40	15271.70
898.57	15197.98
898.74	15230.74
898.91	15171.35
899.08	15464.21
899.26	15263.51
899.43	15372.05
899.60	15253.27
899.77	15294.23
899.94	15394.58
900.11	14886.68
900.28	14999.32
900.45	15052.57
900.62	15025.95
900.79	15253.27
900.96	15286.04
901.13	15210.26
901.30	15130.39
901.47	15142.68
901.64	15269.66
901.81	14911.26
901.98	14892.83
902.15	15177.50
902.32	14978.84
902.49	15165.21
902.66	14984.99
902.83	15118.11
903.01	14937.88
903.18	14958.36
903.35	14898.97
903.52	14984.99
903.69	14913.31
903.86	15171.35
904.03	15171.35
904.20	15331.09
904.37	14882.59
904.54	15066.91
904.71	15271.70
904.88	14982.94
905.05	14982.94
905.22	15011.61
905.39	14810.91
905.56	15083.29
905.73	14915.36
905.90	14968.60
906.07	14866.21
906.24	14939.93
906.41	14941.98
906.58	14577.44
906.75	15116.06
906.92	14851.87
907.09	14835.49
907.26	15007.52
907.43	14792.48
907.60	14997.28
907.77	14991.13
907.93	15103.77
908.10	15060.76
908.27	14599.97
908.44	14831.39
908.61	14741.28
908.78	14647.07
908.95	14907.16
909.12	14716.70
909.29	14804.77
909.46	14636.83
909.63	14651.17
909.80	14956.32
909.97	14673.70
910.14	14501.67
910.31	14800.67
910.48	14673.70
910.65	14745.38
910.82	14544.67
910.99	14548.77
911.16	14659.36
911.33	14802.72
911.50	14460.71
911.66	14464.80
911.83	14509.86
912.00	14620.45
912.17	14423.84
912.34	14569.25
912.51	14438.18
912.68	14143.27
912.85	14362.40
913.02	14405.41
913.19	14276.39
913.36	14245.67
913.53	14577.44
913.70	14362.40
913.86	14315.30
914.03	14372.64
914.20	14239.53
914.37	14200.62
914.54	14210.86
914.71	14092.07
914.88	14016.30
915.05	14163.75
915.22	13950.76
915.39	14061.35
915.55	13944.62
915.72	13901.61
915.89	13874.99
916.06	13745.97
916.23	13946.67
916.40	13690.67
916.57	13709.10
916.74	13825.84
916.91	13608.75
917.07	13504.31
917.24	13403.96
917.41	13610.80
917.58	13477.68
917.75	13293.37
917.92	13479.73
918.09	13264.69
918.26	13555.51
918.42	13502.26
918.59	13485.87
918.76	13145.91
918.93	13111.10
919.10	13188.92
919.27	13240.12
919.44	13418.29
919.60	13078.33
919.77	13074.23
919.94	13008.70
920.11	12973.88
920.28	13059.90
920.45	13213.49
920.61	12867.39
920.78	12799.80
920.95	12898.11
921.12	12650.30
921.29	12500.80
921.46	12859.20
921.62	12707.65
921.79	12635.97
921.96	12590.91
922.13	12480.32
922.30	12453.70
922.47	12441.41
922.63	12394.31
922.80	12388.16
922.97	12388.16
923.14	12035.91
923.31	12265.28
923.47	12001.10
923.64	12447.55
923.81	12074.82
923.98	12035.91
924.15	12001.10
924.32	12031.82
924.48	11845.45
924.65	12113.74
924.82	11857.74
924.99	11669.33
925.15	11728.72
925.32	11630.41
925.49	11675.47
925.66	11614.03
925.83	11476.82
925.99	11603.79
926.16	11595.60
926.33	11450.19
926.50	11333.46
926.67	11573.07
926.83	11407.19
927.00	11290.45
927.17	11147.09
927.34	11259.73
927.50	11288.40
927.67	11380.56
927.84	11206.48
928.01	11044.70
928.17	11042.65
928.34	10995.54
928.51	10911.58
928.68	10856.28
928.84	10895.19
929.01	10731.36
929.18	10846.04
929.35	10714.97
929.51	10764.12
929.68	10575.71
929.85	10510.18
930.02	10592.09
930.18	10514.27
930.35	10284.90
930.52	10577.76
930.69	10166.12
930.85	10282.85
931.02	10211.17
931.19	10002.28
931.36	10245.99
931.52	10164.07
931.69	10180.45
931.86	9955.18
932.02	10004.33
932.19	9897.83
932.36	10088.29
932.53	10014.57
932.69	9893.74
932.86	9666.41
933.03	9893.74
933.19	9658.22
933.36	9713.52
933.53	9549.68
933.70	9670.51
933.86	9549.68
934.03	9551.73
934.20	9396.08
934.36	9389.94
934.53	9312.11
934.70	9234.29
934.86	9326.45
935.03	9176.95
935.20	9088.89
935.36	9207.67
935.53	8947.58
935.70	8714.11
935.86	8984.44
936.03	8589.18
936.20	8517.50
936.36	8509.31
936.53	8402.82
936.70	8490.88
936.86	8564.61
937.03	8454.02
937.20	8155.01
937.36	8292.23
937.53	8052.61
937.70	8040.33
937.86	7794.57
938.03	7657.36
938.20	7909.26
938.36	7741.32
938.53	7782.28
938.70	7360.40
938.86	7419.79
939.03	7370.64
939.20	7194.51
939.36	7413.65
939.53	7229.33
939.70	7331.73
939.86	6885.27
940.03	6807.45
940.19	6819.74
940.36	6885.27
940.53	6791.06
940.69	6619.04
940.86	6588.32
941.03	6545.31
941.19	6360.99
941.36	6408.09
941.52	6389.66
941.69	6320.03
941.86	6244.26
942.02	6180.77
942.19	6176.67
942.35	6166.43
942.52	5885.86
942.69	6066.08
942.85	5885.86
943.02	5894.05
943.18	5785.51
943.35	5963.68
943.52	5785.51
943.68	5840.81
943.85	5779.37
944.01	5717.93
944.18	5545.90
944.35	5687.21
944.51	5560.24
944.68	5412.78
944.84	5523.37
945.01	5513.13
945.17	5631.91
945.34	5466.03
945.51	5439.40
945.67	5386.16
945.84	5418.93
946.00	5476.27
946.17	5310.38
946.33	5345.20
946.50	5384.11
946.67	5361.58
946.83	5441.45
947.00	5423.02
947.16	5218.22
947.33	5382.06
947.49	5222.32
947.66	5191.60
947.82	5361.58
947.99	5230.51
948.16	5343.15
948.32	5250.99
948.49	5343.15
948.65	5392.30
948.82	5259.18
948.98	5345.20
949.15	5271.47
949.31	5220.27
949.48	5275.57
949.64	5201.84
949.81	5195.70
949.97	5279.66
950.14	5343.15
950.30	5199.79
950.47	5451.69
950.63	5248.94
950.80	5472.17
950.96	5328.81
951.13	5384.11
951.30	5283.76
951.46	5341.10
951.63	5392.30
951.79	5410.73
951.96	5402.54
952.12	5388.21
952.29	5437.36
952.45	5398.45
952.62	5447.60
952.78	5506.99
952.94	5375.92
953.11	5429.17
953.27	5437.36
953.44	5627.82
953.60	5394.35
953.77	5521.32
953.93	5623.72
954.10	5533.61
954.26	5537.71
954.43	5447.60
954.59	5666.73
954.76	5619.63
954.92	5541.80
955.09	5554.09
955.25	5521.32
955.42	5498.80
955.58	5599.15
955.75	5590.95
955.91	5500.84
956.07	5654.44
956.24	5676.97
956.40	5648.30
956.57	5539.76
956.73	5513.13
956.90	5476.27
957.06	5380.01
957.23	5611.43
957.39	5560.24
957.56	5539.76
957.72	5433.26
957.88	5582.76
958.05	5580.71
958.21	5640.11
958.38	5543.85
958.54	5410.73
958.71	5685.16
958.87	5629.87
959.03	5681.07
959.20	5554.09
959.36	5564.33
959.53	5580.71
959.69	5418.93
959.85	5697.45
960.02	5447.60
960.18	5627.82
960.35	5552.04
960.51	5627.82
960.68	5674.92
960.84	5584.81
961.00	5437.36
961.17	5523.37
961.33	5691.31
961.50	5642.15
961.66	5511.08
961.82	5552.04
961.99	5517.23
962.15	5490.60
962.31	5556.14
962.48	5588.91
962.64	5488.56
962.81	5459.88
962.97	5474.22
963.13	5560.24
963.30	5535.66
963.46	5416.88
963.62	5543.85
963.79	5318.57
963.95	5443.50
964.12	5330.86
964.28	5519.28
964.44	5318.57
964.61	5529.52
964.77	5484.46
964.93	5521.32
965.10	5500.84
965.26	5255.09
965.42	5371.82
965.59	5457.84
965.75	5316.53
965.92	5650.35
966.08	5502.89
966.24	5476.27
966.41	5334.96
966.57	5373.87
966.73	5326.77
966.90	5509.04
967.06	5314.48
967.22	5263.28
967.39	5322.67
967.55	5267.38
967.71	5377.97
967.88	5375.92
968.04	5332.91
968.20	5365.68
968.37	5173.17
968.53	5214.13
968.69	5154.74
968.85	5314.48
969.02	5296.05
969.18	5281.71
969.34	5197.74
969.51	5339.05
969.67	5273.52
969.83	5140.40
970.00	5390.25
970.16	5207.98
970.32	5197.74
970.48	5416.88
970.65	5097.39
970.81	5175.22
970.97	5367.73
971.14	5038.00
971.30	5302.19
971.46	5046.20
971.63	5226.42
971.79	5072.82
971.95	5105.59
972.11	4929.46
972.28	5140.40
972.44	5238.70
972.60	5029.81
972.76	5107.63
972.93	5015.48
973.09	5060.53
973.25	5081.01
973.42	5150.64
973.58	5038.00
973.74	4964.28
973.90	5023.67
974.07	4960.18
974.23	5027.76
974.39	4995.00
974.55	4908.98
974.72	4925.36
974.88	4943.80
975.04	5038.00
975.20	4999.09
975.37	4943.80
975.53	4777.91
975.69	4997.04
975.85	4898.74
976.01	4790.20
976.18	4747.19
976.34	4976.56
976.50	4878.26
976.66	4886.45
976.83	4908.98
976.99	4743.10
977.15	4810.68
977.31	4747.19
977.47	4839.35
977.64	4802.49
977.80	4800.44
977.96	4745.14
978.12	4759.48
978.29	4677.56
978.45	4659.13
978.61	4640.70
978.77	4673.46
978.93	4624.31
979.10	4644.79
979.26	4593.59
979.42	4683.70
979.58	4491.20
979.74	4667.32
979.91	4579.26
980.07	4423.61
980.23	4640.70
980.39	4663.22
980.55	4534.20
980.71	4583.35
980.88	4505.53
981.04	4638.65
981.20	4489.15
981.36	4427.71
981.52	4593.59
981.68	4497.34
981.85	4513.72
982.01	4517.82
982.17	4493.24
982.33	4433.85
982.49	4523.96
982.65	4343.74
982.82	4478.91
982.98	4411.32
983.14	4284.35
983.30	4440.00
983.46	4390.84
983.62	4497.34
983.79	4423.61
983.95	4343.74
984.11	4224.96
984.27	4292.54
984.43	4376.51
984.59	4175.81
984.75	4376.51
984.91	4196.29
985.08	4353.98
985.24	4237.25
985.40	4214.72
985.56	4278.21
985.72	4337.60
985.88	4292.54
986.04	4100.03
986.20	4040.64
986.37	4181.95
986.53	4161.47
986.69	4216.77
986.85	4181.95
987.01	4116.42
987.17	4145.09
987.33	4026.31
987.49	4085.70
987.65	4276.16
987.82	4196.29
987.98	4032.45
988.14	4042.69
988.30	4165.57
988.46	4001.73
988.62	3985.35
988.78	4206.53
988.94	3971.01
989.10	4003.78
989.26	3846.09
989.42	3887.04
989.59	3899.33
989.75	3866.56
989.91	4026.31
990.07	3909.57
990.23	3841.99
990.39	3876.80
990.55	3854.28
990.71	3827.65
990.87	3815.37
991.03	3940.29
991.19	3876.80
991.35	3831.75
991.51	3874.76
991.67	3856.33
991.83	3760.07
992.00	3844.04
992.16	3960.77
992.32	3770.31
992.48	3778.50
992.64	3612.62
992.80	3798.98
992.96	3725.26
993.12	3676.10
993.28	3753.93
993.44	3694.54
993.60	3600.33
993.76	3805.13
993.92	3688.39
994.08	3772.36
994.24	3780.55
994.40	3694.54
994.56	3747.78
994.72	3598.28
994.88	3553.23
995.04	3567.56
995.20	3559.37
995.36	3583.95
995.52	3557.32
995.68	3637.19
995.84	3540.94
996.00	3708.87
996.16	3469.26
996.32	3518.41
996.48	3547.08
996.64	3506.12
996.80	3456.97
996.96	3497.93
997.12	3497.93
997.28	3456.97
997.44	3360.72
997.60	3477.45
997.76	3323.85
997.92	3526.60
998.08	3542.99
998.24	3409.87
998.40	3485.64
998.56	3553.23
998.72	3252.17
998.88	3395.53
999.04	3330.00
999.20	3409.87
999.36	3309.52
999.52	3465.16
999.68	3311.57
999.84	3360.72
1000.00	3393.48
1000.16	3317.71
1000.32	3215.31
1000.48	3452.88
1000.64	3297.23
1000.80	3291.09
1000.95	3209.17
1001.11	3393.48
1001.27	3174.35
1001.43	3356.62
1001.59	3180.50
1001.75	3194.83
1001.91	3264.46
1002.07	3227.60
1002.23	3155.92
1002.39	3160.02
1002.55	3256.27
1002.71	3071.95
1002.87	3139.54
1003.03	3198.93
1003.19	3133.39
1003.34	3172.30
1003.50	3182.54
1003.66	3100.62
1003.82	3160.02
1003.98	3061.71
1004.14	3114.96
1004.30	3149.78
1004.46	3131.34
1004.62	3008.47
1004.78	3018.71
1004.94	2961.36
1005.09	3094.48
1005.25	3166.16
1005.41	3016.66
1005.57	3018.71
1005.73	2990.03
1005.89	2971.60
1006.05	2975.70
1006.21	2973.65
1006.37	2961.36
1006.52	2920.40
1006.68	2924.50
1006.84	3051.47
1007.00	2910.16
1007.16	3006.42
1007.32	2912.21
1007.48	2967.51
1007.64	3090.38
1007.79	2895.83
1007.95	2834.39
1008.11	2992.08
1008.27	3010.51
1008.43	2893.78
1008.59	2871.25
1008.75	2881.49
1008.91	2920.40
1009.06	2811.86
1009.22	2914.26
1009.38	2861.01
1009.54	2861.01
1009.70	2867.16
1009.86	2877.40
1010.01	2912.21
1010.17	2639.83
1010.33	2734.04
1010.49	2727.89
1010.65	2832.34
1010.81	2695.13
1010.96	2725.85
1011.12	2731.99
1011.28	2727.89
1011.44	2775.00
1011.60	2744.28
1011.76	2699.22
1011.91	2670.55
1012.07	2602.97
1012.23	2641.88
1012.39	2670.55
1012.55	2719.70
1012.71	2627.54
1012.86	2680.79
1013.02	2637.78
1013.18	2699.22
1013.34	2607.06
1013.50	2742.23
1013.65	2746.33
1013.81	2557.91
1013.97	2639.83
1014.13	2721.75
1014.29	2625.50
1014.44	2656.22
1014.60	2588.63
1014.76	2672.60
1014.92	2670.55
1015.07	2611.16
1015.23	2656.22
1015.39	2551.77
1015.55	2459.61
1015.71	2564.06
1015.86	2484.19
1016.02	2535.39
1016.18	2482.14
1016.34	2602.97
1016.49	2539.48
1016.65	2625.50
1016.81	2555.86
1016.97	2611.16
1017.12	2490.33
1017.28	2392.03
1017.44	2396.12
1017.60	2432.99
1017.75	2435.03
1017.91	2490.33
1018.07	2455.51
1018.23	2484.19
1018.38	2453.47
1018.54	2387.93
1018.70	2445.27
1018.86	2389.98
1019.01	2346.97
1019.17	2379.74
1019.33	2549.72
1019.49	2369.50
1019.64	2381.79
1019.80	2443.23
1019.96	2443.23
1020.12	2426.84
1020.27	2314.20
1020.43	2439.13
1020.59	2383.84
1020.74	2422.75
1020.90	2392.03
1021.06	2265.05
1021.22	2420.70
1021.37	2406.36
1021.53	2322.40
1021.69	2357.21
1021.84	2342.88
1022.00	2316.25
1022.16	2254.81
1022.31	2312.16
1022.47	2355.16
1022.63	2371.55
1022.79	2236.38
1022.94	2279.39
1023.10	2320.35
1023.26	2256.86
1023.41	2224.09
1023.57	2314.20
1023.73	2211.81
1023.88	2211.81
1024.04	2267.10
1024.20	2277.34
1024.35	2328.54
1024.51	2285.53
1024.67	2336.73
1024.82	2260.96
1024.98	2109.41
1025.14	2187.23
1025.29	2144.22
1025.45	2240.48
1025.61	2224.09
1025.76	2203.61
1025.92	2228.19
1026.08	2230.24
1026.23	2172.89
1026.39	2181.09
1026.55	2193.37
1026.70	2211.81
1026.86	2129.89
1027.02	2189.28
1027.17	2197.47
1027.33	2191.33
1027.48	2127.84
1027.64	2099.17
1027.80	2146.27
1027.95	2281.44
1028.11	2088.93
1028.27	2129.89
1028.42	2097.12
1028.58	2082.78
1028.73	2078.69
1028.89	2039.78
1029.05	2211.81
1029.20	2158.56
>>>>>End Processed Spectral Data<<<<<
