SpectraSuite Data File
++++++++++++++++++++++++++++++++++++
Date: Fri Jun 02 14:44:35 CEST 2017
User: INFO_000
Dark Spectrum Present: No
Reference Spectrum Present: No
Number of Sampled Component Spectra: 1
Spectrometers: USB4H00879
Integration Time (usec): 80000 (USB4H00879)
Spectra Averaged: 1 (USB4H00879)
Boxcar Smoothing: 0 (USB4H00879)
Correct for Electrical Dark: No (USB4H00879)
Strobe/Lamp Enabled: No (USB4H00879)
Correct for Detector Non-linearity: No (USB4H00879)
Correct for Stray Light: No (USB4H00879)
Number of Pixels in Processed Spectrum: 3648
>>>>>Begin Processed Spectral Data<<<<<
345.13	1310.70
345.34	1310.70
345.56	1310.70
345.78	1308.65
345.99	1204.21
346.21	1654.76
346.42	1718.25
346.64	1667.05
346.86	1789.92
347.07	1634.28
347.29	1773.54
347.50	1554.41
347.72	1568.74
347.94	1742.82
348.15	1628.14
348.37	1660.90
348.59	1740.77
348.80	1642.47
349.02	1789.92
349.23	1830.88
349.45	1861.60
349.67	1849.32
349.88	1791.97
350.10	1957.86
350.31	1861.60
350.53	1779.68
350.75	1935.33
350.96	1796.07
351.18	1871.84
351.39	1875.94
351.61	1816.55
351.82	1808.36
352.04	1923.04
352.26	1865.70
352.47	1884.13
352.69	1894.37
352.90	1781.73
353.12	1826.79
353.34	1845.22
353.55	1966.05
353.77	1880.04
353.98	1824.74
354.20	1951.71
354.41	1929.19
354.63	1865.70
354.85	2070.50
355.06	1968.10
355.28	1748.97
355.49	1976.29
355.71	1789.92
355.92	1830.88
356.14	1884.13
356.35	1894.37
356.57	1841.12
356.79	1937.38
357.00	1804.26
357.22	1943.52
357.43	1806.31
357.65	1984.48
357.86	1865.70
358.08	1888.23
358.29	1890.28
358.51	1986.53
358.72	1968.10
358.94	1859.56
359.16	1892.32
359.37	1935.33
359.59	1968.10
359.80	1951.71
360.02	2007.01
360.23	1957.86
360.45	1966.05
360.66	1912.80
360.88	1900.52
361.09	1898.47
361.31	1937.38
361.52	1957.86
361.74	2125.79
361.95	1964.00
362.17	1949.67
362.38	2072.54
362.60	2019.30
362.81	1927.14
363.03	1984.48
363.24	2000.87
363.46	2082.78
363.67	2035.68
363.89	2068.45
364.10	1994.72
364.32	1974.24
364.53	2015.20
364.75	1933.28
364.96	1959.91
365.18	2031.58
365.39	1976.29
365.61	2002.91
365.82	2142.18
366.04	2023.39
366.25	2025.44
366.47	2019.30
366.68	1972.19
366.90	1929.19
367.11	2064.35
367.33	2095.07
367.54	2037.73
367.76	2041.82
367.97	2160.61
368.19	1998.82
368.40	2058.21
368.62	1953.76
368.83	2007.01
369.05	1994.72
369.26	1996.77
369.48	2007.01
369.69	2025.44
369.91	2084.83
370.12	2047.97
370.33	2131.94
370.55	1957.86
370.76	2082.78
370.98	1994.72
371.19	2037.73
371.41	2017.25
371.62	1968.10
371.84	2072.54
372.05	2125.79
372.27	2078.69
372.48	1990.63
372.69	2052.06
372.91	2170.85
373.12	2197.47
373.34	2072.54
373.55	2117.60
373.77	2125.79
373.98	2095.07
374.20	2238.43
374.41	2387.93
374.62	2041.82
374.84	2142.18
375.05	2195.42
375.27	2125.79
375.48	2160.61
375.70	2191.33
375.91	2144.22
376.12	2230.24
376.34	2162.66
376.55	2222.05
376.77	2306.01
376.98	2068.45
377.19	2115.55
377.41	2142.18
377.62	2224.09
377.84	2142.18
378.05	2338.78
378.27	2183.13
378.48	2359.26
378.69	2334.68
378.91	2371.55
379.12	2248.67
379.34	2252.77
379.55	2324.44
379.76	2301.92
379.98	2189.28
380.19	2260.96
380.41	2301.92
380.62	2205.66
380.83	2230.24
381.05	2176.99
381.26	2441.18
381.47	2168.80
381.69	2187.23
381.90	2299.87
382.12	2314.20
382.33	2291.68
382.54	2220.00
382.76	2324.44
382.97	2314.20
383.19	2297.82
383.40	2394.08
383.61	2361.31
383.83	2289.63
384.04	2263.01
384.25	2398.17
384.47	2361.31
384.68	2377.69
384.89	2338.78
385.11	2334.68
385.32	2295.77
385.54	2365.40
385.75	2301.92
385.96	2326.49
386.18	2424.80
386.39	2441.18
386.60	2322.40
386.82	2437.08
387.03	2404.32
387.24	2406.36
387.46	2500.57
387.67	2473.95
387.88	2635.74
388.10	2490.33
388.31	2486.23
388.52	2482.14
388.74	2539.48
388.95	2613.21
389.16	2494.43
389.38	2519.00
389.59	2539.48
389.80	2576.34
390.02	2541.53
390.23	2639.83
390.44	2494.43
390.66	2564.06
390.87	2533.34
391.08	2566.10
391.30	2615.26
391.51	2600.92
391.72	2680.79
391.94	2744.28
392.15	2609.11
392.36	2551.77
392.58	2658.26
392.79	2678.74
393.00	2738.13
393.22	2729.94
393.43	2715.61
393.64	2672.60
393.85	2723.80
394.07	2635.74
394.28	2566.10
394.49	2826.20
394.71	2652.12
394.92	2840.53
395.13	2707.41
395.35	2703.32
395.56	2637.78
395.77	2809.81
395.98	2852.82
396.20	2953.17
396.41	2871.25
396.62	2822.10
396.84	2744.28
397.05	2936.79
397.26	2858.96
397.47	2822.10
397.69	2711.51
397.90	3039.19
398.11	2912.21
398.32	2879.44
398.54	2871.25
398.75	2875.35
398.96	2944.98
399.18	3125.20
399.39	2951.12
399.60	3041.23
399.81	2942.93
400.03	2920.40
400.24	3207.12
400.45	2971.60
400.66	3155.92
400.88	3037.14
401.09	3205.07
401.30	3053.52
401.51	3155.92
401.73	3108.82
401.94	3188.69
402.15	3178.45
402.36	3108.82
402.58	3176.40
402.79	3141.58
403.00	3205.07
403.21	3219.41
403.43	3256.27
403.64	3319.76
403.85	3155.92
404.06	3205.07
404.27	3074.00
404.49	3231.69
404.70	3168.21
404.91	3274.70
405.12	3223.50
405.34	3117.01
405.55	3411.92
405.76	3207.12
405.97	3172.30
406.19	3309.52
406.40	3334.09
406.61	3362.76
406.82	3334.09
407.03	3286.99
407.25	3286.99
407.46	3401.68
407.67	3442.64
407.88	3409.87
408.09	3352.52
408.31	3354.57
408.52	3456.97
408.73	3311.57
408.94	3420.11
409.15	3461.07
409.37	3530.70
409.58	3510.22
409.79	3510.22
410.00	3571.66
410.21	3485.64
410.43	3481.55
410.64	3569.61
410.85	3555.27
411.06	3557.32
411.27	3655.62
411.48	3618.76
411.70	3626.95
411.91	3606.47
412.12	3762.12
412.33	3538.89
412.54	3534.79
412.76	3737.54
412.97	3692.49
413.18	3583.95
413.39	3629.00
413.60	3729.35
413.81	3633.10
414.03	3727.30
414.24	3680.20
414.45	3911.62
414.66	3581.90
414.87	3794.89
415.08	3776.45
415.30	3776.45
415.51	3727.30
415.72	3725.26
415.93	3829.70
416.14	3813.32
416.35	3874.76
416.56	3704.78
416.78	3803.08
416.99	3942.34
417.20	3809.22
417.41	3903.43
417.62	3837.89
417.83	3813.32
418.04	3944.39
418.26	4009.92
418.47	3841.99
418.68	3901.38
418.89	3993.54
419.10	4011.97
419.31	4079.55
419.52	3985.35
419.73	4120.51
419.95	4100.03
420.16	3940.29
420.37	3987.40
420.58	4054.98
420.79	3868.61
421.00	4014.02
421.21	4267.97
421.42	4153.28
421.63	4179.90
421.85	4198.34
422.06	4218.82
422.27	4198.34
422.48	4132.80
422.69	4331.45
422.90	4407.23
423.11	4143.04
423.32	4310.97
423.53	4442.04
423.75	4313.02
423.96	4630.46
424.17	4505.53
424.38	4501.44
424.59	4364.22
424.80	4564.92
425.01	4575.16
425.22	4462.52
425.43	4440.00
425.64	4810.68
425.85	4601.79
426.06	4560.83
426.28	4491.20
426.49	4577.21
426.70	4550.59
426.91	4691.90
427.12	4777.91
427.33	4589.50
427.54	4605.88
427.75	4829.11
427.96	4767.67
428.17	4794.29
428.38	4945.84
428.59	4681.66
428.80	4765.62
429.01	4779.96
429.23	4841.40
429.44	5078.96
429.65	5001.14
429.86	4927.41
430.07	4908.98
430.28	4892.60
430.49	5068.72
430.70	5136.31
430.91	5148.59
431.12	5044.15
431.33	5081.01
431.54	5263.28
431.75	5103.54
431.96	5101.49
432.17	5111.73
432.38	5111.73
432.59	5447.60
432.80	5330.86
433.01	5300.14
433.22	5314.48
433.43	5322.67
433.64	5314.48
433.85	5304.24
434.06	5357.49
434.27	5382.06
434.49	5396.40
434.70	5547.95
434.91	5476.27
435.12	5576.62
435.33	5527.47
435.54	5576.62
435.75	5388.21
435.96	5447.60
436.17	5400.49
436.38	5625.77
436.59	5578.67
436.80	5558.19
437.01	5748.65
437.22	5785.51
437.43	5691.31
437.64	5687.21
437.85	5695.40
438.06	5785.51
438.27	5722.02
438.48	5621.67
438.69	5912.49
438.90	5752.74
439.11	5627.82
439.32	5867.43
439.53	6041.51
439.74	5861.29
439.95	6023.08
440.16	5894.05
440.37	5832.62
440.57	5767.08
440.78	6098.85
440.99	6016.93
441.20	6027.17
441.41	5971.88
441.62	6139.81
441.83	5881.77
442.04	5990.31
442.25	6080.42
442.46	6231.97
442.67	6281.12
442.88	6616.99
443.09	6084.52
443.30	6182.82
443.51	6193.06
443.72	6481.82
443.93	6150.05
444.14	6522.78
444.35	6231.97
444.56	6365.09
444.77	6387.61
444.98	6424.48
445.19	6412.19
445.40	6393.76
445.61	6406.05
445.81	6559.64
446.02	6643.61
446.23	6399.90
446.44	6459.29
446.65	6565.79
446.86	6596.51
447.07	6537.12
447.28	6731.67
447.49	6821.78
447.70	6590.36
447.91	6639.51
448.12	6549.40
448.33	6723.48
448.54	6809.50
448.74	6782.87
448.95	6832.02
449.16	6817.69
449.37	7073.68
449.58	6807.45
449.79	6963.09
450.00	6852.50
450.21	7026.58
450.42	6959.00
450.63	7157.65
450.84	6987.67
451.05	7165.84
451.25	7188.37
451.46	6977.43
451.67	7262.10
451.88	7348.11
452.09	7333.78
452.30	7163.79
452.51	7208.85
452.72	7303.06
452.93	7626.64
453.13	7239.57
453.34	7182.23
453.55	7393.17
453.76	7389.07
453.97	7661.45
454.18	7511.95
454.39	7772.04
454.60	7595.92
454.81	7722.89
455.01	7692.17
455.22	7282.58
455.43	7757.71
455.64	7759.75
455.85	7958.41
456.06	7993.22
456.27	7731.08
456.48	7901.06
456.68	7751.56
456.89	7858.06
457.10	8054.66
457.31	7905.16
457.52	7946.12
457.73	8085.38
457.94	8167.30
458.14	7991.17
458.35	8523.65
458.56	8449.92
458.77	8243.07
458.98	8374.14
459.19	8329.09
459.39	8509.31
459.60	8542.08
459.81	8331.14
460.02	8486.78
460.23	8540.03
460.44	8636.28
460.65	8763.26
460.85	8691.58
461.06	8769.40
461.27	8740.73
461.48	9049.97
461.69	8988.53
461.89	8703.87
462.10	8951.67
462.31	8900.47
462.52	8712.06
462.73	9031.54
462.94	9211.76
463.14	9121.65
463.35	9160.56
463.56	9670.51
463.77	9478.00
463.98	9320.31
464.18	9418.61
464.39	9512.81
464.60	9539.44
464.81	9690.99
465.02	9662.32
465.23	9746.28
465.43	9568.11
465.64	9906.02
465.85	9807.72
466.06	9602.93
466.27	10262.37
466.47	10010.47
466.68	9973.61
466.89	9926.50
467.10	10301.28
467.30	10129.25
467.51	10319.71
467.72	10524.51
467.93	10063.72
468.14	10458.98
468.34	10637.15
468.55	10542.94
468.76	10588.00
468.97	10422.11
469.17	10815.32
469.38	10762.08
469.59	10973.02
469.80	10872.67
470.01	10811.23
470.21	10878.81
470.42	11222.87
470.63	11325.27
470.84	11083.61
471.04	11550.54
471.25	11378.51
471.46	11323.22
471.67	11677.52
471.87	11595.60
472.08	11732.81
472.29	11837.26
472.50	11659.09
472.70	11706.19
472.91	11673.42
473.12	11925.32
473.33	12185.41
473.53	12363.59
473.74	12226.37
473.95	12304.20
474.16	12451.65
474.36	12357.44
474.57	12699.45
474.78	12705.60
474.99	12613.44
475.19	12433.22
475.40	12812.09
475.61	13178.68
475.81	13096.76
476.02	13285.17
476.23	13174.58
476.44	13246.26
476.64	13477.68
476.85	13682.48
477.06	13647.66
477.27	13825.84
477.47	13928.24
477.68	13864.75
477.89	13995.82
478.09	13946.67
478.30	14176.04
478.51	14171.94
478.71	14307.11
478.92	14444.32
479.13	14372.64
479.34	14565.15
479.54	14690.08
479.75	14929.69
479.96	14892.83
480.16	14915.36
480.37	15089.43
480.58	15071.00
480.78	15265.56
480.99	15251.22
481.20	15507.22
481.41	15365.91
481.61	15611.67
481.82	15945.48
482.03	15642.39
482.23	15716.11
482.44	16066.31
482.65	16279.30
482.85	16117.51
483.06	16238.34
483.27	16256.78
483.47	16496.39
483.68	16068.36
483.89	16348.93
484.09	16772.86
484.30	16523.01
484.51	17063.68
484.71	16940.80
484.92	16893.69
485.13	17297.14
485.33	17383.16
485.54	17282.81
485.75	17561.33
485.95	17792.75
486.16	17600.24
486.37	17827.57
486.57	17469.17
486.78	17682.16
486.98	17919.73
487.19	18169.58
487.40	18302.70
487.60	18083.56
487.81	18382.57
488.02	18519.78
488.22	18188.01
488.43	18652.90
488.64	18321.13
488.84	18603.75
489.05	19007.20
489.25	18826.98
489.46	19056.35
489.67	19060.45
489.87	19150.56
490.08	19277.53
490.29	19119.84
490.49	19484.37
490.70	19801.81
490.90	19685.08
491.11	19699.41
491.32	19945.17
491.52	19656.40
491.73	19910.35
491.94	20059.85
492.14	19984.08
492.35	20260.55
492.55	20303.56
492.76	20698.82
492.97	20739.78
493.17	20741.83
493.38	20588.23
493.58	20872.90
493.79	20670.15
494.00	20944.58
494.20	21069.50
494.41	21085.89
494.61	21108.41
494.82	21216.96
495.02	21399.23
495.23	21176.00
495.44	21462.71
495.64	21665.46
495.85	21386.94
496.05	21778.10
496.26	21487.29
496.47	22034.10
496.67	21943.99
496.88	22189.74
497.08	22189.74
497.29	22113.97
497.49	22181.55
497.70	22294.19
497.91	22347.44
498.11	22216.36
498.32	22494.89
498.52	22738.60
498.73	22851.24
498.93	22859.43
499.14	22904.48
499.34	22783.65
499.55	23332.51
499.76	23359.13
499.96	23162.53
500.17	23191.20
500.37	23262.88
500.58	23338.65
500.78	23793.30
500.99	23455.39
501.19	23803.54
501.40	23674.52
501.60	23563.93
501.81	23832.21
502.02	23738.01
502.22	23840.40
502.43	24039.06
502.63	24235.66
502.84	24442.51
503.04	24338.06
503.25	24024.72
503.45	23910.04
503.66	24577.67
503.86	24641.16
504.07	24786.57
504.27	24608.39
504.48	24802.95
504.68	24805.00
504.89	24843.91
505.09	25060.99
505.30	25259.65
505.50	24759.94
505.71	25298.56
505.91	25169.54
506.12	25333.37
506.32	25235.07
506.53	25433.72
506.73	25470.59
506.94	25650.81
507.14	25380.48
507.35	25638.52
507.55	25837.17
507.76	25474.68
507.96	25742.97
508.17	25763.45
508.37	25689.72
508.58	25978.48
508.78	26058.35
508.99	26594.92
509.19	26226.29
509.40	26461.80
509.60	26173.04
509.81	26134.13
510.01	26261.10
510.22	26388.08
510.42	26494.57
510.63	26639.98
510.83	26367.60
511.04	26592.87
511.24	27080.29
511.44	26637.93
511.65	26785.38
511.85	26938.98
512.06	27176.55
512.26	27125.35
512.47	27383.39
512.67	27047.52
512.88	26842.73
513.08	27190.88
513.29	27203.17
513.49	27444.83
513.69	27442.78
513.90	27678.30
514.10	27393.63
514.31	27760.22
514.51	27715.16
514.72	27639.39
514.92	27666.01
515.13	27795.03
515.33	27879.00
515.53	27715.16
515.74	28020.31
515.94	28014.16
516.15	28264.02
516.35	27897.43
516.56	28286.54
516.76	28114.52
516.96	28280.40
517.17	28337.74
517.37	28733.00
517.58	28366.42
517.78	28421.71
517.99	28425.81
518.19	28743.24
518.39	28886.60
518.60	28919.37
518.80	28964.42
519.01	28714.57
519.21	28880.46
519.41	29138.50
519.62	29064.77
519.82	29419.07
520.03	29400.64
520.23	29163.08
520.43	29044.29
520.64	29476.41
520.84	29726.27
521.05	29662.78
521.25	29861.43
521.45	29623.87
521.66	29972.02
521.86	29918.78
522.07	29892.15
522.27	30189.11
522.47	30072.37
522.68	30207.54
522.88	30223.92
523.08	30584.37
523.29	30570.03
523.49	30680.62
523.70	30844.46
523.90	31065.64
524.10	30658.09
524.31	31086.12
524.51	30875.18
524.71	30967.34
524.92	31086.12
525.12	31223.33
525.33	31245.86
525.53	31333.92
525.73	31561.25
525.94	31301.15
526.14	31256.10
526.34	32265.75
526.55	31903.26
526.75	31573.53
526.95	31917.59
527.16	31626.78
527.36	31784.48
527.56	31946.26
527.77	32349.71
527.97	32228.88
528.17	32128.53
528.38	32374.29
528.58	32134.68
528.78	32609.81
528.99	32585.23
529.19	32908.81
529.39	32802.32
529.60	33068.55
529.80	32996.87
530.00	33003.02
530.21	33707.52
530.41	33623.55
530.61	33293.83
530.82	33437.19
531.02	33734.14
531.22	33572.35
531.43	33910.27
531.63	33920.51
531.83	33971.71
532.04	33865.21
532.24	33947.13
532.44	34254.33
532.64	34358.77
532.85	34485.75
533.05	34563.57
533.25	34584.05
533.46	34450.93
533.66	34641.39
533.86	34514.42
534.07	35241.45
534.27	35005.93
534.47	35554.79
534.67	35341.80
534.88	34993.64
535.08	35309.03
535.28	35263.97
535.49	35298.79
535.69	35528.16
535.89	35534.31
536.09	35984.86
536.30	36341.21
536.50	35759.58
536.70	36132.31
536.91	36070.87
537.11	36115.93
537.31	36222.42
537.51	35921.37
537.72	36597.20
537.92	36711.89
538.12	36849.10
538.32	36414.93
538.53	36963.79
538.73	36359.64
538.93	36812.24
539.13	36943.31
539.34	37060.04
539.54	36730.32
539.74	37301.70
539.94	37047.75
540.15	37191.11
540.35	37813.70
540.55	37365.19
540.75	37803.46
540.96	37289.42
541.16	37469.64
541.36	37766.59
541.56	37721.54
541.77	38149.56
541.97	37930.43
542.17	38004.16
542.37	38100.41
542.58	38499.76
542.78	38256.06
542.98	38352.31
543.18	38452.66
543.38	38561.20
543.59	38647.22
543.79	38407.61
543.99	38585.78
544.19	39183.79
544.40	38413.75
544.60	39384.49
544.80	38858.16
545.00	38821.30
545.20	39153.07
545.41	38860.21
545.61	39239.08
545.81	39325.10
546.01	39450.02
546.21	39333.29
546.42	39648.68
546.62	39724.45
546.82	39404.97
547.02	39562.66
547.22	39583.14
547.43	39456.17
547.63	39749.03
547.83	39548.32
548.03	39843.23
548.23	39843.23
548.44	40072.60
548.64	39849.38
548.84	40097.18
549.04	39826.85
549.24	40488.34
549.45	40426.90
549.65	40414.62
549.85	40596.88
550.05	40605.08
550.25	40793.49
550.45	41182.60
550.66	40912.27
550.86	40807.83
551.06	40912.27
551.26	40496.53
551.46	41280.91
551.66	40811.92
551.87	40930.70
552.07	41069.97
552.27	41246.09
552.47	41033.10
552.67	41653.64
552.87	40975.76
553.07	41414.02
553.28	41547.14
553.48	41325.96
553.68	41403.78
553.88	41721.22
554.08	41827.71
554.28	41745.80
554.48	41377.16
554.69	42319.23
554.89	41885.06
555.09	42063.23
555.29	41772.42
555.49	41706.88
555.69	42005.89
555.89	42644.85
556.10	42499.45
556.30	42018.17
556.50	42474.87
556.70	41794.95
556.90	42689.91
557.10	42739.06
557.30	42284.41
557.50	42698.10
557.70	42730.87
557.91	42681.72
558.11	42802.55
558.31	42442.10
558.51	42741.11
558.71	42974.58
558.91	42882.42
559.11	42786.16
559.31	42841.46
559.51	42726.77
559.72	42718.58
559.92	43040.11
560.12	42786.16
560.32	43359.59
560.52	43099.50
560.72	43480.42
560.92	43119.98
561.12	43173.23
561.32	43832.68
561.52	43222.38
561.72	43416.94
561.93	43312.49
562.13	43627.88
562.33	43197.80
562.53	43769.19
562.73	43339.11
562.93	43808.10
563.13	43459.94
563.33	43418.99
563.53	43969.89
563.73	43363.69
563.93	43967.84
564.13	44326.24
564.33	43947.36
564.53	43517.29
564.74	44203.36
564.94	43787.62
565.14	44094.82
565.34	43953.51
565.54	44084.58
565.74	44541.27
565.94	44260.70
566.14	44617.05
566.34	44176.73
566.54	44563.80
566.74	44178.78
566.94	44528.98
567.14	44262.75
567.34	44307.80
567.54	44707.16
567.74	44920.15
567.94	44778.84
568.14	45167.95
568.34	44793.17
568.54	44422.49
568.74	44768.60
568.94	44770.64
569.14	45329.74
569.34	45032.78
569.54	45147.47
569.75	44594.52
569.95	45088.08
570.15	45395.28
570.35	45454.67
570.55	45532.49
570.75	45221.20
570.95	45245.77
571.15	45315.40
571.35	45462.86
571.55	45600.07
571.75	46040.39
571.95	45743.43
572.15	45333.84
572.35	45774.15
572.55	45337.93
572.75	45761.86
572.95	45827.40
573.15	45899.08
573.35	45692.23
573.55	45665.61
573.75	45884.74
573.95	45993.28
574.15	45708.61
574.35	46159.17
574.55	45901.12
574.75	46126.40
574.95	46171.46
575.15	45985.09
575.34	46255.42
575.54	46361.92
575.74	46781.75
575.94	46544.19
576.14	46431.55
576.34	46556.47
576.54	46658.87
576.74	46650.68
576.94	46191.94
577.14	46533.95
577.34	47097.14
577.54	46671.16
577.74	46658.87
577.94	46619.96
578.14	47260.97
578.34	46736.69
578.54	46785.85
578.74	46517.56
578.94	47187.25
579.14	46839.09
579.34	47013.17
579.54	47424.81
579.74	47392.04
579.94	46871.86
580.13	47461.68
580.33	47166.77
580.53	47695.14
580.73	47766.82
580.93	47539.50
581.13	47469.87
581.33	47732.01
581.53	47777.06
581.73	47852.84
581.93	47967.52
582.13	48168.22
582.33	48000.29
582.53	47840.55
582.73	48532.76
582.92	48332.06
583.12	48141.60
583.32	48020.77
583.52	47449.39
583.72	48166.18
583.92	47762.73
584.12	48012.58
584.32	48192.80
584.52	48071.97
584.72	48344.35
584.92	48471.32
585.11	48964.88
585.31	48803.10
585.51	48753.94
585.71	48289.06
585.91	49218.83
586.11	48784.66
586.31	48618.78
586.51	48506.14
586.71	48747.80
586.91	49122.58
587.10	49098.00
587.30	48907.54
587.50	49071.38
587.70	49030.42
587.90	49521.93
588.10	49014.04
588.30	49429.77
588.50	49577.23
588.69	49556.75
588.89	49161.49
589.09	49554.70
589.29	49417.49
589.49	49566.99
589.69	49476.88
589.89	49777.93
590.08	49528.08
590.28	49489.16
590.48	49507.60
590.68	49333.52
590.88	49818.89
591.08	49798.41
591.28	49433.87
591.47	50167.04
591.67	49728.78
591.87	49741.06
592.07	49986.82
592.27	49937.67
592.47	50101.51
592.67	50042.12
592.86	49835.27
593.06	50150.66
593.26	50523.39
593.46	50218.24
593.66	50248.96
593.86	50556.16
594.05	50488.57
594.25	50648.32
594.45	50371.84
594.65	50320.64
594.85	49878.28
595.05	50439.42
595.24	50695.42
595.44	50586.88
595.64	50558.20
595.84	50468.09
596.04	50951.41
596.23	50959.61
596.43	50947.32
596.63	50894.07
596.83	50834.68
597.03	51217.65
597.22	51215.60
597.42	51406.06
597.62	51410.16
597.82	51090.68
598.02	51246.32
598.21	51698.92
598.41	50984.18
598.61	51213.55
598.81	51246.32
599.01	51651.82
599.20	51404.02
599.40	51082.48
599.60	51686.64
599.80	51471.60
600.00	52018.41
600.19	51739.88
600.39	51803.37
600.59	52196.58
600.79	52294.88
600.98	52098.28
601.18	51897.58
601.38	52716.76
601.58	52595.93
601.78	52626.65
601.97	52358.37
602.17	52720.86
602.37	52200.68
602.57	52231.40
602.76	52618.46
602.96	52309.22
603.16	52841.69
603.36	52557.02
603.55	53089.49
603.75	53046.49
603.95	53249.24
604.15	53318.87
604.34	52901.08
604.54	52972.76
604.74	53210.32
604.94	53499.09
605.13	53425.36
605.33	53185.75
605.53	53216.47
605.73	53847.24
605.92	53441.74
606.12	53540.05
606.32	53384.40
606.52	53501.14
606.71	53558.48
606.91	53976.26
607.11	53568.72
607.30	54080.71
607.50	53650.64
607.70	54058.18
607.90	53619.92
608.09	53587.15
608.29	53822.67
608.49	54084.81
608.68	53886.15
608.88	54043.85
609.08	54174.92
609.28	54262.98
609.47	53783.76
609.67	54365.38
609.87	54133.96
610.06	54361.28
610.26	54580.42
610.46	54506.69
610.66	54287.56
610.85	54379.71
611.05	54473.92
611.25	54881.47
611.44	54172.87
611.64	54402.24
611.84	54346.95
612.03	54428.87
612.23	54727.87
612.43	55219.38
612.62	54379.71
612.82	54998.20
613.02	54985.91
613.21	54928.57
613.41	54609.09
613.61	54582.46
613.80	54809.79
614.00	54691.01
614.20	54924.47
614.39	55108.79
614.59	54973.63
614.79	55112.89
614.98	54891.71
615.18	54656.19
615.38	55602.35
615.57	54400.19
615.77	55172.28
615.97	55352.50
616.16	55524.53
616.36	55514.29
616.56	55655.60
616.75	55207.09
616.95	54879.42
617.15	54850.75
617.34	55102.65
617.54	55041.21
617.74	55436.47
617.93	55301.30
618.13	54951.10
618.32	54949.05
618.52	54621.37
618.72	55293.11
618.91	55028.92
619.11	55170.23
619.31	55026.87
619.50	55002.30
619.70	54711.49
619.90	55432.37
620.09	54772.92
620.29	55227.57
620.48	55311.54
620.68	55399.60
620.88	55450.80
621.07	55211.19
621.27	55065.78
621.46	55024.82
621.66	55342.26
621.86	55061.69
622.05	55293.11
622.25	55426.23
622.44	55104.70
622.64	55010.49
622.84	55358.64
623.03	55137.46
623.23	55243.96
623.42	55069.88
623.62	55149.75
623.82	55469.23
624.01	55291.06
624.21	55432.37
624.40	55329.97
624.60	55440.56
624.80	54715.58
624.99	55106.74
625.19	55047.35
625.38	55116.98
625.58	55243.96
625.77	55461.04
625.97	55235.77
626.17	55239.86
626.36	55192.76
626.56	55260.34
626.75	54404.29
626.95	55680.17
627.14	55039.16
627.34	55731.37
627.54	54834.36
627.73	55420.08
627.93	55145.65
628.12	55057.59
628.32	55000.25
628.51	55520.43
628.71	54918.33
628.90	55379.12
629.10	55624.88
629.30	55592.11
629.49	55383.22
629.69	55022.78
629.88	55207.09
630.08	55639.22
630.27	55489.71
630.47	55522.48
630.66	55356.60
630.86	55581.87
631.05	55084.22
631.25	55608.50
631.44	55327.92
631.64	55370.93
631.84	55739.57
632.03	55719.09
632.23	55323.83
632.42	55751.85
632.62	55274.68
632.81	55366.84
633.01	55600.30
633.20	55555.25
633.40	55461.04
633.59	55620.78
633.79	55223.48
633.98	55780.52
634.18	55645.36
634.37	55831.72
634.57	55401.65
634.76	55825.58
634.96	55612.59
635.15	55735.47
635.35	55162.04
635.54	55422.13
635.74	55848.11
635.93	55565.49
636.13	56026.28
636.32	55604.40
636.52	55131.32
636.71	55895.21
636.91	55383.22
637.10	55203.00
637.30	55215.29
637.49	55518.38
637.69	55428.27
637.88	55682.22
638.08	55252.15
638.27	56130.73
638.46	55598.26
638.66	55706.80
638.85	55690.41
639.05	55506.10
639.24	56009.90
639.44	55575.73
639.63	55731.37
639.83	55551.15
640.02	55854.25
640.22	55991.47
640.41	55647.41
640.61	55383.22
640.80	55487.67
640.99	55596.21
641.19	55991.47
641.38	55561.39
641.58	55344.31
641.77	55735.47
641.97	55497.91
642.16	55424.18
642.36	56132.78
642.55	56286.37
642.74	55624.88
642.94	56167.59
643.13	55641.26
643.33	56104.10
643.52	55903.40
643.72	55801.00
643.91	55669.93
644.10	55999.66
644.30	56177.83
644.49	55887.02
644.69	56042.66
644.88	56521.89
645.08	55714.99
645.27	55690.41
645.46	55424.18
645.66	56403.11
645.85	55549.10
646.05	55970.99
646.24	55936.17
646.43	55968.94
646.63	56378.53
646.82	55993.51
647.02	56190.12
647.21	56308.90
647.40	56159.40
647.60	56181.93
647.79	56138.92
647.99	55917.74
648.18	55940.27
648.37	56472.74
648.57	56616.10
648.76	56528.03
648.96	55768.24
649.15	56247.46
649.34	56749.21
649.54	56333.48
649.73	55403.70
649.92	56046.76
650.12	56659.10
650.31	56114.34
650.51	56366.24
650.70	56431.78
650.89	56061.10
651.09	57351.32
651.28	56474.79
651.47	56186.02
651.67	56351.91
651.86	56581.28
652.06	55680.17
652.25	56370.34
652.44	56452.26
652.64	56100.01
652.83	56470.69
653.02	56163.50
653.22	56302.76
653.41	56401.06
653.60	56020.14
653.80	56132.78
653.99	56556.70
654.18	56102.06
654.38	56222.89
654.57	56321.19
654.76	56192.17
654.96	55987.37
655.15	56114.34
655.34	56079.53
655.54	55874.73
655.73	56476.83
655.92	56341.67
656.12	56269.99
656.31	56341.67
656.50	56251.56
656.70	56775.84
656.89	56599.71
657.08	56286.37
657.28	56562.85
657.47	56188.07
657.66	56534.18
657.86	56210.60
658.05	56556.70
658.24	56374.44
658.43	56163.50
658.63	56571.04
658.82	56962.20
659.01	56302.76
659.21	56337.57
659.40	56175.78
659.59	56132.78
659.79	56265.89
659.98	56890.52
660.17	56720.54
660.36	56816.80
660.56	56556.70
660.75	56966.30
660.94	56439.97
661.14	56310.95
661.33	56269.99
661.52	56251.56
661.71	57201.82
661.91	56394.92
662.10	56214.69
662.29	57048.22
662.49	56665.25
662.68	56290.47
662.87	56347.81
663.06	56583.33
663.26	56702.11
663.45	56591.52
663.64	56849.56
663.83	57308.31
664.03	57095.32
664.22	57212.06
664.41	56392.87
664.60	56474.79
664.80	56984.73
664.99	56341.67
665.18	56485.03
665.37	56618.14
665.57	56882.33
665.76	56222.89
665.95	56999.07
666.14	56685.73
666.34	56605.86
666.53	56841.37
666.72	56818.84
666.91	56206.50
667.11	56296.61
667.30	56568.99
667.49	56841.37
667.68	56722.59
667.87	56667.30
668.07	56865.95
668.26	56155.30
668.45	56675.49
668.64	56304.80
668.84	57283.73
669.03	57021.59
669.22	56597.66
669.41	57050.27
669.60	56693.92
669.80	56751.26
669.99	56951.96
670.18	56351.91
670.37	56679.58
670.57	56781.98
670.76	56853.66
670.95	56784.03
671.14	56237.22
671.33	56370.34
671.53	57201.82
671.72	56841.37
671.91	57093.27
672.10	56396.96
672.29	57048.22
672.48	56560.80
672.68	56972.44
672.87	56759.45
673.06	56476.83
673.25	56790.17
673.44	56568.99
673.64	56472.74
673.83	56366.24
674.02	56601.76
674.21	56376.48
674.40	56820.89
674.59	56183.97
674.79	57009.31
674.98	56157.35
675.17	56435.87
675.36	56790.17
675.55	56607.90
675.74	56718.49
675.94	56849.56
676.13	56835.23
676.32	56792.22
676.51	57197.72
676.70	56712.35
676.89	56857.76
677.08	56898.72
677.28	56630.43
677.47	56913.05
677.66	56833.18
677.85	56736.93
678.04	56913.05
678.23	57402.52
678.42	57003.16
678.62	56861.85
678.81	57119.90
679.00	56695.97
679.19	57226.39
679.38	56865.95
679.57	56845.47
679.76	56712.35
679.96	56941.72
680.15	56710.30
680.34	56929.44
680.53	56652.96
680.72	56650.91
680.91	57382.04
681.10	56489.12
681.29	56401.06
681.48	56566.94
681.68	56665.25
681.87	56923.29
682.06	57097.37
682.25	56698.01
682.44	55997.61
682.63	56841.37
682.82	56495.27
683.01	56659.10
683.20	56399.01
683.39	56485.03
683.59	56607.90
683.78	56108.20
683.97	56431.78
684.16	56669.34
684.35	56511.65
684.54	56700.06
684.73	56278.18
684.92	56534.18
685.11	56155.30
685.30	56214.69
685.49	56640.67
685.69	56534.18
685.88	56179.88
686.07	56308.90
686.26	56317.09
686.45	56186.02
686.64	56319.14
686.83	56468.64
687.02	56226.98
687.21	56564.90
687.40	56423.59
687.59	55946.41
687.78	56063.14
687.97	56659.10
688.16	56655.01
688.35	55647.41
688.54	56130.73
688.74	56396.96
688.93	55954.60
689.12	55989.42
689.31	56417.44
689.50	56204.45
689.69	55878.83
689.88	55899.31
690.07	55714.99
690.26	56145.06
690.45	56634.53
690.64	55948.46
690.83	55768.24
691.02	55975.08
691.21	55878.83
691.40	55745.71
691.59	56114.34
691.78	55829.68
691.97	56118.44
692.16	55786.67
692.35	56013.99
692.54	56198.31
692.73	55764.14
692.92	56011.95
693.11	55911.59
693.30	55727.28
693.49	55653.55
693.68	56009.90
693.87	56071.34
694.06	55540.91
694.25	55428.27
694.44	55430.32
694.63	55710.89
694.82	55628.98
695.01	55489.71
695.20	55612.59
695.39	55370.93
695.58	55528.62
695.77	55538.86
695.96	55399.60
696.15	55792.81
696.34	55243.96
696.53	55203.00
696.72	55628.98
696.91	55452.85
697.10	55553.20
697.29	55020.73
697.48	55454.90
697.67	55016.63
697.86	54985.91
698.05	55137.46
698.24	55573.68
698.43	54611.13
698.62	55147.70
698.81	54903.99
699.00	55196.85
699.19	54848.70
699.38	54867.13
699.57	54826.17
699.76	55506.10
699.95	54850.75
700.14	54848.70
700.32	54881.47
700.51	55170.23
700.70	55377.08
700.89	54811.84
701.08	55002.30
701.27	54680.77
701.46	55084.22
701.65	54009.03
701.84	54592.70
702.03	54703.29
702.22	54297.80
702.41	54865.08
702.60	54379.71
702.79	54203.59
702.98	54719.68
703.17	54428.87
703.35	54445.25
703.54	54078.66
703.73	54129.86
703.92	54400.19
704.11	54254.79
704.30	53902.54
704.49	54152.39
704.68	54166.73
704.87	53605.58
705.06	53787.85
705.25	53724.36
705.43	53761.23
705.62	53890.25
705.81	53970.12
706.00	53728.46
706.19	53714.12
706.38	54047.94
706.57	53820.62
706.76	53851.34
706.95	53898.44
707.14	53408.98
707.32	53419.22
707.51	53398.74
707.70	53617.87
707.89	53298.39
708.08	53834.95
708.27	53212.37
708.46	53837.00
708.65	53415.12
708.84	53773.52
709.02	53425.36
709.21	53302.48
709.40	53378.26
709.59	53224.66
709.78	52827.35
709.97	53421.26
710.16	53347.54
710.34	52960.47
710.53	53036.25
710.72	52839.64
710.91	52782.30
711.10	53261.52
711.29	52589.79
711.48	52980.95
711.66	52798.68
711.85	52157.67
712.04	52913.37
712.23	52522.21
712.42	52626.65
712.61	52507.87
712.80	52503.77
712.98	52450.53
713.17	52010.21
713.36	52296.93
713.55	52761.82
713.74	52008.17
713.93	52225.25
714.11	51987.69
714.30	51967.21
714.49	51811.56
714.68	52860.12
714.87	52032.74
715.06	52370.66
715.24	52255.97
715.43	51813.61
715.62	51645.68
715.81	51565.81
716.00	52155.62
716.18	51651.82
716.37	51524.85
716.56	51821.80
716.75	52083.94
716.94	51561.71
717.12	51680.49
717.31	51668.20
717.50	51291.38
717.69	51774.70
717.88	51320.05
718.06	51660.01
718.25	51850.47
718.44	51289.33
718.63	51258.61
718.82	50900.22
719.00	50767.10
719.19	50957.56
719.38	51109.11
719.57	50468.09
719.76	50480.38
719.94	50806.01
720.13	50500.86
720.32	50130.18
720.51	50554.11
720.69	50519.29
720.88	50330.88
721.07	50230.53
721.26	49808.65
721.44	50310.40
721.63	50007.30
721.82	50003.20
722.01	50009.35
722.20	50189.57
722.38	49546.51
722.57	49247.50
722.76	49739.02
722.95	49726.73
723.13	49710.35
723.32	49392.91
723.51	49349.90
723.70	49405.20
723.88	49294.61
724.07	49327.38
724.26	49188.11
724.44	48768.28
724.63	49345.81
724.82	49061.14
725.01	49104.15
725.19	49515.79
725.38	48641.31
725.57	48278.82
725.76	48694.55
725.94	48553.24
726.13	48968.98
726.32	48727.32
726.51	48567.58
726.69	48928.02
726.88	49087.76
727.07	48684.31
727.25	48717.08
727.44	48749.85
727.63	48989.46
727.82	48846.10
728.00	48588.06
728.19	48755.99
728.38	49067.28
728.56	48192.80
728.75	48612.63
728.94	48020.77
729.12	48674.07
729.31	48706.84
729.50	48096.55
729.69	48375.07
729.87	48747.80
730.06	48565.53
730.25	48268.58
730.43	48626.97
730.62	48530.72
730.81	48401.69
730.99	47895.85
731.18	48020.77
731.37	48504.09
731.55	48469.28
731.74	48723.22
731.93	48506.14
732.11	48563.48
732.30	48200.99
732.49	48354.59
732.67	48090.40
732.86	48268.58
733.05	48370.97
733.23	48213.28
733.42	47985.96
733.61	48168.22
733.79	48045.35
733.98	48422.17
734.17	48141.60
734.35	47985.96
734.54	47963.43
734.73	48248.10
734.91	47887.65
735.10	47732.01
735.29	48336.16
735.47	48192.80
735.66	47723.82
735.84	47750.44
736.03	47508.78
736.22	47861.03
736.40	47654.18
736.59	47635.75
736.78	47791.40
736.96	47781.16
737.15	47758.63
737.33	47611.18
737.52	47609.13
737.71	47363.37
737.89	47510.83
738.08	47367.47
738.27	47545.64
738.45	47416.62
738.64	47740.20
738.82	47385.90
739.01	47678.76
739.20	47441.20
739.38	47527.21
739.57	47422.76
739.75	47375.66
739.94	47375.66
740.13	47310.13
740.31	47375.66
740.50	47052.08
740.68	47174.96
740.87	47371.57
741.06	47330.61
741.24	47052.08
741.43	46841.14
741.61	47232.30
741.80	46847.29
741.99	46931.25
742.17	47207.73
742.36	47113.52
742.54	46490.94
742.73	46888.24
742.91	46855.48
743.10	46904.63
743.29	46802.23
743.47	47043.89
743.66	47183.15
743.84	46847.29
744.03	46871.86
744.21	46761.27
744.40	47019.31
744.59	46480.70
744.77	46662.97
744.96	46613.82
745.14	46296.38
745.33	46267.71
745.51	46476.60
745.70	46396.73
745.88	46122.30
746.07	46185.79
746.26	45962.56
746.44	46241.09
746.63	46308.67
746.81	45972.80
747.00	45913.41
747.18	46267.71
747.37	46595.38
747.55	46058.82
747.74	46513.47
747.92	46073.15
748.11	46177.60
748.29	45651.27
748.48	46337.34
748.66	45806.92
748.85	46071.10
749.03	45800.77
749.22	46312.77
749.41	46028.10
749.59	45725.00
749.78	46181.70
749.96	45917.51
750.15	45684.04
750.33	46202.18
750.52	45770.05
750.70	46132.54
750.89	45755.72
751.07	45327.69
751.26	45458.76
751.44	45159.76
751.63	45299.02
751.81	45526.35
752.00	45202.77
752.18	45659.46
752.37	45147.47
752.55	45190.48
752.74	45573.45
752.92	45407.56
753.10	45448.52
753.29	45180.24
753.47	45417.80
753.66	44612.95
753.84	45337.93
754.03	45362.51
754.21	44811.60
754.40	45266.25
754.58	45483.34
754.77	45290.83
754.95	44776.79
755.14	45159.76
755.32	45045.07
755.51	44498.26
755.69	45051.22
755.88	45231.44
756.06	45090.13
756.24	44615.00
756.43	44604.76
756.61	44660.05
756.80	44170.59
756.98	44283.23
757.17	44477.79
757.35	44787.03
757.54	44672.34
757.72	44643.67
757.90	44678.49
758.09	44569.94
758.27	44561.75
758.46	44229.98
758.64	44555.61
758.83	44690.77
759.01	44690.77
759.19	44412.25
759.38	44166.49
759.56	44748.12
759.75	44035.42
759.93	44383.58
760.12	43857.25
760.30	44107.10
760.48	44234.08
760.67	44262.75
760.85	44293.47
761.04	44285.28
761.22	44174.69
761.40	43947.36
761.59	44031.33
761.77	44037.47
761.96	44119.39
762.14	43992.42
762.32	43656.55
762.51	43820.39
762.69	43849.06
762.88	44000.61
763.06	43969.89
763.24	43951.46
763.43	44045.66
763.61	43318.64
763.80	43812.20
763.98	43459.94
764.16	43529.58
764.35	43482.47
764.53	43292.01
764.72	43242.86
764.90	43146.61
765.08	42773.88
765.27	43171.18
765.45	42630.52
765.63	42722.68
765.82	43322.73
766.00	42956.14
766.18	42794.36
766.37	43171.18
766.55	43054.45
766.74	42863.99
766.92	42999.15
767.10	42765.68
767.29	42567.03
767.47	42544.50
767.65	42954.10
767.84	42313.08
768.02	42579.32
768.20	42556.79
768.39	42550.65
768.57	43001.20
768.75	42614.13
768.94	42112.38
769.12	42638.71
769.30	42179.96
769.49	41997.70
769.67	41872.77
769.85	42110.33
770.04	42165.63
770.22	42106.24
770.40	41719.17
770.59	42063.23
770.77	42345.85
770.95	42145.15
771.14	41854.34
771.32	41825.67
771.50	41717.12
771.69	41655.68
771.87	42306.94
772.05	41893.25
772.24	41528.71
772.42	41870.72
772.60	41794.95
772.78	41678.21
772.97	41739.65
773.15	41665.92
773.33	41633.16
773.52	41303.43
773.70	41627.01
773.88	41465.22
774.07	41444.74
774.25	41328.01
774.43	41686.40
774.61	41553.29
774.80	41670.02
774.98	41764.23
775.16	41883.01
775.34	41508.23
775.53	41285.00
775.71	41846.15
775.89	41473.42
776.08	41383.30
776.26	41584.01
776.44	41454.98
776.62	41524.61
776.81	41541.00
776.99	41782.66
777.17	41530.76
777.35	41561.48
777.54	42388.86
777.72	41727.36
777.90	41713.03
778.08	41762.18
778.27	41590.15
778.45	42079.61
778.63	41991.55
778.81	41538.95
779.00	42399.10
779.18	42139.00
779.36	42052.99
779.54	41944.45
779.73	41874.82
779.91	42188.16
780.09	41846.15
780.27	42409.34
780.46	42075.52
780.64	42235.26
780.82	41915.78
781.00	42104.19
781.19	42487.16
781.37	42624.37
781.55	42595.70
781.73	42700.15
781.91	42489.21
782.10	42124.67
782.28	42444.15
782.46	42448.25
782.64	42489.21
782.82	42034.56
783.01	42786.16
783.19	42493.30
783.37	42694.00
783.55	42530.17
783.74	42710.39
783.92	42270.08
784.10	42892.66
784.28	42214.78
784.46	42190.20
784.64	42513.78
784.83	42714.48
785.01	42741.11
785.19	42464.63
785.37	42560.89
785.55	42534.26
785.74	42319.23
785.92	41944.45
786.10	42433.91
786.28	42415.48
786.46	42198.40
786.64	41852.29
786.83	42069.37
787.01	42667.38
787.19	42231.16
787.37	42050.94
787.55	41796.99
787.74	42290.55
787.92	42067.33
788.10	41506.18
788.28	41328.01
788.46	41717.12
788.64	41459.08
788.82	41751.94
789.01	41631.11
789.19	41665.92
789.37	41250.19
789.55	41438.60
789.73	41192.84
789.91	40951.18
790.09	40813.97
790.28	41104.78
790.46	40854.93
790.64	41438.60
790.82	41403.78
791.00	40904.08
791.18	40627.60
791.36	40396.18
791.55	40478.10
791.73	40891.79
791.91	40555.93
792.09	40498.58
792.27	40383.90
792.45	40680.85
792.63	40426.90
792.81	40183.19
793.00	40441.24
793.18	40320.41
793.36	40248.73
793.54	40156.57
793.72	39800.22
793.90	39759.27
794.08	39749.03
794.26	40187.29
794.44	39716.26
794.62	39255.46
794.81	39720.35
794.99	39435.69
795.17	39255.46
795.35	39263.66
795.53	39253.42
795.71	39484.84
795.89	38960.56
796.07	38663.60
796.25	38710.71
796.43	38438.33
796.61	38518.20
796.80	38505.91
796.98	38725.04
797.16	38274.49
797.34	38221.24
797.52	38135.23
797.70	38337.98
797.88	37934.53
798.06	38010.30
798.24	37737.92
798.42	37494.21
798.60	37707.20
798.78	37563.84
798.96	37672.39
799.14	37316.04
799.32	37295.56
799.51	36978.12
799.69	37410.25
799.87	37088.71
800.05	36931.02
800.23	37297.61
800.41	36709.84
800.59	36718.03
800.77	36308.44
800.95	36044.25
801.13	36302.29
801.31	36152.79
801.49	36296.15
801.67	36130.26
801.85	36357.59
802.03	35685.86
802.21	35646.94
802.39	35618.27
802.57	35825.12
802.75	35589.60
802.93	35689.95
803.11	35550.69
803.29	35220.97
803.47	35243.49
803.65	35202.53
803.83	35468.77
804.01	35450.34
804.19	34958.83
804.37	35067.37
804.55	34840.04
804.73	34823.66
804.91	34573.81
805.09	34663.92
805.27	34610.67
805.45	34538.99
805.63	34792.94
805.81	34536.94
805.99	34676.21
806.17	34375.16
806.35	34469.36
806.53	33930.75
806.71	34397.68
806.89	34209.27
807.07	34047.48
807.25	33863.16
807.43	33601.02
807.61	34250.23
807.79	33486.34
807.97	33437.19
808.15	33478.15
808.33	33506.82
808.51	33369.60
808.69	33349.12
808.87	33416.71
809.05	33068.55
809.23	32923.15
809.41	32888.33
809.59	32908.81
809.77	33039.88
809.95	32400.91
810.13	33023.50
810.31	32839.18
810.49	32460.30
810.67	32304.66
810.84	32247.32
811.02	32478.74
811.20	32237.08
811.38	32450.06
811.56	32001.56
811.74	32013.85
811.92	31950.36
812.10	32134.68
812.28	32065.05
812.46	31811.10
812.64	31696.41
812.82	31872.54
813.00	31659.55
813.18	31770.14
813.36	31757.85
813.53	31233.57
813.71	31407.65
813.89	31389.22
814.07	31151.65
814.25	31383.07
814.43	31071.78
814.61	30955.05
814.79	30875.18
814.97	30809.64
815.15	30975.53
815.33	30770.73
815.50	30750.25
815.68	30932.52
815.86	30737.96
816.04	30729.77
816.22	30529.07
816.40	30506.54
816.58	30250.55
816.76	30484.01
816.94	30125.62
817.11	30443.06
817.29	30283.31
817.47	30207.54
817.65	30074.42
817.83	29986.36
818.01	29734.46
818.19	29740.60
818.37	29763.13
818.54	29587.00
818.72	29447.74
818.90	29453.89
819.08	29699.64
819.26	29949.50
819.44	29752.89
819.62	29759.03
819.80	29453.89
819.97	29900.34
820.15	29703.74
820.33	29124.16
820.51	29883.96
820.69	29081.16
820.87	29400.64
821.05	29544.00
821.22	29251.14
821.40	29345.34
821.58	28896.84
821.76	28991.05
821.94	28773.96
822.12	28665.42
822.29	29019.72
822.47	28345.94
822.65	28571.21
822.83	29171.27
823.01	28558.92
823.19	28411.47
823.36	28247.63
823.54	28329.55
823.72	28380.75
823.90	28489.29
824.08	28261.97
824.25	28302.93
824.43	28096.08
824.61	28036.69
824.79	27915.86
824.97	28003.92
825.15	28194.39
825.32	28065.36
825.50	27817.56
825.68	28112.47
825.86	27977.30
826.04	28018.26
826.21	27815.51
826.39	27770.46
826.57	27815.51
826.75	27299.42
826.93	27551.32
827.10	27348.57
827.28	27530.84
827.46	27666.01
827.64	27448.93
827.81	27510.36
827.99	27590.24
828.17	27295.33
828.35	27205.22
828.53	27309.66
828.70	27240.03
828.88	27444.83
829.06	27188.83
829.24	27252.32
829.41	27068.00
829.59	27612.76
829.77	26818.15
829.95	26984.04
830.12	27051.62
830.30	26900.07
830.48	26953.32
830.66	26648.17
830.84	26789.48
831.01	26607.21
831.19	26699.37
831.37	26621.55
831.55	26869.35
831.72	26611.31
831.90	26578.54
832.08	26953.32
832.25	26236.53
832.43	26586.73
832.61	26586.73
832.79	26672.74
832.96	26480.24
833.14	26422.89
833.32	26541.68
833.50	26293.87
833.67	26228.34
833.85	26121.84
834.03	26039.92
834.20	26154.61
834.38	26214.00
834.56	26191.47
834.74	26068.59
834.91	25689.72
835.09	26105.46
835.27	25452.16
835.44	25884.28
835.62	25546.36
835.80	25853.56
835.98	25888.37
836.15	25835.13
836.33	25732.73
836.51	25558.65
836.68	25390.72
836.86	25550.46
837.04	25562.75
837.21	25714.30
837.39	25425.53
837.57	25761.40
837.75	25597.56
837.92	25038.47
838.10	25370.24
838.28	24966.79
838.45	24901.25
838.63	25204.35
838.81	25245.31
838.98	25292.41
839.16	25060.99
839.34	25083.52
839.51	25024.13
839.69	24766.09
839.87	24970.88
840.04	25036.42
840.22	25142.91
840.40	24954.50
840.57	24686.22
840.75	24696.46
840.93	24569.48
841.10	24839.81
841.28	24934.02
841.46	24610.44
841.63	24815.24
841.81	24684.17
841.98	24438.41
842.16	24505.99
842.34	24407.69
842.51	24555.15
842.69	24716.93
842.87	24352.40
843.04	24739.46
843.22	24600.20
843.40	24477.32
843.57	24737.41
843.75	24536.71
843.92	24327.82
844.10	24628.87
844.28	24262.29
844.45	24297.10
844.63	23959.19
844.81	24110.74
844.98	24182.42
845.16	24305.29
845.33	24252.05
845.51	23910.04
845.69	24168.08
845.86	23766.68
846.04	23832.21
846.21	23856.79
846.39	24100.50
846.57	23854.74
846.74	24225.42
846.92	23785.11
847.09	24010.39
847.27	23637.66
847.45	24063.63
847.62	23772.82
847.80	23651.99
847.97	23719.57
848.15	23682.71
848.32	23234.21
848.50	23617.18
848.68	23465.63
848.85	23695.00
849.03	23172.77
849.20	23482.01
849.38	23510.68
849.56	23537.30
849.73	23260.83
849.91	23246.49
850.08	23412.38
850.26	23115.42
850.43	23140.00
850.61	23148.19
850.78	22920.87
850.96	23189.15
851.14	23053.98
851.31	23316.12
851.49	22752.93
851.66	23076.51
851.84	23017.12
852.01	23045.79
852.19	23140.00
852.36	22742.69
852.54	23051.94
852.71	23254.69
852.89	22638.25
853.07	22886.05
853.24	23004.83
853.42	22453.93
853.59	22509.22
853.77	22677.16
853.94	22961.83
854.12	22705.83
854.29	22462.12
854.47	22810.28
854.64	22384.30
854.82	22486.70
854.99	23021.22
855.17	22261.42
855.34	22406.83
855.52	22748.84
855.69	22675.11
855.87	22572.71
856.04	21935.79
856.22	22507.18
856.39	22070.96
856.57	22525.61
856.74	22396.59
856.92	22355.63
857.09	22113.97
857.27	22109.87
857.44	22255.28
857.62	22378.15
857.79	22255.28
857.97	21929.65
858.14	22103.73
858.32	21903.03
858.49	22177.45
858.67	21950.13
858.84	22179.50
859.02	21923.51
859.19	21919.41
859.37	21855.92
859.54	21880.50
859.72	22001.33
859.89	21511.86
860.06	21931.70
860.24	21575.35
860.41	21763.76
860.59	21411.51
860.76	21710.52
860.94	21599.93
861.11	21661.37
861.29	21741.24
861.46	21499.58
861.64	21475.00
861.81	21499.58
861.98	21536.44
862.16	21714.61
862.33	21114.56
862.51	21251.77
862.68	21409.47
862.86	21513.91
863.03	21169.85
863.21	21274.30
863.38	21059.26
863.55	21212.86
863.73	21225.15
863.90	21577.40
864.08	20924.10
864.25	21272.25
864.43	21085.89
864.60	21098.17
864.77	21110.46
864.95	21044.93
865.12	20811.46
865.30	20735.68
865.47	21010.11
865.64	21020.35
865.82	21012.16
865.99	21042.88
866.17	20696.77
866.34	20766.40
866.51	20575.94
866.69	20938.43
866.86	20885.19
867.04	20696.77
867.21	20621.00
867.38	20573.89
867.56	20332.23
867.73	20291.27
867.91	20469.45
868.08	20498.12
868.25	20631.24
868.43	20389.58
868.60	20500.17
868.78	20291.27
868.95	20448.97
869.12	20436.68
869.30	20625.09
869.47	20653.76
869.64	20170.44
869.82	20332.23
869.99	20260.55
870.16	20006.61
870.34	19992.27
870.51	19934.93
870.69	19810.00
870.86	20238.03
871.03	19990.22
871.21	19947.22
871.38	19984.08
871.55	19531.48
871.73	20045.52
871.90	19408.60
872.07	19766.99
872.25	19463.90
872.42	19683.03
872.59	19621.59
872.77	19570.39
872.94	19238.62
873.11	19527.38
873.29	19207.90
873.46	19283.67
873.63	19365.59
873.81	19295.96
873.98	19148.51
874.15	19506.90
874.33	19146.46
874.50	19138.27
874.67	19082.97
874.85	19220.19
875.02	19042.01
875.19	19082.97
875.37	19158.75
875.54	19130.08
875.71	18976.48
875.88	18890.46
876.06	19048.16
876.23	18902.75
876.40	18829.02
876.58	18736.87
876.75	18480.87
876.92	18562.79
877.10	18493.16
877.27	18759.39
877.44	18527.97
877.61	18357.99
877.79	18239.21
877.96	18521.83
878.13	18390.76
878.31	18351.85
878.48	18269.93
878.65	18669.28
878.82	18061.04
879.00	18321.13
879.17	18231.02
879.34	18194.15
879.51	18196.20
879.69	18034.41
879.86	17948.40
880.03	17995.50
880.21	17934.06
880.38	17944.30
880.55	17866.48
880.72	17802.99
880.90	17749.75
881.07	18032.36
881.24	18022.12
881.41	17972.97
881.59	17891.06
881.76	17596.15
881.93	17802.99
882.10	17463.03
882.28	17680.11
882.45	17458.93
882.62	17516.28
882.79	17622.77
882.96	17358.58
883.14	17678.07
883.31	17567.48
883.48	17792.75
883.65	17520.37
883.83	17719.03
884.00	17569.52
884.17	17483.51
884.34	17600.24
884.51	17688.31
884.69	17577.72
884.86	17422.07
885.03	17417.97
885.20	17211.13
885.38	17426.17
885.55	17223.42
885.72	17047.29
885.89	17256.18
886.06	17291.00
886.24	17299.19
886.41	17381.11
886.58	17190.65
886.75	17239.80
886.92	17149.69
887.10	17600.24
887.27	17032.96
887.44	16930.56
887.61	17651.44
887.78	16983.80
887.95	17073.92
888.13	16762.62
888.30	16944.89
888.47	16652.03
888.64	16776.96
888.81	16756.48
888.99	16637.70
889.16	16643.84
889.33	16576.26
889.50	16641.79
889.67	16871.17
889.84	16576.26
890.01	16361.22
890.19	16416.52
890.36	16553.73
890.53	16414.47
890.70	16498.44
890.87	16262.92
891.04	16457.48
891.22	16457.48
891.39	16307.98
891.56	16301.83
891.73	16289.54
891.90	16346.89
892.07	16144.14
892.24	16285.45
892.42	16213.77
892.59	16119.56
892.76	16181.00
892.93	16166.67
893.10	16121.61
893.27	16027.40
893.44	15734.54
893.61	16119.56
893.79	16080.65
893.96	16013.07
894.13	16002.83
894.30	15976.20
894.47	16045.84
894.64	16068.36
894.81	15871.76
894.98	16127.75
895.15	15953.68
895.33	15922.96
895.50	15718.16
895.67	16021.26
895.84	15834.89
896.01	15879.95
896.18	15617.81
896.35	15963.92
896.52	15802.13
896.69	15836.94
896.86	15843.09
897.04	15945.48
897.21	15709.97
897.38	15789.84
897.55	15619.86
897.72	15658.77
897.89	15755.02
898.06	15900.43
898.23	15781.65
898.40	15732.50
898.57	15779.60
898.74	15998.73
898.91	15644.43
899.08	15814.41
899.26	15752.98
899.43	15808.27
899.60	15597.33
899.77	15476.50
899.94	15693.58
900.11	15714.06
900.28	15585.04
900.45	15458.07
900.62	15556.37
900.79	15593.23
900.96	15628.05
901.13	15468.31
901.30	15509.27
901.47	15648.53
901.64	15374.10
901.81	15671.06
901.98	15464.21
902.15	15822.61
902.32	15621.91
902.49	15580.95
902.66	15734.54
902.83	15421.20
903.01	15392.53
903.18	15404.82
903.35	15537.94
903.52	15709.97
903.69	15699.73
903.86	15642.39
904.03	15437.59
904.20	15531.80
904.37	15812.37
904.54	15312.66
904.71	15593.23
904.88	15646.48
905.05	15365.91
905.22	15470.36
905.39	15490.84
905.56	15658.77
905.73	15394.58
905.90	15480.60
906.07	15421.20
906.24	15445.78
906.41	15413.01
906.58	15472.40
906.75	15689.49
906.92	15343.38
907.09	15509.27
907.26	15427.35
907.43	15316.76
907.60	15429.40
907.77	15494.93
907.93	15503.12
908.10	15228.70
908.27	15470.36
908.44	15380.25
908.61	15185.69
908.78	15337.24
908.95	15339.29
909.12	15298.33
909.29	15392.53
909.46	15146.78
909.63	15511.32
909.80	15222.55
909.97	15212.31
910.14	15456.02
910.31	15232.79
910.48	14964.51
910.65	15056.67
910.82	15126.30
910.99	14917.40
911.16	14991.13
911.33	15099.67
911.50	15111.96
911.66	15075.10
911.83	15089.43
912.00	14806.81
912.17	14812.96
912.34	14839.58
912.51	15060.76
912.68	14919.45
912.85	14745.38
913.02	14786.33
913.19	14765.85
913.36	15181.59
913.53	14853.92
913.70	14667.55
913.86	14962.46
914.03	14755.61
914.20	14864.16
914.37	14526.24
914.54	14708.51
914.71	14591.78
914.88	14464.80
915.05	14262.05
915.22	14219.05
915.39	14542.63
915.55	14358.31
915.72	14331.69
915.89	14333.73
916.06	14155.56
916.23	14239.53
916.40	14204.71
916.57	14253.86
916.74	14219.05
916.91	14024.49
917.07	14069.55
917.24	14100.26
917.41	14157.61
917.58	14206.76
917.75	13862.70
917.92	13848.36
918.09	13918.00
918.26	13872.94
918.42	13967.15
918.59	13831.98
918.76	13958.96
918.93	13723.44
919.10	13854.51
919.27	13467.44
919.44	13772.59
919.60	13797.17
919.77	13291.32
919.94	13399.86
920.11	13449.01
920.28	13438.77
920.45	13477.68
920.61	13303.60
920.78	12953.40
920.95	13143.86
921.12	13221.69
921.29	13039.42
921.46	13082.42
921.62	12885.82
921.79	13104.95
921.96	13006.65
922.13	12879.68
922.30	12881.72
922.47	12437.31
922.63	12554.05
922.80	12582.72
922.97	12678.97
923.14	12330.82
923.31	12576.58
923.47	12519.23
923.64	12691.26
923.81	12412.74
923.98	12513.09
924.15	12349.25
924.32	12232.52
924.48	12228.42
924.65	12422.98
924.82	12238.66
924.99	11945.80
925.15	11994.95
925.32	12126.02
925.49	11941.71
925.66	11734.86
925.83	11747.15
925.99	11556.69
926.16	11978.57
926.33	11614.03
926.50	11476.82
926.67	11732.81
926.83	11562.83
927.00	11620.17
927.17	11702.09
927.34	11384.66
927.50	11599.70
927.67	11714.38
927.84	11652.94
928.01	11392.85
928.17	11153.24
928.34	11333.46
928.51	11167.57
928.68	10997.59
928.84	10936.15
929.01	11038.55
929.18	10837.85
929.35	10848.09
929.51	10848.09
929.68	10884.95
929.85	10778.46
930.02	10807.13
930.18	10684.25
930.35	10471.26
930.52	10649.44
930.69	10497.89
930.85	10567.52
931.02	10256.23
931.19	10520.42
931.36	10309.47
931.52	10401.63
931.69	10190.69
931.86	10030.95
932.02	10194.79
932.19	10098.53
932.36	10286.95
932.53	10184.55
932.69	10045.29
932.86	9944.94
933.03	9967.46
933.19	9799.53
933.36	9695.08
933.53	9863.02
933.70	9559.92
933.86	9738.09
934.03	9713.52
934.20	9398.13
934.36	9564.01
934.53	9404.27
934.70	9152.37
934.86	9355.12
935.03	9140.08
935.20	9222.00
935.36	9111.41
935.53	9045.88
935.70	9222.00
935.86	8947.58
936.03	8843.13
936.20	8875.90
936.36	8552.32
936.53	8505.21
936.70	8580.99
936.86	8593.28
937.03	8472.45
937.20	8247.17
937.36	8413.06
937.53	8030.09
937.70	8005.51
937.86	7806.86
938.03	7878.54
938.20	7882.63
938.36	7587.72
938.53	7708.55
938.70	7403.41
938.86	7458.70
939.03	7356.30
939.20	7380.88
939.36	7051.16
939.53	7079.83
939.70	7372.69
939.86	6893.46
940.03	6946.71
940.19	6791.06
940.36	6774.68
940.53	6748.06
940.69	6703.00
940.86	6719.39
941.03	6500.25
941.19	6447.01
941.36	6416.29
941.52	6498.20
941.69	6246.30
941.86	6205.35
942.02	6143.91
942.19	6092.71
942.35	6180.77
942.52	6074.28
942.69	6092.71
942.85	5943.21
943.02	5932.97
943.18	5867.43
943.35	5808.04
943.52	5617.58
943.68	5689.26
943.85	5734.31
944.01	5572.52
944.18	5623.72
944.35	5672.87
944.51	5527.47
944.68	5289.90
944.84	5425.07
945.01	5595.05
945.17	5406.64
945.34	5402.54
945.51	5504.94
945.67	5410.73
945.84	5498.80
946.00	5484.46
946.17	5261.23
946.33	5259.18
946.50	5382.06
946.67	5240.75
946.83	5248.94
947.00	5386.16
947.16	5318.57
947.33	5242.80
947.49	5283.76
947.66	5111.73
947.82	5275.57
947.99	5259.18
948.16	5377.97
948.32	5212.08
948.49	5308.34
948.65	5392.30
948.82	5326.77
948.98	5248.94
949.15	5144.50
949.31	5218.22
949.48	5287.86
949.64	5351.34
949.81	5203.89
949.97	5332.91
950.14	5287.86
950.30	5107.63
950.47	5197.74
950.63	5259.18
950.80	5324.72
950.96	5242.80
951.13	5402.54
951.30	5199.79
951.46	5363.63
951.63	5334.96
951.79	5384.11
951.96	5472.17
952.12	5349.29
952.29	5283.76
952.45	5337.01
952.62	5357.49
952.78	5375.92
952.94	5375.92
953.11	5248.94
953.27	5136.31
953.44	5441.45
953.60	5345.20
953.77	5550.00
953.93	5275.57
954.10	5359.53
954.26	5361.58
954.43	5226.42
954.59	5568.43
954.76	5410.73
954.92	5275.57
955.09	5490.60
955.25	5390.25
955.42	5234.61
955.58	5480.36
955.75	5539.76
955.91	5453.74
956.07	5488.56
956.24	5445.55
956.40	5377.97
956.57	5441.45
956.73	5390.25
956.90	5535.66
957.06	5337.01
957.23	5550.00
957.39	5291.95
957.56	5423.02
957.72	5384.11
957.88	5392.30
958.05	5343.15
958.21	5558.19
958.38	5468.08
958.54	5531.56
958.71	5609.39
958.87	5408.69
959.03	5498.80
959.20	5394.35
959.36	5447.60
959.53	5429.17
959.69	5343.15
959.85	5390.25
960.02	5441.45
960.18	5396.40
960.35	5320.62
960.51	5492.65
960.68	5386.16
960.84	5478.32
961.00	5269.42
961.17	5365.68
961.33	5416.88
961.50	5443.50
961.66	5509.04
961.82	5402.54
961.99	5447.60
962.15	5394.35
962.31	5363.63
962.48	5437.36
962.64	5427.12
962.81	5375.92
962.97	5396.40
963.13	5533.61
963.30	5425.07
963.46	5359.53
963.62	5138.35
963.79	5367.73
963.95	5304.24
964.12	5269.42
964.28	5285.81
964.44	5304.24
964.61	5433.26
964.77	5365.68
964.93	5394.35
965.10	5265.33
965.26	5355.44
965.42	5308.34
965.59	5357.49
965.75	5275.57
965.92	5359.53
966.08	5199.79
966.24	5408.69
966.41	5214.13
966.57	5017.52
966.73	5285.81
966.90	5265.33
967.06	5253.04
967.22	5197.74
967.39	5218.22
967.55	5228.46
967.71	5289.90
967.88	5148.59
968.04	5126.07
968.20	5191.60
968.37	5113.78
968.53	5232.56
968.69	5093.30
968.85	5236.66
969.02	5220.27
969.18	5138.35
969.34	5111.73
969.51	5115.83
969.67	5111.73
969.83	5046.20
970.00	5238.70
970.16	5087.15
970.32	5111.73
970.48	5132.21
970.65	5089.20
970.81	5009.33
970.97	5007.28
971.14	4960.18
971.30	5269.42
971.46	5015.48
971.63	5119.92
971.79	5035.96
971.95	4876.21
972.11	4861.88
972.28	5017.52
972.44	4980.66
972.60	4771.77
972.76	4956.08
972.93	4937.65
973.09	4908.98
973.25	4888.50
973.42	4904.89
973.58	4884.41
973.74	4964.28
973.90	4820.92
974.07	4788.15
974.23	4976.56
974.39	4902.84
974.55	4876.21
974.72	4943.80
974.88	4685.75
975.04	4902.84
975.20	4788.15
975.37	4843.45
975.53	4788.15
975.69	4663.22
975.85	4636.60
976.01	4726.71
976.18	4753.34
976.34	4769.72
976.50	4677.56
976.66	4673.46
976.83	4745.14
976.99	4673.46
977.15	4663.22
977.31	4599.74
977.47	4591.55
977.64	4648.89
977.80	4689.85
977.96	4607.93
978.12	4607.93
978.29	4644.79
978.45	4466.62
978.61	4585.40
978.77	4577.21
978.93	4501.44
979.10	4474.81
979.26	4521.92
979.42	4550.59
979.58	4446.14
979.74	4435.90
979.91	4564.92
980.07	4421.56
980.23	4480.96
980.39	4427.71
980.55	4378.56
980.71	4368.32
980.88	4388.80
981.04	4364.22
981.20	4487.10
981.36	4392.89
981.52	4446.14
981.68	4382.65
981.85	4409.28
982.01	4427.71
982.17	4339.65
982.33	4351.93
982.49	4448.19
982.65	4288.45
982.82	4296.64
982.98	4353.98
983.14	4186.05
983.30	4315.07
983.46	4288.45
983.62	4329.41
983.79	4140.99
983.95	4118.47
984.11	4122.56
984.27	4224.96
984.43	4179.90
984.59	4181.95
984.75	4245.44
984.91	4175.81
985.08	4222.91
985.24	4061.12
985.40	4151.23
985.56	4227.01
985.72	4198.34
985.88	4079.55
986.04	4085.70
986.20	4014.02
986.37	4206.53
986.53	4046.79
986.69	4034.50
986.85	4024.26
987.01	4073.41
987.17	4001.73
987.33	3991.49
987.49	3999.68
987.65	4067.27
987.82	4024.26
987.98	3919.81
988.14	3837.89
988.30	3940.29
988.46	3983.30
988.62	3962.82
988.78	3848.13
988.94	3903.43
989.10	3817.41
989.26	3893.19
989.42	3866.56
989.59	3823.56
989.75	3872.71
989.91	3893.19
990.07	3676.10
990.23	3772.36
990.39	3862.47
990.55	3833.80
990.71	3753.93
990.87	3852.23
991.03	3731.40
991.19	3725.26
991.35	3780.55
991.51	3778.50
991.67	3770.31
991.83	3723.21
992.00	3788.74
992.16	3772.36
992.32	3737.54
992.48	3663.82
992.64	3663.82
992.80	3651.53
992.96	3608.52
993.12	3649.48
993.28	3700.68
993.44	3614.66
993.60	3600.33
993.76	3715.02
993.92	3700.68
994.08	3645.38
994.24	3704.78
994.40	3551.18
994.56	3622.86
994.72	3569.61
994.88	3540.94
995.04	3502.03
995.20	3479.50
995.36	3473.36
995.52	3606.47
995.68	3473.36
995.84	3465.16
996.00	3602.38
996.16	3456.97
996.32	3542.99
996.48	3409.87
996.64	3516.36
996.80	3448.78
996.96	3432.40
997.12	3389.39
997.28	3434.44
997.44	3301.33
997.60	3366.86
997.76	3377.10
997.92	3356.62
998.08	3497.93
998.24	3289.04
998.40	3379.15
998.56	3397.58
998.72	3311.57
998.88	3323.85
999.04	3305.42
999.20	3444.68
999.36	3258.32
999.52	3395.53
999.68	3309.52
999.84	3387.34
1000.00	3313.61
1000.16	3301.33
1000.32	3190.74
1000.48	3383.24
1000.64	3254.22
1000.80	3268.56
1000.95	3084.24
1001.11	3278.80
1001.27	3176.40
1001.43	3223.50
1001.59	3155.92
1001.75	3184.59
1001.91	3166.16
1002.07	3151.82
1002.23	3147.73
1002.39	3172.30
1002.55	3198.93
1002.71	3100.62
1002.87	3088.34
1003.03	3022.80
1003.19	3133.39
1003.34	3215.31
1003.50	3100.62
1003.66	3139.54
1003.82	3174.35
1003.98	3080.14
1004.14	3090.38
1004.30	3110.86
1004.46	2963.41
1004.62	2959.31
1004.78	3000.27
1004.94	3080.14
1005.09	3102.67
1005.25	3016.66
1005.41	2979.79
1005.57	2998.23
1005.73	2875.35
1005.89	2834.39
1006.05	2959.31
1006.21	2928.60
1006.37	3010.51
1006.52	2953.17
1006.68	3002.32
1006.84	2983.89
1007.00	2944.98
1007.16	2897.88
1007.32	2813.91
1007.48	2861.01
1007.64	2848.72
1007.79	2977.75
1007.95	2795.48
1008.11	2908.12
1008.27	2873.30
1008.43	2854.87
1008.59	2842.58
1008.75	2858.96
1008.91	2891.73
1009.06	2848.72
1009.22	2834.39
1009.38	2875.35
1009.54	2883.54
1009.70	2744.28
1009.86	2766.81
1010.01	2807.77
1010.17	2807.77
1010.33	2879.44
1010.49	2869.20
1010.65	2834.39
1010.81	2688.98
1010.96	2887.64
1011.12	2748.37
1011.28	2736.09
1011.44	2805.72
1011.60	2809.81
1011.76	2627.54
1011.91	2770.90
1012.07	2678.74
1012.23	2682.84
1012.39	2600.92
1012.55	2709.46
1012.71	2602.97
1012.86	2648.02
1013.02	2645.98
1013.18	2719.70
1013.34	2658.26
1013.50	2631.64
1013.65	2676.70
1013.81	2582.49
1013.97	2594.78
1014.13	2664.41
1014.29	2676.70
1014.44	2676.70
1014.60	2564.06
1014.76	2648.02
1014.92	2598.87
1015.07	2600.92
1015.23	2572.25
1015.39	2545.63
1015.55	2635.74
1015.71	2473.95
1015.86	2600.92
1016.02	2475.99
1016.18	2455.51
1016.34	2475.99
1016.49	2537.43
1016.65	2617.30
1016.81	2443.23
1016.97	2461.66
1017.12	2549.72
1017.28	2383.84
1017.44	2394.08
1017.60	2420.70
1017.75	2514.91
1017.91	2525.15
1018.07	2519.00
1018.23	2465.75
1018.38	2467.80
1018.54	2527.19
1018.70	2486.23
1018.86	2420.70
1019.01	2369.50
1019.17	2410.46
1019.33	2469.85
1019.49	2363.36
1019.64	2449.37
1019.80	2478.04
1019.96	2465.75
1020.12	2404.32
1020.27	2383.84
1020.43	2336.73
1020.59	2426.84
1020.74	2330.59
1020.90	2410.46
1021.06	2420.70
1021.22	2306.01
1021.37	2312.16
1021.53	2291.68
1021.69	2338.78
1021.84	2240.48
1022.00	2336.73
1022.16	2316.25
1022.31	2265.05
1022.47	2314.20
1022.63	2394.08
1022.79	2193.37
1022.94	2297.82
1023.10	2365.40
1023.26	2265.05
1023.41	2287.58
1023.57	2359.26
1023.73	2306.01
1023.88	2318.30
1024.04	2172.89
1024.20	2129.89
1024.35	2342.88
1024.51	2248.67
1024.67	2207.71
1024.82	2265.05
1024.98	2164.70
1025.14	2293.72
1025.29	2220.00
1025.45	2228.19
1025.61	2140.13
1025.76	2162.66
1025.92	2168.80
1026.08	2238.43
1026.23	2164.70
1026.39	2154.46
1026.55	2209.76
1026.70	2158.56
1026.86	2156.51
1027.02	2232.29
1027.17	2162.66
1027.33	2160.61
1027.48	2158.56
1027.64	2080.74
1027.80	2166.75
1027.95	2131.94
1028.11	2043.87
1028.27	2088.93
1028.42	2111.46
1028.58	2084.83
1028.73	2086.88
1028.89	2086.88
1029.05	2162.66
1029.20	2217.95
>>>>>End Processed Spectral Data<<<<<
