SpectraSuite Data File
++++++++++++++++++++++++++++++++++++
Date: Fri Jun 02 14:44:32 CEST 2017
User: INFO_000
Dark Spectrum Present: No
Reference Spectrum Present: No
Number of Sampled Component Spectra: 1
Spectrometers: USB4H00879
Integration Time (usec): 80000 (USB4H00879)
Spectra Averaged: 1 (USB4H00879)
Boxcar Smoothing: 0 (USB4H00879)
Correct for Electrical Dark: No (USB4H00879)
Strobe/Lamp Enabled: No (USB4H00879)
Correct for Detector Non-linearity: No (USB4H00879)
Correct for Stray Light: No (USB4H00879)
Number of Pixels in Processed Spectrum: 3648
>>>>>Begin Processed Spectral Data<<<<<
345.13	1288.17
345.34	1288.17
345.56	1288.17
345.78	1273.84
345.99	1273.84
346.21	1634.28
346.42	1583.08
346.64	1699.81
346.86	1816.55
347.07	1693.67
347.29	1693.67
347.50	1624.04
347.72	1718.25
347.94	1699.81
348.15	1535.98
348.37	1615.85
348.59	1703.91
348.80	1609.70
349.02	1759.21
349.23	1857.51
349.45	1810.40
349.67	1918.95
349.88	1810.40
350.10	1955.81
350.31	1839.08
350.53	1767.40
350.75	1912.80
350.96	1724.39
351.18	1847.27
351.39	1884.13
351.61	1796.07
351.82	1843.17
352.04	1951.71
352.26	1820.64
352.47	1898.47
352.69	1970.15
352.90	1757.16
353.12	1859.56
353.34	1830.88
353.55	1918.95
353.77	1855.46
353.98	1773.54
354.20	1843.17
354.41	1861.60
354.63	1886.18
354.85	2054.11
355.06	1847.27
355.28	1705.96
355.49	1828.84
355.71	1851.36
355.92	1822.69
356.14	1929.19
356.35	1861.60
356.57	1820.64
356.79	1949.67
357.00	1886.18
357.22	2047.97
357.43	1802.21
357.65	2009.06
357.86	1931.23
358.08	1890.28
358.29	1863.65
358.51	1978.34
358.72	1978.34
358.94	1929.19
359.16	1849.32
359.37	1949.67
359.59	1990.63
359.80	1994.72
360.02	1945.57
360.23	1933.28
360.45	2056.16
360.66	1910.75
360.88	1834.98
361.09	1920.99
361.31	1986.53
361.52	1916.90
361.74	1968.10
361.95	2023.39
362.17	1974.24
362.38	2056.16
362.60	2047.97
362.81	1970.15
363.03	1984.48
363.24	2011.11
363.46	2090.98
363.67	2007.01
363.89	2004.96
364.10	2080.74
364.32	1994.72
364.53	1988.58
364.75	1884.13
364.96	2000.87
365.18	1992.67
365.39	1994.72
365.61	2027.49
365.82	2142.18
366.04	1980.39
366.25	1990.63
366.47	2117.60
366.68	2090.98
366.90	1916.90
367.11	2011.11
367.33	2023.39
367.54	2084.83
367.76	2023.39
367.97	2099.17
368.19	2025.44
368.40	2160.61
368.62	1972.19
368.83	1980.39
369.05	2037.73
369.26	1964.00
369.48	1949.67
369.69	1996.77
369.91	2062.30
370.12	2000.87
370.33	2084.83
370.55	2000.87
370.76	2099.17
370.98	2099.17
371.19	2050.02
371.41	2023.39
371.62	2009.06
371.84	2000.87
372.05	2090.98
372.27	2023.39
372.48	2097.12
372.69	2070.50
372.91	2142.18
373.12	2127.84
373.34	2148.32
373.55	2207.71
373.77	2105.31
373.98	2129.89
374.20	2164.70
374.41	2265.05
374.62	2043.87
374.84	2144.22
375.05	2199.52
375.27	2183.13
375.48	2207.71
375.70	2174.94
375.91	2215.90
376.12	2189.28
376.34	2203.61
376.55	2164.70
376.77	2123.74
376.98	2068.45
377.19	2189.28
377.41	2121.70
377.62	2242.53
377.84	2146.27
378.05	2344.92
378.27	2197.47
378.48	2353.12
378.69	2402.27
378.91	2346.97
379.12	2289.63
379.34	2271.20
379.55	2338.78
379.76	2217.95
379.98	2197.47
380.19	2312.16
380.41	2256.86
380.62	2299.87
380.83	2209.76
381.05	2222.05
381.26	2418.65
381.47	2246.62
381.69	2273.25
381.90	2455.51
382.12	2267.10
382.33	2320.35
382.54	2344.92
382.76	2330.59
382.97	2285.53
383.19	2295.77
383.40	2361.31
383.61	2293.72
383.83	2306.01
384.04	2293.72
384.25	2291.68
384.47	2330.59
384.68	2322.40
384.89	2324.44
385.11	2369.50
385.32	2414.56
385.54	2312.16
385.75	2383.84
385.96	2475.99
386.18	2400.22
386.39	2383.84
386.60	2375.64
386.82	2445.27
387.03	2424.80
387.24	2496.47
387.46	2504.67
387.67	2471.90
387.88	2461.66
388.10	2408.41
388.31	2508.76
388.52	2555.86
388.74	2490.33
388.95	2486.23
389.16	2619.35
389.38	2469.85
389.59	2578.39
389.80	2578.39
390.02	2596.82
390.23	2592.73
390.44	2510.81
390.66	2490.33
390.87	2383.84
391.08	2586.58
391.30	2770.90
391.51	2627.54
391.72	2643.93
391.94	2658.26
392.15	2598.87
392.36	2637.78
392.58	2600.92
392.79	2699.22
393.00	2746.33
393.22	2787.29
393.43	2869.20
393.64	2885.59
393.85	2803.67
394.07	2605.02
394.28	2688.98
394.49	2854.87
394.71	2748.37
394.92	2914.26
395.13	2678.74
395.35	2787.29
395.56	2789.33
395.77	2785.24
395.98	2865.11
396.20	2893.78
396.41	2863.06
396.62	2881.49
396.84	2891.73
397.05	2818.00
397.26	2891.73
397.47	2949.08
397.69	2844.63
397.90	3055.57
398.11	2977.75
398.32	2904.02
398.54	2899.92
398.75	2832.34
398.96	3084.24
399.18	3065.81
399.39	3018.71
399.60	3145.68
399.81	2932.69
400.03	3010.51
400.24	3223.50
400.45	3018.71
400.66	3096.53
400.88	3026.90
401.09	3215.31
401.30	2996.18
401.51	3182.54
401.73	3114.96
401.94	3094.48
402.15	3047.38
402.36	3108.82
402.58	3254.22
402.79	3176.40
403.00	3114.96
403.21	3129.30
403.43	3246.03
403.64	3352.52
403.85	3102.67
404.06	3323.85
404.27	3063.76
404.49	3211.22
404.70	3196.88
404.91	3256.27
405.12	3289.04
405.34	3325.90
405.55	3465.16
405.76	3301.33
405.97	3203.02
406.19	3395.53
406.40	3319.76
406.61	3301.33
406.82	3348.43
407.03	3395.53
407.25	3340.24
407.46	3434.44
407.67	3502.03
407.88	3422.16
408.09	3428.30
408.31	3428.30
408.52	3393.48
408.73	3399.63
408.94	3373.00
409.15	3432.40
409.37	3407.82
409.58	3481.55
409.79	3624.90
410.00	3557.32
410.21	3387.34
410.43	3444.68
410.64	3379.15
410.85	3590.09
411.06	3612.62
411.27	3497.93
411.48	3499.98
411.70	3489.74
411.91	3616.71
412.12	3622.86
412.33	3633.10
412.54	3583.95
412.76	3674.06
412.97	3688.39
413.18	3542.99
413.39	3760.07
413.60	3710.92
413.81	3751.88
414.03	3608.52
414.24	3629.00
414.45	3745.73
414.66	3608.52
414.87	3778.50
415.08	3669.96
415.30	3758.02
415.51	3725.26
415.72	3712.97
415.93	3733.45
416.14	3909.57
416.35	3862.47
416.56	3801.03
416.78	3813.32
416.99	4018.11
417.20	3774.41
417.41	3905.48
417.62	3792.84
417.83	3948.48
418.04	3944.39
418.26	3878.85
418.47	3917.76
418.68	4052.93
418.89	3962.82
419.10	4108.23
419.31	3919.81
419.52	4042.69
419.73	4065.22
419.95	4116.42
420.16	3999.68
420.37	4108.23
420.58	4079.55
420.79	3958.72
421.00	4112.32
421.21	4134.85
421.42	4140.99
421.63	4267.97
421.85	4261.82
422.06	4227.01
422.27	4163.52
422.48	4296.64
422.69	4384.70
422.90	4214.72
423.11	4358.08
423.32	4329.41
423.53	4417.47
423.75	4237.25
423.96	4452.28
424.17	4343.74
424.38	4509.63
424.59	4388.80
424.80	4612.03
425.01	4511.68
425.22	4427.71
425.43	4437.95
425.64	4569.02
425.85	4685.75
426.06	4591.55
426.28	4489.15
426.49	4607.93
426.70	4480.96
426.91	4730.81
427.12	4704.18
427.33	4800.44
427.54	4589.50
427.75	4775.86
427.96	4777.91
428.17	4761.53
428.38	4714.42
428.59	4831.16
428.80	4810.68
429.01	4888.50
429.23	4841.40
429.44	5068.72
429.65	4923.32
429.86	5035.96
430.07	4831.16
430.28	4904.89
430.49	5038.00
430.70	5081.01
430.91	5167.03
431.12	5132.21
431.33	5113.78
431.54	5171.12
431.75	5060.53
431.96	5074.87
432.17	5109.68
432.38	5162.93
432.59	5400.49
432.80	5242.80
433.01	5175.22
433.22	5363.63
433.43	5373.87
433.64	5326.77
433.85	5250.99
434.06	5296.05
434.27	5230.51
434.49	5359.53
434.70	5431.21
434.91	5611.43
435.12	5490.60
435.33	5552.04
435.54	5500.84
435.75	5345.20
435.96	5468.08
436.17	5476.27
436.38	5734.31
436.59	5599.15
436.80	5445.55
437.01	5887.91
437.22	5830.57
437.43	5758.89
437.64	5519.28
437.85	5779.37
438.06	6041.51
438.27	5670.83
438.48	5699.50
438.69	5732.26
438.90	5853.09
439.11	5767.08
439.32	6016.93
439.53	5900.20
439.74	6041.51
439.95	5922.73
440.16	5926.82
440.37	5912.49
440.57	5849.00
440.78	6023.08
440.99	6148.00
441.20	5961.64
441.41	5930.92
441.62	6047.65
441.83	6047.65
442.04	6182.82
442.25	6209.44
442.46	6080.42
442.67	6236.06
442.88	6573.98
443.09	6205.35
443.30	6125.47
443.51	6197.15
443.72	6608.80
443.93	6201.25
444.14	6524.83
444.35	6260.64
444.56	6436.77
444.77	6449.05
444.98	6541.21
445.19	6451.10
445.40	6451.10
445.61	6461.34
445.81	6596.51
446.02	6545.31
446.23	6514.59
446.44	6348.70
446.65	6504.35
446.86	6506.40
447.07	6760.34
447.28	6748.06
447.49	6727.58
447.70	6674.33
447.91	6641.56
448.12	6571.93
448.33	6881.18
448.54	6774.68
448.74	6688.67
448.95	6832.02
449.16	6844.31
449.37	7112.60
449.58	6920.09
449.79	6918.04
450.00	6598.56
450.21	7047.06
450.42	7141.27
450.63	7176.08
450.84	7079.83
451.05	6977.43
451.25	7155.60
451.46	6973.33
451.67	7194.51
451.88	7423.89
452.09	7360.40
452.30	7292.82
452.51	7206.80
452.72	7468.94
452.93	7692.17
453.13	7096.21
453.34	7161.75
453.55	7278.48
453.76	7329.68
453.97	7729.03
454.18	7477.13
454.39	7575.44
454.60	7507.85
454.81	7393.17
455.01	7798.66
455.22	7452.56
455.43	7724.94
455.64	7802.76
455.85	8093.57
456.06	8087.43
456.27	7905.16
456.48	7704.46
456.68	7890.82
456.89	7823.24
457.10	7860.10
457.31	7917.45
457.52	8013.70
457.73	8101.76
457.94	8122.24
458.14	7993.22
458.35	8529.79
458.56	8316.80
458.77	8081.28
458.98	8171.40
459.19	8431.49
459.39	8300.42
459.60	8480.64
459.81	8279.94
460.02	8654.72
460.23	8527.74
460.44	8705.92
460.65	8714.11
460.85	8689.53
461.06	8775.55
461.27	8572.80
461.48	8966.01
461.69	8810.36
461.89	8761.21
462.10	8916.86
462.31	8793.98
462.52	8693.63
462.73	9006.97
462.94	9174.90
463.14	9232.24
463.35	9262.96
463.56	9469.81
463.77	9416.56
463.98	9217.91
464.18	9369.46
464.39	9527.15
464.60	9750.38
464.81	9727.85
465.02	9635.69
465.23	9779.05
465.43	9627.50
465.64	9895.78
465.85	9873.26
466.06	9670.51
466.27	10065.77
466.47	10012.52
466.68	10252.13
466.89	10106.73
467.10	10190.69
467.30	9977.70
467.51	10467.17
467.72	10588.00
467.93	10454.88
468.14	10608.48
468.34	10737.50
468.55	10833.75
468.76	10688.35
468.97	10631.01
469.17	10876.76
469.38	10987.35
469.59	11218.77
469.80	10835.80
470.01	11077.46
470.21	11190.10
470.42	11349.84
470.63	11501.39
470.84	11239.25
471.04	11435.86
471.25	11482.96
471.46	11501.39
471.67	11921.23
471.87	11761.48
472.08	11820.88
472.29	11972.43
472.50	11734.86
472.70	11667.28
472.91	12031.82
473.12	12230.47
473.33	12160.84
473.53	12222.28
473.74	12144.45
473.95	12504.90
474.16	12711.74
474.36	12554.05
474.57	12853.05
474.78	12851.00
474.99	12873.53
475.19	12744.51
475.40	13141.82
475.61	13424.44
475.81	13274.93
476.02	13535.03
476.23	13201.21
476.44	13403.96
476.64	13643.57
476.85	13840.17
477.06	13645.62
477.27	13854.51
477.47	13999.91
477.68	13934.38
477.89	14094.12
478.09	14300.97
478.30	14128.94
478.51	14231.33
478.71	14397.22
478.92	14313.25
479.13	14737.18
479.34	14714.66
479.54	14413.60
479.75	14853.92
479.96	14622.50
480.16	15101.72
480.37	14925.60
480.58	15243.03
480.78	15589.14
480.99	15312.66
481.20	15675.15
481.41	15671.06
481.61	15458.07
481.82	15929.10
482.03	15419.16
482.23	15777.55
482.44	16006.92
482.65	16094.99
482.85	15939.34
483.06	16129.80
483.27	16228.10
483.47	16375.56
483.68	16525.06
483.89	16430.85
484.09	16572.16
484.30	16604.93
484.51	16576.26
484.71	17000.19
484.92	16979.71
485.13	16965.37
485.33	17098.49
485.54	17241.85
485.75	17454.84
485.95	17444.60
486.16	17463.03
486.37	17659.63
486.57	17575.67
486.78	17587.96
486.98	17544.95
487.19	17913.58
487.40	17944.30
487.60	17985.26
487.81	18231.02
488.02	17970.93
488.22	18212.59
488.43	18343.66
488.64	18370.28
488.84	18818.78
489.05	18706.15
489.25	18493.16
489.46	19001.05
489.67	18837.22
489.87	19220.19
490.08	19068.64
490.29	19365.59
490.49	19998.41
490.70	19484.37
490.90	19691.22
491.11	19459.80
491.32	19865.30
491.52	19900.11
491.73	20098.77
491.94	20025.04
492.14	20035.28
492.35	20301.51
492.55	20385.48
492.76	20276.94
492.97	20453.06
493.17	20451.02
493.38	20412.10
493.58	20833.99
493.79	21006.02
494.00	20747.97
494.20	21044.93
494.41	21219.00
494.61	20928.19
494.82	21262.01
495.02	21192.38
495.23	21538.49
495.44	21731.00
495.64	21268.16
495.85	21741.24
496.05	21984.94
496.26	21825.20
496.47	22222.51
496.67	21778.10
496.88	22161.07
497.08	22023.86
497.29	22326.96
497.49	22191.79
497.70	22423.21
497.91	22570.66
498.11	22785.70
498.32	22767.27
498.52	22881.95
498.73	23168.67
498.93	23180.96
499.14	23299.74
499.34	23047.84
499.55	23309.98
499.76	23289.50
499.96	23735.96
500.17	23404.19
500.37	23690.90
500.58	23754.39
500.78	23654.04
500.99	23658.14
501.19	23987.86
501.40	23996.05
501.60	23924.37
501.81	24475.27
502.02	24372.88
502.22	24002.19
502.43	24295.05
502.63	24401.55
502.84	24667.78
503.04	24712.84
503.25	24485.51
503.45	24831.62
503.66	25112.19
503.86	24993.41
504.07	25194.11
504.27	25210.50
504.48	25357.95
504.68	25063.04
504.89	25546.36
505.09	25503.35
505.30	25394.81
505.50	25650.81
505.71	25534.07
505.91	25632.38
506.12	25749.11
506.32	25757.30
506.53	25466.49
506.73	25845.37
506.94	26152.56
507.14	25949.81
507.35	26211.95
507.55	25933.43
507.76	25919.09
507.96	25865.85
508.17	26279.54
508.37	26240.62
508.58	26044.02
508.78	26281.58
508.99	26898.02
509.19	26797.67
509.40	26756.71
509.60	26783.34
509.81	27078.24
510.01	26539.63
510.22	26631.79
510.42	26877.54
510.63	26883.69
510.83	26945.12
511.04	26754.66
511.24	27018.85
511.44	26764.90
511.65	27014.76
511.85	27100.77
512.06	27356.77
512.26	27326.05
512.47	27334.24
512.67	27389.53
512.88	27360.86
513.08	27313.76
513.29	27254.37
513.49	27612.76
513.69	27280.99
513.90	27598.43
514.10	27825.75
514.31	27608.67
514.51	27811.42
514.72	27590.24
514.92	27784.79
515.13	27580.00
515.33	27790.94
515.53	27555.42
515.74	27965.01
515.94	28192.34
516.15	27858.52
516.35	27825.75
516.56	28403.28
516.76	28175.95
516.96	28202.58
517.17	28544.59
517.37	28159.57
517.58	28073.56
517.78	28673.61
517.99	28235.35
518.19	28497.49
518.39	28776.01
518.60	28888.65
518.80	28429.90
519.01	28620.36
519.21	28624.46
519.41	28829.26
519.62	28630.60
519.82	28837.45
520.03	28884.55
520.23	28995.14
520.43	29128.26
520.64	29359.68
520.84	29470.27
521.05	29345.34
521.25	29666.88
521.45	29361.73
521.66	29627.96
521.86	29443.65
522.07	29417.02
522.27	29525.57
522.47	29695.55
522.68	30297.65
522.88	29922.87
523.08	30068.28
523.29	30203.44
523.49	30256.69
523.70	30383.66
523.90	30451.25
524.10	30479.92
524.31	30557.74
524.51	30078.52
524.71	30666.28
524.92	30441.01
525.12	31002.15
525.33	31157.80
525.53	30883.37
525.73	31264.29
525.94	31100.45
526.14	31196.71
526.34	31303.20
526.55	31491.62
526.75	31491.62
526.95	31565.34
527.16	31807.00
527.36	31622.69
527.56	31974.94
527.77	31970.84
527.97	31948.31
528.17	32110.10
528.38	32476.69
528.58	32335.38
528.78	32554.51
528.99	32501.26
529.19	32833.04
529.39	32380.43
529.60	32912.91
529.80	32773.64
530.00	32689.68
530.21	33156.61
530.41	33371.65
530.61	33175.05
530.82	33318.40
531.02	33027.59
531.22	33584.64
531.43	33496.58
531.63	33867.26
531.83	34047.48
532.04	34577.90
532.24	33924.60
532.44	34487.79
532.64	34266.61
532.85	34616.82
533.05	34446.83
533.25	34473.46
533.46	34526.71
533.66	34786.80
533.86	34784.75
534.07	35306.98
534.27	34960.87
534.47	35261.93
534.67	35511.78
534.88	35216.87
535.08	35632.61
535.28	35788.25
535.49	35937.76
535.69	35943.90
535.89	35950.04
536.09	36105.69
536.30	36670.93
536.50	36402.64
536.70	36351.45
536.91	36537.81
537.11	36525.52
537.31	36949.45
537.51	36681.17
537.72	37139.91
537.92	37133.77
538.12	37344.71
538.32	37301.70
538.53	37643.71
538.73	37619.14
538.93	37486.02
539.13	37868.99
539.34	37612.99
539.54	37635.52
539.74	38333.88
539.94	37770.69
540.15	37789.12
540.35	38286.78
540.55	38188.47
540.75	38043.07
540.96	38426.04
541.16	38391.22
541.36	38440.37
541.56	38634.93
541.77	38622.64
541.97	38534.58
542.17	39130.54
542.37	38845.87
542.58	38827.44
542.78	38981.04
542.98	38960.56
543.18	39095.72
543.38	39777.70
543.59	39796.13
543.79	39253.42
543.99	39271.85
544.19	39556.52
544.40	39572.90
544.60	39560.61
544.80	39984.54
545.00	40318.36
545.20	39837.09
545.41	40041.88
545.61	39939.49
545.81	40195.48
546.01	40371.61
546.21	40365.46
546.42	39976.35
546.62	40863.12
546.82	40306.07
547.02	39955.87
547.22	40426.90
547.43	40469.91
547.63	40387.99
547.83	40719.76
548.03	40474.01
548.23	40883.60
548.44	40770.96
548.64	40623.51
548.84	40846.74
549.04	40637.84
549.24	40889.74
549.45	41190.80
549.65	40957.33
549.85	40521.11
550.05	41147.79
550.25	40912.27
550.45	41295.24
550.66	40922.51
550.86	41072.01
551.06	41700.74
551.26	41405.83
551.46	41301.39
551.66	41338.25
551.87	41297.29
552.07	41489.80
552.27	41559.43
552.47	41756.03
552.67	41547.14
552.87	41358.73
553.07	41436.55
553.28	41872.77
553.48	41915.78
553.68	41534.85
553.88	42225.02
554.08	41667.97
554.28	41719.17
554.48	41780.61
554.69	42067.33
554.89	41778.56
555.09	42087.81
555.29	41833.86
555.49	42071.42
555.69	41989.50
555.89	41868.67
556.10	42395.00
556.30	42263.93
556.50	42321.27
556.70	42038.65
556.90	42179.96
557.10	42476.92
557.30	42147.20
557.50	42225.02
557.70	42677.62
557.91	42360.19
558.11	42282.36
558.31	42431.86
558.51	41973.12
558.71	42511.74
558.91	42460.54
559.11	42767.73
559.31	42648.95
559.51	42415.48
559.72	42694.00
559.92	42229.12
560.12	42503.54
560.32	42626.42
560.52	42626.42
560.72	43160.94
560.92	42833.27
561.12	42749.30
561.32	42853.75
561.52	42745.20
561.72	43197.80
561.93	42853.75
562.13	42642.81
562.33	42706.29
562.53	43189.61
562.73	43185.52
562.93	42898.80
563.13	43005.30
563.33	42784.12
563.53	43310.44
563.73	43021.68
563.93	43074.93
564.13	43408.75
564.33	43339.11
564.53	43433.32
564.74	43980.13
564.94	43335.02
565.14	43283.82
565.34	43306.35
565.54	43617.64
565.74	43558.25
565.94	43621.73
566.14	43218.28
566.34	43734.37
566.54	43799.91
566.74	43371.88
566.94	43828.58
567.14	43980.13
567.34	43511.14
567.54	44135.77
567.74	43795.81
567.94	44369.24
568.14	44008.80
568.34	44322.14
568.54	43924.83
568.74	44698.97
568.94	44234.08
569.14	44782.93
569.34	44381.53
569.54	44696.92
569.75	44291.42
569.95	44565.85
570.15	45137.23
570.35	44506.46
570.55	44690.77
570.75	44889.43
570.95	44918.10
571.15	45118.80
571.35	45094.22
571.55	45421.90
571.75	44848.47
571.95	45395.28
572.15	44971.35
572.35	45155.66
572.55	45364.56
572.75	45575.50
572.95	45282.64
573.15	45434.19
573.35	45587.78
573.55	45565.26
573.75	45743.43
573.95	45696.33
574.15	45593.93
574.35	45958.47
574.55	45909.32
574.75	46136.64
574.95	46261.57
575.15	46226.75
575.34	46216.51
575.54	46480.70
575.74	46435.64
575.94	46728.50
576.14	46333.24
576.34	46728.50
576.54	46488.89
576.74	46867.76
576.94	46535.99
577.14	47011.12
577.34	47215.92
577.54	46884.15
577.74	46978.36
577.94	47189.30
578.14	47269.17
578.34	47418.67
578.54	47166.77
578.74	47043.89
578.94	47519.02
579.14	47301.93
579.34	47543.59
579.54	47494.44
579.74	48141.60
579.94	47457.58
580.13	47990.05
580.33	48145.70
580.53	48020.77
580.73	47854.89
580.93	48192.80
581.13	48272.67
581.33	48608.54
581.53	48346.40
581.73	48266.53
581.93	48309.53
582.13	48647.45
582.33	49011.99
582.53	48518.43
582.73	49235.22
582.92	48936.21
583.12	48579.87
583.32	48559.39
583.52	48606.49
583.72	49032.47
583.92	49304.85
584.12	49331.47
584.32	49370.38
584.52	48815.38
584.72	49075.48
584.92	49034.52
585.11	49653.00
585.31	49265.94
585.51	49732.87
585.71	49319.18
585.91	49722.63
586.11	49722.63
586.31	49425.68
586.51	50013.44
586.71	49497.36
586.91	50066.69
587.10	49782.02
587.30	50033.92
587.50	50068.74
587.70	50289.92
587.90	50205.95
588.10	50124.04
588.30	50087.17
588.50	50343.17
588.69	50345.22
588.89	50476.29
589.09	50504.96
589.29	50713.85
589.49	50873.59
589.69	50451.71
589.89	50855.16
590.08	50590.97
590.28	50279.68
590.48	50545.92
590.68	50781.43
590.88	50568.44
591.08	50982.13
591.28	50369.79
591.47	51471.60
591.67	51246.32
591.87	50902.26
592.07	50959.61
592.27	51174.64
592.47	50861.30
592.67	50871.54
592.86	50918.65
593.06	50941.17
593.26	50955.51
593.46	50920.70
593.66	50920.70
593.86	51385.58
594.05	50896.12
594.25	51240.18
594.45	51002.61
594.65	51397.87
594.85	50836.73
595.05	51328.24
595.24	51270.90
595.44	51506.41
595.64	51375.34
595.84	51453.17
596.04	51447.02
596.23	51502.32
596.43	51643.63
596.63	51746.03
596.83	51365.10
597.03	51682.54
597.22	52038.89
597.42	52018.41
597.62	51834.09
597.82	51784.94
598.02	51729.64
598.21	52092.13
598.41	51899.62
598.61	51983.59
598.81	51864.81
599.01	51979.49
599.20	51852.52
599.40	51819.75
599.60	52305.12
599.80	52376.80
600.00	52133.09
600.19	52311.27
600.39	51829.99
600.59	52100.32
600.79	52180.20
600.98	52215.01
601.18	52110.56
601.38	52403.42
601.58	52393.18
601.78	52581.60
601.97	52581.60
602.17	52507.87
602.37	52524.25
602.57	52655.32
602.76	52993.24
602.96	52389.09
603.16	53011.67
603.36	53017.82
603.55	53015.77
603.75	52618.46
603.95	53116.12
604.15	53187.80
604.34	52712.67
604.54	52374.75
604.74	53105.88
604.94	53259.48
605.13	53152.98
605.33	53191.89
605.53	52757.72
605.73	53411.02
605.92	52694.24
606.12	53435.60
606.32	53046.49
606.52	52810.97
606.71	53093.59
606.91	53388.50
607.11	52761.82
607.30	53499.09
607.50	53015.77
607.70	53517.52
607.90	53343.44
608.09	53533.90
608.29	53333.20
608.49	53589.20
608.68	53351.63
608.88	53687.50
609.08	53484.75
609.28	53937.35
609.47	53601.49
609.67	53728.46
609.87	53820.62
610.06	53654.73
610.26	53411.02
610.46	53896.39
610.66	53753.04
610.85	54379.71
611.05	53691.60
611.25	53984.46
611.44	53605.58
611.64	53695.69
611.84	53617.87
612.03	53953.74
612.23	53802.19
612.43	53912.78
612.62	53961.93
612.82	53765.32
613.02	54078.66
613.21	54203.59
613.41	53785.80
613.61	54568.13
613.80	54084.81
614.00	54088.90
614.20	53923.02
614.39	53937.35
614.59	54516.93
614.79	54277.32
614.98	54156.49
615.18	54052.04
615.38	54766.78
615.57	54189.25
615.77	54359.23
615.97	54181.06
616.16	54281.41
616.36	53943.50
616.56	54547.65
616.75	54133.96
616.95	54011.08
617.15	54541.50
617.34	54400.19
617.54	54392.00
617.74	54826.17
617.93	54525.12
618.13	54152.39
618.32	54154.44
618.52	54039.75
618.72	54803.64
618.91	54484.16
619.11	54406.34
619.31	54658.24
619.50	54072.52
619.70	54072.52
619.90	54684.86
620.09	54428.87
620.29	54318.28
620.48	54789.31
620.68	55059.64
620.88	54295.75
621.07	54549.70
621.27	54955.19
621.46	54557.89
621.66	54547.65
621.86	55106.74
622.05	54418.63
622.25	54875.32
622.44	54799.55
622.64	54543.55
622.84	54744.25
623.03	54559.94
623.23	54619.33
623.42	54893.75
623.62	55084.22
623.82	55366.84
624.01	54807.74
624.21	55293.11
624.40	55010.49
624.60	54727.87
624.80	54760.64
624.99	55200.95
625.19	54719.68
625.38	55088.31
625.58	54951.10
625.77	55276.72
625.97	55542.96
626.17	55303.35
626.36	55532.72
626.56	55434.42
626.75	54805.69
626.95	55504.05
627.14	54985.91
627.34	55751.85
627.54	55354.55
627.73	55727.28
627.93	55174.33
628.12	55246.00
628.32	55506.10
628.51	55688.37
628.71	55250.10
628.90	55151.80
629.10	55661.74
629.30	55776.43
629.49	55225.53
629.69	55581.87
629.88	55721.13
630.08	55745.71
630.27	55966.89
630.47	55704.75
630.66	55600.30
630.86	56124.58
631.05	55477.43
631.25	56358.05
631.44	55776.43
631.64	56087.72
631.84	56124.58
632.03	56470.69
632.23	56349.86
632.42	56226.98
632.62	56083.62
632.81	56073.38
633.01	56325.28
633.20	56272.04
633.40	56290.47
633.59	56317.09
633.79	56024.23
633.98	56089.77
634.18	56087.72
634.37	56599.71
634.57	56253.61
634.76	56229.03
634.96	56153.26
635.15	56327.33
635.35	56229.03
635.54	56097.96
635.74	56743.07
635.93	56081.58
636.13	56632.48
636.32	56603.81
636.52	56132.78
636.71	56288.42
636.91	56452.26
637.10	56259.75
637.30	56243.37
637.49	56399.01
637.69	56310.95
637.88	56634.53
638.08	56097.96
638.27	56628.38
638.46	56802.46
638.66	56593.57
638.85	57191.58
639.05	57023.64
639.24	56874.14
639.44	56583.33
639.63	56712.35
639.83	57021.59
640.02	56413.35
640.22	56523.94
640.41	56845.47
640.61	56669.34
640.80	56960.15
640.99	56911.00
641.19	56923.29
641.38	56810.65
641.58	56769.69
641.77	56421.54
641.97	56931.48
642.16	56573.09
642.36	57042.07
642.55	57171.10
642.74	56298.66
642.94	57353.36
643.13	56845.47
643.33	56882.33
643.52	57085.08
643.72	56929.44
643.91	57021.59
644.10	56816.80
644.30	56743.07
644.49	56702.11
644.69	57152.66
644.88	57054.36
645.08	56956.06
645.27	56728.73
645.46	56816.80
645.66	57267.35
645.85	56734.88
646.05	57015.45
646.24	57062.55
646.43	56988.83
646.63	57468.05
646.82	57136.28
647.02	57261.21
647.21	57296.02
647.40	57279.64
647.60	57369.75
647.79	57265.30
647.99	57316.50
648.18	57162.90
648.37	57164.95
648.57	57242.77
648.76	57230.49
648.96	57136.28
649.15	57029.79
649.34	57373.84
649.54	57531.54
649.73	56558.75
649.92	57101.46
650.12	56743.07
650.31	56906.91
650.51	57189.53
650.70	57056.41
650.89	56997.02
651.09	57406.61
651.28	57445.52
651.47	57463.96
651.67	57453.72
651.86	57597.07
652.06	56429.73
652.25	57390.23
652.44	56736.93
652.64	57169.05
652.83	56630.43
653.02	56718.49
653.22	57062.55
653.41	56792.22
653.60	56640.67
653.80	56614.05
653.99	56802.46
654.18	56732.83
654.38	56624.29
654.57	57341.08
654.76	56954.01
654.96	56685.73
655.15	56417.44
655.34	56501.41
655.54	56120.49
655.73	56790.17
655.92	56415.40
656.12	56376.48
656.31	56474.79
656.50	56652.96
656.70	56958.11
656.89	56536.23
657.08	56857.76
657.28	56472.74
657.47	56378.53
657.66	56534.18
657.86	56771.74
658.05	56327.33
658.24	56661.15
658.43	56505.51
658.63	56620.19
658.82	56456.35
659.01	56595.62
659.21	56321.19
659.40	56353.96
659.59	56405.16
659.79	56444.07
659.98	56439.97
660.17	56599.71
660.36	56482.98
660.56	56290.47
660.75	56618.14
660.94	56079.53
661.14	56403.11
661.33	56702.11
661.52	56183.97
661.71	56771.74
661.91	55714.99
662.10	56226.98
662.29	56806.56
662.49	56460.45
662.68	56226.98
662.87	56458.40
663.06	56597.66
663.26	56370.34
663.45	56698.01
663.64	56329.38
663.83	56685.73
664.03	56921.24
664.22	56325.28
664.41	56356.00
664.60	56771.74
664.80	56153.26
664.99	56075.43
665.18	56339.62
665.37	56374.44
665.57	56417.44
665.76	55573.68
665.95	56376.48
666.14	56466.59
666.34	56020.14
666.53	56728.73
666.72	56077.48
666.91	56136.87
667.11	55719.09
667.30	56161.45
667.49	56181.93
667.68	56034.47
667.87	55973.03
668.07	56181.93
668.26	55932.07
668.45	56456.35
668.64	55841.96
668.84	56874.14
669.03	56442.02
669.22	56384.68
669.41	56149.16
669.60	56495.27
669.80	55641.26
669.99	56038.57
670.18	56034.47
670.37	56429.73
670.57	56499.36
670.76	56110.25
670.95	56059.05
671.14	55997.61
671.33	56243.37
671.53	56661.15
671.72	56126.63
671.91	56167.59
672.10	55936.17
672.29	55975.08
672.48	56198.31
672.68	56511.65
672.87	55997.61
673.06	56036.52
673.25	55932.07
673.44	56048.81
673.64	55612.59
673.83	56343.72
674.02	56018.09
674.21	55803.05
674.40	56394.92
674.59	55745.71
674.79	55870.64
674.98	56040.62
675.17	56118.44
675.36	56050.86
675.55	56210.60
675.74	55989.42
675.94	56038.57
676.13	56104.10
676.32	56069.29
676.51	56341.67
676.70	56089.77
676.89	56188.07
677.08	56229.03
677.28	56296.61
677.47	56462.50
677.66	56579.23
677.85	56136.87
678.04	56636.58
678.23	56597.66
678.42	56362.15
678.62	56505.51
678.81	56376.48
679.00	56546.47
679.19	56399.01
679.38	56503.46
679.57	56353.96
679.76	56259.75
679.96	56470.69
680.15	56321.19
680.34	56140.97
680.53	56714.40
680.72	56431.78
680.91	56382.63
681.10	56374.44
681.29	56693.92
681.48	56186.02
681.68	56536.23
681.87	56433.83
682.06	56642.72
682.25	56392.87
682.44	56274.09
682.63	56171.69
682.82	56290.47
683.01	56620.19
683.20	56259.75
683.39	56564.90
683.59	56382.63
683.78	56061.10
683.97	56409.25
684.16	56251.56
684.35	56386.72
684.54	56503.46
684.73	56186.02
684.92	55981.23
685.11	56562.85
685.30	56145.06
685.49	56220.84
685.69	56313.00
685.88	56040.62
686.07	56419.49
686.26	56157.35
686.45	56489.12
686.64	56425.64
686.83	56442.02
687.02	56380.58
687.21	56618.14
687.40	56724.64
687.59	56331.43
687.78	56206.50
687.97	56812.70
688.16	56446.11
688.35	56313.00
688.54	56405.16
688.74	56325.28
688.93	56409.25
689.12	56489.12
689.31	56427.68
689.50	56802.46
689.69	55846.06
689.88	55882.92
690.07	56530.08
690.26	56685.73
690.45	56974.49
690.64	56126.63
690.83	56356.00
691.02	55680.17
691.21	56419.49
691.40	56116.39
691.59	56536.23
691.78	56128.68
691.97	56546.47
692.16	56530.08
692.35	56411.30
692.54	56218.79
692.73	56517.79
692.92	56644.77
693.11	56448.16
693.30	56009.90
693.49	56362.15
693.68	56231.08
693.87	56194.21
694.06	55975.08
694.25	55893.16
694.44	55964.84
694.63	56325.28
694.82	56206.50
695.01	56267.94
695.20	56235.17
695.39	56186.02
695.58	56403.11
695.77	56284.33
695.96	56169.64
696.15	55884.97
696.34	55864.49
696.53	55817.39
696.72	55852.20
696.91	56063.14
697.10	56040.62
697.29	55753.90
697.48	56310.95
697.67	55864.49
697.86	55301.30
698.05	55569.58
698.24	55497.91
698.43	55567.54
698.62	56120.49
698.81	55362.74
699.00	55631.02
699.19	55493.81
699.38	56081.58
699.57	55422.13
699.76	55801.00
699.95	55282.87
700.14	55133.37
700.32	55481.52
700.51	55794.86
700.70	55821.48
700.89	56059.05
701.08	55669.93
701.27	55758.00
701.46	55575.73
701.65	54924.47
701.84	55399.60
702.03	55229.62
702.22	54977.72
702.41	55174.33
702.60	55561.39
702.79	55106.74
702.98	54873.27
703.17	55010.49
703.35	55006.39
703.54	54695.10
703.73	55958.70
703.92	54930.62
704.11	54883.51
704.30	54797.50
704.49	54465.73
704.68	54629.57
704.87	55014.58
705.06	54990.01
705.25	54559.94
705.43	55053.50
705.62	54985.91
705.81	54793.40
706.00	54682.81
706.19	54514.88
706.38	53908.68
706.57	54662.33
706.76	54375.62
706.95	54150.34
707.14	54027.46
707.32	54367.43
707.51	53972.17
707.70	54389.95
707.89	54215.88
708.08	54080.71
708.27	54258.88
708.46	54629.57
708.65	54045.90
708.84	54232.26
709.02	54170.82
709.21	54179.01
709.40	53814.47
709.59	53712.08
709.78	53476.56
709.97	54043.85
710.16	53585.10
710.34	53535.95
710.53	53902.54
710.72	53511.38
710.91	53800.14
711.10	53806.28
711.29	53849.29
711.48	53222.61
711.66	53028.05
711.85	53177.56
712.04	53494.99
712.23	52708.57
712.42	52999.38
712.61	53476.56
712.80	53284.05
712.98	53464.27
713.17	52980.95
713.36	52880.60
713.55	53114.07
713.74	53023.96
713.93	52782.30
714.11	52649.18
714.30	52499.68
714.49	52643.04
714.68	52569.31
714.87	52659.42
715.06	52622.56
715.24	52851.93
715.43	52294.88
715.62	52368.61
715.81	52374.75
716.00	52505.82
716.18	51961.06
716.37	51553.52
716.56	51895.53
716.75	52094.18
716.94	52024.55
717.12	51850.47
717.31	51627.24
717.50	52016.36
717.69	51946.73
717.88	51868.90
718.06	51762.41
718.25	52215.01
718.44	51608.81
718.63	51553.52
718.82	50984.18
719.00	51451.12
719.19	51395.82
719.38	51483.89
719.57	50771.19
719.76	51145.97
719.94	50205.95
720.13	50390.27
720.32	50752.76
720.51	50558.20
720.69	50509.05
720.88	50382.08
721.07	50113.80
721.26	50027.78
721.44	50259.20
721.63	50189.57
721.82	49872.14
722.01	50257.15
722.20	50091.27
722.38	49689.87
722.57	49505.55
722.76	50216.19
722.95	49816.84
723.13	49831.18
723.32	49806.60
723.51	49284.37
723.70	49450.25
723.88	49356.05
724.07	49055.00
724.26	49198.35
724.44	48219.42
724.63	49063.19
724.82	49313.04
725.01	48500.00
725.19	49325.33
725.38	48659.74
725.57	48985.36
725.76	48905.49
725.94	48409.89
726.13	48452.89
726.32	48715.03
726.51	48301.34
726.69	48672.03
726.88	48682.27
727.07	48762.14
727.25	48465.18
727.44	48731.42
727.63	48536.86
727.82	48842.01
728.00	48211.23
728.19	48622.87
728.38	48749.85
728.56	48379.17
728.75	48506.14
728.94	48114.98
729.12	48280.86
729.31	48293.15
729.50	47945.00
729.69	48252.19
729.87	48278.82
730.06	47953.19
730.25	48137.51
730.43	48391.45
730.62	47932.71
730.81	48317.73
730.99	48037.16
731.18	48145.70
731.37	48244.00
731.55	48055.59
731.74	48381.21
731.93	48583.96
732.11	48178.46
732.30	48198.94
732.49	48010.53
732.67	47863.08
732.86	47580.46
733.05	47398.19
733.23	47664.42
733.42	47813.93
733.61	47770.92
733.79	47453.48
733.98	47666.47
734.17	47516.97
734.35	47584.55
734.54	47570.22
734.73	47723.82
734.91	47234.35
735.10	47543.59
735.29	47977.76
735.47	47084.85
735.66	47398.19
735.84	47158.58
736.03	46961.97
736.22	47668.52
736.40	46976.31
736.59	47535.40
736.78	47310.13
736.96	47197.49
737.15	47308.08
737.33	47312.17
737.52	46767.41
737.71	47099.19
737.89	47150.38
738.08	47105.33
738.27	46900.53
738.45	47578.41
738.64	47217.97
738.82	47322.41
739.01	47373.61
739.20	47052.08
739.38	46785.85
739.57	47236.40
739.75	46808.37
739.94	46871.86
740.13	46452.03
740.31	47029.55
740.50	46796.09
740.68	47326.51
740.87	46587.19
741.06	46763.32
741.24	46806.33
741.43	46273.85
741.61	46595.38
741.80	46808.37
741.99	46693.69
742.17	46275.90
742.36	46851.38
742.54	46546.23
742.73	46370.11
742.91	47125.81
743.10	46550.33
743.29	46519.61
743.47	46425.40
743.66	46544.19
743.84	46605.62
744.03	46429.50
744.21	46175.55
744.40	46847.29
744.59	46191.94
744.77	45864.26
744.96	46409.02
745.14	46226.75
745.33	46339.39
745.51	46325.05
745.70	46220.61
745.88	46355.77
746.07	46253.37
746.26	45843.78
746.44	46093.63
746.63	46009.67
746.81	46286.14
747.00	45897.03
747.18	46083.39
747.37	45970.75
747.55	46058.82
747.74	45753.67
747.92	45733.19
748.11	45589.83
748.29	45806.92
748.48	46187.84
748.66	45725.00
748.85	45813.06
749.03	46093.63
749.22	46085.44
749.41	45548.87
749.59	45993.28
749.78	45667.66
749.96	45239.63
750.15	46007.62
750.33	45839.68
750.52	46077.25
750.70	45413.71
750.89	45544.78
751.07	45475.15
751.26	45796.68
751.44	45606.22
751.63	45677.90
751.81	45088.08
752.00	45221.20
752.18	45745.48
752.37	45221.20
752.55	45155.66
752.74	45520.20
752.92	45264.21
753.10	45108.56
753.29	45657.42
753.47	45217.10
753.66	44979.54
753.84	45851.97
754.03	45116.75
754.21	44868.95
754.40	45155.66
754.58	45188.43
754.77	45178.19
754.95	45145.42
755.14	44948.82
755.32	45135.18
755.51	44739.93
755.69	45200.72
755.88	45389.13
756.06	45434.19
756.24	44944.72
756.43	44590.42
756.61	44658.01
756.80	44856.66
756.98	44815.70
757.17	44961.11
757.35	44905.81
757.54	44291.42
757.72	44565.85
757.90	44440.92
758.09	44938.58
758.27	44762.45
758.46	44115.29
758.64	44635.48
758.83	44639.57
759.01	44660.05
759.19	44451.16
759.38	44750.17
759.56	44709.21
759.75	44459.35
759.93	44561.75
760.12	44146.01
760.30	44459.35
760.48	44774.74
760.67	44455.26
760.85	44406.11
761.04	44420.44
761.22	44643.67
761.40	44453.21
761.59	44176.73
761.77	44248.41
761.96	44518.74
762.14	44332.38
762.32	43926.88
762.51	44103.01
762.69	44457.31
762.88	44133.73
763.06	44103.01
763.24	44299.61
763.43	44141.92
763.61	43758.95
763.80	44285.28
763.98	43654.50
764.16	43820.39
764.35	43724.13
764.53	43586.92
764.72	43896.16
764.90	43763.04
765.08	43427.18
765.27	43541.86
765.45	43476.33
765.63	43068.78
765.82	43777.38
766.00	43494.76
766.18	43349.35
766.37	43359.59
766.55	43398.51
766.74	43605.35
766.92	43316.59
767.10	43414.89
767.29	43040.11
767.47	42155.39
767.65	43023.73
767.84	43011.44
768.02	43621.73
768.20	42849.65
768.39	43013.49
768.57	43119.98
768.75	42843.51
768.94	43257.20
769.12	42831.22
769.30	42919.28
769.49	43003.25
769.67	42814.83
769.85	42741.11
770.04	42954.10
770.22	42562.93
770.40	42001.79
770.59	42386.81
770.77	42630.52
770.95	42311.03
771.14	42554.74
771.32	42212.73
771.50	42542.45
771.69	42560.89
771.87	42534.26
772.05	42458.49
772.24	41772.42
772.42	42495.35
772.60	42177.92
772.78	42157.44
772.97	41670.02
773.15	42417.53
773.33	42386.81
773.52	42081.66
773.70	41897.34
773.88	42632.57
774.07	42020.22
774.25	41801.09
774.43	42159.48
774.61	42278.27
774.80	42372.47
774.98	42261.88
775.16	42044.80
775.34	42141.05
775.53	42026.37
775.71	42270.08
775.89	42139.00
776.08	42222.97
776.26	42128.77
776.44	42538.36
776.62	42048.89
776.81	41827.71
776.99	41903.49
777.17	41774.47
777.35	42081.66
777.54	42423.67
777.72	41717.12
777.90	42425.72
778.08	42421.62
778.27	42214.78
778.45	42464.63
778.63	42470.78
778.81	42034.56
779.00	42567.03
779.18	42515.83
779.36	42874.23
779.54	42943.86
779.73	42595.70
779.91	42528.12
780.09	42499.45
780.27	42642.81
780.46	42521.98
780.64	42753.40
780.82	42724.72
781.00	42732.92
781.19	42685.81
781.37	42923.38
781.55	42888.56
781.73	42853.75
781.91	42767.73
782.10	42906.99
782.28	43005.30
782.46	42863.99
782.64	43275.63
782.82	42792.31
783.01	43240.81
783.19	43232.62
783.37	42665.33
783.55	42720.63
783.74	43173.23
783.92	42730.87
784.10	43042.16
784.28	42943.86
784.46	42655.09
784.64	42939.76
784.83	42849.65
785.01	43335.02
785.19	42564.98
785.37	42917.23
785.55	42710.39
785.74	42421.62
785.92	42870.13
786.10	43054.45
786.28	42866.03
786.46	42653.05
786.64	41915.78
786.83	42489.21
787.01	42728.82
787.19	42648.95
787.37	42665.33
787.55	42571.13
787.74	42161.53
787.92	42313.08
788.10	41876.86
788.28	41819.52
788.46	42317.18
788.64	42198.40
788.82	42487.16
789.01	42048.89
789.19	41819.52
789.37	41616.77
789.55	41817.47
789.73	41526.66
789.91	41600.39
790.09	41682.31
790.28	41213.32
790.46	41209.23
790.64	41721.22
790.82	41436.55
791.00	41045.39
791.18	41117.07
791.36	41039.25
791.55	41274.76
791.73	40973.71
791.91	40592.79
792.09	40703.38
792.27	40777.11
792.45	40510.87
792.63	40637.84
792.81	40340.89
793.00	40517.01
793.18	40596.88
793.36	40338.84
793.54	39935.39
793.72	39908.77
793.90	39974.30
794.08	39765.41
794.26	39859.62
794.44	39321.00
794.62	39288.23
794.81	39540.13
794.99	39099.82
795.17	39134.63
795.35	39044.52
795.53	39554.47
795.71	39196.07
795.89	38735.28
796.07	38704.56
796.25	38679.99
796.43	38632.88
796.61	38446.52
796.80	38809.01
796.98	38624.69
797.16	38305.21
797.34	38337.98
797.52	37934.53
797.70	38450.61
797.88	38047.16
798.06	37608.90
798.24	37909.95
798.42	37766.59
798.60	37805.50
798.78	37213.64
798.96	37430.72
799.14	37303.75
799.32	37320.13
799.51	37008.84
799.69	37238.22
799.87	37635.52
800.05	36816.33
800.23	36902.35
800.41	36761.04
800.59	36640.21
800.77	36451.80
800.95	36132.31
801.13	36378.07
801.31	36247.00
801.49	36203.99
801.67	35984.86
801.85	36177.37
802.03	35737.05
802.21	35800.54
802.39	35517.92
802.57	35673.57
802.75	35294.69
802.93	35603.94
803.11	35421.67
803.29	35122.66
803.47	35239.40
803.65	35349.99
803.83	35071.46
804.01	35155.43
804.19	34774.51
804.37	34649.58
804.55	34729.45
804.73	34620.91
804.91	34579.95
805.09	34534.90
805.27	34268.66
805.45	34526.71
805.63	34291.19
805.81	34000.38
805.99	34104.82
806.17	34272.76
806.35	34201.08
806.53	33740.29
806.71	33691.13
806.89	33893.88
807.07	33840.64
807.25	33697.28
807.43	33424.90
807.61	33877.50
807.79	33562.11
807.97	33232.39
808.15	33428.99
808.33	32957.96
808.51	32777.74
808.69	33086.98
808.87	32779.79
809.05	32658.96
809.23	32816.65
809.41	32566.80
809.59	32577.04
809.77	32712.20
809.95	32302.61
810.13	32656.91
810.31	32271.89
810.49	32296.47
810.67	32501.26
810.84	32159.25
811.02	32304.66
811.20	31749.66
811.38	32198.16
811.56	31782.43
811.74	31921.69
811.92	31460.90
812.10	31745.56
812.28	31927.83
812.46	31520.29
812.64	31475.23
812.82	31395.36
813.00	31333.92
813.18	31481.38
813.36	31061.54
813.53	31135.27
813.71	30991.91
813.89	31053.35
814.07	30801.45
814.25	30813.74
814.43	30830.12
814.61	30750.25
814.79	30768.68
814.97	30428.72
815.15	30809.64
815.33	30527.02
815.50	30545.45
815.68	30686.76
815.86	30596.65
816.04	30262.83
816.22	30189.11
816.40	30445.10
816.58	29941.30
816.76	30070.33
816.94	30127.67
817.11	30123.57
817.29	29761.08
817.47	29849.14
817.65	29775.42
817.83	29718.07
818.01	29703.74
818.19	29713.98
818.37	29523.52
818.54	29435.45
818.72	29410.88
818.90	29382.21
819.08	29232.71
819.26	29455.93
819.44	29142.60
819.62	29138.50
819.80	29105.73
819.97	29472.32
820.15	29201.99
820.33	28810.82
820.51	29417.02
820.69	28997.19
820.87	28876.36
821.05	28804.68
821.22	28976.71
821.40	28792.39
821.58	28528.20
821.76	28704.33
821.94	28945.99
822.12	28667.47
822.29	28552.78
822.47	28431.95
822.65	28692.04
822.83	28479.05
823.01	28436.05
823.19	28186.19
823.36	28403.28
823.54	28089.94
823.72	28218.96
823.90	28024.40
824.08	27795.03
824.25	28118.61
824.43	27776.60
824.61	27891.29
824.79	27926.10
824.97	27770.46
825.15	27702.87
825.32	28280.40
825.50	27643.48
825.68	27797.08
825.86	27647.58
826.04	27551.32
826.21	27612.76
826.39	27334.24
826.57	27367.01
826.75	27459.16
826.93	27061.86
827.10	26959.46
827.28	27500.12
827.46	27516.51
827.64	27149.92
827.81	26922.60
827.99	27117.15
828.17	27190.88
828.35	26936.93
828.53	26830.44
828.70	26936.93
828.88	27012.71
829.06	26814.05
829.24	27166.31
829.41	26986.08
829.59	27104.87
829.77	26775.14
829.95	26834.53
830.12	26812.01
830.30	26746.47
830.48	26807.91
830.66	26875.49
830.84	27047.52
831.01	26379.89
831.19	26830.44
831.37	26510.96
831.55	26549.87
831.72	26750.57
831.90	26406.51
832.08	26543.72
832.25	26472.04
832.43	26500.72
832.61	26386.03
832.79	26152.56
832.96	26263.15
833.14	26404.46
833.32	26504.81
833.50	26365.55
833.67	26347.12
833.85	26089.07
834.03	25908.85
834.20	26103.41
834.38	25990.77
834.56	26105.46
834.74	25912.95
834.91	25871.99
835.09	25945.72
835.27	25570.94
835.44	25972.34
835.62	25622.14
835.80	25495.16
835.98	26052.21
836.15	26125.94
836.33	25507.45
836.51	25767.54
836.68	25495.16
836.86	25708.15
837.04	25747.06
837.21	25503.35
837.39	25734.78
837.57	25570.94
837.75	25425.53
837.92	25013.89
838.10	25175.68
838.28	25323.13
838.45	25228.93
838.63	25089.67
838.81	25267.84
838.98	25462.40
839.16	25601.66
839.34	25128.58
839.51	25222.78
839.69	25181.82
839.87	25054.85
840.04	25192.06
840.22	25222.78
840.40	24749.70
840.57	24749.70
840.75	24901.25
840.93	24802.95
841.10	24948.36
841.28	25034.37
841.46	25056.90
841.63	25032.32
841.81	25110.14
841.98	24800.90
842.16	24563.34
842.34	24768.13
842.51	24637.06
842.69	24745.61
842.87	24800.90
843.04	24942.21
843.22	24442.51
843.40	24555.15
843.57	24456.84
843.75	24899.20
843.92	24778.37
844.10	24616.58
844.28	24577.67
844.45	24516.23
844.63	24665.74
844.81	24260.24
844.98	24516.23
845.16	24524.43
845.33	24360.59
845.51	24233.61
845.69	24258.19
845.86	24166.03
846.04	24192.65
846.21	24260.24
846.39	24116.88
846.57	24114.83
846.74	24057.49
846.92	23717.53
847.09	24120.98
847.27	24049.30
847.45	24053.39
847.62	24030.87
847.80	24067.73
847.97	24008.34
848.15	23697.05
848.32	23551.64
848.50	23934.61
848.68	23570.07
848.85	23772.82
849.03	23453.34
849.20	24037.01
849.38	23551.64
849.56	23785.11
849.73	23486.11
849.91	23787.16
850.08	23971.47
850.26	23338.65
850.43	23422.62
850.61	23541.40
850.78	23080.61
850.96	23363.23
851.14	23545.50
851.31	23801.49
851.49	23371.42
851.66	23498.39
851.84	23465.63
852.01	23398.04
852.19	23350.94
852.36	23547.54
852.54	23193.25
852.71	23096.99
852.89	23406.23
853.07	23174.81
853.24	22777.51
853.42	23017.12
853.59	23330.46
853.77	23058.08
853.94	23312.03
854.12	23418.52
854.29	23180.96
854.47	23148.19
854.64	23107.23
854.82	22976.16
854.99	23060.13
855.17	22779.56
855.34	22615.72
855.52	23170.72
855.69	22802.08
855.87	22677.16
856.04	22554.28
856.22	22490.79
856.39	22687.40
856.57	22797.99
856.74	22838.95
856.92	22630.05
857.09	22638.25
857.27	22376.11
857.44	22539.94
857.62	22574.76
857.79	22625.96
857.97	22406.83
858.14	22437.55
858.32	22437.55
858.49	22415.02
858.67	22505.13
858.84	22671.01
859.02	22355.63
859.19	22263.47
859.37	22337.20
859.54	22234.80
859.72	22501.03
859.89	22232.75
860.06	22286.00
860.24	22331.05
860.41	22083.25
860.59	21817.01
860.76	22054.58
860.94	21829.30
861.11	21872.31
861.29	22091.44
861.46	22009.52
861.64	21876.40
861.81	22042.29
861.98	21892.79
862.16	21798.58
862.33	21958.32
862.51	21800.63
862.68	21663.41
862.86	21630.65
863.03	21837.49
863.21	21909.17
863.38	21442.23
863.55	21587.64
863.73	21747.38
863.90	21464.76
864.08	21622.45
864.25	21636.79
864.43	21403.32
864.60	21466.81
864.77	21366.46
864.95	21431.99
865.12	20971.20
865.30	21259.96
865.47	21413.56
865.64	21329.59
865.82	21546.68
865.99	21530.30
866.17	21339.83
866.34	21223.10
866.51	21171.90
866.69	21266.11
866.86	21233.34
867.04	21198.52
867.21	20956.86
867.38	20975.30
867.56	20899.52
867.73	20981.44
867.91	20874.95
868.08	21112.51
868.25	20940.48
868.43	20770.50
868.60	20840.13
868.78	20905.66
868.95	21153.47
869.12	20934.34
869.30	20625.09
869.47	20887.23
869.64	20649.67
869.82	20543.17
869.99	20512.46
870.16	20768.45
870.34	20621.00
870.51	20627.14
870.69	20356.81
870.86	20262.60
871.03	20332.23
871.21	20209.36
871.38	20301.51
871.55	20319.95
871.73	20002.51
871.90	20303.56
872.07	20276.94
872.25	19939.02
872.42	19957.46
872.59	20088.53
872.77	19867.34
872.94	19805.91
873.11	19959.50
873.29	19887.82
873.46	19680.98
873.63	19648.21
873.81	19836.63
873.98	19601.11
874.15	19793.62
874.33	19345.11
874.50	19549.91
874.67	19599.06
874.85	19484.37
875.02	19271.39
875.19	19334.87
875.37	19365.59
875.54	19338.97
875.71	19386.07
875.88	19054.30
876.06	19226.33
876.23	19037.92
876.40	19044.06
876.58	19097.31
876.75	19005.15
876.92	19105.50
877.10	19015.39
877.27	18912.99
877.44	18890.46
877.61	18714.34
877.79	18515.69
877.96	18773.73
878.13	18861.79
878.31	18775.78
878.48	18669.28
878.65	18878.18
878.82	18372.33
879.00	18683.62
879.17	18484.97
879.34	18562.79
879.51	18261.74
879.69	18159.34
879.86	18247.40
880.03	18312.94
880.21	18157.29
880.38	18190.06
880.55	18415.34
880.72	17956.59
880.90	18032.36
881.07	18206.44
881.24	17964.78
881.41	18157.29
881.59	17841.90
881.76	18093.80
881.93	17944.30
882.10	17794.80
882.28	17796.85
882.45	17936.11
882.62	17741.55
882.79	18169.58
882.96	17495.80
883.14	17829.62
883.31	17782.51
883.48	17848.05
883.65	17651.44
883.83	17647.35
884.00	17821.42
884.17	17561.33
884.34	17747.70
884.51	17878.77
884.69	17563.38
884.86	17381.11
885.03	17452.79
885.20	17243.90
885.38	17422.07
885.55	17571.57
885.72	17417.97
885.89	17594.10
886.06	17524.47
886.24	17493.75
886.41	17217.27
886.58	17235.70
886.75	17460.98
886.92	16918.27
887.10	17354.49
887.27	17309.43
887.44	17129.21
887.61	17227.51
887.78	17073.92
887.95	17303.29
888.13	17016.57
888.30	16871.17
888.47	16803.58
888.64	16930.56
888.81	16965.37
888.99	16664.32
889.16	16930.56
889.33	16668.42
889.50	16545.54
889.67	16574.21
889.84	16500.48
890.01	16588.55
890.19	16733.95
890.36	16600.83
890.53	16512.77
890.70	16258.82
890.87	16424.71
891.04	16416.52
891.22	16572.16
891.39	16320.26
891.56	16264.97
891.73	16103.18
891.90	16123.66
892.07	16017.16
892.24	16150.28
892.42	16170.76
892.59	16123.66
892.76	15873.81
892.93	15875.85
893.10	16174.86
893.27	16140.04
893.44	16381.70
893.61	15828.75
893.79	15902.48
893.96	15781.65
894.13	15914.77
894.30	15894.29
894.47	15793.94
894.64	15857.42
894.81	16019.21
894.98	15927.05
895.15	15943.44
895.33	15718.16
895.50	15521.56
895.67	16031.50
895.84	15755.02
896.01	15730.45
896.18	15611.67
896.35	15761.17
896.52	15785.74
896.69	15535.89
896.86	15646.48
897.04	15347.48
897.21	15640.34
897.38	15402.77
897.55	15744.78
897.72	15990.54
897.89	15683.34
898.06	15697.68
898.23	15683.34
898.40	15654.67
898.57	15591.19
898.74	15554.32
898.91	15576.85
899.08	15615.76
899.26	15492.88
899.43	15486.74
899.60	15570.71
899.77	15681.30
899.94	15345.43
900.11	15261.46
900.28	15341.33
900.45	15277.85
900.62	15269.66
900.79	15777.55
900.96	15222.55
901.13	15468.31
901.30	15441.68
901.47	15212.31
901.64	15318.81
901.81	15402.77
901.98	15249.18
902.15	15353.62
902.32	15046.43
902.49	15333.14
902.66	15281.94
902.83	15341.33
903.01	15134.49
903.18	15154.97
903.35	15265.56
903.52	15200.02
903.69	15544.08
903.86	15494.93
904.03	15361.81
904.20	15372.05
904.37	15617.81
904.54	15183.64
904.71	15300.37
904.88	15439.64
905.05	15288.09
905.22	15165.21
905.39	15077.15
905.56	15331.09
905.73	15384.34
905.90	15253.27
906.07	15304.47
906.24	15505.17
906.41	15372.05
906.58	15224.60
906.75	15099.67
906.92	14948.12
907.09	15169.30
907.26	15261.46
907.43	14999.32
907.60	14978.84
907.77	15226.65
907.93	15146.78
908.10	15095.58
908.27	15091.48
908.44	14958.36
908.61	15066.91
908.78	14966.56
908.95	15288.09
909.12	14999.32
909.29	15114.01
909.46	15054.62
909.63	15167.26
909.80	14999.32
909.97	14999.32
910.14	14948.12
910.31	14894.88
910.48	14917.40
910.65	14921.50
910.82	14780.19
910.99	14782.24
911.16	14876.44
911.33	14804.77
911.50	14726.94
911.66	14634.78
911.83	14825.25
912.00	14589.73
912.17	14505.76
912.34	14624.54
912.51	14473.00
912.68	14528.29
912.85	14505.76
913.02	14536.48
913.19	14409.51
913.36	14503.71
913.53	14655.26
913.70	14503.71
913.86	14552.87
914.03	14528.29
914.20	14384.93
914.37	14249.77
914.54	14200.62
914.71	14413.60
914.88	14415.65
915.05	14368.55
915.22	14169.90
915.39	14384.93
915.55	14130.98
915.72	13938.48
915.89	14087.98
916.06	13817.65
916.23	13885.23
916.40	13907.76
916.57	14008.11
916.74	13934.38
916.91	13721.39
917.07	13731.63
917.24	13733.68
917.41	13705.01
917.58	13676.34
917.75	13485.87
917.92	13645.62
918.09	13492.02
918.26	13377.33
918.42	13451.06
918.59	13498.16
918.76	13256.50
918.93	13049.66
919.10	13414.20
919.27	13399.86
919.44	13358.90
919.60	13504.31
919.77	12943.16
919.94	13145.91
920.11	13137.72
920.28	13254.45
920.45	13027.13
920.61	12693.31
920.78	13098.81
920.95	12799.80
921.12	13104.95
921.29	12799.80
921.46	12599.10
921.62	12412.74
921.79	12701.50
921.96	12658.49
922.13	12588.86
922.30	12543.81
922.47	12248.90
922.63	12408.64
922.80	12597.06
922.97	12216.13
923.14	12033.86
923.31	12363.59
923.47	12109.64
923.64	12236.61
923.81	12150.60
923.98	12199.75
924.15	12037.96
924.32	12080.97
924.48	12005.19
924.65	12232.52
924.82	11824.97
924.99	11802.44
925.15	11589.46
925.32	11855.69
925.49	11812.68
925.66	11681.61
925.83	11593.55
925.99	11614.03
926.16	11482.96
926.33	11659.09
926.50	11403.09
926.67	11603.79
926.83	11485.01
927.00	11353.94
927.17	11097.94
927.34	11099.99
927.50	11171.67
927.67	11243.35
927.84	11208.53
928.01	11214.68
928.17	11132.76
928.34	10903.39
928.51	10954.58
928.68	10749.79
928.84	10907.48
929.01	10700.64
929.18	10565.47
929.35	10495.84
929.51	10780.51
929.68	10487.65
929.85	10430.30
930.02	10354.53
930.18	10588.00
930.35	10499.94
930.52	10344.29
930.69	10440.54
930.85	10370.91
931.02	10385.25
931.19	10162.02
931.36	10192.74
931.52	10184.55
931.69	10094.44
931.86	10133.35
932.02	10061.67
932.19	9912.17
932.36	9785.19
932.53	9981.80
932.69	9645.93
932.86	9830.25
933.03	9742.19
933.19	9453.42
933.36	9570.16
933.53	9758.57
933.70	9576.30
933.86	9404.27
934.03	9504.62
934.20	9336.69
934.36	9547.63
934.53	9195.38
934.70	9219.96
934.86	9201.52
935.03	9090.93
935.20	9191.28
935.36	8892.28
935.53	8818.55
935.70	8867.70
935.86	8800.12
936.03	8687.48
936.20	8402.82
936.36	8542.08
936.53	8466.30
936.70	8419.20
936.86	8445.82
937.03	8304.51
937.20	8157.06
937.36	8279.94
937.53	7851.91
937.70	7993.22
937.86	7716.75
938.03	7612.30
938.20	7872.39
938.36	7505.81
938.53	7626.64
938.70	7460.75
938.86	7415.69
939.03	7200.66
939.20	7057.30
939.36	7206.80
939.53	7018.39
939.70	7288.72
939.86	6954.90
940.03	6891.41
940.19	6694.81
940.36	6879.13
940.53	6629.27
940.69	6657.95
940.86	6629.27
941.03	6414.24
941.19	6150.05
941.36	6416.29
941.52	6303.65
941.69	6287.26
941.86	6098.85
942.02	6094.76
942.19	6074.28
942.35	6150.05
942.52	6002.60
942.69	6064.04
942.85	5838.76
943.02	5801.90
943.18	5744.55
943.35	5748.65
943.52	5666.73
943.68	5703.59
943.85	5603.24
944.01	5619.63
944.18	5566.38
944.35	5541.80
944.51	5513.13
944.68	5265.33
944.84	5384.11
945.01	5392.30
945.17	5289.90
945.34	5539.76
945.51	5539.76
945.67	5439.40
945.84	5408.69
946.00	5271.47
946.17	5160.88
946.33	5160.88
946.50	5304.24
946.67	5289.90
946.83	5279.66
947.00	5377.97
947.16	5214.13
947.33	5255.09
947.49	5271.47
947.66	5216.18
947.82	5316.53
947.99	5236.66
948.16	5373.87
948.32	5242.80
948.49	5291.95
948.65	5312.43
948.82	5218.22
948.98	5162.93
949.15	5109.68
949.31	5302.19
949.48	5138.35
949.64	5087.15
949.81	5246.90
949.97	5281.71
950.14	5369.77
950.30	5181.36
950.47	5318.57
950.63	5285.81
950.80	5316.53
950.96	5304.24
951.13	5324.72
951.30	5326.77
951.46	5343.15
951.63	5326.77
951.79	5369.77
951.96	5384.11
952.12	5398.45
952.29	5398.45
952.45	5179.31
952.62	5439.40
952.78	5371.82
952.94	5408.69
953.11	5400.49
953.27	5230.51
953.44	5513.13
953.60	5590.95
953.77	5552.04
953.93	5496.75
954.10	5492.65
954.26	5398.45
954.43	5427.12
954.59	5570.48
954.76	5691.31
954.92	5339.05
955.09	5435.31
955.25	5445.55
955.42	5480.36
955.58	5570.48
955.75	5398.45
955.91	5418.93
956.07	5386.16
956.24	5418.93
956.40	5529.52
956.57	5550.00
956.73	5529.52
956.90	5572.52
957.06	5320.62
957.23	5517.23
957.39	5457.84
957.56	5484.46
957.72	5328.81
957.88	5316.53
958.05	5574.57
958.21	5564.33
958.38	5509.04
958.54	5402.54
958.71	5494.70
958.87	5492.65
959.03	5556.14
959.20	5527.47
959.36	5361.58
959.53	5447.60
959.69	5427.12
959.85	5552.04
960.02	5537.71
960.18	5603.24
960.35	5597.10
960.51	5715.88
960.68	5373.87
960.84	5533.61
961.00	5427.12
961.17	5433.26
961.33	5367.73
961.50	5492.65
961.66	5359.53
961.82	5435.31
961.99	5588.91
962.15	5242.80
962.31	5490.60
962.48	5529.52
962.64	5427.12
962.81	5494.70
962.97	5470.12
963.13	5554.09
963.30	5533.61
963.46	5365.68
963.62	5357.49
963.79	5439.40
963.95	5314.48
964.12	5353.39
964.28	5330.86
964.44	5285.81
964.61	5349.29
964.77	5414.83
964.93	5525.42
965.10	5408.69
965.26	5341.10
965.42	5318.57
965.59	5271.47
965.75	5320.62
965.92	5300.14
966.08	5337.01
966.24	5267.38
966.41	5236.66
966.57	5384.11
966.73	5375.92
966.90	5312.43
967.06	5312.43
967.22	5275.57
967.39	5212.08
967.55	5226.42
967.71	5363.63
967.88	5212.08
968.04	5339.05
968.20	5287.86
968.37	5218.22
968.53	5265.33
968.69	5224.37
968.85	5382.06
969.02	5373.87
969.18	5130.16
969.34	5095.35
969.51	5152.69
969.67	5250.99
969.83	5164.98
970.00	5199.79
970.16	5156.79
970.32	5103.54
970.48	5326.77
970.65	5078.96
970.81	5046.20
970.97	5044.15
971.14	4995.00
971.30	5246.90
971.46	5111.73
971.63	5007.28
971.79	5109.68
971.95	5048.24
972.11	5056.43
972.28	5048.24
972.44	5173.17
972.60	4958.13
972.76	5064.63
972.93	4988.85
973.09	4982.71
973.25	5007.28
973.42	4966.32
973.58	5064.63
973.74	5017.52
973.90	5054.39
974.07	4908.98
974.23	5015.48
974.39	4919.22
974.55	5066.67
974.72	4906.93
974.88	4775.86
975.04	4825.01
975.20	4863.93
975.37	4925.36
975.53	4927.41
975.69	4841.40
975.85	4851.64
976.01	4757.43
976.18	4796.34
976.34	4749.24
976.50	4804.53
976.66	4927.41
976.83	4777.91
976.99	4757.43
977.15	4728.76
977.31	4675.51
977.47	4755.38
977.64	4685.75
977.80	4704.18
977.96	4730.81
978.12	4747.19
978.29	4706.23
978.45	4593.59
978.61	4552.63
978.77	4595.64
978.93	4652.98
979.10	4704.18
979.26	4603.83
979.42	4575.16
979.58	4511.68
979.74	4566.97
979.91	4497.34
980.07	4575.16
980.23	4366.27
980.39	4472.76
980.55	4540.35
980.71	4517.82
980.88	4427.71
981.04	4442.04
981.20	4591.55
981.36	4626.36
981.52	4378.56
981.68	4489.15
981.85	4517.82
982.01	4448.19
982.17	4401.08
982.33	4396.99
982.49	4532.15
982.65	4423.61
982.82	4304.83
982.98	4360.13
983.14	4333.50
983.30	4411.32
983.46	4622.27
983.62	4380.61
983.79	4302.78
983.95	4259.78
984.11	4206.53
984.27	4278.21
984.43	4388.80
984.59	4243.39
984.75	4306.88
984.91	4159.42
985.08	4345.79
985.24	4140.99
985.40	4206.53
985.56	4200.38
985.72	4317.12
985.88	4306.88
986.04	4108.23
986.20	4140.99
986.37	4102.08
986.53	4081.60
986.69	4188.10
986.85	4093.89
987.01	4009.92
987.17	4143.04
987.33	4097.99
987.49	4003.78
987.65	4206.53
987.82	4118.47
987.98	4003.78
988.14	3952.58
988.30	4083.65
988.46	4018.11
988.62	4014.02
988.78	4007.87
988.94	3997.64
989.10	3973.06
989.26	3919.81
989.42	3901.38
989.59	3825.61
989.75	3936.20
989.91	4089.79
990.07	3821.51
990.23	3755.97
990.39	3835.85
990.55	3991.49
990.71	3862.47
990.87	3764.17
991.03	3839.94
991.19	3903.43
991.35	3805.13
991.51	3848.13
991.67	3975.11
991.83	3858.37
992.00	3846.09
992.16	3889.09
992.32	3876.80
992.48	3870.66
992.64	3649.48
992.80	3764.17
992.96	3680.20
993.12	3755.97
993.28	3829.70
993.44	3678.15
993.60	3672.01
993.76	3721.16
993.92	3762.12
994.08	3731.40
994.24	3698.63
994.40	3764.17
994.56	3710.92
994.72	3571.66
994.88	3563.47
995.04	3686.34
995.20	3686.34
995.36	3647.43
995.52	3669.96
995.68	3674.06
995.84	3604.42
996.00	3678.15
996.16	3534.79
996.32	3567.56
996.48	3616.71
996.64	3661.77
996.80	3446.73
996.96	3489.74
997.12	3561.42
997.28	3481.55
997.44	3463.12
997.60	3368.91
997.76	3465.16
997.92	3432.40
998.08	3565.51
998.24	3360.72
998.40	3471.31
998.56	3452.88
998.72	3368.91
998.88	3336.14
999.04	3289.04
999.20	3403.72
999.36	3377.10
999.52	3424.20
999.68	3336.14
999.84	3370.96
1000.00	3428.30
1000.16	3399.63
1000.32	3309.52
1000.48	3409.87
1000.64	3282.89
1000.80	3213.26
1000.95	3243.98
1001.11	3274.70
1001.27	3221.45
1001.43	3264.46
1001.59	3209.17
1001.75	3217.36
1001.91	3237.84
1002.07	3231.69
1002.23	3209.17
1002.39	3149.78
1002.55	3289.04
1002.71	3233.74
1002.87	3117.01
1003.03	3227.60
1003.19	3198.93
1003.34	3260.37
1003.50	3182.54
1003.66	3252.17
1003.82	3123.15
1003.98	3039.19
1004.14	3172.30
1004.30	3049.43
1004.46	3055.57
1004.62	3022.80
1004.78	3051.47
1004.94	3082.19
1005.09	3059.67
1005.25	3125.20
1005.41	3020.75
1005.57	3053.52
1005.73	3096.53
1005.89	2963.41
1006.05	3063.76
1006.21	3069.91
1006.37	2994.13
1006.52	2944.98
1006.68	2912.21
1006.84	3002.32
1007.00	2965.46
1007.16	3016.66
1007.32	2877.40
1007.48	2928.60
1007.64	2967.51
1007.79	2957.27
1007.95	2912.21
1008.11	2985.94
1008.27	2985.94
1008.43	2934.74
1008.59	2912.21
1008.75	3006.42
1008.91	2924.50
1009.06	2830.29
1009.22	2801.62
1009.38	2918.36
1009.54	2820.05
1009.70	2879.44
1009.86	2811.86
1010.01	2856.92
1010.17	2822.10
1010.33	2881.49
1010.49	2811.86
1010.65	2840.53
1010.81	2756.57
1010.96	2727.89
1011.12	2738.13
1011.28	2746.33
1011.44	2809.81
1011.60	2658.26
1011.76	2744.28
1011.91	2766.81
1012.07	2682.84
1012.23	2627.54
1012.39	2688.98
1012.55	2775.00
1012.71	2768.85
1012.86	2684.89
1013.02	2729.94
1013.18	2666.46
1013.34	2645.98
1013.50	2639.83
1013.65	2760.66
1013.81	2650.07
1013.97	2543.58
1014.13	2674.65
1014.29	2594.78
1014.44	2721.75
1014.60	2637.78
1014.76	2525.15
1014.92	2658.26
1015.07	2643.93
1015.23	2670.55
1015.39	2519.00
1015.55	2523.10
1015.71	2535.39
1015.86	2633.69
1016.02	2588.63
1016.18	2447.32
1016.34	2627.54
1016.49	2537.43
1016.65	2555.86
1016.81	2514.91
1016.97	2541.53
1017.12	2635.74
1017.28	2459.61
1017.44	2430.94
1017.60	2451.42
1017.75	2523.10
1017.91	2473.95
1018.07	2432.99
1018.23	2490.33
1018.38	2416.60
1018.54	2445.27
1018.70	2447.32
1018.86	2432.99
1019.01	2471.90
1019.17	2412.51
1019.33	2492.38
1019.49	2478.04
1019.64	2461.66
1019.80	2428.89
1019.96	2494.43
1020.12	2508.76
1020.27	2363.36
1020.43	2328.54
1020.59	2412.51
1020.74	2418.65
1020.90	2371.55
1021.06	2383.84
1021.22	2377.69
1021.37	2383.84
1021.53	2359.26
1021.69	2426.84
1021.84	2308.06
1022.00	2422.75
1022.16	2346.97
1022.31	2310.11
1022.47	2426.84
1022.63	2363.36
1022.79	2246.62
1022.94	2250.72
1023.10	2404.32
1023.26	2340.83
1023.41	2260.96
1023.57	2131.94
1023.73	2213.85
1023.88	2328.54
1024.04	2207.71
1024.20	2338.78
1024.35	2258.91
1024.51	2306.01
1024.67	2226.14
1024.82	2236.38
1024.98	2234.33
1025.14	2248.67
1025.29	2287.58
1025.45	2303.96
1025.61	2232.29
1025.76	2144.22
1025.92	2174.94
1026.08	2199.52
1026.23	2248.67
1026.39	2224.09
1026.55	2195.42
1026.70	2213.85
1026.86	2228.19
1027.02	2248.67
1027.17	2224.09
1027.33	2275.29
1027.48	2195.42
1027.64	2226.14
1027.80	2125.79
1027.95	2105.31
1028.11	2111.46
1028.27	2199.52
1028.42	2099.17
1028.58	2111.46
1028.73	2076.64
1028.89	2072.54
1029.05	2189.28
1029.20	2127.84
>>>>>End Processed Spectral Data<<<<<
