SpectraSuite Data File
++++++++++++++++++++++++++++++++++++
Date: Fri Jun 02 14:44:32 CEST 2017
User: INFO_000
Dark Spectrum Present: No
Reference Spectrum Present: No
Number of Sampled Component Spectra: 1
Spectrometers: USB4H00879
Integration Time (usec): 80000 (USB4H00879)
Spectra Averaged: 1 (USB4H00879)
Boxcar Smoothing: 0 (USB4H00879)
Correct for Electrical Dark: No (USB4H00879)
Strobe/Lamp Enabled: No (USB4H00879)
Correct for Detector Non-linearity: No (USB4H00879)
Correct for Stray Light: No (USB4H00879)
Number of Pixels in Processed Spectrum: 3648
>>>>>Begin Processed Spectral Data<<<<<
345.13	1224.69
345.34	1224.69
345.56	1224.69
345.78	1234.93
345.99	1316.84
346.21	1658.85
346.42	1665.00
346.64	1597.42
346.86	1812.45
347.07	1648.61
347.29	1681.38
347.50	1636.33
347.72	1652.71
347.94	1748.97
348.15	1552.36
348.37	1601.51
348.59	1740.77
348.80	1617.90
349.02	1675.24
349.23	1859.56
349.45	1871.84
349.67	1798.12
349.88	1765.35
350.10	1927.14
350.31	1875.94
350.53	1796.07
350.75	1888.23
350.96	1808.36
351.18	1853.41
351.39	1867.75
351.61	1796.07
351.82	1847.27
352.04	1855.46
352.26	1761.25
352.47	1890.28
352.69	1875.94
352.90	1853.41
353.12	1777.64
353.34	1877.99
353.55	1861.60
353.77	1884.13
353.98	1890.28
354.20	1892.32
354.41	1839.08
354.63	1912.80
354.85	1964.00
355.06	1875.94
355.28	1732.58
355.49	1920.99
355.71	1857.51
355.92	1949.67
356.14	1837.03
356.35	1869.80
356.57	1845.22
356.79	1892.32
357.00	1830.88
357.22	2039.78
357.43	1853.41
357.65	1998.82
357.86	1904.61
358.08	1953.76
358.29	1916.90
358.51	1935.33
358.72	2064.35
358.94	1896.42
359.16	1888.23
359.37	1945.57
359.59	1873.89
359.80	2011.11
360.02	1970.15
360.23	1994.72
360.45	2056.16
360.66	1904.61
360.88	1845.22
361.09	1904.61
361.31	1925.09
361.52	1972.19
361.74	2017.25
361.95	2017.25
362.17	1937.38
362.38	2027.49
362.60	2033.63
362.81	1953.76
363.03	1837.03
363.24	1998.82
363.46	2050.02
363.67	2035.68
363.89	1990.63
364.10	2056.16
364.32	1867.75
364.53	2068.45
364.75	1877.99
364.96	1994.72
365.18	2035.68
365.39	2056.16
365.61	1953.76
365.82	2183.13
366.04	2058.21
366.25	2043.87
366.47	2025.44
366.68	2002.91
366.90	1990.63
367.11	2039.78
367.33	2047.97
367.54	2056.16
367.76	1998.82
367.97	2029.54
368.19	2052.06
368.40	2076.64
368.62	2017.25
368.83	1968.10
369.05	2041.82
369.26	1949.67
369.48	2019.30
369.69	2021.35
369.91	2095.07
370.12	1974.24
370.33	2142.18
370.55	1931.23
370.76	2050.02
370.98	2058.21
371.19	1986.53
371.41	1992.67
371.62	2105.31
371.84	2093.02
372.05	2062.30
372.27	2109.41
372.48	2039.78
372.69	2142.18
372.91	2054.11
373.12	2191.33
373.34	2115.55
373.55	2072.54
373.77	2187.23
373.98	2084.83
374.20	2179.04
374.41	2189.28
374.62	2119.65
374.84	2166.75
375.05	2170.85
375.27	2062.30
375.48	2119.65
375.70	2154.46
375.91	2285.53
376.12	2140.13
376.34	2150.37
376.55	2207.71
376.77	2224.09
376.98	2127.84
377.19	2148.32
377.41	2123.74
377.62	2097.12
377.84	2168.80
378.05	2336.73
378.27	2207.71
378.48	2269.15
378.69	2371.55
378.91	2232.29
379.12	2244.57
379.34	2256.86
379.55	2312.16
379.76	2269.15
379.98	2236.38
380.19	2138.08
380.41	2295.77
380.62	2303.96
380.83	2230.24
381.05	2154.46
381.26	2332.64
381.47	2242.53
381.69	2201.57
381.90	2422.75
382.12	2344.92
382.33	2328.54
382.54	2322.40
382.76	2232.29
382.97	2342.88
383.19	2265.05
383.40	2383.84
383.61	2297.82
383.83	2232.29
384.04	2342.88
384.25	2389.98
384.47	2461.66
384.68	2412.51
384.89	2318.30
385.11	2410.46
385.32	2369.50
385.54	2359.26
385.75	2422.75
385.96	2420.70
386.18	2387.93
386.39	2349.02
386.60	2314.20
386.82	2412.51
387.03	2430.94
387.24	2498.52
387.46	2457.56
387.67	2357.21
387.88	2486.23
388.10	2502.62
388.31	2463.71
388.52	2637.78
388.74	2475.99
388.95	2539.48
389.16	2498.52
389.38	2453.47
389.59	2596.82
389.80	2615.26
390.02	2566.10
390.23	2553.82
390.44	2500.57
390.66	2543.58
390.87	2547.67
391.08	2570.20
391.30	2695.13
391.51	2645.98
391.72	2670.55
391.94	2678.74
392.15	2584.54
392.36	2564.06
392.58	2531.29
392.79	2731.99
393.00	2721.75
393.22	2658.26
393.43	2756.57
393.64	2807.77
393.85	2838.48
394.07	2668.50
394.28	2664.41
394.49	2707.41
394.71	2809.81
394.92	2807.77
395.13	2615.26
395.35	2783.19
395.56	2795.48
395.77	2848.72
395.98	2865.11
396.20	2865.11
396.41	2838.48
396.62	2918.36
396.84	2783.19
397.05	2795.48
397.26	2811.86
397.47	2985.94
397.69	2826.20
397.90	2983.89
398.11	2961.36
398.32	2871.25
398.54	3014.61
398.75	2932.69
398.96	2951.12
399.18	3082.19
399.39	3026.90
399.60	3092.43
399.81	2963.41
400.03	2959.31
400.24	3270.61
400.45	3045.33
400.66	3096.53
400.88	2971.60
401.09	3135.44
401.30	3016.66
401.51	3155.92
401.73	3080.14
401.94	3119.06
402.15	3162.06
402.36	3135.44
402.58	3213.26
402.79	3227.60
403.00	3160.02
403.21	3172.30
403.43	3223.50
403.64	3381.20
403.85	3067.86
404.06	3348.43
404.27	3051.47
404.49	3241.93
404.70	3213.26
404.91	3186.64
405.12	3221.45
405.34	3362.76
405.55	3373.00
405.76	3190.74
405.97	3252.17
406.19	3401.68
406.40	3330.00
406.61	3420.11
406.82	3403.72
407.03	3309.52
407.25	3370.96
407.46	3383.24
407.67	3385.29
407.88	3499.98
408.09	3356.62
408.31	3401.68
408.52	3330.00
408.73	3354.57
408.94	3330.00
409.15	3389.39
409.37	3588.04
409.58	3590.09
409.79	3526.60
410.00	3571.66
410.21	3403.72
410.43	3567.56
410.64	3370.96
410.85	3514.31
411.06	3530.70
411.27	3555.27
411.48	3610.57
411.70	3553.23
411.91	3540.94
412.12	3663.82
412.33	3583.95
412.54	3551.18
412.76	3784.65
412.97	3598.28
413.18	3567.56
413.39	3710.92
413.60	3678.15
413.81	3622.86
414.03	3692.49
414.24	3612.62
414.45	3762.12
414.66	3575.75
414.87	3719.11
415.08	3549.13
415.30	3796.93
415.51	3801.03
415.72	3731.40
415.93	3764.17
416.14	3862.47
416.35	3858.37
416.56	3790.79
416.78	3837.89
416.99	3858.37
417.20	3798.98
417.41	3956.68
417.62	3915.72
417.83	4042.69
418.04	3973.06
418.26	3952.58
418.47	3885.00
418.68	3932.10
418.89	3977.16
419.10	4173.76
419.31	4005.83
419.52	4173.76
419.73	4020.16
419.95	4032.45
420.16	3923.91
420.37	3989.44
420.58	4089.79
420.79	3887.04
421.00	4052.93
421.21	4241.34
421.42	4116.42
421.63	4132.80
421.85	4114.37
422.06	4243.39
422.27	4214.72
422.48	4196.29
422.69	4272.06
422.90	4214.72
423.11	4343.74
423.32	4329.41
423.53	4417.47
423.75	4351.93
423.96	4440.00
424.17	4423.61
424.38	4628.41
424.59	4394.94
424.80	4564.92
425.01	4556.73
425.22	4450.24
425.43	4558.78
425.64	4632.51
425.85	4757.43
426.06	4644.79
426.28	4526.01
426.49	4548.54
426.70	4493.24
426.91	4523.96
427.12	4622.27
427.33	4622.27
427.54	4659.13
427.75	4833.21
427.96	4923.32
428.17	4839.35
428.38	4833.21
428.59	4966.32
428.80	4853.69
429.01	5027.76
429.23	4831.16
429.44	5081.01
429.65	5060.53
429.86	5015.48
430.07	4876.21
430.28	5033.91
430.49	5003.19
430.70	5136.31
430.91	5087.15
431.12	5144.50
431.33	5269.42
431.54	5115.83
431.75	5062.58
431.96	5140.40
432.17	5111.73
432.38	5015.48
432.59	5322.67
432.80	5414.83
433.01	5314.48
433.22	5375.92
433.43	5345.20
433.64	5187.50
433.85	5187.50
434.06	5402.54
434.27	5146.55
434.49	5433.26
434.70	5420.97
434.91	5521.32
435.12	5531.56
435.33	5511.08
435.54	5433.26
435.75	5570.48
435.96	5488.56
436.17	5380.01
436.38	5670.83
436.59	5633.96
436.80	5554.09
437.01	5836.71
437.22	5762.98
437.43	5650.35
437.64	5408.69
437.85	5765.03
438.06	5801.90
438.27	5672.87
438.48	5697.45
438.69	5840.81
438.90	5670.83
439.11	5762.98
439.32	5926.82
439.53	5879.72
439.74	5992.36
439.95	5982.12
440.16	5785.51
440.37	6027.17
440.57	5867.43
440.78	6021.03
440.99	5992.36
441.20	5932.97
441.41	5824.42
441.62	6068.13
441.83	5879.72
442.04	6045.60
442.25	6037.41
442.46	6145.95
442.67	6172.58
442.88	6524.83
443.09	5990.31
443.30	6156.19
443.51	6440.86
443.72	6496.16
443.93	6315.94
444.14	6453.15
444.35	6328.22
444.56	6328.22
444.77	6367.13
444.98	6516.64
445.19	6528.92
445.40	6369.18
445.61	6473.63
445.81	6623.13
446.02	6567.84
446.23	6346.66
446.44	6455.20
446.65	6561.69
446.86	6535.07
447.07	6537.12
447.28	6905.75
447.49	6717.34
447.70	6571.93
447.91	6770.58
448.12	6834.07
448.33	6920.09
448.54	6793.11
448.74	6772.63
448.95	6907.80
449.16	6727.58
449.37	7280.53
449.58	6932.37
449.79	7116.69
450.00	6731.67
450.21	7053.20
450.42	7047.06
450.63	7079.83
450.84	7045.01
451.05	7260.05
451.25	7104.40
451.46	6975.38
451.67	7341.97
451.88	7296.91
452.09	7196.56
452.30	7243.67
452.51	7243.67
452.72	7450.51
452.93	7610.25
453.13	7288.72
453.34	7462.80
453.55	7548.81
453.76	7290.77
453.97	7741.32
454.18	7487.37
454.39	7679.88
454.60	7577.48
454.81	7622.54
455.01	7784.33
455.22	7602.06
455.43	7655.31
455.64	7847.82
455.85	7993.22
456.06	8044.42
456.27	7987.08
456.48	7815.05
456.68	7942.02
456.89	8048.52
457.10	8066.95
457.31	8013.70
457.52	7982.98
457.73	8286.08
457.94	8353.66
458.14	8062.85
458.35	8546.17
458.56	8212.35
458.77	8155.01
458.98	8376.19
459.19	8585.08
459.39	8372.10
459.60	8664.96
459.81	8359.81
460.02	8509.31
460.23	8667.00
460.44	8712.06
460.65	8861.56
460.85	8648.57
461.06	8796.03
461.27	8515.45
461.48	8966.01
461.69	9058.17
461.89	8814.46
462.10	8892.28
462.31	8755.07
462.52	8662.91
462.73	8974.20
462.94	9121.65
463.14	9125.75
463.35	9256.82
463.56	9506.67
463.77	9418.61
463.98	9082.74
464.18	9211.76
464.39	9525.10
464.60	9492.34
464.81	9564.01
465.02	9672.56
465.23	9678.70
465.43	9670.51
465.64	9809.77
465.85	9971.56
466.06	9660.27
466.27	10164.07
466.47	9985.90
466.68	10051.43
466.89	9901.93
467.10	10104.68
467.30	10030.95
467.51	10153.83
467.72	10387.30
467.93	9885.55
468.14	10262.37
468.34	10491.74
468.55	10483.55
468.76	10749.79
468.97	10542.94
469.17	10694.49
469.38	10930.01
469.59	11052.89
469.80	10708.83
470.01	10907.48
470.21	10934.11
470.42	11087.70
470.63	11229.01
470.84	11210.58
471.04	11323.22
471.25	11347.79
471.46	11331.41
471.67	11661.13
471.87	11523.92
472.08	11781.96
472.29	11958.09
472.50	11505.49
472.70	11542.35
472.91	11958.09
473.12	12203.85
473.33	12285.76
473.53	12388.16
473.74	12240.71
473.95	12414.79
474.16	12343.11
474.36	12607.30
474.57	12603.20
474.78	12724.03
474.99	12699.45
475.19	12570.43
475.40	12840.76
475.61	13051.70
475.81	13397.81
476.02	13594.42
476.23	13184.82
476.44	13406.00
476.64	13684.53
476.85	13797.17
477.06	13557.55
477.27	13950.76
477.47	13938.48
477.68	13829.93
477.89	13975.34
478.09	14108.46
478.30	14192.42
478.51	14141.22
478.71	14520.10
478.92	14610.21
479.13	14673.70
479.34	14802.72
479.54	14638.88
479.75	14952.22
479.96	14841.63
480.16	14937.88
480.37	15171.35
480.58	15453.97
480.78	15456.02
480.99	15529.75
481.20	15806.22
481.41	15949.58
481.61	15677.20
481.82	15750.93
482.03	15867.66
482.23	15957.77
482.44	16123.66
482.65	16232.20
482.85	16305.93
483.06	16117.51
483.27	16658.18
483.47	16488.20
483.68	16666.37
483.89	16701.19
484.09	16856.83
484.30	16875.26
484.51	17075.96
484.71	17311.48
484.92	16975.61
485.13	17321.72
485.33	17405.69
485.54	17239.80
485.75	17526.52
485.95	17581.81
486.16	17796.85
486.37	17911.53
486.57	17633.01
486.78	18046.70
486.98	17850.10
487.19	18005.74
487.40	18120.43
487.60	18085.61
487.81	18329.32
488.02	18177.77
488.22	18265.83
488.43	18540.26
488.64	18468.58
488.84	18587.36
489.05	18894.56
489.25	18962.14
489.46	19179.23
489.67	18951.90
489.87	19119.84
490.08	19298.01
490.29	19312.35
490.49	19791.57
490.70	19564.25
490.90	19715.80
491.11	19525.33
491.32	19967.70
491.52	19787.47
491.73	19873.49
491.94	20068.05
492.14	19828.43
492.35	20299.47
492.55	20238.03
492.76	20254.41
492.97	20274.89
493.17	20551.37
493.38	20563.65
493.58	20874.95
493.79	20694.72
494.00	20975.30
494.20	20917.95
494.41	20952.77
494.61	20971.20
494.82	21024.45
495.02	21061.31
495.23	21173.95
495.44	21176.00
495.64	21751.48
495.85	21526.20
496.05	21919.41
496.26	21595.83
496.47	21950.13
496.67	21561.02
496.88	22044.34
497.08	21395.13
497.29	22169.26
497.49	22128.30
497.70	22212.27
497.91	22357.67
498.11	22529.70
498.32	22965.92
498.52	22535.85
498.73	22763.17
498.93	22671.01
499.14	22914.72
499.34	22722.21
499.55	23096.99
499.76	23015.07
499.96	23252.64
500.17	23080.61
500.37	23260.83
500.58	23373.47
500.78	23430.81
500.99	23670.42
501.19	23832.21
501.40	23463.58
501.60	23432.86
501.81	23740.05
502.02	23713.43
502.22	23594.65
502.43	24157.84
502.63	24153.74
502.84	24358.54
503.04	24272.53
503.25	24489.61
503.45	24407.69
503.66	24458.89
503.86	24544.91
504.07	24557.19
504.27	24401.55
504.48	25194.11
504.68	24964.74
504.89	25007.75
505.09	25054.85
505.30	25081.47
505.50	25161.34
505.71	25101.95
505.91	25654.90
506.12	25515.64
506.32	25532.03
506.53	25603.71
506.73	25898.61
506.94	25894.52
507.14	25790.07
507.35	26072.69
507.55	25859.70
507.76	26074.74
507.96	25845.37
508.17	26138.23
508.37	26074.74
508.58	26263.15
508.78	26439.28
508.99	26693.22
509.19	26168.94
509.40	26435.18
509.60	26502.76
509.81	26660.46
510.01	26404.46
510.22	26703.46
510.42	26814.05
510.63	27168.35
510.83	26799.72
511.04	26840.68
511.24	26918.50
511.44	27223.65
511.65	26969.70
511.85	27180.64
512.06	27086.43
512.26	27254.37
512.47	27502.17
512.67	27457.12
512.88	27590.24
513.08	27487.84
513.29	27598.43
513.49	27651.67
513.69	27684.44
513.90	27618.91
514.10	28020.31
514.31	27659.87
514.51	27760.22
514.72	27682.39
514.92	27948.63
515.13	27932.25
515.33	27960.92
515.53	28077.65
515.74	28239.44
515.94	28331.60
516.15	28386.89
516.35	28229.20
516.56	28460.62
516.76	28452.43
516.96	28606.03
517.17	28450.38
517.37	28505.68
517.58	28663.37
517.78	28954.18
517.99	28466.77
518.19	28913.22
518.39	29066.82
518.60	29208.13
518.80	29154.88
519.01	29093.44
519.21	29091.40
519.41	29183.55
519.62	29150.79
519.82	29455.93
520.03	29367.87
520.23	29222.47
520.43	29343.30
520.64	29333.06
520.84	29572.67
521.05	29476.41
521.25	29804.09
521.45	29535.81
521.66	29910.58
521.86	29619.77
522.07	30025.27
522.27	29994.55
522.47	29982.26
522.68	30748.20
522.88	30090.80
523.08	30522.93
523.29	30271.03
523.49	30414.38
523.70	30340.66
523.90	30438.96
524.10	30608.94
524.31	30670.38
524.51	30463.54
524.71	31004.20
524.92	30748.20
525.12	31059.49
525.33	30920.23
525.53	31172.13
525.73	31360.55
525.94	31180.32
526.14	31266.34
526.34	31600.16
526.55	31587.87
526.75	31473.18
526.95	31999.51
527.16	31395.36
527.36	31409.70
527.56	32022.04
527.77	32099.86
527.97	31995.42
528.17	31884.83
528.38	31856.15
528.58	32146.97
528.78	32337.43
528.99	32167.45
529.19	32890.38
529.39	32212.50
529.60	32558.61
529.80	32861.71
530.00	32747.02
530.21	33027.59
530.41	33209.86
530.61	33076.74
530.82	33015.30
531.02	32830.99
531.22	33205.77
531.43	33267.20
531.63	33641.98
531.83	33699.33
532.04	33932.79
532.24	33369.60
532.44	33889.79
532.64	33687.04
532.85	34192.89
533.05	33889.79
533.25	34100.73
533.46	33830.40
533.66	34323.96
533.86	34188.79
534.07	34635.25
534.27	34266.61
534.47	34852.33
534.67	34985.45
534.88	34911.72
535.08	34987.50
535.28	34962.92
535.49	35272.17
535.69	35636.70
535.89	35505.63
536.09	35661.28
536.30	35651.04
536.50	35921.37
536.70	36099.55
536.91	35861.98
537.11	35943.90
537.31	35907.04
537.51	36160.98
537.72	36257.24
537.92	36505.04
538.12	36904.40
538.32	36605.39
538.53	36785.61
538.73	36951.50
538.93	36744.66
539.13	36867.53
539.34	37002.70
539.54	37053.90
539.74	37320.13
539.94	36990.41
540.15	37240.26
540.35	37606.85
540.55	37445.06
540.75	37703.10
540.96	37588.42
541.16	37758.40
541.36	37928.38
541.56	37895.61
541.77	38585.78
541.97	37957.05
542.17	38399.41
542.37	38262.20
542.58	38454.71
542.78	38356.41
542.98	38507.96
543.18	38753.71
543.38	38827.44
543.59	39194.03
543.79	39200.17
543.99	38833.58
544.19	39161.26
544.40	38794.67
544.60	39468.45
544.80	39650.72
545.00	39095.72
545.20	40052.12
545.41	39474.60
545.61	39464.36
545.81	39861.66
546.01	40289.69
546.21	39869.86
546.42	39880.10
546.62	40050.08
546.82	39832.99
547.02	40050.08
547.22	40437.14
547.43	40365.46
547.63	40052.12
547.83	40226.20
548.03	40689.04
548.23	41051.53
548.44	40367.51
548.64	40605.08
548.84	41203.08
549.04	40801.68
549.24	41166.22
549.45	41282.95
549.65	41141.64
549.85	41301.39
550.05	41090.44
550.25	40996.24
550.45	41749.89
550.66	41289.10
550.86	41391.50
551.06	41459.08
551.26	41751.94
551.46	41688.45
551.66	41719.17
551.87	41561.48
552.07	42202.49
552.27	41926.02
552.47	42118.53
552.67	41960.83
552.87	42390.91
553.07	42065.28
553.28	41833.86
553.48	42192.25
553.68	42061.18
553.88	42554.74
554.08	41901.44
554.28	42308.99
554.48	41983.36
554.69	42331.51
554.89	42556.79
555.09	42372.47
555.29	41899.39
555.49	42734.96
555.69	42663.28
555.89	42696.05
556.10	42804.59
556.30	42489.21
556.50	42966.38
556.70	42083.71
556.90	42714.48
557.10	42909.04
557.30	42466.68
557.50	43046.26
557.70	42980.72
557.91	43001.20
558.11	43134.32
558.31	43103.60
558.51	43029.87
558.71	42882.42
558.91	43615.59
559.11	43076.97
559.31	43195.76
559.51	43433.32
559.72	43218.28
559.92	43324.78
560.12	43019.63
560.32	43683.17
560.52	42569.08
560.72	43554.15
560.92	43701.61
561.12	43431.27
561.32	43685.22
561.52	43390.31
561.72	43742.56
561.93	43253.10
562.13	43582.82
562.33	43220.33
562.53	44156.25
562.73	43433.32
562.93	43664.74
563.13	43361.64
563.33	43476.33
563.53	43830.63
563.73	43459.94
563.93	43726.18
564.13	44057.95
564.33	43625.83
564.53	43652.45
564.74	44348.76
564.94	43922.79
565.14	44074.34
565.34	43994.46
565.54	43842.92
565.74	43830.63
565.94	44121.44
566.14	43791.72
566.34	43722.08
566.54	44483.93
566.74	43830.63
566.94	44191.07
567.14	44070.24
567.34	44041.57
567.54	44483.93
567.74	44021.09
567.94	44418.39
568.14	44000.61
568.34	44424.54
568.54	44250.46
568.74	44500.31
568.94	44344.67
569.14	44782.93
569.34	44397.91
569.54	44408.15
569.75	44455.26
569.95	44365.15
570.15	44731.73
570.35	44498.26
570.55	44258.65
570.75	44684.63
570.95	44762.45
571.15	44678.49
571.35	44881.24
571.55	44793.17
571.75	44592.47
571.95	45321.55
572.15	44490.07
572.35	45094.22
572.55	44764.50
572.75	44692.82
572.95	45133.14
573.15	45108.56
573.35	45235.53
573.55	44768.60
573.75	45073.74
573.95	45725.00
574.15	45053.26
574.35	45425.99
574.55	44971.35
574.75	45442.38
574.95	45733.19
575.15	45466.95
575.34	45536.59
575.54	45888.84
575.74	45681.99
575.94	45659.46
576.14	45331.79
576.34	45819.20
576.54	45995.33
576.74	46054.72
576.94	46191.94
577.14	46163.26
577.34	46073.15
577.54	46179.65
577.74	46013.76
577.94	46290.24
578.14	46464.32
578.34	46495.03
578.54	46243.13
578.74	46148.93
578.94	46638.39
579.14	46607.67
579.34	46478.65
579.54	46343.48
579.74	46878.00
579.94	47142.19
580.13	46988.60
580.33	47144.24
580.53	47312.17
580.73	47641.90
580.93	46923.06
581.13	47035.70
581.33	47346.99
581.53	47461.68
581.73	47738.15
581.93	47883.56
582.13	47578.41
582.33	47645.99
582.53	47744.30
582.73	47885.61
582.92	47961.38
583.12	48104.74
583.32	47695.14
583.52	47551.79
583.72	48094.50
583.92	47815.97
584.12	48078.11
584.32	48344.35
584.52	48551.20
584.72	48596.25
584.92	48751.90
585.11	49159.44
585.31	48600.35
585.51	48850.20
585.71	49081.62
585.91	49083.67
586.11	48829.72
586.31	48979.22
586.51	49061.14
586.71	49192.21
586.91	49040.66
587.10	49147.15
587.30	49132.82
587.50	49186.07
587.70	49683.72
587.90	49462.54
588.10	49401.10
588.30	49845.51
588.50	49792.26
588.69	49739.02
588.89	49779.98
589.09	49816.84
589.29	50115.84
589.49	50605.31
589.69	49964.29
589.89	50625.79
590.08	50609.40
590.28	49779.98
590.48	50275.58
590.68	50212.10
590.88	50201.86
591.08	50562.30
591.28	50558.20
591.47	50619.64
591.67	50662.65
591.87	50691.32
592.07	50754.81
592.27	51088.63
592.47	50498.81
592.67	51066.10
592.86	50672.89
593.06	50584.83
593.26	51655.92
593.46	51197.17
593.66	50965.75
593.86	51172.60
594.05	51379.44
594.25	51238.13
594.45	51135.73
594.65	51485.93
594.85	50963.70
595.05	51223.79
595.24	51453.17
595.44	51606.76
595.64	51606.76
595.84	51410.16
596.04	52024.55
596.23	51604.72
596.43	52118.76
596.63	51627.24
596.83	52016.36
597.03	51985.64
597.22	52505.82
597.42	52354.27
597.62	52421.86
597.82	51942.63
598.02	52282.59
598.21	52489.44
598.41	52460.77
598.61	52325.60
598.81	52352.23
599.01	52638.94
599.20	52428.00
599.40	52659.42
599.60	52204.77
599.80	52704.48
600.00	52845.79
600.19	52872.41
600.39	52528.35
600.59	52645.08
600.79	52718.81
600.98	52886.74
601.18	52939.99
601.38	53298.39
601.58	53300.43
601.78	53193.94
601.97	53187.80
602.17	53390.55
602.37	53359.83
602.57	53036.25
602.76	53140.69
602.96	53294.29
603.16	53458.13
603.36	53404.88
603.55	53695.69
603.75	53738.70
603.95	53470.42
604.15	53843.15
604.34	53787.85
604.54	53656.78
604.74	53890.25
604.94	53718.22
605.13	53814.47
605.33	53613.77
605.53	53900.49
605.73	54217.92
605.92	53597.39
606.12	53560.53
606.32	54303.94
606.52	54004.94
606.71	53687.50
606.91	54267.08
607.11	53880.01
607.30	54049.99
607.50	53986.50
607.70	54351.04
607.90	53898.44
608.09	54289.60
608.29	54418.63
608.49	54654.14
608.68	53720.27
608.88	53982.41
609.08	54392.00
609.28	54406.34
609.47	53951.69
609.67	54555.84
609.87	54183.11
610.06	54684.86
610.26	54469.82
610.46	54572.22
610.66	54170.82
610.85	54721.72
611.05	54389.95
611.25	54498.50
611.44	54265.03
611.64	54828.22
611.84	54586.56
612.03	54244.55
612.23	54478.02
612.43	54301.89
612.62	54506.69
612.82	54568.13
613.02	54209.73
613.21	54424.77
613.41	54703.29
613.61	54686.91
613.80	54000.84
614.00	54355.14
614.20	54568.13
614.39	54682.81
614.59	54445.25
614.79	54342.85
614.98	54353.09
615.18	54607.04
615.38	54187.21
615.57	54273.22
615.77	54959.29
615.97	54400.19
616.16	54400.19
616.36	54072.52
616.56	54721.72
616.75	54645.95
616.95	54500.54
617.15	54174.92
617.34	54310.08
617.54	54213.83
617.74	54961.34
617.93	54594.75
618.13	54156.49
618.32	54641.85
618.52	54191.30
618.72	54121.67
618.91	54351.04
619.11	54095.05
619.31	54461.63
619.50	54101.19
619.70	53658.83
619.90	54273.22
620.09	54645.95
620.29	54185.16
620.48	54269.12
620.68	54432.96
620.88	53804.24
621.07	54033.61
621.27	54371.52
621.46	53562.57
621.66	54090.95
621.86	53871.82
622.05	54015.18
622.25	54422.72
622.44	54056.14
622.64	54043.85
622.84	54193.35
623.03	53945.54
623.23	53818.57
623.42	54144.20
623.62	54338.75
623.82	54545.60
624.01	54138.05
624.21	54318.28
624.40	54248.64
624.60	54435.01
624.80	53904.59
624.99	54572.22
625.19	53990.60
625.38	54451.39
625.58	54467.78
625.77	54328.52
625.97	54344.90
626.17	53968.07
626.36	54494.40
626.56	54381.76
626.75	53701.84
626.95	54453.44
627.14	54510.78
627.34	54951.10
627.54	54037.70
627.73	54279.36
627.93	54654.14
628.12	54277.32
628.32	54643.90
628.51	54256.84
628.71	54807.74
628.90	54615.23
629.10	54351.04
629.30	54359.23
629.49	54891.71
629.69	54465.73
629.88	54342.85
630.08	55069.88
630.27	54744.25
630.47	54607.04
630.66	54803.64
630.86	55157.94
631.05	54650.05
631.25	55065.78
631.44	54496.45
631.64	54643.90
631.84	54727.87
632.03	55209.14
632.23	54748.35
632.42	55096.50
632.62	54637.76
632.81	55069.88
633.01	55063.74
633.20	55590.06
633.40	55262.39
633.59	55039.16
633.79	54983.86
633.98	55121.08
634.18	55370.93
634.37	55344.31
634.57	55147.70
634.76	55610.54
634.96	55426.23
635.15	55362.74
635.35	55104.70
635.54	55481.52
635.74	55084.22
635.93	55110.84
636.13	55678.13
636.32	55739.57
636.52	55377.08
636.71	55327.92
636.91	55631.02
637.10	55252.15
637.30	55438.51
637.49	55874.73
637.69	55037.11
637.88	55917.74
638.08	55489.71
638.27	56390.82
638.46	55508.14
638.66	55958.70
638.85	55987.37
639.05	56145.06
639.24	56435.87
639.44	56183.97
639.63	56003.75
639.83	55731.37
640.02	56087.72
640.22	55960.75
640.41	55907.50
640.61	55682.22
640.80	56235.17
640.99	56222.89
641.19	56267.94
641.38	56480.93
641.58	56100.01
641.77	55850.16
641.97	55844.01
642.16	56179.88
642.36	56628.38
642.55	56501.41
642.74	56048.81
642.94	56888.48
643.13	56153.26
643.33	56763.55
643.52	56915.10
643.72	56505.51
643.91	56667.30
644.10	56728.73
644.30	57341.08
644.49	56939.68
644.69	57379.99
644.88	56644.77
645.08	56636.58
645.27	56712.35
645.46	56456.35
645.66	56865.95
645.85	56833.18
646.05	57218.20
646.24	56534.18
646.43	56818.84
646.63	57279.64
646.82	57334.93
647.02	56857.76
647.21	57115.80
647.40	56859.80
647.60	57318.55
647.79	57363.60
647.99	57253.01
648.18	57138.33
648.37	57498.77
648.57	57615.50
648.76	57433.24
648.96	57226.39
649.15	57959.56
649.34	57210.01
649.54	57261.21
649.73	57054.36
649.92	57418.90
650.12	57453.72
650.31	57062.55
650.51	57574.55
650.70	57652.37
650.89	57185.43
651.09	58037.39
651.28	57414.80
651.47	57980.04
651.67	57580.69
651.86	57922.70
652.06	57332.89
652.25	57777.29
652.44	57599.12
652.64	57275.54
652.83	57545.87
653.02	57201.82
653.22	57330.84
653.41	57322.65
653.60	56951.96
653.80	56954.01
653.99	57302.17
654.18	56607.90
654.38	57255.06
654.57	57685.14
654.76	57623.70
654.96	57144.47
655.15	57175.19
655.34	57320.60
655.54	57423.00
655.73	57296.02
655.92	57250.97
656.12	57142.42
656.31	57400.47
656.50	57406.61
656.70	57216.15
656.89	57607.31
657.08	57857.17
657.28	57283.73
657.47	57336.98
657.66	57478.29
657.86	57377.94
658.05	57328.79
658.24	57312.41
658.43	57017.50
658.63	57496.72
658.82	57435.28
659.01	57332.89
659.21	57132.18
659.40	57152.66
659.59	57250.97
659.79	57418.90
659.98	57633.94
660.17	57531.54
660.36	57414.80
660.56	57678.99
660.75	57521.30
660.94	57119.90
661.14	57226.39
661.33	57339.03
661.52	57087.13
661.71	57492.63
661.91	57183.38
662.10	57095.32
662.29	57644.18
662.49	56779.93
662.68	57197.72
662.87	57218.20
663.06	57187.48
663.26	57339.03
663.45	57410.71
663.64	56818.84
663.83	57468.05
664.03	57656.46
664.22	57472.15
664.41	57078.94
664.60	56759.45
664.80	57078.94
664.99	57218.20
665.18	56929.44
665.37	57173.14
665.57	57040.03
665.76	56525.99
665.95	56761.50
666.14	56722.59
666.34	56710.30
666.53	56685.73
666.72	56542.37
666.91	56532.13
667.11	56468.64
667.30	56906.91
667.49	56904.86
667.68	56812.70
667.87	56374.44
668.07	56704.16
668.26	56667.30
668.45	56538.27
668.64	56143.02
668.84	57130.14
669.03	56759.45
669.22	56427.68
669.41	56894.62
669.60	56333.48
669.80	56274.09
669.99	57005.21
670.18	56370.34
670.37	56482.98
670.57	56917.15
670.76	56657.06
670.95	56704.16
671.14	55985.32
671.33	56153.26
671.53	56872.09
671.72	56681.63
671.91	55981.23
672.10	56415.40
672.29	56370.34
672.48	56452.26
672.68	56202.41
672.87	56169.64
673.06	56177.83
673.25	55964.84
673.44	55991.47
673.64	55954.60
673.83	55952.55
674.02	55743.66
674.21	56263.85
674.40	56190.12
674.59	56022.19
674.79	55770.28
674.98	55760.05
675.17	55901.36
675.36	55917.74
675.55	56054.95
675.74	56030.38
675.94	55981.23
676.13	55880.88
676.32	56100.01
676.51	56413.35
676.70	55876.78
676.89	55846.06
677.08	56087.72
677.28	55458.99
677.47	56155.30
677.66	56419.49
677.85	56030.38
678.04	56226.98
678.23	56415.40
678.42	56067.24
678.62	55923.88
678.81	56439.97
679.00	56079.53
679.19	56306.85
679.38	55809.20
679.57	55680.17
679.76	55540.91
679.96	56308.90
680.15	55823.53
680.34	55954.60
680.53	55399.60
680.72	56272.04
680.91	55944.36
681.10	55598.26
681.29	56325.28
681.48	55444.66
681.68	55631.02
681.87	55723.18
682.06	55688.37
682.25	55608.50
682.44	55604.40
682.63	55485.62
682.82	55493.81
683.01	55391.41
683.20	55147.70
683.39	55653.55
683.59	55514.29
683.78	55207.09
683.97	55088.31
684.16	55325.88
684.35	55616.69
684.54	55348.40
684.73	55297.20
684.92	55147.70
685.11	55346.36
685.30	55336.12
685.49	55702.70
685.69	55633.07
685.88	55235.77
686.07	55280.82
686.26	55753.90
686.45	55403.70
686.64	55735.47
686.83	55270.58
687.02	55579.82
687.21	55559.34
687.40	55561.39
687.59	55497.91
687.78	55225.53
687.97	55585.97
688.16	55336.12
688.35	54992.06
688.54	55000.25
688.74	55614.64
688.93	54811.84
689.12	55166.13
689.31	55458.99
689.50	55456.95
689.69	54883.51
689.88	55116.98
690.07	55348.40
690.26	55229.62
690.45	55592.11
690.64	55293.11
690.83	55200.95
691.02	55071.93
691.21	54985.91
691.40	55252.15
691.59	55379.12
691.78	54949.05
691.97	55569.58
692.16	55123.13
692.35	55553.20
692.54	55366.84
692.73	55465.14
692.92	55164.09
693.11	55407.79
693.30	55334.07
693.49	55450.80
693.68	55162.04
693.87	55227.57
694.06	54822.08
694.25	54910.14
694.44	55162.04
694.63	55252.15
694.82	55219.38
695.01	55215.29
695.20	54922.43
695.39	55082.17
695.58	55170.23
695.77	54635.71
695.96	55026.87
696.15	54803.64
696.34	54715.58
696.53	55071.93
696.72	55364.79
696.91	54756.54
697.10	55039.16
697.29	55014.58
697.48	55483.57
697.67	55254.20
697.86	54912.19
698.05	54650.05
698.24	55100.60
698.43	54748.35
698.62	55071.93
698.81	54998.20
699.00	55116.98
699.19	54754.49
699.38	54957.24
699.57	54314.18
699.76	55696.56
699.95	54920.38
700.14	54375.62
700.32	54457.54
700.51	54578.37
700.70	54916.28
700.89	54961.34
701.08	54351.04
701.27	54465.73
701.46	54879.42
701.65	54367.43
701.84	54478.02
702.03	54738.11
702.22	54625.47
702.41	54713.53
702.60	54480.06
702.79	54500.54
702.98	54260.93
703.17	54256.84
703.35	54361.28
703.54	54199.49
703.73	54654.14
703.92	54410.43
704.11	54514.88
704.30	54219.97
704.49	54140.10
704.68	54146.25
704.87	54312.13
705.06	54346.95
705.25	54738.11
705.43	54318.28
705.62	54588.61
705.81	54121.67
706.00	54260.93
706.19	53937.35
706.38	54015.18
706.57	54392.00
706.76	54072.52
706.95	54123.72
707.14	53554.38
707.32	54170.82
707.51	54238.40
707.70	54168.77
707.89	53898.44
708.08	54047.94
708.27	54138.05
708.46	54361.28
708.65	54004.94
708.84	54076.61
709.02	54238.40
709.21	53847.24
709.40	54170.82
709.59	53781.71
709.78	53656.78
709.97	54281.41
710.16	54009.03
710.34	54031.56
710.53	53650.64
710.72	53406.93
710.91	53558.48
711.10	53568.72
711.29	53859.53
711.48	53892.30
711.66	53710.03
711.85	53232.85
712.04	53492.94
712.23	53812.43
712.42	53327.06
712.61	53402.83
712.80	53228.76
712.98	53384.40
713.17	53247.19
713.36	53265.62
713.55	52798.68
713.74	53595.34
713.93	53703.88
714.11	53128.41
714.30	53337.30
714.49	53101.78
714.68	52673.76
714.87	53265.62
715.06	53535.95
715.24	52966.62
715.43	52802.78
715.62	52782.30
715.81	52182.24
716.00	53003.48
716.18	52417.76
716.37	52389.09
716.56	52409.57
716.75	52831.45
716.94	52225.25
717.12	52307.17
717.31	52622.56
717.50	52757.72
717.69	52092.13
717.88	52827.35
718.06	52278.50
718.25	52563.17
718.44	52073.70
718.63	51918.06
718.82	52245.73
719.00	51959.02
719.19	51606.76
719.38	52276.45
719.57	51690.73
719.76	51686.64
719.94	51442.93
720.13	51191.03
720.32	52122.85
720.51	51444.98
720.69	51332.34
720.88	51172.60
721.07	51019.00
721.26	51037.43
721.44	50666.75
721.63	50873.59
721.82	51053.81
722.01	51086.58
722.20	50998.52
722.38	50754.81
722.57	50582.78
722.76	50902.26
722.95	50580.73
723.13	49941.77
723.32	50402.56
723.51	50107.65
723.70	49747.21
723.88	50359.55
724.07	49870.09
724.26	50027.78
724.44	49677.58
724.63	49923.33
724.82	49730.83
725.01	49212.69
725.19	49372.43
725.38	49714.44
725.57	49634.57
725.76	49581.32
725.94	48717.08
726.13	49814.79
726.32	49376.53
726.51	49108.24
726.69	49587.47
726.88	49775.88
727.07	49155.35
727.25	49401.10
727.44	49536.27
727.63	48909.59
727.82	49212.69
728.00	49343.76
728.19	49296.66
728.38	49446.16
728.56	48563.48
728.75	49149.20
728.94	49044.76
729.12	49081.62
729.31	49349.90
729.50	49081.62
729.69	49218.83
729.87	48698.65
730.06	48930.07
730.25	48534.81
730.43	49331.47
730.62	48473.37
730.81	48590.11
730.99	48813.34
731.18	48209.18
731.37	48796.95
731.55	48821.53
731.74	48807.19
731.93	48674.07
732.11	48637.21
732.30	48690.46
732.49	48520.48
732.67	48387.36
732.86	48428.32
733.05	48416.03
733.23	48248.10
733.42	48311.58
733.61	48114.98
733.79	48788.76
733.98	48493.85
734.17	48196.90
734.35	48229.66
734.54	48174.37
734.73	48035.11
734.91	48387.36
735.10	47916.32
735.29	48334.11
735.47	47822.12
735.66	48428.32
735.84	47566.12
736.03	47883.56
736.22	47613.23
736.40	47768.87
736.59	48071.97
736.78	47416.62
736.96	47762.73
737.15	47437.10
737.33	47527.21
737.52	47559.98
737.71	47437.10
737.89	47965.48
738.08	47412.52
738.27	47574.31
738.45	47760.68
738.64	47476.01
738.82	47486.25
739.01	47342.89
739.20	47635.75
739.38	47437.10
739.57	47654.18
739.75	47256.88
739.94	47179.06
740.13	46888.24
740.31	47066.42
740.50	47166.77
740.68	47002.93
740.87	46986.55
741.06	47115.57
741.24	46925.11
741.43	46595.38
741.61	46779.70
741.80	46392.64
741.99	46177.60
742.17	46943.54
742.36	46640.44
742.54	46568.76
742.73	46818.61
742.91	46525.75
743.10	46708.02
743.29	46734.65
743.47	46505.27
743.66	46208.32
743.84	46314.81
744.03	46406.97
744.21	45921.60
744.40	46576.95
744.59	46198.08
744.77	46015.81
744.96	45831.49
745.14	46255.42
745.33	46249.28
745.51	45774.15
745.70	46316.86
745.88	46232.89
746.07	46079.30
746.26	45579.59
746.44	45604.17
746.63	45772.10
746.81	45976.90
747.00	45456.71
747.18	45505.87
747.37	45718.85
747.55	45768.01
747.74	45686.09
747.92	45569.35
748.11	45931.84
748.29	45296.97
748.48	45573.45
748.66	45358.41
748.85	45380.94
749.03	45634.89
749.22	45585.74
749.41	45528.39
749.59	45671.75
749.78	45512.01
749.96	45118.80
750.15	45106.51
750.33	45354.32
750.52	45364.56
750.70	45376.84
750.89	45102.42
751.07	45323.60
751.26	45421.90
751.44	45268.30
751.63	44942.67
751.81	44778.84
752.00	44852.56
752.18	45167.95
752.37	44862.80
752.55	44871.00
752.74	44537.18
752.92	44762.45
753.10	44553.56
753.29	44768.60
753.47	44592.47
753.66	44547.42
753.84	44690.77
754.03	44391.77
754.21	44559.70
754.40	44647.77
754.58	44725.59
754.77	44758.36
754.95	44449.11
755.14	44301.66
755.32	44481.88
755.51	44262.75
755.69	44162.40
755.88	44203.36
756.06	44084.58
756.24	44039.52
756.43	44387.67
756.61	43965.79
756.80	44377.43
756.98	43765.09
757.17	43824.48
757.35	43799.91
757.54	43808.10
757.72	43808.10
757.90	43877.73
758.09	43779.43
758.27	43769.19
758.46	43509.10
758.64	43916.64
758.83	44414.30
759.01	44162.40
759.19	43713.89
759.38	43758.95
759.56	44027.23
759.75	43990.37
759.93	43588.97
760.12	43341.16
760.30	43750.76
760.48	43795.81
760.67	43724.13
760.85	43887.97
761.04	43728.23
761.22	43941.22
761.40	43398.51
761.59	43951.46
761.77	43193.71
761.96	43703.65
762.14	43343.21
762.32	43210.09
762.51	43267.44
762.69	43255.15
762.88	43212.14
763.06	43222.38
763.24	43623.78
763.43	43326.83
763.61	43220.33
763.80	43193.71
763.98	42978.67
764.16	43187.56
764.35	42268.03
764.53	42534.26
764.72	42995.06
764.90	42712.44
765.08	43087.21
765.27	42874.23
765.45	42722.68
765.63	42544.50
765.82	42804.59
766.00	42407.29
766.18	42937.71
766.37	42814.83
766.55	42390.91
766.74	42456.44
766.92	42474.87
767.10	42399.10
767.29	42964.34
767.47	41932.16
767.65	42259.84
767.84	42399.10
768.02	42165.63
768.20	42118.53
768.39	42229.12
768.57	42139.00
768.75	42065.28
768.94	42411.38
769.12	42241.40
769.30	42026.37
769.49	42186.11
769.67	41997.70
769.85	42007.94
770.04	41868.67
770.22	41780.61
770.40	41502.09
770.59	41395.59
770.77	42341.75
770.95	42177.92
771.14	41485.70
771.32	41315.72
771.50	41549.19
771.69	41377.16
771.87	41680.26
772.05	41690.50
772.24	41211.28
772.42	41414.02
772.60	41153.93
772.78	41276.81
772.97	40957.33
773.15	41770.37
773.33	41522.57
773.52	41348.49
773.70	41385.35
773.88	41358.73
774.07	41012.62
774.25	41495.94
774.43	41475.46
774.61	41620.87
774.80	41788.80
774.98	41153.93
775.16	41706.88
775.34	41414.02
775.53	41704.84
775.71	41508.23
775.89	41948.54
776.08	41532.81
776.26	41399.69
776.44	41178.51
776.62	41659.78
776.81	41592.20
776.99	41352.58
777.17	41579.91
777.35	41577.86
777.54	42270.08
777.72	41663.88
777.90	41579.91
778.08	41784.71
778.27	41465.22
778.45	41964.93
778.63	42112.38
778.81	41932.16
779.00	42503.54
779.18	41973.12
779.36	42075.52
779.54	42448.25
779.73	42132.86
779.91	42550.65
780.09	42626.42
780.27	42769.78
780.46	42302.84
780.64	42831.22
780.82	42448.25
781.00	42212.73
781.19	42663.28
781.37	42628.47
781.55	42634.61
781.73	42827.12
781.91	42911.09
782.10	42753.40
782.28	42495.35
782.46	43005.30
782.64	42653.05
782.82	42691.96
783.01	42794.36
783.19	42980.72
783.37	42757.49
783.55	42669.43
783.74	42956.14
783.92	42470.78
784.10	43101.55
784.28	42993.01
784.46	42603.89
784.64	42640.76
784.83	42771.83
785.01	42745.20
785.19	42653.05
785.37	42685.81
785.55	42710.39
785.74	42509.69
785.92	42444.15
786.10	42993.01
786.28	42607.99
786.46	42456.44
786.64	41981.31
786.83	42685.81
787.01	42399.10
787.19	42354.04
787.37	42507.64
787.55	42483.06
787.74	41876.86
787.92	42114.43
788.10	42308.99
788.28	42190.20
788.46	42575.22
788.64	41827.71
788.82	42220.92
789.01	42087.81
789.19	42055.04
789.37	41704.84
789.55	41952.64
789.73	41571.72
789.91	41551.24
790.09	41420.17
790.28	41629.06
790.46	41352.58
790.64	41837.95
790.82	41692.55
791.00	40936.85
791.18	41358.73
791.36	41174.41
791.55	41252.23
791.73	41444.74
791.91	40961.42
792.09	40990.09
792.27	40942.99
792.45	40678.80
792.63	40949.14
792.81	40637.84
793.00	40748.43
793.18	40955.28
793.36	40594.84
793.54	40187.29
793.72	39945.63
793.90	40299.93
794.08	40113.56
794.26	40074.65
794.44	39859.62
794.62	40007.07
794.81	40007.07
794.99	39826.85
795.17	39933.34
795.35	39454.12
795.53	39783.84
795.71	39566.76
795.89	39124.40
796.07	39085.48
796.25	39097.77
796.43	39028.14
796.61	39024.04
796.80	38884.78
796.98	39474.60
797.16	38821.30
797.34	38434.23
797.52	38845.87
797.70	38276.54
797.88	38174.14
798.06	38061.50
798.24	38530.48
798.42	38049.21
798.60	38188.47
798.78	37930.43
798.96	38368.69
799.14	37778.88
799.32	37942.72
799.51	37819.84
799.69	37629.38
799.87	37801.41
800.05	36984.27
800.23	37438.92
800.41	36875.73
800.59	37176.78
800.77	36976.08
800.95	36421.08
801.13	36881.87
801.31	36376.02
801.49	36928.97
801.67	36697.55
801.85	36625.87
802.03	36554.19
802.21	36558.29
802.39	36275.67
802.57	35972.57
802.75	36046.30
802.93	36353.49
803.11	35614.18
803.29	36058.59
803.47	35560.93
803.65	35528.16
803.83	35714.53
804.01	35356.13
804.19	35485.15
804.37	35456.48
804.55	35560.93
804.73	35288.55
804.91	35175.91
805.09	35153.38
805.27	34776.56
805.45	35077.61
805.63	35239.40
805.81	35026.41
805.99	34921.96
806.17	34694.64
806.35	34950.63
806.53	34317.81
806.71	34434.55
806.89	34139.64
807.07	34502.13
807.25	34409.97
807.43	34049.53
807.61	34149.88
807.79	33744.38
807.97	33994.23
808.15	33549.82
808.33	33832.44
808.51	33713.66
808.69	33695.23
808.87	33680.89
809.05	33271.30
809.23	32896.52
809.41	33166.85
809.59	32624.14
809.77	33265.16
809.95	32800.27
810.13	33072.65
810.31	32755.21
810.49	33166.85
810.67	32878.09
810.84	32607.76
811.02	32638.48
811.20	32402.96
811.38	32716.30
811.56	32366.10
811.74	32181.78
811.92	31884.83
812.10	32257.56
812.28	32407.06
812.46	32118.29
812.64	32146.97
812.82	31917.59
813.00	31942.17
813.18	32091.67
813.36	31596.06
813.53	31731.23
813.71	31823.39
813.89	31213.09
814.07	31487.52
814.25	31174.18
814.43	31321.63
814.61	31090.21
814.79	31196.71
814.97	30922.28
815.15	31102.50
815.33	30889.51
815.50	30717.48
815.68	30985.77
815.86	31290.91
816.04	30684.72
816.22	30826.03
816.40	30668.33
816.58	30236.21
816.76	30574.13
816.94	30246.45
817.11	30574.13
817.29	30404.14
817.47	30283.31
817.65	30250.55
817.83	30043.70
818.01	30344.75
818.19	29935.16
818.37	29910.58
818.54	29738.55
818.72	29677.12
818.90	29972.02
819.08	29709.88
819.26	29654.59
819.44	29746.75
819.62	29623.87
819.80	29677.12
819.97	29492.80
820.15	29466.17
820.33	29267.52
820.51	29402.69
820.69	29005.38
820.87	29556.28
821.05	29259.33
821.22	29158.98
821.40	29064.77
821.58	28882.50
821.76	28812.87
821.94	28945.99
822.12	29181.51
822.29	29120.07
822.47	28530.25
822.65	29009.48
822.83	28675.66
823.01	28360.27
823.19	28563.02
823.36	28401.23
823.54	28511.82
823.72	28395.09
823.90	28157.52
824.08	27821.66
824.25	28188.24
824.43	28106.32
824.61	27942.49
824.79	28040.79
824.97	27821.66
825.15	28065.36
825.32	27870.81
825.50	27782.74
825.68	27731.54
825.86	27965.01
826.04	27752.02
826.21	27483.74
826.39	27491.93
826.57	27635.29
826.75	27534.94
826.93	27371.10
827.10	27235.94
827.28	27684.44
827.46	27313.76
827.64	27536.99
827.81	27502.17
827.99	27399.77
828.17	27080.29
828.35	27199.07
828.53	27319.90
828.70	27096.67
828.88	27207.26
829.06	27262.56
829.24	26947.17
829.41	26943.08
829.59	27280.99
829.77	26766.95
829.95	26926.69
830.12	26723.94
830.30	26719.85
830.48	27027.04
830.66	26834.53
830.84	26656.36
831.01	26355.31
831.19	26695.27
831.37	26463.85
831.55	26222.19
831.72	26390.13
831.90	26586.73
832.08	26433.13
832.25	26246.77
832.43	26367.60
832.61	26447.47
832.79	26236.53
832.96	26445.42
833.14	26082.93
833.32	26109.55
833.50	26097.27
833.67	26275.44
833.85	26453.61
834.03	25650.81
834.20	26189.42
834.38	26054.26
834.56	26058.35
834.74	25824.89
834.91	25861.75
835.09	25800.31
835.27	25427.58
835.44	25861.75
835.62	25364.09
835.80	25677.43
835.98	25742.97
836.15	25751.16
836.33	25521.79
836.51	25613.95
836.68	25405.05
836.86	25693.82
837.04	25570.94
837.21	25286.27
837.39	25314.94
837.57	25302.65
837.75	25304.70
837.92	25026.18
838.10	25230.98
838.28	24913.54
838.45	24964.74
838.63	25157.25
838.81	24948.36
838.98	24776.33
839.16	24911.49
839.34	24899.20
839.51	24665.74
839.69	24610.44
839.87	24460.94
840.04	24807.05
840.22	24639.11
840.40	25065.09
840.57	24508.04
840.75	24626.82
840.93	24473.23
841.10	24944.26
841.28	24759.94
841.46	24536.71
841.63	24635.02
841.81	24454.79
841.98	24559.24
842.16	24624.78
842.34	24442.51
842.51	24252.05
842.69	24497.80
842.87	24317.58
843.04	24299.15
843.22	24217.23
843.40	24393.36
843.57	24157.84
843.75	24553.10
843.92	24229.52
844.10	24206.99
844.28	24120.98
844.45	24145.55
844.63	23955.09
844.81	23803.54
844.98	24356.49
845.16	23738.01
845.33	24045.20
845.51	23926.42
845.69	24100.50
845.86	23760.53
846.04	23754.39
846.21	23654.04
846.39	23701.14
846.57	23938.71
846.74	23494.30
846.92	23369.37
847.09	23723.67
847.27	23527.06
847.45	23502.49
847.62	23953.04
847.80	23613.08
847.97	23660.18
848.15	23377.56
848.32	23230.11
848.50	23451.29
848.68	23287.45
848.85	23414.43
849.03	23389.85
849.20	23375.52
849.38	23369.37
849.56	23527.06
849.73	23199.39
849.91	23309.98
850.08	23336.60
850.26	22873.76
850.43	23287.45
850.61	23434.91
850.78	22902.43
850.96	23068.32
851.14	23101.09
851.31	23080.61
851.49	22822.56
851.66	23107.23
851.84	23123.62
852.01	22851.24
852.19	23025.31
852.36	23107.23
852.54	22718.12
852.71	22865.57
852.89	22656.68
853.07	22458.03
853.24	22711.97
853.42	22582.95
853.59	22572.71
853.77	22699.69
853.94	22601.38
854.12	22963.87
854.29	22460.07
854.47	22685.35
854.64	22341.29
854.82	22046.38
854.99	22308.52
855.17	22695.59
855.34	22470.31
855.52	22357.67
855.69	22476.46
855.87	22441.64
856.04	21982.90
856.22	22318.76
856.39	22267.56
856.57	22501.03
856.74	22394.54
856.92	22333.10
857.09	22181.55
857.27	22011.57
857.44	22519.46
857.62	22286.00
857.79	22025.90
857.97	21976.75
858.14	22208.17
858.32	22093.49
858.49	21837.49
858.67	21894.83
858.84	21911.22
859.02	22083.25
859.19	21554.87
859.37	21939.89
859.54	21700.28
859.72	22011.57
859.89	21831.35
860.06	21872.31
860.24	21972.66
860.41	22040.24
860.59	21505.72
860.76	21911.22
860.94	21409.47
861.11	21737.14
861.29	21563.06
861.46	21722.80
861.64	21397.18
861.81	21429.94
861.98	21411.51
862.16	21456.57
862.33	21462.71
862.51	21354.17
862.68	21524.15
862.86	21505.72
863.03	21311.16
863.21	21026.50
863.38	21219.00
863.55	21327.55
863.73	21151.42
863.90	21282.49
864.08	21300.92
864.25	21001.92
864.43	21319.35
864.60	21196.48
864.77	21051.07
864.95	20747.97
865.12	21012.16
865.30	21116.61
865.47	20852.42
865.64	20881.09
865.82	20958.91
865.99	20926.14
866.17	20823.75
866.34	20639.43
866.51	20672.20
866.69	20983.49
866.86	20825.79
867.04	20844.23
867.21	21241.53
867.38	20721.35
867.56	20491.98
867.73	20709.06
867.91	20502.22
868.08	20590.28
868.25	20653.76
868.43	20715.20
868.60	20397.77
868.78	20436.68
868.95	20768.45
869.12	20502.22
869.30	20328.14
869.47	20424.39
869.64	20123.34
869.82	20367.05
869.99	20229.84
870.16	20371.15
870.34	20074.19
870.51	20289.23
870.69	19906.26
870.86	20291.27
871.03	20082.38
871.21	19975.89
871.38	20299.47
871.55	19699.41
871.73	19723.99
871.90	19826.39
872.07	19783.38
872.25	19597.01
872.42	19529.43
872.59	19662.55
872.77	19701.46
872.94	19291.87
873.11	19838.67
873.29	19369.69
873.46	19736.27
873.63	19668.69
873.81	19511.00
873.98	19390.17
874.15	19148.51
874.33	19308.25
874.50	19261.15
874.67	19232.47
874.85	19289.82
875.02	19459.80
875.19	19242.71
875.37	19261.15
875.54	19001.05
875.71	19103.45
875.88	18853.60
876.06	19072.73
876.23	18802.40
876.40	18886.37
876.58	18820.83
876.75	18968.29
876.92	18839.26
877.10	18769.63
877.27	18611.94
877.44	18808.54
877.61	18523.88
877.79	18620.13
877.96	18501.35
878.13	18726.63
878.31	18413.29
878.48	18376.42
878.65	18595.56
878.82	18329.32
879.00	18513.64
879.17	18446.05
879.34	18405.10
879.51	18140.91
879.69	18132.72
879.86	17958.64
880.03	18259.69
880.21	18134.76
880.38	18415.34
880.55	18360.04
880.72	18054.89
880.90	18233.07
881.07	18069.23
881.24	17909.49
881.41	18145.00
881.59	17891.06
881.76	17864.43
881.93	17884.91
882.10	17786.61
882.28	17848.05
882.45	18077.42
882.62	17719.03
882.79	17950.45
882.96	17755.89
883.14	17821.42
883.31	17889.01
883.48	17635.06
883.65	17731.31
883.83	17729.27
884.00	17745.65
884.17	17598.20
884.34	17583.86
884.51	17710.83
884.69	17661.68
884.86	17565.43
885.03	17487.61
885.20	17432.31
885.38	17516.28
885.55	17366.78
885.72	17598.20
885.89	17471.22
886.06	17598.20
886.24	17551.09
886.41	17305.34
886.58	17512.18
886.75	17454.84
886.92	17235.70
887.10	17465.08
887.27	17196.79
887.44	17254.14
887.61	17352.44
887.78	17237.75
887.95	17217.27
888.13	16826.11
888.30	17065.72
888.47	16893.69
888.64	16918.27
888.81	17004.28
888.99	16811.78
889.16	16750.34
889.33	16471.81
889.50	16613.12
889.67	16678.66
889.84	16527.11
890.01	16633.60
890.19	16465.67
890.36	16791.30
890.53	16701.19
890.70	16799.49
890.87	16326.41
891.04	16555.78
891.22	16342.79
891.39	16271.11
891.56	16318.22
891.73	16375.56
891.90	16342.79
892.07	16047.88
892.24	16609.03
892.42	16307.98
892.59	16103.18
892.76	16154.38
892.93	16142.09
893.10	16248.58
893.27	16234.25
893.44	16080.65
893.61	16166.67
893.79	16060.17
893.96	16361.22
894.13	15968.01
894.30	16054.03
894.47	16127.75
894.64	16176.91
894.81	16133.90
894.98	16111.37
895.15	16209.67
895.33	16002.83
895.50	16004.88
895.67	16002.83
895.84	15974.16
896.01	15937.29
896.18	15671.06
896.35	15779.60
896.52	15922.96
896.69	15904.53
896.86	15920.91
897.04	15716.11
897.21	15949.58
897.38	15767.31
897.55	15978.25
897.72	15843.09
897.89	15750.93
898.06	15871.76
898.23	15804.17
898.40	15849.23
898.57	15820.56
898.74	15781.65
898.91	15810.32
899.08	15580.95
899.26	15884.05
899.43	15714.06
899.60	15791.89
899.77	15755.02
899.94	15781.65
900.11	15675.15
900.28	15673.10
900.45	15679.25
900.62	15630.10
900.79	15765.26
900.96	15617.81
901.13	15759.12
901.30	15652.63
901.47	15400.72
901.64	15353.62
901.81	15607.57
901.98	15566.61
902.15	15738.64
902.32	15429.40
902.49	15650.58
902.66	15648.53
902.83	15431.44
903.01	15687.44
903.18	15370.01
903.35	15611.67
903.52	15458.07
903.69	15642.39
903.86	15531.80
904.03	15236.89
904.20	15806.22
904.37	15501.08
904.54	15486.74
904.71	15544.08
904.88	15580.95
905.05	15527.70
905.22	15560.47
905.39	15595.28
905.56	15480.60
905.73	15441.68
905.90	15564.56
906.07	15748.88
906.24	15589.14
906.41	15333.14
906.58	15478.55
906.75	15370.01
906.92	15271.70
907.09	15404.82
907.26	15435.54
907.43	14991.13
907.60	15611.67
907.77	15519.51
907.93	15404.82
908.10	15449.88
908.27	15398.68
908.44	15195.93
908.61	15333.14
908.78	15257.37
908.95	15329.05
909.12	15179.54
909.29	15126.30
909.46	15206.17
909.63	15396.63
909.80	15275.80
909.97	15130.39
910.14	15234.84
910.31	15003.42
910.48	15269.66
910.65	15240.98
910.82	15077.15
910.99	15027.99
911.16	14946.08
911.33	15034.14
911.50	14898.97
911.66	14847.77
911.83	15060.76
912.00	14890.78
912.17	14786.33
912.34	14819.10
912.51	14888.73
912.68	14589.73
912.85	14702.37
913.02	14923.55
913.19	14946.08
913.36	14700.32
913.53	14815.01
913.70	14677.79
913.86	14704.42
914.03	14792.48
914.20	14645.02
914.37	14522.15
914.54	14610.21
914.71	14599.97
914.88	14618.40
915.05	14694.18
915.22	14262.05
915.39	14173.99
915.55	14511.91
915.72	14249.77
915.89	14212.90
916.06	14053.16
916.23	14167.85
916.40	14217.00
916.57	14188.33
916.74	14112.55
916.91	13938.48
917.07	14034.73
917.24	13889.32
917.41	14176.04
917.58	13821.74
917.75	13705.01
917.92	13803.31
918.09	13909.80
918.26	13741.87
918.42	13879.08
918.59	13551.41
918.76	13363.00
918.93	13463.35
919.10	13584.18
919.27	13467.44
919.44	13346.61
919.60	13616.94
919.77	13311.80
919.94	13422.39
920.11	13195.06
920.28	13424.44
920.45	13137.72
920.61	12906.30
920.78	13025.08
920.95	13066.04
921.12	13061.94
921.29	12889.92
921.46	12920.63
921.62	12732.22
921.79	12877.63
921.96	12719.93
922.13	12664.64
922.30	12652.35
922.47	12785.47
922.63	12644.16
922.80	12769.09
922.97	12384.07
923.14	12320.58
923.31	12259.14
923.47	12322.63
923.64	12445.51
923.81	12056.39
923.98	12388.16
924.15	12205.89
924.32	12078.92
924.48	12388.16
924.65	12199.75
924.82	11960.14
924.99	12089.16
925.15	11857.74
925.32	11982.67
925.49	11628.37
925.66	11872.07
925.83	11712.33
925.99	11517.78
926.16	11665.23
926.33	11804.49
926.50	11710.29
926.67	11738.96
926.83	11384.66
927.00	11501.39
927.17	11360.08
927.34	11177.81
927.50	11478.86
927.67	11296.60
927.84	11202.39
928.01	11038.55
928.17	11269.97
928.34	11059.03
928.51	11153.24
928.68	11073.37
928.84	10882.91
929.01	10606.43
929.18	10747.74
929.35	10764.12
929.51	10694.49
929.68	10329.95
929.85	10616.67
930.02	10456.93
930.18	10430.30
930.35	10555.23
930.52	10520.42
930.69	10397.54
930.85	10313.57
931.02	10291.04
931.19	10360.67
931.36	10411.87
931.52	10149.73
931.69	10125.16
931.86	10045.29
932.02	10071.91
932.19	10051.43
932.36	10018.66
932.53	9979.75
932.69	9994.09
932.86	10043.24
933.03	9650.03
933.19	9746.28
933.36	9715.56
933.53	9688.94
933.70	9449.33
933.86	9482.10
934.03	9617.26
934.20	9211.76
934.36	9420.66
934.53	9138.04
934.70	9039.73
934.86	9258.87
935.03	9076.60
935.20	9133.94
935.36	9131.89
935.53	8808.31
935.70	8853.37
935.86	9002.87
936.03	8654.72
936.20	8443.78
936.36	8585.08
936.53	8402.82
936.70	8681.34
936.86	8439.68
937.03	8507.26
937.20	8105.86
937.36	8179.59
937.53	8001.41
937.70	7837.58
937.86	7675.79
938.03	7731.08
938.20	7839.62
938.36	7600.01
938.53	7708.55
938.70	7401.36
938.86	7333.78
939.03	7323.54
939.20	7206.80
939.36	7317.39
939.53	7055.25
939.70	7341.97
939.86	6893.46
940.03	6858.65
940.19	6733.72
940.36	6623.13
940.53	6848.41
940.69	6741.91
940.86	6573.98
941.03	6512.54
941.19	6338.46
941.36	6371.23
941.52	6418.33
941.69	6168.48
941.86	6133.67
942.02	6051.75
942.19	5932.97
942.35	6162.34
942.52	6002.60
942.69	5949.35
942.85	5762.98
943.02	5871.53
943.18	5926.82
943.35	5642.15
943.52	5777.32
943.68	5715.88
943.85	5703.59
944.01	5488.56
944.18	5638.06
944.35	5605.29
944.51	5572.52
944.68	5476.27
944.84	5437.36
945.01	5375.92
945.17	5533.61
945.34	5318.57
945.51	5431.21
945.67	5304.24
945.84	5267.38
946.00	5253.04
946.17	5361.58
946.33	5173.17
946.50	5468.08
946.67	5195.70
946.83	5173.17
947.00	5277.62
947.16	5294.00
947.33	5246.90
947.49	5226.42
947.66	5150.64
947.82	5255.09
947.99	5250.99
948.16	5355.44
948.32	5187.50
948.49	5343.15
948.65	5294.00
948.82	5199.79
948.98	5330.86
949.15	5142.45
949.31	5242.80
949.48	5232.56
949.64	5291.95
949.81	5222.32
949.97	5296.05
950.14	5285.81
950.30	5244.85
950.47	5353.39
950.63	5185.46
950.80	5226.42
950.96	5173.17
951.13	5261.23
951.30	5316.53
951.46	5248.94
951.63	5402.54
951.79	5351.34
951.96	5390.25
952.12	5281.71
952.29	5470.12
952.45	5212.08
952.62	5175.22
952.78	5418.93
952.94	5337.01
953.11	5230.51
953.27	5279.66
953.44	5568.43
953.60	5377.97
953.77	5373.87
953.93	5402.54
954.10	5308.34
954.26	5431.21
954.43	5384.11
954.59	5412.78
954.76	5517.23
954.92	5480.36
955.09	5320.62
955.25	5285.81
955.42	5316.53
955.58	5500.84
955.75	5433.26
955.91	5369.77
956.07	5334.96
956.24	5492.65
956.40	5410.73
956.57	5472.17
956.73	5402.54
956.90	5386.16
957.06	5431.21
957.23	5408.69
957.39	5316.53
957.56	5472.17
957.72	5351.34
957.88	5279.66
958.05	5482.41
958.21	5513.13
958.38	5369.77
958.54	5312.43
958.71	5506.99
958.87	5463.98
959.03	5449.64
959.20	5328.81
959.36	5351.34
959.53	5439.40
959.69	5445.55
959.85	5441.45
960.02	5359.53
960.18	5400.49
960.35	5435.31
960.51	5543.85
960.68	5427.12
960.84	5468.08
961.00	5275.57
961.17	5287.86
961.33	5511.08
961.50	5435.31
961.66	5515.18
961.82	5357.49
961.99	5359.53
962.15	5402.54
962.31	5402.54
962.48	5308.34
962.64	5556.14
962.81	5365.68
962.97	5234.61
963.13	5361.58
963.30	5263.28
963.46	5246.90
963.62	5443.50
963.79	5203.89
963.95	5351.34
964.12	5523.37
964.28	5298.10
964.44	5269.42
964.61	5308.34
964.77	5334.96
964.93	5431.21
965.10	5369.77
965.26	5326.77
965.42	5294.00
965.59	5337.01
965.75	5222.32
965.92	5318.57
966.08	5343.15
966.24	5283.76
966.41	5107.63
966.57	5132.21
966.73	5404.59
966.90	5228.46
967.06	5279.66
967.22	5187.50
967.39	5203.89
967.55	5203.89
967.71	5263.28
967.88	5187.50
968.04	5224.37
968.20	5355.44
968.37	5189.55
968.53	5148.59
968.69	5068.72
968.85	5035.96
969.02	5238.70
969.18	5169.07
969.34	4960.18
969.51	5212.08
969.67	5113.78
969.83	5064.63
970.00	5205.94
970.16	5121.97
970.32	5246.90
970.48	5113.78
970.65	5009.33
970.81	5025.72
970.97	5062.58
971.14	4855.73
971.30	5101.49
971.46	5021.62
971.63	4935.60
971.79	5144.50
971.95	5146.55
972.11	4913.08
972.28	5050.29
972.44	5007.28
972.60	4870.07
972.76	5005.24
972.93	4804.53
973.09	5025.72
973.25	4968.37
973.42	4960.18
973.58	4915.12
973.74	5009.33
973.90	4939.70
974.07	4872.12
974.23	4878.26
974.39	4814.77
974.55	4890.55
974.72	4900.79
974.88	4732.86
975.04	4980.66
975.20	4878.26
975.37	4818.87
975.53	4911.03
975.69	4896.69
975.85	4775.86
976.01	4722.62
976.18	4755.38
976.34	4689.85
976.50	4892.60
976.66	4917.17
976.83	4775.86
976.99	4816.82
977.15	4747.19
977.31	4579.26
977.47	4851.64
977.64	4601.79
977.80	4577.21
977.96	4661.18
978.12	4708.28
978.29	4618.17
978.45	4450.24
978.61	4523.96
978.77	4620.22
978.93	4519.87
979.10	4581.31
979.26	4589.50
979.42	4526.01
979.58	4360.13
979.74	4517.82
979.91	4585.40
980.07	4480.96
980.23	4478.91
980.39	4468.67
980.55	4433.85
980.71	4546.49
980.88	4394.94
981.04	4433.85
981.20	4429.76
981.36	4403.13
981.52	4390.84
981.68	4380.61
981.85	4417.47
982.01	4452.28
982.17	4364.22
982.33	4358.08
982.49	4327.36
982.65	4251.58
982.82	4351.93
982.98	4343.74
983.14	4321.21
983.30	4306.88
983.46	4186.05
983.62	4284.35
983.79	4138.94
983.95	4300.73
984.11	4145.09
984.27	4243.39
984.43	4343.74
984.59	4286.40
984.75	4362.17
984.91	4169.66
985.08	4243.39
985.24	4102.08
985.40	4159.42
985.56	4208.58
985.72	4274.11
985.88	4253.63
986.04	4120.51
986.20	4018.11
986.37	4073.41
986.53	3968.96
986.69	4081.60
986.85	4083.65
987.01	4071.36
987.17	4239.30
987.33	4091.84
987.49	3981.25
987.65	3960.77
987.82	4071.36
987.98	3897.28
988.14	4071.36
988.30	4134.85
988.46	3973.06
988.62	4001.73
988.78	3964.87
988.94	3977.16
989.10	3909.57
989.26	3895.24
989.42	3868.61
989.59	3841.99
989.75	3803.08
989.91	3958.72
990.07	3788.74
990.23	3852.23
990.39	3794.89
990.55	4026.31
990.71	3870.66
990.87	3835.85
991.03	3907.52
991.19	3805.13
991.35	3815.37
991.51	3735.50
991.67	3891.14
991.83	3928.00
992.00	3758.02
992.16	3934.15
992.32	3766.21
992.48	3745.73
992.64	3712.97
992.80	3854.28
992.96	3702.73
993.12	3672.01
993.28	3676.10
993.44	3710.92
993.60	3686.34
993.76	3612.62
993.92	3731.40
994.08	3817.41
994.24	3669.96
994.40	3592.14
994.56	3753.93
994.72	3579.85
994.88	3684.30
995.04	3588.04
995.20	3626.95
995.36	3461.07
995.52	3596.23
995.68	3561.42
995.84	3512.27
996.00	3665.86
996.16	3530.70
996.32	3428.30
996.48	3551.18
996.64	3733.45
996.80	3440.59
996.96	3561.42
997.12	3571.66
997.28	3438.54
997.44	3526.60
997.60	3309.52
997.76	3524.55
997.92	3493.83
998.08	3467.21
998.24	3469.26
998.40	3436.49
998.56	3477.45
998.72	3297.23
998.88	3399.63
999.04	3338.19
999.20	3508.17
999.36	3182.54
999.52	3483.59
999.68	3366.86
999.84	3354.57
1000.00	3311.57
1000.16	3321.81
1000.32	3338.19
1000.48	3387.34
1000.64	3293.13
1000.80	3327.95
1000.95	3092.43
1001.11	3305.42
1001.27	3246.03
1001.43	3196.88
1001.59	3170.26
1001.75	3235.79
1001.91	3219.41
1002.07	3125.20
1002.23	3164.11
1002.39	3209.17
1002.55	3137.49
1002.71	3155.92
1002.87	3192.78
1003.03	3145.68
1003.19	3067.86
1003.34	3135.44
1003.50	3114.96
1003.66	3256.27
1003.82	3153.87
1003.98	3069.91
1004.14	3157.97
1004.30	3166.16
1004.46	3053.52
1004.62	3086.29
1004.78	3074.00
1004.94	3051.47
1005.09	3069.91
1005.25	3000.27
1005.41	3135.44
1005.57	3000.27
1005.73	2893.78
1005.89	2947.03
1006.05	3123.15
1006.21	2967.51
1006.37	2922.45
1006.52	2901.97
1006.68	2936.79
1006.84	3000.27
1007.00	2947.03
1007.16	2912.21
1007.32	2887.64
1007.48	2912.21
1007.64	2899.92
1007.79	2967.51
1007.95	2940.88
1008.11	2930.64
1008.27	2975.70
1008.43	2834.39
1008.59	2934.74
1008.75	2918.36
1008.91	2975.70
1009.06	2879.44
1009.22	2854.87
1009.38	2760.66
1009.54	2854.87
1009.70	2758.61
1009.86	2861.01
1010.01	2789.33
1010.17	2691.03
1010.33	2830.29
1010.49	2709.46
1010.65	2877.40
1010.81	2703.32
1010.96	2725.85
1011.12	2656.22
1011.28	2803.67
1011.44	2813.91
1011.60	2775.00
1011.76	2734.04
1011.91	2795.48
1012.07	2699.22
1012.23	2631.64
1012.39	2699.22
1012.55	2736.09
1012.71	2760.66
1012.86	2635.74
1013.02	2568.15
1013.18	2613.21
1013.34	2680.79
1013.50	2656.22
1013.65	2648.02
1013.81	2588.63
1013.97	2674.65
1014.13	2684.89
1014.29	2688.98
1014.44	2686.94
1014.60	2584.54
1014.76	2607.06
1014.92	2535.39
1015.07	2639.83
1015.23	2549.72
1015.39	2514.91
1015.55	2615.26
1015.71	2641.88
1015.86	2566.10
1016.02	2547.67
1016.18	2492.38
1016.34	2580.44
1016.49	2547.67
1016.65	2615.26
1016.81	2447.32
1016.97	2592.73
1017.12	2492.38
1017.28	2387.93
1017.44	2426.84
1017.60	2502.62
1017.75	2475.99
1017.91	2488.28
1018.07	2527.19
1018.23	2486.23
1018.38	2394.08
1018.54	2467.80
1018.70	2396.12
1018.86	2408.41
1019.01	2404.32
1019.17	2355.16
1019.33	2527.19
1019.49	2424.80
1019.64	2443.23
1019.80	2467.80
1019.96	2547.67
1020.12	2506.71
1020.27	2346.97
1020.43	2379.74
1020.59	2426.84
1020.74	2369.50
1020.90	2502.62
1021.06	2342.88
1021.22	2334.68
1021.37	2371.55
1021.53	2330.59
1021.69	2324.44
1021.84	2400.22
1022.00	2369.50
1022.16	2250.72
1022.31	2340.83
1022.47	2383.84
1022.63	2336.73
1022.79	2326.49
1022.94	2267.10
1023.10	2367.45
1023.26	2310.11
1023.41	2342.88
1023.57	2287.58
1023.73	2306.01
1023.88	2248.67
1024.04	2228.19
1024.20	2314.20
1024.35	2273.25
1024.51	2293.72
1024.67	2254.81
1024.82	2279.39
1024.98	2174.94
1025.14	2265.05
1025.29	2105.31
1025.45	2289.63
1025.61	2236.38
1025.76	2197.47
1025.92	2215.90
1026.08	2220.00
1026.23	2273.25
1026.39	2230.24
1026.55	2207.71
1026.70	2189.28
1026.86	2156.51
1027.02	2152.42
1027.17	2211.81
1027.33	2256.86
1027.48	2187.23
1027.64	2131.94
1027.80	2095.07
1027.95	2273.25
1028.11	2123.74
1028.27	2093.02
1028.42	2156.51
1028.58	2093.02
1028.73	2058.21
1028.89	2062.30
1029.05	2144.22
1029.20	2172.89
>>>>>End Processed Spectral Data<<<<<
