SpectraSuite Data File
++++++++++++++++++++++++++++++++++++
Date: Fri Jun 02 14:44:34 CEST 2017
User: INFO_000
Dark Spectrum Present: No
Reference Spectrum Present: No
Number of Sampled Component Spectra: 1
Spectrometers: USB4H00879
Integration Time (usec): 80000 (USB4H00879)
Spectra Averaged: 1 (USB4H00879)
Boxcar Smoothing: 0 (USB4H00879)
Correct for Electrical Dark: No (USB4H00879)
Strobe/Lamp Enabled: No (USB4H00879)
Correct for Detector Non-linearity: No (USB4H00879)
Correct for Stray Light: No (USB4H00879)
Number of Pixels in Processed Spectrum: 3648
>>>>>Begin Processed Spectral Data<<<<<
345.13	1282.03
345.34	1282.03
345.56	1282.03
345.78	1298.41
345.99	1331.18
346.21	1718.25
346.42	1648.61
346.64	1578.98
346.86	1767.40
347.07	1703.91
347.29	1703.91
347.50	1658.85
347.72	1613.80
347.94	1746.92
348.15	1517.54
348.37	1650.66
348.59	1656.81
348.80	1599.46
349.02	1820.64
349.23	1888.23
349.45	1865.70
349.67	1834.98
349.88	1834.98
350.10	1959.91
350.31	1806.31
350.53	1755.11
350.75	2017.25
350.96	1849.32
351.18	1871.84
351.39	1828.84
351.61	1818.60
351.82	1976.29
352.04	1896.42
352.26	1839.08
352.47	1894.37
352.69	1990.63
352.90	1695.72
353.12	1804.26
353.34	1859.56
353.55	1863.65
353.77	1916.90
353.98	1886.18
354.20	1875.94
354.41	1855.46
354.63	1773.54
354.85	1998.82
355.06	1882.08
355.28	1851.36
355.49	1949.67
355.71	1861.60
355.92	1925.09
356.14	1992.67
356.35	1837.03
356.57	1886.18
356.79	1949.67
357.00	1912.80
357.22	1937.38
357.43	1892.32
357.65	1898.47
357.86	1861.60
358.08	1931.23
358.29	1933.28
358.51	1990.63
358.72	1970.15
358.94	1875.94
359.16	1947.62
359.37	1871.84
359.59	1986.53
359.80	1996.77
360.02	1873.89
360.23	1966.05
360.45	2066.40
360.66	1929.19
360.88	1843.17
361.09	1900.52
361.31	1918.95
361.52	1976.29
361.74	2009.06
361.95	2017.25
362.17	1933.28
362.38	2066.40
362.60	2058.21
362.81	1982.43
363.03	1933.28
363.24	1984.48
363.46	2009.06
363.67	2062.30
363.89	2007.01
364.10	1978.34
364.32	1943.52
364.53	2093.02
364.75	1886.18
364.96	2025.44
365.18	1947.62
365.39	2035.68
365.61	1966.05
365.82	2080.74
366.04	1978.34
366.25	2019.30
366.47	2043.87
366.68	1982.43
366.90	2060.26
367.11	1994.72
367.33	2002.91
367.54	2027.49
367.76	2000.87
367.97	2107.36
368.19	1998.82
368.40	2025.44
368.62	2019.30
368.83	1986.53
369.05	1937.38
369.26	1949.67
369.48	2039.78
369.69	1982.43
369.91	2074.59
370.12	2031.58
370.33	2035.68
370.55	1976.29
370.76	2029.54
370.98	2007.01
371.19	2021.35
371.41	2047.97
371.62	2017.25
371.84	1968.10
372.05	2170.85
372.27	2043.87
372.48	2090.98
372.69	2105.31
372.91	2072.54
373.12	2242.53
373.34	2172.89
373.55	2117.60
373.77	2166.75
373.98	2166.75
374.20	2172.89
374.41	2236.38
374.62	2084.83
374.84	2113.50
375.05	2215.90
375.27	2236.38
375.48	2131.94
375.70	2181.09
375.91	2238.43
376.12	2265.05
376.34	2152.42
376.55	2172.89
376.77	2197.47
376.98	2105.31
377.19	2121.70
377.41	2142.18
377.62	2228.19
377.84	2256.86
378.05	2377.69
378.27	2232.29
378.48	2330.59
378.69	2346.97
378.91	2308.06
379.12	2330.59
379.34	2248.67
379.55	2256.86
379.76	2232.29
379.98	2246.62
380.19	2195.42
380.41	2301.92
380.62	2314.20
380.83	2285.53
381.05	2183.13
381.26	2398.17
381.47	2187.23
381.69	2267.10
381.90	2426.84
382.12	2263.01
382.33	2258.91
382.54	2328.54
382.76	2353.12
382.97	2287.58
383.19	2287.58
383.40	2475.99
383.61	2303.96
383.83	2289.63
384.04	2297.82
384.25	2344.92
384.47	2371.55
384.68	2312.16
384.89	2263.01
385.11	2254.81
385.32	2406.36
385.54	2369.50
385.75	2318.30
385.96	2455.51
386.18	2398.17
386.39	2455.51
386.60	2351.07
386.82	2457.56
387.03	2363.36
387.24	2484.19
387.46	2467.80
387.67	2455.51
387.88	2447.32
388.10	2357.21
388.31	2488.28
388.52	2572.25
388.74	2496.47
388.95	2562.01
389.16	2516.95
389.38	2508.76
389.59	2537.43
389.80	2650.07
390.02	2541.53
390.23	2615.26
390.44	2537.43
390.66	2494.43
390.87	2527.19
391.08	2527.19
391.30	2625.50
391.51	2691.03
391.72	2656.22
391.94	2615.26
392.15	2555.86
392.36	2641.88
392.58	2535.39
392.79	2676.70
393.00	2682.84
393.22	2752.47
393.43	2707.41
393.64	2867.16
393.85	2680.79
394.07	2721.75
394.28	2643.93
394.49	2779.09
394.71	2752.47
394.92	2871.25
395.13	2754.52
395.35	2686.94
395.56	2723.80
395.77	2721.75
395.98	2795.48
396.20	2901.97
396.41	2871.25
396.62	2883.54
396.84	2824.15
397.05	2936.79
397.26	2846.68
397.47	2883.54
397.69	2899.92
397.90	3014.61
398.11	2893.78
398.32	2848.72
398.54	2869.20
398.75	2914.26
398.96	2920.40
399.18	3065.81
399.39	2955.22
399.60	3053.52
399.81	2959.31
400.03	2922.45
400.24	3178.45
400.45	3030.99
400.66	3149.78
400.88	3026.90
401.09	3184.59
401.30	3147.73
401.51	3207.12
401.73	3094.48
401.94	3239.89
402.15	3069.91
402.36	3139.54
402.58	3153.87
402.79	3186.64
403.00	3186.64
403.21	3186.64
403.43	3270.61
403.64	3211.22
403.85	3057.62
404.06	3213.26
404.27	3182.54
404.49	3176.40
404.70	3186.64
404.91	3325.90
405.12	3170.26
405.34	3135.44
405.55	3459.02
405.76	3170.26
405.97	3178.45
406.19	3274.70
406.40	3215.31
406.61	3325.90
406.82	3370.96
407.03	3289.04
407.25	3299.28
407.46	3346.38
407.67	3342.28
407.88	3436.49
408.09	3362.76
408.31	3469.26
408.52	3452.88
408.73	3319.76
408.94	3350.48
409.15	3385.29
409.37	3405.77
409.58	3499.98
409.79	3438.54
410.00	3536.84
410.21	3327.95
410.43	3452.88
410.64	3428.30
410.85	3483.59
411.06	3559.37
411.27	3485.64
411.48	3542.99
411.70	3491.79
411.91	3581.90
412.12	3510.22
412.33	3620.81
412.54	3639.24
412.76	3606.47
412.97	3575.75
413.18	3639.24
413.39	3616.71
413.60	3669.96
413.81	3643.34
414.03	3669.96
414.24	3596.23
414.45	3925.96
414.66	3641.29
414.87	3784.65
415.08	3647.43
415.30	3747.78
415.51	3801.03
415.72	3774.41
415.93	3792.84
416.14	3790.79
416.35	3811.27
416.56	3860.42
416.78	3944.39
416.99	3895.24
417.20	3848.13
417.41	3991.49
417.62	3987.40
417.83	3997.64
418.04	3907.52
418.26	3987.40
418.47	3907.52
418.68	4120.51
418.89	3837.89
419.10	4165.57
419.31	4014.02
419.52	4042.69
419.73	4171.71
419.95	4100.03
420.16	4011.97
420.37	4069.31
420.58	4196.29
420.79	4018.11
421.00	4206.53
421.21	4173.76
421.42	4095.94
421.63	4190.14
421.85	4222.91
422.06	4288.45
422.27	4157.38
422.48	4241.34
422.69	4317.12
422.90	4300.73
423.11	4300.73
423.32	4362.17
423.53	4351.93
423.75	4337.60
423.96	4419.52
424.17	4390.84
424.38	4511.68
424.59	4554.68
424.80	4687.80
425.01	4446.14
425.22	4442.04
425.43	4358.08
425.64	4691.90
425.85	4562.87
426.06	4679.61
426.28	4519.87
426.49	4552.63
426.70	4528.06
426.91	4583.35
427.12	4706.23
427.33	4655.03
427.54	4575.16
427.75	4767.67
427.96	4855.73
428.17	4870.07
428.38	4706.23
428.59	4886.45
428.80	4741.05
429.01	4853.69
429.23	4837.30
429.44	5017.52
429.65	4997.04
429.86	5103.54
430.07	4902.84
430.28	4790.20
430.49	4958.13
430.70	5052.34
430.91	5070.77
431.12	4978.61
431.33	5064.63
431.54	5042.10
431.75	5128.11
431.96	5072.82
432.17	4988.85
432.38	5124.02
432.59	5371.82
432.80	5130.16
433.01	5189.55
433.22	5275.57
433.43	5261.23
433.64	5386.16
433.85	5310.38
434.06	5275.57
434.27	5304.24
434.49	5480.36
434.70	5519.28
434.91	5531.56
435.12	5459.88
435.33	5404.59
435.54	5498.80
435.75	5273.52
435.96	5570.48
436.17	5375.92
436.38	5560.24
436.59	5674.92
436.80	5609.39
437.01	5918.63
437.22	5693.35
437.43	5703.59
437.64	5492.65
437.85	5644.20
438.06	5715.88
438.27	5681.07
438.48	5652.39
438.69	5947.30
438.90	5756.84
439.11	5685.16
439.32	6014.88
439.53	5795.75
439.74	5916.58
439.95	5930.92
440.16	5918.63
440.37	5805.99
440.57	5935.01
440.78	5988.26
440.99	6072.23
441.20	5916.58
441.41	5973.92
441.62	5918.63
441.83	5920.68
442.04	6186.91
442.25	6164.39
442.46	6205.35
442.67	6381.47
442.88	6659.99
443.09	6115.23
443.30	6170.53
443.51	6297.50
443.72	6502.30
443.93	6270.88
444.14	6393.76
444.35	6252.45
444.56	6309.79
444.77	6336.42
444.98	6600.60
445.19	6500.25
445.40	6481.82
445.61	6541.21
445.81	6543.26
446.02	6616.99
446.23	6576.03
446.44	6465.44
446.65	6563.74
446.86	6576.03
447.07	6629.27
447.28	6948.76
447.49	6864.79
447.70	6750.10
447.91	6885.27
448.12	6834.07
448.33	6893.46
448.54	6756.25
448.74	6842.26
448.95	6877.08
449.16	6754.20
449.37	7067.54
449.58	6858.65
449.79	6942.61
450.00	6834.07
450.21	6932.37
450.42	7061.40
450.63	7079.83
450.84	7151.51
451.05	6924.18
451.25	7042.96
451.46	7081.88
451.67	7165.84
451.88	7427.98
452.09	7192.47
452.30	7145.36
452.51	7098.26
452.72	7262.10
452.93	7511.95
453.13	7235.47
453.34	7159.70
453.55	7391.12
453.76	7466.89
453.97	7626.64
454.18	7436.17
454.39	7626.64
454.60	7401.36
454.81	7481.23
455.01	7716.75
455.22	7393.17
455.43	7552.91
455.64	7784.33
455.85	7862.15
456.06	8075.14
456.27	7626.64
456.48	7653.26
456.68	7896.97
456.89	8089.48
457.10	7972.74
457.31	7823.24
457.52	8011.65
457.73	8007.56
457.94	8185.73
458.14	7958.41
458.35	8251.27
458.56	8079.24
458.77	8042.37
458.98	8220.55
459.19	8273.79
459.39	8253.31
459.60	8519.55
459.81	8374.14
460.02	8505.21
460.23	8357.76
460.44	8669.05
460.65	8583.04
460.85	8636.28
461.06	8734.59
461.27	8476.54
461.48	8900.47
461.69	9006.97
461.89	8685.44
462.10	9197.43
462.31	8689.53
462.52	8824.70
462.73	8912.76
462.94	9187.19
463.14	9097.08
463.35	9019.25
463.56	9598.83
463.77	9461.62
463.98	9148.28
464.18	9303.92
464.39	9322.35
464.60	9547.63
464.81	9389.94
465.02	9516.91
465.23	9533.29
465.43	9588.59
465.64	9875.31
465.85	9791.34
466.06	9721.71
466.27	10055.53
466.47	9924.46
466.68	9891.69
466.89	10024.81
467.10	10223.46
467.30	10000.23
467.51	10313.57
467.72	10495.84
467.93	10350.43
468.14	10209.12
468.34	10626.91
468.55	10524.51
468.76	10588.00
468.97	10456.93
469.17	10809.18
469.38	10882.91
469.59	10835.80
469.80	10833.75
470.01	11069.27
470.21	11061.08
470.42	11204.44
470.63	11239.25
470.84	11079.51
471.04	11382.61
471.25	11554.64
471.46	11349.84
471.67	11906.89
471.87	11538.26
472.08	11677.52
472.29	12103.50
472.50	11439.95
472.70	11960.14
472.91	11980.62
473.12	12109.64
473.33	12111.69
473.53	12486.47
473.74	12474.18
473.95	12629.82
474.16	12799.80
474.36	12269.38
474.57	12754.75
474.78	12865.34
474.99	12988.22
475.19	12693.31
475.40	13107.00
475.61	13102.90
475.81	13324.08
476.02	13520.69
476.23	13131.58
476.44	13457.20
476.64	13733.68
476.85	13725.49
477.06	13786.93
477.27	13803.31
477.47	13961.00
477.68	14010.15
477.89	14190.38
478.09	14145.32
478.30	14067.50
478.51	14260.01
478.71	14446.37
478.92	14610.21
479.13	14618.40
479.34	14821.15
479.54	14862.11
479.75	14825.25
479.96	15140.63
480.16	15023.90
480.37	15060.76
480.58	15265.56
480.78	15445.78
480.99	15337.24
481.20	15535.89
481.41	15574.80
481.61	15783.70
481.82	15861.52
482.03	15638.29
482.23	15877.90
482.44	16453.38
482.65	16359.17
482.85	16299.78
483.06	16299.78
483.27	16455.43
483.47	16334.60
483.68	16545.54
483.89	16492.29
484.09	16627.46
484.30	16928.51
484.51	17055.48
484.71	16948.99
484.92	16779.01
485.13	17284.86
485.33	17272.57
485.54	17084.16
485.75	17313.53
485.95	17440.50
486.16	17655.54
486.37	17501.94
486.57	17598.20
486.78	17536.76
486.98	17637.11
487.19	17983.21
487.40	18130.67
487.60	17979.12
487.81	18376.42
488.02	18269.93
488.22	18202.35
488.43	18560.74
488.64	18435.81
488.84	18403.05
489.05	18812.64
489.25	18710.24
489.46	18679.52
489.67	18874.08
489.87	19244.76
490.08	18890.46
490.29	18962.14
490.49	19398.36
490.70	19441.37
490.90	19506.90
491.11	19257.05
491.32	19427.03
491.52	19545.81
491.73	19676.88
491.94	19834.58
492.14	19736.27
492.35	20172.49
492.55	20362.95
492.76	20131.53
492.97	20272.84
493.17	20270.79
493.38	20336.33
493.58	20455.11
493.79	20649.67
494.00	20328.14
494.20	21059.26
494.41	20737.73
494.61	20940.48
494.82	20989.63
495.02	21016.26
495.23	21038.78
495.44	21251.77
495.64	21337.79
495.85	21278.40
496.05	21282.49
496.26	21384.89
496.47	22038.19
496.67	21761.72
496.88	21976.75
497.08	21731.00
497.29	21778.10
497.49	21753.52
497.70	22146.73
497.91	22204.08
498.11	22415.02
498.32	22316.72
498.52	22427.31
498.73	22865.57
498.93	22689.45
499.14	22783.65
499.34	23045.79
499.55	23131.81
499.76	22716.07
499.96	23232.16
500.17	23174.81
500.37	23099.04
500.58	23254.69
500.78	23316.12
500.99	23541.40
501.19	23434.91
501.40	23680.66
501.60	23406.23
501.81	23774.87
502.02	23826.07
502.22	23651.99
502.43	24508.04
502.63	23961.23
502.84	24147.60
503.04	24434.32
503.25	24401.55
503.45	24440.46
503.66	24522.38
503.86	24845.96
504.07	25101.95
504.27	24567.43
504.48	25009.79
504.68	24960.64
504.89	25630.33
505.09	25378.43
505.30	25220.74
505.50	25611.90
505.71	25376.38
505.91	25572.99
506.12	25572.99
506.32	25546.36
506.53	25503.35
506.73	25730.68
506.94	25753.21
507.14	25931.38
507.35	25798.26
507.55	26111.60
507.76	26193.52
507.96	26189.42
508.17	26363.50
508.37	26074.74
508.58	26510.96
508.78	26367.60
508.99	26850.92
509.19	26603.11
509.40	26846.82
509.60	26709.61
509.81	26830.44
510.01	27012.71
510.22	26934.88
510.42	27229.79
510.63	26787.43
510.83	27018.85
511.04	27014.76
511.24	27410.01
511.44	27301.47
511.65	27324.00
511.85	27072.10
512.06	27072.10
512.26	27510.36
512.47	27799.13
512.67	27450.97
512.88	27430.49
513.08	27438.69
513.29	27608.67
513.49	27580.00
513.69	27616.86
513.90	27792.98
514.10	27997.78
514.31	28085.84
514.51	28104.28
514.72	27987.54
514.92	28204.63
515.13	28130.90
515.33	28071.51
515.53	28407.37
515.74	28040.79
515.94	28210.77
516.15	28266.06
516.35	28327.50
516.56	28794.44
516.76	28659.27
516.96	28698.19
517.17	28737.10
517.37	28456.53
517.58	28782.15
517.78	28888.65
517.99	28556.88
518.19	28995.14
518.39	28577.36
518.60	29146.69
518.80	28876.36
519.01	29423.17
519.21	29109.83
519.41	29212.23
519.62	29113.92
519.82	29390.40
520.03	29320.77
520.23	29400.64
520.43	29199.94
520.64	29703.74
520.84	29658.68
521.05	29544.00
521.25	29736.51
521.45	29402.69
521.66	29689.40
521.86	29748.79
522.07	29865.53
522.27	29904.44
522.47	30037.56
522.68	30457.39
522.88	30256.69
523.08	30334.51
523.29	30187.06
523.49	30322.23
523.70	30770.73
523.90	30615.08
524.10	30647.85
524.31	30979.62
524.51	30643.76
524.71	30907.94
524.92	30639.66
525.12	30909.99
525.33	30963.24
525.53	30961.19
525.73	31055.40
525.94	31088.17
526.14	31018.53
526.34	30899.75
526.55	31464.99
526.75	31528.48
526.95	31866.39
527.16	31505.95
527.36	31340.07
527.56	31866.39
527.77	31919.64
527.97	31854.11
528.17	32073.24
528.38	31669.79
528.58	31983.13
528.78	32359.95
528.99	31428.13
529.19	32470.54
529.39	32155.16
529.60	32417.30
529.80	32503.31
530.00	32448.02
530.21	32667.15
530.41	33136.13
530.61	32407.06
530.82	32726.54
531.02	32669.20
531.22	32863.75
531.43	33216.01
531.63	33269.25
531.83	33269.25
532.04	33666.56
532.24	33109.51
532.44	33940.99
532.64	34156.02
532.85	33736.19
533.05	33650.17
533.25	33959.42
533.46	34090.49
533.66	33908.22
533.86	33983.99
534.07	34575.86
534.27	34426.35
534.47	34401.78
534.67	34436.59
534.88	34461.17
535.08	34541.04
535.28	34723.31
535.49	34874.86
535.69	35399.14
535.89	35110.38
536.09	35141.10
536.30	35495.39
536.50	35722.72
536.70	35921.37
536.91	35220.97
537.11	35790.30
537.31	35698.14
537.51	35874.27
537.72	36042.20
537.92	36234.71
538.12	36793.81
538.32	36300.25
538.53	36429.27
538.73	36333.01
538.93	36847.05
539.13	36812.24
539.34	36885.97
539.54	36668.88
539.74	37295.56
539.94	36898.25
540.15	37361.09
540.35	37428.68
540.55	37408.20
540.75	37696.96
540.96	37662.15
541.16	37582.27
541.36	37715.39
541.56	37928.38
541.77	38305.21
541.97	38077.88
542.17	37905.85
542.37	38495.67
542.58	38292.92
542.78	38471.09
542.98	38393.27
543.18	38405.56
543.38	38792.62
543.59	38868.40
543.79	38874.54
543.99	38696.37
544.19	38954.41
544.40	39171.50
544.60	39542.18
544.80	39110.06
545.00	39792.03
545.20	39624.10
545.41	39699.87
545.61	39742.88
545.81	40023.45
546.01	39845.28
546.21	39787.94
546.42	39613.86
546.62	40418.71
546.82	39785.89
547.02	40107.42
547.22	40643.99
547.43	40394.14
547.63	40502.68
547.83	40387.99
548.03	40277.40
548.23	40768.91
548.44	40500.63
548.64	40818.07
548.84	40947.09
549.04	41043.34
549.24	41289.10
549.45	41651.59
549.65	41137.55
549.85	40928.66
550.05	41516.42
550.25	41454.98
550.45	41919.87
550.66	41119.12
550.86	41512.33
551.06	41600.39
551.26	41448.84
551.46	41864.58
551.66	42005.89
551.87	41872.77
552.07	42177.92
552.27	41852.29
552.47	41995.65
552.67	42063.23
552.87	42065.28
553.07	42538.36
553.28	42300.79
553.48	42218.88
553.68	42196.35
553.88	42833.27
554.08	42737.01
554.28	42599.80
554.48	42298.75
554.69	42773.88
554.89	42599.80
555.09	42673.52
555.29	42931.57
555.49	43165.04
555.69	42837.36
555.89	42730.87
556.10	43124.08
556.30	42747.25
556.50	42900.85
556.70	43029.87
556.90	43013.49
557.10	42904.95
557.30	42696.05
557.50	43537.77
557.70	43242.86
557.91	43357.55
558.11	43517.29
558.31	43466.09
558.51	43158.89
558.71	43246.96
558.91	43208.04
559.11	42980.72
559.31	43189.61
559.51	43160.94
559.72	43371.88
559.92	43629.93
560.12	43382.12
560.32	44049.76
560.52	43058.54
560.72	43920.74
560.92	43564.39
561.12	43476.33
561.32	43761.00
561.52	43269.48
561.72	43849.06
561.93	43615.59
562.13	43629.93
562.33	43341.16
562.53	43924.83
562.73	43386.22
562.93	43599.21
563.13	43783.52
563.33	43685.22
563.53	44301.66
563.73	43621.73
563.93	43541.86
564.13	44305.76
564.33	43898.21
564.53	43973.98
564.74	44006.75
564.94	43683.17
565.14	43756.90
565.34	43980.13
565.54	44270.94
565.74	44047.71
565.94	44449.11
566.14	44152.16
566.34	43980.13
566.54	44737.88
566.74	43865.44
566.94	44305.76
567.14	44217.69
567.34	44039.52
567.54	44264.80
567.74	44121.44
567.94	44127.58
568.14	44275.04
568.34	44270.94
568.54	44281.18
568.74	44494.17
568.94	44582.23
569.14	44606.81
569.34	44543.32
569.54	44461.40
569.75	44127.58
569.95	44633.43
570.15	44625.24
570.35	44469.59
570.55	44426.59
570.75	44340.57
570.95	44447.07
571.15	44680.53
571.35	44395.87
571.55	44825.94
571.75	44313.95
571.95	44926.29
572.15	44795.22
572.35	44688.73
572.55	44934.48
572.75	44619.10
572.95	44883.28
573.15	44897.62
573.35	45057.36
573.55	45053.26
573.75	44799.32
573.95	45200.72
574.15	45327.69
574.35	45339.98
574.55	44541.27
574.75	44739.93
574.95	45571.40
575.15	44987.73
575.34	45395.28
575.54	45372.75
575.74	45360.46
575.94	45768.01
576.14	45210.96
576.34	45827.40
576.54	45618.50
576.74	45792.58
576.94	45266.25
577.14	45817.16
577.34	46021.95
577.54	45542.73
577.74	45563.21
577.94	45780.29
578.14	45712.71
578.34	46150.98
578.54	45503.82
578.74	45782.34
578.94	46636.34
579.14	46069.06
579.34	45919.56
579.54	46417.21
579.74	46589.24
579.94	46546.23
580.13	46601.53
580.33	46353.72
580.53	46546.23
580.73	46576.95
580.93	46560.57
581.13	46669.11
581.33	46835.00
581.53	47011.12
581.73	46847.29
581.93	47088.95
582.13	47293.74
582.33	47052.08
582.53	46972.21
582.73	47078.71
582.92	47322.41
583.12	47281.45
583.32	47136.05
583.52	47271.21
583.72	48125.22
583.92	47365.42
584.12	47949.09
584.32	48295.20
584.52	48067.87
584.72	48137.51
584.92	47824.17
585.11	48686.36
585.31	48401.69
585.51	48205.09
585.71	48674.07
585.91	48850.20
586.11	48203.04
586.31	48200.99
586.51	48069.92
586.71	48252.19
586.91	48348.45
587.10	48809.24
587.30	48985.36
587.50	49126.67
587.70	48702.74
587.90	48915.73
588.10	49302.80
588.30	49038.61
588.50	49626.38
588.69	49317.14
588.89	48870.68
589.09	49679.63
589.29	49663.24
589.49	49650.95
589.69	49288.46
589.89	50066.69
590.08	49829.13
590.28	49583.37
590.48	49865.99
590.68	50144.51
590.88	50033.92
591.08	49978.63
591.28	50054.40
591.47	50416.89
591.67	50568.44
591.87	50445.57
592.07	50472.19
592.27	50138.37
592.47	50410.75
592.67	50445.57
592.86	50513.15
593.06	50820.34
593.26	50443.52
593.46	51221.75
593.66	50935.03
593.86	51186.93
594.05	51113.20
594.25	51252.47
594.45	50834.68
594.65	51133.68
594.85	50793.72
595.05	51459.31
595.24	51608.81
595.44	51205.36
595.64	51545.33
595.84	51721.45
596.04	51533.04
596.23	52004.07
596.43	52018.41
596.63	51873.00
596.83	52264.16
597.03	52303.07
597.22	52278.50
597.42	52196.58
597.62	52630.75
597.82	52069.61
598.02	52352.23
598.21	52319.46
598.41	52073.70
598.61	52761.82
598.81	52346.08
599.01	53148.88
599.20	52972.76
599.40	52389.09
599.60	52860.12
599.80	53134.55
600.00	52868.31
600.19	53167.32
600.39	52597.98
600.59	52909.27
600.79	53003.48
600.98	53306.58
601.18	53349.59
601.38	53069.01
601.58	53851.34
601.78	53585.10
601.97	53331.15
602.17	54138.05
602.37	53300.43
602.57	53710.03
602.76	53933.26
602.96	53368.02
603.16	53847.24
603.36	53863.63
603.55	53787.85
603.75	54107.33
603.95	54068.42
604.15	54260.93
604.34	53914.83
604.54	54213.83
604.74	54238.40
604.94	54211.78
605.13	54445.25
605.33	54549.70
605.53	54273.22
605.73	54244.55
605.92	54240.45
606.12	54828.22
606.32	54752.44
606.52	54615.23
606.71	54394.05
606.91	54656.19
607.11	54527.17
607.30	54615.23
607.50	55272.63
607.70	55080.12
607.90	54990.01
608.09	54631.61
608.29	54600.89
608.49	55186.61
608.68	55311.54
608.88	55047.35
609.08	55526.58
609.28	55131.32
609.47	54580.42
609.67	55393.46
609.87	55194.81
610.06	55159.99
610.26	54908.09
610.46	55549.10
610.66	55250.10
610.85	55178.42
611.05	55018.68
611.25	55381.17
611.44	54672.57
611.64	55438.51
611.84	54621.37
612.03	54891.71
612.23	54895.80
612.43	55784.62
612.62	54826.17
612.82	55448.75
613.02	55317.68
613.21	55000.25
613.41	54934.71
613.61	55551.15
613.80	54705.34
614.00	55532.72
614.20	55211.19
614.39	55010.49
614.59	55268.53
614.79	54944.95
614.98	54699.20
615.18	54740.16
615.38	54633.66
615.57	55061.69
615.77	55041.21
615.97	55221.43
616.16	54752.44
616.36	54889.66
616.56	55061.69
616.75	54985.91
616.95	54705.34
617.15	55182.52
617.34	55045.30
617.54	54736.06
617.74	55258.29
617.93	55004.34
618.13	54574.27
618.32	54613.18
618.52	54555.84
618.72	54875.32
618.91	54805.69
619.11	54205.64
619.31	55041.21
619.50	54074.57
619.70	54467.78
619.90	54338.75
620.09	54688.96
620.29	54588.61
620.48	54428.87
620.68	55196.85
620.88	53933.26
621.07	54568.13
621.27	54947.00
621.46	54086.85
621.66	54504.64
621.86	54248.64
622.05	54179.01
622.25	54578.37
622.44	54133.96
622.64	54052.04
622.84	54342.85
623.03	54254.79
623.23	54396.10
623.42	53918.92
623.62	54482.11
623.82	54344.90
624.01	54273.22
624.21	54445.25
624.40	54494.40
624.60	54353.09
624.80	53933.26
624.99	54215.88
625.19	53533.90
625.38	54199.49
625.58	54430.91
625.77	54342.85
625.97	54359.23
626.17	53703.88
626.36	54246.60
626.56	54305.99
626.75	53845.19
626.95	54396.10
627.14	53920.97
627.34	54402.24
627.54	53863.63
627.73	53894.35
627.93	54004.94
628.12	54273.22
628.32	54189.25
628.51	54154.44
628.71	53851.34
628.90	54301.89
629.10	54068.42
629.30	53982.41
629.49	53736.65
629.69	53726.41
629.88	54043.85
630.08	54320.32
630.27	54269.12
630.47	54234.31
630.66	53978.31
630.86	54381.76
631.05	54078.66
631.25	54568.13
631.44	54525.12
631.64	54248.64
631.84	54121.67
632.03	54432.96
632.23	53992.65
632.42	54727.87
632.62	54064.33
632.81	53857.48
633.01	54090.95
633.20	54160.58
633.40	54494.40
633.59	54488.26
633.79	54142.15
633.98	54478.02
634.18	54435.01
634.37	54310.08
634.57	54273.22
634.76	54551.74
634.96	54236.36
635.15	54858.94
635.35	53857.48
635.54	54013.13
635.74	54744.25
635.93	54109.38
636.13	54660.29
636.32	54598.85
636.52	54285.51
636.71	54592.70
636.91	54742.20
637.10	54729.92
637.30	54363.33
637.49	54435.01
637.69	54662.33
637.88	55059.64
638.08	54686.91
638.27	54418.63
638.46	54949.05
638.66	54691.01
638.85	54680.77
639.05	54963.39
639.24	54791.36
639.44	54906.04
639.63	55194.81
639.83	55336.12
640.02	55037.11
640.22	54934.71
640.41	55532.72
640.61	54877.37
640.80	55110.84
640.99	54860.99
641.19	55471.28
641.38	55053.50
641.58	54895.80
641.77	54858.94
641.97	54774.97
642.16	55309.49
642.36	55399.60
642.55	55719.09
642.74	54645.95
642.94	56159.40
643.13	55131.32
643.33	55792.81
643.52	55884.97
643.72	55999.66
643.91	55354.55
644.10	55778.48
644.30	56161.45
644.49	55780.52
644.69	55876.78
644.88	55878.83
645.08	56038.57
645.27	55966.89
645.46	55684.27
645.66	56222.89
645.85	55925.93
646.05	56370.34
646.24	55919.79
646.43	55889.07
646.63	56464.55
646.82	56456.35
647.02	56159.40
647.21	56525.99
647.40	56059.05
647.60	56855.71
647.79	56566.94
647.99	56378.53
648.18	55874.73
648.37	57242.77
648.57	56530.08
648.76	56779.93
648.96	56710.30
649.15	57259.16
649.34	57244.82
649.54	56771.74
649.73	56661.15
649.92	56956.06
650.12	57261.21
650.31	56878.24
650.51	56792.22
650.70	57058.46
650.89	56802.46
651.09	57795.73
651.28	56908.96
651.47	57154.71
651.67	57089.18
651.86	57588.88
652.06	56902.81
652.25	57580.69
652.44	57377.94
652.64	57040.03
652.83	57023.64
653.02	56898.72
653.22	57416.85
653.41	57273.49
653.60	57306.26
653.80	57377.94
653.99	57668.75
654.18	57250.97
654.38	57048.22
654.57	57584.79
654.76	57838.73
654.96	57152.66
655.15	57488.53
655.34	57873.55
655.54	57095.32
655.73	57382.04
655.92	57566.35
656.12	57719.95
656.31	57619.60
656.50	57846.93
656.70	58109.07
656.89	57431.19
657.08	58141.83
657.28	57746.57
657.47	57572.50
657.66	57842.83
657.86	57463.96
658.05	58201.22
658.24	58000.52
658.43	57656.46
658.63	58569.86
658.82	57814.16
659.01	57744.53
659.21	57904.27
659.40	58283.14
659.59	57832.59
659.79	57891.98
659.98	58000.52
660.17	58373.25
660.36	57793.68
660.56	58221.70
660.75	57945.23
660.94	58614.91
661.14	58256.52
661.33	57885.84
661.52	58018.95
661.71	58162.31
661.91	57492.63
662.10	57810.06
662.29	58326.15
662.49	58051.72
662.68	58006.67
662.87	58457.22
663.06	58367.11
663.26	57697.42
663.45	58627.20
663.64	58043.53
663.83	58528.90
664.03	58614.91
664.22	57939.08
664.41	58418.31
664.60	57646.22
664.80	58326.15
664.99	57588.88
665.18	58172.55
665.37	58432.64
665.57	58307.72
665.76	57982.09
665.95	58289.29
666.14	57719.95
666.34	57717.90
666.53	57928.84
666.72	57736.34
666.91	58045.58
667.11	57955.47
667.30	57992.33
667.49	57799.82
667.68	57939.08
667.87	57599.12
668.07	58018.95
668.26	58225.80
668.45	58328.20
668.64	57597.07
668.84	58209.42
669.03	58324.10
669.22	57875.60
669.41	58049.67
669.60	57787.53
669.80	57808.01
669.99	58291.33
670.18	57640.08
670.37	57885.84
670.57	58018.95
670.76	57848.97
670.95	58000.52
671.14	57957.52
671.33	56947.87
671.53	57803.92
671.72	57562.26
671.91	58037.39
672.10	57586.83
672.29	57558.16
672.48	57392.28
672.68	58006.67
672.87	57625.74
673.06	57312.41
673.25	57113.75
673.44	57255.06
673.64	57629.84
673.83	57025.69
674.02	57197.72
674.21	57029.79
674.40	57449.62
674.59	57019.55
674.79	56900.76
674.98	56868.00
675.17	57463.96
675.36	57019.55
675.55	57392.28
675.74	57269.40
675.94	57144.47
676.13	56974.49
676.32	56921.24
676.51	57191.58
676.70	56962.20
676.89	56882.33
677.08	57353.36
677.28	56497.31
677.47	57287.83
677.66	57416.85
677.85	56964.25
678.04	57091.22
678.23	57152.66
678.42	57042.07
678.62	56655.01
678.81	57269.40
679.00	56861.85
679.19	56888.48
679.38	56646.82
679.57	56794.27
679.76	56628.38
679.96	56698.01
680.15	56640.67
680.34	56487.07
680.53	56161.45
680.72	56390.82
680.91	56884.38
681.10	56349.86
681.29	56431.78
681.48	56255.65
681.68	56292.52
681.87	56464.55
682.06	56136.87
682.25	56052.90
682.44	55936.17
682.63	56521.89
682.82	55858.35
683.01	55872.68
683.20	55350.45
683.39	55850.16
683.59	55796.91
683.78	55925.93
683.97	55602.35
684.16	55930.03
684.35	55252.15
684.54	55594.16
684.73	55612.59
684.92	55246.00
685.11	55170.23
685.30	55211.19
685.49	55538.86
685.69	55481.52
685.88	55637.17
686.07	55430.32
686.26	55047.35
686.45	55252.15
686.64	55542.96
686.83	55282.87
687.02	55284.92
687.21	55669.93
687.40	55436.47
687.59	54834.36
687.78	55166.13
687.97	55588.02
688.16	55532.72
688.35	55428.27
688.54	54990.01
688.74	55526.58
688.93	54793.40
689.12	54666.43
689.31	55139.51
689.50	54944.95
689.69	54693.05
689.88	54817.98
690.07	55270.58
690.26	55030.97
690.45	55108.79
690.64	54500.54
690.83	54539.46
691.02	54097.09
691.21	54789.31
691.40	54224.07
691.59	54559.94
691.78	54385.86
691.97	54797.50
692.16	54365.38
692.35	54738.11
692.54	54934.71
692.73	54531.26
692.92	54344.90
693.11	54363.33
693.30	54197.44
693.49	54424.77
693.68	54045.90
693.87	54506.69
694.06	53779.66
694.25	53873.87
694.44	54090.95
694.63	54262.98
694.82	54146.25
695.01	54285.51
695.20	54027.46
695.39	53945.54
695.58	53812.43
695.77	53642.45
695.96	53662.93
696.15	53875.91
696.34	53607.63
696.53	53787.85
696.72	54080.71
696.91	53378.26
697.10	54213.83
697.29	53325.01
697.48	53918.92
697.67	53257.43
697.86	53279.96
698.05	53478.61
698.24	54021.32
698.43	53114.07
698.62	53712.08
698.81	53353.68
699.00	53609.68
699.19	53290.19
699.38	53886.15
699.57	52835.55
699.76	53609.68
699.95	53019.86
700.14	53245.14
700.32	53408.98
700.51	53492.94
700.70	53703.88
700.89	53273.81
701.08	53777.61
701.27	53163.22
701.46	53812.43
701.65	53195.99
701.84	53466.32
702.03	52966.62
702.22	53105.88
702.41	53171.41
702.60	53066.97
702.79	53019.86
702.98	52958.42
703.17	52870.36
703.35	53089.49
703.54	52757.72
703.73	53269.72
703.92	52952.28
704.11	53009.62
704.30	52872.41
704.49	53011.67
704.68	52810.97
704.87	52976.86
705.06	52944.09
705.25	52911.32
705.43	52727.00
705.62	53187.80
705.81	52745.44
706.00	52563.17
706.19	52538.59
706.38	52704.48
706.57	53107.93
706.76	52853.98
706.95	52772.06
707.14	52702.43
707.32	52554.97
707.51	52442.34
707.70	52233.44
707.89	52708.57
708.08	52757.72
708.27	53081.30
708.46	53048.53
708.65	52536.54
708.84	53099.73
709.02	52743.39
709.21	52778.20
709.40	52550.88
709.59	52344.03
709.78	52364.51
709.97	53097.69
710.16	52456.67
710.34	52913.37
710.53	52450.53
710.72	51938.54
710.91	52122.85
711.10	52487.39
711.29	52425.95
711.48	52331.75
711.66	52065.51
711.85	52116.71
712.04	52174.05
712.23	52047.08
712.42	51973.35
712.61	52075.75
712.80	52454.62
712.98	52495.58
713.17	52180.20
713.36	52137.19
713.55	52225.25
713.74	51963.11
713.93	52585.69
714.11	52356.32
714.30	51778.79
714.49	51803.37
714.68	51799.27
714.87	52243.68
715.06	52407.52
715.24	52090.09
715.43	52057.32
715.62	51723.50
715.81	51721.45
716.00	52102.37
716.18	51383.54
716.37	51307.76
716.56	51565.81
716.75	52233.44
716.94	51680.49
717.12	51469.55
717.31	52124.90
717.50	51555.57
717.69	51922.15
717.88	51696.88
718.06	51621.10
718.25	51991.78
718.44	51576.04
718.63	51971.30
718.82	51344.62
719.00	51698.92
719.19	51578.09
719.38	51346.67
719.57	51418.35
719.76	51217.65
719.94	51162.36
720.13	51451.12
720.32	51385.58
720.51	51363.06
720.69	51047.67
720.88	51090.68
721.07	50943.22
721.26	50932.98
721.44	51141.88
721.63	50609.40
721.82	50707.71
722.01	50676.99
722.20	50593.02
722.38	50910.46
722.57	50660.60
722.76	50369.79
722.95	50763.00
723.13	50011.40
723.32	50593.02
723.51	50380.03
723.70	50574.59
723.88	50332.93
724.07	50009.35
724.26	50076.93
724.44	49976.58
724.63	50355.46
724.82	50758.91
725.01	49892.61
725.19	50449.66
725.38	49845.51
725.57	50132.23
725.76	50038.02
725.94	49818.89
726.13	50083.08
726.32	49675.53
726.51	49591.56
726.69	50560.25
726.88	50562.30
727.07	50365.70
727.25	50074.88
727.44	49724.68
727.63	49743.11
727.82	49804.55
728.00	49847.56
728.19	49325.33
728.38	50214.15
728.56	49370.38
728.75	50064.64
728.94	49775.88
729.12	50160.90
729.31	49730.83
729.50	49843.46
729.69	49884.42
729.87	49812.74
730.06	49550.60
730.25	49716.49
730.43	49911.05
730.62	49814.79
730.81	49650.95
730.99	49313.04
731.18	49657.10
731.37	49935.62
731.55	49898.76
731.74	49941.77
731.93	50173.19
732.11	49915.14
732.30	49706.25
732.49	49206.55
732.67	49929.48
732.86	49280.27
733.05	49372.43
733.23	49233.17
733.42	49800.46
733.61	49292.56
733.79	49720.59
733.98	49822.98
734.17	49399.05
734.35	49370.38
734.54	49579.28
734.73	49317.14
734.91	49462.54
735.10	48989.46
735.29	49911.05
735.47	48428.32
735.66	49427.73
735.84	49163.54
736.03	48928.02
736.22	49599.76
736.40	49038.61
736.59	49407.25
736.78	49184.02
736.96	49093.91
737.15	49296.66
737.33	48960.79
737.52	49440.01
737.71	49247.50
737.89	49081.62
738.08	49069.33
738.27	49259.79
738.45	49267.98
738.64	48930.07
738.82	48827.67
739.01	48874.77
739.20	49138.96
739.38	48928.02
739.57	49288.46
739.75	48948.50
739.94	48729.37
740.13	48493.85
740.31	48549.15
740.50	48452.89
740.68	48506.14
740.87	48676.12
741.06	48766.23
741.24	48450.84
741.43	48461.08
741.61	48370.97
741.80	48266.53
741.99	48536.86
742.17	48203.04
742.36	48289.06
742.54	48493.85
742.73	48162.08
742.91	48334.11
743.10	48074.02
743.29	48551.20
743.47	48291.10
743.66	47920.42
743.84	48420.13
744.03	47953.19
744.21	47879.46
744.40	48432.41
744.59	47783.21
744.77	47422.76
744.96	47326.51
745.14	47815.97
745.33	47506.73
745.51	47547.69
745.70	47686.95
745.88	46679.35
746.07	47555.88
746.26	46841.14
746.44	47457.58
746.63	47004.98
746.81	47181.10
747.00	47179.06
747.18	46775.61
747.37	47166.77
747.55	47248.69
747.74	47613.23
747.92	46773.56
748.11	47361.33
748.29	46939.44
748.48	46640.44
748.66	46603.58
748.85	46734.65
749.03	47088.95
749.22	46585.15
749.41	46556.47
749.59	46859.57
749.78	46443.84
749.96	46210.37
750.15	46685.50
750.33	46505.27
750.52	46175.55
750.70	46181.70
750.89	46716.22
751.07	46187.84
751.26	46216.51
751.44	45882.69
751.63	45749.57
751.81	45892.93
752.00	45804.87
752.18	46099.78
752.37	46136.64
752.55	45409.61
752.74	45534.54
752.92	45860.16
753.10	45405.52
753.29	45913.41
753.47	45512.01
753.66	45032.78
753.84	45743.43
754.03	45147.47
754.21	45047.12
754.40	45581.64
754.58	45839.68
754.77	45284.68
754.95	45266.25
755.14	45032.78
755.32	45077.84
755.51	45192.53
755.69	44600.66
755.88	44827.99
756.06	45116.75
756.24	44574.04
756.43	44639.57
756.61	44776.79
756.80	44461.40
756.98	44780.88
757.17	44780.88
757.35	44537.18
757.54	44244.32
757.72	44705.11
757.90	44410.20
758.09	44350.81
758.27	44434.78
758.46	44139.87
758.64	43949.41
758.83	44256.60
759.01	44459.35
759.19	43943.27
759.38	43539.82
759.56	44127.58
759.75	44287.32
759.93	43545.96
760.12	43756.90
760.30	44029.28
760.48	43566.44
760.67	43603.30
760.85	43488.62
761.04	43982.18
761.22	43900.26
761.40	43728.23
761.59	43521.38
761.77	43218.28
761.96	43826.53
762.14	43670.89
762.32	43025.78
762.51	43398.51
762.69	43312.49
762.88	43185.52
763.06	43519.34
763.24	43158.89
763.43	42925.42
763.61	42802.55
763.80	42673.52
763.98	42818.93
764.16	42935.66
764.35	42659.19
764.53	42313.08
764.72	42526.07
764.90	42990.96
765.08	42448.25
765.27	42550.65
765.45	42145.15
765.63	42190.20
765.82	42163.58
766.00	41969.02
766.18	42067.33
766.37	42052.99
766.55	41813.38
766.74	41829.76
766.92	41858.43
767.10	42042.75
767.29	41987.46
767.47	41532.81
767.65	41913.73
767.84	41624.96
768.02	41543.05
768.20	41495.94
768.39	41487.75
768.57	41430.41
768.75	41213.32
768.94	41469.32
769.12	41319.82
769.30	41239.95
769.49	40992.14
769.67	40859.02
769.85	40914.32
770.04	40803.73
770.22	40908.18
770.40	40668.56
770.59	40758.67
770.77	41190.80
770.95	40883.60
771.14	40680.85
771.32	40240.54
771.50	40369.56
771.69	40394.14
771.87	41090.44
772.05	40727.95
772.24	39896.48
772.42	40400.28
772.60	40498.58
772.78	40000.93
772.97	40517.01
773.15	40816.02
773.33	40033.69
773.52	40068.51
773.70	40097.18
773.88	40338.84
774.07	40199.58
774.25	39951.77
774.43	40271.26
774.61	40443.29
774.80	40283.55
774.98	40144.28
775.16	40381.85
775.34	40232.35
775.53	39839.14
775.71	40101.28
775.89	40267.16
776.08	40543.64
776.26	40203.67
776.44	40435.10
776.62	40197.53
776.81	39845.28
776.99	40426.90
777.17	40009.12
777.35	40607.12
777.54	40762.77
777.72	40230.30
777.90	40140.19
778.08	41000.33
778.27	40433.05
778.45	40641.94
778.63	40607.12
778.81	40242.59
779.00	40727.95
779.18	40648.08
779.36	40996.24
779.54	40803.73
779.73	40795.54
779.91	41231.75
780.09	40678.80
780.27	40947.09
780.46	40643.99
780.64	40846.74
780.82	40967.57
781.00	40955.28
781.19	41006.48
781.37	40877.46
781.55	41067.92
781.73	41354.63
781.91	41127.31
782.10	41078.16
782.28	41123.21
782.46	41170.32
782.64	41196.94
782.82	40990.09
783.01	41235.85
783.19	41233.80
783.37	41239.95
783.55	41145.74
783.74	41379.21
783.92	41084.30
784.10	41311.63
784.28	41375.11
784.46	40883.60
784.64	40809.87
784.83	41293.19
785.01	41176.46
785.19	41305.48
785.37	41391.50
785.55	41024.91
785.74	40813.97
785.92	40867.22
786.10	41489.80
786.28	41055.63
786.46	40781.20
786.64	40904.08
786.83	40768.91
787.01	41258.38
787.19	40908.18
787.37	41119.12
787.55	41164.17
787.74	40676.76
787.92	40394.14
788.10	40367.51
788.28	40328.60
788.46	40607.12
788.64	40301.98
788.82	41194.89
789.01	40383.90
789.19	40785.30
789.37	40424.86
789.55	40543.64
789.73	40529.30
789.91	40142.24
790.09	40287.64
790.28	40336.79
790.46	39947.68
790.64	40115.61
790.82	40105.37
791.00	40109.47
791.18	39988.64
791.36	40076.70
791.55	39716.26
791.73	39828.90
791.91	39761.31
792.09	39908.77
792.27	39531.94
792.45	39751.07
792.63	39794.08
792.81	39511.46
793.00	39482.79
793.18	39417.25
793.36	39400.87
793.54	39218.60
793.72	39183.79
793.90	39054.76
794.08	39038.38
794.26	39013.80
794.44	38880.69
794.62	38499.76
794.81	38944.17
794.99	38753.71
795.17	38299.06
795.35	38577.59
795.53	38788.53
795.71	38610.35
795.89	38245.82
796.07	38213.05
796.25	38155.71
796.43	37934.53
796.61	37791.17
796.80	38145.47
796.98	38008.25
797.16	37887.42
797.34	37780.93
797.52	37756.35
797.70	38247.86
797.88	37752.26
798.06	37844.41
798.24	37701.06
798.42	37463.49
798.60	37230.02
798.78	37602.75
798.96	37010.89
799.14	37086.67
799.32	37062.09
799.51	37098.95
799.69	37289.42
799.87	37207.50
800.05	36589.01
800.23	36826.57
800.41	36836.81
800.59	36871.63
800.77	36629.97
800.95	36271.57
801.13	36074.97
801.31	36357.59
801.49	36357.59
801.67	36144.60
801.85	36257.24
802.03	36070.87
802.21	36072.92
802.39	35487.20
802.57	35798.49
802.75	35771.87
802.93	35542.50
803.11	35802.59
803.29	35939.80
803.47	35325.41
803.65	35829.21
803.83	35575.27
804.01	35268.07
804.19	35366.37
804.37	35102.18
804.55	35102.18
804.73	35288.55
804.91	34797.04
805.09	35098.09
805.27	34772.46
805.45	34885.10
805.63	34928.11
805.81	34629.10
805.99	34981.35
806.17	34543.09
806.35	34555.38
806.53	34305.52
806.71	34557.42
806.89	34551.28
807.07	34432.50
807.25	34393.59
807.43	34129.40
807.61	34096.63
807.79	34031.10
807.97	33983.99
808.15	33867.26
808.33	33969.66
808.51	33723.90
808.69	33814.01
808.87	33664.51
809.05	33715.71
809.23	33388.03
809.41	33265.16
809.59	33539.58
809.77	33664.51
809.95	33398.27
810.13	33211.91
810.31	33043.98
810.49	33318.40
810.67	33220.10
810.84	32931.34
811.02	33070.60
811.20	33084.94
811.38	32898.57
811.56	32845.32
811.74	32706.06
811.92	32368.15
812.10	32941.58
812.28	32906.76
812.46	32323.09
812.64	32591.37
812.82	32368.15
813.00	32601.61
813.18	32519.70
813.36	32089.62
813.53	32030.23
813.71	32097.81
813.89	32050.71
814.07	31915.54
814.25	31682.08
814.43	31755.80
814.61	31682.08
814.79	31946.26
814.97	31716.89
815.15	31788.57
815.33	31686.17
815.50	31403.55
815.68	31708.70
815.86	31434.27
816.04	31479.33
816.22	31456.80
816.40	31356.45
816.58	31219.24
816.76	31518.24
816.94	31159.84
817.11	31510.05
817.29	31464.99
817.47	30776.87
817.65	31163.94
817.83	30909.99
818.01	30909.99
818.19	30891.56
818.37	30537.26
818.54	30879.27
818.72	30510.64
818.90	30961.19
819.08	30635.56
819.26	30588.46
819.44	30895.66
819.62	30711.34
819.80	30418.48
819.97	30592.56
820.15	30318.13
820.33	30625.32
820.51	30703.15
820.69	30185.01
820.87	30504.49
821.05	30299.70
821.22	30234.16
821.40	30162.48
821.58	30060.09
821.76	29718.07
821.94	30297.65
822.12	29873.72
822.29	30031.41
822.47	29535.81
822.65	29804.09
822.83	29632.06
823.01	29537.85
823.19	29486.65
823.36	29662.78
823.54	29537.85
823.72	29697.59
823.90	29242.95
824.08	29105.73
824.25	29357.63
824.43	28714.57
824.61	29310.53
824.79	29335.10
824.97	29054.53
825.15	29130.31
825.32	28964.42
825.50	28741.19
825.68	28894.79
825.86	29101.64
826.04	29013.57
826.21	28587.60
826.39	28720.71
826.57	28644.94
826.75	28589.64
826.93	28173.91
827.10	28548.68
827.28	28698.19
827.46	28737.10
827.64	28581.45
827.81	28448.33
827.99	28470.86
828.17	28075.60
828.35	27962.97
828.53	28395.09
828.70	28296.78
828.88	28444.24
829.06	28128.85
829.24	28194.39
829.41	28145.23
829.59	28247.63
829.77	28173.91
829.95	27856.47
830.12	27827.80
830.30	27940.44
830.48	28085.84
830.66	27784.79
830.84	27889.24
831.01	27782.74
831.19	27668.06
831.37	27223.65
831.55	27567.71
831.72	27594.33
831.90	27379.29
832.08	27639.39
832.25	27602.52
832.43	27545.18
832.61	27211.36
832.79	27051.62
832.96	27086.43
833.14	27287.14
833.32	27428.45
833.50	27199.07
833.67	27389.53
833.85	27119.20
834.03	27027.04
834.20	27025.00
834.38	27053.67
834.56	27160.16
834.74	26680.94
834.91	26902.12
835.09	26738.28
835.27	26762.86
835.44	26859.11
835.62	26463.85
835.80	26445.42
835.98	26644.07
836.15	26533.48
836.33	26596.97
836.51	26797.67
836.68	26199.66
836.86	26101.36
837.04	26439.28
837.21	26134.13
837.39	26476.14
837.57	26363.50
837.75	26201.71
837.92	25876.09
838.10	26050.16
838.28	25783.93
838.45	26050.16
838.63	25749.11
838.81	25681.53
838.98	25998.96
839.16	25896.56
839.34	25765.49
839.51	25587.32
839.69	25536.12
839.87	25724.54
840.04	25759.35
840.22	25888.37
840.40	25312.89
840.57	25265.79
840.75	25409.15
840.93	25130.62
841.10	25228.93
841.28	25704.06
841.46	25560.70
841.63	25341.57
841.81	25411.20
841.98	25316.99
842.16	25409.15
842.34	25226.88
842.51	24747.65
842.69	25345.66
842.87	24989.31
843.04	25118.34
843.22	24823.43
843.40	25116.29
843.57	25026.18
843.75	24839.81
843.92	24970.88
844.10	24544.91
844.28	24786.57
844.45	24688.26
844.63	24618.63
844.81	24884.87
844.98	24934.02
845.16	24768.13
845.33	24399.50
845.51	24575.62
845.69	24376.97
845.86	24202.89
846.04	24532.62
846.21	24403.60
846.39	24045.20
846.57	24323.72
846.74	24206.99
846.92	24200.85
847.09	23934.61
847.27	23703.19
847.45	24170.13
847.62	24163.98
847.80	24057.49
847.97	24295.05
848.15	23893.65
848.32	23557.78
848.50	23793.30
848.68	23367.32
848.85	23770.77
849.03	23494.30
849.20	23805.59
849.38	23457.43
849.56	23715.48
849.73	23447.19
849.91	23783.06
850.08	23901.84
850.26	23193.25
850.43	23359.13
850.61	23449.24
850.78	23191.20
850.96	23361.18
851.14	23140.00
851.31	23344.80
851.49	23086.75
851.66	23371.42
851.84	23246.49
852.01	23402.14
852.19	23250.59
852.36	22671.01
852.54	22965.92
852.71	22836.90
852.89	22820.52
853.07	22824.61
853.24	22855.33
853.42	22714.02
853.59	22947.49
853.77	22609.58
853.94	22795.94
854.12	22679.21
854.29	22546.09
854.47	22437.55
854.64	22466.22
854.82	22394.54
854.99	22408.87
855.17	22458.03
855.34	22388.39
855.52	22378.15
855.69	22361.77
855.87	22412.97
856.04	21960.37
856.22	21972.66
856.39	22482.60
856.57	22451.88
856.74	22062.77
856.92	22253.23
857.09	21915.31
857.27	22187.69
857.44	22148.78
857.62	22103.73
857.79	22054.58
857.97	21843.63
858.14	21907.12
858.32	21927.60
858.49	21640.89
858.67	22007.47
858.84	21806.77
859.02	21792.44
859.19	21690.04
859.37	21749.43
859.54	21438.14
859.72	21759.67
859.89	21526.20
860.06	21452.47
860.24	21509.82
860.41	21524.15
860.59	21251.77
860.76	21501.62
860.94	21225.15
861.11	21405.37
861.29	21176.00
861.46	21329.59
861.64	21020.35
861.81	21278.40
861.98	20989.63
862.16	21038.78
862.33	21018.30
862.51	20784.83
862.68	21204.67
862.86	21114.56
863.03	20963.01
863.21	21030.59
863.38	20876.99
863.55	20911.81
863.73	20899.52
863.90	21016.26
864.08	20823.75
864.25	20815.55
864.43	20694.72
864.60	20668.10
864.77	20582.09
864.95	20653.76
865.12	20381.38
865.30	20543.17
865.47	20534.98
865.64	20393.67
865.82	20090.57
865.99	20727.49
866.17	20369.10
866.34	20432.58
866.51	20270.79
866.69	20156.11
866.86	20664.00
867.04	20219.60
867.21	20240.08
867.38	19893.97
867.56	20164.30
867.73	20184.78
867.91	19934.93
868.08	19971.79
868.25	20066.00
868.43	19982.03
868.60	20070.09
868.78	19822.29
868.95	20133.58
869.12	19803.86
869.30	19805.91
869.47	20029.13
869.64	19644.12
869.82	19574.49
869.99	19427.03
870.16	19584.73
870.34	19371.74
870.51	19351.26
870.69	19527.38
870.86	19551.96
871.03	19267.29
871.21	19332.82
871.38	19504.85
871.55	19400.41
871.73	19068.64
871.90	19347.16
872.07	19332.82
872.25	19025.63
872.42	18970.33
872.59	19027.68
872.77	19209.95
872.94	18890.46
873.11	18886.37
873.29	18958.05
873.46	18613.99
873.63	18869.98
873.81	18661.09
873.98	18515.69
874.15	18757.35
874.33	18515.69
874.50	18622.18
874.67	18616.04
874.85	18468.58
875.02	18679.52
875.19	18263.79
875.37	18591.46
875.54	18327.27
875.71	18368.23
875.88	18403.05
876.06	18327.27
876.23	18034.41
876.40	18292.46
876.58	18239.21
876.75	18190.06
876.92	18181.87
877.10	17798.90
877.27	18159.34
877.44	17673.97
877.61	17716.98
877.79	17774.32
877.96	17682.16
878.13	17942.25
878.31	17782.51
878.48	17661.68
878.65	17559.28
878.82	17411.83
879.00	17999.60
879.17	17377.01
879.34	17762.03
879.51	17516.28
879.69	17460.98
879.86	17299.19
880.03	17399.54
880.21	17485.56
880.38	17569.52
880.55	17463.03
880.72	17362.68
880.90	17420.02
881.07	17264.38
881.24	17360.63
881.41	17360.63
881.59	17331.96
881.76	17159.93
881.93	17168.12
882.10	16836.35
882.28	16854.78
882.45	16998.14
882.62	17051.39
882.79	17272.57
882.96	16858.88
883.14	17067.77
883.31	16998.14
883.48	16873.21
883.65	17164.03
883.83	17137.40
884.00	16977.66
884.17	16819.97
884.34	17075.96
884.51	16840.45
884.69	16791.30
884.86	16838.40
885.03	16994.04
885.20	16381.70
885.38	16748.29
885.55	16576.26
885.72	16832.26
885.89	16467.72
886.06	16844.54
886.24	16641.79
886.41	16639.75
886.58	16760.58
886.75	16639.75
886.92	16207.62
887.10	16680.71
887.27	16287.50
887.44	16568.07
887.61	16506.63
887.78	16713.47
887.95	16611.07
888.13	16627.46
888.30	16471.81
888.47	16293.64
888.64	16322.31
888.81	16221.96
888.99	16254.73
889.16	15978.25
889.33	16072.46
889.50	16047.88
889.67	15957.77
889.84	16144.14
890.01	15996.68
890.19	16025.36
890.36	15927.05
890.53	15976.20
890.70	15683.34
890.87	15722.26
891.04	15873.81
891.22	15783.70
891.39	15802.13
891.56	15621.91
891.73	15771.41
891.90	15855.37
892.07	15722.26
892.24	15716.11
892.42	15632.15
892.59	15619.86
892.76	15482.64
892.93	15728.40
893.10	15523.60
893.27	15546.13
893.44	15294.23
893.61	15464.21
893.79	15339.29
893.96	15476.50
894.13	15550.23
894.30	15793.94
894.47	15433.49
894.64	15623.95
894.81	15720.21
894.98	15451.92
895.15	15494.93
895.33	15453.97
895.50	15398.68
895.67	15269.66
895.84	15546.13
896.01	15183.64
896.18	15386.39
896.35	15476.50
896.52	15380.25
896.69	15347.48
896.86	15308.57
897.04	15435.54
897.21	15281.94
897.38	15341.33
897.55	15390.49
897.72	15347.48
897.89	15384.34
898.06	15523.60
898.23	15355.67
898.40	15312.66
898.57	15408.92
898.74	15363.86
898.91	15222.55
899.08	15585.04
899.26	15433.49
899.43	15249.18
899.60	15283.99
899.77	15320.85
899.94	15339.29
900.11	15079.19
900.28	15290.13
900.45	15402.77
900.62	15167.26
900.79	15355.67
900.96	15093.53
901.13	15273.75
901.30	15130.39
901.47	15253.27
901.64	15132.44
901.81	15212.31
901.98	15290.13
902.15	15273.75
902.32	15234.84
902.49	15308.57
902.66	15220.50
902.83	15222.55
903.01	15310.61
903.18	15238.94
903.35	15298.33
903.52	15386.39
903.69	15281.94
903.86	15361.81
904.03	15277.85
904.20	15490.84
904.37	15509.27
904.54	15218.46
904.71	15439.64
904.88	15177.50
905.05	15253.27
905.22	15453.97
905.39	15294.23
905.56	15222.55
905.73	15114.01
905.90	15347.48
906.07	15152.92
906.24	15451.92
906.41	15208.22
906.58	15281.94
906.75	15343.38
906.92	14984.99
907.09	15068.95
907.26	15451.92
907.43	15161.11
907.60	15048.47
907.77	15533.84
907.93	15345.43
908.10	15245.08
908.27	15181.59
908.44	15195.93
908.61	15071.00
908.78	15310.61
908.95	15267.61
909.12	14901.02
909.29	15109.91
909.46	15228.70
909.63	15259.42
909.80	15183.64
909.97	14974.75
910.14	15210.26
910.31	15265.56
910.48	15144.73
910.65	15060.76
910.82	15009.56
910.99	14868.25
911.16	15034.14
911.33	15089.43
911.50	14819.10
911.66	14974.75
911.83	14976.80
912.00	14935.84
912.17	14788.38
912.34	14931.74
912.51	14724.90
912.68	14667.55
912.85	14880.54
913.02	14946.08
913.19	14829.34
913.36	14868.25
913.53	14509.86
913.70	14657.31
913.86	14812.96
914.03	14855.97
914.20	14718.75
914.37	14608.16
914.54	14616.35
914.71	14681.89
914.88	14718.75
915.05	14423.84
915.22	14243.62
915.39	14452.52
915.55	14581.54
915.72	14315.30
915.89	14307.11
916.06	14366.50
916.23	14477.09
916.40	14221.10
916.57	14192.42
916.74	14042.92
916.91	14065.45
917.07	14206.76
917.24	14008.11
917.41	13874.99
917.58	13911.85
917.75	14122.79
917.92	13874.99
918.09	13918.00
918.26	13815.60
918.42	13954.86
918.59	13844.27
918.76	13655.86
918.93	13745.97
919.10	13731.63
919.27	13666.10
919.44	13961.00
919.60	13682.48
919.77	13625.14
919.94	13684.53
920.11	13285.17
920.28	13514.55
920.45	13395.76
920.61	13317.94
920.78	13420.34
920.95	13305.65
921.12	13379.38
921.29	13127.48
921.46	13246.26
921.62	13223.73
921.79	13131.58
921.96	13010.75
922.13	13080.38
922.30	12795.71
922.47	12775.23
922.63	12730.17
922.80	12826.43
922.97	12693.31
923.14	12642.11
923.31	12824.38
923.47	12554.05
923.64	12930.87
923.81	12447.55
923.98	12617.54
924.15	12554.05
924.32	12336.96
924.48	12541.76
924.65	12580.67
924.82	12349.25
924.99	12044.10
925.15	12099.40
925.32	12447.55
925.49	12009.29
925.66	12076.87
925.83	11968.33
925.99	12148.55
926.16	12072.78
926.33	12101.45
926.50	12029.77
926.67	11931.47
926.83	11865.93
927.00	11732.81
927.17	11788.11
927.34	11523.92
927.50	11726.67
927.67	11753.29
927.84	11638.61
928.01	11665.23
928.17	11347.79
928.34	11525.97
928.51	11132.76
928.68	11272.02
928.84	11169.62
929.01	11183.96
929.18	10997.59
929.35	11069.27
929.51	11157.33
929.68	11011.93
929.85	11026.26
930.02	10981.21
930.18	10823.51
930.35	10872.67
930.52	10710.88
930.69	10690.40
930.85	10692.44
931.02	10590.05
931.19	10772.32
931.36	10413.92
931.52	10555.23
931.69	10669.92
931.86	10530.66
932.02	10297.19
932.19	10272.61
932.36	10362.72
932.53	10475.36
932.69	10272.61
932.86	10456.93
933.03	10340.19
933.19	9940.84
933.36	10004.33
933.53	10110.82
933.70	9989.99
933.86	9850.73
934.03	9842.54
934.20	9777.00
934.36	9717.61
934.53	9551.73
934.70	9670.51
934.86	9615.21
935.03	9490.29
935.20	9412.46
935.36	9379.70
935.53	9103.22
935.70	9303.92
935.86	9109.36
936.03	9049.97
936.20	8791.93
936.36	8734.59
936.53	8892.28
936.70	8673.15
936.86	9039.73
937.03	8662.91
937.20	8484.73
937.36	8542.08
937.53	8095.62
937.70	8273.79
937.86	8206.21
938.03	8081.28
938.20	8148.87
938.36	7933.83
938.53	7817.10
938.70	7759.75
938.86	7690.12
939.03	7571.34
939.20	7434.13
939.36	7309.20
939.53	7333.78
939.70	7540.62
939.86	7245.71
940.03	7010.20
940.19	6905.75
940.36	6997.91
940.53	6952.85
940.69	6825.88
940.86	6920.09
941.03	6819.74
941.19	6494.11
941.36	6487.96
941.52	6528.92
941.69	6391.71
941.86	6360.99
942.02	6471.58
942.19	6291.36
942.35	6221.73
942.52	6057.89
942.69	6186.91
942.85	6209.44
943.02	6016.93
943.18	5978.02
943.35	6033.32
943.52	6064.04
943.68	5715.88
943.85	5861.29
944.01	5859.24
944.18	5785.51
944.35	5742.50
944.51	5699.50
944.68	5570.48
944.84	5619.63
945.01	5556.14
945.17	5660.59
945.34	5617.58
945.51	5533.61
945.67	5541.80
945.84	5506.99
946.00	5466.03
946.17	5461.93
946.33	5441.45
946.50	5523.37
946.67	5586.86
946.83	5390.25
947.00	5564.33
947.16	5468.08
947.33	5404.59
947.49	5414.83
947.66	5429.17
947.82	5386.16
947.99	5480.36
948.16	5349.29
948.32	5406.64
948.49	5394.35
948.65	5427.12
948.82	5396.40
948.98	5263.28
949.15	5380.01
949.31	5494.70
949.48	5384.11
949.64	5447.60
949.81	5406.64
949.97	5474.22
950.14	5361.58
950.30	5210.03
950.47	5433.26
950.63	5431.21
950.80	5334.96
950.96	5322.67
951.13	5457.84
951.30	5449.64
951.46	5447.60
951.63	5427.12
951.79	5400.49
951.96	5568.43
952.12	5554.09
952.29	5267.38
952.45	5472.17
952.62	5509.04
952.78	5562.28
952.94	5437.36
953.11	5468.08
953.27	5459.88
953.44	5599.15
953.60	5586.86
953.77	5554.09
953.93	5509.04
954.10	5535.66
954.26	5457.84
954.43	5521.32
954.59	5574.57
954.76	5691.31
954.92	5588.91
955.09	5607.34
955.25	5566.38
955.42	5541.80
955.58	5697.45
955.75	5509.04
955.91	5605.29
956.07	5697.45
956.24	5687.21
956.40	5484.46
956.57	5681.07
956.73	5484.46
956.90	5590.95
957.06	5683.11
957.23	5535.66
957.39	5640.11
957.56	5697.45
957.72	5570.48
957.88	5541.80
958.05	5689.26
958.21	5666.73
958.38	5642.15
958.54	5566.38
958.71	5775.27
958.87	5402.54
959.03	5615.53
959.20	5564.33
959.36	5644.20
959.53	5547.95
959.69	5545.90
959.85	5461.93
960.02	5539.76
960.18	5429.17
960.35	5459.88
960.51	5631.91
960.68	5650.35
960.84	5547.95
961.00	5568.43
961.17	5459.88
961.33	5431.21
961.50	5638.06
961.66	5398.45
961.82	5423.02
961.99	5568.43
962.15	5500.84
962.31	5595.05
962.48	5445.55
962.64	5638.06
962.81	5636.01
962.97	5509.04
963.13	5445.55
963.30	5564.33
963.46	5509.04
963.62	5482.41
963.79	5541.80
963.95	5394.35
964.12	5269.42
964.28	5484.46
964.44	5441.45
964.61	5574.57
964.77	5304.24
964.93	5513.13
965.10	5369.77
965.26	5394.35
965.42	5408.69
965.59	5283.76
965.75	5353.39
965.92	5525.42
966.08	5302.19
966.24	5504.94
966.41	5433.26
966.57	5328.81
966.73	5312.43
966.90	5277.62
967.06	5334.96
967.22	5255.09
967.39	5410.73
967.55	5230.51
967.71	5318.57
967.88	5334.96
968.04	5246.90
968.20	5205.94
968.37	5181.36
968.53	5146.55
968.69	5197.74
968.85	5259.18
969.02	5459.88
969.18	5250.99
969.34	5242.80
969.51	5144.50
969.67	5312.43
969.83	5101.49
970.00	5261.23
970.16	5205.94
970.32	5261.23
970.48	5130.16
970.65	5119.92
970.81	5050.29
970.97	5011.38
971.14	5050.29
971.30	5195.70
971.46	5058.48
971.63	5066.67
971.79	5099.44
971.95	5144.50
972.11	4988.85
972.28	5001.14
972.44	4986.80
972.60	4868.02
972.76	4943.80
972.93	4988.85
973.09	5038.00
973.25	4904.89
973.42	5019.57
973.58	4970.42
973.74	4990.90
973.90	4943.80
974.07	4841.40
974.23	4908.98
974.39	4917.17
974.55	5050.29
974.72	4855.73
974.88	4870.07
975.04	4870.07
975.20	4796.34
975.37	4915.12
975.53	4872.12
975.69	4722.62
975.85	4642.75
976.01	4816.82
976.18	4837.30
976.34	4782.01
976.50	4863.93
976.66	4794.29
976.83	4585.40
976.99	4755.38
977.15	4743.10
977.31	4566.97
977.47	4681.66
977.64	4622.27
977.80	4616.12
977.96	4597.69
978.12	4702.14
978.29	4655.03
978.45	4521.92
978.61	4589.50
978.77	4638.65
978.93	4622.27
979.10	4603.83
979.26	4577.21
979.42	4659.13
979.58	4458.43
979.74	4489.15
979.91	4575.16
980.07	4358.08
980.23	4487.10
980.39	4437.95
980.55	4478.91
980.71	4315.07
980.88	4374.46
981.04	4372.41
981.20	4478.91
981.36	4384.70
981.52	4405.18
981.68	4345.79
981.85	4405.18
982.01	4464.57
982.17	4235.20
982.33	4259.78
982.49	4302.78
982.65	4284.35
982.82	4368.32
982.98	4366.27
983.14	4192.19
983.30	4290.49
983.46	4401.08
983.62	4102.08
983.79	4155.33
983.95	4126.66
984.11	4192.19
984.27	4251.58
984.43	4261.82
984.59	4186.05
984.75	4294.59
984.91	4138.94
985.08	4179.90
985.24	4069.31
985.40	4138.94
985.56	4222.91
985.72	4190.14
985.88	4181.95
986.04	4034.50
986.20	3944.39
986.37	4030.40
986.53	4030.40
986.69	4118.47
986.85	4075.46
987.01	3928.00
987.17	4140.99
987.33	4132.80
987.49	3987.40
987.65	3934.15
987.82	3952.58
987.98	3868.61
988.14	3940.29
988.30	3960.77
988.46	3899.33
988.62	3928.00
988.78	3989.44
988.94	3907.52
989.10	3919.81
989.26	3809.22
989.42	3805.13
989.59	3717.06
989.75	3876.80
989.91	3895.24
990.07	3710.92
990.23	3786.69
990.39	3798.98
990.55	3942.34
990.71	3676.10
990.87	3715.02
991.03	3899.33
991.19	3749.83
991.35	3651.53
991.51	3725.26
991.67	3686.34
991.83	3727.30
992.00	3690.44
992.16	3876.80
992.32	3723.21
992.48	3807.17
992.64	3669.96
992.80	3737.54
992.96	3526.60
993.12	3649.48
993.28	3657.67
993.44	3608.52
993.60	3696.58
993.76	3657.67
993.92	3629.00
994.08	3614.66
994.24	3551.18
994.40	3528.65
994.56	3643.34
994.72	3565.51
994.88	3569.61
995.04	3563.47
995.20	3463.12
995.36	3510.22
995.52	3553.23
995.68	3559.37
995.84	3520.46
996.00	3608.52
996.16	3502.03
996.32	3436.49
996.48	3370.96
996.64	3489.74
996.80	3530.70
996.96	3377.10
997.12	3442.64
997.28	3305.42
997.44	3311.57
997.60	3452.88
997.76	3262.41
997.92	3440.59
998.08	3434.44
998.24	3356.62
998.40	3303.37
998.56	3436.49
998.72	3192.78
998.88	3143.63
999.04	3286.99
999.20	3289.04
999.36	3221.45
999.52	3362.76
999.68	3248.08
999.84	3313.61
1000.00	3223.50
1000.16	3416.01
1000.32	3231.69
1000.48	3366.86
1000.64	3246.03
1000.80	3231.69
1000.95	3147.73
1001.11	3344.33
1001.27	3231.69
1001.43	3221.45
1001.59	3104.72
1001.75	3243.98
1001.91	3192.78
1002.07	3155.92
1002.23	3221.45
1002.39	3225.55
1002.55	3051.47
1002.71	3076.05
1002.87	3076.05
1003.03	3078.10
1003.19	3047.38
1003.34	3104.72
1003.50	3053.52
1003.66	3149.78
1003.82	3088.34
1003.98	3010.51
1004.14	3119.06
1004.30	2955.22
1004.46	2944.98
1004.62	3016.66
1004.78	2957.27
1004.94	3024.85
1005.09	3024.85
1005.25	3076.05
1005.41	2924.50
1005.57	2953.17
1005.73	3035.09
1005.89	2893.78
1006.05	2953.17
1006.21	2914.26
1006.37	2928.60
1006.52	2887.64
1006.68	2836.44
1006.84	2992.08
1007.00	2858.96
1007.16	2869.20
1007.32	2869.20
1007.48	2899.92
1007.64	2918.36
1007.79	2848.72
1007.95	2813.91
1008.11	2895.83
1008.27	2809.81
1008.43	2869.20
1008.59	2818.00
1008.75	2891.73
1008.91	2834.39
1009.06	2891.73
1009.22	2832.34
1009.38	2848.72
1009.54	2854.87
1009.70	2752.47
1009.86	2723.80
1010.01	2834.39
1010.17	2744.28
1010.33	2789.33
1010.49	2695.13
1010.65	2854.87
1010.81	2619.35
1010.96	2727.89
1011.12	2760.66
1011.28	2637.78
1011.44	2822.10
1011.60	2699.22
1011.76	2635.74
1011.91	2756.57
1012.07	2494.43
1012.23	2557.91
1012.39	2566.10
1012.55	2656.22
1012.71	2676.70
1012.86	2580.44
1013.02	2631.64
1013.18	2576.34
1013.34	2695.13
1013.50	2682.84
1013.65	2670.55
1013.81	2645.98
1013.97	2637.78
1014.13	2656.22
1014.29	2611.16
1014.44	2658.26
1014.60	2502.62
1014.76	2559.96
1014.92	2549.72
1015.07	2600.92
1015.23	2482.14
1015.39	2478.04
1015.55	2502.62
1015.71	2562.01
1015.86	2441.18
1016.02	2486.23
1016.18	2404.32
1016.34	2514.91
1016.49	2402.27
1016.65	2537.43
1016.81	2424.80
1016.97	2537.43
1017.12	2516.95
1017.28	2404.32
1017.44	2389.98
1017.60	2490.33
1017.75	2465.75
1017.91	2445.27
1018.07	2353.12
1018.23	2385.88
1018.38	2510.81
1018.54	2482.14
1018.70	2404.32
1018.86	2281.44
1019.01	2469.85
1019.17	2420.70
1019.33	2508.76
1019.49	2346.97
1019.64	2371.55
1019.80	2361.31
1019.96	2441.18
1020.12	2383.84
1020.27	2385.88
1020.43	2242.53
1020.59	2289.63
1020.74	2394.08
1020.90	2408.41
1021.06	2281.44
1021.22	2324.44
1021.37	2310.11
1021.53	2287.58
1021.69	2326.49
1021.84	2273.25
1022.00	2287.58
1022.16	2248.67
1022.31	2265.05
1022.47	2301.92
1022.63	2287.58
1022.79	2170.85
1022.94	2187.23
1023.10	2299.87
1023.26	2314.20
1023.41	2293.72
1023.57	2283.49
1023.73	2328.54
1023.88	2353.12
1024.04	2260.96
1024.20	2207.71
1024.35	2252.77
1024.51	2279.39
1024.67	2185.18
1024.82	2263.01
1024.98	2215.90
1025.14	2209.76
1025.29	2183.13
1025.45	2342.88
1025.61	2115.55
1025.76	2158.56
1025.92	2093.02
1026.08	2199.52
1026.23	2191.33
1026.39	2246.62
1026.55	2088.93
1026.70	2138.08
1026.86	2142.18
1027.02	2289.63
1027.17	2205.66
1027.33	2273.25
1027.48	2105.31
1027.64	2152.42
1027.80	2086.88
1027.95	2125.79
1028.11	2002.91
1028.27	2082.78
1028.42	2056.16
1028.58	2113.50
1028.73	2084.83
1028.89	2101.22
1029.05	2201.57
1029.20	2093.02
>>>>>End Processed Spectral Data<<<<<
