SpectraSuite Data File
++++++++++++++++++++++++++++++++++++
Date: Fri Jun 02 14:44:37 CEST 2017
User: INFO_000
Dark Spectrum Present: No
Reference Spectrum Present: No
Number of Sampled Component Spectra: 1
Spectrometers: USB4H00879
Integration Time (usec): 80000 (USB4H00879)
Spectra Averaged: 1 (USB4H00879)
Boxcar Smoothing: 0 (USB4H00879)
Correct for Electrical Dark: No (USB4H00879)
Strobe/Lamp Enabled: No (USB4H00879)
Correct for Detector Non-linearity: No (USB4H00879)
Correct for Stray Light: No (USB4H00879)
Number of Pixels in Processed Spectrum: 3648
>>>>>Begin Processed Spectral Data<<<<<
345.13	1331.18
345.34	1331.18
345.56	1331.18
345.78	1298.41
345.99	1337.32
346.21	1730.53
346.42	1613.80
346.64	1617.90
346.86	1832.93
347.07	1611.75
347.29	1720.29
347.50	1564.65
347.72	1705.96
347.94	1748.97
348.15	1613.80
348.37	1529.83
348.59	1671.14
348.80	1714.15
349.02	1765.35
349.23	1812.45
349.45	1757.16
349.67	1882.08
349.88	1875.94
350.10	1914.85
350.31	1794.02
350.53	1798.12
350.75	1929.19
350.96	1812.45
351.18	1814.50
351.39	1787.88
351.61	1816.55
351.82	1914.85
352.04	1916.90
352.26	1785.83
352.47	1927.14
352.69	1986.53
352.90	1781.73
353.12	1839.08
353.34	1908.71
353.55	1953.76
353.77	1890.28
353.98	1810.40
354.20	1820.64
354.41	1908.71
354.63	1902.56
354.85	2011.11
355.06	1941.47
355.28	1794.02
355.49	1935.33
355.71	1916.90
355.92	1890.28
356.14	1894.37
356.35	1884.13
356.57	1863.65
356.79	1865.70
357.00	1808.36
357.22	1929.19
357.43	1853.41
357.65	1951.71
357.86	1834.98
358.08	1837.03
358.29	1949.67
358.51	1998.82
358.72	1933.28
358.94	1912.80
359.16	1892.32
359.37	1961.95
359.59	2011.11
359.80	1931.23
360.02	1996.77
360.23	1937.38
360.45	2017.25
360.66	1892.32
360.88	1871.84
361.09	1964.00
361.31	2035.68
361.52	1988.58
361.74	2078.69
361.95	2072.54
362.17	1986.53
362.38	2138.08
362.60	2039.78
362.81	1988.58
363.03	1957.86
363.24	2027.49
363.46	2080.74
363.67	2050.02
363.89	1986.53
364.10	1941.47
364.32	1908.71
364.53	2088.93
364.75	1871.84
364.96	2105.31
365.18	1994.72
365.39	2023.39
365.61	1910.75
365.82	2080.74
366.04	2011.11
366.25	1984.48
366.47	1978.34
366.68	2019.30
366.90	1959.91
367.11	2068.45
367.33	2111.46
367.54	2047.97
367.76	2093.02
367.97	2125.79
368.19	2115.55
368.40	2093.02
368.62	1968.10
368.83	1986.53
369.05	2093.02
369.26	2031.58
369.48	2009.06
369.69	2021.35
369.91	2101.22
370.12	1990.63
370.33	2093.02
370.55	1982.43
370.76	2050.02
370.98	2054.11
371.19	2068.45
371.41	1982.43
371.62	2023.39
371.84	2054.11
372.05	2187.23
372.27	2025.44
372.48	2019.30
372.69	2095.07
372.91	2205.66
373.12	2174.94
373.34	2148.32
373.55	2115.55
373.77	2174.94
373.98	2156.51
374.20	2146.27
374.41	2224.09
374.62	2123.74
374.84	2140.13
375.05	2199.52
375.27	2050.02
375.48	2158.56
375.70	2170.85
375.91	2207.71
376.12	2324.44
376.34	2183.13
376.55	2220.00
376.77	2246.62
376.98	2170.85
377.19	2156.51
377.41	2172.89
377.62	2115.55
377.84	2254.81
378.05	2322.40
378.27	2242.53
378.48	2289.63
378.69	2400.22
378.91	2172.89
379.12	2238.43
379.34	2279.39
379.55	2273.25
379.76	2242.53
379.98	2232.29
380.19	2203.61
380.41	2308.06
380.62	2240.48
380.83	2320.35
381.05	2263.01
381.26	2459.61
381.47	2275.29
381.69	2199.52
381.90	2408.41
382.12	2287.58
382.33	2215.90
382.54	2326.49
382.76	2289.63
382.97	2293.72
383.19	2297.82
383.40	2326.49
383.61	2351.07
383.83	2330.59
384.04	2326.49
384.25	2353.12
384.47	2414.56
384.68	2365.40
384.89	2291.68
385.11	2314.20
385.32	2320.35
385.54	2273.25
385.75	2439.13
385.96	2455.51
386.18	2404.32
386.39	2373.60
386.60	2275.29
386.82	2465.75
387.03	2463.71
387.24	2451.42
387.46	2533.34
387.67	2500.57
387.88	2551.77
388.10	2469.85
388.31	2568.15
388.52	2523.10
388.74	2564.06
388.95	2490.33
389.16	2580.44
389.38	2465.75
389.59	2615.26
389.80	2545.63
390.02	2512.86
390.23	2557.91
390.44	2525.15
390.66	2617.30
390.87	2535.39
391.08	2547.67
391.30	2695.13
391.51	2674.65
391.72	2664.41
391.94	2602.97
392.15	2523.10
392.36	2531.29
392.58	2590.68
392.79	2674.65
393.00	2762.71
393.22	2654.17
393.43	2813.91
393.64	2807.77
393.85	2744.28
394.07	2633.69
394.28	2760.66
394.49	2754.52
394.71	2746.33
394.92	2791.38
395.13	2674.65
395.35	2723.80
395.56	2715.61
395.77	2826.20
395.98	2822.10
396.20	2953.17
396.41	2811.86
396.62	2887.64
396.84	2777.05
397.05	2713.56
397.26	2893.78
397.47	2944.98
397.69	2842.58
397.90	2996.18
398.11	2920.40
398.32	2797.53
398.54	2818.00
398.75	2901.97
398.96	2963.41
399.18	3180.50
399.39	3059.67
399.60	3084.24
399.81	2992.08
400.03	2881.49
400.24	3231.69
400.45	3020.75
400.66	2987.99
400.88	2926.55
401.09	3172.30
401.30	3145.68
401.51	3157.97
401.73	3104.72
401.94	3205.07
402.15	3026.90
402.36	3080.14
402.58	3207.12
402.79	3264.46
403.00	3196.88
403.21	3178.45
403.43	3303.37
403.64	3260.37
403.85	3170.26
404.06	3200.98
404.27	3149.78
404.49	3221.45
404.70	3196.88
404.91	3346.38
405.12	3289.04
405.34	3325.90
405.55	3393.48
405.76	3180.50
405.97	3166.16
406.19	3397.58
406.40	3237.84
406.61	3377.10
406.82	3338.19
407.03	3383.24
407.25	3303.37
407.46	3461.07
407.67	3411.92
407.88	3489.74
408.09	3381.20
408.31	3330.00
408.52	3459.02
408.73	3403.72
408.94	3413.96
409.15	3418.06
409.37	3512.27
409.58	3530.70
409.79	3581.90
410.00	3651.53
410.21	3551.18
410.43	3452.88
410.64	3538.89
410.85	3653.58
411.06	3534.79
411.27	3604.42
411.48	3629.00
411.70	3520.46
411.91	3620.81
412.12	3635.14
412.33	3674.06
412.54	3657.67
412.76	3749.83
412.97	3692.49
413.18	3551.18
413.39	3692.49
413.60	3723.21
413.81	3762.12
414.03	3807.17
414.24	3631.05
414.45	3704.78
414.66	3633.10
414.87	3809.22
415.08	3805.13
415.30	3801.03
415.51	3731.40
415.72	3766.21
415.93	3737.54
416.14	3827.65
416.35	3942.34
416.56	3850.18
416.78	3887.04
416.99	3827.65
417.20	3887.04
417.41	3829.70
417.62	3971.01
417.83	3882.95
418.04	3903.43
418.26	3837.89
418.47	3946.44
418.68	4057.03
418.89	3979.20
419.10	4184.00
419.31	4057.03
419.52	4005.83
419.73	3985.35
419.95	3983.30
420.16	4022.21
420.37	4005.83
420.58	4081.60
420.79	3790.79
421.00	4126.66
421.21	4138.94
421.42	3991.49
421.63	4095.94
421.85	4134.85
422.06	4235.20
422.27	4241.34
422.48	4212.67
422.69	4190.14
422.90	4136.90
423.11	4382.65
423.32	4095.94
423.53	4343.74
423.75	4251.58
423.96	4450.24
424.17	4382.65
424.38	4517.82
424.59	4347.84
424.80	4579.26
425.01	4378.56
425.22	4288.45
425.43	4511.68
425.64	4626.36
425.85	4554.68
426.06	4589.50
426.28	4564.92
426.49	4468.67
426.70	4587.45
426.91	4579.26
427.12	4638.65
427.33	4646.84
427.54	4491.20
427.75	4691.90
427.96	4837.30
428.17	4911.03
428.38	4691.90
428.59	4825.01
428.80	4833.21
429.01	4827.06
429.23	4870.07
429.44	5029.81
429.65	4937.65
429.86	4962.23
430.07	4868.02
430.28	5035.96
430.49	5056.43
430.70	5279.66
430.91	5320.62
431.12	5076.91
431.33	5291.95
431.54	5238.70
431.75	5134.26
431.96	5246.90
432.17	5160.88
432.38	5322.67
432.59	5400.49
432.80	5347.25
433.01	5232.56
433.22	5375.92
433.43	5326.77
433.64	5425.07
433.85	5543.85
434.06	5484.46
434.27	5351.34
434.49	5484.46
434.70	5670.83
434.91	5576.62
435.12	5603.24
435.33	5568.43
435.54	5566.38
435.75	5506.99
435.96	5482.41
436.17	5562.28
436.38	5689.26
436.59	5738.41
436.80	5701.54
437.01	5894.05
437.22	5889.96
437.43	5750.70
437.64	5601.19
437.85	5805.99
438.06	5842.85
438.27	5726.12
438.48	5801.90
438.69	5953.45
438.90	5838.76
439.11	5783.46
439.32	6025.12
439.53	6117.28
439.74	6098.85
439.95	6012.84
440.16	5898.15
440.37	6045.60
440.57	5810.09
440.78	6102.95
440.99	6164.39
441.20	6076.32
441.41	5857.19
441.62	6141.86
441.83	5906.34
442.04	6295.46
442.25	6135.71
442.46	6225.82
442.67	6287.26
442.88	6619.04
443.09	6041.51
443.30	6246.30
443.51	6225.82
443.72	6512.54
443.93	6188.96
444.14	6412.19
444.35	6102.95
444.56	6283.17
444.77	6426.53
444.98	6379.42
445.19	6444.96
445.40	6408.09
445.61	6619.04
445.81	6602.65
446.02	6496.16
446.23	6455.20
446.44	6195.11
446.65	6457.25
446.86	6512.54
447.07	6457.25
447.28	6815.64
447.49	6815.64
447.70	6451.10
447.91	6635.42
448.12	6623.13
448.33	6803.35
448.54	6807.45
448.74	6629.27
448.95	6860.70
449.16	6713.24
449.37	6942.61
449.58	6832.02
449.79	7083.92
450.00	6840.22
450.21	6885.27
450.42	7100.31
450.63	7059.35
450.84	6834.07
451.05	6987.67
451.25	7026.58
451.46	6862.74
451.67	7032.72
451.88	7323.54
452.09	7217.04
452.30	7128.98
452.51	7194.51
452.72	7260.05
452.93	7630.73
453.13	7145.36
453.34	7206.80
453.55	7374.74
453.76	7141.27
453.97	7499.66
454.18	7413.65
454.39	7575.44
454.60	7520.14
454.81	7470.99
455.01	7520.14
455.22	7456.65
455.43	7624.59
455.64	7788.43
455.85	7810.95
456.06	7835.53
456.27	7978.89
456.48	7853.96
456.68	7825.29
456.89	7839.62
457.10	8085.38
457.31	8187.78
457.52	8056.71
457.73	8038.28
457.94	8101.76
458.14	8046.47
458.35	8482.69
458.56	8298.37
458.77	8112.00
458.98	8400.77
459.19	8402.82
459.39	8361.86
459.60	8681.34
459.81	8390.53
460.02	8609.66
460.23	8626.04
460.44	8671.10
460.65	8720.25
460.85	8949.62
461.06	8873.85
461.27	8720.25
461.48	8775.55
461.69	8990.58
461.89	8863.61
462.10	9072.50
462.31	8828.79
462.52	9054.07
462.73	9097.08
462.94	9498.48
463.14	9207.67
463.35	9117.56
463.56	9621.36
463.77	9463.66
463.98	9547.63
464.18	9365.36
464.39	9803.63
464.60	9744.24
464.81	9682.80
465.02	9717.61
465.23	9981.80
465.43	9738.09
465.64	10151.78
465.85	9914.22
466.06	9946.98
466.27	10291.04
466.47	10078.05
466.68	10274.66
466.89	10258.28
467.10	10405.73
467.30	10162.02
467.51	10604.38
467.72	10571.61
467.93	10358.63
468.14	10530.66
468.34	10698.59
468.55	10637.15
468.76	10973.02
468.97	10663.77
469.17	10852.19
469.38	10991.45
469.59	11167.57
469.80	10850.14
470.01	11091.80
470.21	11329.36
470.42	11351.89
470.63	11310.93
470.84	11263.83
471.04	11540.30
471.25	11634.51
471.46	11505.49
471.67	11837.26
471.87	11820.88
472.08	11810.64
472.29	11962.19
472.50	11681.61
472.70	11763.53
472.91	11937.61
473.12	12144.45
473.33	12287.81
473.53	12627.78
473.74	12396.35
473.95	12412.74
474.16	12586.82
474.36	12629.82
474.57	12640.06
474.78	12859.20
474.99	12863.29
475.19	12762.94
475.40	13182.77
475.61	13127.48
475.81	13375.28
476.02	13270.84
476.23	13162.30
476.44	13332.28
476.64	13449.01
476.85	13762.35
477.06	13426.48
477.27	13895.47
477.47	13948.72
477.68	13737.77
477.89	14065.45
478.09	14030.63
478.30	14176.04
478.51	14253.86
478.71	14278.44
478.92	14284.58
479.13	14495.52
479.34	14749.47
479.54	14602.02
479.75	14708.51
479.96	14724.90
480.16	15017.75
480.37	14862.11
480.58	15058.71
480.78	15453.97
480.99	15509.27
481.20	15421.20
481.41	15353.62
481.61	15443.73
481.82	15857.42
482.03	15699.73
482.23	15533.84
482.44	15822.61
482.65	16037.64
482.85	16019.21
483.06	16193.29
483.27	16201.48
483.47	16092.94
483.68	16453.38
483.89	16279.30
484.09	16398.09
484.30	16533.25
484.51	16930.56
484.71	16875.26
484.92	16719.62
485.13	16973.56
485.33	16944.89
485.54	16938.75
485.75	17334.01
485.95	17350.39
486.16	17319.67
486.37	17706.74
486.57	17557.24
486.78	17702.64
486.98	17272.57
487.19	17929.97
487.40	17962.73
487.60	17972.97
487.81	18110.19
488.02	18075.37
488.22	18114.28
488.43	18513.64
488.64	18716.39
488.84	18599.65
489.05	18769.63
489.25	18331.37
489.46	19058.40
489.67	18743.01
489.87	18878.18
490.08	18859.74
490.29	19011.29
490.49	19488.47
490.70	19445.46
490.90	19515.09
491.11	19478.23
491.32	19613.40
491.52	19666.64
491.73	19703.51
491.94	20106.96
492.14	19824.34
492.35	20047.57
492.55	19988.18
492.76	20346.57
492.97	20412.10
493.17	20416.20
493.38	20432.58
493.58	21102.27
493.79	21008.06
494.00	20942.53
494.20	20870.85
494.41	21094.08
494.61	21503.67
494.82	21184.19
495.02	21292.73
495.23	21497.53
495.44	21612.21
495.64	21606.07
495.85	21642.93
496.05	21833.39
496.26	22060.72
496.47	22220.46
496.67	22054.58
496.88	22232.75
497.08	22021.81
497.29	22466.22
497.49	22255.28
497.70	22460.07
497.91	22673.06
498.11	22806.18
498.32	22546.09
498.52	23002.78
498.73	23244.45
498.93	22994.59
499.14	23238.30
499.34	23608.98
499.55	23535.26
499.76	23664.28
499.96	23436.95
500.17	23473.82
500.37	23625.37
500.58	23352.99
500.78	23844.50
500.99	23756.44
501.19	24047.25
501.40	24047.25
501.60	24284.81
501.81	24127.12
502.02	24348.30
502.22	24327.82
502.43	24522.38
502.63	24376.97
502.84	24518.28
503.04	24716.93
503.25	24710.79
503.45	24845.96
503.66	25063.04
503.86	24997.51
504.07	25448.06
504.27	24987.27
504.48	25255.55
504.68	25253.50
504.89	25448.06
505.09	25497.21
505.30	25253.50
505.50	26089.07
505.71	25941.62
505.91	25869.94
506.12	25974.39
506.32	25724.54
506.53	25740.92
506.73	26181.23
506.94	26013.30
507.14	26289.77
507.35	26365.55
507.55	26248.82
507.76	26482.28
507.96	25974.39
508.17	26310.25
508.37	26304.11
508.58	26447.47
508.78	26574.44
508.99	26803.82
509.19	26723.94
509.40	26693.22
509.60	26949.22
509.81	26818.15
510.01	26760.81
510.22	26779.24
510.42	27217.50
510.63	27149.92
510.83	27221.60
511.04	27278.94
511.24	27336.29
511.44	27297.38
511.65	27160.16
511.85	27553.37
512.06	27137.63
512.26	27477.60
512.47	27723.35
512.67	27620.95
512.88	27706.97
513.08	27385.44
513.29	27723.35
513.49	27422.30
513.69	27510.36
513.90	27659.87
514.10	27786.84
514.31	27903.57
514.51	28038.74
514.72	27717.21
514.92	28089.94
515.13	27817.56
515.33	28173.91
515.53	27926.10
515.74	28194.39
515.94	28325.46
516.15	27993.68
516.35	28276.30
516.56	28235.35
516.76	28202.58
516.96	28282.45
517.17	28874.31
517.37	28560.97
517.58	28593.74
517.78	28624.46
517.99	28606.03
518.19	28892.74
518.39	28765.77
518.60	29185.60
518.80	28798.54
519.01	29267.52
519.21	28962.37
519.41	29220.42
519.62	28728.91
519.82	28991.05
520.03	29130.31
520.23	29302.34
520.43	29111.88
520.64	29181.51
520.84	29306.43
521.05	29300.29
521.25	29630.01
521.45	29316.67
521.66	29591.10
521.86	29791.80
522.07	29503.04
522.27	30133.81
522.47	29980.21
522.68	29965.88
522.88	29916.73
523.08	30305.84
523.29	30162.48
523.49	30074.42
523.70	29867.58
523.90	30342.70
524.10	30406.19
524.31	30567.98
524.51	30484.01
524.71	30813.74
524.92	30424.62
525.12	30799.40
525.33	30789.16
525.53	31022.63
525.73	31190.56
525.94	31151.65
526.14	31155.75
526.34	31151.65
526.55	31317.54
526.75	31370.79
526.95	31882.78
527.16	31569.44
527.36	31331.87
527.56	31489.57
527.77	31919.64
527.97	31772.19
528.17	31649.31
528.38	32013.85
528.58	31743.52
528.78	32206.36
528.99	31927.83
529.19	32378.39
529.39	32194.07
529.60	32370.19
529.80	32486.93
530.00	32472.59
530.21	32898.57
530.41	32828.94
530.61	33003.02
530.82	32943.63
531.02	32884.23
531.22	32984.58
531.43	32982.54
531.63	33291.78
531.83	33670.65
532.04	34027.00
532.24	33676.80
532.44	33803.77
532.64	34027.00
532.85	33971.71
533.05	34119.16
533.25	33660.41
533.46	34266.61
533.66	34608.62
533.86	34455.03
534.07	34850.28
534.27	34743.79
534.47	34713.07
534.67	34766.32
534.88	35214.82
535.08	35063.27
535.28	35292.65
535.49	35497.44
535.69	35730.91
535.89	35663.33
536.09	35835.36
536.30	35771.87
536.50	35794.40
536.70	36003.29
536.91	36007.39
537.11	35890.65
537.31	36224.47
537.51	36283.86
537.72	36732.37
537.92	36625.87
538.12	36865.49
538.32	36906.44
538.53	36730.32
538.73	36711.89
538.93	36912.59
539.13	37072.33
539.34	37174.73
539.54	36935.12
539.74	37541.32
539.94	37318.09
540.15	37471.68
540.35	37764.54
540.55	37647.81
540.75	37920.19
540.96	38233.53
541.16	38276.54
541.36	38200.76
541.56	38053.31
541.77	38380.98
541.97	38505.91
542.17	38350.26
542.37	38505.91
542.58	38825.39
542.78	38985.13
542.98	38987.18
543.18	39108.01
543.38	39658.91
543.59	39429.54
543.79	38825.39
543.99	39122.35
544.19	39779.74
544.40	39065.00
544.60	40035.74
544.80	39894.43
545.00	39796.13
545.20	40056.22
545.41	39892.38
545.61	39540.13
545.81	40334.74
546.01	40084.89
546.21	40285.59
546.42	40146.33
546.62	40465.81
546.82	40596.88
547.02	40392.09
547.22	40744.34
547.43	40936.85
547.63	40598.93
547.83	40506.77
548.03	40633.75
548.23	41344.39
548.44	41031.05
548.64	40711.57
548.84	41250.19
549.04	41139.60
549.24	41452.94
549.45	41606.53
549.65	41239.95
549.85	41334.15
550.05	41590.15
550.25	41500.04
550.45	42028.41
550.66	41801.09
550.86	41422.22
551.06	42007.94
551.26	41917.82
551.46	42081.66
551.66	42026.37
551.87	42196.35
552.07	42169.72
552.27	42200.44
552.47	42253.69
552.67	42536.31
552.87	42440.06
553.07	42145.15
553.28	42392.95
553.48	42292.60
553.68	42632.57
553.88	42687.86
554.08	42374.52
554.28	42794.36
554.48	42812.79
554.69	42665.33
554.89	42927.47
555.09	42616.18
555.29	42495.35
555.49	42933.62
555.69	42657.14
555.89	42534.26
556.10	42896.75
556.30	42962.29
556.50	42636.66
556.70	42896.75
556.90	43220.33
557.10	43122.03
557.30	42851.70
557.50	43140.46
557.70	43328.87
557.91	43332.97
558.11	43257.20
558.31	43394.41
558.51	43144.56
558.71	43341.16
558.91	43638.12
559.11	43206.00
559.31	43066.73
559.51	43443.56
559.72	43730.28
559.92	43732.32
560.12	43359.59
560.32	43750.76
560.52	43621.73
560.72	43404.65
560.92	43646.31
561.12	43644.26
561.32	43791.72
561.52	43253.10
561.72	44299.61
561.93	43476.33
562.13	43990.37
562.33	43388.27
562.53	44283.23
562.73	43830.63
562.93	43699.56
563.13	43750.76
563.33	43814.24
563.53	44354.91
563.73	43797.86
563.93	43828.58
564.13	44246.36
564.33	44008.80
564.53	44279.13
564.74	44154.21
564.94	43885.92
565.14	44045.66
565.34	43621.73
565.54	43834.72
565.74	43980.13
565.94	44373.34
566.14	43912.55
566.34	44078.43
566.54	44463.45
566.74	43664.74
566.94	44508.50
567.14	44365.15
567.34	44002.66
567.54	44490.07
567.74	44262.75
567.94	44160.35
568.14	44236.12
568.34	44330.33
568.54	44262.75
568.74	44293.47
568.94	44488.03
569.14	44637.53
569.34	44668.25
569.54	44543.32
569.75	43982.18
569.95	44516.70
570.15	44510.55
570.35	44547.42
570.55	44660.05
570.75	44617.05
570.95	44850.52
571.15	44660.05
571.35	44223.84
571.55	44442.97
571.75	44864.85
571.95	45083.98
572.15	44907.86
572.35	44858.71
572.55	44924.24
572.75	44817.75
572.95	45032.78
573.15	44893.52
573.35	44991.83
573.55	44879.19
573.75	45090.13
573.95	45204.81
574.15	44819.80
574.35	45227.34
574.55	45260.11
574.75	45225.29
574.95	45417.80
575.15	44782.93
575.34	45387.08
575.54	45505.87
575.74	45561.16
575.94	45479.24
576.14	45204.81
576.34	46161.22
576.54	46298.43
576.74	45559.11
576.94	45575.50
577.14	45647.18
577.34	46288.19
577.54	45552.97
577.74	46167.36
577.94	45888.84
578.14	45858.12
578.34	46241.09
578.54	45825.35
578.74	45831.49
578.94	46503.23
579.14	46075.20
579.34	46261.57
579.54	46372.16
579.74	46732.60
579.94	46622.01
580.13	47019.31
580.33	46812.47
580.53	46564.67
580.73	46718.26
580.93	46837.05
581.13	46912.82
581.33	46888.24
581.53	47273.26
581.73	47174.96
581.93	47273.26
582.13	47709.48
582.33	47854.89
582.53	47232.30
582.73	47617.32
582.92	47287.60
583.12	47443.24
583.32	47521.07
583.52	47379.76
583.72	47932.71
583.92	48039.20
584.12	47572.27
584.32	48260.38
584.52	47805.73
584.72	48047.39
584.92	48254.24
585.11	48852.25
585.31	48112.93
585.51	48401.69
585.71	48403.74
585.91	49198.35
586.11	48395.55
586.31	48049.44
586.51	48354.59
586.71	48459.04
586.91	48870.68
587.10	48370.97
587.30	48987.41
587.50	48702.74
587.70	48932.12
587.90	49165.59
588.10	49345.81
588.30	49259.79
588.50	49435.92
588.69	49397.01
588.89	49403.15
589.09	49485.07
589.29	49872.14
589.49	49808.65
589.69	49650.95
589.89	49837.32
590.08	49610.00
590.28	49923.33
590.48	49845.51
590.68	50171.14
590.88	49992.97
591.08	50078.98
591.28	49767.69
591.47	50464.00
591.67	50496.77
591.87	50558.20
592.07	50539.77
592.27	50656.51
592.47	51096.82
592.67	50420.99
592.86	50484.48
593.06	50828.54
593.26	51043.57
593.46	51023.09
593.66	50668.79
593.86	51305.71
594.05	51236.08
594.25	51401.97
594.45	50674.94
594.65	51361.01
594.85	51078.39
595.05	51719.40
595.24	51381.49
595.44	51387.63
595.64	51397.87
595.84	51778.79
596.04	51698.92
596.23	51606.76
596.43	51821.80
596.63	51920.10
596.83	51989.73
597.03	52511.97
597.22	52153.57
597.42	52288.74
597.62	52602.08
597.82	52149.48
598.02	52684.00
598.21	52716.76
598.41	52090.09
598.61	52667.61
598.81	52634.84
599.01	53099.73
599.20	52583.65
599.40	52980.95
599.60	53056.73
599.80	53103.83
600.00	53212.37
600.19	53327.06
600.39	52800.73
600.59	53236.95
600.79	53363.92
600.98	53126.36
601.18	53720.27
601.38	53732.56
601.58	53929.16
601.78	53656.78
601.97	53814.47
602.17	54031.56
602.37	54066.38
602.57	53839.05
602.76	53882.06
602.96	53826.76
603.16	53937.35
603.36	53931.21
603.55	54326.47
603.75	54240.45
603.95	54461.63
604.15	54533.31
604.34	54385.86
604.54	54670.53
604.74	54379.71
604.94	54934.71
605.13	55104.70
605.33	54715.58
605.53	54295.75
605.73	55375.03
605.92	54506.69
606.12	54736.06
606.32	54975.67
606.52	54645.95
606.71	55047.35
606.91	54949.05
607.11	54547.65
607.30	55194.81
607.50	54863.03
607.70	55434.42
607.90	55321.78
608.09	55325.88
608.29	55319.73
608.49	55741.61
608.68	55033.02
608.88	55473.33
609.08	55751.85
609.28	55364.79
609.47	54867.13
609.67	55823.53
609.87	55303.35
610.06	55555.25
610.26	55788.72
610.46	55712.94
610.66	55649.45
610.85	55639.22
611.05	55323.83
611.25	55725.23
611.44	55561.39
611.64	55458.99
611.84	55293.11
612.03	55579.82
612.23	55364.79
612.43	55934.12
612.62	55397.55
612.82	55735.47
613.02	55207.09
613.21	56067.24
613.41	55407.79
613.61	55258.29
613.80	55096.50
614.00	55227.57
614.20	55399.60
614.39	55434.42
614.59	55725.23
614.79	55768.24
614.98	55409.84
615.18	55530.67
615.38	55532.72
615.57	55671.98
615.77	55702.70
615.97	55600.30
616.16	55616.69
616.36	55356.60
616.56	55547.06
616.75	55465.14
616.95	55184.57
617.15	55059.64
617.34	55635.12
617.54	55319.73
617.74	55499.95
617.93	55364.79
618.13	54901.95
618.32	55104.70
618.52	54891.71
618.72	55342.26
618.91	55078.07
619.11	54881.47
619.31	54828.22
619.50	55297.20
619.70	54848.70
619.90	55112.89
620.09	55340.21
620.29	55340.21
620.48	54877.37
620.68	55317.68
620.88	54875.32
621.07	55295.16
621.27	54736.06
621.46	54523.07
621.66	55344.31
621.86	54936.76
622.05	54461.63
622.25	55239.86
622.44	54469.82
622.64	54303.94
622.84	54842.56
623.03	54731.96
623.23	54459.58
623.42	54695.10
623.62	55006.39
623.82	55243.96
624.01	54543.55
624.21	54500.54
624.40	54662.33
624.60	54508.74
624.80	54559.94
624.99	54240.45
625.19	54863.03
625.38	54789.31
625.58	54588.61
625.77	54260.93
625.97	54527.17
626.17	54291.65
626.36	54158.53
626.56	54752.44
626.75	54258.88
626.95	54506.69
627.14	54062.28
627.34	54336.71
627.54	54287.56
627.73	54498.50
627.93	54813.88
628.12	53906.63
628.32	54453.44
628.51	54332.61
628.71	54217.92
628.90	54568.13
629.10	54322.37
629.30	54435.01
629.49	54711.49
629.69	54037.70
629.88	54209.73
630.08	54529.22
630.27	54252.74
630.47	54514.88
630.66	54285.51
630.86	54230.21
631.05	53916.87
631.25	54166.73
631.44	54265.03
631.64	54666.43
631.84	54277.32
632.03	54912.19
632.23	54355.14
632.42	54688.96
632.62	53949.64
632.81	54205.64
633.01	54150.34
633.20	54308.04
633.40	54236.36
633.59	54156.49
633.79	53851.34
633.98	54246.60
634.18	54602.94
634.37	54486.21
634.57	54342.85
634.76	54746.30
634.96	54457.54
635.15	54191.30
635.35	54203.59
635.54	54334.66
635.74	54473.92
635.93	54219.97
636.13	54236.36
636.32	54672.57
636.52	53929.16
636.71	54129.86
636.91	54355.14
637.10	54533.31
637.30	54359.23
637.49	54580.42
637.69	54187.21
637.88	54422.72
638.08	54711.49
638.27	54719.68
638.46	54803.64
638.66	54213.83
638.85	54400.19
639.05	54742.20
639.24	54729.92
639.44	54486.21
639.63	54592.70
639.83	54600.89
640.02	54484.16
640.22	54930.62
640.41	54846.65
640.61	54553.79
640.80	55014.58
640.99	54561.98
641.19	54924.47
641.38	54793.40
641.58	54777.02
641.77	54973.63
641.97	54656.19
642.16	54920.38
642.36	55508.14
642.55	55624.88
642.74	54844.60
642.94	55399.60
643.13	54850.75
643.33	55432.37
643.52	55297.20
643.72	55510.19
643.91	55350.45
644.10	55182.52
644.30	55631.02
644.49	55549.10
644.69	55549.10
644.88	55284.92
645.08	55362.74
645.27	55198.90
645.46	55350.45
645.66	55620.78
645.85	55176.37
646.05	55702.70
646.24	55495.86
646.43	55792.81
646.63	55766.19
646.82	55997.61
647.02	55811.24
647.21	56353.96
647.40	56059.05
647.60	55839.92
647.79	55819.44
647.99	56192.17
648.18	56013.99
648.37	56349.86
648.57	56493.22
648.76	56294.56
648.96	56044.71
649.15	56384.68
649.34	56485.03
649.54	56769.69
649.73	56374.44
649.92	56263.85
650.12	56259.75
650.31	56386.72
650.51	56573.09
650.70	56595.62
650.89	56515.75
651.09	56935.58
651.28	57062.55
651.47	56499.36
651.67	56857.76
651.86	57324.69
652.06	56194.21
652.25	56833.18
652.44	56669.34
652.64	56507.55
652.83	56779.93
653.02	56898.72
653.22	56962.20
653.41	56476.83
653.60	56857.76
653.80	57068.70
653.99	56749.21
654.18	56597.66
654.38	56853.66
654.57	56710.30
654.76	57177.24
654.96	56425.64
655.15	57234.58
655.34	57404.56
655.54	57021.59
655.73	57349.27
655.92	57611.41
656.12	57668.75
656.31	57734.29
656.50	57214.10
656.70	57441.43
656.89	57293.97
657.08	57762.96
657.28	57179.29
657.47	57515.15
657.66	57205.91
657.86	57554.07
658.05	57529.49
658.24	57574.55
658.43	57627.79
658.63	57519.25
658.82	57916.56
659.01	57871.50
659.21	58111.11
659.40	57570.45
659.59	57404.56
659.79	57971.85
659.98	58059.91
660.17	57902.22
660.36	57924.75
660.56	58004.62
660.75	58307.72
660.94	57857.17
661.14	58021.00
661.33	57765.01
661.52	57836.69
661.71	58567.81
661.91	58125.45
662.10	58070.15
662.29	58383.49
662.49	58195.08
662.68	58025.10
662.87	57930.89
663.06	58061.96
663.26	58070.15
663.45	58629.25
663.64	58154.12
663.83	58369.16
664.03	58508.42
664.22	58463.36
664.41	58489.99
664.60	58088.59
664.80	58332.29
664.99	58514.56
665.18	58107.02
665.37	58320.01
665.57	58489.99
665.76	58043.53
665.95	57832.59
666.14	58758.27
666.34	58090.63
666.53	58420.36
666.72	58385.54
666.91	58496.13
667.11	58201.22
667.30	58176.65
667.49	58504.32
667.68	58389.64
667.87	58139.78
668.07	58541.19
668.26	58188.94
668.45	58326.15
668.64	58070.15
668.84	58752.13
669.03	58463.36
669.22	58428.55
669.41	59042.94
669.60	58328.20
669.80	58027.15
669.99	58489.99
670.18	58383.49
670.37	58535.04
670.57	58807.42
670.76	58322.05
670.95	58291.33
671.14	58475.65
671.33	57922.70
671.53	59196.54
671.72	58745.98
671.91	58332.29
672.10	58430.60
672.29	58209.42
672.48	58481.80
672.68	58565.76
672.87	58506.37
673.06	57869.45
673.25	58029.19
673.44	58158.22
673.64	58143.88
673.83	58117.26
674.02	57851.02
674.21	57775.25
674.40	58619.01
674.59	57767.05
674.79	58250.38
674.98	58006.67
675.17	58365.06
675.36	57765.01
675.55	58496.13
675.74	57726.10
675.94	58162.31
676.13	58037.39
676.32	58168.46
676.51	58567.81
676.70	57924.75
676.89	57791.63
677.08	58354.82
677.28	57894.03
677.47	58125.45
677.66	58760.32
677.85	57851.02
678.04	58262.66
678.23	58334.34
678.42	57787.53
678.62	57797.77
678.81	57947.28
679.00	57361.56
679.19	58240.14
679.38	57812.11
679.57	58121.35
679.76	57480.34
679.96	58010.76
680.15	57830.54
680.34	57586.83
680.53	57756.81
680.72	57629.84
680.91	57975.95
681.10	57758.86
681.29	57461.91
681.48	57341.08
681.68	57537.68
681.87	57189.53
682.06	57427.09
682.25	57183.38
682.44	57220.25
682.63	57361.56
682.82	57023.64
683.01	57011.35
683.20	56753.31
683.39	57306.26
683.59	56880.28
683.78	56980.63
683.97	56671.39
684.16	56841.37
684.35	56665.25
684.54	56954.01
684.73	56638.62
684.92	56472.74
685.11	56607.90
685.30	56325.28
685.49	57025.69
685.69	56497.31
685.88	56429.73
686.07	56485.03
686.26	56280.23
686.45	56286.37
686.64	56497.31
686.83	56186.02
687.02	55964.84
687.21	56702.11
687.40	55985.32
687.59	56179.88
687.78	56632.48
687.97	56997.02
688.16	56155.30
688.35	55932.07
688.54	55925.93
688.74	55850.16
688.93	55991.47
689.12	55921.83
689.31	55790.76
689.50	56114.34
689.69	55641.26
689.88	55512.24
690.07	55964.84
690.26	56165.54
690.45	56169.64
690.64	55772.33
690.83	55047.35
691.02	54850.75
691.21	55227.57
691.40	55659.69
691.59	55348.40
691.78	55798.96
691.97	55262.39
692.16	55293.11
692.35	55520.43
692.54	55336.12
692.73	55461.04
692.92	55389.36
693.11	55035.06
693.30	54797.50
693.49	55215.29
693.68	54516.93
693.87	54715.58
694.06	54561.98
694.25	55223.48
694.44	54772.92
694.63	54734.01
694.82	54746.30
695.01	54633.66
695.20	54713.53
695.39	54463.68
695.58	54770.88
695.77	54328.52
695.96	54418.63
696.15	54322.37
696.34	54195.40
696.53	54316.23
696.72	54662.33
696.91	54217.92
697.10	54236.36
697.29	54017.22
697.48	54127.81
697.67	54205.64
697.86	53884.11
698.05	53871.82
698.24	53877.96
698.43	53339.35
698.62	53812.43
698.81	53810.38
699.00	54035.66
699.19	53521.62
699.38	53658.83
699.57	53441.74
699.76	54004.94
699.95	53302.48
700.14	53329.11
700.32	53415.12
700.51	53605.58
700.70	53785.80
700.89	53626.06
701.08	53617.87
701.27	53288.15
701.46	53439.70
701.65	52798.68
701.84	53241.04
702.03	53003.48
702.22	52716.76
702.41	53073.11
702.60	53408.98
702.79	52927.70
702.98	52817.11
703.17	53013.72
703.35	52493.54
703.54	52866.27
703.73	52985.05
703.92	53019.86
704.11	52905.18
704.30	52458.72
704.49	52819.16
704.68	52866.27
704.87	52432.10
705.06	52460.77
705.25	52862.17
705.43	52716.76
705.62	52241.63
705.81	52565.21
706.00	52714.72
706.19	52389.09
706.38	52260.07
706.57	52149.48
706.76	51920.10
706.95	52270.31
707.14	52057.32
707.32	52212.96
707.51	52288.74
707.70	51959.02
707.89	51885.29
708.08	52372.70
708.27	52311.27
708.46	52421.86
708.65	51791.08
708.84	52327.65
709.02	51969.26
709.21	52446.43
709.40	51825.90
709.59	51967.21
709.78	51610.86
709.97	52341.99
710.16	52016.36
710.34	51694.83
710.53	51940.58
710.72	51225.84
710.91	52114.66
711.10	51414.26
711.29	52096.23
711.48	51926.25
711.66	51260.66
711.85	51549.42
712.04	51606.76
712.23	51434.74
712.42	51877.10
712.61	51657.96
712.80	51512.56
712.98	51549.42
713.17	51358.96
713.36	51592.43
713.55	51463.41
713.74	51578.09
713.93	51303.67
714.11	50926.84
714.30	51023.09
714.49	51129.59
714.68	51344.62
714.87	51131.64
715.06	51379.44
715.24	51299.57
715.43	51307.76
715.62	50543.87
715.81	50849.02
716.00	50877.69
716.18	50578.68
716.37	50730.23
716.56	50853.11
716.75	51074.29
716.94	51019.00
717.12	50738.43
717.31	51328.24
717.50	50578.68
717.69	50681.08
717.88	50507.01
718.06	50916.60
718.25	50701.56
718.44	50367.74
718.63	50294.02
718.82	50062.60
719.00	50713.85
719.19	50445.57
719.38	50668.79
719.57	50197.76
719.76	50504.96
719.94	49804.55
720.13	50138.37
720.32	50382.08
720.51	50377.98
720.69	50035.97
720.88	49999.11
721.07	50001.16
721.26	49693.96
721.44	49753.35
721.63	49947.91
721.82	49966.34
722.01	49603.85
722.20	49560.84
722.38	49698.06
722.57	49466.64
722.76	49354.00
722.95	49622.28
723.13	49519.88
723.32	49661.19
723.51	49114.39
723.70	49210.64
723.88	49159.44
724.07	48948.50
724.26	49354.00
724.44	48882.97
724.63	49280.27
724.82	49071.38
725.01	49083.67
725.19	49261.84
725.38	49141.01
725.57	48712.98
725.76	49585.42
725.94	48790.81
726.13	48573.72
726.32	48776.47
726.51	48626.97
726.69	48928.02
726.88	49407.25
727.07	49683.72
727.25	48788.76
727.44	49216.78
727.63	49108.24
727.82	49059.09
728.00	49403.15
728.19	49085.72
728.38	49374.48
728.56	48657.69
728.75	49331.47
728.94	48856.34
729.12	49478.92
729.31	49024.28
729.50	48928.02
729.69	49194.26
729.87	48747.80
730.06	48805.14
730.25	48805.14
730.43	49169.68
730.62	48602.39
730.81	49009.94
730.99	49128.72
731.18	48819.48
731.37	49292.56
731.55	49202.45
731.74	49091.86
731.93	49136.91
732.11	49267.98
732.30	49167.63
732.49	48885.01
732.67	49394.96
732.86	48979.22
733.05	49036.56
733.23	48667.93
733.42	48827.67
733.61	48917.78
733.79	49331.47
733.98	49093.91
734.17	48915.73
734.35	49177.87
734.54	49126.67
734.73	49231.12
734.91	48751.90
735.10	48682.27
735.29	48905.49
735.47	48252.19
735.66	48555.29
735.84	49050.90
736.03	48575.77
736.22	49245.46
736.40	48454.94
736.59	49104.15
736.78	49081.62
736.96	48760.09
737.15	49110.29
737.33	48999.70
737.52	48379.17
737.71	48665.88
737.89	48712.98
738.08	48649.50
738.27	48747.80
738.45	48964.88
738.64	48772.38
738.82	48512.28
739.01	48411.93
739.20	48755.99
739.38	48823.58
739.57	48954.64
739.75	48938.26
739.94	48637.21
740.13	48835.86
740.31	48567.58
740.50	48497.95
740.68	48936.21
740.87	49177.87
741.06	48932.12
741.24	48223.52
741.43	48362.78
741.61	48682.27
741.80	48002.34
741.99	48426.27
742.17	48616.73
742.36	48545.05
742.54	48127.27
742.73	48401.69
742.91	48291.10
743.10	48289.06
743.29	49059.09
743.47	48307.49
743.66	48880.92
743.84	48506.14
744.03	48743.70
744.21	48473.37
744.40	48694.55
744.59	48172.32
744.77	47891.75
744.96	48276.77
745.14	48108.83
745.33	48268.58
745.51	47936.80
745.70	47901.99
745.88	47895.85
746.07	48479.52
746.26	47670.57
746.44	47918.37
746.63	47578.41
746.81	48086.31
747.00	47559.98
747.18	48018.72
747.37	47869.22
747.55	48250.14
747.74	48135.46
747.92	47602.99
748.11	47770.92
748.29	47858.98
748.48	47541.55
748.66	47441.20
748.85	47643.94
749.03	47758.63
749.22	47879.46
749.41	47592.75
749.59	47414.57
749.78	47295.79
749.96	47439.15
750.15	47320.37
750.33	47598.89
750.52	47824.17
750.70	47123.76
750.89	46789.94
751.07	47217.97
751.26	47400.24
751.44	47004.98
751.63	46808.37
751.81	47238.45
752.00	47035.70
752.18	47109.43
752.37	47052.08
752.55	46484.79
752.74	46873.91
752.92	47121.71
753.10	46449.98
753.29	46777.65
753.47	46695.74
753.66	46232.89
753.84	47039.79
754.03	46857.52
754.21	46624.06
754.40	46765.37
754.58	46337.34
754.77	46794.04
754.95	46220.61
755.14	46566.71
755.32	46306.62
755.51	45851.97
755.69	46060.87
755.88	45620.55
756.06	46191.94
756.24	45972.80
756.43	46171.46
756.61	46110.02
756.80	45722.95
756.98	45557.06
757.17	45925.70
757.35	45868.36
757.54	45831.49
757.72	45884.74
757.90	45372.75
758.09	45389.13
758.27	45364.56
758.46	45610.31
758.64	45585.74
758.83	45598.02
759.01	45876.55
759.19	45493.58
759.38	45477.19
759.56	45643.08
759.75	45215.05
759.93	45241.68
760.12	44901.71
760.30	45397.32
760.48	44905.81
760.67	44942.67
760.85	45301.07
761.04	45485.39
761.22	45178.19
761.40	44852.56
761.59	44907.86
761.77	44823.89
761.96	44987.73
762.14	44698.97
762.32	44285.28
762.51	44565.85
762.69	44422.49
762.88	44615.00
763.06	44397.91
763.24	44578.14
763.43	44768.60
763.61	44002.66
763.80	43988.32
763.98	44105.06
764.16	44307.80
764.35	44094.82
764.53	43584.87
764.72	44090.72
764.90	43767.14
765.08	43779.43
765.27	44078.43
765.45	43619.69
765.63	43292.01
765.82	43451.75
766.00	43052.40
766.18	43302.25
766.37	43584.87
766.55	43160.94
766.74	43191.66
766.92	43146.61
767.10	43566.44
767.29	43193.71
767.47	42417.53
767.65	43109.74
767.84	42759.54
768.02	43038.06
768.20	42884.47
768.39	43119.98
768.57	42923.38
768.75	42657.14
768.94	42702.20
769.12	42415.48
769.30	42532.22
769.49	42345.85
769.67	42519.93
769.85	42296.70
770.04	42782.07
770.22	42167.68
770.40	42145.15
770.59	42339.71
770.77	42343.80
770.95	41854.34
771.14	42046.85
771.32	41858.43
771.50	41778.56
771.69	42001.79
771.87	41962.88
772.05	41571.72
772.24	41256.33
772.42	41692.55
772.60	41743.75
772.78	41692.55
772.97	41293.19
773.15	41661.83
773.33	41317.77
773.52	41260.43
773.70	41190.80
773.88	41305.48
774.07	40998.29
774.25	41106.83
774.43	41604.49
774.61	41129.36
774.80	41256.33
774.98	41010.57
775.16	41170.32
775.34	41287.05
775.53	41074.06
775.71	41262.47
775.89	41481.61
776.08	40949.14
776.26	41203.08
776.44	41096.59
776.62	41000.33
776.81	40977.81
776.99	41164.17
777.17	41022.86
777.35	41383.30
777.54	41700.74
777.72	41147.79
777.90	41158.03
778.08	40938.90
778.27	40797.59
778.45	41663.88
778.63	41493.89
778.81	40971.66
779.00	41624.96
779.18	41160.08
779.36	41559.43
779.54	41399.69
779.73	41348.49
779.91	41723.27
780.09	41596.29
780.27	41526.66
780.46	41606.53
780.64	42050.94
780.82	41489.80
781.00	41299.34
781.19	41862.53
781.37	41645.44
781.55	41749.89
781.73	41856.39
781.91	41285.00
782.10	41448.84
782.28	41446.79
782.46	41512.33
782.64	41880.96
782.82	41317.77
783.01	41555.33
783.19	41766.27
783.37	41960.83
783.55	41196.94
783.74	41688.45
783.92	41772.42
784.10	41880.96
784.28	41852.29
784.46	41186.70
784.64	40684.95
784.83	41289.10
785.01	41670.02
785.19	41510.28
785.37	41612.68
785.55	41522.57
785.74	40801.68
785.92	41364.87
786.10	41698.69
786.28	41401.74
786.46	40930.70
786.64	40834.45
786.83	41215.37
787.01	41108.88
787.19	41336.20
787.37	41354.63
787.55	41139.60
787.74	40510.87
787.92	40803.73
788.10	40705.43
788.28	40697.24
788.46	40932.75
788.64	40691.09
788.82	40713.62
789.01	40676.76
789.19	40705.43
789.37	40230.30
789.55	40465.81
789.73	40019.36
789.91	40095.13
790.09	40007.07
790.28	39837.09
790.46	39859.62
790.64	39933.34
790.82	39937.44
791.00	39884.19
791.18	39581.09
791.36	39415.21
791.55	39605.67
791.73	39533.99
791.91	39568.80
792.09	39357.86
792.27	39271.85
792.45	39331.24
792.63	39404.97
792.81	38901.17
793.00	39599.52
793.18	39124.40
793.36	38933.93
793.54	38655.41
793.72	38417.85
793.90	38606.26
794.08	38223.29
794.26	38430.13
794.44	38049.21
794.62	38393.27
794.81	38700.47
794.99	38036.92
795.17	38071.74
795.35	38546.87
795.53	37983.68
795.71	37873.09
795.89	37596.61
796.07	37729.73
796.25	37416.39
796.43	37529.03
796.61	37244.36
796.80	37359.05
796.98	37072.33
797.16	37561.79
797.34	37230.02
797.52	37438.92
797.70	37318.09
797.88	36926.92
798.06	36767.18
798.24	36998.60
798.42	36967.88
798.60	36505.04
798.78	36494.80
798.96	36535.76
799.14	36296.15
799.32	36400.60
799.51	36134.36
799.69	36304.34
799.87	36048.35
800.05	35878.36
800.23	35763.68
800.41	36011.48
800.59	35954.14
800.77	35153.38
800.95	35192.30
801.13	35427.81
801.31	34977.26
801.49	35644.90
801.67	35167.72
801.85	35249.64
802.03	34956.78
802.21	34747.89
802.39	34985.45
802.57	34854.38
802.75	34715.12
802.93	34674.16
803.11	34827.76
803.29	34305.52
803.47	34375.16
803.65	34405.88
803.83	34309.62
804.01	34508.27
804.19	34192.89
804.37	33818.11
804.55	34137.59
804.73	34039.29
804.91	34024.95
805.09	33705.47
805.27	33902.07
805.45	33992.19
805.63	33799.68
805.81	33906.17
805.99	33988.09
806.17	33428.99
806.35	33525.25
806.53	33046.02
806.71	33435.14
806.89	33797.63
807.07	33379.84
807.25	33048.07
807.43	33084.94
807.61	33256.96
807.79	33050.12
807.97	33011.21
808.15	32941.58
808.33	32736.78
808.51	32808.46
808.69	32816.65
808.87	32437.78
809.05	32527.89
809.23	32341.52
809.41	32359.95
809.59	32200.21
809.77	32548.37
809.95	32544.27
810.13	32243.22
810.31	32161.30
810.49	32091.67
810.67	31770.14
810.84	32015.90
811.02	31598.11
811.20	31688.22
811.38	31749.66
811.56	31860.25
811.74	31426.08
811.92	31639.07
812.10	31737.37
812.28	31876.63
812.46	31393.31
812.64	31415.84
812.82	31094.31
813.00	31327.78
813.18	31669.79
813.36	31624.73
813.53	30826.03
813.71	31243.81
813.89	30975.53
814.07	31118.89
814.25	31030.82
814.43	30969.38
814.61	30541.36
814.79	31006.25
814.97	30664.24
815.15	30387.76
815.33	30715.44
815.50	30228.02
815.68	30674.48
815.86	30826.03
816.04	30219.83
816.22	30195.25
816.40	30549.55
816.58	30113.33
816.76	29869.62
816.94	29967.93
817.11	30127.67
817.29	30391.86
817.47	30379.57
817.65	30160.44
817.83	30170.68
818.01	29752.89
818.19	29904.44
818.37	29965.88
818.54	29535.81
818.72	29134.40
818.90	29718.07
819.08	29374.02
819.26	29630.01
819.44	29378.11
819.62	29488.70
819.80	29781.56
819.97	29511.23
820.15	29685.31
820.33	29521.47
820.51	29503.04
820.69	29234.75
820.87	29646.40
821.05	29263.43
821.22	29304.38
821.40	29453.89
821.58	29328.96
821.76	29171.27
821.94	29089.35
822.12	29046.34
822.29	28892.74
822.47	28855.88
822.65	28972.61
822.83	28874.31
823.01	28833.35
823.19	28563.02
823.36	28577.36
823.54	28614.22
823.72	28530.25
823.90	28638.80
824.08	28311.12
824.25	28489.29
824.43	28239.44
824.61	28378.70
824.79	28509.77
824.97	28225.11
825.15	28472.91
825.32	28231.25
825.50	28022.36
825.68	27999.83
825.86	28479.05
826.04	28245.58
826.21	27999.83
826.39	27729.50
826.57	27985.49
826.75	28272.21
826.93	27795.03
827.10	27752.02
827.28	27696.73
827.46	28102.23
827.64	28061.27
827.81	28178.00
827.99	27907.67
828.17	27672.15
828.35	27485.79
828.53	27903.57
828.70	27614.81
828.88	27465.31
829.06	27784.79
829.24	27668.06
829.41	27790.94
829.59	27741.78
829.77	27256.42
829.95	27444.83
830.12	27311.71
830.30	27661.91
830.48	27397.73
830.66	27270.75
830.84	27364.96
831.01	27260.51
831.19	27315.81
831.37	27027.04
831.55	26975.84
831.72	27074.15
831.90	27307.62
832.08	27211.36
832.25	27170.40
832.43	27084.39
832.61	27090.53
832.79	26850.92
832.96	26639.98
833.14	26998.37
833.32	27125.35
833.50	27307.62
833.67	26828.39
833.85	27121.25
834.03	26556.01
834.20	27068.00
834.38	26721.90
834.56	26633.83
834.74	26656.36
834.91	26728.04
835.09	26558.06
835.27	26445.42
835.44	26328.69
835.62	26048.11
835.80	26498.67
835.98	26740.33
836.15	26318.45
836.33	26383.98
836.51	26715.75
836.68	26654.31
836.86	26328.69
837.04	26312.30
837.21	26076.79
837.39	26275.44
837.57	26273.39
837.75	26345.07
837.92	25919.09
838.10	26015.35
838.28	25665.14
838.45	25955.96
838.63	25851.51
838.81	26023.54
838.98	25863.80
839.16	25714.30
839.34	26173.04
839.51	25902.71
839.69	25644.66
839.87	25792.12
840.04	25380.48
840.22	25855.61
840.40	25261.69
840.57	25562.75
840.75	25462.40
840.93	25339.52
841.10	25458.30
841.28	26207.86
841.46	25589.37
841.63	25937.52
841.81	25550.46
841.98	25534.07
842.16	25523.83
842.34	25472.64
842.51	25269.89
842.69	25618.04
842.87	25212.54
843.04	25413.24
843.22	25144.96
843.40	25224.83
843.57	25384.57
843.75	25511.55
843.92	25456.25
844.10	25200.26
844.28	24995.46
844.45	25015.94
844.63	25187.97
844.81	25073.28
844.98	25110.14
845.16	24938.12
845.33	25024.13
845.51	24819.33
845.69	24774.28
845.86	24706.70
846.04	25079.43
846.21	25046.66
846.39	24739.46
846.57	24712.84
846.74	24884.87
846.92	24671.88
847.09	24651.40
847.27	24288.91
847.45	24792.71
847.62	24817.29
847.80	24669.83
847.97	24315.53
848.15	24364.68
848.32	24186.51
848.50	24295.05
848.68	24211.09
848.85	24305.29
849.03	23971.47
849.20	24401.55
849.38	24080.02
849.56	24045.20
849.73	24186.51
849.91	24114.83
850.08	24235.66
850.26	24026.77
850.43	23953.04
850.61	24080.02
850.78	23795.35
850.96	23948.95
851.14	23770.77
851.31	24192.65
851.49	23963.28
851.66	24129.17
851.84	23928.47
852.01	23852.69
852.19	24049.30
852.36	23936.66
852.54	23738.01
852.71	23365.28
852.89	23686.81
853.07	23701.14
853.24	23514.78
853.42	23510.68
853.59	23697.05
853.77	23781.01
853.94	23600.79
854.12	23682.71
854.29	23418.52
854.47	23520.92
854.64	23066.27
854.82	23295.64
854.99	23334.56
855.17	23170.72
855.34	23301.79
855.52	23082.66
855.69	23019.17
855.87	23006.88
856.04	22709.93
856.22	23191.20
856.39	23230.11
856.57	23217.82
856.74	22898.34
856.92	23205.53
857.09	22908.58
857.27	22673.06
857.44	23092.90
857.62	22757.03
857.79	22709.93
857.97	22812.32
858.14	22750.88
858.32	22564.52
858.49	22867.62
858.67	22593.19
858.84	22492.84
859.02	22449.83
859.19	22314.67
859.37	22603.43
859.54	22388.39
859.72	22677.16
859.89	22656.68
860.06	22437.55
860.24	22472.36
860.41	22273.71
860.59	22181.55
860.76	22392.49
860.94	22185.65
861.11	22337.20
861.29	22032.05
861.46	22042.29
861.64	21915.31
861.81	22345.39
861.98	22177.45
862.16	21917.36
862.33	21710.52
862.51	21763.76
862.68	21984.94
862.86	22075.06
863.03	21784.24
863.21	21501.62
863.38	21933.75
863.55	21911.22
863.73	21857.97
863.90	21829.30
864.08	21819.06
864.25	21644.98
864.43	21618.36
864.60	21604.02
864.77	21587.64
864.95	21614.26
865.12	21411.51
865.30	21522.10
865.47	21364.41
865.64	21216.96
865.82	21380.79
865.99	21417.66
866.17	21305.02
866.34	21458.62
866.51	21063.36
866.69	21210.81
866.86	21466.81
867.04	21083.84
867.21	21030.59
867.38	21241.53
867.56	20952.77
867.73	20879.04
867.91	20868.80
868.08	20870.85
868.25	20997.82
868.43	20948.67
868.60	20891.33
868.78	20829.89
868.95	20811.46
869.12	20784.83
869.30	20504.26
869.47	20743.88
869.64	20367.05
869.82	20446.92
869.99	20354.76
870.16	20745.92
870.34	20747.97
870.51	20590.28
870.69	20115.15
870.86	20321.99
871.03	20041.42
871.21	19934.93
871.38	20317.90
871.55	20070.09
871.73	20221.64
871.90	20264.65
872.07	19779.28
872.25	20180.68
872.42	19963.60
872.59	19701.46
872.77	19979.98
872.94	19781.33
873.11	19498.71
873.29	19707.60
873.46	19644.12
873.63	19564.25
873.81	19609.30
873.98	19588.82
874.15	19453.66
874.33	19132.12
874.50	19326.68
874.67	19424.98
874.85	19080.92
875.02	19511.00
875.19	19166.94
875.37	19152.60
875.54	19236.57
875.71	19089.12
875.88	18919.14
876.06	19082.97
876.23	19216.09
876.40	18738.91
876.58	18939.62
876.75	19039.97
876.92	18941.66
877.10	18743.01
877.27	18898.66
877.44	18570.98
877.61	18654.95
877.79	18298.60
877.96	18419.43
878.13	18548.45
878.31	18378.47
878.48	18427.62
878.65	18362.09
878.82	18329.32
879.00	18435.81
879.17	18349.80
879.34	18417.38
879.51	18253.55
879.69	17972.97
879.86	17977.07
880.03	17987.31
880.21	17846.00
880.38	17874.67
880.55	18128.62
880.72	18085.61
880.90	17907.44
881.07	18271.98
881.24	17827.57
881.41	17712.88
881.59	17815.28
881.76	17739.51
881.93	17925.87
882.10	17581.81
882.28	17620.72
882.45	17444.60
882.62	17575.67
882.79	17886.96
882.96	17463.03
883.14	17602.29
883.31	17753.84
883.48	17313.53
883.65	17272.57
883.83	17444.60
884.00	17600.24
884.17	17377.01
884.34	17628.92
884.51	17207.03
884.69	17493.75
884.86	17344.25
885.03	17106.68
885.20	17026.81
885.38	17280.76
885.55	17045.24
885.72	17151.74
885.89	17067.77
886.06	17204.99
886.24	16946.94
886.41	17100.54
886.58	16983.80
886.75	17049.34
886.92	16760.58
887.10	17159.93
887.27	16948.99
887.44	16938.75
887.61	17254.14
887.78	16709.38
887.95	16803.58
888.13	16615.17
888.30	16412.42
888.47	16518.92
888.64	16502.53
888.81	16617.22
888.99	16606.98
889.16	16473.86
889.33	16373.51
889.50	16215.82
889.67	16480.00
889.84	16449.28
890.01	16547.59
890.19	16357.13
890.36	16260.87
890.53	16307.98
890.70	15961.87
890.87	16082.70
891.04	15920.91
891.22	16105.23
891.39	16068.36
891.56	16086.79
891.73	16115.47
891.90	15894.29
892.07	15894.29
892.24	15726.35
892.42	15920.91
892.59	15761.17
892.76	15795.98
892.93	15898.38
893.10	15779.60
893.27	15918.86
893.44	15478.55
893.61	15601.43
893.79	15838.99
893.96	15826.70
894.13	15503.12
894.30	15515.41
894.47	15574.80
894.64	15572.75
894.81	15716.11
894.98	15669.01
895.15	15660.82
895.33	15357.72
895.50	15589.14
895.67	15609.62
895.84	15527.70
896.01	15476.50
896.18	15327.00
896.35	15705.87
896.52	15525.65
896.69	15568.66
896.86	15511.32
897.04	15406.87
897.21	15464.21
897.38	15128.35
897.55	15554.32
897.72	15654.67
897.89	15603.47
898.06	15521.56
898.23	15251.22
898.40	15283.99
898.57	15361.81
898.74	15363.86
898.91	15269.66
899.08	15277.85
899.26	15218.46
899.43	15261.46
899.60	15347.48
899.77	15406.87
899.94	15279.89
900.11	15066.91
900.28	15150.87
900.45	15228.70
900.62	15273.75
900.79	15204.12
900.96	15175.45
901.13	15390.49
901.30	15079.19
901.47	15228.70
901.64	15257.37
901.81	15255.32
901.98	15015.71
902.15	15302.42
902.32	15003.42
902.49	15296.28
902.66	15240.98
902.83	15118.11
903.01	15066.91
903.18	15050.52
903.35	14858.01
903.52	14931.74
903.69	15091.48
903.86	15150.87
904.03	15195.93
904.20	15294.23
904.37	15384.34
904.54	14878.49
904.71	15042.33
904.88	15245.08
905.05	15030.04
905.22	15200.02
905.39	14970.65
905.56	14815.01
905.73	14870.30
905.90	14999.32
906.07	15124.25
906.24	14966.56
906.41	14970.65
906.58	15011.61
906.75	14821.15
906.92	14765.85
907.09	14970.65
907.26	15066.91
907.43	14745.38
907.60	15034.14
907.77	14954.27
907.93	14864.16
908.10	14939.93
908.27	14933.79
908.44	14952.22
908.61	14620.45
908.78	14753.57
908.95	14798.62
909.12	14704.42
909.29	14739.23
909.46	14941.98
909.63	14929.69
909.80	14931.74
909.97	14685.98
910.14	14767.90
910.31	14583.59
910.48	14741.28
910.65	14800.67
910.82	14604.07
910.99	14593.83
911.16	14726.94
911.33	14647.07
911.50	14610.21
911.66	14356.26
911.83	14724.90
912.00	14610.21
912.17	14397.22
912.34	14427.94
912.51	14462.76
912.68	14075.69
912.85	14473.00
913.02	14610.21
913.19	14335.78
913.36	14315.30
913.53	14319.40
913.70	14311.21
913.86	14362.40
914.03	14317.35
914.20	14358.31
914.37	14337.83
914.54	14386.98
914.71	14276.39
914.88	14114.60
915.05	14096.17
915.22	14139.18
915.39	14130.98
915.55	13987.63
915.72	13948.72
915.89	14038.83
916.06	13879.08
916.23	13651.76
916.40	13907.76
916.57	13780.78
916.74	13608.75
916.91	13637.42
917.07	13723.44
917.24	13827.88
917.41	13688.62
917.58	13655.86
917.75	13561.65
917.92	13539.12
918.09	13702.96
918.26	13412.15
918.42	13600.56
918.59	13371.19
918.76	13365.04
918.93	13057.85
919.10	13324.08
919.27	13293.37
919.44	13119.29
919.60	13303.60
919.77	13227.83
919.94	13053.75
920.11	13037.37
920.28	12977.98
920.45	12824.38
920.61	13025.08
920.78	12949.31
920.95	12715.84
921.12	12750.65
921.29	12652.35
921.46	12687.17
921.62	12506.95
921.79	12724.03
921.96	12484.42
922.13	12707.65
922.30	12427.07
922.47	12435.27
922.63	12506.95
922.80	12420.93
922.97	12214.09
923.14	12101.45
923.31	12273.48
923.47	12220.23
923.64	12496.71
923.81	11857.74
923.98	12066.63
924.15	11767.63
924.32	11927.37
924.48	12068.68
924.65	11960.14
924.82	11734.86
924.99	11628.37
925.15	11607.89
925.32	11741.00
925.49	11667.28
925.66	11515.73
925.83	11571.02
925.99	11421.52
926.16	11509.58
926.33	11571.02
926.50	11335.51
926.67	11509.58
926.83	11489.10
927.00	11458.39
927.17	11364.18
927.34	11323.22
927.50	11136.85
927.67	11214.68
927.84	11312.98
928.01	11063.13
928.17	11061.08
928.34	11069.27
928.51	10983.26
928.68	10764.12
928.84	10762.08
929.01	10606.43
929.18	10741.60
929.35	10678.11
929.51	10579.81
929.68	10477.41
929.85	10561.37
930.02	10583.90
930.18	10342.24
930.35	10315.62
930.52	10504.03
930.69	10307.43
930.85	10145.64
931.02	10182.50
931.19	10182.50
931.36	10147.69
931.52	10125.16
931.69	10110.82
931.86	9963.37
932.02	10035.05
932.19	9942.89
932.36	9985.90
932.53	9834.35
932.69	9901.93
932.86	9865.07
933.03	9852.78
933.19	9547.63
933.36	9654.12
933.53	9668.46
933.70	9293.68
933.86	9482.10
934.03	9305.97
934.20	9322.35
934.36	9543.53
934.53	9150.32
934.70	9095.03
934.86	9107.32
935.03	9105.27
935.20	8902.52
935.36	8980.34
935.53	8961.91
935.70	8763.26
935.86	8802.17
936.03	8570.75
936.20	8644.48
936.36	8609.66
936.53	8499.07
936.70	8392.58
936.86	8507.26
937.03	8267.65
937.20	8353.66
937.36	8163.20
937.53	7976.84
937.70	7946.12
937.86	7917.45
938.03	7851.91
938.20	7923.59
938.36	7763.85
938.53	7567.24
938.70	7585.68
938.86	7305.10
939.03	7352.21
939.20	7061.40
939.36	7350.16
939.53	7032.72
939.70	7311.25
939.86	6860.70
940.03	6954.90
940.19	6778.78
940.36	6885.27
940.53	6721.43
940.69	6631.32
940.86	6893.46
941.03	6309.79
941.19	6426.53
941.36	6342.56
941.52	6252.45
941.69	6135.71
941.86	6129.57
942.02	6156.19
942.19	6119.33
942.35	6131.62
942.52	6045.60
942.69	5982.12
942.85	5951.40
943.02	5916.58
943.18	5777.32
943.35	5975.97
943.52	5812.14
943.68	5513.13
943.85	5750.70
944.01	5527.47
944.18	5584.81
944.35	5605.29
944.51	5554.09
944.68	5500.84
944.84	5449.64
945.01	5377.97
945.17	5504.94
945.34	5500.84
945.51	5429.17
945.67	5296.05
945.84	5312.43
946.00	5380.01
946.17	5326.77
946.33	5359.53
946.50	5388.21
946.67	5392.30
946.83	5138.35
947.00	5332.91
947.16	5263.28
947.33	5306.29
947.49	5230.51
947.66	5357.49
947.82	5250.99
947.99	5355.44
948.16	5294.00
948.32	5197.74
948.49	5330.86
948.65	5369.77
948.82	5236.66
948.98	5126.07
949.15	5185.46
949.31	5273.52
949.48	5298.10
949.64	5205.94
949.81	5357.49
949.97	5261.23
950.14	5296.05
950.30	5236.66
950.47	5404.59
950.63	5402.54
950.80	5334.96
950.96	5363.63
951.13	5296.05
951.30	5386.16
951.46	5332.91
951.63	5402.54
951.79	5283.76
951.96	5556.14
952.12	5369.77
952.29	5533.61
952.45	5343.15
952.62	5506.99
952.78	5447.60
952.94	5244.85
953.11	5341.10
953.27	5384.11
953.44	5371.82
953.60	5466.03
953.77	5371.82
953.93	5408.69
954.10	5347.25
954.26	5406.64
954.43	5439.40
954.59	5500.84
954.76	5638.06
954.92	5351.34
955.09	5517.23
955.25	5482.41
955.42	5457.84
955.58	5640.11
955.75	5531.56
955.91	5441.45
956.07	5402.54
956.24	5478.32
956.40	5541.80
956.57	5570.48
956.73	5515.18
956.90	5453.74
957.06	5521.32
957.23	5459.88
957.39	5533.61
957.56	5572.52
957.72	5363.63
957.88	5480.36
958.05	5627.82
958.21	5539.76
958.38	5468.08
958.54	5529.52
958.71	5486.51
958.87	5533.61
959.03	5541.80
959.20	5476.27
959.36	5371.82
959.53	5418.93
959.69	5416.88
959.85	5570.48
960.02	5330.86
960.18	5478.32
960.35	5449.64
960.51	5582.76
960.68	5506.99
960.84	5474.22
961.00	5380.01
961.17	5406.64
961.33	5607.34
961.50	5468.08
961.66	5468.08
961.82	5576.62
961.99	5484.46
962.15	5351.34
962.31	5394.35
962.48	5480.36
962.64	5547.95
962.81	5521.32
962.97	5472.17
963.13	5482.41
963.30	5564.33
963.46	5400.49
963.62	5400.49
963.79	5412.78
963.95	5408.69
964.12	5377.97
964.28	5498.80
964.44	5345.20
964.61	5474.22
964.77	5513.13
964.93	5572.52
965.10	5431.21
965.26	5330.86
965.42	5273.52
965.59	5214.13
965.75	5453.74
965.92	5392.30
966.08	5388.21
966.24	5435.31
966.41	5255.09
966.57	5384.11
966.73	5373.87
966.90	5439.40
967.06	5513.13
967.22	5324.72
967.39	5341.10
967.55	5140.40
967.71	5230.51
967.88	5294.00
968.04	5212.08
968.20	5312.43
968.37	5205.94
968.53	5406.64
968.69	5341.10
968.85	5291.95
969.02	5279.66
969.18	5246.90
969.34	5281.71
969.51	5349.29
969.67	5234.61
969.83	5115.83
970.00	5265.33
970.16	5144.50
970.32	5277.62
970.48	5242.80
970.65	5085.11
970.81	5023.67
970.97	5199.79
971.14	5013.43
971.30	5281.71
971.46	5054.39
971.63	5105.59
971.79	5124.02
971.95	4984.76
972.11	4986.80
972.28	5124.02
972.44	5164.98
972.60	5001.14
972.76	5058.48
972.93	5031.86
973.09	5044.15
973.25	5093.30
973.42	5066.67
973.58	5115.83
973.74	5111.73
973.90	5068.72
974.07	4966.32
974.23	4917.17
974.39	5025.72
974.55	4880.31
974.72	4974.52
974.88	4763.58
975.04	4921.27
975.20	4870.07
975.37	4956.08
975.53	4777.91
975.69	4968.37
975.85	4775.86
976.01	4933.56
976.18	4892.60
976.34	4945.84
976.50	4859.83
976.66	4861.88
976.83	4771.77
976.99	4767.67
977.15	4784.06
977.31	4786.10
977.47	4921.27
977.64	4816.82
977.80	4786.10
977.96	4671.42
978.12	4814.77
978.29	4671.42
978.45	4698.04
978.61	4618.17
978.77	4675.51
978.93	4655.03
979.10	4689.85
979.26	4626.36
979.42	4587.45
979.58	4499.39
979.74	4579.26
979.91	4624.31
980.07	4603.83
980.23	4501.44
980.39	4636.60
980.55	4468.67
980.71	4511.68
980.88	4407.23
981.04	4593.59
981.20	4528.06
981.36	4569.02
981.52	4526.01
981.68	4411.32
981.85	4646.84
982.01	4499.39
982.17	4298.69
982.33	4296.64
982.49	4425.66
982.65	4386.75
982.82	4466.62
982.98	4407.23
983.14	4313.02
983.30	4351.93
983.46	4392.89
983.62	4370.37
983.79	4249.54
983.95	4327.36
984.11	4177.86
984.27	4276.16
984.43	4245.44
984.59	4184.00
984.75	4407.23
984.91	4362.17
985.08	4392.89
985.24	4151.23
985.40	4184.00
985.56	4206.53
985.72	4276.16
985.88	4218.82
986.04	4188.10
986.20	4100.03
986.37	4120.51
986.53	4167.62
986.69	4186.05
986.85	4173.76
987.01	4184.00
987.17	4194.24
987.33	4075.46
987.49	4032.45
987.65	4157.38
987.82	4081.60
987.98	4059.07
988.14	4079.55
988.30	4087.75
988.46	3958.72
988.62	4112.32
988.78	4032.45
988.94	3925.96
989.10	3995.59
989.26	3956.68
989.42	3989.44
989.59	3895.24
989.75	3819.46
989.91	4089.79
990.07	3786.69
990.23	3839.94
990.39	3864.52
990.55	3766.21
990.71	3878.85
990.87	3938.24
991.03	3891.14
991.19	3938.24
991.35	3829.70
991.51	3780.55
991.67	3874.76
991.83	3833.80
992.00	3897.28
992.16	3882.95
992.32	3911.62
992.48	3749.83
992.64	3844.04
992.80	3811.27
992.96	3653.58
993.12	3735.50
993.28	3846.09
993.44	3633.10
993.60	3809.22
993.76	3696.58
993.92	3710.92
994.08	3776.45
994.24	3678.15
994.40	3710.92
994.56	3825.61
994.72	3696.58
994.88	3604.42
995.04	3772.36
995.20	3545.03
995.36	3559.37
995.52	3680.20
995.68	3561.42
995.84	3637.19
996.00	3641.29
996.16	3655.62
996.32	3516.36
996.48	3590.09
996.64	3635.14
996.80	3555.27
996.96	3567.56
997.12	3463.12
997.28	3532.75
997.44	3395.53
997.60	3538.89
997.76	3510.22
997.92	3499.98
998.08	3389.39
998.24	3375.05
998.40	3499.98
998.56	3413.96
998.72	3327.95
998.88	3405.77
999.04	3426.25
999.20	3481.55
999.36	3295.18
999.52	3446.73
999.68	3215.31
999.84	3401.68
1000.00	3350.48
1000.16	3459.02
1000.32	3313.61
1000.48	3413.96
1000.64	3315.66
1000.80	3286.99
1000.95	3248.08
1001.11	3217.36
1001.27	3180.50
1001.43	3264.46
1001.59	3166.16
1001.75	3307.47
1001.91	3246.03
1002.07	3239.89
1002.23	3223.50
1002.39	3082.19
1002.55	3125.20
1002.71	3119.06
1002.87	3241.93
1003.03	3131.34
1003.19	3022.80
1003.34	3293.13
1003.50	3223.50
1003.66	3160.02
1003.82	3168.21
1003.98	3166.16
1004.14	3030.99
1004.30	3098.58
1004.46	3090.38
1004.62	3084.24
1004.78	3033.04
1004.94	3139.54
1005.09	3082.19
1005.25	3106.77
1005.41	3026.90
1005.57	3043.28
1005.73	3104.72
1005.89	3008.47
1006.05	3078.10
1006.21	3006.42
1006.37	3051.47
1006.52	2922.45
1006.68	2914.26
1006.84	3076.05
1007.00	2924.50
1007.16	2998.23
1007.32	2938.84
1007.48	2924.50
1007.64	3026.90
1007.79	2920.40
1007.95	2908.12
1008.11	2926.55
1008.27	2953.17
1008.43	2906.07
1008.59	2848.72
1008.75	3037.14
1008.91	2942.93
1009.06	2811.86
1009.22	2877.40
1009.38	2920.40
1009.54	2963.41
1009.70	2887.64
1009.86	2879.44
1010.01	2869.20
1010.17	2826.20
1010.33	2879.44
1010.49	2822.10
1010.65	2832.34
1010.81	2777.05
1010.96	2764.76
1011.12	2803.67
1011.28	2699.22
1011.44	2785.24
1011.60	2666.46
1011.76	2731.99
1011.91	2836.44
1012.07	2602.97
1012.23	2686.94
1012.39	2686.94
1012.55	2803.67
1012.71	2660.31
1012.86	2588.63
1013.02	2748.37
1013.18	2676.70
1013.34	2613.21
1013.50	2725.85
1013.65	2719.70
1013.81	2654.17
1013.97	2551.77
1014.13	2674.65
1014.29	2635.74
1014.44	2764.76
1014.60	2572.25
1014.76	2631.64
1014.92	2666.46
1015.07	2547.67
1015.23	2627.54
1015.39	2592.73
1015.55	2527.19
1015.71	2619.35
1015.86	2447.32
1016.02	2527.19
1016.18	2492.38
1016.34	2541.53
1016.49	2547.67
1016.65	2605.02
1016.81	2492.38
1016.97	2512.86
1017.12	2582.49
1017.28	2424.80
1017.44	2457.56
1017.60	2447.32
1017.75	2527.19
1017.91	2459.61
1018.07	2461.66
1018.23	2537.43
1018.38	2535.39
1018.54	2512.86
1018.70	2492.38
1018.86	2435.03
1019.01	2467.80
1019.17	2396.12
1019.33	2404.32
1019.49	2488.28
1019.64	2463.71
1019.80	2482.14
1019.96	2488.28
1020.12	2363.36
1020.27	2414.56
1020.43	2443.23
1020.59	2461.66
1020.74	2500.57
1020.90	2449.37
1021.06	2424.80
1021.22	2318.30
1021.37	2385.88
1021.53	2287.58
1021.69	2424.80
1021.84	2322.40
1022.00	2447.32
1022.16	2375.64
1022.31	2379.74
1022.47	2301.92
1022.63	2379.74
1022.79	2166.75
1022.94	2279.39
1023.10	2367.45
1023.26	2265.05
1023.41	2312.16
1023.57	2187.23
1023.73	2215.90
1023.88	2306.01
1024.04	2160.61
1024.20	2246.62
1024.35	2328.54
1024.51	2285.53
1024.67	2265.05
1024.82	2320.35
1024.98	2156.51
1025.14	2222.05
1025.29	2230.24
1025.45	2299.87
1025.61	2240.48
1025.76	2226.14
1025.92	2244.57
1026.08	2254.81
1026.23	2232.29
1026.39	2322.40
1026.55	2207.71
1026.70	2152.42
1026.86	2131.94
1027.02	2211.81
1027.17	2215.90
1027.33	2209.76
1027.48	2115.55
1027.64	2119.65
1027.80	2080.74
1027.95	2166.75
1028.11	2043.87
1028.27	2197.47
1028.42	2240.48
1028.58	2107.36
1028.73	2156.51
1028.89	2080.74
1029.05	2236.38
1029.20	2195.42
>>>>>End Processed Spectral Data<<<<<
