SpectraSuite Data File
++++++++++++++++++++++++++++++++++++
Date: Fri Jun 02 14:44:38 CEST 2017
User: INFO_000
Dark Spectrum Present: No
Reference Spectrum Present: No
Number of Sampled Component Spectra: 1
Spectrometers: USB4H00879
Integration Time (usec): 80000 (USB4H00879)
Spectra Averaged: 1 (USB4H00879)
Boxcar Smoothing: 0 (USB4H00879)
Correct for Electrical Dark: No (USB4H00879)
Strobe/Lamp Enabled: No (USB4H00879)
Correct for Detector Non-linearity: No (USB4H00879)
Correct for Stray Light: No (USB4H00879)
Number of Pixels in Processed Spectrum: 3648
>>>>>Begin Processed Spectral Data<<<<<
345.13	1296.36
345.34	1296.36
345.56	1296.36
345.78	1296.36
345.99	1343.47
346.21	1701.86
346.42	1712.10
346.64	1593.32
346.86	1800.16
347.07	1636.33
347.29	1667.05
347.50	1585.13
347.72	1619.94
347.94	1662.95
348.15	1585.13
348.37	1593.32
348.59	1699.81
348.80	1646.57
349.02	1814.50
349.23	1869.80
349.45	1839.08
349.67	1892.32
349.88	1779.68
350.10	1976.29
350.31	1916.90
350.53	1886.18
350.75	1896.42
350.96	1822.69
351.18	1843.17
351.39	1900.52
351.61	1830.88
351.82	1910.75
352.04	1953.76
352.26	1812.45
352.47	1900.52
352.69	1935.33
352.90	1785.83
353.12	1830.88
353.34	1820.64
353.55	1992.67
353.77	1896.42
353.98	1855.46
354.20	1740.77
354.41	1834.98
354.63	1847.27
354.85	2062.30
355.06	1906.66
355.28	1781.73
355.49	1892.32
355.71	1892.32
355.92	1890.28
356.14	1847.27
356.35	1890.28
356.57	1859.56
356.79	1892.32
357.00	1931.23
357.22	1976.29
357.43	1906.66
357.65	1904.61
357.86	1898.47
358.08	1896.42
358.29	1931.23
358.51	1986.53
358.72	1945.57
358.94	1929.19
359.16	1996.77
359.37	1933.28
359.59	1966.05
359.80	2035.68
360.02	1904.61
360.23	1961.95
360.45	2050.02
360.66	1972.19
360.88	1892.32
361.09	1888.23
361.31	2070.50
361.52	1968.10
361.74	2109.41
361.95	2097.12
362.17	1906.66
362.38	2078.69
362.60	2021.35
362.81	2009.06
363.03	1998.82
363.24	1947.62
363.46	2101.22
363.67	2095.07
363.89	1978.34
364.10	1943.52
364.32	1966.05
364.53	2084.83
364.75	1961.95
364.96	2066.40
365.18	2043.87
365.39	2004.96
365.61	1974.24
365.82	2090.98
366.04	2007.01
366.25	1976.29
366.47	2045.92
366.68	2095.07
366.90	2047.97
367.11	2086.88
367.33	2019.30
367.54	2129.89
367.76	2035.68
367.97	2115.55
368.19	2050.02
368.40	2088.93
368.62	2023.39
368.83	1961.95
369.05	2072.54
369.26	1986.53
369.48	2070.50
369.69	2009.06
369.91	2115.55
370.12	2002.91
370.33	2090.98
370.55	2011.11
370.76	2033.63
370.98	2080.74
371.19	2015.20
371.41	2052.06
371.62	2056.16
371.84	1945.57
372.05	2203.61
372.27	2043.87
372.48	2103.26
372.69	2066.40
372.91	2179.04
373.12	2074.59
373.34	2131.94
373.55	2176.99
373.77	2199.52
373.98	2131.94
374.20	2193.37
374.41	2129.89
374.62	2144.22
374.84	2236.38
375.05	2207.71
375.27	2220.00
375.48	2148.32
375.70	2170.85
375.91	2230.24
376.12	2287.58
376.34	2074.59
376.55	2222.05
376.77	2289.63
376.98	2043.87
377.19	2215.90
377.41	2164.70
377.62	2240.48
377.84	2256.86
378.05	2269.15
378.27	2240.48
378.48	2355.16
378.69	2435.03
378.91	2297.82
379.12	2287.58
379.34	2205.66
379.55	2260.96
379.76	2254.81
379.98	2166.75
380.19	2226.14
380.41	2334.68
380.62	2258.91
380.83	2181.09
381.05	2236.38
381.26	2293.72
381.47	2291.68
381.69	2244.57
381.90	2424.80
382.12	2269.15
382.33	2213.85
382.54	2301.92
382.76	2363.36
382.97	2310.11
383.19	2242.53
383.40	2344.92
383.61	2297.82
383.83	2277.34
384.04	2375.64
384.25	2351.07
384.47	2400.22
384.68	2402.27
384.89	2191.33
385.11	2332.64
385.32	2314.20
385.54	2410.46
385.75	2349.02
385.96	2451.42
386.18	2406.36
386.39	2406.36
386.60	2418.65
386.82	2389.98
387.03	2387.93
387.24	2502.62
387.46	2469.85
387.67	2478.04
387.88	2521.05
388.10	2535.39
388.31	2547.67
388.52	2566.10
388.74	2508.76
388.95	2441.18
389.16	2500.57
389.38	2537.43
389.59	2592.73
389.80	2559.96
390.02	2580.44
390.23	2600.92
390.44	2623.45
390.66	2533.34
390.87	2516.95
391.08	2652.12
391.30	2785.24
391.51	2670.55
391.72	2629.59
391.94	2658.26
392.15	2572.25
392.36	2629.59
392.58	2514.91
392.79	2641.88
393.00	2666.46
393.22	2731.99
393.43	2811.86
393.64	2811.86
393.85	2820.05
394.07	2705.37
394.28	2779.09
394.49	2822.10
394.71	2756.57
394.92	2803.67
395.13	2721.75
395.35	2770.90
395.56	2772.95
395.77	2711.51
395.98	2850.77
396.20	2801.62
396.41	2865.11
396.62	2924.50
396.84	2803.67
397.05	2805.72
397.26	2895.83
397.47	2940.88
397.69	2904.02
397.90	3012.56
398.11	2940.88
398.32	2901.97
398.54	2940.88
398.75	2879.44
398.96	2969.55
399.18	3000.27
399.39	3047.38
399.60	3088.34
399.81	2928.60
400.03	2899.92
400.24	3309.52
400.45	2967.51
400.66	3051.47
400.88	3024.85
401.09	3149.78
401.30	2951.12
401.51	3213.26
401.73	3086.29
401.94	3065.81
402.15	3233.74
402.36	2924.50
402.58	3035.09
402.79	3168.21
403.00	3217.36
403.21	3280.85
403.43	3219.41
403.64	3174.35
403.85	3055.57
404.06	3282.89
404.27	3172.30
404.49	3280.85
404.70	3209.17
404.91	3235.79
405.12	3278.80
405.34	3221.45
405.55	3442.64
405.76	3160.02
405.97	3254.22
406.19	3434.44
406.40	3205.07
406.61	3330.00
406.82	3338.19
407.03	3190.74
407.25	3276.75
407.46	3370.96
407.67	3405.77
407.88	3481.55
408.09	3272.65
408.31	3291.09
408.52	3370.96
408.73	3459.02
408.94	3348.43
409.15	3487.69
409.37	3487.69
409.58	3495.88
409.79	3489.74
410.00	3536.84
410.21	3397.58
410.43	3481.55
410.64	3381.20
410.85	3504.07
411.06	3618.76
411.27	3514.31
411.48	3702.73
411.70	3583.95
411.91	3616.71
412.12	3708.87
412.33	3669.96
412.54	3585.99
412.76	3676.10
412.97	3721.16
413.18	3499.98
413.39	3688.39
413.60	3729.35
413.81	3657.67
414.03	3655.62
414.24	3692.49
414.45	3846.09
414.66	3614.66
414.87	3698.63
415.08	3821.51
415.30	3749.83
415.51	3747.78
415.72	3839.94
415.93	3717.06
416.14	3706.82
416.35	3872.71
416.56	3925.96
416.78	3729.35
416.99	3860.42
417.20	3837.89
417.41	3938.24
417.62	3944.39
417.83	3917.76
418.04	3907.52
418.26	3856.33
418.47	3919.81
418.68	4063.17
418.89	4149.18
419.10	4046.79
419.31	4026.31
419.52	4179.90
419.73	4020.16
419.95	4030.40
420.16	4036.55
420.37	4140.99
420.58	4083.65
420.79	3997.64
421.00	4165.57
421.21	4222.91
421.42	4091.84
421.63	4048.83
421.85	4124.61
422.06	4241.34
422.27	4296.64
422.48	4249.54
422.69	4306.88
422.90	4278.21
423.11	4349.89
423.32	4233.15
423.53	4509.63
423.75	4374.46
423.96	4585.40
424.17	4429.76
424.38	4648.89
424.59	4507.58
424.80	4556.73
425.01	4579.26
425.22	4476.86
425.43	4472.76
425.64	4743.10
425.85	4667.32
426.06	4669.37
426.28	4569.02
426.49	4491.20
426.70	4616.12
426.91	4691.90
427.12	4769.72
427.33	4685.75
427.54	4638.65
427.75	4720.57
427.96	4878.26
428.17	4634.55
428.38	4741.05
428.59	4810.68
428.80	4855.73
429.01	4851.64
429.23	4825.01
429.44	5044.15
429.65	5001.14
429.86	5007.28
430.07	4806.58
430.28	4900.79
430.49	4937.65
430.70	5183.41
430.91	5156.79
431.12	4972.47
431.33	5126.07
431.54	5201.84
431.75	5087.15
431.96	5134.26
432.17	5185.46
432.38	5078.96
432.59	5404.59
432.80	5347.25
433.01	5281.71
433.22	5257.14
433.43	5255.09
433.64	5203.89
433.85	5265.33
434.06	5220.27
434.27	5423.02
434.49	5398.45
434.70	5648.30
434.91	5474.22
435.12	5472.17
435.33	5457.84
435.54	5361.58
435.75	5314.48
435.96	5631.91
436.17	5455.79
436.38	5664.68
436.59	5636.01
436.80	5617.58
437.01	5818.28
437.22	5818.28
437.43	5568.43
437.64	5406.64
437.85	5654.44
438.06	5779.37
438.27	5672.87
438.48	5629.87
438.69	5812.14
438.90	5803.94
439.11	5676.97
439.32	5853.09
439.53	5900.20
439.74	5898.15
439.95	5957.54
440.16	6002.60
440.37	5816.23
440.57	5930.92
440.78	6113.19
440.99	6041.51
441.20	6018.98
441.41	6076.32
441.62	6070.18
441.83	5867.43
442.04	6188.96
442.25	6195.11
442.46	6098.85
442.67	6197.15
442.88	6553.50
443.09	6191.01
443.30	6102.95
443.51	6422.43
443.72	6569.88
443.93	6041.51
444.14	6518.68
444.35	6322.08
444.56	6436.77
444.77	6397.85
444.98	6305.70
445.19	6502.30
445.40	6420.38
445.61	6334.37
445.81	6506.40
446.02	6610.84
446.23	6590.36
446.44	6350.75
446.65	6758.30
446.86	6621.08
447.07	6741.91
447.28	6809.50
447.49	6768.54
447.70	6743.96
447.91	6672.28
448.12	6789.02
448.33	6817.69
448.54	7036.82
448.74	6698.91
448.95	6893.46
449.16	6700.95
449.37	7149.46
449.58	6832.02
449.79	7237.52
450.00	6748.06
450.21	7065.49
450.42	7247.76
450.63	7155.60
450.84	7042.96
451.05	7184.27
451.25	7153.55
451.46	6954.90
451.67	7278.48
451.88	7421.84
452.09	7407.50
452.30	7102.36
452.51	7167.89
452.72	7507.85
452.93	7622.54
453.13	7237.52
453.34	7202.71
453.55	7493.52
453.76	7479.18
453.97	7829.38
454.18	7405.46
454.39	7620.49
454.60	7524.24
454.81	7573.39
455.01	7628.68
455.22	7436.17
455.43	7659.40
455.64	7767.95
455.85	8009.61
456.06	8081.28
456.27	7966.60
456.48	7825.29
456.68	8015.75
456.89	7948.17
457.10	8058.76
457.31	8247.17
457.52	8001.41
457.73	8169.35
457.94	8294.27
458.14	8030.09
458.35	8433.54
458.56	8292.23
458.77	8114.05
458.98	8257.41
459.19	8314.75
459.39	8402.82
459.60	8431.49
459.81	8378.24
460.02	8599.42
460.23	8662.91
460.44	8791.93
460.65	8667.00
460.85	8720.25
461.06	8781.69
461.27	8564.61
461.48	9232.24
461.69	9129.84
461.89	8662.91
462.10	8851.32
462.31	8814.46
462.52	8703.87
462.73	9006.97
462.94	9365.36
463.14	9293.68
463.35	9015.16
463.56	9545.58
463.77	9496.43
463.98	9127.80
464.18	9383.79
464.39	9531.25
464.60	9443.18
464.81	9541.49
465.02	9504.62
465.23	9838.44
465.43	9662.32
465.64	9875.31
465.85	9834.35
466.06	9750.38
466.27	10225.51
466.47	10078.05
466.68	10030.95
466.89	10039.14
467.10	9969.51
467.30	9934.70
467.51	10192.74
467.72	10524.51
467.93	10143.59
468.14	10465.12
468.34	10760.03
468.55	10678.11
468.76	10499.94
468.97	10420.06
469.17	10682.20
469.38	10760.03
469.59	10964.82
469.80	10833.75
470.01	10874.71
470.21	10784.60
470.42	11161.43
470.63	11071.32
470.84	10966.87
471.04	11364.18
471.25	11229.01
471.46	11329.36
471.67	11562.83
471.87	11454.29
472.08	11618.13
472.29	11730.76
472.50	11519.82
472.70	11718.48
472.91	12005.19
473.12	12068.68
473.33	12046.15
473.53	12349.25
473.74	12193.61
473.95	12316.48
474.16	12672.83
474.36	12437.31
474.57	12695.36
474.78	12748.61
474.99	12607.30
475.19	12640.06
475.40	12803.90
475.61	13111.10
475.81	13092.66
476.02	13418.29
476.23	13027.13
476.44	13377.33
476.64	13659.95
476.85	13528.88
477.06	13590.32
477.27	13764.40
477.47	13864.75
477.68	13840.17
477.89	14087.98
478.09	14112.55
478.30	14153.51
478.51	14237.48
478.71	14427.94
478.92	14532.39
479.13	14747.42
479.34	14913.31
479.54	14989.08
479.75	14878.49
479.96	14888.73
480.16	15120.15
480.37	15087.39
480.58	15116.06
480.78	15656.72
480.99	15320.85
481.20	15691.54
481.41	15628.05
481.61	15826.70
481.82	16070.41
482.03	15789.84
482.23	16031.50
482.44	16148.23
482.65	16594.69
482.85	16420.61
483.06	16178.95
483.27	16602.88
483.47	16443.14
483.68	16547.59
483.89	16885.50
484.09	16617.22
484.30	16889.60
484.51	17313.53
484.71	17215.23
484.92	17200.89
485.13	17540.85
485.33	17567.48
485.54	17379.06
485.75	17481.46
485.95	17770.22
486.16	17563.38
486.37	18030.32
486.57	17850.10
486.78	17839.86
486.98	18102.00
487.19	18218.73
487.40	18593.51
487.60	18364.14
487.81	18818.78
488.02	18378.47
488.22	18794.21
488.43	18716.39
488.64	18786.02
488.84	18878.18
489.05	19164.89
489.25	18927.33
489.46	19435.22
489.67	19379.93
489.87	19625.68
490.08	19320.54
490.29	19332.82
490.49	19660.50
490.70	19863.25
490.90	19906.26
491.11	19832.53
491.32	19832.53
491.52	20123.34
491.73	19988.18
491.94	20342.47
492.14	20149.96
492.35	20573.89
492.55	20532.93
492.76	20451.02
492.97	20616.90
493.17	20618.95
493.38	20874.95
493.58	20799.17
493.79	21122.75
494.00	21075.65
494.20	21300.92
494.41	20991.68
494.61	21298.88
494.82	21241.53
495.02	21268.16
495.23	21425.85
495.44	21335.74
495.64	21792.44
495.85	21728.95
496.05	21753.52
496.26	21767.86
496.47	22417.07
496.67	21866.16
496.88	22085.30
497.08	21751.48
497.29	22224.56
497.49	22128.30
497.70	22312.62
497.91	22419.11
498.11	22355.63
498.32	22787.75
498.52	22748.84
498.73	23070.37
498.93	22677.16
499.14	22773.41
499.34	22855.33
499.55	23115.42
499.76	22998.69
499.96	23066.27
500.17	22949.54
500.37	23299.74
500.58	23420.57
500.78	23164.57
500.99	23363.23
501.19	23727.77
501.40	23522.97
501.60	23367.32
501.81	23748.25
502.02	23920.28
502.22	23565.98
502.43	23813.78
502.63	24188.56
502.84	24008.34
503.04	24120.98
503.25	24196.75
503.45	24383.12
503.66	24440.46
503.86	24311.44
504.07	24497.80
504.27	24419.98
504.48	24790.66
504.68	24731.27
504.89	24952.45
505.09	24688.26
505.30	24733.32
505.50	24641.16
505.71	25083.52
505.91	24950.40
506.12	25167.49
506.32	25056.90
506.53	25161.34
506.73	25376.38
506.94	25323.13
507.14	25220.74
507.35	25173.63
507.55	25482.88
507.76	25804.41
507.96	25585.27
508.17	25638.52
508.37	25636.47
508.58	25876.09
508.78	25740.92
508.99	25917.04
509.19	25951.86
509.40	26361.45
509.60	26242.67
509.81	26332.78
510.01	26142.32
510.22	26142.32
510.42	26506.86
510.63	26443.37
510.83	26648.17
511.04	26639.98
511.24	26672.74
511.44	26760.81
511.65	26848.87
511.85	26566.25
512.06	26738.28
512.26	26949.22
512.47	26865.25
512.67	27090.53
512.88	27201.12
513.08	27104.87
513.29	27653.72
513.49	27618.91
513.69	27487.84
513.90	27264.61
514.10	27606.62
514.31	27690.59
514.51	27444.83
514.72	27608.67
514.92	27569.76
515.13	27999.83
515.33	28214.87
515.53	27864.66
515.74	28116.56
515.94	27817.56
516.15	28067.41
516.35	27999.83
516.56	28442.19
516.76	28364.37
516.96	28642.89
517.17	28671.56
517.37	28694.09
517.58	28724.81
517.78	28866.12
517.99	28411.47
518.19	29081.16
518.39	29374.02
518.60	29171.27
518.80	29388.35
519.01	29034.05
519.21	29515.33
519.41	29331.01
519.62	29365.82
519.82	29408.83
520.03	29642.30
520.23	29652.54
520.43	29656.64
520.64	29935.16
520.84	29851.19
521.05	29441.60
521.25	29969.97
521.45	29883.96
521.66	30049.85
521.86	30320.18
522.07	30031.41
522.27	30162.48
522.47	30426.67
522.68	30535.21
522.88	30590.51
523.08	31002.15
523.29	30797.35
523.49	30914.09
523.70	30750.25
523.90	31143.46
524.10	31071.78
524.31	31739.42
524.51	31200.80
524.71	31407.65
524.92	31600.16
525.12	31702.56
525.33	31798.81
525.53	31811.10
525.73	31741.47
525.94	32187.92
526.14	31870.49
526.34	31874.59
526.55	32257.56
526.75	32413.20
526.95	32724.49
527.16	32181.78
527.36	32204.31
527.56	32869.90
527.77	32775.69
527.97	32497.17
528.17	32822.80
528.38	32849.42
528.58	32830.99
528.78	33164.81
528.99	33048.07
529.19	32910.86
529.39	32919.05
529.60	33607.17
529.80	33756.67
530.00	33259.01
530.21	33711.61
530.41	33785.34
530.61	33666.56
530.82	34002.43
531.02	33803.77
531.22	34074.10
531.43	34338.29
531.63	33920.51
531.83	34362.87
532.04	34733.55
532.24	34233.85
532.44	34678.25
532.64	35016.17
532.85	34786.80
533.05	34731.50
533.25	34950.63
533.46	34870.76
533.66	35208.68
533.86	35012.07
534.07	35354.08
534.27	35304.93
534.47	35452.39
534.67	35573.22
534.88	35184.10
535.08	35655.14
535.28	35452.39
535.49	35753.44
535.69	36296.15
535.89	35997.15
536.09	35849.69
536.30	36636.11
536.50	36011.48
536.70	36296.15
536.91	36453.84
537.11	36367.83
537.31	36564.43
537.51	36562.39
537.72	36834.77
537.92	36974.03
538.12	37096.91
538.32	36744.66
538.53	36814.29
538.73	36859.34
538.93	36720.08
539.13	36912.59
539.34	36941.26
539.54	37014.99
539.74	37561.79
539.94	37258.70
540.15	37080.52
540.35	37780.93
540.55	37469.64
540.75	37402.05
540.96	37602.75
541.16	37393.86
541.36	37780.93
541.56	37909.95
541.77	37776.83
541.97	37426.63
542.17	38284.73
542.37	38096.31
542.58	38194.62
542.78	37768.64
542.98	38170.04
543.18	38331.83
543.38	38548.92
543.59	38383.03
543.79	38329.78
543.99	38417.85
544.19	38577.59
544.40	38546.87
544.60	38815.15
544.80	38712.75
545.00	38856.11
545.20	39187.88
545.41	38761.90
545.61	39275.94
545.81	39224.75
546.01	39122.35
546.21	39400.87
546.42	39239.08
546.62	39226.79
546.82	39157.16
547.02	39517.60
547.22	39556.52
547.43	39372.20
547.63	39400.87
547.83	40031.65
548.03	39493.03
548.23	39880.10
548.44	39835.04
548.64	39757.22
548.84	39683.49
549.04	39927.20
549.24	40492.44
549.45	40484.25
549.65	40068.51
549.85	40342.94
550.05	40539.54
550.25	40213.91
550.45	40652.18
550.66	40615.32
550.86	40002.97
551.06	40652.18
551.26	40459.67
551.46	40748.43
551.66	40586.64
551.87	40359.32
552.07	40920.46
552.27	40834.45
552.47	40801.68
552.67	41487.75
552.87	41051.53
553.07	40637.84
553.28	41364.87
553.48	41227.66
553.68	41112.97
553.88	41512.33
554.08	41665.92
554.28	41467.27
554.48	41280.91
554.69	41596.29
554.89	41547.14
555.09	41569.67
555.29	41293.19
555.49	41915.78
555.69	41596.29
555.89	41860.48
556.10	41946.50
556.30	41885.06
556.50	42188.16
556.70	42069.37
556.90	42237.31
557.10	42038.65
557.30	41545.09
557.50	42454.39
557.70	42276.22
557.91	42710.39
558.11	42294.65
558.31	42880.37
558.51	41975.17
558.71	42425.72
558.91	42696.05
559.11	42505.59
559.31	42323.32
559.51	42302.84
559.72	42440.06
559.92	42978.67
560.12	42968.43
560.32	43218.28
560.52	43199.85
560.72	43208.04
560.92	43171.18
561.12	43388.27
561.32	43537.77
561.52	43062.64
561.72	43386.22
561.93	43119.98
562.13	43275.63
562.33	43320.68
562.53	43861.35
562.73	43404.65
562.93	43562.34
563.13	43597.16
563.33	43650.41
563.53	44053.86
563.73	43758.95
563.93	44277.08
564.13	44060.00
564.33	43937.12
564.53	43902.31
564.74	44467.55
564.94	43984.22
565.14	44012.90
565.34	43994.46
565.54	44475.74
565.74	44666.20
565.94	44819.80
566.14	44389.72
566.34	44473.69
566.54	44871.00
566.74	44639.57
566.94	44631.38
567.14	44942.67
567.34	44701.01
567.54	45055.31
567.74	45182.29
567.94	44856.66
568.14	45053.26
568.34	45225.29
568.54	44907.86
568.74	45331.79
568.94	45307.21
569.14	45636.94
569.34	45456.71
569.54	45780.29
569.75	45278.54
569.95	45253.97
570.15	45868.36
570.35	45784.39
570.55	45466.95
570.75	45839.68
570.95	45317.45
571.15	46069.06
571.35	46007.62
571.55	45884.74
571.75	46036.29
571.95	46388.54
572.15	45884.74
572.35	46150.98
572.55	46056.77
572.75	46251.33
572.95	46171.46
573.15	46654.78
573.35	46312.77
573.55	46202.18
573.75	46208.32
573.95	46630.20
574.15	46327.10
574.35	46673.21
574.55	46673.21
574.75	46753.08
574.95	47033.65
575.15	46253.37
575.34	46722.36
575.54	46884.15
575.74	47160.62
575.94	46826.81
576.14	47101.23
576.34	47369.52
576.54	47097.14
576.74	46605.62
576.94	47332.65
577.14	47510.83
577.34	47582.51
577.54	47086.90
577.74	47416.62
577.94	47650.09
578.14	47555.88
578.34	47863.08
578.54	47172.91
578.74	47551.79
578.94	47627.56
579.14	47447.34
579.34	47392.04
579.54	48022.82
579.74	48309.53
579.94	47670.57
580.13	48469.28
580.33	48295.20
580.53	48203.04
580.73	48571.67
580.93	48209.18
581.13	48293.15
581.33	48649.50
581.53	48264.48
581.73	48563.48
581.93	48889.11
582.13	48772.38
582.33	48622.87
582.53	48583.96
582.73	48293.15
582.92	48600.35
583.12	48995.60
583.32	48794.90
583.52	48706.84
583.72	48764.18
583.92	48481.56
584.12	49118.48
584.32	49503.50
584.52	49374.48
584.72	49104.15
584.92	49261.84
585.11	49397.01
585.31	49138.96
585.51	49360.14
585.71	48839.96
585.91	49614.09
586.11	49255.70
586.31	49173.78
586.51	49397.01
586.71	48989.46
586.91	49595.66
587.10	49843.46
587.30	49599.76
587.50	49388.81
587.70	49784.07
587.90	49632.52
588.10	49878.28
588.30	49677.58
588.50	49896.71
588.69	49853.70
588.89	49509.64
589.09	49882.37
589.29	50263.30
589.49	49974.53
589.69	49534.22
589.89	50099.46
590.08	49997.06
590.28	49761.54
590.48	50189.57
590.68	50089.22
590.88	50222.34
591.08	50175.23
591.28	49618.19
591.47	50103.56
591.67	50345.22
591.87	50095.36
592.07	50535.68
592.27	50365.70
592.47	50189.57
592.67	49880.33
592.86	50308.35
593.06	50568.44
593.26	50521.34
593.46	50154.75
593.66	50531.58
593.86	50351.36
594.05	50502.91
594.25	50910.46
594.45	50177.28
594.65	50420.99
594.85	50289.92
595.05	50668.79
595.24	50867.45
595.44	50464.00
595.64	50570.49
595.84	50595.07
596.04	50283.78
596.23	50717.95
596.43	51016.95
596.63	50894.07
596.83	51057.91
597.03	50973.94
597.22	51512.56
597.42	50918.65
597.62	51524.85
597.82	51111.16
598.02	51238.13
598.21	51401.97
598.41	50707.71
598.61	51657.96
598.81	51174.64
599.01	51250.42
599.20	51299.57
599.40	50705.66
599.60	51774.70
599.80	51553.52
600.00	51492.08
600.19	51520.75
600.39	51567.85
600.59	51864.81
600.79	51774.70
600.98	51674.35
601.18	51690.73
601.38	52403.42
601.58	52045.03
601.78	51881.19
601.97	52020.45
602.17	52231.40
602.37	52008.17
602.57	52038.89
602.76	52139.24
602.96	51868.90
603.16	51893.48
603.36	52008.17
603.55	52999.38
603.75	51977.45
603.95	52876.51
604.15	52487.39
604.34	52251.87
604.54	52604.13
604.74	52954.33
604.94	52657.37
605.13	53015.77
605.33	52786.39
605.53	52688.09
605.73	52692.19
605.92	52634.84
606.12	52724.96
606.32	52831.45
606.52	52774.11
606.71	53013.72
606.91	52997.34
607.11	53116.12
607.30	53562.57
607.50	53519.57
607.70	53294.29
607.90	53263.57
608.09	53120.21
608.29	52792.54
608.49	53650.64
608.68	53263.57
608.88	53456.08
609.08	53114.07
609.28	53378.26
609.47	53277.91
609.67	53949.64
609.87	53546.19
610.06	53824.71
610.26	53779.66
610.46	53949.64
610.66	53787.85
610.85	54099.14
611.05	53443.79
611.25	54097.09
611.44	53689.55
611.64	53845.19
611.84	53806.28
612.03	53552.33
612.23	53982.41
612.43	54101.19
612.62	53929.16
612.82	54201.54
613.02	54166.73
613.21	54359.23
613.41	54301.89
613.61	53937.35
613.80	53929.16
614.00	53812.43
614.20	53906.63
614.39	54162.63
614.59	54736.06
614.79	54654.14
614.98	54121.67
615.18	54559.94
615.38	54326.47
615.57	54080.71
615.77	54617.28
615.97	54846.65
616.16	54568.13
616.36	54654.14
616.56	54631.61
616.75	54451.39
616.95	54387.91
617.15	54461.63
617.34	55159.99
617.54	54400.19
617.74	54899.90
617.93	54953.15
618.13	54291.65
618.32	54686.91
618.52	54578.37
618.72	54584.51
618.91	55317.68
619.11	54621.37
619.31	54805.69
619.50	54355.14
619.70	54666.43
619.90	54777.02
620.09	54885.56
620.29	54838.46
620.48	54973.63
620.68	55121.08
620.88	54498.50
621.07	54863.03
621.27	55030.97
621.46	54529.22
621.66	54916.28
621.86	55098.55
622.05	54979.77
622.25	55278.77
622.44	55041.21
622.64	54947.00
622.84	55485.62
623.03	55186.61
623.23	55375.03
623.42	54906.04
623.62	55405.75
623.82	55502.00
624.01	55319.73
624.21	55473.33
624.40	55246.00
624.60	55045.30
624.80	55076.02
624.99	55157.94
625.19	54842.56
625.38	55295.16
625.58	55663.79
625.77	55495.86
625.97	55499.95
626.17	55336.12
626.36	55415.99
626.56	55608.50
626.75	55164.09
626.95	56104.10
627.14	55409.84
627.34	55655.60
627.54	55633.07
627.73	55747.76
627.93	55844.01
628.12	55510.19
628.32	55702.70
628.51	55964.84
628.71	55719.09
628.90	55841.96
629.10	55684.27
629.30	55866.54
629.49	55942.31
629.69	55053.50
629.88	56130.73
630.08	56263.85
630.27	55784.62
630.47	56165.54
630.66	55819.44
630.86	55891.12
631.05	55458.99
631.25	56171.69
631.44	56075.43
631.64	55985.32
631.84	55663.79
632.03	56370.34
632.23	56263.85
632.42	56618.14
632.62	55829.68
632.81	56128.68
633.01	55956.65
633.20	56462.50
633.40	56708.25
633.59	56161.45
633.79	56079.53
633.98	56337.57
634.18	56839.32
634.37	56487.07
634.57	56358.05
634.76	56386.72
634.96	56448.16
635.15	56700.06
635.35	55999.66
635.54	56140.97
635.74	56665.25
635.93	56100.01
636.13	56294.56
636.32	56411.30
636.52	56364.20
636.71	56347.81
636.91	56655.01
637.10	56513.70
637.30	56210.60
637.49	56358.05
637.69	56413.35
637.88	56747.17
638.08	56421.54
638.27	56771.74
638.46	56378.53
638.66	56452.26
638.85	56693.92
639.05	56949.92
639.24	56790.17
639.44	56577.18
639.63	56818.84
639.83	56636.58
640.02	56693.92
640.22	56755.36
640.41	56816.80
640.61	56194.21
640.80	56599.71
640.99	56521.89
641.19	57160.86
641.38	56724.64
641.58	56642.72
641.77	56442.02
641.97	56276.13
642.16	56710.30
642.36	56747.17
642.55	57246.87
642.74	56659.10
642.94	57472.15
643.13	56960.15
643.33	56931.48
643.52	56954.01
643.72	56687.78
643.91	57162.90
644.10	57263.25
644.30	57336.98
644.49	56685.73
644.69	57476.24
644.88	57044.12
645.08	56951.96
645.27	56700.06
645.46	56784.03
645.66	57269.40
645.85	56956.06
646.05	57377.94
646.24	56888.48
646.43	56769.69
646.63	57300.12
646.82	57150.62
647.02	56927.39
647.21	57228.44
647.40	56870.04
647.60	57169.05
647.79	56845.47
647.99	56884.38
648.18	56761.50
648.37	57595.03
648.57	57068.70
648.76	56933.53
648.96	56614.05
649.15	57656.46
649.34	57418.90
649.54	57611.41
649.73	56530.08
649.92	57242.77
650.12	57418.90
650.31	57162.90
650.51	57015.45
650.70	57484.43
650.89	56575.14
651.09	57744.53
651.28	57132.18
651.47	57005.21
651.67	57578.64
651.86	57978.00
652.06	56896.67
652.25	57257.11
652.44	57416.85
652.64	56982.68
652.83	57728.14
653.02	57123.99
653.22	57582.74
653.41	57230.49
653.60	57013.40
653.80	57023.64
653.99	57414.80
654.18	57109.66
654.38	56839.32
654.57	56988.83
654.76	57386.13
654.96	56571.04
655.15	57216.15
655.34	57050.27
655.54	56675.49
655.73	57005.21
655.92	57076.89
656.12	57767.05
656.31	57066.65
656.50	56939.68
656.70	57220.25
656.89	56911.00
657.08	57025.69
657.28	57058.46
657.47	56820.89
657.66	57152.66
657.86	56366.24
658.05	56644.77
658.24	57083.03
658.43	57046.17
658.63	56949.92
658.82	57013.40
659.01	56974.49
659.21	56896.67
659.40	56751.26
659.59	56466.59
659.79	56702.11
659.98	57150.62
660.17	56773.79
660.36	56673.44
660.56	56968.35
660.75	56800.41
660.94	56997.02
661.14	56599.71
661.33	56677.54
661.52	56585.38
661.71	57347.22
661.91	56833.18
662.10	56452.26
662.29	57144.47
662.49	56568.99
662.68	56794.27
662.87	56980.63
663.06	57025.69
663.26	56702.11
663.45	56915.10
663.64	56548.51
663.83	56966.30
664.03	56921.24
664.22	56394.92
664.41	56267.94
664.60	56521.89
664.80	56597.66
664.99	56566.94
665.18	56474.79
665.37	56759.45
665.57	57128.09
665.76	55770.28
665.95	56243.37
666.14	56368.29
666.34	56171.69
666.53	56136.87
666.72	56343.72
666.91	56181.93
667.11	56247.46
667.30	56728.73
667.49	56347.81
667.68	56362.15
667.87	56450.21
668.07	56157.35
668.26	56306.85
668.45	56253.61
668.64	56061.10
668.84	56317.09
669.03	56112.30
669.22	56282.28
669.41	56323.24
669.60	55919.79
669.80	56159.40
669.99	56077.48
670.18	56235.17
670.37	56001.71
670.57	56517.79
670.76	56374.44
670.95	56616.10
671.14	56028.33
671.33	55831.72
671.53	56618.14
671.72	56632.48
671.91	55981.23
672.10	56075.43
672.29	55678.13
672.48	55837.87
672.68	56581.28
672.87	55391.41
673.06	55932.07
673.25	55755.95
673.44	55911.59
673.64	55633.07
673.83	55737.52
674.02	56188.07
674.21	55608.50
674.40	55991.47
674.59	55866.54
674.79	55786.67
674.98	55483.57
675.17	55706.80
675.36	56042.66
675.55	56278.18
675.74	55657.65
675.94	55903.40
676.13	56048.81
676.32	56308.90
676.51	56020.14
676.70	55604.40
676.89	55504.05
677.08	56165.54
677.28	55743.66
677.47	56181.93
677.66	55968.94
677.85	55534.77
678.04	56454.31
678.23	55751.85
678.42	56001.71
678.62	55719.09
678.81	56280.23
679.00	55731.37
679.19	56317.09
679.38	55739.57
679.57	55649.45
679.76	55923.88
679.96	56229.03
680.15	55868.59
680.34	55956.65
680.53	55809.20
680.72	55762.09
680.91	55989.42
681.10	55661.74
681.29	56247.46
681.48	55725.23
681.68	55952.55
681.87	55487.67
682.06	55727.28
682.25	55407.79
682.44	55549.10
682.63	56030.38
682.82	55645.36
683.01	55592.11
683.20	55180.47
683.39	55749.81
683.59	54994.10
683.78	55565.49
683.97	55248.05
684.16	55981.23
684.35	55033.02
684.54	55551.15
684.73	55551.15
684.92	55534.77
685.11	55323.83
685.30	55358.64
685.49	55872.68
685.69	55520.43
685.88	55641.26
686.07	55319.73
686.26	55520.43
686.45	55733.42
686.64	55604.40
686.83	55747.76
687.02	55874.73
687.21	55934.12
687.40	55086.26
687.59	55588.02
687.78	55409.84
687.97	55887.02
688.16	55395.51
688.35	55379.12
688.54	55350.45
688.74	55467.19
688.93	55379.12
689.12	55209.14
689.31	55483.57
689.50	55602.35
689.69	54867.13
689.88	55043.26
690.07	55801.00
690.26	55538.86
690.45	55518.38
690.64	55235.77
690.83	55669.93
691.02	54717.63
691.21	55145.65
691.40	55098.55
691.59	55458.99
691.78	55647.41
691.97	55473.33
692.16	55217.33
692.35	55700.65
692.54	55317.68
692.73	55751.85
692.92	55213.24
693.11	55366.84
693.30	55055.54
693.49	55278.77
693.68	55661.74
693.87	55616.69
694.06	55415.99
694.25	55180.47
694.44	54975.67
694.63	55372.98
694.82	55342.26
695.01	55329.97
695.20	55182.52
695.39	55063.74
695.58	55264.44
695.77	55008.44
695.96	54926.52
696.15	55164.09
696.34	55235.77
696.53	55004.34
696.72	54979.77
696.91	55049.40
697.10	54944.95
697.29	54795.45
697.48	55499.95
697.67	54981.82
697.86	54953.15
698.05	54793.40
698.24	55276.72
698.43	54080.71
698.62	55211.19
698.81	54648.00
699.00	55481.52
699.19	54701.25
699.38	55008.44
699.57	54521.02
699.76	55487.67
699.95	54615.23
700.14	54635.71
700.32	54731.96
700.51	54463.68
700.70	55162.04
700.89	54736.06
701.08	54502.59
701.27	54627.52
701.46	55047.35
701.65	54144.20
701.84	54967.48
702.03	54811.84
702.22	54256.84
702.41	54383.81
702.60	54281.41
702.79	54756.54
702.98	54588.61
703.17	54590.66
703.35	54482.11
703.54	54547.65
703.73	54580.42
703.92	54416.58
704.11	54914.23
704.30	54508.74
704.49	54502.59
704.68	54457.54
704.87	54494.40
705.06	54525.12
705.25	54531.26
705.43	54588.61
705.62	54680.77
705.81	54572.22
706.00	54396.10
706.19	54244.55
706.38	54602.94
706.57	54623.42
706.76	54158.53
706.95	54217.92
707.14	54281.41
707.32	54310.08
707.51	53734.60
707.70	54512.83
707.89	54254.79
708.08	54136.01
708.27	53939.40
708.46	54344.90
708.65	53765.32
708.84	54056.14
709.02	54129.86
709.21	54500.54
709.40	53664.97
709.59	54525.12
709.78	54217.92
709.97	54426.82
710.16	53748.94
710.34	53970.12
710.53	54058.18
710.72	53667.02
710.91	53873.87
711.10	54217.92
711.29	54176.97
711.48	53949.64
711.66	53578.96
711.85	53531.86
712.04	53540.05
712.23	53447.89
712.42	53707.98
712.61	53462.22
712.80	53310.67
712.98	53873.87
713.17	53638.35
713.36	53363.92
713.55	53585.10
713.74	53671.12
713.93	53578.96
714.11	53707.98
714.30	53091.54
714.49	53177.56
714.68	53576.91
714.87	53273.81
715.06	53423.31
715.24	53126.36
715.43	53032.15
715.62	52880.60
715.81	53224.66
716.00	53343.44
716.18	52802.78
716.37	52731.10
716.56	52550.88
716.75	53388.50
716.94	53157.08
717.12	52772.06
717.31	52671.71
717.50	52442.34
717.69	52974.81
717.88	52702.43
718.06	52638.94
718.25	52589.79
718.44	52497.63
718.63	52327.65
718.82	52065.51
719.00	52221.16
719.19	52272.35
719.38	52288.74
719.57	52075.75
719.76	51664.11
719.94	51752.17
720.13	51959.02
720.32	51688.68
720.51	51688.68
720.69	51961.06
720.88	51508.46
721.07	51733.74
721.26	51395.82
721.44	51379.44
721.63	51166.45
721.82	51516.65
722.01	51426.54
722.20	51459.31
722.38	50853.11
722.57	50711.80
722.76	50900.22
722.95	50793.72
723.13	50521.34
723.32	50543.87
723.51	50732.28
723.70	50857.21
723.88	50672.89
724.07	50466.05
724.26	50803.96
724.44	49921.29
724.63	50558.20
724.82	50173.19
725.01	50193.67
725.19	50445.57
725.38	50287.87
725.57	49917.19
725.76	50263.30
725.94	50017.54
726.13	50056.45
726.32	50058.50
726.51	49392.91
726.69	50504.96
726.88	50113.80
727.07	50107.65
727.25	50197.76
727.44	50093.32
727.63	49681.67
727.82	50064.64
728.00	49814.79
728.19	49503.50
728.38	49511.69
728.56	49253.65
728.75	50111.75
728.94	49722.63
729.12	49790.22
729.31	49558.80
729.50	49362.19
729.69	49902.85
729.87	49661.19
730.06	49360.14
730.25	49485.07
730.43	49632.52
730.62	49323.28
730.81	49691.91
730.99	49517.84
731.18	48880.92
731.37	49685.77
731.55	49681.67
731.74	49345.81
731.93	49280.27
732.11	49517.84
732.30	49427.73
732.49	49681.67
732.67	48911.64
732.86	48887.06
733.05	48979.22
733.23	48837.91
733.42	48979.22
733.61	48620.83
733.79	49292.56
733.98	48979.22
734.17	48510.24
734.35	48985.36
734.54	49165.59
734.73	49280.27
734.91	49061.14
735.10	48620.83
735.29	48911.64
735.47	48461.08
735.66	48815.38
735.84	48616.73
736.03	48903.45
736.22	48731.42
736.40	48291.10
736.59	48758.04
736.78	48739.61
736.96	48770.33
737.15	48168.22
737.33	48301.34
737.52	48516.38
737.71	48635.16
737.89	48534.81
738.08	48162.08
738.27	47922.47
738.45	48483.61
738.64	48008.48
738.82	48125.22
739.01	48053.54
739.20	47805.73
739.38	47971.62
739.57	48289.06
739.75	48395.55
739.94	47777.06
740.13	48063.78
740.31	47535.40
740.50	47904.04
740.68	48080.16
740.87	47666.47
741.06	47959.33
741.24	47809.83
741.43	47152.43
741.61	47617.32
741.80	47119.66
741.99	47476.01
742.17	47224.11
742.36	47424.81
742.54	46814.52
742.73	47019.31
742.91	47709.48
743.10	46826.81
743.29	47336.75
743.47	47422.76
743.66	47211.82
743.84	47324.46
744.03	46988.60
744.21	47013.17
744.40	47396.14
744.59	46710.07
744.77	46579.00
744.96	47183.15
745.14	46683.45
745.33	46603.58
745.51	46263.61
745.70	46660.92
745.88	46460.22
746.07	46222.65
746.26	46271.81
746.44	46253.37
746.63	46339.39
746.81	46458.17
747.00	46185.79
747.18	46255.42
747.37	46038.34
747.55	46415.16
747.74	46556.47
747.92	45780.29
748.11	46271.81
748.29	45929.80
748.48	45868.36
748.66	45868.36
748.85	45569.35
749.03	45991.23
749.22	45702.47
749.41	45993.28
749.59	45796.68
749.78	45440.33
749.96	45335.88
750.15	45600.07
750.33	45626.70
750.52	45413.71
750.70	45573.45
750.89	45002.07
751.07	45249.87
751.26	45069.65
751.44	44905.81
751.63	45094.22
751.81	45200.72
752.00	44975.44
752.18	45186.38
752.37	45213.01
752.55	44975.44
752.74	45090.13
752.92	44795.22
753.10	44512.60
753.29	44658.01
753.47	44582.23
753.66	45143.38
753.84	45049.17
754.03	44576.09
754.21	44297.56
754.40	44524.89
754.58	44483.93
754.77	44692.82
754.95	44248.41
755.14	44340.57
755.32	44352.86
755.51	44152.16
755.69	44053.86
755.88	44082.53
756.06	44322.14
756.24	43873.63
756.43	43955.55
756.61	43744.61
756.80	43761.00
756.98	43908.45
757.17	43646.31
757.35	44113.25
757.54	43799.91
757.72	44324.19
757.90	43842.92
758.09	43767.14
758.27	43773.28
758.46	43222.38
758.64	43664.74
758.83	43478.38
759.01	43619.69
759.19	43027.82
759.38	43509.10
759.56	43636.07
759.75	43308.40
759.93	43416.94
760.12	43132.27
760.30	43246.96
760.48	43249.00
760.67	43218.28
760.85	43582.82
761.04	43236.72
761.22	43255.15
761.40	43019.63
761.59	43242.86
761.77	42698.10
761.96	42950.00
762.14	42833.27
762.32	42634.61
762.51	42792.31
762.69	42745.20
762.88	42886.51
763.06	42802.55
763.24	42943.86
763.43	42812.79
763.61	42474.87
763.80	42300.79
763.98	42366.33
764.16	42259.84
764.35	42481.02
764.53	41954.69
764.72	42163.58
764.90	41835.91
765.08	42247.55
765.27	42108.29
765.45	42136.96
765.63	42046.85
765.82	42085.76
766.00	41502.09
766.18	42040.70
766.37	41954.69
766.55	41926.02
766.74	42202.49
766.92	41756.03
767.10	41694.60
767.29	41577.86
767.47	41672.07
767.65	41901.44
767.84	41280.91
768.02	41674.12
768.20	41409.93
768.39	41485.70
768.57	41571.72
768.75	41407.88
768.94	41033.10
769.12	41285.00
769.30	41303.43
769.49	41182.60
769.67	41358.73
769.85	40732.05
770.04	40826.26
770.22	40758.67
770.40	40719.76
770.59	40902.03
770.77	41055.63
770.95	41014.67
771.14	40533.40
771.32	40658.32
771.50	40390.04
771.69	40500.63
771.87	41026.96
772.05	40568.21
772.24	40404.38
772.42	40582.55
772.60	40687.00
772.78	40326.55
772.97	40697.24
773.15	40816.02
773.33	40422.81
773.52	40154.52
773.70	40492.44
773.88	40418.71
774.07	40330.65
774.25	40252.83
774.43	40263.07
774.61	40570.26
774.80	40408.47
774.98	40637.84
775.16	40324.50
775.34	40521.11
775.53	40373.66
775.71	40701.33
775.89	40498.58
776.08	40232.35
776.26	40682.90
776.44	40551.83
776.62	40576.40
776.81	40529.30
776.99	40691.09
777.17	40963.47
777.35	40474.01
777.54	41061.77
777.72	40709.52
777.90	40691.09
778.08	40514.97
778.27	40869.26
778.45	40822.16
778.63	41043.34
778.81	40637.84
779.00	41559.43
779.18	40840.59
779.36	41039.25
779.54	40981.90
779.73	41100.68
779.91	40902.03
780.09	41149.84
780.27	40891.79
780.46	41252.23
780.64	41237.90
780.82	41000.33
781.00	41123.21
781.19	41299.34
781.37	41727.36
781.55	41250.19
781.73	42034.56
781.91	41680.26
782.10	41745.80
782.28	41713.03
782.46	41809.28
782.64	41536.90
782.82	41416.07
783.01	41600.39
783.19	41756.03
783.37	41444.74
783.55	41397.64
783.74	41837.95
783.92	41637.25
784.10	42132.86
784.28	42026.37
784.46	41305.48
784.64	41452.94
784.83	41813.38
785.01	41895.30
785.19	41731.46
785.37	42220.92
785.55	41672.07
785.74	41117.07
785.92	41497.99
786.10	42233.21
786.28	41538.95
786.46	41682.31
786.64	41655.68
786.83	41821.57
787.01	41825.67
787.19	41936.26
787.37	41305.48
787.55	41706.88
787.74	41194.89
787.92	41602.44
788.10	41309.58
788.28	41035.15
788.46	41149.84
788.64	41500.04
788.82	41377.16
789.01	41035.15
789.19	41213.32
789.37	41129.36
789.55	41373.06
789.73	40687.00
789.91	40760.72
790.09	40629.65
790.28	40920.46
790.46	40719.76
790.64	40609.17
790.82	41049.49
791.00	40611.22
791.18	40416.66
791.36	40283.55
791.55	40684.95
791.73	40705.43
791.91	40142.24
792.09	40447.38
792.27	40199.58
792.45	40551.83
792.63	40359.32
792.81	40222.11
793.00	40379.80
793.18	40297.88
793.36	40189.34
793.54	39904.67
793.72	39476.65
793.90	39585.19
794.08	39538.08
794.26	40289.69
794.44	39349.67
794.62	39458.21
794.81	39495.08
794.99	39255.46
795.17	39585.19
795.35	39050.67
795.53	39591.33
795.71	39277.99
795.89	38591.92
796.07	38624.69
796.25	38464.95
796.43	38784.43
796.61	38575.54
796.80	38647.22
796.98	38266.30
797.16	38944.17
797.34	38600.12
797.52	38389.17
797.70	38311.35
797.88	38368.69
798.06	38014.40
798.24	38088.12
798.42	38120.89
798.60	37883.33
798.78	37541.32
798.96	37815.74
799.14	37627.33
799.32	38036.92
799.51	37461.44
799.69	37791.17
799.87	37625.28
800.05	37148.11
800.23	37428.68
800.41	37092.81
800.59	37381.57
800.77	36859.34
800.95	36779.47
801.13	37010.89
801.31	36173.27
801.49	36955.60
801.67	36574.67
801.85	36640.21
802.03	36439.51
802.21	36247.00
802.39	36361.69
802.57	36410.84
802.75	36294.10
802.93	36304.34
803.11	35976.67
803.29	35945.95
803.47	36062.68
803.65	35986.91
803.83	36054.49
804.01	35730.91
804.19	35634.66
804.37	35503.59
804.55	35706.34
804.73	35720.67
804.91	35831.26
805.09	35380.71
805.27	34835.95
805.45	35139.05
805.63	34999.79
805.81	35116.52
805.99	34967.02
806.17	35116.52
806.35	35253.73
806.53	34649.58
806.71	35003.88
806.89	35163.62
807.07	34385.40
807.25	34891.24
807.43	34452.98
807.61	34872.81
807.79	34657.78
807.97	34344.44
808.15	34143.74
808.33	34119.16
808.51	34100.73
808.69	33979.90
808.87	34055.67
809.05	34000.38
809.23	34008.57
809.41	33385.99
809.59	34158.07
809.77	34053.62
809.95	33687.04
810.13	33951.23
810.31	33615.36
810.49	33670.65
810.67	33455.62
810.84	33256.96
811.02	32931.34
811.20	33496.58
811.38	33541.63
811.56	32867.85
811.74	33320.45
811.92	32878.09
812.10	33216.01
812.28	33017.35
812.46	32878.09
812.64	32888.33
812.82	32935.43
813.00	32949.77
813.18	32855.56
813.36	32263.70
813.53	32343.57
813.71	32384.53
813.89	32550.42
814.07	32245.27
814.25	32407.06
814.43	32159.25
814.61	32306.71
814.79	32054.81
814.97	31700.51
815.15	32316.95
815.33	31634.97
815.50	31669.79
815.68	31933.98
815.86	31776.28
816.04	31725.08
816.22	31436.32
816.40	32013.85
816.58	31368.74
816.76	31299.11
816.94	31532.57
817.11	31438.37
817.29	31340.07
817.47	31071.78
817.65	30924.33
817.83	31436.32
818.01	31393.31
818.19	30895.66
818.37	31120.93
818.54	30408.24
818.72	30633.52
818.90	31127.08
819.08	30965.29
819.26	30975.53
819.44	30488.11
819.62	30563.89
819.80	30660.14
819.97	30932.52
820.15	30660.14
820.33	30236.21
820.51	30373.42
820.69	30154.29
820.87	30514.73
821.05	30492.21
821.22	30297.65
821.40	29986.36
821.58	29900.34
821.76	29998.65
821.94	30234.16
822.12	29818.42
822.29	30428.72
822.47	29816.38
822.65	29705.79
822.83	30107.19
823.01	29949.50
823.19	29554.24
823.36	29427.26
823.54	29451.84
823.72	29070.92
823.90	29767.23
824.08	29152.84
824.25	29505.09
824.43	29267.52
824.61	29464.13
824.79	29374.02
824.97	29019.72
825.15	29087.30
825.32	29122.12
825.50	28816.97
825.68	29171.27
825.86	29099.59
826.04	29152.84
826.21	28634.70
826.39	28905.03
826.57	28753.48
826.75	28378.70
826.93	28427.85
827.10	28436.05
827.28	28595.79
827.46	28808.78
827.64	28534.35
827.81	28472.91
827.99	28210.77
828.17	28417.61
828.35	28180.05
828.53	28141.14
828.70	28104.28
828.88	28337.74
829.06	28431.95
829.24	28337.74
829.41	27754.07
829.59	28372.56
829.77	27895.38
829.95	27954.77
830.12	27833.94
830.30	28329.55
830.48	28223.06
830.66	27762.26
830.84	28010.07
831.01	27512.41
831.19	27774.55
831.37	27623.00
831.55	27274.85
831.72	27422.30
831.90	27676.25
832.08	27575.90
832.25	27078.24
832.43	27397.73
832.61	27129.44
832.79	27459.16
832.96	27199.07
833.14	27287.14
833.32	27608.67
833.50	27100.77
833.67	27342.43
833.85	27182.69
834.03	26734.18
834.20	27266.66
834.38	26627.69
834.56	26709.61
834.74	26715.75
834.91	26936.93
835.09	26603.11
835.27	26711.66
835.44	26566.25
835.62	26320.49
835.80	26715.75
835.98	26627.69
836.15	26549.87
836.33	26195.57
836.51	26742.38
836.68	26140.27
836.86	26261.10
837.04	26394.22
837.21	26048.11
837.39	26113.65
837.57	26449.52
837.75	26496.62
837.92	25667.19
838.10	25976.44
838.28	25620.09
838.45	26115.70
838.63	25517.69
838.81	25845.37
838.98	25910.90
839.16	25624.18
839.34	25783.93
839.51	25955.96
839.69	25495.16
839.87	25306.75
840.04	25618.04
840.22	25919.09
840.40	25321.09
840.57	25374.33
840.75	25327.23
840.93	25108.10
841.10	25312.89
841.28	25427.58
841.46	25296.51
841.63	25493.12
841.81	25259.65
841.98	25271.93
842.16	25405.05
842.34	25435.77
842.51	24995.46
842.69	25118.34
842.87	25007.75
843.04	25138.82
843.22	24862.34
843.40	24911.49
843.57	25063.04
843.75	25099.90
843.92	24630.92
844.10	24848.00
844.28	24757.89
844.45	24725.13
844.63	24872.58
844.81	24559.24
844.98	24428.17
845.16	24542.86
845.33	24630.92
845.51	24422.03
845.69	24317.58
845.86	24364.68
846.04	24082.06
846.21	24067.73
846.39	24368.78
846.57	24131.22
846.74	23963.28
846.92	23948.95
847.09	24043.15
847.27	23846.55
847.45	24028.82
847.62	24182.42
847.80	24161.94
847.97	24055.44
848.15	23799.44
848.32	23527.06
848.50	23922.32
848.68	23402.14
848.85	23680.66
849.03	23322.27
849.20	23707.29
849.38	23559.83
849.56	23891.60
849.73	23439.00
849.91	23606.94
850.08	23746.20
850.26	23326.36
850.43	23396.00
850.61	23357.08
850.78	22978.21
850.96	23488.15
851.14	23436.95
851.31	23563.93
851.49	23041.70
851.66	23301.79
851.84	23242.40
852.01	23000.74
852.19	23094.94
852.36	23162.53
852.54	23191.20
852.71	23150.24
852.89	22777.51
853.07	22714.02
853.24	22775.46
853.42	22953.63
853.59	22466.22
853.77	22683.30
853.94	22863.52
854.12	22890.15
854.29	22437.55
854.47	22421.16
854.64	22275.76
854.82	22345.39
854.99	22560.42
855.17	22658.73
855.34	22337.20
855.52	22324.91
855.69	22476.46
855.87	22224.56
856.04	22212.27
856.22	22140.59
856.39	22068.91
856.57	22245.04
856.74	22064.82
856.92	22365.87
857.09	21962.42
857.27	22011.57
857.44	22097.58
857.62	22148.78
857.79	22224.56
857.97	22189.74
858.14	22040.24
858.32	21802.68
858.49	22056.62
858.67	22054.58
858.84	21855.92
859.02	21583.54
859.19	21788.34
859.37	21401.27
859.54	21528.25
859.72	21679.80
859.89	21743.28
860.06	21911.22
860.24	21384.89
860.41	21503.67
860.59	21247.68
860.76	21229.24
860.94	20911.81
861.11	21194.43
861.29	21276.35
861.46	21245.63
861.64	21204.67
861.81	21061.31
861.98	21010.11
862.16	20903.62
862.33	20678.34
862.51	21149.37
862.68	21227.20
862.86	20999.87
863.03	21200.57
863.21	21057.21
863.38	20727.49
863.55	20631.24
863.73	20895.43
863.90	20815.55
864.08	20860.61
864.25	20799.17
864.43	20809.41
864.60	20758.21
864.77	20410.06
864.95	20756.16
865.12	20498.12
865.30	20389.58
865.47	20278.99
865.64	20526.79
865.82	20575.94
865.99	20537.03
866.17	20330.19
866.34	20598.47
866.51	20250.32
866.69	20188.88
866.86	20342.47
867.04	20104.91
867.21	20084.43
867.38	19842.77
867.56	20158.16
867.73	20143.82
867.91	19975.89
868.08	20203.21
868.25	20152.01
868.43	20045.52
868.60	19943.12
868.78	19863.25
868.95	20057.81
869.12	19783.38
869.30	19531.48
869.47	19939.02
869.64	19656.40
869.82	19695.32
869.99	19836.63
870.16	19646.16
870.34	19230.43
870.51	19650.26
870.69	19134.17
870.86	19723.99
871.03	19556.05
871.21	19211.99
871.38	19592.92
871.55	19085.02
871.73	19128.03
871.90	19101.40
872.07	19007.20
872.25	18976.48
872.42	18933.47
872.59	18992.86
872.77	19009.25
872.94	18689.76
873.11	18816.74
873.29	19085.02
873.46	18702.05
873.63	18757.35
873.81	18857.70
873.98	18618.08
874.15	18693.86
874.33	18499.30
874.50	18677.48
874.67	18454.25
874.85	18646.76
875.02	18736.87
875.19	18695.91
875.37	18581.22
875.54	18691.81
875.71	18366.18
875.88	18224.87
876.06	18212.59
876.23	18298.60
876.40	18118.38
876.58	17929.97
876.75	18065.13
876.92	17956.59
877.10	18183.91
877.27	18206.44
877.44	17747.70
877.61	17678.07
877.79	17929.97
877.96	17864.43
878.13	17757.94
878.31	17864.43
878.48	17587.96
878.65	17751.79
878.82	17639.15
879.00	17678.07
879.17	17651.44
879.34	17794.80
879.51	17723.12
879.69	17454.84
879.86	17346.30
880.03	17032.96
880.21	17415.93
880.38	17270.52
880.55	17520.37
880.72	17440.50
880.90	17532.66
881.07	16983.80
881.24	17362.68
881.41	17282.81
881.59	17331.96
881.76	17247.99
881.93	17254.14
882.10	16934.65
882.28	16905.98
882.45	17211.13
882.62	16932.61
882.79	17082.11
882.96	16756.48
883.14	17006.33
883.31	16844.54
883.48	17039.10
883.65	17094.40
883.83	16901.89
884.00	16860.93
884.17	16709.38
884.34	16899.84
884.51	16819.97
884.69	16807.68
884.86	16774.91
885.03	16742.14
885.20	16738.05
885.38	16713.47
885.55	16793.34
885.72	16480.00
885.89	16549.64
886.06	16488.20
886.24	16733.95
886.41	16574.21
886.58	16797.44
886.75	16715.52
886.92	16527.11
887.10	16518.92
887.27	16297.74
887.44	16420.61
887.61	16459.52
887.78	16297.74
887.95	16160.52
888.13	16215.82
888.30	16289.54
888.47	16181.00
888.64	16383.75
888.81	16027.40
888.99	16160.52
889.16	15937.29
889.33	15888.14
889.50	15867.66
889.67	16033.55
889.84	15869.71
890.01	16129.80
890.19	16066.31
890.36	15908.62
890.53	15863.57
890.70	15724.30
890.87	15810.32
891.04	15853.33
891.22	15841.04
891.39	15943.44
891.56	15687.44
891.73	15679.25
891.90	15544.08
892.07	15550.23
892.24	15683.34
892.42	15546.13
892.59	15574.80
892.76	15654.67
892.93	15707.92
893.10	15808.27
893.27	15701.78
893.44	15357.72
893.61	15472.40
893.79	15666.96
893.96	15200.02
894.13	15558.42
894.30	15632.15
894.47	15359.77
894.64	15496.98
894.81	15427.35
894.98	15320.85
895.15	15720.21
895.33	15435.54
895.50	15114.01
895.67	15341.33
895.84	15327.00
896.01	15331.09
896.18	15322.90
896.35	15419.16
896.52	15492.88
896.69	15505.17
896.86	15302.42
897.04	15234.84
897.21	15357.72
897.38	15206.17
897.55	15279.89
897.72	15380.25
897.89	15329.05
898.06	15318.81
898.23	15077.15
898.40	15288.09
898.57	15228.70
898.74	15312.66
898.91	15298.33
899.08	15509.27
899.26	15470.36
899.43	15363.86
899.60	14987.04
899.77	15339.29
899.94	15265.56
900.11	15066.91
900.28	15421.20
900.45	15077.15
900.62	15257.37
900.79	15224.60
900.96	15335.19
901.13	15238.94
901.30	15093.53
901.47	15062.81
901.64	15132.44
901.81	15378.20
901.98	15144.73
902.15	15154.97
902.32	14997.28
902.49	15380.25
902.66	15269.66
902.83	14962.46
903.01	15202.07
903.18	15281.94
903.35	15177.50
903.52	15009.56
903.69	15292.18
903.86	15171.35
904.03	15245.08
904.20	15531.80
904.37	15384.34
904.54	15114.01
904.71	15175.45
904.88	15263.51
905.05	15019.80
905.22	15142.68
905.39	15283.99
905.56	15103.77
905.73	15142.68
905.90	14950.17
906.07	15230.74
906.24	15159.06
906.41	15009.56
906.58	15277.85
906.75	14987.04
906.92	15048.47
907.09	14845.73
907.26	15118.11
907.43	14731.04
907.60	15038.23
907.77	15351.57
907.93	14937.88
908.10	15343.38
908.27	15339.29
908.44	14989.08
908.61	14950.17
908.78	14884.64
908.95	15370.01
909.12	15247.13
909.29	15060.76
909.46	14847.77
909.63	15116.06
909.80	15220.50
909.97	15392.53
910.14	14954.27
910.31	15277.85
910.48	15056.67
910.65	14886.68
910.82	14759.71
910.99	14925.60
911.16	15146.78
911.33	14835.49
911.50	14716.70
911.66	14976.80
911.83	14872.35
912.00	14712.61
912.17	14728.99
912.34	14841.63
912.51	14616.35
912.68	14825.25
912.85	14984.99
913.02	14778.14
913.19	14622.50
913.36	14565.15
913.53	14808.86
913.70	14487.33
913.86	14874.40
914.03	14718.75
914.20	14700.32
914.37	14763.81
914.54	14384.93
914.71	14645.02
914.88	14530.34
915.05	14407.46
915.22	14372.64
915.39	14444.32
915.55	14315.30
915.72	14151.46
915.89	14171.94
916.06	14284.58
916.23	14362.40
916.40	14282.53
916.57	14157.61
916.74	14282.53
916.91	14135.08
917.07	14008.11
917.24	14016.30
917.41	13905.71
917.58	14008.11
917.75	13956.91
917.92	14028.59
918.09	14042.92
918.26	13846.32
918.42	13940.52
918.59	13807.41
918.76	13711.15
918.93	13645.62
919.10	13530.93
919.27	13520.69
919.44	13608.75
919.60	13770.54
919.77	13684.53
919.94	13324.08
920.11	13565.74
920.28	13479.73
920.45	13272.89
920.61	13350.71
920.78	13389.62
920.95	13141.82
921.12	13279.03
921.29	13281.08
921.46	13188.92
921.62	12779.32
921.79	13018.94
921.96	12855.10
922.13	12773.18
922.30	12830.52
922.47	12951.35
922.63	12615.49
922.80	12691.26
922.97	12795.71
923.14	12377.92
923.31	12859.20
923.47	12656.45
923.64	12977.98
923.81	12496.71
923.98	12605.25
924.15	12390.21
924.32	12439.36
924.48	12492.61
924.65	12490.56
924.82	12330.82
924.99	12216.13
925.15	12144.45
925.32	12422.98
925.49	11937.61
925.66	11933.51
925.83	12095.30
925.99	12046.15
926.16	11900.75
926.33	11956.04
926.50	11908.94
926.67	12083.02
926.83	11917.13
927.00	12060.49
927.17	11562.83
927.34	11464.53
927.50	11435.86
927.67	11732.81
927.84	11695.95
928.01	11595.60
928.17	11462.48
928.34	11323.22
928.51	11175.77
928.68	11261.78
928.84	11181.91
929.01	11149.14
929.18	11083.61
929.35	10960.73
929.51	10905.43
929.68	10872.67
929.85	11102.04
930.02	10921.82
930.18	10936.15
930.35	10637.15
930.52	10782.56
930.69	10590.05
930.85	10821.47
931.02	10657.63
931.19	10499.94
931.36	10395.49
931.52	10483.55
931.69	10483.55
931.86	10555.23
932.02	10415.97
932.19	10266.47
932.36	10350.43
932.53	10202.98
932.69	10110.82
932.86	10180.45
933.03	10225.51
933.19	9820.01
933.36	9992.04
933.53	9953.13
933.70	9949.03
933.86	9799.53
934.03	9875.31
934.20	9641.84
934.36	9946.98
934.53	9545.58
934.70	9357.17
934.86	9584.49
935.03	9228.15
935.20	9432.94
935.36	9420.66
935.53	9115.51
935.70	9154.42
935.86	9308.02
936.03	8972.15
936.20	8910.71
936.36	8732.54
936.53	9015.16
936.70	8857.46
936.86	8742.78
937.03	8828.79
937.20	8433.54
937.36	8437.63
937.53	8312.71
937.70	8195.97
937.86	8060.80
938.03	8005.51
938.20	8112.00
938.36	7878.54
938.53	7901.06
938.70	7690.12
938.86	7487.37
939.03	7632.78
939.20	7597.96
939.36	7417.74
939.53	7509.90
939.70	7532.43
939.86	7143.32
940.03	7006.10
940.19	6959.00
940.36	6846.36
940.53	6981.53
940.69	6903.70
940.86	6647.71
941.03	6764.44
941.19	6684.57
941.36	6475.68
941.52	6641.56
941.69	6397.85
941.86	6512.54
942.02	6330.27
942.19	6291.36
942.35	6334.37
942.52	6010.79
942.69	6086.56
942.85	6098.85
943.02	5975.97
943.18	6043.56
943.35	5937.06
943.52	5863.33
943.68	5881.77
943.85	5797.80
944.01	5937.06
944.18	5824.42
944.35	5765.03
944.51	5750.70
944.68	5466.03
944.84	5631.91
945.01	5717.93
945.17	5550.00
945.34	5564.33
945.51	5754.79
945.67	5463.98
945.84	5488.56
946.00	5388.21
946.17	5525.42
946.33	5478.32
946.50	5611.43
946.67	5500.84
946.83	5466.03
947.00	5400.49
947.16	5451.69
947.33	5441.45
947.49	5369.77
947.66	5466.03
947.82	5552.04
947.99	5423.02
948.16	5398.45
948.32	5277.62
948.49	5414.83
948.65	5441.45
948.82	5423.02
948.98	5423.02
949.15	5377.97
949.31	5369.77
949.48	5455.79
949.64	5461.93
949.81	5527.47
949.97	5474.22
950.14	5328.81
950.30	5420.97
950.47	5619.63
950.63	5353.39
950.80	5545.90
950.96	5384.11
951.13	5588.91
951.30	5574.57
951.46	5506.99
951.63	5560.24
951.79	5558.19
951.96	5552.04
952.12	5531.56
952.29	5572.52
952.45	5455.79
952.62	5461.93
952.78	5564.33
952.94	5539.76
953.11	5500.84
953.27	5461.93
953.44	5570.48
953.60	5609.39
953.77	5633.96
953.93	5617.58
954.10	5588.91
954.26	5619.63
954.43	5388.21
954.59	5640.11
954.76	5683.11
954.92	5504.94
955.09	5617.58
955.25	5636.01
955.42	5627.82
955.58	5805.99
955.75	5636.01
955.91	5656.49
956.07	5672.87
956.24	5697.45
956.40	5570.48
956.57	5611.43
956.73	5623.72
956.90	5676.97
957.06	5519.28
957.23	5533.61
957.39	5601.19
957.56	5611.43
957.72	5547.95
957.88	5480.36
958.05	5613.48
958.21	5765.03
958.38	5652.39
958.54	5547.95
958.71	5752.74
958.87	5531.56
959.03	5615.53
959.20	5648.30
959.36	5670.83
959.53	5545.90
959.69	5636.01
959.85	5568.43
960.02	5539.76
960.18	5556.14
960.35	5595.05
960.51	5742.50
960.68	5570.48
960.84	5554.09
961.00	5539.76
961.17	5660.59
961.33	5631.91
961.50	5697.45
961.66	5580.71
961.82	5615.53
961.99	5619.63
962.15	5554.09
962.31	5468.08
962.48	5500.84
962.64	5697.45
962.81	5658.54
962.97	5545.90
963.13	5523.37
963.30	5547.95
963.46	5506.99
963.62	5566.38
963.79	5603.24
963.95	5599.15
964.12	5480.36
964.28	5494.70
964.44	5558.19
964.61	5435.31
964.77	5525.42
964.93	5541.80
965.10	5597.10
965.26	5406.64
965.42	5427.12
965.59	5425.07
965.75	5586.86
965.92	5437.36
966.08	5455.79
966.24	5392.30
966.41	5490.60
966.57	5328.81
966.73	5367.73
966.90	5488.56
967.06	5478.32
967.22	5529.52
967.39	5277.62
967.55	5222.32
967.71	5330.86
967.88	5289.90
968.04	5394.35
968.20	5216.18
968.37	5269.42
968.53	5281.71
968.69	5416.88
968.85	5351.34
969.02	5332.91
969.18	5312.43
969.34	5197.74
969.51	5394.35
969.67	5197.74
969.83	5189.55
970.00	5453.74
970.16	5195.70
970.32	5216.18
970.48	5216.18
970.65	5289.90
970.81	5162.93
970.97	5230.51
971.14	5072.82
971.30	5154.74
971.46	5095.35
971.63	5287.86
971.79	5201.84
971.95	4997.04
972.11	4890.55
972.28	5128.11
972.44	5146.55
972.60	5097.39
972.76	5105.59
972.93	5050.29
973.09	5007.28
973.25	5107.63
973.42	4943.80
973.58	5142.45
973.74	5134.26
973.90	5025.72
974.07	4927.41
974.23	4923.32
974.39	4935.60
974.55	5056.43
974.72	5009.33
974.88	4818.87
975.04	4898.74
975.20	4849.59
975.37	4890.55
975.53	4857.78
975.69	4964.28
975.85	4919.22
976.01	4863.93
976.18	4765.62
976.34	4843.45
976.50	4941.75
976.66	4962.23
976.83	4759.48
976.99	4884.41
977.15	4798.39
977.31	4644.79
977.47	4831.16
977.64	4736.95
977.80	4671.42
977.96	4618.17
978.12	4677.56
978.29	4765.62
978.45	4655.03
978.61	4589.50
978.77	4657.08
978.93	4575.16
979.10	4612.03
979.26	4718.52
979.42	4614.07
979.58	4505.53
979.74	4622.27
979.91	4546.49
980.07	4466.62
980.23	4517.82
980.39	4456.38
980.55	4628.41
980.71	4472.76
980.88	4386.75
981.04	4401.08
981.20	4478.91
981.36	4390.84
981.52	4470.72
981.68	4370.37
981.85	4429.76
982.01	4489.15
982.17	4593.59
982.33	4351.93
982.49	4591.55
982.65	4337.60
982.82	4376.51
982.98	4284.35
983.14	4380.61
983.30	4364.22
983.46	4306.88
983.62	4421.56
983.79	4337.60
983.95	4247.49
984.11	4231.10
984.27	4227.01
984.43	4198.34
984.59	4237.25
984.75	4253.63
984.91	4263.87
985.08	4243.39
985.24	4145.09
985.40	4122.56
985.56	4085.70
985.72	4235.20
985.88	4165.57
986.04	4032.45
986.20	4153.28
986.37	4140.99
986.53	4067.27
986.69	4108.23
986.85	4104.13
987.01	4155.33
987.17	4067.27
987.33	4136.90
987.49	3960.77
987.65	3987.40
987.82	4075.46
987.98	4050.88
988.14	3954.63
988.30	4052.93
988.46	3977.16
988.62	3946.44
988.78	3985.35
988.94	3985.35
989.10	3917.76
989.26	3803.08
989.42	3940.29
989.59	3860.42
989.75	3747.78
989.91	3966.92
990.07	3790.79
990.23	3780.55
990.39	3723.21
990.55	3823.56
990.71	3710.92
990.87	3821.51
991.03	3905.48
991.19	3708.87
991.35	3737.54
991.51	3753.93
991.67	3862.47
991.83	3653.58
992.00	3805.13
992.16	3917.76
992.32	3723.21
992.48	3782.60
992.64	3633.10
992.80	3708.87
992.96	3620.81
993.12	3776.45
993.28	3819.46
993.44	3553.23
993.60	3653.58
993.76	3612.62
993.92	3702.73
994.08	3721.16
994.24	3682.25
994.40	3657.67
994.56	3723.21
994.72	3616.71
994.88	3469.26
995.04	3565.51
995.20	3561.42
995.36	3641.29
995.52	3553.23
995.68	3600.33
995.84	3485.64
996.00	3600.33
996.16	3436.49
996.32	3395.53
996.48	3370.96
996.64	3579.85
996.80	3461.07
996.96	3557.32
997.12	3459.02
997.28	3411.92
997.44	3506.12
997.60	3436.49
997.76	3360.72
997.92	3469.26
998.08	3391.44
998.24	3266.51
998.40	3426.25
998.56	3467.21
998.72	3370.96
998.88	3268.56
999.04	3250.13
999.20	3465.16
999.36	3260.37
999.52	3362.76
999.68	3295.18
999.84	3338.19
1000.00	3350.48
1000.16	3264.46
1000.32	3262.41
1000.48	3286.99
1000.64	3233.74
1000.80	3209.17
1000.95	3084.24
1001.11	3297.23
1001.27	3080.14
1001.43	3342.28
1001.59	3114.96
1001.75	3123.15
1001.91	3241.93
1002.07	3084.24
1002.23	3133.39
1002.39	3211.22
1002.55	3088.34
1002.71	3180.50
1002.87	3121.10
1003.03	3026.90
1003.19	3112.91
1003.34	3174.35
1003.50	3166.16
1003.66	3194.83
1003.82	2990.03
1003.98	3051.47
1004.14	3172.30
1004.30	3039.19
1004.46	2998.23
1004.62	2914.26
1004.78	3020.75
1004.94	3096.53
1005.09	3157.97
1005.25	3043.28
1005.41	2990.03
1005.57	3045.33
1005.73	2910.16
1005.89	2947.03
1006.05	2983.89
1006.21	2969.55
1006.37	2944.98
1006.52	2965.46
1006.68	2944.98
1006.84	3028.95
1007.00	2797.53
1007.16	3041.23
1007.32	2971.60
1007.48	2830.29
1007.64	2908.12
1007.79	2764.76
1007.95	2842.58
1008.11	2953.17
1008.27	2832.34
1008.43	2842.58
1008.59	2754.52
1008.75	2785.24
1008.91	2897.88
1009.06	2803.67
1009.22	2820.05
1009.38	2775.00
1009.54	2664.41
1009.70	2779.09
1009.86	2805.72
1010.01	2754.52
1010.17	2705.37
1010.33	2813.91
1010.49	2625.50
1010.65	2893.78
1010.81	2543.58
1010.96	2758.61
1011.12	2762.71
1011.28	2752.47
1011.44	2854.87
1011.60	2660.31
1011.76	2695.13
1011.91	2766.81
1012.07	2611.16
1012.23	2705.37
1012.39	2621.40
1012.55	2731.99
1012.71	2645.98
1012.86	2631.64
1013.02	2615.26
1013.18	2691.03
1013.34	2662.36
1013.50	2686.94
1013.65	2627.54
1013.81	2473.95
1013.97	2582.49
1014.13	2592.73
1014.29	2578.39
1014.44	2656.22
1014.60	2576.34
1014.76	2551.77
1014.92	2547.67
1015.07	2641.88
1015.23	2562.01
1015.39	2545.63
1015.55	2576.34
1015.71	2514.91
1015.86	2490.33
1016.02	2543.58
1016.18	2404.32
1016.34	2494.43
1016.49	2594.78
1016.65	2465.75
1016.81	2512.86
1016.97	2469.85
1017.12	2430.94
1017.28	2492.38
1017.44	2404.32
1017.60	2379.74
1017.75	2490.33
1017.91	2451.42
1018.07	2475.99
1018.23	2398.17
1018.38	2371.55
1018.54	2447.32
1018.70	2377.69
1018.86	2461.66
1019.01	2377.69
1019.17	2424.80
1019.33	2502.62
1019.49	2490.33
1019.64	2400.22
1019.80	2418.65
1019.96	2418.65
1020.12	2447.32
1020.27	2318.30
1020.43	2344.92
1020.59	2387.93
1020.74	2387.93
1020.90	2361.31
1021.06	2328.54
1021.22	2306.01
1021.37	2297.82
1021.53	2308.06
1021.69	2326.49
1021.84	2213.85
1022.00	2306.01
1022.16	2197.47
1022.31	2379.74
1022.47	2351.07
1022.63	2355.16
1022.79	2201.57
1022.94	2213.85
1023.10	2346.97
1023.26	2228.19
1023.41	2203.61
1023.57	2217.95
1023.73	2344.92
1023.88	2263.01
1024.04	2121.70
1024.20	2232.29
1024.35	2248.67
1024.51	2303.96
1024.67	2211.81
1024.82	2408.41
1024.98	2115.55
1025.14	2220.00
1025.29	2273.25
1025.45	2203.61
1025.61	2195.42
1025.76	2121.70
1025.92	2158.56
1026.08	2246.62
1026.23	2224.09
1026.39	2176.99
1026.55	2205.66
1026.70	2146.27
1026.86	2166.75
1027.02	2176.99
1027.17	2187.23
1027.33	2234.33
1027.48	2129.89
1027.64	2103.26
1027.80	2154.46
1027.95	2172.89
1028.11	2074.59
1028.27	2179.04
1028.42	2265.05
1028.58	2035.68
1028.73	2158.56
1028.89	2031.58
1029.05	2201.57
1029.20	2095.07
>>>>>End Processed Spectral Data<<<<<
