SpectraSuite Data File
++++++++++++++++++++++++++++++++++++
Date: Fri Jun 02 14:44:39 CEST 2017
User: INFO_000
Dark Spectrum Present: No
Reference Spectrum Present: No
Number of Sampled Component Spectra: 1
Spectrometers: USB4H00879
Integration Time (usec): 80000 (USB4H00879)
Spectra Averaged: 1 (USB4H00879)
Boxcar Smoothing: 0 (USB4H00879)
Correct for Electrical Dark: No (USB4H00879)
Strobe/Lamp Enabled: No (USB4H00879)
Correct for Detector Non-linearity: No (USB4H00879)
Correct for Stray Light: No (USB4H00879)
Number of Pixels in Processed Spectrum: 3648
>>>>>Begin Processed Spectral Data<<<<<
345.13	1269.74
345.34	1269.74
345.56	1269.74
345.78	1273.84
345.99	1193.97
346.21	1710.05
346.42	1703.91
346.64	1650.66
346.86	1767.40
347.07	1576.94
347.29	1703.91
347.50	1673.19
347.72	1699.81
347.94	1779.68
348.15	1556.46
348.37	1611.75
348.59	1763.30
348.80	1654.76
349.02	1730.53
349.23	1757.16
349.45	1804.26
349.67	1867.75
349.88	1830.88
350.10	1957.86
350.31	1771.49
350.53	1877.99
350.75	1855.46
350.96	1812.45
351.18	1834.98
351.39	1857.51
351.61	1732.58
351.82	1914.85
352.04	1902.56
352.26	1796.07
352.47	1882.08
352.69	1925.09
352.90	1726.44
353.12	1886.18
353.34	1834.98
353.55	1896.42
353.77	1884.13
353.98	1873.89
354.20	1806.31
354.41	1992.67
354.63	1933.28
354.85	1920.99
355.06	1929.19
355.28	1734.63
355.49	1882.08
355.71	1914.85
355.92	1849.32
356.14	1822.69
356.35	1869.80
356.57	1787.88
356.79	1949.67
357.00	1906.66
357.22	1982.43
357.43	1796.07
357.65	1904.61
357.86	1824.74
358.08	1857.51
358.29	1994.72
358.51	2011.11
358.72	1939.43
358.94	2002.91
359.16	1945.57
359.37	1968.10
359.59	1927.14
359.80	1978.34
360.02	2013.15
360.23	1974.24
360.45	2011.11
360.66	1959.91
360.88	1918.95
361.09	1959.91
361.31	1982.43
361.52	1972.19
361.74	2045.92
361.95	2076.64
362.17	1902.56
362.38	2117.60
362.60	2025.44
362.81	2027.49
363.03	1904.61
363.24	1974.24
363.46	2074.59
363.67	1986.53
363.89	2058.21
364.10	1982.43
364.32	1974.24
364.53	2052.06
364.75	1957.86
364.96	2043.87
365.18	2011.11
365.39	1910.75
365.61	1941.47
365.82	2056.16
366.04	2015.20
366.25	1994.72
366.47	2000.87
366.68	1968.10
366.90	1994.72
367.11	2076.64
367.33	2070.50
367.54	2060.26
367.76	1918.95
367.97	2093.02
368.19	2027.49
368.40	2146.27
368.62	1966.05
368.83	1957.86
369.05	1980.39
369.26	1900.52
369.48	1918.95
369.69	1961.95
369.91	2099.17
370.12	1966.05
370.33	2080.74
370.55	1955.81
370.76	2035.68
370.98	2158.56
371.19	2023.39
371.41	2025.44
371.62	2039.78
371.84	2023.39
372.05	2222.05
372.27	2121.70
372.48	2043.87
372.69	2078.69
372.91	2140.13
373.12	2136.03
373.34	2033.63
373.55	2086.88
373.77	2232.29
373.98	2082.78
374.20	2138.08
374.41	2222.05
374.62	2144.22
374.84	2174.94
375.05	2133.98
375.27	2150.37
375.48	2174.94
375.70	2150.37
375.91	2152.42
376.12	2299.87
376.34	2131.94
376.55	2228.19
376.77	2207.71
376.98	2154.46
377.19	2068.45
377.41	2162.66
377.62	2228.19
377.84	2263.01
378.05	2351.07
378.27	2236.38
378.48	2310.11
378.69	2357.21
378.91	2285.53
379.12	2213.85
379.34	2191.33
379.55	2203.61
379.76	2240.48
379.98	2168.80
380.19	2297.82
380.41	2256.86
380.62	2349.02
380.83	2285.53
381.05	2332.64
381.26	2473.95
381.47	2254.81
381.69	2273.25
381.90	2410.46
382.12	2295.77
382.33	2310.11
382.54	2236.38
382.76	2269.15
382.97	2299.87
383.19	2271.20
383.40	2420.70
383.61	2301.92
383.83	2236.38
384.04	2344.92
384.25	2396.12
384.47	2394.08
384.68	2349.02
384.89	2291.68
385.11	2236.38
385.32	2291.68
385.54	2326.49
385.75	2377.69
385.96	2447.32
386.18	2469.85
386.39	2486.23
386.60	2410.46
386.82	2428.89
387.03	2385.88
387.24	2404.32
387.46	2428.89
387.67	2471.90
387.88	2602.97
388.10	2457.56
388.31	2453.47
388.52	2551.77
388.74	2471.90
388.95	2449.37
389.16	2465.75
389.38	2478.04
389.59	2613.21
389.80	2629.59
390.02	2508.76
390.23	2570.20
390.44	2576.34
390.66	2627.54
390.87	2475.99
391.08	2525.15
391.30	2721.75
391.51	2592.73
391.72	2666.46
391.94	2666.46
392.15	2631.64
392.36	2547.67
392.58	2596.82
392.79	2596.82
393.00	2666.46
393.22	2699.22
393.43	2750.42
393.64	2670.55
393.85	2797.53
394.07	2701.27
394.28	2779.09
394.49	2754.52
394.71	2740.18
394.92	2881.49
395.13	2660.31
395.35	2740.18
395.56	2731.99
395.77	2822.10
395.98	2762.71
396.20	2873.30
396.41	2801.62
396.62	2856.92
396.84	2852.82
397.05	2858.96
397.26	2875.35
397.47	3047.38
397.69	2830.29
397.90	3043.28
398.11	2932.69
398.32	2838.48
398.54	2899.92
398.75	2873.30
398.96	2992.08
399.18	3035.09
399.39	2924.50
399.60	3012.56
399.81	2922.45
400.03	3035.09
400.24	3354.57
400.45	2981.84
400.66	3162.06
400.88	3035.09
401.09	3188.69
401.30	3051.47
401.51	3080.14
401.73	3039.19
401.94	3180.50
402.15	3190.74
402.36	3114.96
402.58	3280.85
402.79	3295.18
403.00	3194.83
403.21	3153.87
403.43	3268.56
403.64	3313.61
403.85	3192.78
404.06	3258.32
404.27	3149.78
404.49	3196.88
404.70	3155.92
404.91	3313.61
405.12	3282.89
405.34	3295.18
405.55	3454.92
405.76	3114.96
405.97	3325.90
406.19	3385.29
406.40	3352.52
406.61	3491.79
406.82	3407.82
407.03	3311.57
407.25	3276.75
407.46	3448.78
407.67	3467.21
407.88	3471.31
408.09	3336.14
408.31	3387.34
408.52	3463.12
408.73	3346.38
408.94	3299.28
409.15	3530.70
409.37	3538.89
409.58	3465.16
409.79	3522.51
410.00	3547.08
410.21	3485.64
410.43	3495.88
410.64	3512.27
410.85	3534.79
411.06	3504.07
411.27	3585.99
411.48	3669.96
411.70	3528.65
411.91	3573.71
412.12	3653.58
412.33	3553.23
412.54	3674.06
412.76	3696.58
412.97	3729.35
413.18	3512.27
413.39	3657.67
413.60	3766.21
413.81	3712.97
414.03	3702.73
414.24	3624.90
414.45	3762.12
414.66	3598.28
414.87	3786.69
415.08	3786.69
415.30	3862.47
415.51	3780.55
415.72	3780.55
415.93	3704.78
416.14	3770.31
416.35	3895.24
416.56	3755.97
416.78	3874.76
416.99	3876.80
417.20	3864.52
417.41	3946.44
417.62	4001.73
417.83	3977.16
418.04	3866.56
418.26	3921.86
418.47	3854.28
418.68	3944.39
418.89	4071.36
419.10	4104.13
419.31	3864.52
419.52	4071.36
419.73	4007.87
419.95	4081.60
420.16	4093.89
420.37	3856.33
420.58	4169.66
420.79	3903.43
421.00	4165.57
421.21	4018.11
421.42	3989.44
421.63	4083.65
421.85	4014.02
422.06	4255.68
422.27	4194.24
422.48	4122.56
422.69	4333.50
422.90	4261.82
423.11	4294.59
423.32	4345.79
423.53	4368.32
423.75	4265.92
423.96	4470.72
424.17	4353.98
424.38	4575.16
424.59	4382.65
424.80	4501.44
425.01	4401.08
425.22	4384.70
425.43	4607.93
425.64	4628.41
425.85	4628.41
426.06	4583.35
426.28	4503.48
426.49	4470.72
426.70	4515.77
426.91	4655.03
427.12	4689.85
427.33	4704.18
427.54	4487.10
427.75	4777.91
427.96	4816.82
428.17	4687.80
428.38	4808.63
428.59	4829.11
428.80	4788.15
429.01	4915.12
429.23	4794.29
429.44	5119.92
429.65	5035.96
429.86	4984.76
430.07	4794.29
430.28	5011.38
430.49	5087.15
430.70	5210.03
430.91	5021.62
431.12	5048.24
431.33	5189.55
431.54	5312.43
431.75	5124.02
431.96	5150.64
432.17	5242.80
432.38	5281.71
432.59	5402.54
432.80	5261.23
433.01	5398.45
433.22	5377.97
433.43	5373.87
433.64	5351.34
433.85	5310.38
434.06	5506.99
434.27	5341.10
434.49	5398.45
434.70	5578.67
434.91	5466.03
435.12	5494.70
435.33	5443.50
435.54	5625.77
435.75	5410.73
435.96	5736.36
436.17	5601.19
436.38	5717.93
436.59	5713.83
436.80	5545.90
437.01	5730.22
437.22	5838.76
437.43	5793.70
437.64	5580.71
437.85	5885.86
438.06	5939.11
438.27	5607.34
438.48	5900.20
438.69	5889.96
438.90	5932.97
439.11	5750.70
439.32	6152.10
439.53	5939.11
439.74	5951.40
439.95	5902.25
440.16	5773.22
440.37	6023.08
440.57	5865.38
440.78	6156.19
440.99	6137.76
441.20	6025.12
441.41	5941.16
441.62	6115.23
441.83	6078.37
442.04	6201.25
442.25	6102.95
442.46	6066.08
442.67	6207.39
442.88	6541.21
443.09	6098.85
443.30	6305.70
443.51	6197.15
443.72	6438.81
443.93	6260.64
444.14	6651.80
444.35	6332.32
444.56	6549.40
444.77	6334.37
444.98	6367.13
445.19	6485.92
445.40	6438.81
445.61	6373.28
445.81	6664.09
446.02	6598.56
446.23	6420.38
446.44	6391.71
446.65	6610.84
446.86	6715.29
447.07	6696.86
447.28	6700.95
447.49	6686.62
447.70	6576.03
447.91	6717.34
448.12	6561.69
448.33	6809.50
448.54	6770.58
448.74	6727.58
448.95	6852.50
449.16	6610.84
449.37	7198.61
449.58	6713.24
449.79	7047.06
450.00	6496.16
450.21	6838.17
450.42	6993.81
450.63	6875.03
450.84	7069.59
451.05	7012.24
451.25	6948.76
451.46	6834.07
451.67	7118.74
451.88	7206.80
452.09	7245.71
452.30	7108.50
452.51	7032.72
452.72	7274.38
452.93	7466.89
453.13	7116.69
453.34	7268.24
453.55	7294.86
453.76	7311.25
453.97	7479.18
454.18	7528.33
454.39	7589.77
454.60	7464.85
454.81	7303.06
455.01	7350.16
455.22	7487.37
455.43	7593.87
455.64	7849.86
455.85	7692.17
456.06	7976.84
456.27	7823.24
456.48	7761.80
456.68	7856.01
456.89	7870.34
457.10	7833.48
457.31	7800.71
457.52	7974.79
457.73	7966.60
457.94	8146.82
458.14	7929.74
458.35	8486.78
458.56	8365.95
458.77	8210.31
458.98	8259.46
459.19	8306.56
459.39	8314.75
459.60	8353.66
459.81	8335.23
460.02	8826.75
460.23	8437.63
460.44	8699.77
460.65	8605.56
460.85	8636.28
461.06	8724.35
461.27	8597.37
461.48	8845.18
461.69	9109.36
461.89	8871.80
462.10	9043.83
462.31	8943.48
462.52	8802.17
462.73	9113.46
462.94	9226.10
463.14	9232.24
463.35	9238.39
463.56	9658.22
463.77	9363.31
463.98	9082.74
464.18	9398.13
464.39	9412.46
464.60	9693.04
464.81	9949.03
465.02	9729.90
465.23	9891.69
465.43	9801.58
465.64	9924.46
465.85	9983.85
466.06	9807.72
466.27	10188.64
466.47	10243.94
466.68	10137.45
466.89	10076.01
467.10	10196.84
467.30	10014.57
467.51	10334.05
467.72	10770.27
467.93	10366.82
468.14	10497.89
468.34	10585.95
468.55	10866.52
468.76	10708.83
468.97	10686.30
469.17	10704.73
469.38	10954.58
469.59	11161.43
469.80	10692.44
470.01	11102.04
470.21	11380.56
470.42	11267.92
470.63	11388.75
470.84	11380.56
471.04	11493.20
471.25	11562.83
471.46	11468.62
471.67	11849.55
471.87	11478.86
472.08	11984.71
472.29	12150.60
472.50	11757.39
472.70	12068.68
472.91	12037.96
473.12	12052.30
473.33	12480.32
473.53	12463.94
473.74	12412.74
473.95	12554.05
474.16	12578.62
474.36	12693.31
474.57	12816.19
474.78	13100.86
474.99	12855.10
475.19	12820.28
475.40	13211.45
475.61	13246.26
475.81	13416.24
476.02	13442.87
476.23	13274.93
476.44	13467.44
476.64	13739.82
476.85	13911.85
477.06	13807.41
477.27	14090.02
477.47	14083.88
477.68	14106.41
477.89	14403.36
478.09	14118.70
478.30	14241.57
478.51	14096.17
478.71	14581.54
478.92	14446.37
479.13	14645.02
479.34	14772.00
479.54	14796.57
479.75	14958.36
479.96	14851.87
480.16	14968.60
480.37	15257.37
480.58	15157.02
480.78	15521.56
480.99	15423.25
481.20	15603.47
481.41	15490.84
481.61	15601.43
481.82	15894.29
482.03	15644.43
482.23	15765.26
482.44	16080.65
482.65	16115.47
482.85	16187.14
483.06	16459.52
483.27	16262.92
483.47	16353.03
483.68	16525.06
483.89	16674.56
484.09	16721.66
484.30	16680.71
484.51	16731.90
484.71	17153.79
484.92	17018.62
485.13	17073.92
485.33	17204.99
485.54	17012.48
485.75	17215.23
485.95	17286.90
486.16	17700.59
486.37	17530.61
486.57	17575.67
486.78	17438.45
486.98	17585.91
487.19	17829.62
487.40	18071.28
487.60	18093.80
487.81	18081.52
488.02	18474.73
488.22	18163.43
488.43	18489.06
488.64	18149.10
488.84	18450.15
489.05	18419.43
489.25	18593.51
489.46	18843.36
489.67	18747.11
489.87	18833.12
490.08	19095.26
490.29	18994.91
490.49	19412.70
490.70	19404.50
490.90	19427.03
491.11	19216.09
491.32	19728.08
491.52	19429.08
491.73	19658.45
491.94	19891.92
492.14	19599.06
492.35	19934.93
492.55	19957.46
492.76	19920.59
492.97	20201.16
493.17	20295.37
493.38	20569.80
493.58	20582.09
493.79	20676.29
494.00	20590.28
494.20	20604.61
494.41	20844.23
494.61	21059.26
494.82	21108.41
495.02	21085.89
495.23	21130.94
495.44	21266.11
495.64	21513.91
495.85	21491.38
496.05	21565.11
496.26	21542.58
496.47	21960.37
496.67	21456.57
496.88	22068.91
497.08	21571.25
497.29	21896.88
497.49	22116.01
497.70	21976.75
497.91	22206.13
498.11	22363.82
498.32	22445.74
498.52	22429.35
498.73	22716.07
498.93	22720.17
499.14	22927.01
499.34	22851.24
499.55	23119.52
499.76	23086.75
499.96	23109.28
500.17	23213.73
500.37	23518.87
500.58	23412.38
500.78	23477.91
500.99	23434.91
501.19	23754.39
501.40	23668.37
501.60	23535.26
501.81	23969.43
502.02	24194.70
502.22	23848.60
502.43	24041.11
502.63	24440.46
502.84	24651.40
503.04	24491.66
503.25	24202.89
503.45	24678.02
503.66	24692.36
503.86	24766.09
504.07	25040.51
504.27	24770.18
504.48	25058.95
504.68	24831.62
504.89	25306.75
505.09	24888.96
505.30	25157.25
505.50	25478.78
505.71	25800.31
505.91	25779.83
506.12	25630.33
506.32	25310.85
506.53	25693.82
506.73	26103.41
506.94	26062.45
507.14	25831.03
507.35	25919.09
507.55	26074.74
507.76	26101.36
507.96	25951.86
508.17	25855.61
508.37	26254.96
508.58	26553.96
508.78	26615.40
508.99	26807.91
509.19	26556.01
509.40	26910.31
509.60	26603.11
509.81	26920.55
510.01	26576.49
510.22	26947.17
510.42	27104.87
510.63	26957.41
510.83	27086.43
511.04	26740.33
511.24	26891.88
511.44	27229.79
511.65	27223.65
511.85	27235.94
512.06	27377.25
512.26	27672.15
512.47	27831.90
512.67	27604.57
512.88	27639.39
513.08	27770.46
513.29	27616.86
513.49	27881.05
513.69	27862.61
513.90	28100.18
514.10	28171.86
514.31	28124.75
514.51	28261.97
514.72	28665.42
514.92	28243.54
515.13	28229.20
515.33	28522.06
515.53	28315.22
515.74	28710.47
515.94	28597.84
516.15	28829.26
516.35	28120.66
516.56	28921.41
516.76	28661.32
516.96	28718.67
517.17	29294.14
517.37	29003.33
517.58	29161.03
517.78	29087.30
517.99	28962.37
518.19	29494.85
518.39	29130.31
518.60	29230.66
518.80	29111.88
519.01	29306.43
519.21	29591.10
519.41	29623.87
519.62	29535.81
519.82	29695.55
520.03	29443.65
520.23	29396.54
520.43	29816.38
520.64	30295.60
520.84	30332.47
521.05	30080.56
521.25	30068.28
521.45	29972.02
521.66	29982.26
521.86	30262.83
522.07	30260.79
522.27	30189.11
522.47	30072.37
522.68	30518.83
522.88	30072.37
523.08	30836.27
523.29	30500.40
523.49	30719.53
523.70	30598.70
523.90	30807.59
524.10	30852.65
524.31	30815.79
524.51	30762.54
524.71	31120.93
524.92	31147.56
525.12	31170.08
525.33	31137.32
525.53	31338.02
525.73	31211.04
525.94	31886.87
526.14	31252.00
526.34	31663.64
526.55	31544.86
526.75	31673.88
526.95	31731.23
527.16	31505.95
527.36	31604.25
527.56	31809.05
527.77	31829.53
527.97	32235.03
528.17	32181.78
528.38	32130.58
528.58	32175.64
528.78	32409.11
528.99	32443.92
529.19	32900.62
529.39	32304.66
529.60	33037.83
529.80	32638.48
530.00	32618.00
530.21	32878.09
530.41	33064.46
530.61	33111.56
530.82	32865.80
531.02	32861.71
531.22	33095.18
531.43	33216.01
531.63	33189.38
531.83	33590.78
532.04	33988.09
532.24	33269.25
532.44	33752.57
532.64	33621.50
532.85	34260.47
533.05	33687.04
533.25	34106.87
533.46	33912.31
533.66	34551.28
533.86	34278.90
534.07	34665.97
534.27	34237.94
534.47	34846.19
534.67	34391.54
534.88	34739.69
535.08	34541.04
535.28	34831.85
535.49	34983.40
535.69	35210.73
535.89	35147.24
536.09	35257.83
536.30	35569.12
536.50	35427.81
536.70	35507.68
536.91	35321.32
537.11	35462.63
537.31	35812.83
537.51	35671.52
537.72	36103.64
537.92	36181.46
538.12	36081.11
538.32	35954.14
538.53	36435.41
538.73	36199.90
538.93	36421.08
539.13	36247.00
539.34	36564.43
539.54	36410.84
539.74	36900.30
539.94	36738.51
540.15	36650.45
540.35	36871.63
540.55	37012.94
540.75	37101.00
540.96	37236.17
541.16	37144.01
541.36	37336.52
541.56	37309.89
541.77	37623.23
541.97	37731.78
542.17	37660.10
542.37	37649.86
542.58	38010.30
542.78	37830.08
542.98	37922.24
543.18	38354.36
543.38	38403.51
543.59	38411.70
543.79	38186.43
543.99	38002.11
544.19	38827.44
544.40	38630.83
544.60	39142.83
544.80	38788.53
545.00	38704.56
545.20	38946.22
545.41	38749.62
545.61	38892.97
545.81	39042.48
546.01	39538.08
546.21	39187.88
546.42	39251.37
546.62	39548.32
546.82	39120.30
547.02	39474.60
547.22	39499.17
547.43	39495.08
547.63	40175.00
547.83	39542.18
548.03	39642.53
548.23	40000.93
548.44	40164.76
548.64	40340.89
548.84	40646.04
549.04	40351.13
549.24	40742.29
549.45	41002.38
549.65	40588.69
549.85	40738.19
550.05	41012.62
550.25	40492.44
550.45	41088.40
550.66	40904.08
550.86	40922.51
551.06	41524.61
551.26	41280.91
551.46	41344.39
551.66	41282.95
551.87	41067.92
552.07	41758.08
552.27	42149.24
552.47	41923.97
552.67	41739.65
552.87	41733.51
553.07	41653.64
553.28	42280.31
553.48	42233.21
553.68	41710.98
553.88	42241.40
554.08	42194.30
554.28	42280.31
554.48	42222.97
554.69	42059.13
554.89	42605.94
555.09	42878.32
555.29	42354.04
555.49	42327.42
555.69	42722.68
555.89	42644.85
556.10	42962.29
556.30	42620.28
556.50	42868.08
556.70	42950.00
556.90	43226.48
557.10	43367.79
557.30	43079.02
557.50	43162.99
557.70	43298.16
557.91	43466.09
558.11	43654.50
558.31	43474.28
558.51	43158.89
558.71	43519.34
558.91	43449.70
559.11	43631.97
559.31	43668.84
559.51	43525.48
559.72	43519.34
559.92	44162.40
560.12	44025.18
560.32	44141.92
560.52	44307.80
560.72	44168.54
560.92	44520.79
561.12	44123.49
561.32	44252.51
561.52	44164.45
561.72	44758.36
561.93	44119.39
562.13	44252.51
562.33	44135.77
562.53	44832.08
562.73	44432.73
562.93	44285.28
563.13	44354.91
563.33	44488.03
563.53	44830.04
563.73	44660.05
563.93	44893.52
564.13	45057.36
564.33	44471.64
564.53	44602.71
564.74	44780.88
564.94	44297.56
565.14	45061.46
565.34	44571.99
565.54	45002.07
565.74	45204.81
565.94	45323.60
566.14	45167.95
566.34	45024.59
566.54	45587.78
566.74	45204.81
566.94	45172.05
567.14	45032.78
567.34	45006.16
567.54	45268.30
567.74	45022.54
567.94	44711.25
568.14	45135.18
568.34	45286.73
568.54	45698.37
568.74	45368.65
568.94	45370.70
569.14	45733.19
569.34	45733.19
569.54	45684.04
569.75	44975.44
569.95	45876.55
570.15	46228.80
570.35	45854.02
570.55	45831.49
570.75	45929.80
570.95	46187.84
571.15	46110.02
571.35	46138.69
571.55	45882.69
571.75	45862.21
571.95	46372.16
572.15	45917.51
572.35	46087.49
572.55	45837.64
572.75	46177.60
572.95	46406.97
573.15	46216.51
573.35	46163.26
573.55	46056.77
573.75	45903.17
573.95	46226.75
574.15	46507.32
574.35	46239.04
574.55	46038.34
574.75	46517.56
574.95	46085.44
575.15	46259.52
575.34	46693.69
575.54	46443.84
575.74	46796.09
575.94	46507.32
576.14	46189.89
576.34	46691.64
576.54	46730.55
576.74	46791.99
576.94	46415.16
577.14	46284.09
577.34	46800.18
577.54	46390.59
577.74	46796.09
577.94	46925.11
578.14	46857.52
578.34	47269.17
578.54	46290.24
578.74	46464.32
578.94	46994.74
579.14	46642.49
579.34	46890.29
579.54	46970.16
579.74	47140.14
579.94	46972.21
580.13	47398.19
580.33	47273.26
580.53	47383.85
580.73	47166.77
580.93	47314.22
581.13	47101.23
581.33	47150.38
581.53	47580.46
581.73	47394.09
581.93	47338.80
582.13	47117.62
582.33	47187.25
582.53	47281.45
582.73	47701.29
582.92	47488.30
583.12	47838.50
583.32	47713.58
583.52	47715.62
583.72	47768.87
583.92	47699.24
584.12	47744.30
584.32	47994.15
584.52	47645.99
584.72	47785.25
584.92	47764.78
585.11	48934.17
585.31	47785.25
585.51	47842.60
585.71	47836.45
585.91	48583.96
586.11	47875.37
586.31	48135.46
586.51	47680.81
586.71	48465.18
586.91	48231.71
587.10	48579.87
587.30	48700.70
587.50	48260.38
587.70	48653.59
587.90	48573.72
588.10	48602.39
588.30	48438.56
588.50	48622.87
588.69	48774.42
588.89	48555.29
589.09	48504.09
589.29	49020.18
589.49	48977.17
589.69	48391.45
589.89	49177.87
590.08	48864.53
590.28	48925.97
590.48	48831.77
590.68	48897.30
590.88	48995.60
591.08	49136.91
591.28	48170.27
591.47	49212.69
591.67	49384.72
591.87	49167.63
592.07	48835.86
592.27	49218.83
592.47	49122.58
592.67	49210.64
592.86	49028.37
593.06	49825.03
593.26	49726.73
593.46	49280.27
593.66	49745.16
593.86	49558.80
594.05	49818.89
594.25	50031.88
594.45	49493.26
594.65	49493.26
594.85	49036.56
595.05	50132.23
595.24	49851.66
595.44	49650.95
595.64	49980.68
595.84	49939.72
596.04	50480.38
596.23	50025.73
596.43	50722.04
596.63	50287.87
596.83	50128.13
597.03	50779.39
597.22	51010.81
597.42	50492.67
597.62	50978.04
597.82	50480.38
598.02	50922.74
598.21	50984.18
598.41	50466.05
598.61	51074.29
598.81	50885.88
599.01	51426.54
599.20	51272.95
599.40	50879.74
599.60	51139.83
599.80	51213.55
600.00	51565.81
600.19	51600.62
600.39	51430.64
600.59	51750.12
600.79	51707.12
600.98	51774.70
601.18	51907.82
601.38	51895.53
601.58	52163.81
601.78	51920.10
601.97	51963.11
602.17	52776.15
602.37	52172.00
602.57	51805.42
602.76	52364.51
602.96	52511.97
603.16	52612.32
603.36	52489.44
603.55	52772.06
603.75	52796.63
603.95	52722.91
604.15	52937.94
604.34	53095.64
604.54	52878.55
604.74	53163.22
604.94	53171.41
605.13	53499.09
605.33	53552.33
605.53	53058.77
605.73	53607.63
605.92	53601.49
606.12	53517.52
606.32	53589.20
606.52	53421.26
606.71	54011.08
606.91	54193.35
607.11	53353.68
607.30	53791.95
607.50	53693.64
607.70	54144.20
607.90	54322.37
608.09	54113.48
608.29	54297.80
608.49	54121.67
608.68	54133.96
608.88	54260.93
609.08	54510.78
609.28	54674.62
609.47	54252.74
609.67	54791.36
609.87	54449.35
610.06	54938.81
610.26	54903.99
610.46	54873.27
610.66	54973.63
610.85	54693.05
611.05	54396.10
611.25	55071.93
611.44	54756.54
611.64	55071.93
611.84	54748.35
612.03	55149.75
612.23	55016.63
612.43	55268.53
612.62	55153.85
612.82	55526.58
613.02	55299.25
613.21	55477.43
613.41	55276.72
613.61	55743.66
613.80	55162.04
614.00	55112.89
614.20	55438.51
614.39	55508.14
614.59	55934.12
614.79	55657.65
614.98	55624.88
615.18	55567.54
615.38	55878.83
615.57	55671.98
615.77	55948.46
615.97	56229.03
616.16	55872.68
616.36	55948.46
616.56	56032.42
616.75	55915.69
616.95	55682.22
617.15	56274.09
617.34	55968.94
617.54	55887.02
617.74	56329.38
617.93	56120.49
618.13	55917.74
618.32	56138.92
618.52	56153.26
618.72	56151.21
618.91	56380.58
619.11	55579.82
619.31	56292.52
619.50	55884.97
619.70	56011.95
619.90	55995.56
620.09	56120.49
620.29	56143.02
620.48	56100.01
620.68	56399.01
620.88	55979.18
621.07	56020.14
621.27	56638.62
621.46	55739.57
621.66	55659.69
621.86	56417.44
622.05	55948.46
622.25	56480.93
622.44	55985.32
622.64	56181.93
622.84	56157.35
623.03	55997.61
623.23	56358.05
623.42	56339.62
623.62	56347.81
623.82	56247.46
624.01	56380.58
624.21	56296.61
624.40	56603.81
624.60	55784.62
624.80	55686.32
624.99	56261.80
625.19	55907.50
625.38	56018.09
625.58	56396.96
625.77	56478.88
625.97	56173.73
626.17	55649.45
626.36	56366.24
626.56	56280.23
626.75	55596.21
626.95	56648.86
627.14	56296.61
627.34	56921.24
627.54	56089.77
627.73	56126.63
627.93	56265.89
628.12	55895.21
628.32	56360.10
628.51	56204.45
628.71	56370.34
628.90	55913.64
629.10	56317.09
629.30	56308.90
629.49	56130.73
629.69	56022.19
629.88	56392.87
630.08	56655.01
630.27	56491.17
630.47	56026.28
630.66	56188.07
630.86	56206.50
631.05	56259.75
631.25	56689.82
631.44	56179.88
631.64	56251.56
631.84	56300.71
632.03	56663.20
632.23	56069.29
632.42	56341.67
632.62	56208.55
632.81	55751.85
633.01	56198.31
633.20	56538.27
633.40	55917.74
633.59	56360.10
633.79	55542.96
633.98	55964.84
634.18	56071.34
634.37	56138.92
634.57	55954.60
634.76	56421.54
634.96	56220.84
635.15	56063.14
635.35	55956.65
635.54	55999.66
635.74	56003.75
635.93	55723.18
636.13	56540.32
636.32	56341.67
636.52	55622.83
636.71	56075.43
636.91	56399.01
637.10	56018.09
637.30	55985.32
637.49	55743.66
637.69	55581.87
637.88	56292.52
638.08	55633.07
638.27	56366.24
638.46	55719.09
638.66	56116.39
638.85	56145.06
639.05	55887.02
639.24	56120.49
639.44	55801.00
639.63	56120.49
639.83	55256.24
640.02	55764.14
640.22	55798.96
640.41	55676.08
640.61	55585.97
640.80	55729.33
640.99	55831.72
641.19	56274.09
641.38	55616.69
641.58	55714.99
641.77	55700.65
641.97	55375.03
642.16	55833.77
642.36	55723.18
642.55	56030.38
642.74	55436.47
642.94	56388.77
643.13	55473.33
643.33	55854.25
643.52	55655.60
643.72	55809.20
643.91	55592.11
644.10	55573.68
644.30	56087.72
644.49	55542.96
644.69	55895.21
644.88	55733.42
645.08	55223.48
645.27	55485.62
645.46	55481.52
645.66	55934.12
645.85	55016.63
646.05	55852.20
646.24	55436.47
646.43	55536.82
646.63	55766.19
646.82	56005.80
647.02	55798.96
647.21	55809.20
647.40	55952.55
647.60	56124.58
647.79	56077.48
647.99	56071.34
648.18	56028.33
648.37	55893.16
648.57	56255.65
648.76	55854.25
648.96	55694.51
649.15	56057.00
649.34	56485.03
649.54	55735.47
649.73	55805.10
649.92	55895.21
650.12	55852.20
650.31	55919.79
650.51	56034.47
650.70	56186.02
650.89	55829.68
651.09	56231.08
651.28	55704.75
651.47	55899.31
651.67	56038.57
651.86	56202.41
652.06	55178.42
652.25	55950.51
652.44	55739.57
652.64	55526.58
652.83	55895.21
653.02	55235.77
653.22	55874.73
653.41	55227.57
653.60	56040.62
653.80	55620.78
653.99	55686.32
654.18	55444.66
654.38	55493.81
654.57	55891.12
654.76	56120.49
654.96	55575.73
655.15	55565.49
655.34	55291.06
655.54	55444.66
655.73	55852.20
655.92	56009.90
656.12	55178.42
656.31	56087.72
656.50	55743.66
656.70	55901.36
656.89	55588.02
657.08	55950.51
657.28	55567.54
657.47	55391.41
657.66	55876.78
657.86	55610.54
658.05	55661.74
658.24	56317.09
658.43	55735.47
658.63	55643.31
658.82	55491.76
659.01	55676.08
659.21	56067.24
659.40	55798.96
659.59	55159.99
659.79	55848.11
659.98	55841.96
660.17	55835.82
660.36	55645.36
660.56	55758.00
660.75	55893.16
660.94	55975.08
661.14	56392.87
661.33	55983.27
661.52	55344.31
661.71	56528.03
661.91	55657.65
662.10	55766.19
662.29	56399.01
662.49	55540.91
662.68	55594.16
662.87	55962.79
663.06	56057.00
663.26	56091.82
663.45	56399.01
663.64	56120.49
663.83	56159.40
664.03	55907.50
664.22	55938.22
664.41	56013.99
664.60	55669.93
664.80	55721.13
664.99	56001.71
665.18	55991.47
665.37	56372.39
665.57	56128.68
665.76	55778.48
665.95	56126.63
666.14	56186.02
666.34	55882.92
666.53	55811.24
666.72	55913.64
666.91	56337.57
667.11	55690.41
667.30	56308.90
667.49	55909.55
667.68	55803.05
667.87	56192.17
668.07	56292.52
668.26	56159.40
668.45	56040.62
668.64	55903.40
668.84	57009.31
669.03	56005.80
669.22	56351.91
669.41	56485.03
669.60	56333.48
669.80	56370.34
669.99	56374.44
670.18	56071.34
670.37	56493.22
670.57	56931.48
670.76	56136.87
670.95	56458.40
671.14	56321.19
671.33	56198.31
671.53	56683.68
671.72	56751.26
671.91	56890.52
672.10	55809.20
672.29	55981.23
672.48	56431.78
672.68	56720.54
672.87	56229.03
673.06	55989.42
673.25	56403.11
673.44	55819.44
673.64	56241.32
673.83	56104.10
674.02	56378.53
674.21	55973.03
674.40	56843.42
674.59	56415.40
674.79	56517.79
674.98	56026.28
675.17	56497.31
675.36	56325.28
675.55	56808.61
675.74	56517.79
675.94	56069.29
676.13	56458.40
676.32	56560.80
676.51	57246.87
676.70	56433.83
676.89	56464.55
677.08	57009.31
677.28	56372.39
677.47	56603.81
677.66	56947.87
677.85	56810.65
678.04	57001.11
678.23	57226.39
678.42	56992.92
678.62	56603.81
678.81	56724.64
679.00	56724.64
679.19	57382.04
679.38	56726.69
679.57	56824.99
679.76	56689.82
679.96	57123.99
680.15	56767.65
680.34	56616.10
680.53	57177.24
680.72	57556.11
680.91	56927.39
681.10	56732.83
681.29	56966.30
681.48	56870.04
681.68	56829.08
681.87	56816.80
682.06	56980.63
682.25	56546.47
682.44	56491.17
682.63	56980.63
682.82	56538.27
683.01	56345.76
683.20	56310.95
683.39	56994.97
683.59	56530.08
683.78	56566.94
683.97	56700.06
684.16	56984.73
684.35	56538.27
684.54	56464.55
684.73	57037.98
684.92	56665.25
685.11	56284.33
685.30	56353.96
685.49	56824.99
685.69	56487.07
685.88	57132.18
686.07	56822.94
686.26	57046.17
686.45	56327.33
686.64	56958.11
686.83	56698.01
687.02	56892.57
687.21	56984.73
687.40	56589.47
687.59	56657.06
687.78	56812.70
687.97	57011.35
688.16	56728.73
688.35	56677.54
688.54	56550.56
688.74	56618.14
688.93	56906.91
689.12	56751.26
689.31	56818.84
689.50	56812.70
689.69	56251.56
689.88	56130.73
690.07	56480.93
690.26	56626.34
690.45	57506.96
690.64	56650.91
690.83	56464.55
691.02	56546.47
691.21	56749.21
691.40	56401.06
691.59	56667.30
691.78	56421.54
691.97	56474.79
692.16	56743.07
692.35	56573.09
692.54	56605.86
692.73	56499.36
692.92	56902.81
693.11	56763.55
693.30	56513.70
693.49	56677.54
693.68	56669.34
693.87	56714.40
694.06	56145.06
694.25	56491.17
694.44	56218.79
694.63	56411.30
694.82	56652.96
695.01	56243.37
695.20	56169.64
695.39	56212.65
695.58	56130.73
695.77	56145.06
695.96	55841.96
696.15	56347.81
696.34	56145.06
696.53	55962.79
696.72	56374.44
696.91	56216.74
697.10	56259.75
697.29	56024.23
697.48	56329.38
697.67	56097.96
697.86	56108.20
698.05	56095.91
698.24	56462.50
698.43	55661.74
698.62	56007.85
698.81	55770.28
699.00	56212.65
699.19	55303.35
699.38	55970.99
699.57	55262.39
699.76	56276.13
699.95	55968.94
700.14	55592.11
700.32	55375.03
700.51	55506.10
700.70	55936.17
700.89	55958.70
701.08	55628.98
701.27	55336.12
701.46	55755.95
701.65	55043.26
701.84	55835.82
702.03	55850.16
702.22	55424.18
702.41	55139.51
702.60	55663.79
702.79	54895.80
702.98	54877.37
703.17	55211.19
703.35	54658.24
703.54	55194.81
703.73	55227.57
703.92	55203.00
704.11	55098.55
704.30	55147.70
704.49	55051.45
704.68	54994.10
704.87	55088.31
705.06	55424.18
705.25	54539.46
705.43	54617.28
705.62	54883.51
705.81	54875.32
706.00	54918.33
706.19	54586.56
706.38	54449.35
706.57	54549.70
706.76	54727.87
706.95	55030.97
707.14	54615.23
707.32	54330.56
707.51	54361.28
707.70	54648.00
707.89	54314.18
708.08	54154.44
708.27	54029.51
708.46	54478.02
708.65	54490.30
708.84	54574.27
709.02	54207.68
709.21	54355.14
709.40	54408.39
709.59	54162.63
709.78	53974.22
709.97	54066.38
710.16	53630.16
710.34	54006.98
710.53	53687.50
710.72	53490.90
710.91	53654.73
711.10	53777.61
711.29	53707.98
711.48	53712.08
711.66	53619.92
711.85	53581.01
712.04	53865.67
712.23	53613.77
712.42	53310.67
712.61	53271.76
712.80	53613.77
712.98	52978.90
713.17	53079.25
713.36	53228.76
713.55	53302.48
713.74	53273.81
713.93	53359.83
714.11	53046.49
714.30	52618.46
714.49	52606.17
714.68	52868.31
714.87	53228.76
715.06	53187.80
715.24	52139.24
715.43	52597.98
715.62	52219.11
715.81	52741.34
716.00	52827.35
716.18	52200.68
716.37	52264.16
716.56	52186.34
716.75	52276.45
716.94	52630.75
717.12	51877.10
717.31	52477.15
717.50	51696.88
717.69	51739.88
717.88	51752.17
718.06	51803.37
718.25	51989.73
718.44	51401.97
718.63	51574.00
718.82	51346.67
719.00	51582.19
719.19	51690.73
719.38	51512.56
719.57	51365.10
719.76	51070.20
719.94	50859.26
720.13	50935.03
720.32	51082.48
720.51	50722.04
720.69	50867.45
720.88	50994.42
721.07	50613.50
721.26	50550.01
721.44	50545.92
721.63	50218.24
721.82	50722.04
722.01	50164.99
722.20	50451.71
722.38	50074.88
722.57	49566.99
722.76	50126.08
722.95	49968.39
723.13	49734.92
723.32	49851.66
723.51	49337.62
723.70	49206.55
723.88	50038.02
724.07	49763.59
724.26	49620.23
724.44	48692.50
724.63	49583.37
724.82	49614.09
725.01	49696.01
725.19	49177.87
725.38	48952.60
725.57	49110.29
725.76	49157.39
725.94	48639.26
726.13	48483.61
726.32	48827.67
726.51	48588.06
726.69	49261.84
726.88	48960.79
727.07	48923.93
727.25	48792.86
727.44	48944.41
727.63	48868.63
727.82	48833.81
728.00	48979.22
728.19	48641.31
728.38	48813.34
728.56	48119.07
728.75	48528.67
728.94	48565.53
729.12	48643.35
729.31	48422.17
729.50	48422.17
729.69	48229.66
729.87	48407.84
730.06	48434.46
730.25	48213.28
730.43	48887.06
730.62	48031.01
730.81	48581.91
730.99	48227.62
731.18	48014.63
731.37	48190.75
731.55	48815.38
731.74	48418.08
731.93	47994.15
732.11	48356.64
732.30	48153.89
732.49	48024.87
732.67	47934.76
732.86	47889.70
733.05	47807.78
733.23	47602.99
733.42	48248.10
733.61	47416.62
733.79	47818.02
733.98	47887.65
734.17	47504.68
734.35	47648.04
734.54	47754.54
734.73	47709.48
734.91	47740.20
735.10	47555.88
735.29	47732.01
735.47	47177.01
735.66	47510.83
735.84	47285.55
736.03	47105.33
736.22	47740.20
736.40	47400.24
736.59	47822.12
736.78	47344.94
736.96	47523.11
737.15	47375.66
737.33	46832.95
737.52	46970.16
737.71	47037.75
737.89	47099.19
738.08	46988.60
738.27	46855.48
738.45	47238.45
738.64	47029.55
738.82	47066.42
739.01	46908.72
739.20	46646.58
739.38	46959.92
739.57	47127.86
739.75	46818.61
739.94	46669.11
740.13	46693.69
740.31	46583.10
740.50	46732.60
740.68	46636.34
740.87	46824.76
741.06	46761.27
741.24	46157.12
741.43	46409.02
741.61	46806.33
741.80	46165.31
741.99	46271.81
742.17	46617.91
742.36	46355.77
742.54	46243.13
742.73	46163.26
742.91	46376.25
743.10	46148.93
743.29	46699.83
743.47	46511.42
743.66	46421.31
743.84	46376.25
744.03	46087.49
744.21	45974.85
744.40	46413.12
744.59	45851.97
744.77	45974.85
744.96	45516.11
745.14	46140.74
745.33	45725.00
745.51	45673.80
745.70	45989.19
745.88	45720.90
746.07	45630.79
746.26	45770.05
746.44	45555.02
746.63	45651.27
746.81	46069.06
747.00	45233.49
747.18	45659.46
747.37	45538.63
747.55	45550.92
747.74	45825.35
747.92	45430.09
748.11	45331.79
748.29	45559.11
748.48	45419.85
748.66	45315.40
748.85	45403.47
749.03	45524.30
749.22	45419.85
749.41	44944.72
749.59	45139.28
749.78	45266.25
749.96	44938.58
750.15	45366.60
750.33	45499.72
750.52	45174.09
750.70	45020.50
750.89	45077.84
751.07	45206.86
751.26	45022.54
751.44	44752.21
751.63	45047.12
751.81	44615.00
752.00	45016.40
752.18	44934.48
752.37	45225.29
752.55	44381.53
752.74	44336.48
752.92	44455.26
753.10	44109.15
753.29	44844.37
753.47	44051.81
753.66	44518.74
753.84	44623.19
754.03	44467.55
754.21	44260.70
754.40	44578.14
754.58	44475.74
754.77	44571.99
754.95	44148.06
755.14	44307.80
755.32	44246.36
755.51	44256.60
755.69	43808.10
755.88	44217.69
756.06	44244.32
756.24	44004.70
756.43	43998.56
756.61	44285.28
756.80	43842.92
756.98	43816.29
757.17	43939.17
757.35	43793.76
757.54	43806.05
757.72	43898.21
757.90	43736.42
758.09	43531.62
758.27	43902.31
758.46	43578.73
758.64	43720.04
758.83	43777.38
759.01	43830.63
759.19	43652.45
759.38	43265.39
759.56	43728.23
759.75	43435.37
759.93	43365.74
760.12	43533.67
760.30	43781.48
760.48	43722.08
760.67	43193.71
760.85	43699.56
761.04	43316.59
761.22	43638.12
761.40	43511.14
761.59	43273.58
761.77	43203.95
761.96	43697.51
762.14	43275.63
762.32	43449.70
762.51	42935.66
762.69	43150.70
762.88	43238.76
763.06	43275.63
763.24	43502.95
763.43	42995.06
763.61	42669.43
763.80	43175.28
763.98	43050.35
764.16	42677.62
764.35	42728.82
764.53	42468.73
764.72	42767.73
764.90	42489.21
765.08	42476.92
765.27	42755.44
765.45	42065.28
765.63	42423.67
765.82	42818.93
766.00	42184.06
766.18	42401.14
766.37	42626.42
766.55	42096.00
766.74	42136.96
766.92	42243.45
767.10	42483.06
767.29	42319.23
767.47	42259.84
767.65	42073.47
767.84	41747.84
768.02	42212.73
768.20	41747.84
768.39	42007.94
768.57	42186.11
768.75	41928.06
768.94	42270.08
769.12	42265.98
769.30	41596.29
769.49	41966.98
769.67	41336.20
769.85	41729.41
770.04	41610.63
770.22	41598.34
770.40	41389.45
770.59	41565.57
770.77	42012.03
770.95	42038.65
771.14	41506.18
771.32	41305.48
771.50	41153.93
771.69	41698.69
771.87	41954.69
772.05	41608.58
772.24	41262.47
772.42	41524.61
772.60	41184.65
772.78	41543.05
772.97	41092.49
773.15	41825.67
773.33	41584.01
773.52	41170.32
773.70	41244.04
773.88	41469.32
774.07	41194.89
774.25	41215.37
774.43	41690.50
774.61	41190.80
774.80	41276.81
774.98	41276.81
775.16	41819.52
775.34	41694.60
775.53	41307.53
775.71	41323.91
775.89	41414.02
776.08	41500.04
776.26	41330.06
776.44	41661.83
776.62	41325.96
776.81	41309.58
776.99	41438.60
777.17	41311.63
777.35	41799.04
777.54	41713.03
777.72	41590.15
777.90	41620.87
778.08	42024.32
778.27	41614.72
778.45	41801.09
778.63	42341.75
778.81	41534.85
779.00	42001.79
779.18	41958.78
779.36	42253.69
779.54	42261.88
779.73	42136.96
779.91	42462.58
780.09	42182.01
780.27	42233.21
780.46	42046.85
780.64	42296.70
780.82	42462.58
781.00	42270.08
781.19	42691.96
781.37	42651.00
781.55	42399.10
781.73	42546.55
781.91	42452.34
782.10	42677.62
782.28	43076.97
782.46	42470.78
782.64	42763.64
782.82	42945.90
783.01	42843.51
783.19	42956.14
783.37	42651.00
783.55	42780.02
783.74	43152.75
783.92	42587.51
784.10	43079.02
784.28	42450.30
784.46	42564.98
784.64	42851.70
784.83	43162.99
785.01	42878.32
785.19	42685.81
785.37	42956.14
785.55	42911.09
785.74	42245.50
785.92	42702.20
786.10	42560.89
786.28	42878.32
786.46	42591.61
786.64	42225.02
786.83	42380.67
787.01	42673.52
787.19	42677.62
787.37	42569.08
787.55	42569.08
787.74	42173.82
787.92	42298.75
788.10	42339.71
788.28	41796.99
788.46	42145.15
788.64	42270.08
788.82	42435.96
789.01	42012.03
789.19	42392.95
789.37	41895.30
789.55	42016.13
789.73	41979.26
789.91	41545.09
790.09	41921.92
790.28	41448.84
790.46	41555.33
790.64	41856.39
790.82	41334.15
791.00	41403.78
791.18	41334.15
791.36	41428.36
791.55	41604.49
791.73	41405.83
791.91	41282.95
792.09	41143.69
792.27	41117.07
792.45	41287.05
792.63	41147.79
792.81	41018.77
793.00	41102.73
793.18	40912.27
793.36	40758.67
793.54	40578.45
793.72	40877.46
793.90	40439.19
794.08	40344.98
794.26	40668.56
794.44	40033.69
794.62	40054.17
794.81	40209.82
794.99	40037.79
795.17	40134.04
795.35	40029.60
795.53	40170.91
795.71	39847.33
795.89	39525.80
796.07	39359.91
796.25	39777.70
796.43	39468.45
796.61	39261.61
796.80	39040.43
796.98	39042.48
797.16	38958.51
797.34	39079.34
797.52	38872.49
797.70	38974.89
797.88	39034.28
798.06	38274.49
798.24	38622.64
798.42	38360.50
798.60	38456.76
798.78	38239.67
798.96	38368.69
799.14	38196.67
799.32	38020.54
799.51	38034.88
799.69	38307.26
799.87	37963.20
800.05	37973.44
800.23	37721.54
800.41	37574.08
800.59	37967.29
800.77	37301.70
800.95	37144.01
801.13	37127.63
801.31	36994.51
801.49	37158.34
801.67	37064.14
801.85	37189.06
802.03	36738.51
802.21	36912.59
802.39	36478.42
802.57	36578.77
802.75	36595.15
802.93	36238.81
803.11	36023.77
803.29	36251.09
803.47	36265.43
803.65	36185.56
803.83	36072.92
804.01	36290.01
804.19	35909.08
804.37	35589.60
804.55	36023.77
804.73	35898.84
804.91	35472.87
805.09	35667.42
805.27	35329.51
805.45	35436.00
805.63	35321.32
805.81	35497.44
805.99	35354.08
806.17	35149.29
806.35	35431.91
806.53	34889.20
806.71	35188.20
806.89	34862.57
807.07	34594.29
807.25	34854.38
807.43	34547.18
807.61	34625.01
807.79	34569.71
807.97	34362.87
808.15	34209.27
808.33	34102.78
808.51	34534.90
808.69	34256.37
808.87	33801.72
809.05	33820.16
809.23	34194.93
809.41	33566.21
809.59	33916.41
809.77	33912.31
809.95	33627.65
810.13	33979.90
810.31	33572.35
810.49	33623.55
810.67	33242.63
810.84	33277.44
811.02	33160.71
811.20	32917.00
811.38	33240.58
811.56	33078.79
811.74	32996.87
811.92	32779.79
812.10	32966.15
812.28	32587.28
812.46	32618.00
812.64	32562.70
812.82	32470.54
813.00	32577.04
813.18	32570.90
813.36	32409.11
813.53	32136.73
813.71	32280.08
813.89	32155.16
814.07	32130.58
814.25	32228.88
814.43	32149.01
814.61	31995.42
814.79	32052.76
814.97	31831.58
815.15	32015.90
815.33	31618.59
815.50	31690.27
815.68	31665.69
815.86	31589.92
816.04	31374.88
816.22	31082.02
816.40	31411.74
816.58	31260.20
816.76	30828.07
816.94	31188.52
817.11	31211.04
817.29	30953.00
817.47	31141.41
817.65	31079.97
817.83	30678.57
818.01	31030.82
818.19	30631.47
818.37	30651.95
818.54	30649.90
818.72	30332.47
818.90	30285.36
819.08	30465.58
819.26	30731.82
819.44	30281.27
819.62	30412.34
819.80	30125.62
819.97	30062.13
820.15	30338.61
820.33	29926.97
820.51	30133.81
820.69	29847.10
820.87	29851.19
821.05	30240.31
821.22	29769.27
821.40	29713.98
821.58	29576.76
821.76	29785.66
821.94	29359.68
822.12	29806.14
822.29	29318.72
822.47	29115.97
822.65	29232.71
822.83	29339.20
823.01	29419.07
823.19	29130.31
823.36	28812.87
823.54	28954.18
823.72	29015.62
823.90	28939.85
824.08	28667.47
824.25	28759.63
824.43	28442.19
824.61	28442.19
824.79	28907.08
824.97	28421.71
825.15	28937.80
825.32	28569.16
825.50	28202.58
825.68	28268.11
825.86	28829.26
826.04	28526.16
826.21	28323.41
826.39	28386.89
826.57	28171.86
826.75	27905.62
826.93	27967.06
827.10	28046.93
827.28	28073.56
827.46	28415.57
827.64	27926.10
827.81	27868.76
827.99	27805.27
828.17	27457.12
828.35	27688.54
828.53	27602.52
828.70	27569.76
828.88	27788.89
829.06	27319.90
829.24	27733.59
829.41	27604.57
829.59	27514.46
829.77	27389.53
829.95	27397.73
830.12	27004.52
830.30	27412.06
830.48	27692.63
830.66	26998.37
830.84	27469.40
831.01	26805.86
831.19	26912.36
831.37	26863.21
831.55	26461.80
831.72	26920.55
831.90	26711.66
832.08	26961.51
832.25	26824.29
832.43	26709.61
832.61	26711.66
832.79	26439.28
832.96	26322.54
833.14	26723.94
833.32	26580.59
833.50	26685.03
833.67	26603.11
833.85	26578.54
834.03	26293.87
834.20	26543.72
834.38	26386.03
834.56	26451.56
834.74	26236.53
834.91	26078.83
835.09	26170.99
835.27	26134.13
835.44	26062.45
835.62	25777.78
835.80	25861.75
835.98	25892.47
836.15	25630.33
836.33	25878.13
836.51	25728.63
836.68	25570.94
836.86	25724.54
837.04	25566.84
837.21	25644.66
837.39	25515.64
837.57	25689.72
837.75	25693.82
837.92	25368.19
838.10	24886.92
838.28	25054.85
838.45	24827.53
838.63	25380.48
838.81	25286.27
838.98	25056.90
839.16	25093.76
839.34	25065.09
839.51	24856.20
839.69	24768.13
839.87	25048.71
840.04	25034.37
840.22	25095.81
840.40	24770.18
840.57	24698.50
840.75	24823.43
840.93	24602.25
841.10	24708.74
841.28	24995.46
841.46	24751.75
841.63	24454.79
841.81	24637.06
841.98	24610.44
842.16	24774.28
842.34	24546.95
842.51	24227.47
842.69	24663.69
842.87	24227.47
843.04	24311.44
843.22	24229.52
843.40	24462.99
843.57	24432.27
843.75	24616.58
843.92	24405.64
844.10	24233.61
844.28	24284.81
844.45	24206.99
844.63	24030.87
844.81	23760.53
844.98	23930.51
845.16	24032.91
845.33	24157.84
845.51	23946.90
845.69	23711.38
845.86	23801.49
846.04	23551.64
846.21	23498.39
846.39	23692.95
846.57	23707.29
846.74	23733.91
846.92	23301.79
847.09	23201.44
847.27	23277.21
847.45	23627.42
847.62	23279.26
847.80	23369.37
847.97	23600.79
848.15	23293.60
848.32	23316.12
848.50	23381.66
848.68	23150.24
848.85	23565.98
849.03	22779.56
849.20	23230.11
849.38	23060.13
849.56	23068.32
849.73	23099.04
849.91	23166.62
850.08	22855.33
850.26	22687.40
850.43	23006.88
850.61	22877.86
850.78	22826.66
850.96	22988.45
851.14	22705.83
851.31	22845.09
851.49	22744.74
851.66	22781.60
851.84	22601.38
852.01	22689.45
852.19	22775.46
852.36	22613.67
852.54	22613.67
852.71	22421.16
852.89	22531.75
853.07	22666.92
853.24	22374.06
853.42	22517.42
853.59	22394.54
853.77	22544.04
853.94	22142.64
854.12	22552.23
854.29	22173.36
854.47	22216.36
854.64	22472.36
854.82	22175.41
854.99	22329.00
855.17	22161.07
855.34	22238.89
855.52	22159.02
855.69	22034.10
855.87	22259.37
856.04	21896.88
856.22	21776.05
856.39	22070.96
856.57	21898.93
856.74	21597.88
856.92	21960.37
857.09	21583.54
857.27	21757.62
857.44	21821.11
857.62	21849.78
857.79	21765.81
857.97	21550.78
858.14	21675.70
858.32	21561.02
858.49	21388.99
858.67	21819.06
858.84	21253.82
859.02	21550.78
859.19	21393.08
859.37	21526.20
859.54	21143.23
859.72	21456.57
859.89	21227.20
860.06	21395.13
860.24	21188.28
860.41	21352.12
860.59	20942.53
860.76	21198.52
860.94	20860.61
861.11	21200.57
861.29	21159.61
861.46	21176.00
861.64	20651.72
861.81	20907.71
861.98	20856.51
862.16	20870.85
862.33	21018.30
862.51	20631.24
862.68	20946.62
862.86	20856.51
863.03	20827.84
863.21	20682.44
863.38	20920.00
863.55	20567.75
863.73	20856.51
863.90	20821.70
864.08	20590.28
864.25	20549.32
864.43	20510.41
864.60	20477.64
864.77	20162.25
864.95	20498.12
865.12	20324.04
865.30	20614.85
865.47	20428.49
865.64	20451.02
865.82	20229.84
865.99	20631.24
866.17	20233.93
866.34	20354.76
866.51	20346.57
866.69	20246.22
866.86	20319.95
867.04	20045.52
867.21	19971.79
867.38	20229.84
867.56	20041.42
867.73	20074.19
867.91	19994.32
868.08	19869.39
868.25	19826.39
868.43	20063.95
868.60	19701.46
868.78	19801.81
868.95	19988.18
869.12	19810.00
869.30	19887.82
869.47	19715.80
869.64	19599.06
869.82	19517.14
869.99	19492.57
870.16	19754.71
870.34	19511.00
870.51	19680.98
870.69	19261.15
870.86	19463.90
871.03	19332.82
871.21	19465.94
871.38	19713.75
871.55	19089.12
871.73	19420.89
871.90	19168.99
872.07	19246.81
872.25	18986.72
872.42	19097.31
872.59	19039.97
872.77	18814.69
872.94	18978.53
873.11	18693.86
873.29	18964.19
873.46	18945.76
873.63	19033.82
873.81	18814.69
873.98	18575.08
874.15	18839.26
874.33	18491.11
874.50	18708.19
874.67	18657.00
874.85	18579.17
875.02	18439.91
875.19	18454.25
875.37	18341.61
875.54	18560.74
875.71	18720.48
875.88	18280.17
876.06	18245.35
876.23	18312.94
876.40	18366.18
876.58	18413.29
876.75	18476.77
876.92	18149.10
877.10	18341.61
877.27	18075.37
877.44	17968.88
877.61	18044.65
877.79	17936.11
877.96	18081.52
878.13	17719.03
878.31	17868.53
878.48	18058.99
878.65	17755.89
878.82	17911.53
879.00	17936.11
879.17	17764.08
879.34	17661.68
879.51	17825.52
879.69	17549.04
879.86	17518.32
880.03	17606.39
880.21	17583.86
880.38	17565.43
880.55	17733.36
880.72	17569.52
880.90	17575.67
881.07	17157.88
881.24	17495.80
881.41	17547.00
881.59	17260.28
881.76	17458.93
881.93	17297.14
882.10	17133.31
882.28	17305.34
882.45	17229.56
882.62	17350.39
882.79	17272.57
882.96	16838.40
883.14	17352.44
883.31	17139.45
883.48	17133.31
883.65	17161.98
883.83	17184.51
884.00	17108.73
884.17	17211.13
884.34	17080.06
884.51	17129.21
884.69	17147.64
884.86	17080.06
885.03	16971.52
885.20	16813.82
885.38	16973.56
885.55	16813.82
885.72	16609.03
885.89	16723.71
886.06	16908.03
886.24	16858.88
886.41	16918.27
886.58	17094.40
886.75	17118.97
886.92	16625.41
887.10	16783.10
887.27	16787.20
887.44	16594.69
887.61	16862.97
887.78	16815.87
887.95	16844.54
888.13	16598.79
888.30	16613.12
888.47	16303.88
888.64	16445.19
888.81	16379.65
888.99	16307.98
889.16	16133.90
889.33	16178.95
889.50	16258.82
889.67	16289.54
889.84	16189.19
890.01	16187.14
890.19	16242.44
890.36	16097.03
890.53	16527.11
890.70	16025.36
890.87	15908.62
891.04	16228.10
891.22	16041.74
891.39	16144.14
891.56	15789.84
891.73	15820.56
891.90	15916.81
892.07	15976.20
892.24	15929.10
892.42	15849.23
892.59	16312.07
892.76	15892.24
892.93	15863.57
893.10	16033.55
893.27	15951.63
893.44	15855.37
893.61	15798.03
893.79	15935.24
893.96	15834.89
894.13	15818.51
894.30	15900.43
894.47	15925.00
894.64	15652.63
894.81	15611.67
894.98	15929.10
895.15	15865.61
895.33	15802.13
895.50	15922.96
895.67	15718.16
895.84	15472.40
896.01	15636.24
896.18	15638.29
896.35	15654.67
896.52	15798.03
896.69	15669.01
896.86	15558.42
897.04	15679.25
897.21	15718.16
897.38	15617.81
897.55	15890.19
897.72	15755.02
897.89	15546.13
898.06	15716.11
898.23	15742.74
898.40	15413.01
898.57	15859.47
898.74	15728.40
898.91	15324.95
899.08	15869.71
899.26	15634.19
899.43	15791.89
899.60	15634.19
899.77	15623.95
899.94	15716.11
900.11	15494.93
900.28	15404.82
900.45	15378.20
900.62	15443.73
900.79	15742.74
900.96	15691.54
901.13	15271.70
901.30	15703.82
901.47	15320.85
901.64	15544.08
901.81	15531.80
901.98	15441.68
902.15	15736.59
902.32	15349.53
902.49	15314.71
902.66	15691.54
902.83	15484.69
903.01	15734.54
903.18	15607.57
903.35	15367.96
903.52	15478.55
903.69	15425.30
903.86	15658.77
904.03	15482.64
904.20	15804.17
904.37	15687.44
904.54	15640.34
904.71	15546.13
904.88	15742.74
905.05	15314.71
905.22	15552.27
905.39	15595.28
905.56	15539.99
905.73	15566.61
905.90	15617.81
906.07	15568.66
906.24	15689.49
906.41	15417.11
906.58	15597.33
906.75	15576.85
906.92	15157.02
907.09	15433.49
907.26	15611.67
907.43	15312.66
907.60	15484.69
907.77	15507.22
907.93	15634.19
908.10	15230.74
908.27	15775.50
908.44	15396.63
908.61	15398.68
908.78	15515.41
908.95	15568.66
909.12	15365.91
909.29	15382.29
909.46	15425.30
909.63	15582.99
909.80	15544.08
909.97	15197.98
910.14	15281.94
910.31	15163.16
910.48	15392.53
910.65	15410.96
910.82	15220.50
910.99	15251.22
911.16	15247.13
911.33	15402.77
911.50	15040.28
911.66	15056.67
911.83	15378.20
912.00	15189.78
912.17	14972.70
912.34	15179.54
912.51	14974.75
912.68	15179.54
912.85	15202.07
913.02	15161.11
913.19	14939.93
913.36	14974.75
913.53	15032.09
913.70	14915.36
913.86	15126.30
914.03	14864.16
914.20	14894.88
914.37	14896.92
914.54	14671.65
914.71	14974.75
914.88	14659.36
915.05	14743.33
915.22	14700.32
915.39	14792.48
915.55	14704.42
915.72	14468.90
915.89	14622.50
916.06	14731.04
916.23	14493.47
916.40	14587.68
916.57	14501.67
916.74	14427.94
916.91	14331.69
917.07	14190.38
917.24	14497.57
917.41	14227.24
917.58	14182.18
917.75	14309.16
917.92	14225.19
918.09	14227.24
918.26	13948.72
918.42	14438.18
918.59	14038.83
918.76	13909.80
918.93	13909.80
919.10	13907.76
919.27	13733.68
919.44	13854.51
919.60	13725.49
919.77	13745.97
919.94	13717.29
920.11	13840.17
920.28	13608.75
920.45	13705.01
920.61	13535.03
920.78	13518.64
920.95	13645.62
921.12	13352.76
921.29	13287.22
921.46	13242.17
921.62	13139.77
921.79	13047.61
921.96	13170.49
922.13	13256.50
922.30	13117.24
922.47	13125.43
922.63	13113.14
922.80	13133.62
922.97	13043.51
923.14	12744.51
923.31	12973.88
923.47	12777.28
923.64	12996.41
923.81	12783.42
923.98	12672.83
924.15	12420.93
924.32	12588.86
924.48	12502.85
924.65	12582.72
924.82	12648.26
924.99	12320.58
925.15	12371.78
925.32	12287.81
925.49	12093.26
925.66	12087.11
925.83	12150.60
925.99	12083.02
926.16	12070.73
926.33	12064.58
926.50	11943.75
926.67	11958.09
926.83	12142.41
927.00	11958.09
927.17	11792.20
927.34	11784.01
927.50	11728.72
927.67	12064.58
927.84	11630.41
928.01	11626.32
928.17	11495.25
928.34	11575.12
928.51	11489.10
928.68	11396.95
928.84	11239.25
929.01	11265.88
929.18	11226.96
929.35	11208.53
929.51	11249.49
929.68	10862.43
929.85	10915.67
930.02	10966.87
930.18	10919.77
930.35	10915.67
930.52	10895.19
930.69	10899.29
930.85	10874.71
931.02	10657.63
931.19	10653.53
931.36	10520.42
931.52	10626.91
931.69	10708.83
931.86	10549.09
932.02	10598.24
932.19	10403.68
932.36	10317.67
932.53	10334.05
932.69	10268.52
932.86	10383.20
933.03	10168.16
933.19	10141.54
933.36	9901.93
933.53	10080.10
933.70	10200.93
933.86	9996.14
934.03	9887.59
934.20	9752.43
934.36	9953.13
934.53	9578.35
934.70	9547.63
934.86	9561.97
935.03	9465.71
935.20	9365.36
935.36	9475.95
935.53	9150.32
935.70	9082.74
935.86	9293.68
936.03	9111.41
936.20	8820.60
936.36	8980.34
936.53	8892.28
936.70	8720.25
936.86	8763.26
937.03	8447.87
937.20	8494.97
937.36	8511.36
937.53	8226.69
937.70	8468.35
937.86	8023.94
938.03	8232.83
938.20	8155.01
938.36	7837.58
938.53	7769.99
938.70	7755.66
938.86	7792.52
939.03	7458.70
939.20	7507.85
939.36	7405.46
939.53	7417.74
939.70	7524.24
939.86	7049.11
940.03	7171.99
940.19	6969.24
940.36	7157.65
940.53	6932.37
940.69	6895.51
940.86	6895.51
941.03	6829.98
941.19	6502.30
941.36	6655.90
941.52	6637.47
941.69	6404.00
941.86	6412.19
942.02	6334.37
942.19	6309.79
942.35	6209.44
942.52	6416.29
942.69	6244.26
942.85	6098.85
943.02	6039.46
943.18	6068.13
943.35	5939.11
943.52	5963.68
943.68	5873.57
943.85	5679.02
944.01	5910.44
944.18	5793.70
944.35	5828.52
944.51	5558.19
944.68	5572.52
944.84	5539.76
945.01	5537.71
945.17	5545.90
945.34	5664.68
945.51	5517.23
945.67	5515.18
945.84	5541.80
946.00	5392.30
946.17	5580.71
946.33	5443.50
946.50	5459.88
946.67	5425.07
946.83	5306.29
947.00	5445.55
947.16	5476.27
947.33	5396.40
947.49	5541.80
947.66	5330.86
947.82	5525.42
947.99	5337.01
948.16	5427.12
948.32	5328.81
948.49	5564.33
948.65	5459.88
948.82	5427.12
948.98	5529.52
949.15	5398.45
949.31	5330.86
949.48	5369.77
949.64	5404.59
949.81	5316.53
949.97	5359.53
950.14	5492.65
950.30	5273.52
950.47	5412.78
950.63	5461.93
950.80	5486.51
950.96	5337.01
951.13	5402.54
951.30	5414.83
951.46	5334.96
951.63	5506.99
951.79	5517.23
951.96	5459.88
952.12	5576.62
952.29	5476.27
952.45	5408.69
952.62	5420.97
952.78	5390.25
952.94	5597.10
953.11	5463.98
953.27	5388.21
953.44	5539.76
953.60	5511.08
953.77	5492.65
953.93	5357.49
954.10	5490.60
954.26	5470.12
954.43	5578.67
954.59	5515.18
954.76	5689.26
954.92	5547.95
955.09	5550.00
955.25	5582.76
955.42	5496.75
955.58	5648.30
955.75	5580.71
955.91	5500.84
956.07	5580.71
956.24	5578.67
956.40	5451.69
956.57	5748.65
956.73	5558.19
956.90	5552.04
957.06	5455.79
957.23	5480.36
957.39	5547.95
957.56	5619.63
957.72	5412.78
957.88	5502.89
958.05	5566.38
958.21	5476.27
958.38	5668.78
958.54	5539.76
958.71	5597.10
958.87	5595.05
959.03	5529.52
959.20	5582.76
959.36	5509.04
959.53	5576.62
959.69	5640.11
959.85	5709.74
960.02	5584.81
960.18	5480.36
960.35	5605.29
960.51	5648.30
960.68	5398.45
960.84	5506.99
961.00	5539.76
961.17	5558.19
961.33	5619.63
961.50	5529.52
961.66	5593.00
961.82	5537.71
961.99	5564.33
962.15	5406.64
962.31	5451.69
962.48	5511.08
962.64	5498.80
962.81	5320.62
962.97	5513.13
963.13	5597.10
963.30	5433.26
963.46	5490.60
963.62	5400.49
963.79	5406.64
963.95	5267.38
964.12	5384.11
964.28	5420.97
964.44	5330.86
964.61	5482.41
964.77	5451.69
964.93	5463.98
965.10	5490.60
965.26	5332.91
965.42	5291.95
965.59	5519.28
965.75	5386.16
965.92	5474.22
966.08	5390.25
966.24	5320.62
966.41	5255.09
966.57	5439.40
966.73	5316.53
966.90	5463.98
967.06	5451.69
967.22	5377.97
967.39	5216.18
967.55	5365.68
967.71	5294.00
967.88	5277.62
968.04	5164.98
968.20	5175.22
968.37	5238.70
968.53	5238.70
968.69	5291.95
968.85	5230.51
969.02	5285.81
969.18	5040.05
969.34	5099.44
969.51	5078.96
969.67	5275.57
969.83	5154.74
970.00	5191.60
970.16	5058.48
970.32	5220.27
970.48	5244.85
970.65	5050.29
970.81	5140.40
970.97	5072.82
971.14	4898.74
971.30	5177.26
971.46	5158.83
971.63	4982.71
971.79	4982.71
971.95	4982.71
972.11	4904.89
972.28	4911.03
972.44	5048.24
972.60	4990.90
972.76	4847.54
972.93	4964.28
973.09	4960.18
973.25	4951.99
973.42	4880.31
973.58	4894.65
973.74	5029.81
973.90	4890.55
974.07	4870.07
974.23	4911.03
974.39	4767.67
974.55	4855.73
974.72	4970.42
974.88	4603.83
975.04	4874.17
975.20	4741.05
975.37	4896.69
975.53	4757.43
975.69	4718.52
975.85	4665.27
976.01	4810.68
976.18	4638.65
976.34	4669.37
976.50	4767.67
976.66	4765.62
976.83	4747.19
976.99	4669.37
977.15	4521.92
977.31	4609.98
977.47	4915.12
977.64	4571.07
977.80	4599.74
977.96	4708.28
978.12	4626.36
978.29	4548.54
978.45	4452.28
978.61	4671.42
978.77	4523.96
978.93	4583.35
979.10	4605.88
979.26	4603.83
979.42	4515.77
979.58	4417.47
979.74	4468.67
979.91	4483.00
980.07	4491.20
980.23	4478.91
980.39	4466.62
980.55	4538.30
980.71	4351.93
980.88	4468.67
981.04	4421.56
981.20	4351.93
981.36	4544.44
981.52	4403.13
981.68	4351.93
981.85	4304.83
982.01	4409.28
982.17	4317.12
982.33	4267.97
982.49	4425.66
982.65	4278.21
982.82	4265.92
982.98	4302.78
983.14	4153.28
983.30	4392.89
983.46	4284.35
983.62	4366.27
983.79	4120.51
983.95	4200.38
984.11	4081.60
984.27	4161.47
984.43	4188.10
984.59	4184.00
984.75	4186.05
984.91	4227.01
985.08	4175.81
985.24	4214.72
985.40	3999.68
985.56	4110.27
985.72	4235.20
985.88	4108.23
986.04	4083.65
986.20	3987.40
986.37	4163.52
986.53	4001.73
986.69	4048.83
986.85	4016.07
987.01	3942.34
987.17	4063.17
987.33	4016.07
987.49	3913.67
987.65	4026.31
987.82	4046.79
987.98	3932.10
988.14	4038.59
988.30	3928.00
988.46	3999.68
988.62	3874.76
988.78	3971.01
988.94	3831.75
989.10	3831.75
989.26	3809.22
989.42	3919.81
989.59	3733.45
989.75	3825.61
989.91	3829.70
990.07	3764.17
990.23	3786.69
990.39	3682.25
990.55	3778.50
990.71	3684.30
990.87	3846.09
991.03	3737.54
991.19	3696.58
991.35	3694.54
991.51	3692.49
991.67	3715.02
991.83	3663.82
992.00	3688.39
992.16	3788.74
992.32	3723.21
992.48	3700.68
992.64	3663.82
992.80	3723.21
992.96	3518.41
993.12	3665.86
993.28	3692.49
993.44	3663.82
993.60	3649.48
993.76	3592.14
993.92	3620.81
994.08	3710.92
994.24	3674.06
994.40	3590.09
994.56	3631.05
994.72	3542.99
994.88	3524.55
995.04	3434.44
995.20	3512.27
995.36	3416.01
995.52	3538.89
995.68	3442.64
995.84	3434.44
996.00	3598.28
996.16	3508.17
996.32	3557.32
996.48	3469.26
996.64	3510.22
996.80	3336.14
996.96	3452.88
997.12	3381.20
997.28	3358.67
997.44	3299.28
997.60	3397.58
997.76	3358.67
997.92	3514.31
998.08	3483.59
998.24	3389.39
998.40	3305.42
998.56	3375.05
998.72	3225.55
998.88	3211.22
999.04	3346.38
999.20	3336.14
999.36	3319.76
999.52	3334.09
999.68	3221.45
999.84	3305.42
1000.00	3250.13
1000.16	3262.41
1000.32	3096.53
1000.48	3356.62
1000.64	3227.60
1000.80	3149.78
1000.95	3182.54
1001.11	3200.98
1001.27	2996.18
1001.43	3203.02
1001.59	3074.00
1001.75	3121.10
1001.91	3299.28
1002.07	3104.72
1002.23	3162.06
1002.39	3074.00
1002.55	3096.53
1002.71	3084.24
1002.87	3160.02
1003.03	3074.00
1003.19	3121.10
1003.34	3188.69
1003.50	2994.13
1003.66	3076.05
1003.82	3092.43
1003.98	3063.76
1004.14	3045.33
1004.30	3125.20
1004.46	2895.83
1004.62	2936.79
1004.78	2994.13
1004.94	2947.03
1005.09	2985.94
1005.25	3098.58
1005.41	2944.98
1005.57	3086.29
1005.73	3030.99
1005.89	2992.08
1006.05	2992.08
1006.21	2918.36
1006.37	2834.39
1006.52	2836.44
1006.68	2899.92
1006.84	3049.43
1007.00	2852.82
1007.16	2910.16
1007.32	2844.63
1007.48	2803.67
1007.64	2797.53
1007.79	2920.40
1007.95	2807.77
1008.11	2914.26
1008.27	2756.57
1008.43	2873.30
1008.59	2871.25
1008.75	2926.55
1008.91	2797.53
1009.06	2783.19
1009.22	2848.72
1009.38	2805.72
1009.54	2824.15
1009.70	2738.13
1009.86	2777.05
1010.01	2748.37
1010.17	2711.51
1010.33	2811.86
1010.49	2715.61
1010.65	2834.39
1010.81	2654.17
1010.96	2813.91
1011.12	2605.02
1011.28	2684.89
1011.44	2721.75
1011.60	2613.21
1011.76	2545.63
1011.91	2731.99
1012.07	2570.20
1012.23	2590.68
1012.39	2609.11
1012.55	2629.59
1012.71	2570.20
1012.86	2633.69
1013.02	2568.15
1013.18	2600.92
1013.34	2598.87
1013.50	2578.39
1013.65	2666.46
1013.81	2484.19
1013.97	2596.82
1014.13	2596.82
1014.29	2584.54
1014.44	2688.98
1014.60	2533.34
1014.76	2574.30
1014.92	2500.57
1015.07	2623.45
1015.23	2531.29
1015.39	2533.34
1015.55	2539.48
1015.71	2545.63
1015.86	2459.61
1016.02	2469.85
1016.18	2475.99
1016.34	2443.23
1016.49	2473.95
1016.65	2523.10
1016.81	2437.08
1016.97	2475.99
1017.12	2543.58
1017.28	2457.56
1017.44	2371.55
1017.60	2381.79
1017.75	2490.33
1017.91	2402.27
1018.07	2426.84
1018.23	2478.04
1018.38	2361.31
1018.54	2439.13
1018.70	2426.84
1018.86	2379.74
1019.01	2373.60
1019.17	2322.40
1019.33	2451.42
1019.49	2344.92
1019.64	2379.74
1019.80	2412.51
1019.96	2445.27
1020.12	2369.50
1020.27	2236.38
1020.43	2328.54
1020.59	2263.01
1020.74	2404.32
1020.90	2396.12
1021.06	2285.53
1021.22	2332.64
1021.37	2373.60
1021.53	2269.15
1021.69	2297.82
1021.84	2230.24
1022.00	2244.57
1022.16	2287.58
1022.31	2410.46
1022.47	2310.11
1022.63	2420.70
1022.79	2232.29
1022.94	2287.58
1023.10	2351.07
1023.26	2248.67
1023.41	2273.25
1023.57	2207.71
1023.73	2328.54
1023.88	2310.11
1024.04	2168.80
1024.20	2246.62
1024.35	2281.44
1024.51	2291.68
1024.67	2217.95
1024.82	2306.01
1024.98	2215.90
1025.14	2199.52
1025.29	2203.61
1025.45	2246.62
1025.61	2142.18
1025.76	2136.03
1025.92	2222.05
1026.08	2291.68
1026.23	2213.85
1026.39	2222.05
1026.55	2148.32
1026.70	2078.69
1026.86	2138.08
1027.02	2209.76
1027.17	2172.89
1027.33	2168.80
1027.48	2176.99
1027.64	2136.03
1027.80	2140.13
1027.95	2189.28
1028.11	2078.69
1028.27	2101.22
1028.42	2125.79
1028.58	2017.25
1028.73	2088.93
1028.89	2076.64
1029.05	2211.81
1029.20	2213.85
>>>>>End Processed Spectral Data<<<<<
