SpectraSuite Data File
++++++++++++++++++++++++++++++++++++
Date: Fri Jun 02 14:44:39 CEST 2017
User: INFO_000
Dark Spectrum Present: No
Reference Spectrum Present: No
Number of Sampled Component Spectra: 1
Spectrometers: USB4H00879
Integration Time (usec): 80000 (USB4H00879)
Spectra Averaged: 1 (USB4H00879)
Boxcar Smoothing: 0 (USB4H00879)
Correct for Electrical Dark: No (USB4H00879)
Strobe/Lamp Enabled: No (USB4H00879)
Correct for Detector Non-linearity: No (USB4H00879)
Correct for Stray Light: No (USB4H00879)
Number of Pixels in Processed Spectrum: 3648
>>>>>Begin Processed Spectral Data<<<<<
345.13	1265.64
345.34	1265.64
345.56	1265.64
345.78	1282.03
345.99	1263.60
346.21	1718.25
346.42	1667.05
346.64	1583.08
346.86	1783.78
347.07	1613.80
347.29	1732.58
347.50	1568.74
347.72	1654.76
347.94	1736.68
348.15	1578.98
348.37	1615.85
348.59	1703.91
348.80	1662.95
349.02	1771.49
349.23	1904.61
349.45	1884.13
349.67	1826.79
349.88	1808.36
350.10	1955.81
350.31	1904.61
350.53	1855.46
350.75	2017.25
350.96	1787.88
351.18	1863.65
351.39	1824.74
351.61	1867.75
351.82	1908.71
352.04	1968.10
352.26	1765.35
352.47	1759.21
352.69	1957.86
352.90	1738.73
353.12	1828.84
353.34	1869.80
353.55	1918.95
353.77	1972.19
353.98	1818.60
354.20	1791.97
354.41	1935.33
354.63	1949.67
354.85	2072.54
355.06	1867.75
355.28	1759.21
355.49	1888.23
355.71	1867.75
355.92	1787.88
356.14	1974.24
356.35	1873.89
356.57	1902.56
356.79	1992.67
357.00	1845.22
357.22	1957.86
357.43	1853.41
357.65	2011.11
357.86	1853.41
358.08	1982.43
358.29	1984.48
358.51	1988.58
358.72	2019.30
358.94	1920.99
359.16	1927.14
359.37	1976.29
359.59	1970.15
359.80	2000.87
360.02	2009.06
360.23	1908.71
360.45	1998.82
360.66	1943.52
360.88	1892.32
361.09	1884.13
361.31	1953.76
361.52	1992.67
361.74	2023.39
361.95	1961.95
362.17	1968.10
362.38	2129.89
362.60	2076.64
362.81	1996.77
363.03	1966.05
363.24	2013.15
363.46	2088.93
363.67	2017.25
363.89	1982.43
364.10	2033.63
364.32	1984.48
364.53	2060.26
364.75	1927.14
364.96	2058.21
365.18	2031.58
365.39	2050.02
365.61	1978.34
365.82	2082.78
366.04	2000.87
366.25	1920.99
366.47	2070.50
366.68	2105.31
366.90	1992.67
367.11	2000.87
367.33	2088.93
367.54	2033.63
367.76	1984.48
367.97	2125.79
368.19	1974.24
368.40	2068.45
368.62	2033.63
368.83	2031.58
369.05	2056.16
369.26	2009.06
369.48	1943.52
369.69	1912.80
369.91	2027.49
370.12	2002.91
370.33	2152.42
370.55	1974.24
370.76	2084.83
370.98	2152.42
371.19	2109.41
371.41	2074.59
371.62	1990.63
371.84	2031.58
372.05	2222.05
372.27	2007.01
372.48	2076.64
372.69	2033.63
372.91	2174.94
373.12	2158.56
373.34	2056.16
373.55	2133.98
373.77	2203.61
373.98	2076.64
374.20	2191.33
374.41	2318.30
374.62	2090.98
374.84	2127.84
375.05	2228.19
375.27	2187.23
375.48	2250.72
375.70	2131.94
375.91	2213.85
376.12	2285.53
376.34	2097.12
376.55	2174.94
376.77	2172.89
376.98	2101.22
377.19	2183.13
377.41	2179.04
377.62	2232.29
377.84	2254.81
378.05	2271.20
378.27	2195.42
378.48	2353.12
378.69	2312.16
378.91	2310.11
379.12	2252.77
379.34	2291.68
379.55	2265.05
379.76	2316.25
379.98	2287.58
380.19	2250.72
380.41	2312.16
380.62	2351.07
380.83	2271.20
381.05	2199.52
381.26	2371.55
381.47	2297.82
381.69	2381.79
381.90	2445.27
382.12	2217.95
382.33	2246.62
382.54	2336.73
382.76	2392.03
382.97	2293.72
383.19	2256.86
383.40	2320.35
383.61	2387.93
383.83	2277.34
384.04	2289.63
384.25	2412.51
384.47	2441.18
384.68	2471.90
384.89	2213.85
385.11	2248.67
385.32	2314.20
385.54	2332.64
385.75	2383.84
385.96	2424.80
386.18	2453.47
386.39	2371.55
386.60	2334.68
386.82	2398.17
387.03	2295.77
387.24	2451.42
387.46	2441.18
387.67	2424.80
387.88	2557.91
388.10	2398.17
388.31	2465.75
388.52	2592.73
388.74	2566.10
388.95	2521.05
389.16	2510.81
389.38	2521.05
389.59	2543.58
389.80	2576.34
390.02	2531.29
390.23	2668.50
390.44	2519.00
390.66	2502.62
390.87	2508.76
391.08	2551.77
391.30	2752.47
391.51	2621.40
391.72	2633.69
391.94	2664.41
392.15	2625.50
392.36	2582.49
392.58	2580.44
392.79	2598.87
393.00	2650.07
393.22	2684.89
393.43	2797.53
393.64	2678.74
393.85	2762.71
394.07	2637.78
394.28	2752.47
394.49	2775.00
394.71	2775.00
394.92	2875.35
395.13	2717.65
395.35	2760.66
395.56	2731.99
395.77	2861.01
395.98	2838.48
396.20	2879.44
396.41	2801.62
396.62	2838.48
396.84	2828.24
397.05	2846.68
397.26	2975.70
397.47	3026.90
397.69	2912.21
397.90	3006.42
398.11	2965.46
398.32	2848.72
398.54	2846.68
398.75	2967.51
398.96	2906.07
399.18	3065.81
399.39	2959.31
399.60	3135.44
399.81	2914.26
400.03	2951.12
400.24	3354.57
400.45	3010.51
400.66	3133.39
400.88	3006.42
401.09	3114.96
401.30	3221.45
401.51	3223.50
401.73	3250.13
401.94	3241.93
402.15	3153.87
402.36	3170.26
402.58	3133.39
402.79	3219.41
403.00	3192.78
403.21	3133.39
403.43	3256.27
403.64	3227.60
403.85	3121.10
404.06	3309.52
404.27	3180.50
404.49	3233.74
404.70	3215.31
404.91	3387.34
405.12	3303.37
405.34	3231.69
405.55	3411.92
405.76	3268.56
405.97	3278.80
406.19	3440.59
406.40	3311.57
406.61	3375.05
406.82	3411.92
407.03	3332.05
407.25	3315.66
407.46	3495.88
407.67	3514.31
407.88	3645.38
408.09	3360.72
408.31	3198.93
408.52	3383.24
408.73	3375.05
408.94	3395.53
409.15	3616.71
409.37	3571.66
409.58	3495.88
409.79	3569.61
410.00	3581.90
410.21	3629.00
410.43	3375.05
410.64	3362.76
410.85	3526.60
411.06	3571.66
411.27	3657.67
411.48	3641.29
411.70	3545.03
411.91	3571.66
412.12	3592.14
412.33	3616.71
412.54	3583.95
412.76	3629.00
412.97	3690.44
413.18	3497.93
413.39	3721.16
413.60	3620.81
413.81	3674.06
414.03	3575.75
414.24	3583.95
414.45	3772.36
414.66	3618.76
414.87	3760.07
415.08	3690.44
415.30	3688.39
415.51	3725.26
415.72	3772.36
415.93	3768.26
416.14	3735.50
416.35	3829.70
416.56	3770.31
416.78	3805.13
416.99	3737.54
417.20	3862.47
417.41	3823.56
417.62	3862.47
417.83	3913.67
418.04	3966.92
418.26	3942.34
418.47	3887.04
418.68	3897.28
418.89	4009.92
419.10	4165.57
419.31	4014.02
419.52	4063.17
419.73	4046.79
419.95	4097.99
420.16	3993.54
420.37	4077.51
420.58	4212.67
420.79	3882.95
421.00	4147.14
421.21	4208.58
421.42	3966.92
421.63	4054.98
421.85	4116.42
422.06	4214.72
422.27	4206.53
422.48	4087.75
422.69	4272.06
422.90	4306.88
423.11	4284.35
423.32	4259.78
423.53	4317.12
423.75	4313.02
423.96	4452.28
424.17	4507.58
424.38	4478.91
424.59	4464.57
424.80	4630.46
425.01	4562.87
425.22	4505.53
425.43	4388.80
425.64	4689.85
425.85	4747.19
426.06	4728.76
426.28	4562.87
426.49	4472.76
426.70	4706.23
426.91	4710.33
427.12	4749.24
427.33	4853.69
427.54	4720.57
427.75	4786.10
427.96	4886.45
428.17	4794.29
428.38	4876.21
428.59	4931.51
428.80	4841.40
429.01	4984.76
429.23	4947.89
429.44	5019.57
429.65	4990.90
429.86	5093.30
430.07	4988.85
430.28	5033.91
430.49	5119.92
430.70	5279.66
430.91	5093.30
431.12	5263.28
431.33	5306.29
431.54	5207.98
431.75	5207.98
431.96	5169.07
432.17	5107.63
432.38	5197.74
432.59	5414.83
432.80	5306.29
433.01	5478.32
433.22	5531.56
433.43	5314.48
433.64	5425.07
433.85	5345.20
434.06	5427.12
434.27	5443.50
434.49	5552.04
434.70	5619.63
434.91	5459.88
435.12	5504.94
435.33	5480.36
435.54	5498.80
435.75	5392.30
435.96	5431.21
436.17	5480.36
436.38	5707.69
436.59	5738.41
436.80	5562.28
437.01	5875.62
437.22	5949.35
437.43	5541.80
437.64	5578.67
437.85	5822.38
438.06	5754.79
438.27	5797.80
438.48	5765.03
438.69	5959.59
438.90	5924.77
439.11	5789.61
439.32	5908.39
439.53	5722.02
439.74	5965.73
439.95	6094.76
440.16	5781.42
440.37	5937.06
440.57	5906.34
440.78	5937.06
440.99	5873.57
441.20	5889.96
441.41	5873.57
441.62	6084.52
441.83	5957.54
442.04	6178.72
442.25	6021.03
442.46	6018.98
442.67	6209.44
442.88	6467.49
443.09	6107.04
443.30	6115.23
443.51	6268.83
443.72	6406.05
443.93	6199.20
444.14	6475.68
444.35	6315.94
444.56	6184.87
444.77	6360.99
444.98	6369.18
445.19	6389.66
445.40	6336.42
445.61	6270.88
445.81	6619.04
446.02	6328.22
446.23	6358.94
446.44	6137.76
446.65	6614.94
446.86	6483.87
447.07	6629.27
447.28	6584.22
447.49	6678.43
447.70	6524.83
447.91	6596.51
448.12	6703.00
448.33	6778.78
448.54	6825.88
448.74	6606.75
448.95	7010.20
449.16	6602.65
449.37	7061.40
449.58	6741.91
449.79	7065.49
450.00	6754.20
450.21	6940.57
450.42	6991.77
450.63	6883.22
450.84	6854.55
451.05	6985.62
451.25	6940.57
451.46	6971.29
451.67	7085.97
451.88	7247.76
452.09	7251.86
452.30	7042.96
452.51	7174.03
452.72	7227.28
452.93	7411.60
453.13	7008.15
453.34	7116.69
453.55	7491.47
453.76	7221.14
453.97	7622.54
454.18	7495.57
454.39	7593.87
454.60	7600.01
454.81	7661.45
455.01	7645.07
455.22	7460.75
455.43	7579.53
455.64	7856.01
455.85	7884.68
456.06	8124.29
456.27	7745.42
456.48	7917.45
456.68	7888.78
456.89	8085.38
457.10	8263.55
457.31	7903.11
457.52	8105.86
457.73	8105.86
457.94	8298.37
458.14	8050.57
458.35	8411.01
458.56	8361.86
458.77	8208.26
458.98	8490.88
459.19	8449.92
459.39	8466.30
459.60	8611.71
459.81	8535.93
460.02	8736.63
460.23	8662.91
460.44	8841.08
460.65	8806.27
460.85	8847.22
461.06	8927.10
461.27	8699.77
461.48	9033.59
461.69	9047.93
461.89	8759.16
462.10	9142.13
462.31	8773.50
462.52	9103.22
462.73	9027.45
462.94	9346.93
463.14	9265.01
463.35	9152.37
463.56	9647.98
463.77	9643.88
463.98	9326.45
464.18	9391.98
464.39	9672.56
464.60	9762.67
464.81	9805.67
465.02	9705.32
465.23	9811.82
465.43	9734.00
465.64	10110.82
465.85	9938.79
466.06	9641.84
466.27	10241.89
466.47	10295.14
466.68	10215.27
466.89	10026.86
467.10	10311.52
467.30	10086.25
467.51	10532.70
467.72	10800.99
467.93	10364.77
468.14	10426.21
468.34	10825.56
468.55	10690.40
468.76	10700.64
468.97	10563.42
469.17	10932.06
469.38	10979.16
469.59	11081.56
469.80	10979.16
470.01	11071.32
470.21	10927.96
470.42	11224.92
470.63	11403.09
470.84	11298.64
471.04	11392.85
471.25	11413.33
471.46	11362.13
471.67	11978.57
471.87	11507.54
472.08	11657.04
472.29	11994.95
472.50	11771.72
472.70	11886.41
472.91	11978.57
473.12	12070.73
473.33	12009.29
473.53	12328.77
473.74	12062.54
473.95	12392.26
474.16	12625.73
474.36	12414.79
474.57	12644.16
474.78	12756.80
474.99	12791.61
475.19	12668.73
475.40	12730.17
475.61	13000.51
475.81	13201.21
476.02	13215.54
476.23	13012.79
476.44	13258.55
476.64	13360.95
476.85	13530.93
477.06	13657.90
477.27	13715.25
477.47	13985.58
477.68	13846.32
477.89	13811.50
478.09	14067.50
478.30	14128.94
478.51	13913.90
478.71	14372.64
478.92	14366.50
479.13	14468.90
479.34	14616.35
479.54	14196.52
479.75	14561.06
479.96	14974.75
480.16	14810.91
480.37	14958.36
480.58	15114.01
480.78	15099.67
480.99	15181.59
481.20	15267.61
481.41	15251.22
481.61	15572.75
481.82	15732.50
482.03	15421.20
482.23	15552.27
482.44	15865.61
482.65	15838.99
482.85	15818.51
483.06	15882.00
483.27	15970.06
483.47	16103.18
483.68	16273.16
483.89	16348.93
484.09	16285.45
484.30	16451.33
484.51	16887.55
484.71	16830.21
484.92	16674.56
485.13	16946.94
485.33	17149.69
485.54	17133.31
485.75	17254.14
485.95	17391.35
486.16	17559.28
486.37	17561.33
486.57	17452.79
486.78	17751.79
486.98	17503.99
487.19	17710.83
487.40	17862.38
487.60	17970.93
487.81	18222.83
488.02	18065.13
488.22	18108.14
488.43	18386.66
488.64	18607.84
488.84	18482.92
489.05	18609.89
489.25	18773.73
489.46	18845.41
489.67	19019.49
489.87	19111.64
490.08	19095.26
490.29	19039.97
490.49	19562.20
490.70	19533.53
490.90	19726.04
491.11	19554.01
491.32	19570.39
491.52	19883.73
491.73	19810.00
491.94	19988.18
492.14	19900.11
492.35	20434.63
492.55	20295.37
492.76	20299.47
492.97	20707.01
493.17	20692.68
493.38	20682.44
493.58	21202.62
493.79	20913.86
494.00	20803.27
494.20	21210.81
494.41	21173.95
494.61	21331.64
494.82	21311.16
495.02	21380.79
495.23	21407.42
495.44	21446.33
495.64	21925.55
495.85	21790.39
496.05	22009.52
496.26	21749.43
496.47	22347.44
496.67	22187.69
496.88	22374.06
497.08	22257.32
497.29	22435.50
497.49	22574.76
497.70	22742.69
497.91	22808.23
498.11	23010.98
498.32	22789.80
498.52	22920.87
498.73	23217.82
498.93	23303.84
499.14	23228.06
499.34	23340.70
499.55	23660.18
499.76	23254.69
499.96	23447.19
500.17	23510.68
500.37	23879.32
500.58	23940.75
500.78	23758.49
500.99	24135.31
501.19	24116.88
501.40	24284.81
501.60	23918.23
501.81	24137.36
502.02	24317.58
502.22	24446.60
502.43	24387.21
502.63	24686.22
502.84	24768.13
503.04	24809.09
503.25	24860.29
503.45	24780.42
503.66	25376.38
503.86	24905.35
504.07	25013.89
504.27	24913.54
504.48	25566.84
504.68	25525.88
504.89	25632.38
505.09	25753.21
505.30	25695.86
505.50	25589.37
505.71	25624.18
505.91	25845.37
506.12	26031.73
506.32	25951.86
506.53	25863.80
506.73	25788.02
506.94	26281.58
507.14	25915.00
507.35	26293.87
507.55	26496.62
507.76	26291.82
507.96	26314.35
508.17	25931.38
508.37	26564.20
508.58	26353.26
508.78	26644.07
508.99	26945.12
509.19	26695.27
509.40	26973.80
509.60	26728.04
509.81	26715.75
510.01	26603.11
510.22	26830.44
510.42	27049.57
510.63	27209.31
510.83	26793.58
511.04	27065.96
511.24	27047.52
511.44	27254.37
511.65	27123.30
511.85	27141.73
512.06	27049.57
512.26	27240.03
512.47	27438.69
512.67	27477.60
512.88	27536.99
513.08	27336.29
513.29	27674.20
513.49	27760.22
513.69	27725.40
513.90	27645.53
514.10	27850.33
514.31	27786.84
514.51	27899.48
514.72	27807.32
514.92	27938.39
515.13	28112.47
515.33	27858.52
515.53	28126.80
515.74	28081.75
515.94	28577.36
516.15	28116.56
516.35	28280.40
516.56	28399.18
516.76	28227.15
516.96	28368.46
517.17	28194.39
517.37	28558.92
517.58	28409.42
517.78	28477.01
517.99	28444.24
518.19	28681.80
518.39	28761.67
518.60	28823.11
518.80	28843.59
519.01	28661.32
519.21	28835.40
519.41	29146.69
519.62	28841.54
519.82	29263.43
520.03	29249.09
520.23	28800.58
520.43	28859.98
520.64	29525.57
520.84	29509.18
521.05	29464.13
521.25	29539.90
521.45	29576.76
521.66	29785.66
521.86	29267.52
522.07	29638.20
522.27	29615.68
522.47	29779.51
522.68	29890.10
522.88	29840.95
523.08	29834.81
523.29	29875.77
523.49	30314.03
523.70	30135.86
523.90	30068.28
524.10	30340.66
524.31	30463.54
524.51	30262.83
524.71	30864.94
524.92	30764.59
525.12	31032.87
525.33	30488.11
525.53	30912.04
525.73	31049.25
525.94	30676.52
526.14	30922.28
526.34	31264.29
526.55	30938.66
526.75	31188.52
526.95	31661.60
527.16	31462.94
527.36	31393.31
527.56	31690.27
527.77	31962.65
527.97	31606.30
528.17	31901.21
528.38	31647.26
528.58	31921.69
528.78	32359.95
528.99	31985.18
529.19	32392.72
529.39	32118.29
529.60	32636.43
529.80	32292.37
530.00	32531.98
530.21	33056.26
530.41	33338.88
530.61	32681.49
530.82	32908.81
531.02	32865.80
531.22	33193.48
531.43	32986.63
531.63	33377.79
531.83	33719.81
532.04	33562.11
532.24	33426.95
532.44	33809.92
532.64	34280.95
532.85	33865.21
533.05	33990.14
533.25	33728.00
533.46	33828.35
533.66	34315.76
533.86	34358.77
534.07	34571.76
534.27	34094.58
534.47	34813.42
534.67	34686.45
534.88	34676.21
535.08	34792.94
535.28	35167.72
535.49	35048.94
535.69	35573.22
535.89	35624.42
536.09	35530.21
536.30	35861.98
536.50	35696.10
536.70	35999.19
536.91	35894.75
537.11	36001.24
537.31	36304.34
537.51	36566.48
537.72	36519.38
537.92	36660.69
538.12	37254.60
538.32	36310.49
538.53	36847.05
538.73	36672.98
538.93	36756.94
539.13	37172.68
539.34	36953.55
539.54	37000.65
539.74	37674.43
539.94	37213.64
540.15	37303.75
540.35	37744.06
540.55	37563.84
540.75	37864.89
540.96	37938.62
541.16	37739.97
541.36	38122.94
541.56	38127.03
541.77	38460.85
541.97	38249.91
542.17	38567.35
542.37	38579.64
542.58	38888.88
542.78	38811.06
542.98	38880.69
543.18	38712.75
543.38	39292.33
543.59	39318.95
543.79	39312.81
543.99	39122.35
544.19	39116.20
544.40	39472.55
544.60	39679.39
544.80	39728.55
545.00	39519.65
545.20	40048.03
545.41	40191.39
545.61	39724.45
545.81	39980.45
546.01	39990.69
546.21	39890.34
546.42	40136.09
546.62	39937.44
546.82	40304.02
547.02	40617.36
547.22	40396.18
547.43	40132.00
547.63	40609.17
547.83	40844.69
548.03	40625.56
548.23	40963.47
548.44	40979.85
548.64	40625.56
548.84	41266.57
549.04	40994.19
549.24	41588.10
549.45	41751.94
549.65	41006.48
549.85	41170.32
550.05	41538.95
550.25	41508.23
550.45	41885.06
550.66	41686.40
550.86	41762.18
551.06	42149.24
551.26	41860.48
551.46	41909.63
551.66	42395.00
551.87	42145.15
552.07	42366.33
552.27	42091.90
552.47	42528.12
552.67	42366.33
552.87	42374.52
553.07	42648.95
553.28	42665.33
553.48	42485.11
553.68	42640.76
553.88	42773.88
554.08	42431.86
554.28	42724.72
554.48	42624.37
554.69	42745.20
554.89	42655.09
555.09	42513.78
555.29	42843.51
555.49	42820.98
555.69	42990.96
555.89	42988.91
556.10	43101.55
556.30	43048.30
556.50	43502.95
556.70	43363.69
556.90	43183.47
557.10	43277.68
557.30	43021.68
557.50	43408.75
557.70	43425.13
557.91	43421.03
558.11	43271.53
558.31	43812.20
558.51	42917.23
558.71	43586.92
558.91	43593.06
559.11	43554.15
559.31	43646.31
559.51	43738.47
559.72	43640.17
559.92	43951.46
560.12	43545.96
560.32	43797.86
560.52	43920.74
560.72	43947.36
560.92	44133.73
561.12	44137.82
561.32	44125.53
561.52	43746.66
561.72	44455.26
561.93	43646.31
562.13	43978.08
562.33	43910.50
562.53	44477.79
562.73	43916.64
562.93	44135.77
563.13	43928.93
563.33	43910.50
563.53	44574.04
563.73	43847.01
563.93	44494.17
564.13	44676.44
564.33	44047.71
564.53	44338.52
564.74	44033.38
564.94	44217.69
565.14	44488.03
565.34	43910.50
565.54	44055.90
565.74	44342.62
565.94	44666.20
566.14	44266.84
566.34	44344.67
566.54	44844.37
566.74	44727.64
566.94	44291.42
567.14	44770.64
567.34	44571.99
567.54	44627.29
567.74	44445.02
567.94	44608.86
568.14	44641.62
568.34	44883.28
568.54	44840.28
568.74	44635.48
568.94	44547.42
569.14	44950.87
569.34	44741.97
569.54	44668.25
569.75	44582.23
569.95	44854.61
570.15	45102.42
570.35	45071.70
570.55	44811.60
570.75	44844.37
570.95	44459.35
571.15	45137.23
571.35	45172.05
571.55	45409.61
571.75	44868.95
571.95	45378.89
572.15	44713.30
572.35	45129.04
572.55	45442.38
572.75	45270.35
572.95	45104.46
573.15	45178.19
573.35	45337.93
573.55	45415.76
573.75	45448.52
573.95	45231.44
574.15	45143.38
574.35	45563.21
574.55	45395.28
574.75	45137.23
574.95	45747.53
575.15	45311.31
575.34	45249.87
575.54	45202.77
575.74	45905.22
575.94	45796.68
576.14	44995.92
576.34	45741.38
576.54	45833.54
576.74	45581.64
576.94	45401.42
577.14	45845.83
577.34	46019.91
577.54	45944.13
577.74	46112.06
577.94	46030.15
578.14	46257.47
578.34	46216.51
578.54	45790.53
578.74	45808.96
578.94	46122.30
579.14	45903.17
579.34	46081.34
579.54	46527.80
579.74	46560.57
579.94	46456.12
580.13	46689.59
580.33	46388.54
580.53	46751.03
580.73	46781.75
580.93	46325.05
581.13	46724.41
581.33	47095.09
581.53	47017.27
581.73	46857.52
581.93	47240.50
582.13	47177.01
582.33	47002.93
582.53	46890.29
582.73	47078.71
582.92	46849.33
583.12	47760.68
583.32	47310.13
583.52	47127.86
583.72	47390.00
583.92	47152.43
584.12	47473.96
584.32	47922.47
584.52	47166.77
584.72	47480.11
584.92	47828.26
585.11	48100.64
585.31	47758.63
585.51	48217.38
585.71	48141.60
585.91	47873.32
586.11	47641.90
586.31	48190.75
586.51	47809.83
586.71	48041.25
586.91	48420.13
587.10	48235.81
587.30	48473.37
587.50	48715.03
587.70	48391.45
587.90	48540.96
588.10	48815.38
588.30	48659.74
588.50	48823.58
588.69	49069.33
588.89	48358.69
589.09	49296.66
589.29	49497.36
589.49	49224.98
589.69	48659.74
589.89	49179.92
590.08	49231.12
590.28	49190.16
590.48	49233.17
590.68	49026.32
590.88	49683.72
591.08	49200.40
591.28	49296.66
591.47	49980.68
591.67	49503.50
591.87	49927.43
592.07	49857.80
592.27	49765.64
592.47	49747.21
592.67	49698.06
592.86	49755.40
593.06	50117.89
593.26	50162.95
593.46	49771.78
593.66	50418.94
593.86	50500.86
594.05	50246.91
594.25	50717.95
594.45	50386.18
594.65	50582.78
594.85	50089.22
595.05	51145.97
595.24	51119.35
595.44	50480.38
595.64	50836.73
595.84	51150.07
596.04	51313.90
596.23	51131.64
596.43	51490.03
596.63	51078.39
596.83	51133.68
597.03	51504.37
597.22	51459.31
597.42	51471.60
597.62	51973.35
597.82	51715.31
598.02	51860.71
598.21	52118.76
598.41	51743.98
598.61	51862.76
598.81	51649.77
599.01	52337.89
599.20	52149.48
599.40	51975.40
599.60	52253.92
599.80	52479.20
600.00	52540.64
600.19	52610.27
600.39	52036.84
600.59	52733.15
600.79	52767.96
600.98	52491.49
601.18	52958.42
601.38	52880.60
601.58	52993.24
601.78	52813.02
601.97	53216.47
602.17	53538.00
602.37	53658.83
602.57	53601.49
602.76	53462.22
602.96	53376.21
603.16	53593.29
603.36	53490.90
603.55	54271.17
603.75	53728.46
603.95	53982.41
604.15	54289.60
604.34	53880.01
604.54	54338.75
604.74	54510.78
604.94	54449.35
605.13	54516.93
605.33	54219.97
605.53	54322.37
605.73	54695.10
605.92	54516.93
606.12	54959.29
606.32	54666.43
606.52	54566.08
606.71	54858.94
606.91	55180.47
607.11	55059.64
607.30	54777.02
607.50	54949.05
607.70	55246.00
607.90	55098.55
608.09	55096.50
608.29	55119.03
608.49	55280.82
608.68	55067.83
608.88	55096.50
609.08	54891.71
609.28	55477.43
609.47	55076.02
609.67	55794.86
609.87	55823.53
610.06	55985.32
610.26	55616.69
610.46	56011.95
610.66	55624.88
610.85	55792.81
611.05	55383.22
611.25	56409.25
611.44	55690.41
611.64	55839.92
611.84	55848.11
612.03	55594.16
612.23	55866.54
612.43	56155.30
612.62	55925.93
612.82	56097.96
613.02	56057.00
613.21	56181.93
613.41	55862.44
613.61	56226.98
613.80	55690.41
614.00	55682.22
614.20	55547.06
614.39	55911.59
614.59	56366.24
614.79	55807.15
614.98	56095.91
615.18	56507.55
615.38	56186.02
615.57	55637.17
615.77	56493.22
615.97	56308.90
616.16	56605.86
616.36	56284.33
616.56	56816.80
616.75	56353.96
616.95	55973.03
617.15	55880.88
617.34	56138.92
617.54	56013.99
617.74	56001.71
617.93	56120.49
618.13	55829.68
618.32	56603.81
618.52	56382.63
618.72	56571.04
618.91	56534.18
619.11	56097.96
619.31	56333.48
619.50	56118.44
619.70	55825.58
619.90	56087.72
620.09	55991.47
620.29	55819.44
620.48	56075.43
620.68	56194.21
620.88	55198.90
621.07	55956.65
621.27	56157.35
621.46	55764.14
621.66	56145.06
621.86	56018.09
622.05	55733.42
622.25	56188.07
622.44	55706.80
622.64	55628.98
622.84	55970.99
623.03	55708.85
623.23	55934.12
623.42	56104.10
623.62	55993.51
623.82	56403.11
624.01	55379.12
624.21	55801.00
624.40	55733.42
624.60	55772.33
624.80	55432.37
624.99	55745.71
625.19	55321.78
625.38	55399.60
625.58	55626.93
625.77	55628.98
625.97	55495.86
626.17	55125.17
626.36	55637.17
626.56	55690.41
626.75	55188.66
626.95	55831.72
627.14	55129.27
627.34	55663.79
627.54	55209.14
627.73	55082.17
627.93	55768.24
628.12	55149.75
628.32	55522.48
628.51	55540.91
628.71	55473.33
628.90	55063.74
629.10	55567.54
629.30	55418.03
629.49	55231.67
629.69	55139.51
629.88	55368.88
630.08	55573.68
630.27	55030.97
630.47	55133.37
630.66	55235.77
630.86	55268.53
631.05	55012.54
631.25	55250.10
631.44	55268.53
631.64	54922.43
631.84	55448.75
632.03	55671.98
632.23	55190.71
632.42	55293.11
632.62	55207.09
632.81	55166.13
633.01	54963.39
633.20	55284.92
633.40	55248.05
633.59	55278.77
633.79	54504.64
633.98	55035.06
634.18	55399.60
634.37	54815.93
634.57	55067.83
634.76	55401.65
634.96	55278.77
635.15	55381.17
635.35	54617.28
635.54	54586.56
635.74	54871.23
635.93	55096.50
636.13	55006.39
636.32	54801.60
636.52	54908.09
636.71	54944.95
636.91	54592.70
637.10	54719.68
637.30	54830.27
637.49	54965.43
637.69	54838.46
637.88	55082.17
638.08	54557.89
638.27	54926.52
638.46	54852.80
638.66	54840.51
638.85	54916.28
639.05	55559.34
639.24	55307.44
639.44	54502.59
639.63	55098.55
639.83	54746.30
640.02	55133.37
640.22	54842.56
640.41	55123.13
640.61	54279.36
640.80	55280.82
640.99	54516.93
641.19	55415.99
641.38	54637.76
641.58	54772.92
641.77	55063.74
641.97	54301.89
642.16	54330.56
642.36	55002.30
642.55	55100.60
642.74	54674.62
642.94	55071.93
643.13	54607.04
643.33	54662.33
643.52	55196.85
643.72	54578.37
643.91	55211.19
644.10	55033.02
644.30	55366.84
644.49	54973.63
644.69	55184.57
644.88	55149.75
645.08	55170.23
645.27	54842.56
645.46	54408.39
645.66	55164.09
645.85	55039.16
646.05	55057.59
646.24	55121.08
646.43	54670.53
646.63	55227.57
646.82	55106.74
647.02	55276.72
647.21	55252.15
647.40	54887.61
647.60	55067.83
647.79	55577.78
647.99	55428.27
648.18	55295.16
648.37	55710.89
648.57	55237.81
648.76	55352.50
648.96	55295.16
649.15	55415.99
649.34	55747.76
649.54	55276.72
649.73	55080.12
649.92	55616.69
650.12	55295.16
650.31	55499.95
650.51	55518.38
650.70	55671.98
650.89	55248.05
651.09	56134.82
651.28	55342.26
651.47	55823.53
651.67	55704.75
651.86	55616.69
652.06	55278.77
652.25	55776.43
652.44	55274.68
652.64	55622.83
652.83	55725.23
653.02	55286.96
653.22	55647.41
653.41	55465.14
653.60	55309.49
653.80	55241.91
653.99	55938.22
654.18	55569.58
654.38	55485.62
654.57	56016.04
654.76	55530.67
654.96	55993.51
655.15	55579.82
655.34	56145.06
655.54	55690.41
655.73	56028.33
655.92	56147.11
656.12	55483.57
656.31	55864.49
656.50	56319.14
656.70	56153.26
656.89	55743.66
657.08	55844.01
657.28	55749.81
657.47	55735.47
657.66	56448.16
657.86	55657.65
658.05	55899.31
658.24	56364.20
658.43	56179.88
658.63	56286.37
658.82	56005.80
659.01	56087.72
659.21	56278.18
659.40	56386.72
659.59	56071.34
659.79	56507.55
659.98	56517.79
660.17	56411.30
660.36	56077.48
660.56	56587.42
660.75	56923.29
660.94	56464.55
661.14	56349.86
661.33	56493.22
661.52	56370.34
661.71	56734.88
661.91	56448.16
662.10	56360.10
662.29	57025.69
662.49	56501.41
662.68	56816.80
662.87	56857.76
663.06	56456.35
663.26	56792.22
663.45	57212.06
663.64	56734.88
663.83	57193.62
664.03	56663.20
664.22	56898.72
664.41	57611.41
664.60	57074.84
664.80	57040.03
664.99	56388.77
665.18	57164.95
665.37	56788.13
665.57	57169.05
665.76	57029.79
665.95	56892.57
666.14	57164.95
666.34	57064.60
666.53	57222.29
666.72	56890.52
666.91	56849.56
667.11	56630.43
667.30	57263.25
667.49	56972.44
667.68	56941.72
667.87	57048.22
668.07	57803.92
668.26	57582.74
668.45	57234.58
668.64	56999.07
668.84	57509.01
669.03	57394.32
669.22	57187.48
669.41	57382.04
669.60	57111.70
669.80	57339.03
669.99	57545.87
670.18	57480.34
670.37	57074.84
670.57	57650.32
670.76	57357.46
670.95	58004.62
671.14	57709.71
671.33	57210.01
671.53	57769.10
671.72	57488.53
671.91	57189.53
672.10	57386.13
672.29	57357.46
672.48	57244.82
672.68	58170.50
672.87	57816.21
673.06	57513.11
673.25	57418.90
673.44	57695.38
673.64	57539.73
673.83	57506.96
674.02	57439.38
674.21	57414.80
674.40	57840.78
674.59	57279.64
674.79	57758.86
674.98	57466.00
675.17	57846.93
675.36	57640.08
675.55	57812.11
675.74	57648.27
675.94	57898.12
676.13	57705.62
676.32	58213.51
676.51	57971.85
676.70	57779.34
676.89	57910.41
677.08	58029.19
677.28	57560.21
677.47	58107.02
677.66	58395.78
677.85	57926.80
678.04	57752.72
678.23	57767.05
678.42	58031.24
678.62	57816.21
678.81	57947.28
679.00	57947.28
679.19	58365.06
679.38	58233.99
679.57	58127.50
679.76	58180.74
679.96	58365.06
680.15	57808.01
680.34	57891.98
680.53	58221.70
680.72	58139.78
680.91	58297.48
681.10	57742.48
681.29	58422.40
681.48	58340.49
681.68	57742.48
681.87	57664.66
682.06	57627.79
682.25	57466.00
682.44	57717.90
682.63	57791.63
682.82	57549.97
683.01	57670.80
683.20	57357.46
683.39	57670.80
683.59	57869.45
683.78	57683.09
683.97	57322.65
684.16	57791.63
684.35	57291.93
684.54	57808.01
684.73	57937.04
684.92	57527.44
685.11	57013.40
685.30	57410.71
685.49	58205.32
685.69	57762.96
685.88	57431.19
686.07	57480.34
686.26	57447.57
686.45	57441.43
686.64	57586.83
686.83	57394.32
687.02	57283.73
687.21	57767.05
687.40	57423.00
687.59	57156.76
687.78	57414.80
687.97	57865.36
688.16	57367.70
688.35	57339.03
688.54	57238.68
688.74	57666.70
688.93	56792.22
689.12	57259.16
689.31	57343.12
689.50	57263.25
689.69	57005.21
689.88	56835.23
690.07	57074.84
690.26	56677.54
690.45	57660.56
690.64	57048.22
690.83	56841.37
691.02	56958.11
691.21	57054.36
691.40	57201.82
691.59	57152.66
691.78	56949.92
691.97	57142.42
692.16	56935.58
692.35	57177.24
692.54	56831.13
692.73	56966.30
692.92	57234.58
693.11	56669.34
693.30	56489.12
693.49	56661.15
693.68	56706.21
693.87	56718.49
694.06	56278.18
694.25	56294.56
694.44	56243.37
694.63	56292.52
694.82	56384.68
695.01	56513.70
695.20	55948.46
695.39	55936.17
695.58	56220.84
695.77	56296.61
695.96	56128.68
696.15	56067.24
696.34	55827.63
696.53	55962.79
696.72	56022.19
696.91	55991.47
697.10	56001.71
697.29	55203.00
697.48	56202.41
697.67	55844.01
697.86	55686.32
698.05	55489.71
698.24	55884.97
698.43	55342.26
698.62	55854.25
698.81	55643.31
699.00	55866.54
699.19	55256.24
699.38	55588.02
699.57	55180.47
699.76	55575.73
699.95	55243.96
700.14	55000.25
700.32	55235.77
700.51	55278.77
700.70	55555.25
700.89	55334.07
701.08	55182.52
701.27	54668.48
701.46	55309.49
701.65	54232.26
701.84	55217.33
702.03	54914.23
702.22	54875.32
702.41	54740.16
702.60	54789.31
702.79	54525.12
702.98	54383.81
703.17	54650.05
703.35	54330.56
703.54	54392.00
703.73	55063.74
703.92	54678.72
704.11	54392.00
704.30	54295.75
704.49	54324.42
704.68	54090.95
704.87	54015.18
705.06	54394.05
705.25	54099.14
705.43	53750.99
705.62	54475.97
705.81	53769.42
706.00	53826.76
706.19	53249.24
706.38	53820.62
706.57	54129.86
706.76	53304.53
706.95	53718.22
707.14	53515.47
707.32	53646.54
707.51	53478.61
707.70	53292.24
707.89	53462.22
708.08	53208.28
708.27	53484.75
708.46	53886.15
708.65	53263.57
708.84	53621.97
709.02	53099.73
709.21	53279.96
709.40	53298.39
709.59	53152.98
709.78	53036.25
709.97	53181.65
710.16	52950.23
710.34	52913.37
710.53	52653.28
710.72	52835.55
710.91	52856.03
711.10	53060.82
711.29	52501.73
711.48	52503.77
711.66	52690.14
711.85	52602.08
712.04	52534.49
712.23	52172.00
712.42	52315.36
712.61	52397.28
712.80	52210.92
712.98	52585.69
713.17	51903.72
713.36	52083.94
713.55	52098.28
713.74	52106.47
713.93	52239.59
714.11	52016.36
714.30	51762.41
714.49	51303.67
714.68	51623.15
714.87	52159.72
715.06	51758.31
715.24	51719.40
715.43	51803.37
715.62	51340.53
715.81	51256.56
716.00	51518.70
716.18	51207.41
716.37	50978.04
716.56	50926.84
716.75	51739.88
716.94	51383.54
717.12	50742.52
717.31	51115.25
717.50	51123.44
717.69	50703.61
717.88	51252.47
718.06	51229.94
718.25	51395.82
718.44	50617.60
718.63	50806.01
718.82	50390.27
719.00	50226.43
719.19	50558.20
719.38	50568.44
719.57	50115.84
719.76	49857.80
719.94	49843.46
720.13	49878.28
720.32	49949.96
720.51	50164.99
720.69	50300.16
720.88	49861.90
721.07	49972.49
721.26	49558.80
721.44	49329.42
721.63	49653.00
721.82	49296.66
722.01	49612.04
722.20	49517.84
722.38	49394.96
722.57	48755.99
722.76	49487.12
722.95	49419.53
723.13	48977.17
723.32	49050.90
723.51	48663.83
723.70	48846.10
723.88	48760.09
724.07	48602.39
724.26	48872.73
724.44	48432.41
724.63	48618.78
724.82	48723.22
725.01	48244.00
725.19	48442.65
725.38	48024.87
725.57	48350.49
725.76	48477.47
725.94	47676.71
726.13	47973.67
726.32	47670.57
726.51	47803.69
726.69	48551.20
726.88	48246.05
727.07	47887.65
727.25	47789.35
727.44	47992.10
727.63	48303.39
727.82	48397.60
728.00	48182.56
728.19	47772.97
728.38	48166.18
728.56	47750.44
728.75	48264.48
728.94	47695.14
729.12	47983.91
729.31	47842.60
729.50	47736.10
729.69	48049.44
729.87	47764.78
730.06	47994.15
730.25	47330.61
730.43	48373.02
730.62	47322.41
730.81	48010.53
730.99	47764.78
731.18	47584.55
731.37	47643.94
731.55	48000.29
731.74	48246.05
731.93	47906.08
732.11	48112.93
732.30	47869.22
732.49	47355.18
732.67	47469.87
732.86	47361.33
733.05	47662.38
733.23	47185.20
733.42	47664.42
733.61	47283.50
733.79	47473.96
733.98	47858.98
734.17	47490.35
734.35	47514.92
734.54	47736.10
734.73	47412.52
734.91	47228.21
735.10	47164.72
735.29	47361.33
735.47	47101.23
735.66	47416.62
735.84	47662.38
736.03	46685.50
736.22	47586.60
736.40	47263.02
736.59	47105.33
736.78	47054.13
736.96	47422.76
737.15	47283.50
737.33	46984.50
737.52	47134.00
737.71	47011.12
737.89	46863.67
738.08	46685.50
738.27	46861.62
738.45	47453.48
738.64	46980.40
738.82	46751.03
739.01	46886.20
739.20	47220.02
739.38	47174.96
739.57	47256.88
739.75	46943.54
739.94	46593.34
740.13	46841.14
740.31	46624.06
740.50	46878.00
740.68	46849.33
740.87	46904.63
741.06	46669.11
741.24	46476.60
741.43	46323.01
741.61	46497.08
741.80	46478.65
741.99	46331.20
742.17	46419.26
742.36	46611.77
742.54	46626.10
742.73	46798.13
742.91	46748.98
743.10	46511.42
743.29	46589.24
743.47	46777.65
743.66	46628.15
743.84	46341.44
744.03	46703.93
744.21	46570.81
744.40	46611.77
744.59	46421.31
744.77	45929.80
744.96	46417.21
745.14	46484.79
745.33	46058.82
745.51	46165.31
745.70	46486.84
745.88	46701.88
746.07	46193.98
746.26	45692.23
746.44	45946.18
746.63	46093.63
746.81	46114.11
747.00	45980.99
747.18	46034.24
747.37	46290.24
747.55	45802.82
747.74	46155.07
747.92	45901.12
748.11	45804.87
748.29	45935.94
748.48	46087.49
748.66	46019.91
748.85	45825.35
749.03	45888.84
749.22	45995.33
749.41	45706.57
749.59	45741.38
749.78	46013.76
749.96	45618.50
750.15	45894.98
750.33	45808.96
750.52	45911.36
750.70	45460.81
750.89	45495.63
751.07	45217.10
751.26	45440.33
751.44	45419.85
751.63	45569.35
751.81	45604.17
752.00	45565.26
752.18	45905.22
752.37	45469.00
752.55	45018.45
752.74	45036.88
752.92	45229.39
753.10	45090.13
753.29	45454.67
753.47	45083.98
753.66	44860.76
753.84	44991.83
754.03	45303.12
754.21	45163.85
754.40	45593.93
754.58	45233.49
754.77	44899.67
754.95	45069.65
755.14	44758.36
755.32	44922.19
755.51	44604.76
755.69	45028.69
755.88	45122.90
756.06	45602.12
756.24	44807.51
756.43	44932.43
756.61	44559.70
756.80	44774.74
756.98	44938.58
757.17	44606.81
757.35	44623.19
757.54	44975.44
757.72	44836.18
757.90	44680.53
758.09	44819.80
758.27	44625.24
758.46	44150.11
758.64	44422.49
758.83	44574.04
759.01	44750.17
759.19	44594.52
759.38	44793.17
759.56	44483.93
759.75	44754.26
759.93	44268.89
760.12	44330.33
760.30	44354.91
760.48	44399.96
760.67	44248.41
760.85	44500.31
761.04	44455.26
761.22	44461.40
761.40	44359.00
761.59	44545.37
761.77	44162.40
761.96	44152.16
762.14	44111.20
762.32	44248.41
762.51	43890.02
762.69	43879.78
762.88	44076.38
763.06	44129.63
763.24	44383.58
763.43	44350.81
763.61	43709.80
763.80	43570.54
763.98	43562.34
764.16	43586.92
764.35	43408.75
764.53	42976.62
764.72	43742.56
764.90	43476.33
765.08	43693.41
765.27	43998.56
765.45	43079.02
765.63	43208.04
765.82	43466.09
766.00	43011.44
766.18	43402.60
766.37	43728.23
766.55	43287.92
766.74	43177.33
766.92	43214.19
767.10	43296.11
767.29	43070.83
767.47	42503.54
767.65	43152.75
767.84	42876.27
768.02	43242.86
768.20	42651.00
768.39	42902.90
768.57	43203.95
768.75	42929.52
768.94	42825.07
769.12	42739.06
769.30	42669.43
769.49	42659.19
769.67	42513.78
769.85	42268.03
770.04	42671.48
770.22	42507.64
770.40	42577.27
770.59	42718.58
770.77	42952.05
770.95	42417.53
771.14	42358.14
771.32	42116.48
771.50	42169.72
771.69	42567.03
771.87	42849.65
772.05	41870.72
772.24	42032.51
772.42	42366.33
772.60	42030.46
772.78	41928.06
772.97	42104.19
773.15	42124.67
773.33	41964.93
773.52	41831.81
773.70	41852.29
773.88	42042.75
774.07	41999.74
774.25	42116.48
774.43	42345.85
774.61	42091.90
774.80	42255.74
774.98	42235.26
775.16	41737.60
775.34	42247.55
775.53	41940.35
775.71	42816.88
775.89	42161.53
776.08	42003.84
776.26	42349.95
776.44	42059.13
776.62	41928.06
776.81	41952.64
776.99	42409.34
777.17	42235.26
777.35	42288.51
777.54	42896.75
777.72	42132.86
777.90	42542.45
778.08	42956.14
778.27	42202.49
778.45	42651.00
778.63	42315.13
778.81	41997.70
779.00	42829.17
779.18	42349.95
779.36	42724.72
779.54	42653.05
779.73	42548.60
779.91	42685.81
780.09	42665.33
780.27	42628.47
780.46	42751.35
780.64	43070.83
780.82	42716.53
781.00	43087.21
781.19	43249.00
781.37	42702.20
781.55	42849.65
781.73	43558.25
781.91	43074.93
782.10	42984.82
782.28	43330.92
782.46	42679.67
782.64	43341.16
782.82	42997.10
783.01	43537.77
783.19	43382.12
783.37	43277.68
783.55	43132.27
783.74	43570.54
783.92	43040.11
784.10	43730.28
784.28	43476.33
784.46	42816.88
784.64	43298.16
784.83	43541.86
785.01	43535.72
785.19	43390.31
785.37	43531.62
785.55	42915.19
785.74	42835.31
785.92	42857.84
786.10	43472.23
786.28	43316.59
786.46	42923.38
786.64	42491.26
786.83	42870.13
787.01	42855.79
787.19	42653.05
787.37	42763.64
787.55	42444.15
787.74	42689.91
787.92	42579.32
788.10	42581.37
788.28	42288.51
788.46	42691.96
788.64	42407.29
788.82	42548.60
789.01	42411.38
789.19	42366.33
789.37	42009.98
789.55	41739.65
789.73	41956.74
789.91	41543.05
790.09	41940.35
790.28	41590.15
790.46	41186.70
790.64	41751.94
790.82	41868.67
791.00	41543.05
791.18	41397.64
791.36	41438.60
791.55	41514.37
791.73	41559.43
791.91	41454.98
792.09	40967.57
792.27	41471.37
792.45	40885.65
792.63	41260.43
792.81	41348.49
793.00	41362.82
793.18	40609.17
793.36	40818.07
793.54	40879.50
793.72	40439.19
793.90	40555.93
794.08	40355.22
794.26	40195.48
794.44	39888.29
794.62	40039.84
794.81	39966.11
794.99	39900.58
795.17	39587.24
795.35	39847.33
795.53	39566.76
795.71	39548.32
795.89	39533.99
796.07	39347.62
796.25	39157.16
796.43	39384.49
796.61	39009.71
796.80	39218.60
796.98	39189.93
797.16	38766.00
797.34	38948.27
797.52	38696.37
797.70	38727.09
797.88	38571.44
798.06	38256.06
798.24	38673.84
798.42	38333.88
798.60	38272.44
798.78	38483.38
798.96	38071.74
799.14	37778.88
799.32	38028.73
799.51	37862.85
799.69	37686.72
799.87	37772.74
800.05	37643.71
800.23	37680.58
800.41	37156.30
800.59	37227.98
800.77	37561.79
800.95	36943.31
801.13	37170.63
801.31	36650.45
801.49	36826.57
801.67	36320.73
801.85	36337.11
802.03	36572.63
802.21	36031.96
802.39	36203.99
802.57	36337.11
802.75	36062.68
802.93	35982.81
803.11	36070.87
803.29	35954.14
803.47	35909.08
803.65	35831.26
803.83	35890.65
804.01	35579.36
804.19	35294.69
804.37	35278.31
804.55	35442.15
804.73	35405.28
804.91	35091.94
805.09	34934.25
805.27	35053.03
805.45	35022.31
805.63	35050.99
805.81	34967.02
805.99	34891.24
806.17	34444.79
806.35	34743.79
806.53	34526.71
806.71	34153.97
806.89	34428.40
807.07	34510.32
807.25	34317.81
807.43	34266.61
807.61	34158.07
807.79	34328.05
807.97	33867.26
808.15	34125.30
808.33	33580.54
808.51	33644.03
808.69	33736.19
808.87	33261.06
809.05	33375.75
809.23	33404.42
809.41	33240.58
809.59	32988.68
809.77	33273.35
809.95	32654.86
810.13	32888.33
810.31	32900.62
810.49	33236.48
810.67	32857.61
810.84	32914.95
811.02	32767.50
811.20	32394.77
811.38	32740.88
811.56	32273.94
811.74	32415.25
811.92	32261.65
812.10	32257.56
812.28	32513.55
812.46	32249.36
812.64	32122.39
812.82	31987.22
813.00	32063.00
813.18	32241.17
813.36	31677.98
813.53	31479.33
813.71	31671.84
813.89	31682.08
814.07	31665.69
814.25	31383.07
814.43	31045.16
814.61	31190.56
814.79	30903.85
814.97	30961.19
815.15	31475.23
815.33	30926.38
815.50	30899.75
815.68	30795.31
815.86	31165.99
816.04	31006.25
816.22	30600.75
816.40	30889.51
816.58	30819.88
816.76	30627.37
816.94	30654.00
817.11	30555.69
817.29	30531.12
817.47	30340.66
817.65	30250.55
817.83	30299.70
818.01	29996.60
818.19	29986.36
818.37	30037.56
818.54	29486.65
818.72	30119.48
818.90	30240.31
819.08	30082.61
819.26	29918.78
819.44	29744.70
819.62	29396.54
819.80	29613.63
819.97	29664.83
820.15	29509.18
820.33	29447.74
820.51	29601.34
820.69	29122.12
820.87	29486.65
821.05	29285.95
821.22	29150.79
821.40	29056.58
821.58	29191.75
821.76	28866.12
821.94	28857.93
822.12	28935.75
822.29	28759.63
822.47	28565.07
822.65	28759.63
822.83	28628.56
823.01	28814.92
823.19	28483.15
823.36	28474.96
823.54	28565.07
823.72	28300.88
823.90	28440.14
824.08	28182.10
824.25	28401.23
824.43	27973.21
824.61	27979.35
824.79	28317.26
824.97	28286.54
825.15	28180.05
825.32	27965.01
825.50	27340.38
825.68	27459.16
825.86	28094.04
826.04	28137.04
826.21	28024.40
826.39	27530.84
826.57	27825.75
826.75	27582.04
826.93	27338.33
827.10	27385.44
827.28	27498.08
827.46	27375.20
827.64	27496.03
827.81	26975.84
827.99	27440.73
828.17	27074.15
828.35	27324.00
828.53	27219.55
828.70	27137.63
828.88	27205.22
829.06	27102.82
829.24	27319.90
829.41	27162.21
829.59	27065.96
829.77	27104.87
829.95	26943.08
830.12	26879.59
830.30	27045.48
830.48	26859.11
830.66	26449.52
830.84	26646.12
831.01	26398.32
831.19	26611.31
831.37	26191.47
831.55	26504.81
831.72	26439.28
831.90	26250.86
832.08	26414.70
832.25	26390.13
832.43	26572.39
832.61	26093.17
832.79	26023.54
832.96	26144.37
833.14	26420.84
833.32	26709.61
833.50	26261.10
833.67	26046.07
833.85	25960.05
834.03	25693.82
834.20	25871.99
834.38	25738.87
834.56	25886.32
834.74	25669.24
834.91	25665.14
835.09	25835.13
835.27	25464.44
835.44	25792.12
835.62	25593.47
835.80	25278.08
835.98	25769.59
836.15	25667.19
836.33	25282.17
836.51	25603.71
836.68	25200.26
836.86	25308.80
837.04	25343.61
837.21	25165.44
837.39	25136.77
837.57	25333.37
837.75	25460.35
837.92	25077.38
838.10	24997.51
838.28	24577.67
838.45	25071.23
838.63	24772.23
838.81	25106.05
838.98	24755.85
839.16	25173.63
839.34	24696.46
839.51	24929.92
839.69	24637.06
839.87	24718.98
840.04	24602.25
840.22	24786.57
840.40	24589.96
840.57	23895.70
840.75	24577.67
840.93	24366.73
841.10	24409.74
841.28	24747.65
841.46	24686.22
841.63	24456.84
841.81	24618.63
841.98	24616.58
842.16	24559.24
842.34	24364.68
842.51	24086.16
842.69	24465.03
842.87	24114.83
843.04	24358.54
843.22	24237.71
843.40	24493.71
843.57	24100.50
843.75	24376.97
843.92	24161.94
844.10	23819.92
844.28	23776.92
844.45	23991.95
844.63	23887.51
844.81	23527.06
844.98	23776.92
845.16	23697.05
845.33	23844.50
845.51	23834.26
845.69	23813.78
845.86	23492.25
846.04	23516.83
846.21	23766.68
846.39	23860.88
846.57	23434.91
846.74	23637.66
846.92	23246.49
847.09	23260.83
847.27	23273.12
847.45	23643.80
847.62	23414.43
847.80	23678.61
847.97	23256.73
848.15	23387.80
848.32	22873.76
848.50	23137.95
848.68	22967.97
848.85	23238.30
849.03	23010.98
849.20	23010.98
849.38	22609.58
849.56	23215.77
849.73	22955.68
849.91	23080.61
850.08	22970.02
850.26	22662.82
850.43	22703.78
850.61	22486.70
850.78	22658.73
850.96	22496.94
851.14	22640.29
851.31	22869.67
851.49	22666.92
851.66	22628.01
851.84	22783.65
852.01	22677.16
852.19	22961.83
852.36	22480.55
852.54	22718.12
852.71	22486.70
852.89	22351.53
853.07	22531.75
853.24	22476.46
853.42	22281.90
853.59	22263.47
853.77	22335.15
853.94	22611.62
854.12	22759.08
854.29	22232.75
854.47	22318.76
854.64	22007.47
854.82	22329.00
854.99	22361.77
855.17	22339.24
855.34	21921.46
855.52	22046.38
855.69	22355.63
855.87	22240.94
856.04	21872.31
856.22	21839.54
856.39	21708.47
856.57	22259.37
856.74	22027.95
856.92	22191.79
857.09	21833.39
857.27	21831.35
857.44	21960.37
857.62	21991.09
857.79	21845.68
857.97	22146.73
858.14	21606.07
858.32	21679.80
858.49	21884.59
858.67	21714.61
858.84	21223.10
859.02	21518.01
859.19	21456.57
859.37	21642.93
859.54	21548.73
859.72	21851.83
859.89	21431.99
860.06	21530.30
860.24	21327.55
860.41	21716.66
860.59	21249.72
860.76	21364.41
860.94	21151.42
861.11	21429.94
861.29	21153.47
861.46	20965.06
861.64	20950.72
861.81	21296.83
861.98	21196.48
862.16	21325.50
862.33	21120.70
862.51	20952.77
862.68	21374.65
862.86	20862.66
863.03	20887.23
863.21	20690.63
863.38	20893.38
863.55	20917.95
863.73	21182.14
863.90	20784.83
864.08	20768.45
864.25	20659.91
864.43	20829.89
864.60	20457.16
864.77	20289.23
864.95	20870.85
865.12	20514.50
865.30	20772.55
865.47	20590.28
865.64	20776.64
865.82	20676.29
865.99	20913.86
866.17	20516.55
866.34	20520.65
866.51	20211.40
866.69	20422.34
866.86	20754.12
867.04	20432.58
867.21	20373.19
867.38	20342.47
867.56	20260.55
867.73	19934.93
867.91	20078.29
868.08	20309.71
868.25	20020.94
868.43	20162.25
868.60	20303.56
868.78	19969.74
868.95	20086.48
869.12	20311.75
869.30	20215.50
869.47	20145.87
869.64	19945.17
869.82	20022.99
869.99	19771.09
870.16	19826.39
870.34	19730.13
870.51	20172.49
870.69	19775.19
870.86	19715.80
871.03	19635.92
871.21	19398.36
871.38	19566.29
871.55	19742.42
871.73	19588.82
871.90	19488.47
872.07	19330.78
872.25	19539.67
872.42	19418.84
872.59	19281.63
872.77	19408.60
872.94	19082.97
873.11	19318.49
873.29	19119.84
873.46	18972.38
873.63	19248.86
873.81	19146.46
873.98	18912.99
874.15	18923.23
874.33	18878.18
874.50	18923.23
874.67	19078.88
874.85	19027.68
875.02	18896.61
875.19	18919.14
875.37	18951.90
875.54	19027.68
875.71	18931.42
875.88	18583.27
876.06	18818.78
876.23	18669.28
876.40	18558.69
876.58	18661.09
876.75	18726.63
876.92	18773.73
877.10	18421.48
877.27	18435.81
877.44	18271.98
877.61	18177.77
877.79	18314.98
877.96	18470.63
878.13	18220.78
878.31	18398.95
878.48	18259.69
878.65	18327.27
878.82	18206.44
879.00	18011.89
879.17	18441.96
879.34	18157.29
879.51	17815.28
879.69	17891.06
879.86	18145.00
880.03	17964.78
880.21	18083.56
880.38	17905.39
880.55	17899.25
880.72	17891.06
880.90	17843.95
881.07	17788.66
881.24	17903.34
881.41	17710.83
881.59	17899.25
881.76	17833.71
881.93	17827.57
882.10	17577.72
882.28	17399.54
882.45	17440.50
882.62	17575.67
882.79	17800.94
882.96	17342.20
883.14	17577.72
883.31	17538.80
883.48	17743.60
883.65	17530.61
883.83	17383.16
884.00	17561.33
884.17	17573.62
884.34	17555.19
884.51	17444.60
884.69	17395.45
884.86	17231.61
885.03	17409.78
885.20	17116.92
885.38	17436.41
885.55	17250.04
885.72	17129.21
885.89	17272.57
886.06	17403.64
886.24	17313.53
886.41	16908.03
886.58	17538.80
886.75	17106.68
886.92	17239.80
887.10	17170.17
887.27	16899.84
887.44	17024.76
887.61	17209.08
887.78	16967.42
887.95	17086.20
888.13	16795.39
888.30	16783.10
888.47	16637.70
888.64	16731.90
888.81	16869.12
888.99	16760.58
889.16	16705.28
889.33	16701.19
889.50	16877.31
889.67	16719.62
889.84	16848.64
890.01	16529.16
890.19	16760.58
890.36	16545.54
890.53	16320.26
890.70	16240.39
890.87	16475.91
891.04	16269.06
891.22	16434.95
891.39	16570.12
891.56	16264.97
891.73	16224.01
891.90	16017.16
892.07	16111.37
892.24	16154.38
892.42	16207.62
892.59	16320.26
892.76	16107.27
892.93	16162.57
893.10	16246.54
893.27	16117.51
893.44	15922.96
893.61	16058.12
893.79	16396.04
893.96	15970.06
894.13	16015.12
894.30	16090.89
894.47	15838.99
894.64	16107.27
894.81	15937.29
894.98	16056.08
895.15	16207.62
895.33	15869.71
895.50	16029.45
895.67	15920.91
895.84	15902.48
896.01	15982.35
896.18	15984.40
896.35	15990.54
896.52	15976.20
896.69	15976.20
896.86	16056.08
897.04	15912.72
897.21	16076.55
897.38	15712.02
897.55	15804.17
897.72	15742.74
897.89	15759.12
898.06	16156.43
898.23	15904.53
898.40	15712.02
898.57	15929.10
898.74	16029.45
898.91	15847.18
899.08	15816.46
899.26	15869.71
899.43	15877.90
899.60	15716.11
899.77	15744.78
899.94	15789.84
900.11	15617.81
900.28	15689.49
900.45	15566.61
900.62	15734.54
900.79	15965.96
900.96	15732.50
901.13	15779.60
901.30	15759.12
901.47	15822.61
901.64	15630.10
901.81	15818.51
901.98	15734.54
902.15	15927.05
902.32	15652.63
902.49	15791.89
902.66	15929.10
902.83	15855.37
903.01	15435.54
903.18	15789.84
903.35	15669.01
903.52	15822.61
903.69	15929.10
903.86	15787.79
904.03	15996.68
904.20	15908.62
904.37	15916.81
904.54	15736.59
904.71	15628.05
904.88	15982.35
905.05	15503.12
905.22	15589.14
905.39	15658.77
905.56	15795.98
905.73	15679.25
905.90	15699.73
906.07	15582.99
906.24	15546.13
906.41	15699.73
906.58	15617.81
906.75	15873.81
906.92	15834.89
907.09	15752.98
907.26	15775.50
907.43	15654.67
907.60	15609.62
907.77	15744.78
907.93	15671.06
908.10	15679.25
908.27	15691.54
908.44	15517.46
908.61	15576.85
908.78	15537.94
908.95	15474.45
909.12	15607.57
909.29	15744.78
909.46	15345.43
909.63	15525.65
909.80	15558.42
909.97	15542.03
910.14	15353.62
910.31	15539.99
910.48	15752.98
910.65	15470.36
910.82	15386.39
910.99	15441.68
911.16	15423.25
911.33	15339.29
911.50	15331.09
911.66	15083.29
911.83	15361.81
912.00	15290.13
912.17	15386.39
912.34	15085.34
912.51	15257.37
912.68	14997.28
912.85	15163.16
913.02	15218.46
913.19	15324.95
913.36	15150.87
913.53	15277.85
913.70	15017.75
913.86	15247.13
914.03	15042.33
914.20	15042.33
914.37	14907.16
914.54	14964.51
914.71	14917.40
914.88	14880.54
915.05	14698.27
915.22	14772.00
915.39	14665.50
915.55	14833.44
915.72	14593.83
915.89	14647.07
916.06	14507.81
916.23	14499.62
916.40	14407.46
916.57	14634.78
916.74	14245.67
916.91	14440.23
917.07	14311.21
917.24	14436.13
917.41	14147.37
917.58	14413.60
917.75	14200.62
917.92	14221.10
918.09	14137.13
918.26	14249.77
918.42	14327.59
918.59	14047.02
918.76	13977.39
918.93	14069.55
919.10	13932.33
919.27	13969.19
919.44	13911.85
919.60	13870.89
919.77	13776.69
919.94	13594.42
920.11	13762.35
920.28	13575.98
920.45	13614.90
920.61	13430.58
920.78	13600.56
920.95	13442.87
921.12	13375.28
921.29	13141.82
921.46	13326.13
921.62	13184.82
921.79	13213.49
921.96	13131.58
922.13	13221.69
922.30	13121.34
922.47	13102.90
922.63	13098.81
922.80	12945.21
922.97	12885.82
923.14	12822.33
923.31	13100.86
923.47	12717.89
923.64	12986.17
923.81	12517.18
923.98	12891.96
924.15	12498.75
924.32	12697.41
924.48	12648.26
924.65	12627.78
924.82	12461.89
924.99	12363.59
925.15	12396.35
925.32	12453.70
925.49	12144.45
925.66	12148.55
925.83	11962.19
925.99	12156.74
926.16	12037.96
926.33	12134.21
926.50	11925.32
926.67	12068.68
926.83	11947.85
927.00	11865.93
927.17	11999.05
927.34	11663.18
927.50	11796.30
927.67	11786.06
927.84	11870.03
928.01	11470.67
928.17	11548.50
928.34	11298.64
928.51	11429.71
928.68	11134.81
928.84	11278.16
929.01	11095.89
929.18	11106.13
929.35	11171.67
929.51	11167.57
929.68	10821.47
929.85	10962.78
930.02	11048.79
930.18	10981.21
930.35	10798.94
930.52	10882.91
930.69	10741.60
930.85	10817.37
931.02	10796.89
931.19	10776.41
931.36	10712.92
931.52	10751.84
931.69	10696.54
931.86	10461.02
932.02	10454.88
932.19	10485.60
932.36	10379.11
932.53	10131.30
932.69	10131.30
932.86	10473.31
933.03	10235.75
933.19	10018.66
933.36	10194.79
933.53	10028.90
933.70	9856.87
933.86	9795.43
934.03	9686.89
934.20	9768.81
934.36	9916.26
934.53	9512.81
934.70	9361.27
934.86	9463.66
935.03	9348.98
935.20	9219.96
935.36	9324.40
935.53	9275.25
935.70	9217.91
935.86	9021.30
936.03	9095.03
936.20	9033.59
936.36	8816.51
936.53	8660.86
936.70	8855.42
936.86	8533.89
937.03	8556.41
937.20	8431.49
937.36	8669.05
937.53	8191.88
937.70	8083.33
937.86	7991.17
938.03	7935.88
938.20	8269.70
938.36	7868.30
938.53	7659.40
938.70	7663.50
938.86	7780.23
939.03	7606.16
939.20	7411.60
939.36	7374.74
939.53	7335.82
939.70	7491.47
939.86	7180.18
940.03	6930.33
940.19	6848.41
940.36	6959.00
940.53	6905.75
940.69	6782.87
940.86	6844.31
941.03	6580.12
941.19	6561.69
941.36	6563.74
941.52	6479.77
941.69	6293.41
941.86	6428.57
942.02	6215.59
942.19	6154.15
942.35	6311.84
942.52	6133.67
942.69	6014.88
942.85	5896.10
943.02	6076.32
943.18	5912.49
943.35	5842.85
943.52	5885.86
943.68	5746.60
943.85	5906.34
944.01	5756.84
944.18	5681.07
944.35	5719.98
944.51	5607.34
944.68	5500.84
944.84	5490.60
945.01	5502.89
945.17	5547.95
945.34	5599.15
945.51	5429.17
945.67	5509.04
945.84	5416.88
946.00	5365.68
946.17	5386.16
946.33	5279.66
946.50	5500.84
946.67	5445.55
946.83	5463.98
947.00	5431.21
947.16	5328.81
947.33	5377.97
947.49	5418.93
947.66	5347.25
947.82	5341.10
947.99	5294.00
948.16	5498.80
948.32	5308.34
948.49	5304.24
948.65	5353.39
948.82	5173.17
948.98	5255.09
949.15	5300.14
949.31	5359.53
949.48	5392.30
949.64	5406.64
949.81	5363.63
949.97	5275.57
950.14	5377.97
950.30	5328.81
950.47	5502.89
950.63	5347.25
950.80	5334.96
950.96	5420.97
951.13	5343.15
951.30	5365.68
951.46	5371.82
951.63	5531.56
951.79	5511.08
951.96	5484.46
952.12	5351.34
952.29	5461.93
952.45	5396.40
952.62	5410.73
952.78	5478.32
952.94	5484.46
953.11	5455.79
953.27	5478.32
953.44	5486.51
953.60	5511.08
953.77	5498.80
953.93	5392.30
954.10	5498.80
954.26	5382.06
954.43	5490.60
954.59	5517.23
954.76	5543.85
954.92	5418.93
955.09	5531.56
955.25	5392.30
955.42	5459.88
955.58	5455.79
955.75	5515.18
955.91	5566.38
956.07	5425.07
956.24	5695.40
956.40	5605.29
956.57	5541.80
956.73	5515.18
956.90	5441.45
957.06	5291.95
957.23	5455.79
957.39	5386.16
957.56	5580.71
957.72	5468.08
957.88	5386.16
958.05	5588.91
958.21	5611.43
958.38	5279.66
958.54	5386.16
958.71	5574.57
958.87	5455.79
959.03	5494.70
959.20	5472.17
959.36	5533.61
959.53	5402.54
959.69	5380.01
959.85	5459.88
960.02	5550.00
960.18	5431.21
960.35	5613.48
960.51	5562.28
960.68	5451.69
960.84	5482.41
961.00	5355.44
961.17	5529.52
961.33	5617.58
961.50	5478.32
961.66	5388.21
961.82	5373.87
961.99	5554.09
962.15	5525.42
962.31	5326.77
962.48	5384.11
962.64	5537.71
962.81	5402.54
962.97	5375.92
963.13	5410.73
963.30	5431.21
963.46	5388.21
963.62	5291.95
963.79	5445.55
963.95	5461.93
964.12	5386.16
964.28	5398.45
964.44	5359.53
964.61	5367.73
964.77	5412.78
964.93	5296.05
965.10	5261.23
965.26	5275.57
965.42	5322.67
965.59	5222.32
965.75	5277.62
965.92	5214.13
966.08	5343.15
966.24	5396.40
966.41	5228.46
966.57	5310.38
966.73	5171.12
966.90	5332.91
967.06	5312.43
967.22	5298.10
967.39	5257.14
967.55	5177.26
967.71	5294.00
967.88	5201.84
968.04	5134.26
968.20	5062.58
968.37	5113.78
968.53	5029.81
968.69	5263.28
968.85	5115.83
969.02	5136.31
969.18	5156.79
969.34	5154.74
969.51	5138.35
969.67	5248.94
969.83	5064.63
970.00	5167.03
970.16	5046.20
970.32	5046.20
970.48	5097.39
970.65	5111.73
970.81	4900.79
970.97	5042.10
971.14	4925.36
971.30	5210.03
971.46	5042.10
971.63	4923.32
971.79	5078.96
971.95	4951.99
972.11	4921.27
972.28	4911.03
972.44	4972.47
972.60	4806.58
972.76	4990.90
972.93	4788.15
973.09	4997.04
973.25	4941.75
973.42	4792.25
973.58	5050.29
973.74	4868.02
973.90	5091.25
974.07	4679.61
974.23	4886.45
974.39	4767.67
974.55	4804.53
974.72	4790.20
974.88	4845.49
975.04	4652.98
975.20	4804.53
975.37	4751.29
975.53	4728.76
975.69	4857.78
975.85	4759.48
976.01	4734.90
976.18	4632.51
976.34	4714.42
976.50	4833.21
976.66	4728.76
976.83	4646.84
976.99	4648.89
977.15	4614.07
977.31	4515.77
977.47	4642.75
977.64	4640.70
977.80	4687.80
977.96	4612.03
978.12	4583.35
978.29	4657.08
978.45	4419.52
978.61	4511.68
978.77	4601.79
978.93	4409.28
979.10	4448.19
979.26	4536.25
979.42	4419.52
979.58	4425.66
979.74	4517.82
979.91	4427.71
980.07	4517.82
980.23	4331.45
980.39	4437.95
980.55	4501.44
980.71	4331.45
980.88	4448.19
981.04	4343.74
981.20	4278.21
981.36	4345.79
981.52	4270.01
981.68	4284.35
981.85	4358.08
982.01	4384.70
982.17	4261.82
982.33	4356.03
982.49	4280.25
982.65	4255.68
982.82	4272.06
982.98	4087.75
983.14	4235.20
983.30	4378.56
983.46	4384.70
983.62	4145.09
983.79	4145.09
983.95	4140.99
984.11	4106.18
984.27	4278.21
984.43	4165.57
984.59	4204.48
984.75	4198.34
984.91	4122.56
985.08	4210.62
985.24	4104.13
985.40	3915.72
985.56	4093.89
985.72	4046.79
985.88	4071.36
986.04	4026.31
986.20	3936.20
986.37	4059.07
986.53	3954.63
986.69	4065.22
986.85	3966.92
987.01	4014.02
987.17	3954.63
987.33	3907.52
987.49	3925.96
987.65	4095.94
987.82	3925.96
987.98	3893.19
988.14	4102.08
988.30	3938.24
988.46	3889.09
988.62	3901.38
988.78	3999.68
988.94	3839.94
989.10	3749.83
989.26	3760.07
989.42	3846.09
989.59	3821.51
989.75	3727.30
989.91	3803.08
990.07	3721.16
990.23	3645.38
990.39	3841.99
990.55	3803.08
990.71	3755.97
990.87	3864.52
991.03	3747.78
991.19	3686.34
991.35	3674.06
991.51	3790.79
991.67	3796.93
991.83	3829.70
992.00	3741.64
992.16	3755.97
992.32	3665.86
992.48	3651.53
992.64	3669.96
992.80	3731.40
992.96	3706.82
993.12	3758.02
993.28	3663.82
993.44	3641.29
993.60	3573.71
993.76	3624.90
993.92	3715.02
994.08	3614.66
994.24	3606.47
994.40	3483.59
994.56	3667.91
994.72	3547.08
994.88	3524.55
995.04	3624.90
995.20	3475.40
995.36	3448.78
995.52	3569.61
995.68	3588.04
995.84	3456.97
996.00	3645.38
996.16	3385.29
996.32	3516.36
996.48	3403.72
996.64	3508.17
996.80	3440.59
996.96	3411.92
997.12	3381.20
997.28	3379.15
997.44	3325.90
997.60	3397.58
997.76	3373.00
997.92	3405.77
998.08	3432.40
998.24	3282.89
998.40	3338.19
998.56	3397.58
998.72	3319.76
998.88	3211.22
999.04	3225.55
999.20	3338.19
999.36	3260.37
999.52	3409.87
999.68	3284.94
999.84	3190.74
1000.00	3213.26
1000.16	3383.24
1000.32	3276.75
1000.48	3321.81
1000.64	3252.17
1000.80	3121.10
1000.95	3160.02
1001.11	3155.92
1001.27	3196.88
1001.43	3106.77
1001.59	3139.54
1001.75	3162.06
1001.91	3211.22
1002.07	3149.78
1002.23	3200.98
1002.39	3135.44
1002.55	3182.54
1002.71	3043.28
1002.87	3188.69
1003.03	3049.43
1003.19	3018.71
1003.34	3180.50
1003.50	3172.30
1003.66	3157.97
1003.82	3137.49
1003.98	3090.38
1004.14	3053.52
1004.30	2992.08
1004.46	3012.56
1004.62	3135.44
1004.78	2949.08
1004.94	2975.70
1005.09	3049.43
1005.25	2912.21
1005.41	2947.03
1005.57	2996.18
1005.73	2955.22
1005.89	2901.97
1006.05	2932.69
1006.21	2906.07
1006.37	2891.73
1006.52	2813.91
1006.68	2846.68
1006.84	2951.12
1007.00	2809.81
1007.16	2897.88
1007.32	2834.39
1007.48	2861.01
1007.64	2930.64
1007.79	2818.00
1007.95	2768.85
1008.11	2932.69
1008.27	2834.39
1008.43	2869.20
1008.59	2779.09
1008.75	2811.86
1008.91	2834.39
1009.06	2838.48
1009.22	2838.48
1009.38	2809.81
1009.54	2768.85
1009.70	2772.95
1009.86	2727.89
1010.01	2740.18
1010.17	2717.65
1010.33	2731.99
1010.49	2764.76
1010.65	2871.25
1010.81	2621.40
1010.96	2721.75
1011.12	2742.23
1011.28	2680.79
1011.44	2752.47
1011.60	2686.94
1011.76	2758.61
1011.91	2787.29
1012.07	2611.16
1012.23	2584.54
1012.39	2713.56
1012.55	2668.50
1012.71	2629.59
1012.86	2598.87
1013.02	2586.58
1013.18	2592.73
1013.34	2562.01
1013.50	2625.50
1013.65	2590.68
1013.81	2582.49
1013.97	2584.54
1014.13	2615.26
1014.29	2619.35
1014.44	2613.21
1014.60	2639.83
1014.76	2512.86
1014.92	2527.19
1015.07	2543.58
1015.23	2592.73
1015.39	2547.67
1015.55	2557.91
1015.71	2461.66
1015.86	2510.81
1016.02	2453.47
1016.18	2418.65
1016.34	2502.62
1016.49	2451.42
1016.65	2549.72
1016.81	2486.23
1016.97	2508.76
1017.12	2451.42
1017.28	2404.32
1017.44	2422.75
1017.60	2514.91
1017.75	2486.23
1017.91	2519.00
1018.07	2426.84
1018.23	2416.60
1018.38	2338.78
1018.54	2422.75
1018.70	2369.50
1018.86	2346.97
1019.01	2392.03
1019.17	2363.36
1019.33	2502.62
1019.49	2441.18
1019.64	2453.47
1019.80	2422.75
1019.96	2371.55
1020.12	2353.12
1020.27	2297.82
1020.43	2314.20
1020.59	2445.27
1020.74	2392.03
1020.90	2463.71
1021.06	2279.39
1021.22	2308.06
1021.37	2320.35
1021.53	2283.49
1021.69	2293.72
1021.84	2299.87
1022.00	2344.92
1022.16	2244.57
1022.31	2314.20
1022.47	2301.92
1022.63	2336.73
1022.79	2209.76
1022.94	2236.38
1023.10	2367.45
1023.26	2279.39
1023.41	2281.44
1023.57	2267.10
1023.73	2301.92
1023.88	2250.72
1024.04	2191.33
1024.20	2236.38
1024.35	2289.63
1024.51	2242.53
1024.67	2181.09
1024.82	2277.34
1024.98	2150.37
1025.14	2279.39
1025.29	2248.67
1025.45	2312.16
1025.61	2154.46
1025.76	2222.05
1025.92	2201.57
1026.08	2193.37
1026.23	2222.05
1026.39	2279.39
1026.55	2097.12
1026.70	2224.09
1026.86	2115.55
1027.02	2234.33
1027.17	2168.80
1027.33	2222.05
1027.48	2070.50
1027.64	2183.13
1027.80	2160.61
1027.95	2217.95
1028.11	2088.93
1028.27	2127.84
1028.42	2115.55
1028.58	2064.35
1028.73	2136.03
1028.89	2076.64
1029.05	2183.13
1029.20	2158.56
>>>>>End Processed Spectral Data<<<<<
