SpectraSuite Data File
++++++++++++++++++++++++++++++++++++
Date: Fri Jun 02 14:44:31 CEST 2017
User: INFO_000
Dark Spectrum Present: No
Reference Spectrum Present: No
Number of Sampled Component Spectra: 1
Spectrometers: USB4H00879
Integration Time (usec): 80000 (USB4H00879)
Spectra Averaged: 1 (USB4H00879)
Boxcar Smoothing: 0 (USB4H00879)
Correct for Electrical Dark: No (USB4H00879)
Strobe/Lamp Enabled: No (USB4H00879)
Correct for Detector Non-linearity: No (USB4H00879)
Correct for Stray Light: No (USB4H00879)
Number of Pixels in Processed Spectrum: 3648
>>>>>Begin Processed Spectral Data<<<<<
345.13	1269.74
345.34	1269.74
345.56	1269.74
345.78	1261.55
345.99	1286.12
346.21	1607.66
346.42	1699.81
346.64	1650.66
346.86	1789.92
347.07	1646.57
347.29	1689.57
347.50	1658.85
347.72	1611.75
347.94	1755.11
348.15	1548.26
348.37	1644.52
348.59	1644.52
348.80	1667.05
349.02	1634.28
349.23	1718.25
349.45	1714.15
349.67	1794.02
349.88	1685.48
350.10	1839.08
350.31	1712.10
350.53	1705.96
350.75	1843.17
350.96	1626.09
351.18	1798.12
351.39	1677.29
351.61	1716.20
351.82	1740.77
352.04	1712.10
352.26	1683.43
352.47	1716.20
352.69	1714.15
352.90	1607.66
353.12	1644.52
353.34	1740.77
353.55	1724.39
353.77	1708.01
353.98	1703.91
354.20	1724.39
354.41	1746.92
354.63	1755.11
354.85	1949.67
355.06	1777.64
355.28	1597.42
355.49	1689.57
355.71	1757.16
355.92	1675.24
356.14	1787.88
356.35	1691.62
356.57	1675.24
356.79	1814.50
357.00	1697.77
357.22	1834.98
357.43	1691.62
357.65	1744.87
357.86	1626.09
358.08	1738.73
358.29	1822.69
358.51	1816.55
358.72	1847.27
358.94	1736.68
359.16	1667.05
359.37	1726.44
359.59	1839.08
359.80	1830.88
360.02	1728.49
360.23	1802.21
360.45	1830.88
360.66	1761.25
360.88	1744.87
361.09	1701.86
361.31	1765.35
361.52	1761.25
361.74	1769.44
361.95	1841.12
362.17	1736.68
362.38	1820.64
362.60	1789.92
362.81	1769.44
363.03	1777.64
363.24	1691.62
363.46	1873.89
363.67	1777.64
363.89	1691.62
364.10	1785.83
364.32	1728.49
364.53	1816.55
364.75	1665.00
364.96	1781.73
365.18	1839.08
365.39	1761.25
365.61	1650.66
365.82	1816.55
366.04	1755.11
366.25	1630.18
366.47	1841.12
366.68	1802.21
366.90	1617.90
367.11	1763.30
367.33	1753.06
367.54	1892.32
367.76	1720.29
367.97	1918.95
368.19	1662.95
368.40	1853.41
368.62	1699.81
368.83	1720.29
369.05	1802.21
369.26	1687.53
369.48	1667.05
369.69	1652.71
369.91	1775.59
370.12	1785.83
370.33	1755.11
370.55	1658.85
370.76	1771.49
370.98	1839.08
371.19	1742.82
371.41	1718.25
371.62	1794.02
371.84	1665.00
372.05	1820.64
372.27	1744.87
372.48	1804.26
372.69	1863.65
372.91	1849.32
373.12	1847.27
373.34	1730.53
373.55	1791.97
373.77	1755.11
373.98	1703.91
374.20	1871.84
374.41	1906.66
374.62	1744.87
374.84	1847.27
375.05	1804.26
375.27	1794.02
375.48	1744.87
375.70	1804.26
375.91	1812.45
376.12	2009.06
376.34	1724.39
376.55	1767.40
376.77	1896.42
376.98	1738.73
377.19	1710.05
377.41	1812.45
377.62	1871.84
377.84	1828.84
378.05	1949.67
378.27	1869.80
378.48	1910.75
378.69	1931.23
378.91	1959.91
379.12	1877.99
379.34	1927.14
379.55	1806.31
379.76	1834.98
379.98	1769.44
380.19	1863.65
380.41	1804.26
380.62	1875.94
380.83	1896.42
381.05	1769.44
381.26	1929.19
381.47	1808.36
381.69	1828.84
381.90	1970.15
382.12	1914.85
382.33	1837.03
382.54	1824.74
382.76	1882.08
382.97	1818.60
383.19	1828.84
383.40	1945.57
383.61	1873.89
383.83	1902.56
384.04	1824.74
384.25	1884.13
384.47	1986.53
384.68	1828.84
384.89	1761.25
385.11	1839.08
385.32	1908.71
385.54	1839.08
385.75	1810.40
385.96	1902.56
386.18	1882.08
386.39	1834.98
386.60	1880.04
386.82	1908.71
387.03	1884.13
387.24	1914.85
387.46	1877.99
387.67	1945.57
387.88	2039.78
388.10	1904.61
388.31	1951.71
388.52	1990.63
388.74	2004.96
388.95	1970.15
389.16	1845.22
389.38	1839.08
389.59	2011.11
389.80	1970.15
390.02	1888.23
390.23	1996.77
390.44	1832.93
390.66	1904.61
390.87	1785.83
391.08	2004.96
391.30	2193.37
391.51	2215.90
391.72	2058.21
391.94	2074.59
392.15	2129.89
392.36	1943.52
392.58	2078.69
392.79	2047.97
393.00	2043.87
393.22	2099.17
393.43	2183.13
393.64	2191.33
393.85	2131.94
394.07	2158.56
394.28	2258.91
394.49	2183.13
394.71	2279.39
394.92	2125.79
395.13	2007.01
395.35	2082.78
395.56	1929.19
395.77	2244.57
395.98	2258.91
396.20	2287.58
396.41	2252.77
396.62	2389.98
396.84	2316.25
397.05	2150.37
397.26	2142.18
397.47	2330.59
397.69	2217.95
397.90	2371.55
398.11	2365.40
398.32	2179.04
398.54	2162.66
398.75	2258.91
398.96	2346.97
399.18	2473.95
399.39	2199.52
399.60	2451.42
399.81	2248.67
400.03	2349.02
400.24	2535.39
400.45	2371.55
400.66	2369.50
400.88	2379.74
401.09	2529.24
401.30	2265.05
401.51	2541.53
401.73	2400.22
401.94	2432.99
402.15	2486.23
402.36	2684.89
402.58	2590.68
402.79	2674.65
403.00	2543.58
403.21	2631.64
403.43	2639.83
403.64	2650.07
403.85	2625.50
404.06	2764.76
404.27	2615.26
404.49	2578.39
404.70	2613.21
404.91	2643.93
405.12	2578.39
405.34	2650.07
405.55	2813.91
405.76	2678.74
405.97	2699.22
406.19	3080.14
406.40	2652.12
406.61	2629.59
406.82	2568.15
407.03	2746.33
407.25	2629.59
407.46	2912.21
407.67	2664.41
407.88	3092.43
408.09	2766.81
408.31	2787.29
408.52	2947.03
408.73	2899.92
408.94	2746.33
409.15	2803.67
409.37	2936.79
409.58	3028.95
409.79	2928.60
410.00	2967.51
410.21	2871.25
410.43	2932.69
410.64	2693.08
410.85	2891.73
411.06	3123.15
411.27	3108.82
411.48	3061.71
411.70	3069.91
411.91	3125.20
412.12	3299.28
412.33	3203.02
412.54	3039.19
412.76	3428.30
412.97	3211.22
413.18	3006.42
413.39	3035.09
413.60	3364.81
413.81	3178.45
414.03	3207.12
414.24	3067.86
414.45	3407.82
414.66	3121.10
414.87	3395.53
415.08	3100.62
415.30	3340.24
415.51	3299.28
415.72	3090.38
415.93	3360.72
416.14	3303.37
416.35	3346.38
416.56	3440.59
416.78	3446.73
416.99	3221.45
417.20	3352.52
417.41	3592.14
417.62	3585.99
417.83	3471.31
418.04	3485.64
418.26	3815.37
418.47	3450.83
418.68	3684.30
418.89	3592.14
419.10	3880.90
419.31	3592.14
419.52	3710.92
419.73	3538.89
419.95	4030.40
420.16	3551.18
420.37	3651.53
420.58	3612.62
420.79	3510.22
421.00	3686.34
421.21	3602.38
421.42	3657.67
421.63	3727.30
421.85	3770.31
422.06	3682.25
422.27	3956.68
422.48	3833.80
422.69	3817.41
422.90	4048.83
423.11	3876.80
423.32	4067.27
423.53	4132.80
423.75	4102.08
423.96	4206.53
424.17	4231.10
424.38	4337.60
424.59	4190.14
424.80	4370.37
425.01	4093.89
425.22	4196.29
425.43	4097.99
425.64	4405.18
425.85	4546.49
426.06	4368.32
426.28	4278.21
426.49	4259.78
426.70	4403.13
426.91	4411.32
427.12	4470.72
427.33	4564.92
427.54	4378.56
427.75	4507.58
427.96	4777.91
428.17	4599.74
428.38	4562.87
428.59	4548.54
428.80	4685.75
429.01	4771.77
429.23	4622.27
429.44	4843.45
429.65	4831.16
429.86	4796.34
430.07	4718.52
430.28	4718.52
430.49	4792.25
430.70	5025.72
430.91	5027.76
431.12	4792.25
431.33	5019.57
431.54	5072.82
431.75	5027.76
431.96	4972.47
432.17	5128.11
432.38	5126.07
432.59	5179.31
432.80	5177.26
433.01	5205.94
433.22	5144.50
433.43	5232.56
433.64	5230.51
433.85	5119.92
434.06	5261.23
434.27	5117.87
434.49	5220.27
434.70	5556.14
434.91	5332.91
435.12	5355.44
435.33	5429.17
435.54	5441.45
435.75	5197.74
435.96	5302.19
436.17	5375.92
436.38	5531.56
436.59	5468.08
436.80	5390.25
437.01	5711.78
437.22	5908.39
437.43	5539.76
437.64	5500.84
437.85	5695.40
438.06	5724.07
438.27	5646.25
438.48	5545.90
438.69	5679.02
438.90	5805.99
439.11	5627.82
439.32	5769.13
439.53	5779.37
439.74	5803.94
439.95	5859.24
440.16	5719.98
440.37	5873.57
440.57	5689.26
440.78	5896.10
440.99	5990.31
441.20	6004.64
441.41	5871.53
441.62	6033.32
441.83	5967.78
442.04	6119.33
442.25	6000.55
442.46	5959.59
442.67	6033.32
442.88	6586.27
443.09	5916.58
443.30	6045.60
443.51	6102.95
443.72	6541.21
443.93	6160.29
444.14	6401.95
444.35	6160.29
444.56	6418.33
444.77	6365.09
444.98	6397.85
445.19	6381.47
445.40	6442.91
445.61	6256.54
445.81	6522.78
446.02	6598.56
446.23	6365.09
446.44	6238.11
446.65	6598.56
446.86	6561.69
447.07	6623.13
447.28	6696.86
447.49	6809.50
447.70	6680.47
447.91	6707.10
448.12	6588.32
448.33	6578.08
448.54	6705.05
448.74	6760.34
448.95	6713.24
449.16	6637.47
449.37	6987.67
449.58	6829.98
449.79	6899.61
450.00	6623.13
450.21	6924.18
450.42	7165.84
450.63	7049.11
450.84	6997.91
451.05	7032.72
451.25	7059.35
451.46	7098.26
451.67	7362.45
451.88	7180.18
452.09	7180.18
452.30	7110.55
452.51	7221.14
452.72	7362.45
452.93	7526.29
453.13	7071.64
453.34	7108.50
453.55	7290.77
453.76	7325.58
453.97	7622.54
454.18	7548.81
454.39	7538.57
454.60	7462.80
454.81	7479.18
455.01	7610.25
455.22	7331.73
455.43	7749.51
455.64	7909.26
455.85	7944.07
456.06	8046.47
456.27	7794.57
456.48	7794.57
456.68	7841.67
456.89	7968.65
457.10	8116.10
457.31	8177.54
457.52	8021.89
457.73	8124.29
457.94	8269.70
458.14	7997.32
458.35	8353.66
458.56	8322.94
458.77	8390.53
458.98	8300.42
459.19	8474.49
459.39	8437.63
459.60	8609.66
459.81	8474.49
460.02	8636.28
460.23	8425.34
460.44	8787.83
460.65	8685.44
460.85	8734.59
461.06	8730.49
461.27	8738.68
461.48	8939.38
461.69	8986.49
461.89	8648.57
462.10	8943.48
462.31	8802.17
462.52	8849.27
462.73	9009.01
462.94	9277.30
463.14	9004.92
463.35	9101.17
463.56	9396.08
463.77	9572.21
463.98	9254.77
464.18	9289.59
464.39	9521.01
464.60	9752.43
464.81	9590.64
465.02	9486.19
465.23	9969.51
465.43	9693.04
465.64	9965.42
465.85	9987.94
466.06	9672.56
466.27	10035.05
466.47	10082.15
466.68	10041.19
466.89	10137.45
467.10	10057.57
467.30	10184.55
467.51	10436.45
467.72	10571.61
467.93	10162.02
468.14	10415.97
468.34	10608.48
468.55	10372.96
468.76	10620.77
468.97	10422.11
469.17	10760.03
469.38	10975.06
469.59	11065.18
469.80	10747.74
470.01	10839.90
470.21	11013.98
470.42	11077.46
470.63	11315.03
470.84	11034.46
471.04	11388.75
471.25	11392.85
471.46	11388.75
471.67	11544.40
471.87	11360.08
472.08	11775.82
472.29	11751.24
472.50	11583.31
472.70	11681.61
472.91	11822.92
473.12	12144.45
473.33	12009.29
473.53	12142.41
473.74	12095.30
473.95	12386.12
474.16	12330.82
474.36	12277.57
474.57	12701.50
474.78	12658.49
474.99	12738.37
475.19	12754.75
475.40	12965.69
475.61	13084.47
475.81	13236.02
476.02	13336.37
476.23	13035.32
476.44	13254.45
476.64	13354.80
476.85	13516.59
477.06	13696.82
477.27	14049.07
477.47	13868.84
477.68	13905.71
477.89	14163.75
478.09	14135.08
478.30	13965.10
478.51	14133.03
478.71	14423.84
478.92	14192.42
479.13	14413.60
479.34	14817.05
479.54	14577.44
479.75	14796.57
479.96	14685.98
480.16	14886.68
480.37	14927.64
480.58	15251.22
480.78	15490.84
480.99	15132.44
481.20	15361.81
481.41	15542.03
481.61	15533.84
481.82	15761.17
482.03	15875.85
482.23	16119.56
482.44	16004.88
482.65	16039.69
482.85	16424.71
483.06	16406.28
483.27	16402.18
483.47	16494.34
483.68	16232.20
483.89	16793.34
484.09	16520.96
484.30	16631.55
484.51	17039.10
484.71	16953.09
484.92	16961.28
485.13	17059.58
485.33	17213.18
485.54	17278.71
485.75	17368.82
485.95	17456.89
486.16	17598.20
486.37	17723.12
486.57	17921.77
486.78	17735.41
486.98	17833.71
487.19	18183.91
487.40	18069.23
487.60	18276.07
487.81	18470.63
488.02	18145.00
488.22	18648.80
488.43	18632.42
488.64	18638.56
488.84	18751.20
489.05	19185.37
489.25	18849.50
489.46	18931.42
489.67	18783.97
489.87	19261.15
490.08	19363.54
490.29	19392.22
490.49	19338.97
490.70	19734.23
490.90	19574.49
491.11	19537.62
491.32	19793.62
491.52	19893.97
491.73	19838.67
491.94	20018.89
492.14	20141.77
492.35	20432.58
492.55	20516.55
492.76	20453.06
492.97	20696.77
493.17	20711.11
493.38	20938.43
493.58	20842.18
493.79	21114.56
494.00	20897.47
494.20	20958.91
494.41	20991.68
494.61	21401.27
494.82	21214.91
495.02	21378.75
495.23	21305.02
495.44	21444.28
495.64	21718.71
495.85	21665.46
496.05	21857.97
496.26	21882.55
496.47	22361.77
496.67	21788.34
496.88	22228.65
497.08	21827.25
497.29	22257.32
497.49	22126.25
497.70	22255.28
497.91	22496.94
498.11	22730.41
498.32	22523.56
498.52	22632.10
498.73	23047.84
498.93	22886.05
499.14	23013.02
499.34	23074.46
499.55	23195.29
499.76	22972.07
499.96	23502.49
500.17	23373.47
500.37	23266.97
500.58	23162.53
500.78	23547.54
500.99	23785.11
501.19	23781.01
501.40	23629.46
501.60	23627.42
501.81	23852.69
502.02	24022.67
502.22	23869.08
502.43	24280.72
502.63	24161.94
502.84	24080.02
503.04	24174.22
503.25	24350.35
503.45	24333.96
503.66	24329.87
503.86	24553.10
504.07	25136.77
504.27	24575.62
504.48	24770.18
504.68	24927.88
504.89	25169.54
505.09	24936.07
505.30	25044.61
505.50	25343.61
505.71	25331.33
505.91	25628.28
506.12	25347.71
506.32	25202.30
506.53	25702.01
506.73	25609.85
506.94	25331.33
507.14	25841.27
507.35	25777.78
507.55	25745.02
507.76	26082.93
507.96	25943.67
508.17	25671.29
508.37	26072.69
508.58	26064.50
508.78	26046.07
508.99	26451.56
509.19	26222.19
509.40	26771.05
509.60	26484.33
509.81	26437.23
510.01	26424.94
510.22	26508.91
510.42	26895.97
510.63	26728.04
510.83	26801.77
511.04	26508.91
511.24	26857.06
511.44	26824.29
511.65	27031.14
511.85	26793.58
512.06	27219.55
512.26	27313.76
512.47	27197.02
512.67	27160.16
512.88	27164.26
513.08	27131.49
513.29	27487.84
513.49	27328.10
513.69	27127.39
513.90	27514.46
514.10	27629.15
514.31	27739.74
514.51	27530.84
514.72	27457.12
514.92	27960.92
515.13	27616.86
515.33	27846.23
515.53	27989.59
515.74	28178.00
515.94	27936.34
516.15	28304.98
516.35	28044.88
516.56	28282.45
516.76	28212.82
516.96	28063.32
517.17	28710.47
517.37	28409.42
517.58	28681.80
517.78	28579.40
517.99	28683.85
518.19	28702.28
518.39	28763.72
518.60	29029.96
518.80	28835.40
519.01	28874.31
519.21	29138.50
519.41	29435.45
519.62	29091.40
519.82	29099.59
520.03	29474.37
520.23	29277.76
520.43	29095.49
520.64	29247.04
520.84	29779.51
521.05	29642.30
521.25	29584.96
521.45	30070.33
521.66	29896.25
521.86	29886.01
522.07	29720.12
522.27	30137.91
522.47	30037.56
522.68	30379.57
522.88	29982.26
523.08	30520.88
523.29	30350.90
523.49	30580.27
523.70	30866.98
523.90	30670.38
524.10	30705.20
524.31	30813.74
524.51	30936.62
524.71	31041.06
524.92	31032.87
525.12	31204.90
525.33	31335.97
525.53	31442.46
525.73	31680.03
525.94	31569.44
526.14	31483.42
526.34	31835.67
526.55	31610.40
526.75	31641.12
526.95	32024.09
527.16	31462.94
527.36	31665.69
527.56	32075.29
527.77	32511.50
527.97	32210.45
528.17	32296.47
528.38	32378.39
528.58	32394.77
528.78	32708.11
528.99	32579.09
529.19	32929.29
529.39	32441.87
529.60	33033.74
529.80	32716.30
530.00	33238.53
530.21	33121.80
530.41	33261.06
530.61	33447.43
530.82	33666.56
531.02	33588.74
531.22	33771.00
531.43	33385.99
531.63	33650.17
531.83	33975.80
532.04	34395.64
532.24	33863.16
532.44	34276.85
532.64	34547.18
532.85	34399.73
533.05	34647.54
533.25	34035.19
533.46	34493.94
533.66	34952.68
533.86	34344.44
534.07	35151.34
534.27	34913.77
534.47	35067.37
534.67	35198.44
534.88	34932.20
535.08	35257.83
535.28	35372.52
535.49	35565.03
535.69	35812.83
535.89	35309.03
536.09	36179.42
536.30	36175.32
536.50	36036.06
536.70	36048.35
536.91	35913.18
537.11	36298.20
537.31	36206.04
537.51	36427.22
537.72	36885.97
537.92	36730.32
538.12	36816.33
538.32	36705.74
538.53	37101.00
538.73	37012.94
538.93	36742.61
539.13	37395.91
539.34	36953.55
539.54	37191.11
539.74	37463.49
539.94	37209.54
540.15	36994.51
540.35	37746.11
540.55	37731.78
540.75	37543.36
540.96	37834.17
541.16	37944.76
541.36	37840.32
541.56	38090.17
541.77	38270.39
541.97	38012.35
542.17	38313.40
542.37	38219.19
542.58	38735.28
542.78	38294.97
542.98	38301.11
543.18	38716.85
543.38	39165.35
543.59	38862.26
543.79	38753.71
543.99	38596.02
544.19	39234.99
544.40	39224.75
544.60	39089.58
544.80	39237.03
545.00	39396.77
545.20	39824.80
545.41	39497.13
545.61	39296.42
545.81	39777.70
546.01	40121.76
546.21	39503.27
546.42	39470.50
546.62	39935.39
546.82	39286.18
547.02	39556.52
547.22	39898.53
547.43	39810.46
547.63	40392.09
547.83	40244.63
548.03	39802.27
548.23	40152.48
548.44	40220.06
548.64	40750.48
548.84	40529.30
549.04	40539.54
549.24	40330.65
549.45	40848.78
549.65	40707.47
549.85	40732.05
550.05	40791.44
550.25	41168.27
550.45	41291.15
550.66	41182.60
550.86	41096.59
551.06	41278.86
551.26	40805.78
551.46	41266.57
551.66	41203.08
551.87	41145.74
552.07	41139.60
552.27	41469.32
552.47	41436.55
552.67	41450.89
552.87	41596.29
553.07	41753.99
553.28	41684.36
553.48	41430.41
553.68	41524.61
553.88	42128.77
554.08	41858.43
554.28	41819.52
554.48	41799.04
554.69	41923.97
554.89	41999.74
555.09	42194.30
555.29	41606.53
555.49	42351.99
555.69	42171.77
555.89	42399.10
556.10	42272.12
556.30	42552.69
556.50	42546.55
556.70	41919.87
556.90	42560.89
557.10	42620.28
557.30	42319.23
557.50	42597.75
557.70	42894.71
557.91	43085.17
558.11	42675.57
558.31	42906.99
558.51	42653.05
558.71	42810.74
558.91	42743.16
559.11	42859.89
559.31	42931.57
559.51	42710.39
559.72	42947.95
559.92	43165.04
560.12	42999.15
560.32	43079.02
560.52	42982.77
560.72	43240.81
560.92	43122.03
561.12	43115.89
561.32	43240.81
561.52	43414.89
561.72	43679.08
561.93	43148.65
562.13	43226.48
562.33	43404.65
562.53	43859.30
562.73	43115.89
562.93	43216.24
563.13	43621.73
563.33	43246.96
563.53	43818.34
563.73	43339.11
563.93	43697.51
564.13	44000.61
564.33	43900.26
564.53	43509.10
564.74	44021.09
564.94	43388.27
565.14	44162.40
565.34	44117.34
565.54	44506.46
565.74	44152.16
565.94	44504.41
566.14	44424.54
566.34	44363.10
566.54	44737.88
566.74	43984.22
566.94	44658.01
567.14	44402.01
567.34	44270.94
567.54	44416.35
567.74	44797.27
567.94	44350.81
568.14	44860.76
568.34	44842.32
568.54	44428.63
568.74	45104.46
568.94	44449.11
569.14	45217.10
569.34	45145.42
569.54	45075.79
569.75	44430.68
569.95	44762.45
570.15	45053.26
570.35	45204.81
570.55	45372.75
570.75	45172.05
570.95	45194.57
571.15	44645.72
571.35	45266.25
571.55	45518.15
571.75	45256.01
571.95	45280.59
572.15	45380.94
572.35	45434.19
572.55	45503.82
572.75	45405.52
572.95	45327.69
573.15	45401.42
573.35	45727.05
573.55	45667.66
573.75	45620.55
573.95	45497.67
574.15	45765.96
574.35	45815.11
574.55	45645.13
574.75	45802.82
574.95	45634.89
575.15	45626.70
575.34	46099.78
575.54	46327.10
575.74	46327.10
575.94	46519.61
576.14	46193.98
576.34	46390.59
576.54	46501.18
576.74	46746.93
576.94	46468.41
577.14	46198.08
577.34	46490.94
577.54	46576.95
577.74	46609.72
577.94	46945.59
578.14	46908.72
578.34	46794.04
578.54	46261.57
578.74	47002.93
578.94	46925.11
579.14	46765.37
579.34	47060.27
579.54	47183.15
579.74	47134.00
579.94	47437.10
580.13	47473.96
580.33	47559.98
580.53	47172.91
580.73	47654.18
580.93	47533.35
581.13	47750.44
581.33	47656.23
581.53	47826.21
581.73	47676.71
581.93	47801.64
582.13	47414.57
582.33	47822.12
582.53	47969.57
582.73	47715.62
582.92	48117.03
583.12	48176.42
583.32	47887.65
583.52	48037.16
583.72	48254.24
583.92	48014.63
584.12	48438.56
584.32	48813.34
584.52	48739.61
584.72	48094.50
584.92	48817.43
585.11	48899.35
585.31	48469.28
585.51	48606.49
585.71	48665.88
585.91	49366.29
586.11	48895.25
586.31	48381.21
586.51	48643.35
586.71	49128.72
586.91	49300.75
587.10	49081.62
587.30	49026.32
587.50	48792.86
587.70	49284.37
587.90	49038.61
588.10	49497.36
588.30	49208.59
588.50	49583.37
588.69	49440.01
588.89	49394.96
589.09	49761.54
589.29	49689.87
589.49	49863.94
589.69	49636.62
589.89	49681.67
590.08	49702.15
590.28	49962.25
590.48	49616.14
590.68	49419.53
590.88	49825.03
591.08	50044.16
591.28	49536.27
591.47	50519.29
591.67	50060.55
591.87	50109.70
592.07	50187.52
592.27	50646.27
592.47	50146.56
592.67	50210.05
592.86	50279.68
593.06	50035.97
593.26	50676.99
593.46	50664.70
593.66	50562.30
593.86	50785.53
594.05	50640.12
594.25	50939.13
594.45	50550.01
594.65	50568.44
594.85	50537.72
595.05	50883.83
595.24	50799.86
595.44	50734.33
595.64	50584.83
595.84	50777.34
596.04	51383.54
596.23	50865.40
596.43	51492.08
596.63	51068.15
596.83	50941.17
597.03	51602.67
597.22	52067.56
597.42	51592.43
597.62	51764.46
597.82	51873.00
598.02	51528.94
598.21	51840.23
598.41	51557.61
598.61	51412.21
598.81	51725.55
599.01	52024.55
599.20	51873.00
599.40	51764.46
599.60	52135.14
599.80	51713.26
600.00	51971.30
600.19	52405.47
600.39	52020.45
600.59	52241.63
600.79	51858.66
600.98	52190.44
601.18	52528.35
601.38	52335.84
601.58	52995.29
601.78	52688.09
601.97	52231.40
602.17	53109.97
602.37	52788.44
602.57	52737.24
602.76	52882.65
602.96	52827.35
603.16	53079.25
603.36	53046.49
603.55	53322.96
603.75	53204.18
603.95	53253.33
604.15	53222.61
604.34	52999.38
604.54	53402.83
604.74	53652.69
604.94	53392.59
605.13	53474.51
605.33	53392.59
605.53	53273.81
605.73	53789.90
605.92	53499.09
606.12	53832.91
606.32	53787.85
606.52	53587.15
606.71	53892.30
606.91	53916.87
607.11	53589.20
607.30	53970.12
607.50	53804.24
607.70	54113.48
607.90	53918.92
608.09	54023.37
608.29	54320.32
608.49	54140.10
608.68	53806.28
608.88	54609.09
609.08	53976.26
609.28	54506.69
609.47	53982.41
609.67	54582.46
609.87	54400.19
610.06	54768.83
610.26	54725.82
610.46	54666.43
610.66	54711.49
610.85	54588.61
611.05	54424.77
611.25	55203.00
611.44	54379.71
611.64	54664.38
611.84	54437.06
612.03	54727.87
612.23	54957.24
612.43	54881.47
612.62	54703.29
612.82	55262.39
613.02	55239.86
613.21	55012.54
613.41	54461.63
613.61	54936.76
613.80	54133.96
614.00	54711.49
614.20	54992.06
614.39	54875.32
614.59	54901.95
614.79	54858.94
614.98	54637.76
615.18	55049.40
615.38	55458.99
615.57	54721.72
615.77	55401.65
615.97	54760.64
616.16	54809.79
616.36	54877.37
616.56	54965.43
616.75	55350.45
616.95	54842.56
617.15	54949.05
617.34	55096.50
617.54	54701.25
617.74	55131.32
617.93	55458.99
618.13	54975.67
618.32	54807.74
618.52	54727.87
618.72	54891.71
618.91	55229.62
619.11	54645.95
619.31	55243.96
619.50	54944.95
619.70	54793.40
619.90	55028.92
620.09	54879.42
620.29	54971.58
620.48	55305.40
620.68	55221.43
620.88	54981.82
621.07	55260.34
621.27	54867.13
621.46	54713.53
621.66	54936.76
621.86	55305.40
622.05	54527.17
622.25	55682.22
622.44	55082.17
622.64	54531.26
622.84	55086.26
623.03	54146.25
623.23	55200.95
623.42	55057.59
623.62	55112.89
623.82	55422.13
624.01	55078.07
624.21	55043.26
624.40	54779.07
624.60	54811.84
624.80	54756.54
624.99	55139.51
625.19	54693.05
625.38	55219.38
625.58	55207.09
625.77	55030.97
625.97	55436.47
626.17	54580.42
626.36	54777.02
626.56	55141.56
626.75	54609.09
626.95	55231.67
627.14	54682.81
627.34	55571.63
627.54	54785.21
627.73	54965.43
627.93	54807.74
628.12	55012.54
628.32	54998.20
628.51	55219.38
628.71	54899.90
628.90	55065.78
629.10	54912.19
629.30	55084.22
629.49	55198.90
629.69	55049.40
629.88	55096.50
630.08	55313.59
630.27	55463.09
630.47	55094.46
630.66	54817.98
630.86	55514.29
631.05	54928.57
631.25	55551.15
631.44	55186.61
631.64	55387.31
631.84	55151.80
632.03	55778.48
632.23	55266.48
632.42	55714.99
632.62	55153.85
632.81	55008.44
633.01	55358.64
633.20	55710.89
633.40	55149.75
633.59	55088.31
633.79	54963.39
633.98	55057.59
634.18	55229.62
634.37	55112.89
634.57	55663.79
634.76	55966.89
634.96	55268.53
635.15	55813.29
635.35	55346.36
635.54	54627.52
635.74	55710.89
635.93	55479.47
636.13	55602.35
636.32	55366.84
636.52	55178.42
636.71	55282.87
636.91	55102.65
637.10	55258.29
637.30	55346.36
637.49	55415.99
637.69	55131.32
637.88	55282.87
638.08	55170.23
638.27	56003.75
638.46	55000.25
638.66	54809.79
638.85	55461.04
639.05	55612.59
639.24	55348.40
639.44	55246.00
639.63	55751.85
639.83	55526.58
640.02	55710.89
640.22	55557.30
640.41	55968.94
640.61	55217.33
640.80	55702.70
640.99	55688.37
641.19	56331.43
641.38	55491.76
641.58	55540.91
641.77	55655.60
641.97	55469.23
642.16	55289.01
642.36	55549.10
642.55	55805.10
642.74	55186.61
642.94	56095.91
643.13	55536.82
643.33	55633.07
643.52	55753.90
643.72	56337.57
643.91	55530.67
644.10	55854.25
644.30	56358.05
644.49	55862.44
644.69	55899.31
644.88	55882.92
645.08	55569.58
645.27	56079.53
645.46	55768.24
645.66	56085.67
645.85	55915.69
646.05	56493.22
646.24	56188.07
646.43	55854.25
646.63	56122.54
646.82	56521.89
647.02	56255.65
647.21	55927.98
647.40	56063.14
647.60	56143.02
647.79	56327.33
647.99	56423.59
648.18	56210.60
648.37	56857.76
648.57	56693.92
648.76	56446.11
648.96	56059.05
649.15	56331.43
649.34	56720.54
649.54	56349.86
649.73	55768.24
649.92	56712.35
650.12	56489.12
650.31	56771.74
650.51	56728.73
650.70	56829.08
650.89	56898.72
651.09	57103.51
651.28	56224.93
651.47	56577.18
651.67	56894.62
651.86	57136.28
652.06	56013.99
652.25	56493.22
652.44	56614.05
652.64	56186.02
652.83	56552.61
653.02	56349.86
653.22	56841.37
653.41	56007.85
653.60	56194.21
653.80	56538.27
653.99	57033.88
654.18	56800.41
654.38	56523.94
654.57	56814.75
654.76	56786.08
654.96	56470.69
655.15	56601.76
655.34	56632.48
655.54	56261.80
655.73	56794.27
655.92	57119.90
656.12	56681.63
656.31	57296.02
656.50	56644.77
656.70	56896.67
656.89	56906.91
657.08	56712.35
657.28	56747.17
657.47	56978.59
657.66	56714.40
657.86	56706.21
658.05	56951.96
658.24	56843.42
658.43	56693.92
658.63	57021.59
658.82	57222.29
659.01	57130.14
659.21	57123.99
659.40	57037.98
659.59	57212.06
659.79	57087.13
659.98	57103.51
660.17	56949.92
660.36	57058.46
660.56	56919.20
660.75	57136.28
660.94	56798.37
661.14	57070.75
661.33	56898.72
661.52	56720.54
661.71	57672.85
661.91	56915.10
662.10	57250.97
662.29	57439.38
662.49	57267.35
662.68	57173.14
662.87	57222.29
663.06	57463.96
663.26	56779.93
663.45	57463.96
663.64	57093.27
663.83	57719.95
664.03	57416.85
664.22	57003.16
664.41	57582.74
664.60	56902.81
664.80	57244.82
664.99	56880.28
665.18	56974.49
665.37	57103.51
665.57	57375.89
665.76	56685.73
665.95	57496.72
666.14	57029.79
666.34	57128.09
666.53	57078.94
666.72	57269.40
666.91	57171.10
667.11	57080.98
667.30	57130.14
667.49	57062.55
667.68	56964.25
667.87	57396.37
668.07	57420.95
668.26	57285.78
668.45	57185.43
668.64	56827.04
668.84	57449.62
669.03	57459.86
669.22	56915.10
669.41	57447.57
669.60	57093.27
669.80	57015.45
669.99	57463.96
670.18	56962.20
670.37	56868.00
670.57	57119.90
670.76	57060.51
670.95	57099.42
671.14	56980.63
671.33	56857.76
671.53	57623.70
671.72	57298.07
671.91	57179.29
672.10	56992.92
672.29	57255.06
672.48	56859.80
672.68	57312.41
672.87	56911.00
673.06	57025.69
673.25	56773.79
673.44	57017.50
673.64	57005.21
673.83	56947.87
674.02	56943.77
674.21	56800.41
674.40	56679.58
674.59	56587.42
674.79	56917.15
674.98	56966.30
675.17	56865.95
675.36	56712.35
675.55	57017.50
675.74	56640.67
675.94	56587.42
676.13	56925.34
676.32	57031.83
676.51	57359.51
676.70	56751.26
676.89	56702.11
677.08	56919.20
677.28	56988.83
677.47	57132.18
677.66	57275.54
677.85	56911.00
678.04	57099.42
678.23	57273.49
678.42	56878.24
678.62	56628.38
678.81	56777.89
679.00	56358.05
679.19	56808.61
679.38	56829.08
679.57	56874.14
679.76	56562.85
679.96	57003.16
680.15	56859.80
680.34	56583.33
680.53	57300.12
680.72	56571.04
680.91	56931.48
681.10	56833.18
681.29	57093.27
681.48	56382.63
681.68	56753.31
681.87	56409.25
682.06	56927.39
682.25	56390.82
682.44	56499.36
682.63	56794.27
682.82	56208.55
683.01	56542.37
683.20	56120.49
683.39	56372.39
683.59	56087.72
683.78	55897.26
683.97	56351.91
684.16	56151.21
684.35	56171.69
684.54	56177.83
684.73	56208.55
684.92	56050.86
685.11	56032.42
685.30	56120.49
685.49	56394.92
685.69	56136.87
685.88	56292.52
686.07	55999.66
686.26	56005.80
686.45	56155.30
686.64	56048.81
686.83	55897.26
687.02	55809.20
687.21	56251.56
687.40	55825.58
687.59	55755.95
687.78	56067.24
687.97	56157.35
688.16	55827.63
688.35	55549.10
688.54	55631.02
688.74	55536.82
688.93	55680.17
689.12	55588.02
689.31	55661.74
689.50	56048.81
689.69	55573.68
689.88	55477.43
690.07	56198.31
690.26	55465.14
690.45	55911.59
690.64	55358.64
690.83	55080.12
691.02	54928.57
691.21	55207.09
691.40	55293.11
691.59	55682.22
691.78	55516.34
691.97	55239.86
692.16	55162.04
692.35	55620.78
692.54	55262.39
692.73	55477.43
692.92	55653.55
693.11	55172.28
693.30	55030.97
693.49	55246.00
693.68	55403.70
693.87	55436.47
694.06	55071.93
694.25	55108.79
694.44	54992.06
694.63	55143.61
694.82	54846.65
695.01	55151.80
695.20	55194.81
695.39	54664.38
695.58	54734.01
695.77	54992.06
695.96	54693.05
696.15	54701.25
696.34	54719.68
696.53	54717.63
696.72	54926.52
696.91	54815.93
697.10	54678.72
697.29	54418.63
697.48	55098.55
697.67	54348.99
697.86	54019.27
698.05	54025.42
698.24	55108.79
698.43	54086.85
698.62	54678.72
698.81	54523.07
699.00	54402.24
699.19	54246.60
699.38	54310.08
699.57	54064.33
699.76	54879.42
699.95	53990.60
700.14	53857.48
700.32	53951.69
700.51	54023.37
700.70	54512.83
700.89	54310.08
701.08	54252.74
701.27	54310.08
701.46	54035.66
701.65	53638.35
701.84	53900.49
702.03	54383.81
702.22	53931.21
702.41	54316.23
702.60	54201.54
702.79	53998.79
702.98	53417.17
703.17	53755.08
703.35	53619.92
703.54	53648.59
703.73	53841.10
703.92	53990.60
704.11	53646.54
704.30	53441.74
704.49	53677.26
704.68	53480.66
704.87	53728.46
705.06	53474.51
705.25	53368.02
705.43	53724.36
705.62	53290.19
705.81	53484.75
706.00	53517.52
706.19	53480.66
706.38	53482.70
706.57	53570.77
706.76	53347.54
706.95	53048.53
707.14	53105.88
707.32	52907.22
707.51	52884.70
707.70	53103.83
707.89	52706.52
708.08	53269.72
708.27	53191.89
708.46	53470.42
708.65	53091.54
708.84	53320.91
709.02	52876.51
709.21	53337.30
709.40	52507.87
709.59	53038.29
709.78	52524.25
709.97	52868.31
710.16	52651.23
710.34	52483.30
710.53	52659.42
710.72	52669.66
710.91	52823.26
711.10	52946.14
711.29	53138.65
711.48	52579.55
711.66	53030.10
711.85	52563.17
712.04	52548.83
712.23	52614.37
712.42	52446.43
712.61	52305.12
712.80	52536.54
712.98	52585.69
713.17	52626.65
713.36	52354.27
713.55	52294.88
713.74	52704.48
713.93	52022.50
714.11	52423.90
714.30	52102.37
714.49	51930.34
714.68	52026.60
714.87	52077.80
715.06	52335.84
715.24	52270.31
715.43	52012.26
715.62	51981.54
715.81	52032.74
716.00	51795.18
716.18	51326.19
716.37	51223.79
716.56	51809.51
716.75	52047.08
716.94	51522.80
717.12	51524.85
717.31	51602.67
717.50	51799.27
717.69	51434.74
717.88	51395.82
718.06	51633.39
718.25	51277.04
718.44	51272.95
718.63	51504.37
718.82	51010.81
719.00	51215.60
719.19	51064.05
719.38	50857.21
719.57	50773.24
719.76	50748.67
719.94	50396.42
720.13	50715.90
720.32	50746.62
720.51	50763.00
720.69	50615.55
720.88	50457.85
721.07	50623.74
721.26	50056.45
721.44	50271.49
721.63	50263.30
721.82	50382.08
722.01	50382.08
722.20	50269.44
722.38	50322.69
722.57	49626.38
722.76	50359.55
722.95	50031.88
723.13	49394.96
723.32	50021.64
723.51	49710.35
723.70	49741.06
723.88	49677.58
724.07	49978.63
724.26	49313.04
724.44	48993.56
724.63	49698.06
724.82	49618.19
725.01	48952.60
725.19	49409.29
725.38	49227.02
725.57	49063.19
725.76	49259.79
725.94	48989.46
726.13	49286.42
726.32	49044.76
726.51	48780.57
726.69	49347.86
726.88	49386.77
727.07	48919.83
727.25	48868.63
727.44	49472.78
727.63	48999.70
727.82	48956.69
728.00	49159.44
728.19	48872.73
728.38	49145.11
728.56	48805.14
728.75	49083.67
728.94	48792.86
729.12	48936.21
729.31	48698.65
729.50	49075.48
729.69	49118.48
729.87	48665.88
730.06	48678.17
730.25	49190.16
730.43	48944.41
730.62	48854.29
730.81	49071.38
730.99	48973.08
731.18	48276.77
731.37	48864.53
731.55	49046.80
731.74	49493.26
731.93	49112.34
732.11	48944.41
732.30	48821.53
732.49	48684.31
732.67	48889.11
732.86	48467.23
733.05	48491.80
733.23	48293.15
733.42	48575.77
733.61	48121.12
733.79	48489.76
733.98	48500.00
734.17	48334.11
734.35	48287.01
734.54	48573.72
734.73	48620.83
734.91	48330.01
735.10	48250.14
735.29	48702.74
735.47	47965.48
735.66	48434.46
735.84	48663.83
736.03	47973.67
736.22	48373.02
736.40	48299.30
736.59	48352.54
736.78	48411.93
736.96	47901.99
737.15	48055.59
737.33	48252.19
737.52	47633.71
737.71	47969.57
737.89	47834.41
738.08	48024.87
738.27	47508.78
738.45	48618.78
738.64	48194.85
738.82	48160.03
739.01	47832.36
739.20	47656.23
739.38	48082.21
739.57	47809.83
739.75	47910.18
739.94	47582.51
740.13	47807.78
740.31	47838.50
740.50	48004.39
740.68	47949.09
740.87	47748.39
741.06	47873.32
741.24	47693.10
741.43	47252.78
741.61	47748.39
741.80	47371.57
741.99	47289.65
742.17	47213.87
742.36	47426.86
742.54	47318.32
742.73	47125.81
742.91	47781.16
743.10	47023.41
743.29	47516.97
743.47	47125.81
743.66	47213.87
743.84	46939.44
744.03	47422.76
744.21	47117.62
744.40	47273.26
744.59	47134.00
744.77	46904.63
744.96	47082.80
745.14	46957.88
745.33	46744.89
745.51	47060.27
745.70	46761.27
745.88	46843.19
746.07	46867.76
746.26	46849.33
746.44	46875.96
746.63	46232.89
746.81	46576.95
747.00	45944.13
747.18	46339.39
747.37	46773.56
747.55	46699.83
747.74	47129.90
747.92	46062.91
748.11	46599.48
748.29	46349.63
748.48	46339.39
748.66	46306.62
748.85	46419.26
749.03	46507.32
749.22	46318.91
749.41	46347.58
749.59	46437.69
749.78	45950.27
749.96	46159.17
750.15	45833.54
750.33	46093.63
750.52	46026.05
750.70	46189.89
750.89	45946.18
751.07	45503.82
751.26	45899.08
751.44	45604.17
751.63	45882.69
751.81	45790.53
752.00	45804.87
752.18	45669.70
752.37	45382.99
752.55	45606.22
752.74	45665.61
752.92	45700.42
753.10	45458.76
753.29	44946.77
753.47	45178.19
753.66	44762.45
753.84	45569.35
754.03	45182.29
754.21	45086.03
754.40	45182.29
754.58	45311.31
754.77	44946.77
754.95	44856.66
755.14	45567.30
755.32	44983.63
755.51	44621.14
755.69	44850.52
755.88	44969.30
756.06	44952.91
756.24	44787.03
756.43	44823.89
756.61	44512.60
756.80	44627.29
756.98	44309.85
757.17	44748.12
757.35	44838.23
757.54	44375.39
757.72	44711.25
757.90	44258.65
758.09	44062.05
758.27	44361.05
758.46	43902.31
758.64	44442.97
758.83	44412.25
759.01	43939.17
759.19	44174.69
759.38	44293.47
759.56	44303.71
759.75	44275.04
759.93	44150.11
760.12	43914.59
760.30	44105.06
760.48	43834.72
760.67	44127.58
760.85	43930.98
761.04	44275.04
761.22	44139.87
761.40	43515.24
761.59	43502.95
761.77	43502.95
761.96	43433.32
762.14	43699.56
762.32	43961.70
762.51	43560.30
762.69	44252.51
762.88	43464.04
763.06	43695.46
763.24	43709.80
763.43	43519.34
763.61	43132.27
763.80	43529.58
763.98	43373.93
764.16	42904.95
764.35	42993.01
764.53	42874.23
764.72	43206.00
764.90	43042.16
765.08	43021.68
765.27	42734.96
765.45	42575.22
765.63	42737.01
765.82	42839.41
766.00	42579.32
766.18	42694.00
766.37	42675.57
766.55	42472.82
766.74	42511.74
766.92	42812.79
767.10	42587.51
767.29	42534.26
767.47	42173.82
767.65	42558.84
767.84	41932.16
768.02	42233.21
768.20	42014.08
768.39	42122.62
768.57	41999.74
768.75	42102.14
768.94	41786.75
769.12	42161.53
769.30	42104.19
769.49	41874.82
769.67	41502.09
769.85	41297.29
770.04	41729.41
770.22	41631.11
770.40	41575.81
770.59	41835.91
770.77	42028.41
770.95	41680.26
771.14	41446.79
771.32	41092.49
771.50	41072.01
771.69	41508.23
771.87	41473.42
772.05	41379.21
772.24	41250.19
772.42	41465.22
772.60	41233.80
772.78	41166.22
772.97	41039.25
773.15	41215.37
773.33	41115.02
773.52	40994.19
773.70	41188.75
773.88	41463.18
774.07	40854.93
774.25	41002.38
774.43	41209.23
774.61	40940.94
774.80	41035.15
774.98	41377.16
775.16	41276.81
775.34	41104.78
775.53	40531.35
775.71	41278.86
775.89	41035.15
776.08	41170.32
776.26	41014.67
776.44	40955.28
776.62	40525.21
776.81	40871.31
776.99	41162.12
777.17	40861.07
777.35	41330.06
777.54	41547.14
777.72	41495.94
777.90	41106.83
778.08	41659.78
778.27	40961.42
778.45	41381.26
778.63	41676.16
778.81	40977.81
779.00	41635.20
779.18	41241.99
779.36	42046.85
779.54	41561.48
779.73	41565.57
779.91	41586.05
780.09	41753.99
780.27	41422.22
780.46	41794.95
780.64	41854.34
780.82	41264.52
781.00	41278.86
781.19	41964.93
781.37	42114.43
781.55	41784.71
781.73	42175.87
781.91	41911.68
782.10	41778.56
782.28	42046.85
782.46	42098.05
782.64	42204.54
782.82	41835.91
783.01	42182.01
783.19	41983.36
783.37	42288.51
783.55	42165.63
783.74	42321.27
783.92	41633.16
784.10	42450.30
784.28	42243.45
784.46	41733.51
784.64	42163.58
784.83	42071.42
785.01	42431.86
785.19	41784.71
785.37	42165.63
785.55	42014.08
785.74	41762.18
785.92	42007.94
786.10	41805.19
786.28	42110.33
786.46	41809.28
786.64	41307.53
786.83	41567.62
787.01	41829.76
787.19	41690.50
787.37	41915.78
787.55	42024.32
787.74	41276.81
787.92	41543.05
788.10	41368.97
788.28	41194.89
788.46	41086.35
788.64	41379.21
788.82	41409.93
789.01	41495.94
789.19	41495.94
789.37	40648.08
789.55	41231.75
789.73	40777.11
789.91	40856.98
790.09	40400.28
790.28	41051.53
790.46	40355.22
790.64	40818.07
790.82	40803.73
791.00	40334.74
791.18	40539.54
791.36	40553.88
791.55	40514.97
791.73	40584.60
791.91	40238.49
792.09	40357.27
792.27	40342.94
792.45	40373.66
792.63	40078.75
792.81	40230.30
793.00	40134.04
793.18	40082.84
793.36	40197.53
793.54	39542.18
793.72	39554.47
793.90	39599.52
794.08	39157.16
794.26	39998.88
794.44	39007.66
794.62	39148.97
794.81	39632.29
794.99	38921.65
795.17	39230.89
795.35	39163.31
795.53	38811.06
795.71	39232.94
795.89	38731.18
796.07	38577.59
796.25	38557.11
796.43	38229.43
796.61	38442.42
796.80	38151.61
796.98	38657.46
797.16	38131.13
797.34	37830.08
797.52	37764.54
797.70	37895.61
797.88	37744.06
798.06	37357.00
798.24	37772.74
798.42	37676.48
798.60	37635.52
798.78	37459.40
798.96	37303.75
799.14	37420.48
799.32	37029.32
799.51	37127.63
799.69	37295.56
799.87	37006.80
800.05	36822.48
800.23	36836.81
800.41	36644.30
800.59	36496.85
800.77	36361.69
800.95	36232.66
801.13	36165.08
801.31	36220.38
801.49	36240.86
801.67	36058.59
801.85	36339.16
802.03	35655.14
802.21	35927.52
802.39	35491.30
802.57	35644.90
802.75	35487.20
802.93	35597.79
803.11	35696.10
803.29	35241.45
803.47	35501.54
803.65	35470.82
803.83	35263.97
804.01	35112.42
804.19	35233.25
804.37	34764.27
804.55	35515.87
804.73	34942.44
804.91	34751.98
805.09	34659.82
805.27	35001.83
805.45	34608.62
805.63	34571.76
805.81	34438.64
805.99	34389.49
806.17	34280.95
806.35	34172.41
806.53	33983.99
806.71	34610.67
806.89	34051.58
807.07	34090.49
807.25	34008.57
807.43	33762.81
807.61	33822.20
807.79	33904.12
807.97	33359.36
808.15	33568.26
808.33	33486.34
808.51	33519.10
808.69	33216.01
808.87	32943.63
809.05	33175.05
809.23	33074.70
809.41	32931.34
809.59	33029.64
809.77	33338.88
809.95	32861.71
810.13	33089.03
810.31	32925.19
810.49	32830.99
810.67	32738.83
810.84	32622.09
811.02	32599.57
811.20	32271.89
811.38	32646.67
811.56	32302.61
811.74	32108.05
811.92	32198.16
812.10	32058.90
812.28	32335.38
812.46	32073.24
812.64	32050.71
812.82	31813.15
813.00	32155.16
813.18	31745.56
813.36	31927.83
813.53	31446.56
813.71	31897.11
813.89	31143.46
814.07	31311.39
814.25	31807.00
814.43	31290.91
814.61	31180.32
814.79	31196.71
814.97	31165.99
815.15	31483.42
815.33	30885.42
815.50	30793.26
815.68	30789.16
815.86	30873.13
816.04	31004.20
816.22	30717.48
816.40	30860.84
816.58	31049.25
816.76	30592.56
816.94	30307.89
817.11	30795.31
817.29	30502.45
817.47	30266.93
817.65	30352.94
817.83	30307.89
818.01	30107.19
818.19	29836.86
818.37	29908.54
818.54	29969.97
818.72	29822.52
818.90	30105.14
819.08	29793.85
819.26	29871.67
819.44	29664.83
819.62	29560.38
819.80	30035.51
819.97	29857.34
820.15	29570.62
820.33	29500.99
820.51	29847.10
820.69	29652.54
820.87	29648.44
821.05	29644.35
821.22	29531.71
821.40	29204.03
821.58	29431.36
821.76	29087.30
821.94	29091.40
822.12	29003.33
822.29	29300.29
822.47	29056.58
822.65	29171.27
822.83	28931.65
823.01	28909.13
823.19	28841.54
823.36	28677.71
823.54	28872.26
823.72	28601.93
823.90	28833.35
824.08	28202.58
824.25	28374.61
824.43	28151.38
824.61	28405.33
824.79	28294.74
824.97	28259.92
825.15	28554.83
825.32	28413.52
825.50	28266.06
825.68	28286.54
825.86	28487.25
826.04	28528.20
826.21	28141.14
826.39	28311.12
826.57	27782.74
826.75	27948.63
826.93	27563.61
827.10	28051.03
827.28	27770.46
827.46	28120.66
827.64	27721.30
827.81	27655.77
827.99	27879.00
828.17	27520.60
828.35	27407.97
828.53	27737.69
828.70	27543.13
828.88	27369.05
829.06	27407.97
829.24	28014.16
829.41	27491.93
829.59	27639.39
829.77	27293.28
829.95	27348.57
830.12	27473.50
830.30	27356.77
830.48	27465.31
830.66	27100.77
830.84	27225.70
831.01	27115.11
831.19	26910.31
831.37	27082.34
831.55	26910.31
831.72	26943.08
831.90	27121.25
832.08	26648.17
832.25	26873.45
832.43	26984.04
832.61	26435.18
832.79	26465.90
832.96	26574.44
833.14	26863.21
833.32	26859.11
833.50	26736.23
833.67	26539.63
833.85	26650.22
834.03	25730.68
834.20	26553.96
834.38	26297.97
834.56	26216.05
834.74	26287.73
834.91	26177.14
835.09	26304.11
835.27	26168.94
835.44	25892.47
835.62	25788.02
835.80	25871.99
835.98	25988.72
836.15	26021.49
836.33	25843.32
836.51	26259.06
836.68	25593.47
836.86	25890.42
837.04	25718.39
837.21	25798.26
837.39	26052.21
837.57	25529.98
837.75	25665.14
837.92	25548.41
838.10	25702.01
838.28	25321.09
838.45	25278.08
838.63	25378.43
838.81	25511.55
838.98	25441.92
839.16	25224.83
839.34	25433.72
839.51	25351.81
839.69	25206.40
839.87	24946.31
840.04	25196.16
840.22	25300.61
840.40	25280.13
840.57	25124.48
840.75	24950.40
840.93	24835.72
841.10	25372.28
841.28	25206.40
841.46	24899.20
841.63	25192.06
841.81	24856.20
841.98	24903.30
842.16	24944.26
842.34	24899.20
842.51	24247.95
842.69	24696.46
842.87	24729.22
843.04	24942.21
843.22	24809.09
843.40	24592.01
843.57	24663.69
843.75	24645.26
843.92	24612.49
844.10	24667.78
844.28	24501.90
844.45	24385.16
844.63	24770.18
844.81	24098.45
844.98	24329.87
845.16	24241.81
845.33	24147.60
845.51	24233.61
845.69	24055.44
845.86	24309.39
846.04	23987.86
846.21	24229.52
846.39	24024.72
846.57	24198.80
846.74	24278.67
846.92	23879.32
847.09	23963.28
847.27	23795.35
847.45	23883.41
847.62	24067.73
847.80	24022.67
847.97	24133.26
848.15	23641.75
848.32	23641.75
848.50	23750.29
848.68	23477.91
848.85	23629.46
849.03	23371.42
849.20	23516.83
849.38	23598.74
849.56	23410.33
849.73	23555.74
849.91	23651.99
850.08	23608.98
850.26	23441.05
850.43	23455.39
850.61	23377.56
850.78	23273.12
850.96	23494.30
851.14	23291.55
851.31	23285.40
851.49	23144.09
851.66	23232.16
851.84	23127.71
852.01	22875.81
852.19	22974.11
852.36	22994.59
852.54	23295.64
852.71	22900.39
852.89	22967.97
853.07	22820.52
853.24	22855.33
853.42	22828.71
853.59	22943.39
853.77	22931.11
853.94	22804.13
854.12	22929.06
854.29	22566.57
854.47	22918.82
854.64	22771.36
854.82	22447.79
854.99	22406.83
855.17	22251.18
855.34	22589.10
855.52	22529.70
855.69	22677.16
855.87	22552.23
856.04	22222.51
856.22	22374.06
856.39	22277.80
856.57	22474.41
856.74	22202.03
856.92	22541.99
857.09	22390.44
857.27	22199.98
857.44	22464.17
857.62	22288.04
857.79	22378.15
857.97	22419.11
858.14	22181.55
858.32	21999.28
858.49	22419.11
858.67	22052.53
858.84	21780.15
859.02	21964.46
859.19	21948.08
859.37	21726.90
859.54	21673.65
859.72	22230.70
859.89	21909.17
860.06	21642.93
860.24	21769.91
860.41	21892.79
860.59	21817.01
860.76	21853.87
860.94	21565.11
861.11	21644.98
861.29	21774.00
861.46	21501.62
861.64	21274.30
861.81	21515.96
861.98	21855.92
862.16	21485.24
862.33	21327.55
862.51	21759.67
862.68	21575.35
862.86	21173.95
863.03	21233.34
863.21	21321.40
863.38	21182.14
863.55	20942.53
863.73	21128.89
863.90	21245.63
864.08	21132.99
864.25	21135.04
864.43	21384.89
864.60	21229.24
864.77	20645.57
864.95	21042.88
865.12	20514.50
865.30	20967.10
865.47	21079.74
865.64	21079.74
865.82	20741.83
865.99	20963.01
866.17	20760.26
866.34	20774.60
866.51	20426.44
866.69	20868.80
866.86	20733.64
867.04	20747.97
867.21	20625.09
867.38	20621.00
867.56	20485.83
867.73	20639.43
867.91	20410.06
868.08	20399.82
868.25	20240.08
868.43	20379.34
868.60	20365.00
868.78	20135.63
868.95	20498.12
869.12	20317.90
869.30	20235.98
869.47	20281.03
869.64	19883.73
869.82	20047.57
869.99	19920.59
870.16	20242.12
870.34	20141.77
870.51	20297.42
870.69	19996.37
870.86	19779.28
871.03	19734.23
871.21	19957.46
871.38	19781.33
871.55	19764.95
871.73	19447.51
871.90	19537.62
872.07	19373.78
872.25	19445.46
872.42	19513.05
872.59	19631.83
872.77	19486.42
872.94	19369.69
873.11	19291.87
873.29	19216.09
873.46	19199.71
873.63	18902.75
873.81	19216.09
873.98	19195.61
874.15	19259.10
874.33	18923.23
874.50	18972.38
874.67	19072.73
874.85	18773.73
875.02	18949.85
875.19	19154.65
875.37	19011.29
875.54	18962.14
875.71	18886.37
875.88	18718.43
876.06	18855.65
876.23	18743.01
876.40	18644.71
876.58	18839.26
876.75	18601.70
876.92	18364.14
877.10	18530.02
877.27	18726.63
877.44	18398.95
877.61	18325.22
877.79	18269.93
877.96	18194.15
878.13	18259.69
878.31	18015.98
878.48	18056.94
878.65	18259.69
878.82	17864.43
879.00	18249.45
879.17	18276.07
879.34	18310.89
879.51	17825.52
879.69	17725.17
879.86	17846.00
880.03	17716.98
880.21	17911.53
880.38	17747.70
880.55	17901.29
880.72	17733.36
880.90	17743.60
881.07	17661.68
881.24	17727.22
881.41	17542.90
881.59	17426.17
881.76	17522.42
881.93	17678.07
882.10	17385.21
882.28	17544.95
882.45	17434.36
882.62	17393.40
882.79	17643.25
882.96	17174.27
883.14	17446.65
883.31	17301.24
883.48	17231.61
883.65	17184.51
883.83	17456.89
884.00	17319.67
884.17	17391.35
884.34	17215.23
884.51	17069.82
884.69	17264.38
884.86	17127.16
885.03	17202.94
885.20	17090.30
885.38	17202.94
885.55	17094.40
885.72	16924.41
885.89	17051.39
886.06	16955.13
886.24	16899.84
886.41	16905.98
886.58	17030.91
886.75	17166.07
886.92	16705.28
887.10	17012.48
887.27	16660.23
887.44	16791.30
887.61	16981.76
887.78	17139.45
887.95	16686.85
888.13	16508.68
888.30	16547.59
888.47	16430.85
888.64	16533.25
888.81	16551.68
888.99	16576.26
889.16	16092.94
889.33	16412.42
889.50	16355.08
889.67	16396.04
889.84	16316.17
890.01	16320.26
890.19	16238.34
890.36	16248.58
890.53	16420.61
890.70	16142.09
890.87	16258.82
891.04	16185.10
891.22	16146.19
891.39	16107.27
891.56	15910.67
891.73	15978.25
891.90	16062.22
892.07	15916.81
892.24	15978.25
892.42	15961.87
892.59	15859.47
892.76	15918.86
892.93	15734.54
893.10	15998.73
893.27	15777.55
893.44	15636.24
893.61	15617.81
893.79	15916.81
893.96	15732.50
894.13	15632.15
894.30	15638.29
894.47	15773.46
894.64	15787.79
894.81	15853.33
894.98	15640.34
895.15	15791.89
895.33	15806.22
895.50	15437.59
895.67	15542.03
895.84	15400.72
896.01	15664.91
896.18	15691.54
896.35	15615.76
896.52	15523.60
896.69	15527.70
896.86	15726.35
897.04	15683.34
897.21	15447.83
897.38	15519.51
897.55	15535.89
897.72	15562.51
897.89	15615.76
898.06	15808.27
898.23	15331.09
898.40	15494.93
898.57	15339.29
898.74	15460.12
898.91	15437.59
899.08	15503.12
899.26	15494.93
899.43	15644.43
899.60	15486.74
899.77	15347.48
899.94	15494.93
900.11	15423.25
900.28	15427.35
900.45	15388.44
900.62	15327.00
900.79	15644.43
900.96	15523.60
901.13	15392.53
901.30	15382.29
901.47	15404.82
901.64	15533.84
901.81	15376.15
901.98	15320.85
902.15	15486.74
902.32	15322.90
902.49	15163.16
902.66	15464.21
902.83	15294.23
903.01	15396.63
903.18	15505.17
903.35	15298.33
903.52	15359.77
903.69	15626.00
903.86	15429.40
904.03	15275.80
904.20	15517.46
904.37	15435.54
904.54	15329.05
904.71	15363.86
904.88	15453.97
905.05	15232.79
905.22	15603.47
905.39	15376.15
905.56	15152.92
905.73	15337.24
905.90	15161.11
906.07	15410.96
906.24	15292.18
906.41	15204.12
906.58	15286.04
906.75	15204.12
906.92	15081.24
907.09	15058.71
907.26	15363.86
907.43	15220.50
907.60	15367.96
907.77	15437.59
907.93	15286.04
908.10	14984.99
908.27	15157.02
908.44	14894.88
908.61	15173.40
908.78	15021.85
908.95	15240.98
909.12	15148.82
909.29	15036.19
909.46	14927.64
909.63	15079.19
909.80	14984.99
909.97	15238.94
910.14	15103.77
910.31	15044.38
910.48	15114.01
910.65	15165.21
910.82	15093.53
910.99	14978.84
911.16	14941.98
911.33	14802.72
911.50	14960.41
911.66	15099.67
911.83	15001.37
912.00	14706.46
912.17	14389.03
912.34	14815.01
912.51	14890.78
912.68	14683.94
912.85	14649.12
913.02	14642.98
913.19	14683.94
913.36	14540.58
913.53	14593.83
913.70	14599.97
913.86	14604.07
914.03	14745.38
914.20	14567.20
914.37	14690.08
914.54	14346.02
914.71	14538.53
914.88	14266.15
915.05	14288.68
915.22	14427.94
915.39	14231.33
915.55	14090.02
915.72	14122.79
915.89	13897.52
916.06	14051.11
916.23	14049.07
916.40	14110.50
916.57	14040.87
916.74	14190.38
916.91	14165.80
917.07	13932.33
917.24	13915.95
917.41	13784.88
917.58	13877.04
917.75	14012.20
917.92	13702.96
918.09	13866.80
918.26	13592.37
918.42	13797.17
918.59	13831.98
918.76	13637.42
918.93	13414.20
919.10	13289.27
919.27	13676.34
919.44	13561.65
919.60	13645.62
919.77	13485.87
919.94	13217.59
920.11	13471.54
920.28	13317.94
920.45	13209.40
920.61	13150.01
920.78	13039.42
920.95	13111.10
921.12	13150.01
921.29	12873.53
921.46	13002.55
921.62	13027.13
921.79	12836.67
921.96	12848.96
922.13	12767.04
922.30	12812.09
922.47	12693.31
922.63	12767.04
922.80	12476.23
922.97	12300.10
923.14	12259.14
923.31	12642.11
923.47	12298.05
923.64	12738.37
923.81	12343.11
923.98	12199.75
924.15	12300.10
924.32	12386.12
924.48	12326.72
924.65	12199.75
924.82	12007.24
924.99	12025.67
925.15	11827.02
925.32	12072.78
925.49	11779.92
925.66	11790.16
925.83	11743.05
925.99	11654.99
926.16	11931.47
926.33	11736.91
926.50	11704.14
926.67	11679.57
926.83	11747.15
927.00	11423.57
927.17	11380.56
927.34	11214.68
927.50	11470.67
927.67	11435.86
927.84	11521.87
928.01	11280.21
928.17	11194.20
928.34	10997.59
928.51	11061.08
928.68	10923.87
928.84	10946.39
929.01	10981.21
929.18	10919.77
929.35	10852.19
929.51	11013.98
929.68	10803.04
929.85	10721.12
930.02	10637.15
930.18	10624.86
930.35	10717.02
930.52	10567.52
930.69	10635.10
930.85	10418.02
931.02	10512.22
931.19	10305.38
931.36	10303.33
931.52	10270.56
931.69	10493.79
931.86	10157.92
932.02	10162.02
932.19	10202.98
932.36	9897.83
932.53	9805.67
932.69	9985.90
932.86	9944.94
933.03	9838.44
933.19	9695.08
933.36	9838.44
933.53	9629.55
933.70	9799.53
933.86	9795.43
934.03	9731.95
934.20	9531.25
934.36	9529.20
934.53	9490.29
934.70	9045.88
934.86	9236.34
935.03	9285.49
935.20	9248.63
935.36	9049.97
935.53	9092.98
935.70	8949.62
935.86	8830.84
936.03	8802.17
936.20	8636.28
936.36	8722.30
936.53	8621.95
936.70	8654.72
936.86	8521.60
937.03	8388.48
937.20	8175.49
937.36	8329.09
937.53	8034.18
937.70	8017.80
937.86	7784.33
938.03	7827.34
938.20	8042.37
938.36	7839.62
938.53	7712.65
938.70	7384.98
938.86	7489.42
939.03	7376.78
939.20	7290.77
939.36	7075.73
939.53	7294.86
939.70	7180.18
939.86	6850.46
940.03	6870.94
940.19	6631.32
940.36	6668.19
940.53	6608.80
940.69	6520.73
940.86	6477.73
941.03	6451.10
941.19	6217.63
941.36	6148.00
941.52	6057.89
941.69	6145.95
941.86	6092.71
942.02	6178.72
942.19	6115.23
942.35	5943.21
942.52	5820.33
942.69	5719.98
942.85	5541.80
943.02	5613.48
943.18	5656.49
943.35	5537.71
943.52	5533.61
943.68	5269.42
943.85	5484.46
944.01	5423.02
944.18	5191.60
944.35	5492.65
944.51	5246.90
944.68	5132.21
944.84	4937.65
945.01	5060.53
945.17	5238.70
945.34	5230.51
945.51	5210.03
945.67	5064.63
945.84	5040.05
946.00	4960.18
946.17	5052.34
946.33	4829.11
946.50	5027.76
946.67	4958.13
946.83	4689.85
947.00	5103.54
947.16	4882.36
947.33	4673.46
947.49	4984.76
947.66	4757.43
947.82	4943.80
947.99	4898.74
948.16	5175.22
948.32	4779.96
948.49	4919.22
948.65	5160.88
948.82	4841.40
948.98	4695.99
949.15	4472.76
949.31	4831.16
949.48	4818.87
949.64	4747.19
949.81	4943.80
949.97	4714.42
950.14	4775.86
950.30	4675.51
950.47	5021.62
950.63	4779.96
950.80	4915.12
950.96	4923.32
951.13	4843.45
951.30	4982.71
951.46	4747.19
951.63	5255.09
951.79	5124.02
951.96	5136.31
952.12	5023.67
952.29	5255.09
952.45	4710.33
952.62	5085.11
952.78	4806.58
952.94	5046.20
953.11	5029.81
953.27	4861.88
953.44	5072.82
953.60	5255.09
953.77	4954.04
953.93	4995.00
954.10	5046.20
954.26	4908.98
954.43	4954.04
954.59	5279.66
954.76	5236.66
954.92	5050.29
955.09	4978.61
955.25	5035.96
955.42	4951.99
955.58	5279.66
955.75	5070.77
955.91	4853.69
956.07	5048.24
956.24	5130.16
956.40	4945.84
956.57	5033.91
956.73	4913.08
956.90	5150.64
957.06	4988.85
957.23	4857.78
957.39	4847.54
957.56	5154.74
957.72	4937.65
957.88	4671.42
958.05	5187.50
958.21	5154.74
958.38	5201.84
958.54	4886.45
958.71	5283.76
958.87	4937.65
959.03	4917.17
959.20	4964.28
959.36	4966.32
959.53	5097.39
959.69	4847.54
959.85	5244.85
960.02	4786.10
960.18	4976.56
960.35	5064.63
960.51	5007.28
960.68	4976.56
960.84	4951.99
961.00	4917.17
961.17	5064.63
961.33	4951.99
961.50	5185.46
961.66	5046.20
961.82	4851.64
961.99	4868.02
962.15	4845.49
962.31	4872.12
962.48	5072.82
962.64	4902.84
962.81	5072.82
962.97	4829.11
963.13	5091.25
963.30	4917.17
963.46	4884.41
963.62	4691.90
963.79	4779.96
963.95	4786.10
964.12	4933.56
964.28	4911.03
964.44	4704.18
964.61	4949.94
964.77	4904.89
964.93	4984.76
965.10	4788.15
965.26	4841.40
965.42	4634.55
965.59	4450.24
965.75	4790.20
965.92	4714.42
966.08	4724.66
966.24	4726.71
966.41	4704.18
966.57	4779.96
966.73	4857.78
966.90	4790.20
967.06	4839.35
967.22	4501.44
967.39	4616.12
967.55	4671.42
967.71	4509.63
967.88	4638.65
968.04	4732.86
968.20	4640.70
968.37	4675.51
968.53	4376.51
968.69	4517.82
968.85	4763.58
969.02	4566.97
969.18	4607.93
969.34	4319.17
969.51	4509.63
969.67	4648.89
969.83	4296.64
970.00	4837.30
970.16	4642.75
970.32	4663.22
970.48	4710.33
970.65	4444.09
970.81	4534.20
970.97	4499.39
971.14	4222.91
971.30	4585.40
971.46	4390.84
971.63	4556.73
971.79	4464.57
971.95	4483.00
972.11	4394.94
972.28	4503.48
972.44	4405.18
972.60	4296.64
972.76	4102.08
972.93	4149.18
973.09	4411.32
973.25	4349.89
973.42	4274.11
973.58	4460.48
973.74	4321.21
973.90	4290.49
974.07	3966.92
974.23	4335.55
974.39	4280.25
974.55	4353.98
974.72	4112.32
974.88	4202.43
975.04	4315.07
975.20	4229.06
975.37	3962.82
975.53	4132.80
975.69	4241.34
975.85	4184.00
976.01	4071.36
976.18	3993.54
976.34	4009.92
976.50	3979.20
976.66	4145.09
976.83	4071.36
976.99	3846.09
977.15	4093.89
977.31	3616.71
977.47	4100.03
977.64	4085.70
977.80	4030.40
977.96	3712.97
978.12	3975.11
978.29	3827.65
978.45	3987.40
978.61	3803.08
978.77	3778.50
978.93	3823.56
979.10	3878.85
979.26	3764.17
979.42	3917.76
979.58	3573.71
979.74	3690.44
979.91	3600.33
980.07	3622.86
980.23	3411.92
980.39	3715.02
980.55	3485.64
980.71	3710.92
980.88	3704.78
981.04	3510.22
981.20	3383.24
981.36	3555.27
981.52	3719.11
981.68	3465.16
981.85	3887.04
982.01	3305.42
982.17	3286.99
982.33	3430.35
982.49	3805.13
982.65	3633.10
982.82	3401.68
982.98	3291.09
983.14	3477.45
983.30	3297.23
983.46	3456.97
983.62	3633.10
983.79	3456.97
983.95	3254.22
984.11	3246.03
984.27	3526.60
984.43	3305.42
984.59	3497.93
984.75	3565.51
984.91	3293.13
985.08	3291.09
985.24	3149.78
985.40	3026.90
985.56	3289.04
985.72	3366.86
985.88	3268.56
986.04	3332.05
986.20	3125.20
986.37	3190.74
986.53	3143.63
986.69	3246.03
986.85	3291.09
987.01	2938.84
987.17	3166.16
987.33	3002.32
987.49	2922.45
987.65	3002.32
987.82	3082.19
987.98	2850.77
988.14	3160.02
988.30	3024.85
988.46	2981.84
988.62	3110.86
988.78	2861.01
988.94	2797.53
989.10	2936.79
989.26	2901.97
989.42	2969.55
989.59	3004.37
989.75	2867.16
989.91	2731.99
990.07	2725.85
990.23	2899.92
990.39	2873.30
990.55	2969.55
990.71	2793.43
990.87	3037.14
991.03	2910.16
991.19	2596.82
991.35	2605.02
991.51	2822.10
991.67	3100.62
991.83	2678.74
992.00	2605.02
992.16	2674.65
992.32	2557.91
992.48	2818.00
992.64	2666.46
992.80	2678.74
992.96	2676.70
993.12	2772.95
993.28	2836.44
993.44	2519.00
993.60	2768.85
993.76	2666.46
993.92	2639.83
994.08	2809.81
994.24	2359.26
994.40	2648.02
994.56	2617.30
994.72	2410.46
994.88	2555.86
995.04	2693.08
995.20	2580.44
995.36	2568.15
995.52	2691.03
995.68	2639.83
995.84	2379.74
996.00	2666.46
996.16	2392.03
996.32	2600.92
996.48	2445.27
996.64	2699.22
996.80	2652.12
996.96	2529.24
997.12	2432.99
997.28	2420.70
997.44	2254.81
997.60	2432.99
997.76	2371.55
997.92	2461.66
998.08	2408.41
998.24	2355.16
998.40	2293.72
998.56	2371.55
998.72	2236.38
998.88	2291.68
999.04	2271.20
999.20	2473.95
999.36	2222.05
999.52	2541.53
999.68	2381.79
999.84	2222.05
1000.00	2375.64
1000.16	2553.82
1000.32	2138.08
1000.48	2353.12
1000.64	2189.28
1000.80	2162.66
1000.95	2070.50
1001.11	2437.08
1001.27	2297.82
1001.43	2154.46
1001.59	2164.70
1001.75	2066.40
1001.91	2238.43
1002.07	2187.23
1002.23	2045.92
1002.39	2152.42
1002.55	1996.77
1002.71	1998.82
1002.87	2244.57
1003.03	2312.16
1003.19	2109.41
1003.34	2383.84
1003.50	2062.30
1003.66	2263.01
1003.82	2039.78
1003.98	2113.50
1004.14	2414.56
1004.30	2050.02
1004.46	2088.93
1004.62	2217.95
1004.78	2021.35
1004.94	2039.78
1005.09	2050.02
1005.25	2060.26
1005.41	2160.61
1005.57	1974.24
1005.73	2027.49
1005.89	1994.72
1006.05	2088.93
1006.21	1996.77
1006.37	1945.57
1006.52	1871.84
1006.68	1882.08
1006.84	2064.35
1007.00	2002.91
1007.16	2047.97
1007.32	1787.88
1007.48	2011.11
1007.64	1992.67
1007.79	1941.47
1007.95	1894.37
1008.11	2017.25
1008.27	1982.43
1008.43	1937.38
1008.59	1990.63
1008.75	1904.61
1008.91	1953.76
1009.06	1920.99
1009.22	1875.94
1009.38	2119.65
1009.54	1916.90
1009.70	1826.79
1009.86	1966.05
1010.01	1957.86
1010.17	1865.70
1010.33	2074.59
1010.49	1949.67
1010.65	2095.07
1010.81	1837.03
1010.96	1902.56
1011.12	1845.22
1011.28	1722.34
1011.44	2090.98
1011.60	1920.99
1011.76	1806.31
1011.91	1834.98
1012.07	1886.18
1012.23	1822.69
1012.39	1845.22
1012.55	1923.04
1012.71	1945.57
1012.86	1855.46
1013.02	1853.41
1013.18	1761.25
1013.34	1855.46
1013.50	1955.81
1013.65	1853.41
1013.81	1935.33
1013.97	1880.04
1014.13	1732.58
1014.29	1822.69
1014.44	1904.61
1014.60	1820.64
1014.76	1818.60
1014.92	1873.89
1015.07	1826.79
1015.23	1863.65
1015.39	1810.40
1015.55	1869.80
1015.71	1851.36
1015.86	1755.11
1016.02	1716.20
1016.18	1648.61
1016.34	1763.30
1016.49	1689.57
1016.65	1867.75
1016.81	1830.88
1016.97	1683.43
1017.12	1857.51
1017.28	1740.77
1017.44	1626.09
1017.60	1816.55
1017.75	1744.87
1017.91	1822.69
1018.07	1755.11
1018.23	1802.21
1018.38	1740.77
1018.54	1761.25
1018.70	1834.98
1018.86	1775.59
1019.01	1732.58
1019.17	1773.54
1019.33	1886.18
1019.49	1777.64
1019.64	1746.92
1019.80	1789.92
1019.96	1726.44
1020.12	1746.92
1020.27	1673.19
1020.43	1720.29
1020.59	1667.05
1020.74	1859.56
1020.90	1701.86
1021.06	1646.57
1021.22	1773.54
1021.37	1705.96
1021.53	1671.14
1021.69	1785.83
1021.84	1632.23
1022.00	1779.68
1022.16	1761.25
1022.31	1755.11
1022.47	1742.82
1022.63	1873.89
1022.79	1626.09
1022.94	1718.25
1023.10	1949.67
1023.26	1701.86
1023.41	1660.90
1023.57	1681.38
1023.73	1798.12
1023.88	1691.62
1024.04	1630.18
1024.20	1679.33
1024.35	1748.97
1024.51	1759.21
1024.67	1755.11
1024.82	1726.44
1024.98	1658.85
1025.14	1775.59
1025.29	1679.33
1025.45	1705.96
1025.61	1599.46
1025.76	1689.57
1025.92	1705.96
1026.08	1753.06
1026.23	1724.39
1026.39	1746.92
1026.55	1689.57
1026.70	1697.77
1026.86	1716.20
1027.02	1720.29
1027.17	1705.96
1027.33	1716.20
1027.48	1609.70
1027.64	1660.90
1027.80	1697.77
1027.95	1781.73
1028.11	1583.08
1028.27	1662.95
1028.42	1726.44
1028.58	1617.90
1028.73	1583.08
1028.89	1542.12
1029.05	1781.73
1029.20	1712.10
>>>>>End Processed Spectral Data<<<<<
