SpectraSuite Data File
++++++++++++++++++++++++++++++++++++
Date: Fri Jun 02 14:44:34 CEST 2017
User: INFO_000
Dark Spectrum Present: No
Reference Spectrum Present: No
Number of Sampled Component Spectra: 1
Spectrometers: USB4H00879
Integration Time (usec): 80000 (USB4H00879)
Spectra Averaged: 1 (USB4H00879)
Boxcar Smoothing: 0 (USB4H00879)
Correct for Electrical Dark: No (USB4H00879)
Strobe/Lamp Enabled: No (USB4H00879)
Correct for Detector Non-linearity: No (USB4H00879)
Correct for Stray Light: No (USB4H00879)
Number of Pixels in Processed Spectrum: 3648
>>>>>Begin Processed Spectral Data<<<<<
345.13	1298.41
345.34	1298.41
345.56	1298.41
345.78	1353.71
345.99	1226.73
346.21	1658.85
346.42	1638.38
346.64	1583.08
346.86	1783.78
347.07	1705.96
347.29	1669.09
347.50	1626.09
347.72	1695.72
347.94	1757.16
348.15	1576.94
348.37	1673.19
348.59	1685.48
348.80	1648.61
349.02	1818.60
349.23	1908.71
349.45	1802.21
349.67	1931.23
349.88	1837.03
350.10	1943.52
350.31	1873.89
350.53	1845.22
350.75	1908.71
350.96	1804.26
351.18	1818.60
351.39	1863.65
351.61	1761.25
351.82	1933.28
352.04	1867.75
352.26	1904.61
352.47	1851.36
352.69	1918.95
352.90	1794.02
353.12	1863.65
353.34	1902.56
353.55	1902.56
353.77	1935.33
353.98	1814.50
354.20	1875.94
354.41	1943.52
354.63	1912.80
354.85	2045.92
355.06	1894.37
355.28	1855.46
355.49	1970.15
355.71	1871.84
355.92	1925.09
356.14	1947.62
356.35	1908.71
356.57	1812.45
356.79	1929.19
357.00	1818.60
357.22	1970.15
357.43	1839.08
357.65	1957.86
357.86	1873.89
358.08	1898.47
358.29	1976.29
358.51	2009.06
358.72	1927.14
358.94	1787.88
359.16	1978.34
359.37	2021.35
359.59	1980.39
359.80	2025.44
360.02	1935.33
360.23	1978.34
360.45	1966.05
360.66	1964.00
360.88	1875.94
361.09	1873.89
361.31	1939.43
361.52	1888.23
361.74	2011.11
361.95	2113.50
362.17	1896.42
362.38	2101.22
362.60	2095.07
362.81	1996.77
363.03	2062.30
363.24	2068.45
363.46	2109.41
363.67	2047.97
363.89	1994.72
364.10	1990.63
364.32	1949.67
364.53	2031.58
364.75	1937.38
364.96	2019.30
365.18	2064.35
365.39	2000.87
365.61	1902.56
365.82	2181.09
366.04	2013.15
366.25	1980.39
366.47	2031.58
366.68	2035.68
366.90	1955.81
367.11	2078.69
367.33	2035.68
367.54	2019.30
367.76	2074.59
367.97	2099.17
368.19	1974.24
368.40	2047.97
368.62	1996.77
368.83	1955.81
369.05	2058.21
369.26	2027.49
369.48	1959.91
369.69	2037.73
369.91	2088.93
370.12	2019.30
370.33	2125.79
370.55	1937.38
370.76	1970.15
370.98	2076.64
371.19	2080.74
371.41	1990.63
371.62	2045.92
371.84	2015.20
372.05	2183.13
372.27	1984.48
372.48	2066.40
372.69	2076.64
372.91	2148.32
373.12	2138.08
373.34	2058.21
373.55	2111.46
373.77	2144.22
373.98	2133.98
374.20	2213.85
374.41	2195.42
374.62	2211.81
374.84	2133.98
375.05	2217.95
375.27	2195.42
375.48	2138.08
375.70	2131.94
375.91	2179.04
376.12	2263.01
376.34	2133.98
376.55	2207.71
376.77	2316.25
376.98	2090.98
377.19	2183.13
377.41	2109.41
377.62	2119.65
377.84	2236.38
378.05	2267.10
378.27	2269.15
378.48	2351.07
378.69	2353.12
378.91	2346.97
379.12	2220.00
379.34	2236.38
379.55	2234.33
379.76	2271.20
379.98	2187.23
380.19	2236.38
380.41	2222.05
380.62	2271.20
380.83	2224.09
381.05	2207.71
381.26	2396.12
381.47	2271.20
381.69	2260.96
381.90	2402.27
382.12	2308.06
382.33	2250.72
382.54	2289.63
382.76	2297.82
382.97	2252.77
383.19	2316.25
383.40	2369.50
383.61	2334.68
383.83	2273.25
384.04	2389.98
384.25	2400.22
384.47	2381.79
384.68	2373.60
384.89	2344.92
385.11	2287.58
385.32	2291.68
385.54	2318.30
385.75	2297.82
385.96	2424.80
386.18	2445.27
386.39	2373.60
386.60	2441.18
386.82	2473.95
387.03	2383.84
387.24	2478.04
387.46	2547.67
387.67	2412.51
387.88	2519.00
388.10	2428.89
388.31	2459.61
388.52	2557.91
388.74	2553.82
388.95	2557.91
389.16	2496.47
389.38	2525.15
389.59	2559.96
389.80	2539.48
390.02	2588.63
390.23	2709.46
390.44	2508.76
390.66	2502.62
390.87	2559.96
391.08	2582.49
391.30	2721.75
391.51	2531.29
391.72	2648.02
391.94	2684.89
392.15	2551.77
392.36	2645.98
392.58	2594.78
392.79	2725.85
393.00	2754.52
393.22	2648.02
393.43	2787.29
393.64	2766.81
393.85	2877.40
394.07	2635.74
394.28	2736.09
394.49	2744.28
394.71	2797.53
394.92	2881.49
395.13	2775.00
395.35	2707.41
395.56	2801.62
395.77	2709.46
395.98	2844.63
396.20	2901.97
396.41	2818.00
396.62	2959.31
396.84	2836.44
397.05	2791.38
397.26	2936.79
397.47	2895.83
397.69	2877.40
397.90	2895.83
398.11	2920.40
398.32	2838.48
398.54	2871.25
398.75	2969.55
398.96	2887.64
399.18	3071.95
399.39	2944.98
399.60	3010.51
399.81	3012.56
400.03	2918.36
400.24	3297.23
400.45	2973.65
400.66	2983.89
400.88	2992.08
401.09	3162.06
401.30	3059.67
401.51	3123.15
401.73	3141.58
401.94	3057.62
402.15	3018.71
402.36	3123.15
402.58	3129.30
402.79	3170.26
403.00	3250.13
403.21	3123.15
403.43	3231.69
403.64	3248.08
403.85	3010.51
404.06	3258.32
404.27	3219.41
404.49	3272.65
404.70	3086.29
404.91	3336.14
405.12	3186.64
405.34	3346.38
405.55	3385.29
405.76	3123.15
405.97	3207.12
406.19	3311.57
406.40	3274.70
406.61	3225.55
406.82	3360.72
407.03	3426.25
407.25	3362.76
407.46	3387.34
407.67	3416.01
407.88	3350.48
408.09	3303.37
408.31	3260.37
408.52	3405.77
408.73	3395.53
408.94	3448.78
409.15	3370.96
409.37	3413.96
409.58	3497.93
409.79	3549.13
410.00	3610.57
410.21	3405.77
410.43	3567.56
410.64	3450.83
410.85	3499.98
411.06	3518.41
411.27	3555.27
411.48	3590.09
411.70	3520.46
411.91	3536.84
412.12	3751.88
412.33	3479.50
412.54	3499.98
412.76	3653.58
412.97	3692.49
413.18	3571.66
413.39	3547.08
413.60	3708.87
413.81	3764.17
414.03	3616.71
414.24	3649.48
414.45	3854.28
414.66	3604.42
414.87	3823.56
415.08	3678.15
415.30	3811.27
415.51	3698.63
415.72	3803.08
415.93	3813.32
416.14	3844.04
416.35	3858.37
416.56	3885.00
416.78	3786.69
416.99	3882.95
417.20	3835.85
417.41	3905.48
417.62	3796.93
417.83	4028.35
418.04	3907.52
418.26	3792.84
418.47	3913.67
418.68	4007.87
418.89	3909.57
419.10	4177.86
419.31	3921.86
419.52	4179.90
419.73	4022.21
419.95	4069.31
420.16	4065.22
420.37	3999.68
420.58	4110.27
420.79	3944.39
421.00	4138.94
421.21	4181.95
421.42	4140.99
421.63	4081.60
421.85	4104.13
422.06	4181.95
422.27	4149.18
422.48	4263.87
422.69	4284.35
422.90	4263.87
423.11	4257.73
423.32	4173.76
423.53	4353.98
423.75	4298.69
423.96	4517.82
424.17	4476.86
424.38	4577.21
424.59	4399.04
424.80	4444.09
425.01	4442.04
425.22	4431.80
425.43	4468.67
425.64	4724.66
425.85	4581.31
426.06	4480.96
426.28	4530.11
426.49	4390.84
426.70	4517.82
426.91	4548.54
427.12	4724.66
427.33	4591.55
427.54	4597.69
427.75	4759.48
427.96	4808.63
428.17	4825.01
428.38	4876.21
428.59	4945.84
428.80	4657.08
429.01	4935.60
429.23	4792.25
429.44	5107.63
429.65	4986.80
429.86	4945.84
430.07	4915.12
430.28	4894.65
430.49	5025.72
430.70	5187.50
430.91	5056.43
431.12	5111.73
431.33	5173.17
431.54	5181.36
431.75	5115.83
431.96	5064.63
432.17	5113.78
432.38	5230.51
432.59	5351.34
432.80	5210.03
433.01	5253.04
433.22	5431.21
433.43	5310.38
433.64	5222.32
433.85	5054.39
434.06	5431.21
434.27	5361.58
434.49	5433.26
434.70	5545.90
434.91	5343.15
435.12	5416.88
435.33	5566.38
435.54	5478.32
435.75	5390.25
435.96	5451.69
436.17	5429.17
436.38	5726.12
436.59	5674.92
436.80	5695.40
437.01	5738.41
437.22	5840.81
437.43	5586.86
437.64	5363.63
437.85	5750.70
438.06	5853.09
438.27	5722.02
438.48	5687.21
438.69	5889.96
438.90	5896.10
439.11	5760.94
439.32	5836.71
439.53	5859.24
439.74	5935.01
439.95	6039.46
440.16	5916.58
440.37	5853.09
440.57	5816.23
440.78	6023.08
440.99	5875.62
441.20	5939.11
441.41	5785.51
441.62	6055.84
441.83	5834.66
442.04	6014.88
442.25	6242.21
442.46	6113.19
442.67	6176.67
442.88	6557.60
443.09	5908.39
443.30	6084.52
443.51	6076.32
443.72	6512.54
443.93	6285.22
444.14	6494.11
444.35	6141.86
444.56	6295.46
444.77	6510.49
444.98	6299.55
445.19	6514.59
445.40	6436.77
445.61	6408.09
445.81	6500.25
446.02	6545.31
446.23	6444.96
446.44	6344.61
446.65	6518.68
446.86	6408.09
447.07	6700.95
447.28	6600.60
447.49	6754.20
447.70	6604.70
447.91	6627.23
448.12	6672.28
448.33	6975.38
448.54	6829.98
448.74	6698.91
448.95	6866.84
449.16	6725.53
449.37	6999.96
449.58	6784.92
449.79	6926.23
450.00	6678.43
450.21	7022.48
450.42	6954.90
450.63	7161.75
450.84	6930.33
451.05	6954.90
451.25	7186.32
451.46	6981.53
451.67	7098.26
451.88	7260.05
452.09	7186.32
452.30	7145.36
452.51	7239.57
452.72	7323.54
452.93	7524.24
453.13	7247.76
453.34	7192.47
453.55	7311.25
453.76	7292.82
453.97	7606.16
454.18	7425.93
454.39	7557.00
454.60	7606.16
454.81	7415.69
455.01	7751.56
455.22	7237.52
455.43	7618.44
455.64	7870.34
455.85	7931.78
456.06	8198.02
456.27	7866.25
456.48	7845.77
456.68	7905.16
456.89	7923.59
457.10	8013.70
457.31	7892.87
457.52	7911.30
457.73	8044.42
457.94	8269.70
458.14	8011.65
458.35	8376.19
458.56	8191.88
458.77	8015.75
458.98	8462.21
459.19	8257.41
459.39	8746.87
459.60	8585.08
459.81	8400.77
460.02	8738.68
460.23	8707.96
460.44	8707.96
460.65	8540.03
460.85	8791.93
461.06	8857.46
461.27	8695.68
461.48	8851.32
461.69	9099.13
461.89	8630.14
462.10	9013.11
462.31	8796.03
462.52	8839.03
462.73	8982.39
462.94	9252.72
463.14	9213.81
463.35	9029.49
463.56	9740.14
463.77	9441.14
463.98	9252.72
464.18	9301.87
464.39	9502.58
464.60	9711.47
464.81	9707.37
465.02	9625.45
465.23	9924.46
465.43	9707.37
465.64	9723.76
465.85	9742.19
466.06	9688.94
466.27	10151.78
466.47	9934.70
466.68	10297.19
466.89	10094.44
467.10	10282.85
467.30	9887.59
467.51	10366.82
467.72	10436.45
467.93	10202.98
468.14	10598.24
468.34	10596.19
468.55	10362.72
468.76	10573.66
468.97	10487.65
469.17	10663.77
469.38	10815.32
469.59	10977.11
469.80	10764.12
470.01	11140.95
470.21	10956.63
470.42	11192.15
470.63	11286.36
470.84	11251.54
471.04	11296.60
471.25	11237.20
471.46	11241.30
471.67	11634.51
471.87	11611.98
472.08	11704.14
472.29	11802.44
472.50	11456.34
472.70	11751.24
472.91	11710.29
473.12	11837.26
473.33	11966.28
473.53	11984.71
473.74	11980.62
473.95	12369.73
474.16	12455.75
474.36	12631.87
474.57	12523.33
474.78	12629.82
474.99	12601.15
475.19	12640.06
475.40	12842.81
475.61	12857.15
475.81	13193.01
476.02	13190.97
476.23	13107.00
476.44	13274.93
476.64	13580.08
476.85	13561.65
477.06	13465.39
477.27	13799.21
477.47	13551.41
477.68	13827.88
477.89	14159.66
478.09	14030.63
478.30	14141.22
478.51	14114.60
478.71	14110.50
478.92	14268.20
479.13	14405.41
479.34	14438.18
479.54	14364.45
479.75	14538.53
479.96	14712.61
480.16	14927.64
480.37	15103.77
480.58	14915.36
480.78	15404.82
480.99	15101.72
481.20	15136.54
481.41	15322.90
481.61	15253.27
481.82	15707.92
482.03	15552.27
482.23	15634.19
482.44	16017.16
482.65	16051.98
482.85	16209.67
483.06	16041.74
483.27	16402.18
483.47	16129.80
483.68	16148.23
483.89	16535.30
484.09	16267.02
484.30	16623.36
484.51	16852.73
484.71	16690.95
484.92	16672.51
485.13	17080.06
485.33	16905.98
485.54	17198.84
485.75	17364.73
485.95	17422.07
486.16	17551.09
486.37	17805.04
486.57	17573.62
486.78	17766.13
486.98	17678.07
487.19	17833.71
487.40	18376.42
487.60	17911.53
487.81	18349.80
488.02	17972.97
488.22	18157.29
488.43	18622.18
488.64	18396.90
488.84	18544.36
489.05	18693.86
489.25	18839.26
489.46	19343.06
489.67	18837.22
489.87	19261.15
490.08	19228.38
490.29	19166.94
490.49	19766.99
490.70	19848.91
490.90	19586.77
491.11	19535.57
491.32	19941.07
491.52	19797.71
491.73	19820.24
491.94	20145.87
492.14	20043.47
492.35	20109.01
492.55	20465.35
492.76	20494.02
492.97	20643.52
493.17	20524.74
493.38	20715.20
493.58	20948.67
493.79	20852.42
494.00	20571.85
494.20	21061.31
494.41	20942.53
494.61	21307.07
494.82	21290.68
495.02	21610.17
495.23	21274.30
495.44	21374.65
495.64	21374.65
495.85	21776.05
496.05	21814.96
496.26	21835.44
496.47	22120.11
496.67	21792.44
496.88	22185.65
497.08	22292.14
497.29	22142.64
497.49	22415.02
497.70	22576.81
497.91	22523.56
498.11	22671.01
498.32	22836.90
498.52	22777.51
498.73	23121.57
498.93	22865.57
499.14	22777.51
499.34	22593.19
499.55	23582.36
499.76	23318.17
499.96	23338.65
500.17	23496.35
500.37	23291.55
500.58	23461.53
500.78	23592.60
500.99	23436.95
501.19	24073.87
501.40	23844.50
501.60	23518.87
501.81	23903.89
502.02	24176.27
502.22	23967.38
502.43	24305.29
502.63	24178.32
502.84	24415.88
503.04	24428.17
503.25	24295.05
503.45	24675.98
503.66	24493.71
503.86	24624.78
504.07	24505.99
504.27	24641.16
504.48	24934.02
504.68	24786.57
504.89	25216.64
505.09	25020.03
505.30	25075.33
505.50	25087.62
505.71	25425.53
505.91	25323.13
506.12	25241.21
506.32	25562.75
506.53	25454.20
506.73	25421.44
506.94	25601.66
507.14	25636.47
507.35	25687.67
507.55	25486.97
507.76	25894.52
507.96	25364.09
508.17	25734.78
508.37	25859.70
508.58	25921.14
508.78	26279.54
508.99	26003.06
509.19	26584.68
509.40	26287.73
509.60	26203.76
509.81	26422.89
510.01	26275.44
510.22	26472.04
510.42	26220.14
510.63	26451.56
510.83	26396.27
511.04	26644.07
511.24	26742.38
511.44	26713.70
511.65	26803.82
511.85	26734.18
512.06	26838.63
512.26	26977.89
512.47	27053.67
512.67	27174.50
512.88	26975.84
513.08	26910.31
513.29	27084.39
513.49	26916.45
513.69	27280.99
513.90	27475.55
514.10	27192.93
514.31	27620.95
514.51	27356.77
514.72	27813.46
514.92	27545.18
515.13	27553.37
515.33	27565.66
515.53	27483.74
515.74	27756.12
515.94	27985.49
516.15	28188.24
516.35	27565.66
516.56	28132.95
516.76	28014.16
516.96	28089.94
517.17	28257.87
517.37	27694.68
517.58	28249.68
517.78	28706.38
517.99	28214.87
518.19	28630.60
518.39	28657.23
518.60	28728.91
518.80	28872.26
519.01	28929.61
519.21	28894.79
519.41	29066.82
519.62	28673.61
519.82	28954.18
520.03	29259.33
520.23	29142.60
520.43	29392.45
520.64	29460.03
520.84	29881.91
521.05	29455.93
521.25	29488.70
521.45	29537.85
521.66	29849.14
521.86	29597.24
522.07	29527.61
522.27	29816.38
522.47	29949.50
522.68	30172.72
522.88	30027.32
523.08	30090.80
523.29	30094.90
523.49	30563.89
523.70	30469.68
523.90	30770.73
524.10	30471.73
524.31	30688.81
524.51	30615.08
524.71	31149.60
524.92	31139.36
525.12	31221.28
525.33	31145.51
525.53	31223.33
525.73	31045.16
525.94	31303.20
526.14	31092.26
526.34	31641.12
526.55	31821.34
526.75	31657.50
526.95	31495.71
527.16	31727.13
527.36	31915.54
527.56	31811.10
527.77	32325.14
527.97	32204.31
528.17	32445.97
528.38	32552.46
528.58	32312.85
528.78	32593.42
528.99	32376.34
529.19	33003.02
529.39	32814.60
529.60	32943.63
529.80	33140.23
530.00	32849.42
530.21	33199.62
530.41	33277.44
530.61	32960.01
530.82	33369.60
531.02	33191.43
531.22	33179.14
531.43	33711.61
531.63	33566.21
531.83	33664.51
532.04	34018.81
532.24	33957.37
532.44	34461.17
532.64	34334.20
532.85	34655.73
533.05	34528.75
533.25	34450.93
533.46	34338.29
533.66	34969.07
533.86	34559.47
534.07	35102.18
534.27	34772.46
534.47	35456.48
534.67	35251.69
534.88	34872.81
535.08	35296.74
535.28	35452.39
535.49	35542.50
535.69	35976.67
535.89	35765.73
536.09	35556.83
536.30	35933.66
536.50	36029.91
536.70	36318.68
536.91	35784.16
537.11	36070.87
537.31	36173.27
537.51	36472.28
537.72	36754.90
537.92	36806.09
538.12	37268.94
538.32	36842.96
538.53	36769.23
538.73	36836.81
538.93	36697.55
539.13	37141.96
539.34	37137.87
539.54	37086.67
539.74	37524.93
539.94	37496.26
540.15	37332.42
540.35	37649.86
540.55	37576.13
540.75	37737.92
540.96	37866.94
541.16	37643.71
541.36	38176.19
541.56	37860.80
541.77	38438.33
541.97	38161.85
542.17	38237.62
542.37	38591.92
542.58	38581.68
542.78	38567.35
542.98	38360.50
543.18	38659.51
543.38	39048.62
543.59	38737.33
543.79	38694.32
543.99	38655.41
544.19	39341.48
544.40	39331.24
544.60	39318.95
544.80	39191.98
545.00	39347.62
545.20	39239.08
545.41	39429.54
545.61	39226.79
545.81	39529.89
546.01	39749.03
546.21	39849.38
546.42	39519.65
546.62	39654.82
546.82	39490.98
547.02	39757.22
547.22	40021.41
547.43	39976.35
547.63	40267.16
547.83	40039.84
548.03	39724.45
548.23	40363.42
548.44	40054.17
548.64	40035.74
548.84	40363.42
549.04	40054.17
549.24	40359.32
549.45	40926.61
549.65	40285.59
549.85	40369.56
550.05	40844.69
550.25	40289.69
550.45	41223.56
550.66	40848.78
550.86	40500.63
551.06	41002.38
551.26	40701.33
551.46	40746.39
551.66	41123.21
551.87	40783.25
552.07	41180.56
552.27	41227.66
552.47	41473.42
552.67	41282.95
552.87	40967.57
553.07	41098.64
553.28	41285.00
553.48	41389.45
553.68	41502.09
553.88	41868.67
554.08	41729.41
554.28	41799.04
554.48	41221.52
554.69	41891.20
554.89	41827.71
555.09	41657.73
555.29	41846.15
555.49	41993.60
555.69	41788.80
555.89	41624.96
556.10	41864.58
556.30	41954.69
556.50	42139.00
556.70	41598.34
556.90	42399.10
557.10	42372.47
557.30	42009.98
557.50	42567.03
557.70	42358.14
557.91	42141.05
558.11	42360.19
558.31	42333.56
558.51	42466.68
558.71	42329.47
558.91	42841.46
559.11	42292.60
559.31	42730.87
559.51	42771.83
559.72	43060.59
559.92	42759.54
560.12	42628.47
560.32	43074.93
560.52	42603.89
560.72	42931.57
560.92	42636.66
561.12	43316.59
561.32	43382.12
561.52	42956.14
561.72	43310.44
561.93	43351.40
562.13	43470.18
562.33	43083.12
562.53	43593.06
562.73	43144.56
562.93	43036.02
563.13	43386.22
563.33	43201.90
563.53	43199.85
563.73	42974.58
563.93	43781.48
564.13	44139.87
564.33	43470.18
564.53	43554.15
564.74	44178.78
564.94	43367.79
565.14	43922.79
565.34	43414.89
565.54	43537.77
565.74	44412.25
565.94	43894.11
566.14	44021.09
566.34	43947.36
566.54	44264.80
566.74	43742.56
566.94	44334.43
567.14	44459.35
567.34	44612.95
567.54	44227.93
567.74	43912.55
567.94	44178.78
568.14	44492.12
568.34	44610.90
568.54	44420.44
568.74	44465.50
568.94	44410.20
569.14	44873.04
569.34	44551.51
569.54	44701.01
569.75	44631.38
569.95	45020.50
570.15	44756.31
570.35	45106.51
570.55	45094.22
570.75	45010.26
570.95	45141.33
571.15	45165.90
571.35	45497.67
571.55	45163.85
571.75	45274.45
571.95	45393.23
572.15	45024.59
572.35	45534.54
572.55	45581.64
572.75	45575.50
572.95	45727.05
573.15	45704.52
573.35	45968.71
573.55	45528.39
573.75	45364.56
573.95	46040.39
574.15	45950.27
574.35	45819.20
574.55	45917.51
574.75	45790.53
574.95	45835.59
575.15	45636.94
575.34	45950.27
575.54	46419.26
575.74	46636.34
575.94	46286.14
576.14	46472.51
576.34	46583.10
576.54	46368.06
576.74	46603.58
576.94	46634.30
577.14	46544.19
577.34	46720.31
577.54	46400.83
577.74	46800.18
577.94	46982.45
578.14	46880.05
578.34	47160.62
578.54	46697.78
578.74	46902.58
578.94	47078.71
579.14	46935.35
579.34	46861.62
579.54	46890.29
579.74	47410.48
579.94	47152.43
580.13	47496.49
580.33	47613.23
580.53	47521.07
580.73	47590.70
580.93	47461.68
581.13	47254.83
581.33	48200.99
581.53	47787.30
581.73	48125.22
581.93	48092.45
582.13	47709.48
582.33	48272.67
582.53	47777.06
582.73	48442.65
582.92	48215.33
583.12	48528.67
583.32	48485.66
583.52	48024.87
583.72	48287.01
583.92	48420.13
584.12	48405.79
584.32	48878.87
584.52	48614.68
584.72	48749.85
584.92	48643.35
585.11	48989.46
585.31	48874.77
585.51	48968.98
585.71	48854.29
585.91	49138.96
586.11	48770.33
586.31	48852.25
586.51	49018.13
586.71	49026.32
586.91	49415.44
587.10	49098.00
587.30	49386.77
587.50	49542.41
587.70	49224.98
587.90	49528.08
588.10	49853.70
588.30	49208.59
588.50	49495.31
588.69	49696.01
588.89	49560.84
589.09	49886.47
589.29	50031.88
589.49	50085.12
589.69	49503.50
589.89	49988.87
590.08	49653.00
590.28	49992.97
590.48	49540.36
590.68	50257.15
590.88	49923.33
591.08	50150.66
591.28	50029.83
591.47	50363.65
591.67	50208.00
591.87	50156.80
592.07	50140.42
592.27	50369.79
592.47	50128.13
592.67	50398.46
592.86	50117.89
593.06	50715.90
593.26	50474.24
593.46	50242.82
593.66	50222.34
593.86	50588.92
594.05	50388.22
594.25	50746.62
594.45	50507.01
594.65	50871.54
594.85	50187.52
595.05	51139.83
595.24	51019.00
595.44	50797.82
595.64	50642.17
595.84	51043.57
596.04	50705.66
596.23	51066.10
596.43	51131.64
596.63	51516.65
596.83	50998.52
597.03	50984.18
597.22	51764.46
597.42	51213.55
597.62	51524.85
597.82	51389.68
598.02	51340.53
598.21	51598.57
598.41	51383.54
598.61	51408.11
598.81	52081.89
599.01	51737.83
599.20	51700.97
599.40	51860.71
599.60	51848.42
599.80	51727.59
600.00	51549.42
600.19	51879.14
600.39	52047.08
600.59	52192.48
600.79	52047.08
600.98	51856.62
601.18	52182.24
601.38	52720.86
601.58	52602.08
601.78	52405.47
601.97	52286.69
602.17	52862.17
602.37	52546.78
602.57	52546.78
602.76	52909.27
602.96	52270.31
603.16	52663.52
603.36	52909.27
603.55	52690.14
603.75	52458.72
603.95	52616.41
604.15	52761.82
604.34	52958.42
604.54	53286.10
604.74	52896.98
604.94	52829.40
605.13	52884.70
605.33	53056.73
605.53	53105.88
605.73	53314.77
605.92	53230.80
606.12	53390.55
606.32	53574.86
606.52	52892.89
606.71	53368.02
606.91	53484.75
607.11	53255.38
607.30	53472.46
607.50	53527.76
607.70	53820.62
607.90	53365.97
608.09	53544.14
608.29	53664.97
608.49	53998.79
608.68	53544.14
608.88	53777.61
609.08	54009.03
609.28	53744.84
609.47	53505.23
609.67	54158.53
609.87	53929.16
610.06	54330.56
610.26	54111.43
610.46	54187.21
610.66	54219.97
610.85	54297.80
611.05	54033.61
611.25	53789.90
611.44	53937.35
611.64	54510.78
611.84	53912.78
612.03	54203.59
612.23	54340.80
612.43	54510.78
612.62	54346.95
612.82	54047.94
613.02	54404.29
613.21	54183.11
613.41	54142.15
613.61	54480.06
613.80	54238.40
614.00	54371.52
614.20	54367.43
614.39	54674.62
614.59	54602.94
614.79	54697.15
614.98	54521.02
615.18	54869.18
615.38	54637.76
615.57	54142.15
615.77	54340.80
615.97	54736.06
616.16	54934.71
616.36	54719.68
616.56	55016.63
616.75	54912.19
616.95	54613.18
617.15	55039.16
617.34	54457.54
617.54	54824.12
617.74	54824.12
617.93	55008.44
618.13	54179.01
618.32	54555.84
618.52	54230.21
618.72	54768.83
618.91	54545.60
619.11	54777.02
619.31	54768.83
619.50	54629.57
619.70	54148.29
619.90	54691.01
620.09	54885.56
620.29	55104.70
620.48	54797.50
620.68	54867.13
620.88	54361.28
621.07	54996.15
621.27	54629.57
621.46	54615.23
621.66	54785.21
621.86	54822.08
622.05	54396.10
622.25	54889.66
622.44	54957.24
622.64	54115.53
622.84	55053.50
623.03	54985.91
623.23	54768.83
623.42	54842.56
623.62	54805.69
623.82	55432.37
624.01	54932.67
624.21	54803.64
624.40	54967.48
624.60	54721.72
624.80	54969.53
624.99	54863.03
625.19	54652.09
625.38	55055.54
625.58	55002.30
625.77	55159.99
625.97	55098.55
626.17	54568.13
626.36	54727.87
626.56	54942.91
626.75	54557.89
626.95	55631.02
627.14	54791.36
627.34	55266.48
627.54	54838.46
627.73	55051.45
627.93	55563.44
628.12	54654.14
628.32	55104.70
628.51	55071.93
628.71	55090.36
628.90	55104.70
629.10	55383.22
629.30	54842.56
629.49	55155.89
629.69	54932.67
629.88	54996.15
630.08	55463.09
630.27	55178.42
630.47	54998.20
630.66	55053.50
630.86	55506.10
631.05	54996.15
631.25	55620.78
631.44	55479.47
631.64	55293.11
631.84	55260.34
632.03	55397.55
632.23	55526.58
632.42	55588.02
632.62	55563.44
632.81	55125.17
633.01	55311.54
633.20	55336.12
633.40	55805.10
633.59	55418.03
633.79	55358.64
633.98	55061.69
634.18	55796.91
634.37	55661.74
634.57	55426.23
634.76	55719.09
634.96	55508.14
635.15	55803.05
635.35	55487.67
635.54	55243.96
635.74	55817.39
635.93	55487.67
636.13	55960.75
636.32	55727.28
636.52	55260.34
636.71	55729.33
636.91	56005.80
637.10	55694.51
637.30	55555.25
637.49	55678.13
637.69	55706.80
637.88	56175.78
638.08	55491.76
638.27	56366.24
638.46	55821.48
638.66	55760.05
638.85	55852.20
639.05	56057.00
639.24	55669.93
639.44	55917.74
639.63	55807.15
639.83	56077.48
640.02	55975.08
640.22	55721.13
640.41	56386.72
640.61	55319.73
640.80	56194.21
640.99	56042.66
641.19	56226.98
641.38	55913.64
641.58	55944.36
641.77	56196.26
641.97	55778.48
642.16	55712.94
642.36	56757.41
642.55	56384.68
642.74	55833.77
642.94	56550.56
643.13	55891.12
643.33	56464.55
643.52	56093.86
643.72	56079.53
643.91	55940.27
644.10	56235.17
644.30	56835.23
644.49	56118.44
644.69	56695.97
644.88	56114.34
645.08	55997.61
645.27	56171.69
645.46	56599.71
645.66	56390.82
645.85	56308.90
646.05	56456.35
646.24	56306.85
646.43	56605.86
646.63	56491.17
646.82	56409.25
647.02	56429.73
647.21	56384.68
647.40	56841.37
647.60	56577.18
647.79	56284.33
647.99	56876.19
648.18	56046.76
648.37	56884.38
648.57	56835.23
648.76	56525.99
648.96	56364.20
649.15	56429.73
649.34	57144.47
649.54	56388.77
649.73	56122.54
649.92	56143.02
650.12	56341.67
650.31	56841.37
650.51	56894.62
650.70	56657.06
650.89	56562.85
651.09	57121.94
651.28	56868.00
651.47	56849.56
651.67	57052.31
651.86	56810.65
652.06	56235.17
652.25	56560.80
652.44	56349.86
652.64	56386.72
652.83	56534.18
653.02	56247.46
653.22	56464.55
653.41	56343.72
653.60	56317.09
653.80	56571.04
653.99	56874.14
654.18	56954.01
654.38	56726.69
654.57	56960.15
654.76	56390.82
654.96	56802.46
655.15	56824.99
655.34	56630.43
655.54	56714.40
655.73	56577.18
655.92	56736.93
656.12	56644.77
656.31	56824.99
656.50	56530.08
656.70	57050.27
656.89	56738.97
657.08	56784.03
657.28	56824.99
657.47	56579.23
657.66	56579.23
657.86	56657.06
658.05	56861.85
658.24	56976.54
658.43	56423.59
658.63	56878.24
658.82	56874.14
659.01	56927.39
659.21	56874.14
659.40	56466.59
659.59	56192.17
659.79	56550.56
659.98	57017.50
660.17	56820.89
660.36	56861.85
660.56	56663.20
660.75	56874.14
660.94	56941.72
661.14	56837.28
661.33	56720.54
661.52	56218.79
661.71	57302.17
661.91	56382.63
662.10	56274.09
662.29	56974.49
662.49	56808.61
662.68	56800.41
662.87	56919.20
663.06	56695.97
663.26	56999.07
663.45	56667.30
663.64	56915.10
663.83	56929.44
664.03	57328.79
664.22	56976.54
664.41	56601.76
664.60	56851.61
664.80	56358.05
664.99	56345.76
665.18	57132.18
665.37	56507.55
665.57	56421.54
665.76	56038.57
665.95	56317.09
666.14	56931.48
666.34	56407.20
666.53	56876.19
666.72	56546.47
666.91	56399.01
667.11	56327.33
667.30	56779.93
667.49	56620.19
667.68	56425.64
667.87	56214.69
668.07	56337.57
668.26	56728.73
668.45	57146.52
668.64	56272.04
668.84	57152.66
669.03	56675.49
669.22	56708.25
669.41	56638.62
669.60	56325.28
669.80	56327.33
669.99	56988.83
670.18	56417.44
670.37	56646.82
670.57	56628.38
670.76	56646.82
670.95	56595.62
671.14	56605.86
671.33	56333.48
671.53	56761.50
671.72	56722.59
671.91	56468.64
672.10	56341.67
672.29	56294.56
672.48	56085.67
672.68	56927.39
672.87	56439.97
673.06	56431.78
673.25	56087.72
673.44	56321.19
673.64	56382.63
673.83	56462.50
674.02	56120.49
674.21	55696.56
674.40	56401.06
674.59	56059.05
674.79	56349.86
674.98	55844.01
675.17	56530.08
675.36	56437.92
675.55	56745.12
675.74	56515.75
675.94	56235.17
676.13	56394.92
676.32	56464.55
676.51	56646.82
676.70	56487.07
676.89	56114.34
677.08	56419.49
677.28	56339.62
677.47	56650.91
677.66	56558.75
677.85	55954.60
678.04	56548.51
678.23	56650.91
678.42	56470.69
678.62	56458.40
678.81	56728.73
679.00	56208.55
679.19	56538.27
679.38	56405.16
679.57	56132.78
679.76	56151.21
679.96	56751.26
680.15	56407.20
680.34	56302.76
680.53	56360.10
680.72	56280.23
680.91	56573.09
681.10	56353.96
681.29	56403.11
681.48	56124.58
681.68	56485.03
681.87	55954.60
682.06	55686.32
682.25	55588.02
682.44	56159.40
682.63	56605.86
682.82	56276.13
683.01	56147.11
683.20	55903.40
683.39	56239.27
683.59	55915.69
683.78	56042.66
683.97	56001.71
684.16	56013.99
684.35	55549.10
684.54	55774.38
684.73	56097.96
684.92	55876.78
685.11	56095.91
685.30	55999.66
685.49	56024.23
685.69	55930.03
685.88	55805.10
686.07	56161.45
686.26	55770.28
686.45	56046.76
686.64	55950.51
686.83	55878.83
687.02	55645.36
687.21	56122.54
687.40	55878.83
687.59	55841.96
687.78	55688.37
687.97	55819.44
688.16	55858.35
688.35	55600.30
688.54	55596.21
688.74	55901.36
688.93	55198.90
689.12	55678.13
689.31	55964.84
689.50	55989.42
689.69	55542.96
689.88	54926.52
690.07	55911.59
690.26	55590.06
690.45	56546.47
690.64	55878.83
690.83	55766.19
691.02	55436.47
691.21	55295.16
691.40	55669.93
691.59	55405.75
691.78	55520.43
691.97	55542.96
692.16	55262.39
692.35	56042.66
692.54	55624.88
692.73	55454.90
692.92	55502.00
693.11	55262.39
693.30	55127.22
693.49	55551.15
693.68	55671.98
693.87	55422.13
694.06	55051.45
694.25	55002.30
694.44	54875.32
694.63	55123.13
694.82	55401.65
695.01	55010.49
695.20	54938.81
695.39	55289.01
695.58	55329.97
695.77	55080.12
695.96	54781.12
696.15	55481.52
696.34	54949.05
696.53	55139.51
696.72	55207.09
696.91	55172.28
697.10	55223.48
697.29	54674.62
697.48	55420.08
697.67	55114.94
697.86	54715.58
698.05	55037.11
698.24	54772.92
698.43	54359.23
698.62	55162.04
698.81	54566.08
699.00	55073.98
699.19	54639.81
699.38	55205.05
699.57	54244.55
699.76	55350.45
699.95	54279.36
700.14	54777.02
700.32	54502.59
700.51	54619.33
700.70	54684.86
700.89	55008.44
701.08	54965.43
701.27	54609.09
701.46	54973.63
701.65	54154.44
701.84	54707.39
702.03	54394.05
702.22	54594.75
702.41	54377.67
702.60	54596.80
702.79	54140.10
702.98	53998.79
703.17	54052.04
703.35	54148.29
703.54	53947.59
703.73	54459.58
703.92	54488.26
704.11	54019.27
704.30	54146.25
704.49	54424.77
704.68	54115.53
704.87	54299.84
705.06	54099.14
705.25	53910.73
705.43	54090.95
705.62	54088.90
705.81	54219.97
706.00	53902.54
706.19	53841.10
706.38	53966.02
706.57	53206.23
706.76	53624.01
706.95	53841.10
707.14	53871.82
707.32	53368.02
707.51	53427.41
707.70	53454.03
707.89	53515.47
708.08	53570.77
708.27	53568.72
708.46	53619.92
708.65	53105.88
708.84	53837.00
709.02	53703.88
709.21	53464.27
709.40	53255.38
709.59	53699.79
709.78	53220.56
709.97	53757.13
710.16	53292.24
710.34	53529.81
710.53	53165.27
710.72	52810.97
710.91	53195.99
711.10	53411.02
711.29	53351.63
711.48	53318.87
711.66	52786.39
711.85	52790.49
712.04	52886.74
712.23	53026.01
712.42	53122.26
712.61	53155.03
712.80	52872.41
712.98	53159.12
713.17	52983.00
713.36	53052.63
713.55	52534.49
713.74	52757.72
713.93	53204.18
714.11	52729.05
714.30	52554.97
714.49	52466.91
714.68	52516.06
714.87	52262.11
715.06	52774.11
715.24	51899.62
715.43	52229.35
715.62	51854.57
715.81	52020.45
716.00	52139.24
716.18	51772.65
716.37	51737.83
716.56	52049.13
716.75	52622.56
716.94	52737.24
717.12	51766.51
717.31	52413.66
717.50	51492.08
717.69	51709.16
717.88	52106.47
718.06	52122.85
718.25	52155.62
718.44	51485.93
718.63	51918.06
718.82	51254.51
719.00	51250.42
719.19	51256.56
719.38	51567.85
719.57	51191.03
719.76	50949.37
719.94	50787.58
720.13	50990.33
720.32	51201.27
720.51	51404.02
720.69	51176.69
720.88	50887.93
721.07	50775.29
721.26	50107.65
721.44	50433.28
721.63	50558.20
721.82	50576.64
722.01	50439.42
722.20	50468.09
722.38	50085.12
722.57	49724.68
722.76	50265.34
722.95	50154.75
723.13	49442.06
723.32	49827.08
723.51	50040.07
723.70	49673.48
723.88	49597.71
724.07	49640.71
724.26	49571.08
724.44	49046.80
724.63	49493.26
724.82	49591.56
725.01	49329.42
725.19	49304.85
725.38	49583.37
725.57	49110.29
725.76	49337.62
725.94	49220.88
726.13	49132.82
726.32	49050.90
726.51	48891.16
726.69	49384.72
726.88	49098.00
727.07	49212.69
727.25	48948.50
727.44	48968.98
727.63	48803.10
727.82	49034.52
728.00	48938.26
728.19	48635.16
728.38	49175.83
728.56	48463.13
728.75	48809.24
728.94	48923.93
729.12	48856.34
729.31	48858.39
729.50	48512.28
729.69	48907.54
729.87	49141.01
730.06	48676.12
730.25	48649.50
730.43	49063.19
730.62	48495.90
730.81	48704.79
730.99	48672.03
731.18	48823.58
731.37	49106.19
731.55	48440.60
731.74	48733.46
731.93	48631.07
732.11	49001.75
732.30	48676.12
732.49	48659.74
732.67	48495.90
732.86	48391.45
733.05	48362.78
733.23	47850.79
733.42	48264.48
733.61	48401.69
733.79	48332.06
733.98	48715.03
734.17	48237.86
734.35	48248.10
734.54	48248.10
734.73	48555.29
734.91	48282.91
735.10	47930.66
735.29	48362.78
735.47	47801.64
735.66	47942.95
735.84	47609.13
736.03	47920.42
736.22	48432.41
736.40	47502.64
736.59	47791.40
736.78	47668.52
736.96	47951.14
737.15	47920.42
737.33	47545.64
737.52	47426.86
737.71	47349.04
737.89	47918.37
738.08	47746.34
738.27	47519.02
738.45	48071.97
738.64	47209.78
738.82	47158.58
739.01	47379.76
739.20	47435.05
739.38	47326.51
739.57	47496.49
739.75	47299.89
739.94	47234.35
740.13	47551.79
740.31	46998.83
740.50	47326.51
740.68	47228.21
740.87	47267.12
741.06	47338.80
741.24	47199.54
741.43	47119.66
741.61	47160.62
741.80	46646.58
741.99	46972.21
742.17	46865.72
742.36	46777.65
742.54	46636.34
742.73	47199.54
742.91	46742.84
743.10	46814.52
743.29	46847.29
743.47	46824.76
743.66	46826.81
743.84	47013.17
744.03	46699.83
744.21	46564.67
744.40	46572.86
744.59	46660.92
744.77	46423.36
744.96	46433.60
745.14	46568.76
745.33	46632.25
745.51	46417.21
745.70	46644.54
745.88	46183.74
746.07	46382.40
746.26	46097.73
746.44	46085.44
746.63	46730.55
746.81	45882.69
747.00	45847.88
747.18	46148.93
747.37	46423.36
747.55	46282.05
747.74	46058.82
747.92	45897.03
748.11	45571.40
748.29	45784.39
748.48	45811.01
748.66	45821.25
748.85	45696.33
749.03	46003.52
749.22	46036.29
749.41	45606.22
749.59	45997.38
749.78	45057.36
749.96	45634.89
750.15	45483.34
750.33	45989.19
750.52	45593.93
750.70	45598.02
750.89	45356.36
751.07	45143.38
751.26	45391.18
751.44	44950.87
751.63	45178.19
751.81	45350.22
752.00	45071.70
752.18	45106.51
752.37	45331.79
752.55	44463.45
752.74	44989.78
752.92	44858.71
753.10	44928.34
753.29	45081.94
753.47	44588.38
753.66	44995.92
753.84	45172.05
754.03	45198.67
754.21	44660.05
754.40	44952.91
754.58	45303.12
754.77	44479.83
754.95	44633.43
755.14	44477.79
755.32	44727.64
755.51	44580.18
755.69	44746.07
755.88	44442.97
756.06	44815.70
756.24	44174.69
756.43	44432.73
756.61	44518.74
756.80	44297.56
756.98	44004.70
757.17	44309.85
757.35	44397.91
757.54	44103.01
757.72	44537.18
757.90	44000.61
758.09	43627.88
758.27	44416.35
758.46	43699.56
758.64	43853.15
758.83	44399.96
759.01	44062.05
759.19	43767.14
759.38	43982.18
759.56	44205.41
759.75	43980.13
759.93	43394.41
760.12	43914.59
760.30	43674.98
760.48	43478.38
760.67	43517.29
760.85	43736.42
761.04	43795.81
761.22	43869.54
761.40	43302.25
761.59	43021.68
761.77	43339.11
761.96	43623.78
762.14	43332.97
762.32	43140.46
762.51	43298.16
762.69	43386.22
762.88	43470.18
763.06	43717.99
763.24	43396.46
763.43	43351.40
763.61	43289.96
763.80	43154.80
763.98	43029.87
764.16	42767.73
764.35	43081.07
764.53	42808.69
764.72	42767.73
764.90	42798.45
765.08	43089.26
765.27	43072.88
765.45	42478.97
765.63	42251.64
765.82	42708.34
766.00	42300.79
766.18	42505.59
766.37	42632.57
766.55	42556.79
766.74	42534.26
766.92	42065.28
767.10	42569.08
767.29	42134.91
767.47	41938.30
767.65	42405.24
767.84	42136.96
768.02	42225.02
768.20	41973.12
768.39	42063.23
768.57	41948.54
768.75	41952.64
768.94	42325.37
769.12	41993.60
769.30	41604.49
769.49	41938.30
769.67	41903.49
769.85	41743.75
770.04	41686.40
770.22	41618.82
770.40	41461.13
770.59	41672.07
770.77	42014.08
770.95	41375.11
771.14	41127.31
771.32	41198.99
771.50	41545.09
771.69	41293.19
771.87	41471.37
772.05	41014.67
772.24	41047.44
772.42	41219.47
772.60	41280.91
772.78	41244.04
772.97	40801.68
773.15	41287.05
773.33	41043.34
773.52	41293.19
773.70	41092.49
773.88	41520.52
774.07	41076.11
774.25	41379.21
774.43	41115.02
774.61	41393.54
774.80	41549.19
774.98	41203.08
775.16	41299.34
775.34	41452.94
775.53	41106.83
775.71	41465.22
775.89	41465.22
776.08	40963.47
776.26	41174.41
776.44	41092.49
776.62	41231.75
776.81	41039.25
776.99	41536.90
777.17	41655.68
777.35	41244.04
777.54	41690.50
777.72	41139.60
777.90	41469.32
778.08	41538.95
778.27	41405.83
778.45	41649.54
778.63	41479.56
778.81	41088.40
779.00	41833.86
779.18	41661.83
779.36	42130.81
779.54	41641.35
779.73	41641.35
779.91	41969.02
780.09	41940.35
780.27	41895.30
780.46	41713.03
780.64	42083.71
780.82	41745.80
781.00	41760.13
781.19	41946.50
781.37	42132.86
781.55	42546.55
781.73	42292.60
781.91	42249.60
782.10	42374.52
782.28	42489.21
782.46	42083.71
782.64	42302.84
782.82	41919.87
783.01	42345.85
783.19	42513.78
783.37	42505.59
783.55	41989.50
783.74	42464.63
783.92	42030.46
784.10	42587.51
784.28	42247.55
784.46	42022.27
784.64	42220.92
784.83	42696.05
785.01	42294.65
785.19	42055.04
785.37	42460.54
785.55	42247.55
785.74	42003.84
785.92	42165.63
786.10	42433.91
786.28	42304.89
786.46	41803.14
786.64	41973.12
786.83	41854.34
787.01	42048.89
787.19	41966.98
787.37	42091.90
787.55	42196.35
787.74	41551.24
787.92	41942.40
788.10	41629.06
788.28	41444.74
788.46	41690.50
788.64	41129.36
788.82	41862.53
789.01	41561.48
789.19	41481.61
789.37	41469.32
789.55	41174.41
789.73	41106.83
789.91	41098.64
790.09	41063.82
790.28	41241.99
790.46	40799.63
790.64	40895.89
790.82	41131.40
791.00	40811.92
791.18	40533.40
791.36	40816.02
791.55	40861.07
791.73	40572.31
791.91	40244.63
792.09	40768.91
792.27	40678.80
792.45	40836.50
792.63	40437.14
792.81	40592.79
793.00	40273.31
793.18	40207.77
793.36	39976.35
793.54	40459.67
793.72	39957.92
793.90	40121.76
794.08	39876.00
794.26	39773.60
794.44	39482.79
794.62	39419.30
794.81	39394.73
794.99	39542.18
795.17	39466.41
795.35	39318.95
795.53	39099.82
795.71	39132.59
795.89	38819.25
796.07	38651.31
796.25	38567.35
796.43	38700.47
796.61	38321.59
796.80	38553.01
796.98	38651.31
797.16	38460.85
797.34	38243.77
797.52	38346.17
797.70	38538.68
797.88	38288.82
798.06	38260.15
798.24	38102.46
798.42	37711.30
798.60	37766.59
798.78	37664.19
798.96	38016.44
799.14	37467.59
799.32	37963.20
799.51	37463.49
799.69	37610.95
799.87	37311.94
800.05	37144.01
800.23	37164.49
800.41	36775.37
800.59	37201.35
800.77	36722.13
800.95	36619.73
801.13	36959.69
801.31	36302.29
801.49	36525.52
801.67	36525.52
801.85	36543.95
802.03	36537.81
802.21	36062.68
802.39	35800.54
802.57	36148.70
802.75	35909.08
802.93	35931.61
803.11	36099.55
803.29	35904.99
803.47	35739.10
803.65	35724.77
803.83	36021.72
804.01	35128.81
804.19	35397.09
804.37	35157.48
804.55	35378.66
804.73	35046.89
804.91	35395.04
805.09	35300.84
805.27	35071.46
805.45	34649.58
805.63	34899.44
805.81	34909.68
805.99	35020.27
806.17	34897.39
806.35	34289.14
806.53	34139.64
806.71	34313.72
806.89	34346.48
807.07	34225.65
807.25	34440.69
807.43	34170.36
807.61	34643.44
807.79	33789.44
807.97	33707.52
808.15	33697.28
808.33	33822.20
808.51	33805.82
808.69	33983.99
808.87	33578.50
809.05	33433.09
809.23	33439.23
809.41	33342.98
809.59	33234.44
809.77	33132.04
809.95	33185.29
810.13	33205.77
810.31	32857.61
810.49	32790.03
810.67	32779.79
810.84	32837.13
811.02	32765.45
811.20	32673.29
811.38	32976.39
811.56	32368.15
811.74	32429.59
811.92	32005.66
812.10	32390.67
812.28	32175.64
812.46	32169.49
812.64	32419.35
812.82	32198.16
813.00	32411.15
813.18	32251.41
813.36	32024.09
813.53	31485.47
813.71	31927.83
813.89	31673.88
814.07	31634.97
814.25	31344.16
814.43	31456.80
814.61	31542.81
814.79	31407.65
814.97	31393.31
815.15	31360.55
815.33	31057.45
815.50	31012.39
815.68	31303.20
815.86	31211.04
816.04	31143.46
816.22	31149.60
816.40	31122.98
816.58	30823.98
816.76	30719.53
816.94	30678.57
817.11	30893.61
817.29	30443.06
817.47	30707.24
817.65	30391.86
817.83	30598.70
818.01	30287.41
818.19	30099.00
818.37	30299.70
818.54	29890.10
818.72	29687.36
818.90	29920.82
819.08	29967.93
819.26	29941.30
819.44	30060.09
819.62	29789.75
819.80	29746.75
819.97	29720.12
820.15	29789.75
820.33	29279.81
820.51	30162.48
820.69	29541.95
820.87	29638.20
821.05	29795.90
821.22	29447.74
821.40	29464.13
821.58	29107.78
821.76	29249.09
821.94	29177.41
822.12	29304.38
822.29	29169.22
822.47	29201.99
822.65	29230.66
822.83	28548.68
823.01	29056.58
823.19	28816.97
823.36	28669.51
823.54	28728.91
823.72	28563.02
823.90	28991.05
824.08	28309.07
824.25	28624.46
824.43	28474.96
824.61	28356.18
824.79	28616.27
824.97	28343.89
825.15	28515.92
825.32	28264.02
825.50	28118.61
825.68	27969.11
825.86	28345.94
826.04	28264.02
826.21	27885.14
826.39	28163.67
826.57	27817.56
826.75	27860.57
826.93	27735.64
827.10	27649.63
827.28	27831.90
827.46	27903.57
827.64	28073.56
827.81	27856.47
827.99	27721.30
828.17	27401.82
828.35	27387.49
828.53	27573.85
828.70	27596.38
828.88	27551.32
829.06	27502.17
829.24	27555.42
829.41	27190.88
829.59	27303.52
829.77	27270.75
829.95	27133.54
830.12	27020.90
830.30	27307.62
830.48	27199.07
830.66	27096.67
830.84	26867.30
831.01	26744.42
831.19	26867.30
831.37	26750.57
831.55	26793.58
831.72	26670.70
831.90	26850.92
832.08	26785.38
832.25	26957.41
832.43	26750.57
832.61	26435.18
832.79	26340.97
832.96	26605.16
833.14	26527.34
833.32	26517.10
833.50	26351.21
833.67	26498.67
833.85	26388.08
834.03	26164.85
834.20	26154.61
834.38	26484.33
834.56	26322.54
834.74	25935.48
834.91	26087.03
835.09	26265.20
835.27	25865.85
835.44	26232.43
835.62	25630.33
835.80	25876.09
835.98	25980.53
836.15	25783.93
836.33	25484.92
836.51	25712.25
836.68	25351.81
836.86	25792.12
837.04	25509.50
837.21	25851.51
837.39	25863.80
837.57	25728.63
837.75	25626.23
837.92	25104.00
838.10	25419.39
838.28	25056.90
838.45	25212.54
838.63	25220.74
838.81	25251.45
838.98	24936.07
839.16	25149.06
839.34	24813.19
839.51	24886.92
839.69	24809.09
839.87	25144.96
840.04	24985.22
840.22	25204.35
840.40	24802.95
840.57	24782.47
840.75	25067.14
840.93	24405.64
841.10	24551.05
841.28	24809.09
841.46	24608.39
841.63	24899.20
841.81	24966.79
841.98	24917.64
842.16	24702.60
842.34	24620.68
842.51	24567.43
842.69	24796.81
842.87	24827.53
843.04	24563.34
843.22	24182.42
843.40	24555.15
843.57	24307.34
843.75	24104.59
843.92	24356.49
844.10	24454.79
844.28	24436.36
844.45	24340.11
844.63	24293.01
844.81	24225.42
844.98	24045.20
845.16	24182.42
845.33	23834.26
845.51	23932.56
845.69	23903.89
845.86	23637.66
846.04	23621.27
846.21	23764.63
846.39	23547.54
846.57	23574.17
846.74	23973.52
846.92	23701.14
847.09	23692.95
847.27	23199.39
847.45	23826.07
847.62	23762.58
847.80	23793.30
847.97	23352.99
848.15	23500.44
848.32	23092.90
848.50	23279.26
848.68	22974.11
848.85	23207.58
849.03	23309.98
849.20	23430.81
849.38	23330.46
849.56	22937.25
849.73	23047.84
849.91	23266.97
850.08	23213.73
850.26	22941.35
850.43	22920.87
850.61	22671.01
850.78	23146.14
850.96	23226.01
851.14	22836.90
851.31	23084.70
851.49	23049.89
851.66	22904.48
851.84	22742.69
852.01	23027.36
852.19	22967.97
852.36	22654.63
852.54	22726.31
852.71	22568.62
852.89	22707.88
853.07	22771.36
853.24	22707.88
853.42	22507.18
853.59	22515.37
853.77	22628.01
853.94	22402.73
854.12	22652.58
854.29	22304.43
854.47	22326.96
854.64	22081.20
854.82	22208.17
854.99	22273.71
855.17	22322.86
855.34	22316.72
855.52	22386.35
855.69	22402.73
855.87	22181.55
856.04	22316.72
856.22	22224.56
856.39	21946.03
856.57	21991.09
856.74	21876.40
856.92	22308.52
857.09	21798.58
857.27	21943.99
857.44	22091.44
857.62	21978.80
857.79	21700.28
857.97	21900.98
858.14	22222.51
858.32	21872.31
858.49	21872.31
858.67	21575.35
858.84	21812.92
859.02	22038.19
859.19	21743.28
859.37	21780.15
859.54	21552.82
859.72	21536.44
859.89	21575.35
860.06	21661.37
860.24	21550.78
860.41	21503.67
860.59	21345.98
860.76	21561.02
860.94	21343.93
861.11	21661.37
861.29	21364.41
861.46	21624.50
861.64	21372.60
861.81	21292.73
861.98	21300.92
862.16	21155.52
862.33	21159.61
862.51	21010.11
862.68	21378.75
862.86	21102.27
863.03	20922.05
863.21	21073.60
863.38	21225.15
863.55	21229.24
863.73	20924.10
863.90	21036.74
864.08	20985.54
864.25	20729.54
864.43	20854.47
864.60	20774.60
864.77	20735.68
864.95	20803.27
865.12	20387.53
865.30	20784.83
865.47	20688.58
865.64	20717.25
865.82	20477.64
865.99	20852.42
866.17	20502.22
866.34	20600.52
866.51	20283.08
866.69	20780.74
866.86	20621.00
867.04	20469.45
867.21	20338.38
867.38	20446.92
867.56	20281.03
867.73	20231.88
867.91	19908.30
868.08	20197.07
868.25	20252.36
868.43	20254.41
868.60	20295.37
868.78	19990.22
868.95	20164.30
869.12	20156.11
869.30	20057.81
869.47	19902.16
869.64	19793.62
869.82	20104.91
869.99	19715.80
870.16	20014.80
870.34	19926.74
870.51	19900.11
870.69	19521.24
870.86	19738.32
871.03	19670.74
871.21	19379.93
871.38	19744.47
871.55	19771.09
871.73	19547.86
871.90	19515.09
872.07	19508.95
872.25	19248.86
872.42	19250.91
872.59	19435.22
872.77	19482.33
872.94	19197.66
873.11	19193.56
873.29	19281.63
873.46	19001.05
873.63	19574.49
873.81	19060.45
873.98	19171.04
874.15	18931.42
874.33	18804.45
874.50	19019.49
874.67	19123.93
874.85	19003.10
875.02	18892.51
875.19	18968.29
875.37	18976.48
875.54	18583.27
875.71	18884.32
875.88	18493.16
876.06	18767.59
876.23	18622.18
876.40	18585.32
876.58	18611.94
876.75	18597.60
876.92	18544.36
877.10	18263.79
877.27	18314.98
877.44	18253.55
877.61	18347.75
877.79	18286.31
877.96	18194.15
878.13	18448.10
878.31	18171.63
878.48	18050.80
878.65	18095.85
878.82	18163.43
879.00	17997.55
879.17	18075.37
879.34	17846.00
879.51	17891.06
879.69	17643.25
879.86	18009.84
880.03	17747.70
880.21	18009.84
880.38	18003.69
880.55	17972.97
880.72	17700.59
880.90	17757.94
881.07	17579.76
881.24	17641.20
881.41	17766.13
881.59	17237.75
881.76	17469.17
881.93	17526.52
882.10	17561.33
882.28	17610.48
882.45	17690.35
882.62	17401.59
882.79	17559.28
882.96	17161.98
883.14	17671.92
883.31	17417.97
883.48	17354.49
883.65	17620.72
883.83	17606.39
884.00	17170.17
884.17	17299.19
884.34	17503.99
884.51	17442.55
884.69	17440.50
884.86	17147.64
885.03	17315.58
885.20	17051.39
885.38	17321.72
885.55	17209.08
885.72	17069.82
885.89	17131.26
886.06	17116.92
886.24	17192.70
886.41	16979.71
886.58	17080.06
886.75	17434.36
886.92	16862.97
887.10	17198.84
887.27	16774.91
887.44	17071.87
887.61	16914.17
887.78	16971.52
887.95	16811.78
888.13	16815.87
888.30	16389.89
888.47	16746.24
888.64	16553.73
888.81	16637.70
888.99	16678.66
889.16	16486.15
889.33	16414.47
889.50	16277.26
889.67	16344.84
889.84	16412.42
890.01	16586.50
890.19	16457.48
890.36	16600.83
890.53	16393.99
890.70	16113.42
890.87	16326.41
891.04	16187.14
891.22	16289.54
891.39	16234.25
891.56	15906.57
891.73	16285.45
891.90	16181.00
892.07	16021.26
892.24	16248.58
892.42	15888.14
892.59	15927.05
892.76	16086.79
892.93	16166.67
893.10	16115.47
893.27	15937.29
893.44	15767.31
893.61	15890.19
893.79	16148.23
893.96	15748.88
894.13	15941.39
894.30	16115.47
894.47	15826.70
894.64	15994.64
894.81	15908.62
894.98	15734.54
895.15	15871.76
895.33	15863.57
895.50	15656.72
895.67	16129.80
895.84	15810.32
896.01	15728.40
896.18	15638.29
896.35	15927.05
896.52	15861.52
896.69	15675.15
896.86	15890.19
897.04	15828.75
897.21	15642.39
897.38	15572.75
897.55	15838.99
897.72	15828.75
897.89	15804.17
898.06	15791.89
898.23	15865.61
898.40	15632.15
898.57	15513.36
898.74	15615.76
898.91	15671.06
899.08	15589.14
899.26	15843.09
899.43	15703.82
899.60	15519.51
899.77	15683.34
899.94	15699.73
900.11	15322.90
900.28	15767.31
900.45	15490.84
900.62	15382.29
900.79	15666.96
900.96	15652.63
901.13	15632.15
901.30	15427.35
901.47	15486.74
901.64	15439.64
901.81	15537.94
901.98	15669.01
902.15	15669.01
902.32	15413.01
902.49	15525.65
902.66	15499.03
902.83	15695.63
903.01	15548.18
903.18	15617.81
903.35	15486.74
903.52	15496.98
903.69	15765.26
903.86	15699.73
904.03	15552.27
904.20	15634.19
904.37	15787.79
904.54	15458.07
904.71	15494.93
904.88	15499.03
905.05	15595.28
905.22	15566.61
905.39	15591.19
905.56	15732.50
905.73	15490.84
905.90	15623.95
906.07	15472.40
906.24	15279.89
906.41	15435.54
906.58	15578.90
906.75	15419.16
906.92	15548.18
907.09	15501.08
907.26	15595.28
907.43	15337.24
907.60	15179.54
907.77	15505.17
907.93	15523.60
908.10	15503.12
908.27	15570.71
908.44	15251.22
908.61	15486.74
908.78	15210.26
908.95	15179.54
909.12	15200.02
909.29	15339.29
909.46	15437.59
909.63	15329.05
909.80	15120.15
909.97	15370.01
910.14	15261.46
910.31	15312.66
910.48	15136.54
910.65	15253.27
910.82	15056.67
910.99	15406.87
911.16	15146.78
911.33	15277.85
911.50	15025.95
911.66	15034.14
911.83	15025.95
912.00	15007.52
912.17	15032.09
912.34	15064.86
912.51	14966.56
912.68	14950.17
912.85	15097.63
913.02	14921.50
913.19	14876.44
913.36	14952.22
913.53	14843.68
913.70	14716.70
913.86	15085.34
914.03	14855.97
914.20	14962.46
914.37	14749.47
914.54	14696.22
914.71	14755.61
914.88	14702.37
915.05	14542.63
915.22	14544.67
915.39	14700.32
915.55	14294.82
915.72	14462.76
915.89	14636.83
916.06	14389.03
916.23	14341.93
916.40	14268.20
916.57	14200.62
916.74	14143.27
916.91	14161.70
917.07	14137.13
917.24	13887.28
917.41	14110.50
917.58	14333.73
917.75	14036.78
917.92	13844.27
918.09	14073.64
918.26	13885.23
918.42	13971.24
918.59	13993.77
918.76	13729.58
918.93	13702.96
919.10	13600.56
919.27	13684.53
919.44	13807.41
919.60	13815.60
919.77	13768.49
919.94	13508.40
920.11	13479.73
920.28	13541.17
920.45	13449.01
920.61	13514.55
920.78	13289.27
920.95	13324.08
921.12	13203.25
921.29	13152.06
921.46	13113.14
921.62	12871.48
921.79	13031.23
921.96	13115.19
922.13	12977.98
922.30	12644.16
922.47	12943.16
922.63	12900.16
922.80	12996.41
922.97	12799.80
923.14	12478.27
923.31	12808.00
923.47	12506.95
923.64	12615.49
923.81	12404.55
923.98	12609.34
924.15	12373.83
924.32	12388.16
924.48	12435.27
924.65	12463.94
924.82	12257.09
924.99	12269.38
925.15	11900.75
925.32	12312.39
925.49	11935.56
925.66	12044.10
925.83	11988.81
925.99	11790.16
926.16	11878.22
926.33	11902.79
926.50	11726.67
926.67	11745.10
926.83	11890.51
927.00	11642.70
927.17	11456.34
927.34	11654.99
927.50	11603.79
927.67	11536.21
927.84	11476.82
928.01	11654.99
928.17	11190.10
928.34	11245.40
928.51	11218.77
928.68	11075.42
928.84	11208.53
929.01	10993.50
929.18	10880.86
929.35	10973.02
929.51	11042.65
929.68	10835.80
929.85	10786.65
930.02	10954.58
930.18	10798.94
930.35	10635.10
930.52	10745.69
930.69	10579.81
930.85	10831.71
931.02	10461.02
931.19	10594.14
931.36	10407.78
931.52	10491.74
931.69	10272.61
931.86	10389.35
932.02	10485.60
932.19	10241.89
932.36	10184.55
932.53	10430.30
932.69	10178.40
932.86	10104.68
933.03	10069.86
933.19	9854.83
933.36	9881.45
933.53	9820.01
933.70	9824.11
933.86	9541.49
934.03	9781.10
934.20	9580.40
934.36	9715.56
934.53	9240.44
934.70	9273.20
934.86	9496.43
935.03	9193.33
935.20	9129.84
935.36	9099.13
935.53	8912.76
935.70	8916.86
935.86	9135.99
936.03	8847.22
936.20	8574.85
936.36	8847.22
936.53	8734.59
936.70	8548.22
936.86	8742.78
937.03	8499.07
937.20	8220.55
937.36	8519.55
937.53	7978.89
937.70	8021.89
937.86	7935.88
938.03	7931.78
938.20	7958.41
938.36	7806.86
938.53	7921.54
938.70	7563.15
938.86	7630.73
939.03	7450.51
939.20	7333.78
939.36	7448.46
939.53	7194.51
939.70	7409.55
939.86	7032.72
940.03	6975.38
940.19	6899.61
940.36	6762.39
940.53	6930.33
940.69	6729.63
940.86	6703.00
941.03	6492.06
941.19	6561.69
941.36	6571.93
941.52	6365.09
941.69	6281.12
941.86	6250.40
942.02	6258.59
942.19	6205.35
942.35	5971.88
942.52	6031.27
942.69	6094.76
942.85	5869.48
943.02	5865.38
943.18	6004.64
943.35	5869.48
943.52	5826.47
943.68	5892.01
943.85	5756.84
944.01	5629.87
944.18	5683.11
944.35	5724.07
944.51	5650.35
944.68	5498.80
944.84	5443.50
945.01	5463.98
945.17	5531.56
945.34	5545.90
945.51	5445.55
945.67	5480.36
945.84	5558.19
946.00	5300.14
946.17	5457.84
946.33	5302.19
946.50	5531.56
946.67	5234.61
946.83	5359.53
947.00	5269.42
947.16	5404.59
947.33	5201.84
947.49	5164.98
947.66	5357.49
947.82	5353.39
947.99	5300.14
948.16	5363.63
948.32	5267.38
948.49	5312.43
948.65	5328.81
948.82	5171.12
948.98	5246.90
949.15	5162.93
949.31	5318.57
949.48	5427.12
949.64	5164.98
949.81	5236.66
949.97	5281.71
950.14	5361.58
950.30	5498.80
950.47	5310.38
950.63	5294.00
950.80	5207.98
950.96	5289.90
951.13	5380.01
951.30	5310.38
951.46	5330.86
951.63	5484.46
951.79	5367.73
951.96	5402.54
952.12	5302.19
952.29	5443.50
952.45	5377.97
952.62	5463.98
952.78	5279.66
952.94	5318.57
953.11	5380.01
953.27	5291.95
953.44	5572.52
953.60	5435.31
953.77	5443.50
953.93	5492.65
954.10	5339.05
954.26	5334.96
954.43	5314.48
954.59	5547.95
954.76	5537.71
954.92	5445.55
955.09	5580.71
955.25	5361.58
955.42	5494.70
955.58	5547.95
955.75	5390.25
955.91	5328.81
956.07	5392.30
956.24	5588.91
956.40	5482.41
956.57	5433.26
956.73	5355.44
956.90	5509.04
957.06	5250.99
957.23	5377.97
957.39	5396.40
957.56	5482.41
957.72	5361.58
957.88	5402.54
958.05	5425.07
958.21	5572.52
958.38	5431.21
958.54	5414.83
958.71	5441.45
958.87	5359.53
959.03	5345.20
959.20	5484.46
959.36	5382.06
959.53	5365.68
959.69	5294.00
959.85	5410.73
960.02	5369.77
960.18	5484.46
960.35	5535.66
960.51	5560.24
960.68	5326.77
960.84	5441.45
961.00	5468.08
961.17	5367.73
961.33	5402.54
961.50	5441.45
961.66	5498.80
961.82	5343.15
961.99	5515.18
962.15	5420.97
962.31	5304.24
962.48	5414.83
962.64	5599.15
962.81	5291.95
962.97	5408.69
963.13	5261.23
963.30	5414.83
963.46	5371.82
963.62	5308.34
963.79	5345.20
963.95	5238.70
964.12	5226.42
964.28	5275.57
964.44	5156.79
964.61	5504.94
964.77	5255.09
964.93	5468.08
965.10	5234.61
965.26	5257.14
965.42	5228.46
965.59	5136.31
965.75	5232.56
965.92	5318.57
966.08	5304.24
966.24	5330.86
966.41	5160.88
966.57	5361.58
966.73	5244.85
966.90	5279.66
967.06	5185.46
967.22	5142.45
967.39	5197.74
967.55	5199.79
967.71	5115.83
967.88	5191.60
968.04	5009.33
968.20	5191.60
968.37	5117.87
968.53	5081.01
968.69	5140.40
968.85	5091.25
969.02	5250.99
969.18	5187.50
969.34	5240.75
969.51	5164.98
969.67	5132.21
969.83	4894.65
970.00	4931.51
970.16	5033.91
970.32	5046.20
970.48	5048.24
970.65	4933.56
970.81	4923.32
970.97	4888.50
971.14	4919.22
971.30	5015.48
971.46	4880.31
971.63	4964.28
971.79	5081.01
971.95	5015.48
972.11	4960.18
972.28	4999.09
972.44	4982.71
972.60	4868.02
972.76	5040.05
972.93	4845.49
973.09	4911.03
973.25	4829.11
973.42	4886.45
973.58	4888.50
973.74	4808.63
973.90	4919.22
974.07	4820.92
974.23	4884.41
974.39	4890.55
974.55	4761.53
974.72	4890.55
974.88	4728.76
975.04	5007.28
975.20	4808.63
975.37	4982.71
975.53	4855.73
975.69	4911.03
975.85	4802.49
976.01	4749.24
976.18	4796.34
976.34	4689.85
976.50	4808.63
976.66	4798.39
976.83	4677.56
976.99	4739.00
977.15	4673.46
977.31	4595.64
977.47	4685.75
977.64	4585.40
977.80	4585.40
977.96	4530.11
978.12	4487.10
978.29	4542.39
978.45	4495.29
978.61	4554.68
978.77	4581.31
978.93	4640.70
979.10	4577.21
979.26	4587.45
979.42	4607.93
979.58	4257.73
979.74	4403.13
979.91	4462.52
980.07	4523.96
980.23	4509.63
980.39	4497.34
980.55	4462.52
980.71	4423.61
980.88	4284.35
981.04	4353.98
981.20	4390.84
981.36	4337.60
981.52	4300.73
981.68	4392.89
981.85	4366.27
982.01	4411.32
982.17	4214.72
982.33	4181.95
982.49	4405.18
982.65	4222.91
982.82	4362.17
982.98	4198.34
983.14	4171.71
983.30	4020.16
983.46	4218.82
983.62	4222.91
983.79	4204.48
983.95	4061.12
984.11	4214.72
984.27	4212.67
984.43	4218.82
984.59	4138.94
984.75	4149.18
984.91	4177.86
985.08	4149.18
985.24	4102.08
985.40	4081.60
985.56	4097.99
985.72	4208.58
985.88	4188.10
986.04	3971.01
986.20	4118.47
986.37	4036.55
986.53	3942.34
986.69	4063.17
986.85	3936.20
987.01	4026.31
987.17	3928.00
987.33	3962.82
987.49	4036.55
987.65	3993.54
987.82	3784.65
987.98	3835.85
988.14	3858.37
988.30	3930.05
988.46	4001.73
988.62	3944.39
988.78	3858.37
988.94	3948.48
989.10	3915.72
989.26	3835.85
989.42	3762.12
989.59	3801.03
989.75	3715.02
989.91	3819.46
990.07	3690.44
990.23	3667.91
990.39	3913.67
990.55	3848.13
990.71	3721.16
990.87	3790.79
991.03	3733.45
991.19	3735.50
991.35	3835.85
991.51	3719.11
991.67	3841.99
991.83	3747.78
992.00	3768.26
992.16	3778.50
992.32	3723.21
992.48	3737.54
992.64	3590.09
992.80	3553.23
992.96	3704.78
993.12	3735.50
993.28	3624.90
993.44	3618.76
993.60	3602.38
993.76	3590.09
993.92	3581.90
994.08	3604.42
994.24	3614.66
994.40	3551.18
994.56	3643.34
994.72	3538.89
994.88	3618.76
995.04	3583.95
995.20	3422.16
995.36	3495.88
995.52	3577.80
995.68	3430.35
995.84	3536.84
996.00	3526.60
996.16	3555.27
996.32	3461.07
996.48	3393.48
996.64	3499.98
996.80	3461.07
996.96	3487.69
997.12	3360.72
997.28	3448.78
997.44	3436.49
997.60	3387.34
997.76	3446.73
997.92	3422.16
998.08	3461.07
998.24	3305.42
998.40	3338.19
998.56	3461.07
998.72	3276.75
998.88	3338.19
999.04	3233.74
999.20	3293.13
999.36	3262.41
999.52	3469.26
999.68	3346.38
999.84	3313.61
1000.00	3303.37
1000.16	3342.28
1000.32	3198.93
1000.48	3350.48
1000.64	3168.21
1000.80	3252.17
1000.95	3102.67
1001.11	3198.93
1001.27	3241.93
1001.43	3295.18
1001.59	3071.95
1001.75	3139.54
1001.91	3268.56
1002.07	3096.53
1002.23	3168.21
1002.39	3207.12
1002.55	3170.26
1002.71	3020.75
1002.87	3160.02
1003.03	3043.28
1003.19	3082.19
1003.34	3137.49
1003.50	3033.04
1003.66	3086.29
1003.82	3059.67
1003.98	2928.60
1004.14	3026.90
1004.30	2985.94
1004.46	3086.29
1004.62	2977.75
1004.78	2955.22
1004.94	3059.67
1005.09	3004.37
1005.25	2992.08
1005.41	2920.40
1005.57	3039.19
1005.73	2967.51
1005.89	2899.92
1006.05	2965.46
1006.21	3010.51
1006.37	2895.83
1006.52	2953.17
1006.68	2818.00
1006.84	2944.98
1007.00	2904.02
1007.16	2994.13
1007.32	2842.58
1007.48	2867.16
1007.64	2797.53
1007.79	2858.96
1007.95	2842.58
1008.11	2920.40
1008.27	2930.64
1008.43	2854.87
1008.59	2764.76
1008.75	2879.44
1008.91	2885.59
1009.06	2820.05
1009.22	2867.16
1009.38	2818.00
1009.54	2748.37
1009.70	2801.62
1009.86	2818.00
1010.01	2781.14
1010.17	2797.53
1010.33	2756.57
1010.49	2789.33
1010.65	2858.96
1010.81	2662.36
1010.96	2779.09
1011.12	2711.51
1011.28	2650.07
1011.44	2789.33
1011.60	2715.61
1011.76	2734.04
1011.91	2699.22
1012.07	2617.30
1012.23	2609.11
1012.39	2547.67
1012.55	2691.03
1012.71	2623.45
1012.86	2617.30
1013.02	2662.36
1013.18	2607.06
1013.34	2684.89
1013.50	2670.55
1013.65	2621.40
1013.81	2566.10
1013.97	2578.39
1014.13	2645.98
1014.29	2600.92
1014.44	2635.74
1014.60	2543.58
1014.76	2562.01
1014.92	2549.72
1015.07	2551.77
1015.23	2541.53
1015.39	2559.96
1015.55	2621.40
1015.71	2582.49
1015.86	2537.43
1016.02	2510.81
1016.18	2519.00
1016.34	2543.58
1016.49	2461.66
1016.65	2568.15
1016.81	2457.56
1016.97	2482.14
1017.12	2459.61
1017.28	2437.08
1017.44	2414.56
1017.60	2445.27
1017.75	2461.66
1017.91	2416.60
1018.07	2537.43
1018.23	2424.80
1018.38	2359.26
1018.54	2463.71
1018.70	2412.51
1018.86	2371.55
1019.01	2363.36
1019.17	2508.76
1019.33	2502.62
1019.49	2428.89
1019.64	2484.19
1019.80	2303.96
1019.96	2383.84
1020.12	2367.45
1020.27	2371.55
1020.43	2365.40
1020.59	2359.26
1020.74	2416.60
1020.90	2367.45
1021.06	2269.15
1021.22	2371.55
1021.37	2346.97
1021.53	2318.30
1021.69	2334.68
1021.84	2320.35
1022.00	2336.73
1022.16	2369.50
1022.31	2273.25
1022.47	2271.20
1022.63	2320.35
1022.79	2281.44
1022.94	2312.16
1023.10	2404.32
1023.26	2301.92
1023.41	2355.16
1023.57	2267.10
1023.73	2297.82
1023.88	2351.07
1024.04	2172.89
1024.20	2260.96
1024.35	2295.77
1024.51	2273.25
1024.67	2215.90
1024.82	2232.29
1024.98	2183.13
1025.14	2295.77
1025.29	2189.28
1025.45	2234.33
1025.61	2133.98
1025.76	2162.66
1025.92	2179.04
1026.08	2189.28
1026.23	2269.15
1026.39	2146.27
1026.55	2248.67
1026.70	2158.56
1026.86	2183.13
1027.02	2195.42
1027.17	2172.89
1027.33	2191.33
1027.48	2152.42
1027.64	2140.13
1027.80	2115.55
1027.95	2148.32
1028.11	2007.01
1028.27	2181.09
1028.42	2142.18
1028.58	2076.64
1028.73	2074.59
1028.89	2101.22
1029.05	2164.70
1029.20	2201.57
>>>>>End Processed Spectral Data<<<<<
