SpectraSuite Data File
++++++++++++++++++++++++++++++++++++
Date: Fri Jun 02 14:44:32 CEST 2017
User: INFO_000
Dark Spectrum Present: No
Reference Spectrum Present: No
Number of Sampled Component Spectra: 1
Spectrometers: USB4H00879
Integration Time (usec): 80000 (USB4H00879)
Spectra Averaged: 1 (USB4H00879)
Boxcar Smoothing: 0 (USB4H00879)
Correct for Electrical Dark: No (USB4H00879)
Strobe/Lamp Enabled: No (USB4H00879)
Correct for Detector Non-linearity: No (USB4H00879)
Correct for Stray Light: No (USB4H00879)
Number of Pixels in Processed Spectrum: 3648
>>>>>Begin Processed Spectral Data<<<<<
345.13	1279.98
345.34	1279.98
345.56	1279.98
345.78	1298.41
345.99	1271.79
346.21	1642.47
346.42	1703.91
346.64	1644.52
346.86	1794.02
347.07	1572.84
347.29	1634.28
347.50	1601.51
347.72	1695.72
347.94	1767.40
348.15	1492.97
348.37	1581.03
348.59	1703.91
348.80	1624.04
349.02	1683.43
349.23	1796.07
349.45	1834.98
349.67	1822.69
349.88	1818.60
350.10	2009.06
350.31	1806.31
350.53	1855.46
350.75	1929.19
350.96	1757.16
351.18	1859.56
351.39	1890.28
351.61	1748.97
351.82	1847.27
352.04	1791.97
352.26	1843.17
352.47	1920.99
352.69	1888.23
352.90	1708.01
353.12	1761.25
353.34	1877.99
353.55	1931.23
353.77	1822.69
353.98	1757.16
354.20	1884.13
354.41	1896.42
354.63	2027.49
354.85	2007.01
355.06	1888.23
355.28	1689.57
355.49	1898.47
355.71	1877.99
355.92	1804.26
356.14	1867.75
356.35	1826.79
356.57	1802.21
356.79	1918.95
357.00	1839.08
357.22	1974.24
357.43	1857.51
357.65	1968.10
357.86	1791.97
358.08	1896.42
358.29	1918.95
358.51	1961.95
358.72	1970.15
358.94	1843.17
359.16	1937.38
359.37	1970.15
359.59	1867.75
359.80	1998.82
360.02	1902.56
360.23	1945.57
360.45	2019.30
360.66	1851.36
360.88	1789.92
361.09	1884.13
361.31	1970.15
361.52	1927.14
361.74	2082.78
361.95	2080.74
362.17	1849.32
362.38	2027.49
362.60	1957.86
362.81	2000.87
363.03	1937.38
363.24	1906.66
363.46	2037.73
363.67	1955.81
363.89	1980.39
364.10	1984.48
364.32	1918.95
364.53	2050.02
364.75	1896.42
364.96	1970.15
365.18	2056.16
365.39	1970.15
365.61	2041.82
365.82	2066.40
366.04	1986.53
366.25	1968.10
366.47	1996.77
366.68	1974.24
366.90	1972.19
367.11	2072.54
367.33	2037.73
367.54	2086.88
367.76	2000.87
367.97	2123.74
368.19	2080.74
368.40	2086.88
368.62	1957.86
368.83	2000.87
369.05	2099.17
369.26	1992.67
369.48	1996.77
369.69	1968.10
369.91	2050.02
370.12	2002.91
370.33	2078.69
370.55	1929.19
370.76	2021.35
370.98	2117.60
371.19	1988.58
371.41	2017.25
371.62	2133.98
371.84	1982.43
372.05	2082.78
372.27	2070.50
372.48	2062.30
372.69	2072.54
372.91	2131.94
373.12	2183.13
373.34	2035.68
373.55	2066.40
373.77	2203.61
373.98	2174.94
374.20	2097.12
374.41	2273.25
374.62	2123.74
374.84	2131.94
375.05	2140.13
375.27	2187.23
375.48	2103.26
375.70	2097.12
375.91	2154.46
376.12	2285.53
376.34	2168.80
376.55	2131.94
376.77	2174.94
376.98	2133.98
377.19	2138.08
377.41	2093.02
377.62	2260.96
377.84	2320.35
378.05	2265.05
378.27	2174.94
378.48	2224.09
378.69	2416.60
378.91	2303.96
379.12	2291.68
379.34	2228.19
379.55	2265.05
379.76	2312.16
379.98	2115.55
380.19	2215.90
380.41	2254.81
380.62	2324.44
380.83	2181.09
381.05	2199.52
381.26	2422.75
381.47	2277.34
381.69	2338.78
381.90	2432.99
382.12	2220.00
382.33	2295.77
382.54	2328.54
382.76	2322.40
382.97	2287.58
383.19	2230.24
383.40	2361.31
383.61	2224.09
383.83	2199.52
384.04	2363.36
384.25	2367.45
384.47	2346.97
384.68	2355.16
384.89	2355.16
385.11	2422.75
385.32	2365.40
385.54	2338.78
385.75	2275.29
385.96	2473.95
386.18	2383.84
386.39	2408.41
386.60	2318.30
386.82	2414.56
387.03	2412.51
387.24	2523.10
387.46	2373.60
387.67	2473.95
387.88	2514.91
388.10	2400.22
388.31	2486.23
388.52	2559.96
388.74	2547.67
388.95	2514.91
389.16	2531.29
389.38	2467.80
389.59	2623.45
389.80	2568.15
390.02	2586.58
390.23	2654.17
390.44	2457.56
390.66	2613.21
390.87	2543.58
391.08	2594.78
391.30	2736.09
391.51	2674.65
391.72	2695.13
391.94	2605.02
392.15	2625.50
392.36	2605.02
392.58	2656.22
392.79	2594.78
393.00	2660.31
393.22	2705.37
393.43	2760.66
393.64	2850.77
393.85	2750.42
394.07	2758.61
394.28	2791.38
394.49	2691.03
394.71	2746.33
394.92	2871.25
395.13	2807.77
395.35	2752.47
395.56	2768.85
395.77	2750.42
395.98	2772.95
396.20	2885.59
396.41	2867.16
396.62	2947.03
396.84	2801.62
397.05	2797.53
397.26	2871.25
397.47	3012.56
397.69	2877.40
397.90	3106.77
398.11	3067.86
398.32	2928.60
398.54	2904.02
398.75	2832.34
398.96	2969.55
399.18	3082.19
399.39	3022.80
399.60	3020.75
399.81	3051.47
400.03	2951.12
400.24	3235.79
400.45	2957.27
400.66	3114.96
400.88	2951.12
401.09	3139.54
401.30	3047.38
401.51	3213.26
401.73	3211.22
401.94	3170.26
402.15	3166.16
402.36	3141.58
402.58	3133.39
402.79	3182.54
403.00	3141.58
403.21	3256.27
403.43	3264.46
403.64	3289.04
403.85	3133.39
404.06	3262.41
404.27	3184.59
404.49	3252.17
404.70	3119.06
404.91	3393.48
405.12	3289.04
405.34	3284.94
405.55	3356.62
405.76	3207.12
405.97	3305.42
406.19	3381.20
406.40	3200.98
406.61	3317.71
406.82	3405.77
407.03	3348.43
407.25	3203.02
407.46	3506.12
407.67	3477.45
407.88	3555.27
408.09	3448.78
408.31	3366.86
408.52	3416.01
408.73	3223.50
408.94	3430.35
409.15	3473.36
409.37	3569.61
409.58	3633.10
409.79	3534.79
410.00	3534.79
410.21	3428.30
410.43	3436.49
410.64	3508.17
410.85	3575.75
411.06	3571.66
411.27	3438.54
411.48	3624.90
411.70	3532.75
411.91	3651.53
412.12	3717.06
412.33	3631.05
412.54	3616.71
412.76	3674.06
412.97	3805.13
413.18	3565.51
413.39	3626.95
413.60	3647.43
413.81	3651.53
414.03	3758.02
414.24	3647.43
414.45	3778.50
414.66	3592.14
414.87	3803.08
415.08	3760.07
415.30	3848.13
415.51	3712.97
415.72	3774.41
415.93	3715.02
416.14	3715.02
416.35	3854.28
416.56	3749.83
416.78	3835.85
416.99	3831.75
417.20	3796.93
417.41	3878.85
417.62	3811.27
417.83	3987.40
418.04	3864.52
418.26	3993.54
418.47	3911.62
418.68	3917.76
418.89	3971.01
419.10	4149.18
419.31	4147.14
419.52	4124.61
419.73	4009.92
419.95	4229.06
420.16	3956.68
420.37	4069.31
420.58	4089.79
420.79	3887.04
421.00	4124.61
421.21	4128.70
421.42	4167.62
421.63	4128.70
421.85	4175.81
422.06	4241.34
422.27	4190.14
422.48	4220.86
422.69	4274.11
422.90	4257.73
423.11	4313.02
423.32	4353.98
423.53	4442.04
423.75	4356.03
423.96	4480.96
424.17	4323.26
424.38	4550.59
424.59	4372.41
424.80	4571.07
425.01	4495.29
425.22	4501.44
425.43	4474.81
425.64	4616.12
425.85	4597.69
426.06	4466.62
426.28	4480.96
426.49	4435.90
426.70	4530.11
426.91	4722.62
427.12	4675.51
427.33	4706.23
427.54	4554.68
427.75	4712.38
427.96	4929.46
428.17	4790.20
428.38	4868.02
428.59	4904.89
428.80	4710.33
429.01	4978.61
429.23	4896.69
429.44	5027.76
429.65	4917.17
429.86	5089.20
430.07	4976.56
430.28	4960.18
430.49	5029.81
430.70	5066.67
430.91	5111.73
431.12	5089.20
431.33	5257.14
431.54	5087.15
431.75	5173.17
431.96	5132.21
432.17	5087.15
432.38	5173.17
432.59	5296.05
432.80	5195.70
433.01	5349.29
433.22	5271.47
433.43	5220.27
433.64	5304.24
433.85	5332.91
434.06	5418.93
434.27	5478.32
434.49	5521.32
434.70	5550.00
434.91	5482.41
435.12	5455.79
435.33	5468.08
435.54	5535.66
435.75	5263.28
435.96	5521.32
436.17	5361.58
436.38	5674.92
436.59	5613.48
436.80	5638.06
437.01	5902.25
437.22	5918.63
437.43	5562.28
437.64	5574.57
437.85	5840.81
438.06	5797.80
438.27	5734.31
438.48	5894.05
438.69	6018.98
438.90	5869.48
439.11	5814.18
439.32	5855.14
439.53	5838.76
439.74	5971.88
439.95	5887.91
440.16	6053.80
440.37	5869.48
440.57	5748.65
440.78	6010.79
440.99	5900.20
441.20	6023.08
441.41	5973.92
441.62	6057.89
441.83	5840.81
442.04	6143.91
442.25	6131.62
442.46	6086.56
442.67	6223.78
442.88	6317.98
443.09	6150.05
443.30	6227.87
443.51	6150.05
443.72	6393.76
443.93	6178.72
444.14	6524.83
444.35	6145.95
444.56	6475.68
444.77	6340.51
444.98	6401.95
445.19	6487.96
445.40	6453.15
445.61	6492.06
445.81	6629.27
446.02	6512.54
446.23	6500.25
446.44	6262.69
446.65	6598.56
446.86	6573.98
447.07	6723.48
447.28	6881.18
447.49	6602.65
447.70	6541.21
447.91	6754.20
448.12	6651.80
448.33	6844.31
448.54	6973.33
448.74	6559.64
448.95	6862.74
449.16	6719.39
449.37	7139.22
449.58	6889.37
449.79	7088.02
450.00	6760.34
450.21	7016.34
450.42	7067.54
450.63	7026.58
450.84	7065.49
451.05	7075.73
451.25	7065.49
451.46	6823.83
451.67	7161.75
451.88	7262.10
452.09	7307.15
452.30	7147.41
452.51	7227.28
452.72	7460.75
452.93	7636.88
453.13	7307.15
453.34	7323.54
453.55	7491.47
453.76	7333.78
453.97	7798.66
454.18	7466.89
454.39	7683.98
454.60	7565.20
454.81	7591.82
455.01	7622.54
455.22	7487.37
455.43	7657.36
455.64	7980.93
455.85	7925.64
456.06	8015.75
456.27	7925.64
456.48	7810.95
456.68	7956.36
456.89	7972.74
457.10	8081.28
457.31	8208.26
457.52	8155.01
457.73	8118.15
457.94	8200.07
458.14	8212.35
458.35	8585.08
458.56	8318.85
458.77	8161.16
458.98	8406.91
459.19	8337.28
459.39	8552.32
459.60	8521.60
459.81	8445.82
460.02	8619.90
460.23	8580.99
460.44	8812.41
460.65	8750.97
460.85	8750.97
461.06	9015.16
461.27	8621.95
461.48	8998.77
461.69	9183.09
461.89	8773.50
462.10	9021.30
462.31	8980.34
462.52	9060.21
462.73	9023.35
462.94	9170.80
463.14	9191.28
463.35	9303.92
463.56	9643.88
463.77	9441.14
463.98	9322.35
464.18	9375.60
464.39	9715.56
464.60	9609.07
464.81	9637.74
465.02	9643.88
465.23	9629.55
465.43	9772.91
465.64	9881.45
465.85	9891.69
466.06	9725.80
466.27	10180.45
466.47	10145.64
466.68	10121.06
466.89	9985.90
467.10	10053.48
467.30	10028.90
467.51	10282.85
467.72	10346.34
467.93	10276.71
468.14	10401.63
468.34	10473.31
468.55	10628.96
468.76	10710.88
468.97	10516.32
469.17	10837.85
469.38	10813.28
469.59	10895.19
469.80	10723.16
470.01	11024.22
470.21	10835.80
470.42	11251.54
470.63	11276.12
470.84	11071.32
471.04	11255.64
471.25	11235.16
471.46	11284.31
471.67	11749.20
471.87	11321.17
472.08	11550.54
472.29	11818.83
472.50	11423.57
472.70	11732.81
472.91	11968.33
473.12	11966.28
473.33	11927.37
473.53	12355.40
473.74	12136.26
473.95	12410.69
474.16	12547.90
474.36	12369.73
474.57	12687.17
474.78	12736.32
474.99	12455.75
475.19	12724.03
475.40	13080.38
475.61	13100.86
475.81	13178.68
476.02	13246.26
476.23	13121.34
476.44	13160.25
476.64	13422.39
476.85	13561.65
477.06	13631.28
477.27	13877.04
477.47	13567.79
477.68	13975.34
477.89	13877.04
478.09	14098.22
478.30	14233.38
478.51	14141.22
478.71	14421.80
478.92	14503.71
479.13	14688.03
479.34	14556.96
479.54	14536.48
479.75	14628.64
479.96	14724.90
480.16	14882.59
480.37	14884.64
480.58	15310.61
480.78	15249.18
480.99	15406.87
481.20	15566.61
481.41	15370.01
481.61	15527.70
481.82	15662.86
482.03	15707.92
482.23	15595.28
482.44	16097.03
482.65	16248.58
482.85	16281.35
483.06	16074.51
483.27	16271.11
483.47	16422.66
483.68	16336.65
483.89	16688.90
484.09	16592.64
484.30	16989.95
484.51	16895.74
484.71	16901.89
484.92	16961.28
485.13	17231.61
485.33	17350.39
485.54	17055.48
485.75	17698.55
485.95	17796.85
486.16	17880.82
486.37	17948.40
486.57	17503.99
486.78	17907.44
486.98	17932.01
487.19	18196.20
487.40	17993.45
487.60	18265.83
487.81	18538.21
488.02	18591.46
488.22	18613.99
488.43	19011.29
488.64	18745.06
488.84	18859.74
489.05	19021.53
489.25	19023.58
489.46	19338.97
489.67	18847.46
489.87	19523.29
490.08	19672.79
490.29	19410.65
490.49	19818.19
490.70	19715.80
490.90	19898.06
491.11	19637.97
491.32	19934.93
491.52	20022.99
491.73	20025.04
491.94	20018.89
492.14	20195.02
492.35	20369.10
492.55	20395.72
492.76	20522.69
492.97	20575.94
493.17	20764.36
493.38	20711.11
493.58	20821.70
493.79	21149.37
494.00	20782.79
494.20	21231.29
494.41	21362.36
494.61	21163.71
494.82	21239.48
495.02	21216.96
495.23	21782.20
495.44	21851.83
495.64	21733.04
495.85	21477.05
496.05	21735.09
496.26	21919.41
496.47	22144.69
496.67	21903.03
496.88	22347.44
497.08	22242.99
497.29	22439.59
497.49	22611.62
497.70	22496.94
497.91	22511.27
498.11	22431.40
498.32	22797.99
498.52	22787.75
498.73	23088.80
498.93	22986.40
499.14	23154.33
499.34	23099.04
499.55	23113.38
499.76	22789.80
499.96	23111.33
500.17	23312.03
500.37	23404.19
500.58	23402.14
500.78	23666.33
500.99	23623.32
501.19	23633.56
501.40	24028.82
501.60	23719.57
501.81	24073.87
502.02	24016.53
502.22	23680.66
502.43	24030.87
502.63	24450.70
502.84	24063.63
503.04	24137.36
503.25	24417.93
503.45	24372.88
503.66	24391.31
503.86	24301.20
504.07	24780.42
504.27	24462.99
504.48	24835.72
504.68	24565.39
504.89	25187.97
505.09	24749.70
505.30	24979.07
505.50	24981.12
505.71	25525.88
505.91	25237.12
506.12	25339.52
506.32	25261.69
506.53	25454.20
506.73	25534.07
506.94	25468.54
507.14	25765.49
507.35	25462.40
507.55	25474.68
507.76	25536.12
507.96	25831.03
508.17	25710.20
508.37	25814.65
508.58	25880.18
508.78	26029.68
508.99	25927.28
509.19	26183.28
509.40	26314.35
509.60	26383.98
509.81	26269.30
510.01	26437.23
510.22	26279.54
510.42	26328.69
510.63	26637.93
510.83	26642.03
511.04	26875.49
511.24	27070.05
511.44	26814.05
511.65	27092.58
511.85	26541.68
512.06	27102.82
512.26	26973.80
512.47	27129.44
512.67	27108.96
512.88	27448.93
513.08	27156.07
513.29	27620.95
513.49	27457.12
513.69	27414.11
513.90	27420.25
514.10	27577.95
514.31	27647.58
514.51	27805.27
514.72	27946.58
514.92	27684.44
515.13	27907.67
515.33	27962.97
515.53	28061.27
515.74	27995.73
515.94	27956.82
516.15	28202.58
516.35	27952.73
516.56	28350.03
516.76	28221.01
516.96	28573.26
517.17	28532.30
517.37	28376.66
517.58	28454.48
517.78	28718.67
517.99	28915.27
518.19	28847.69
518.39	29040.20
518.60	29220.42
518.80	29120.07
519.01	29271.62
519.21	29077.06
519.41	29167.17
519.62	28757.58
519.82	29279.81
520.03	29427.26
520.23	29412.93
520.43	29322.82
520.64	29832.76
520.84	30084.66
521.05	29781.56
521.25	29959.73
521.45	30518.83
521.66	30287.41
521.86	30064.18
522.07	30375.47
522.27	30244.40
522.47	30189.11
522.68	30871.08
522.88	30381.62
523.08	30477.87
523.29	30576.17
523.49	30690.86
523.70	30606.89
523.90	30901.80
524.10	30588.46
524.31	31155.75
524.51	31022.63
524.71	31579.68
524.92	30967.34
525.12	31360.55
525.33	31313.44
525.53	31553.05
525.73	31921.69
525.94	31718.94
526.14	31286.82
526.34	31538.72
526.55	32144.92
526.75	31974.94
526.95	31909.40
527.16	31845.91
527.36	32060.95
527.56	32261.65
527.77	32704.01
527.97	32308.76
528.17	32298.52
528.38	32261.65
528.58	32681.49
528.78	32503.31
528.99	32247.32
529.19	33144.33
529.39	32953.87
529.60	33261.06
529.80	32953.87
530.00	33232.39
530.21	33267.20
530.41	33314.31
530.61	33193.48
530.82	33377.79
531.02	33404.42
531.22	33861.12
531.43	33756.67
531.63	33902.07
531.83	34156.02
532.04	33981.95
532.24	33869.31
532.44	34293.24
532.64	34741.74
532.85	34358.77
533.05	34719.21
533.25	34678.25
533.46	34745.84
533.66	34952.68
533.86	34805.23
534.07	35300.84
534.27	34694.64
534.47	35030.51
534.67	35042.79
534.88	34952.68
535.08	34876.91
535.28	35587.55
535.49	35562.98
535.69	35997.15
535.89	35773.92
536.09	35608.03
536.30	36138.46
536.50	35735.01
536.70	36052.44
536.91	35894.75
537.11	35948.00
537.31	36259.29
537.51	36615.63
537.72	36885.97
537.92	36425.17
538.12	36795.85
538.32	36799.95
538.53	36883.92
538.73	36679.12
538.93	36971.98
539.13	36720.08
539.34	36849.10
539.54	36511.19
539.74	37096.91
539.94	36992.46
540.15	37027.28
540.35	37510.60
540.55	37547.46
540.75	37608.90
540.96	37830.08
541.16	37756.35
541.36	37436.87
541.56	37860.80
541.77	38118.84
541.97	38116.79
542.17	38200.76
542.37	37993.92
542.58	37785.02
542.78	38413.75
542.98	38153.66
543.18	38452.66
543.38	38962.61
543.59	38757.81
543.79	38213.05
543.99	38608.31
544.19	38811.06
544.40	38753.71
544.60	38997.42
544.80	39077.29
545.00	38645.17
545.20	38921.65
545.41	38958.51
545.61	39359.91
545.81	39413.16
546.01	39681.44
546.21	39437.73
546.42	39658.91
546.62	39646.63
546.82	39521.70
547.02	39957.92
547.22	39761.31
547.43	39763.36
547.63	39757.22
547.83	39925.15
548.03	39814.56
548.23	40215.96
548.44	40066.46
548.64	40676.76
548.84	40404.38
549.04	40375.70
549.24	40594.84
549.45	40684.95
549.65	40490.39
549.85	40682.90
550.05	40973.71
550.25	41033.10
550.45	41397.64
550.66	41223.56
550.86	40623.51
551.06	41117.07
551.26	41117.07
551.46	41428.36
551.66	40732.05
551.87	41061.77
552.07	42020.22
552.27	41557.38
552.47	41680.26
552.67	41876.86
552.87	41571.72
553.07	41026.96
553.28	41878.91
553.48	41913.73
553.68	42087.81
553.88	42237.31
554.08	41885.06
554.28	42016.13
554.48	41989.50
554.69	42554.74
554.89	42038.65
555.09	42560.89
555.29	42065.28
555.49	42423.67
555.69	42089.85
555.89	41817.47
556.10	42618.23
556.30	42468.73
556.50	42603.89
556.70	42384.76
556.90	42728.82
557.10	43134.32
557.30	42509.69
557.50	42589.56
557.70	42952.05
557.91	43244.91
558.11	42691.96
558.31	43339.11
558.51	42816.88
558.71	42997.10
558.91	43238.76
559.11	42988.91
559.31	43355.50
559.51	43259.24
559.72	42943.86
559.92	43394.41
560.12	43484.52
560.32	43818.34
560.52	43584.87
560.72	43552.10
560.92	43662.69
561.12	43318.64
561.32	44103.01
561.52	43793.76
561.72	43976.03
561.93	43498.86
562.13	43638.12
562.33	43978.08
562.53	44328.28
562.73	43705.70
562.93	43711.84
563.13	44170.59
563.33	44143.97
563.53	44094.82
563.73	43900.26
563.93	43828.58
564.13	44629.34
564.33	44328.28
564.53	43777.38
564.74	44655.96
564.94	43726.18
565.14	44361.05
565.34	44383.58
565.54	44598.62
565.74	44234.08
565.94	44764.50
566.14	44504.41
566.34	44643.67
566.54	45170.00
566.74	44066.14
566.94	44596.57
567.14	44741.97
567.34	44631.38
567.54	45184.33
567.74	44670.29
567.94	44522.84
568.14	44995.92
568.34	45157.71
568.54	44856.66
568.74	45022.54
568.94	44848.47
569.14	45380.94
569.34	44971.35
569.54	45145.42
569.75	45178.19
569.95	44942.67
570.15	45538.63
570.35	44914.00
570.55	45030.74
570.75	45268.30
570.95	45339.98
571.15	45536.59
571.35	45428.04
571.55	45311.31
571.75	45460.81
571.95	45333.84
572.15	45438.28
572.35	45856.07
572.55	45647.18
572.75	45702.47
572.95	45679.94
573.15	45614.41
573.35	45968.71
573.55	45524.30
573.75	45755.72
573.95	45733.19
574.15	45630.79
574.35	45978.95
574.55	45860.16
574.75	45561.16
574.95	45675.85
575.15	45389.13
575.34	45659.46
575.54	45661.51
575.74	46046.53
575.94	46323.01
576.14	45970.75
576.34	46060.87
576.54	45999.43
576.74	46210.37
576.94	46171.46
577.14	46517.56
577.34	46908.72
577.54	46191.94
577.74	46794.04
577.94	46835.00
578.14	46697.78
578.34	46411.07
578.54	46363.96
578.74	46126.40
578.94	46683.45
579.14	46513.47
579.34	46462.27
579.54	46904.63
579.74	47011.12
579.94	47236.40
580.13	46955.83
580.33	46869.81
580.53	47217.97
580.73	47215.92
580.93	46984.50
581.13	47168.82
581.33	47080.75
581.53	47611.18
581.73	47453.48
581.93	47363.37
582.13	47740.20
582.33	47480.11
582.53	47484.20
582.73	47467.82
582.92	47396.14
583.12	47670.57
583.32	47641.90
583.52	47676.71
583.72	48121.12
583.92	47992.10
584.12	48135.46
584.32	48280.86
584.52	48106.79
584.72	48342.30
584.92	48264.48
585.11	48387.36
585.31	48596.25
585.51	48530.72
585.71	48461.08
585.91	48583.96
586.11	48510.24
586.31	48084.26
586.51	48274.72
586.71	48487.71
586.91	49009.94
587.10	49224.98
587.30	48680.22
587.50	48870.68
587.70	48975.12
587.90	48975.12
588.10	48975.12
588.30	48868.63
588.50	49161.49
588.69	49296.66
588.89	48903.45
589.09	49450.25
589.29	49370.38
589.49	49650.95
589.69	49163.54
589.89	49583.37
590.08	49562.89
590.28	49583.37
590.48	49831.18
590.68	49513.74
590.88	49790.22
591.08	49829.13
591.28	49272.08
591.47	49997.06
591.67	49931.53
591.87	50294.02
592.07	50074.88
592.27	50271.49
592.47	50115.84
592.67	49851.66
592.86	50076.93
593.06	50590.97
593.26	50345.22
593.46	50517.25
593.66	50023.68
593.86	50312.45
594.05	50676.99
594.25	50871.54
594.45	50564.35
594.65	50377.98
594.85	50822.39
595.05	50654.46
595.24	50787.58
595.44	50787.58
595.64	50773.24
595.84	51352.82
596.04	51311.86
596.23	51051.76
596.43	51516.65
596.63	51076.34
596.83	51287.28
597.03	51369.20
597.22	51762.41
597.42	51557.61
597.62	52032.74
597.82	51639.53
598.02	51844.33
598.21	52024.55
598.41	51717.35
598.61	51954.92
598.81	51864.81
599.01	52208.87
599.20	52174.05
599.40	52444.38
599.60	52319.46
599.80	52063.46
600.00	52176.10
600.19	52778.20
600.39	52591.84
600.59	52790.49
600.79	52929.75
600.98	52647.13
601.18	53060.82
601.38	52944.09
601.58	52989.14
601.78	53298.39
601.97	52798.68
602.17	53222.61
602.37	53210.32
602.57	53257.43
602.76	53626.06
602.96	53353.68
603.16	53423.31
603.36	53507.28
603.55	53673.16
603.75	53771.47
603.95	54000.84
604.15	53923.02
604.34	53509.33
604.54	54035.66
604.74	53931.21
604.94	54072.52
605.13	53941.45
605.33	53826.76
605.53	54193.35
605.73	54140.10
605.92	54181.06
606.12	54131.91
606.32	54144.20
606.52	54408.39
606.71	54367.43
606.91	54314.18
607.11	54277.32
607.30	54383.81
607.50	54260.93
607.70	54625.47
607.90	54205.64
608.09	54453.44
608.29	54547.65
608.49	54619.33
608.68	55188.66
608.88	54654.14
609.08	54877.37
609.28	55065.78
609.47	54551.74
609.67	55147.70
609.87	54920.38
610.06	54725.82
610.26	54987.96
610.46	55125.17
610.66	54766.78
610.85	54961.34
611.05	54910.14
611.25	55291.06
611.44	54596.80
611.64	55022.78
611.84	54930.62
612.03	55149.75
612.23	55342.26
612.43	55663.79
612.62	55243.96
612.82	55043.26
613.02	54803.64
613.21	55481.52
613.41	54998.20
613.61	55571.63
613.80	54496.45
614.00	55106.74
614.20	55297.20
614.39	55135.41
614.59	55168.18
614.79	55458.99
614.98	55106.74
615.18	55248.05
615.38	55028.92
615.57	54650.05
615.77	55303.35
615.97	55289.01
616.16	55153.85
616.36	55172.28
616.56	55479.47
616.75	55299.25
616.95	54881.47
617.15	55061.69
617.34	54979.77
617.54	55119.03
617.74	55694.51
617.93	55278.77
618.13	54746.30
618.32	55071.93
618.52	54756.54
618.72	55456.95
618.91	55293.11
619.11	54842.56
619.31	54957.24
619.50	54926.52
619.70	54699.20
619.90	54992.06
620.09	55157.94
620.29	55026.87
620.48	55039.16
620.68	55528.62
620.88	55010.49
621.07	54744.25
621.27	54670.53
621.46	54492.35
621.66	54740.16
621.86	54631.61
622.05	54518.98
622.25	55334.07
622.44	54789.31
622.64	54541.50
622.84	54727.87
623.03	54725.82
623.23	54432.96
623.42	54561.98
623.62	54961.34
623.82	55166.13
624.01	54883.51
624.21	55012.54
624.40	55084.22
624.60	55016.63
624.80	54910.14
624.99	54842.56
625.19	54361.28
625.38	54695.10
625.58	55051.45
625.77	54654.14
625.97	55162.04
626.17	54183.11
626.36	54580.42
626.56	54869.18
626.75	54179.01
626.95	54965.43
627.14	54490.30
627.34	55108.79
627.54	54222.02
627.73	54887.61
627.93	54377.67
628.12	54404.29
628.32	54736.06
628.51	54926.52
628.71	54523.07
628.90	54338.75
629.10	54418.63
629.30	54510.78
629.49	54432.96
629.69	54580.42
629.88	54826.17
630.08	54721.72
630.27	54648.00
630.47	54566.08
630.66	54699.20
630.86	54523.07
631.05	54615.23
631.25	55030.97
631.44	54654.14
631.64	55301.30
631.84	55028.92
632.03	55024.82
632.23	54400.19
632.42	54768.83
632.62	54432.96
632.81	54383.81
633.01	54754.49
633.20	55250.10
633.40	54891.71
633.59	54385.86
633.79	54772.92
633.98	55080.12
634.18	54887.61
634.37	55121.08
634.57	54482.11
634.76	55102.65
634.96	54860.99
635.15	54916.28
635.35	54633.66
635.54	54725.82
635.74	55059.64
635.93	54697.15
636.13	55071.93
636.32	55370.93
636.52	54682.81
636.71	54643.90
636.91	54670.53
637.10	54990.01
637.30	54940.86
637.49	55047.35
637.69	54973.63
637.88	55221.43
638.08	54787.26
638.27	55286.96
638.46	55168.18
638.66	54826.17
638.85	55579.82
639.05	55581.87
639.24	55432.37
639.44	55344.31
639.63	55069.88
639.83	55575.73
640.02	55239.86
640.22	55018.68
640.41	55469.23
640.61	54791.36
640.80	55241.91
640.99	55268.53
641.19	55641.26
641.38	55278.77
641.58	55000.25
641.77	55268.53
641.97	55415.99
642.16	55522.48
642.36	55532.72
642.55	55768.24
642.74	55323.83
642.94	56065.19
643.13	55495.86
643.33	55764.14
643.52	56186.02
643.72	56196.26
643.91	55999.66
644.10	56087.72
644.30	56190.12
644.49	55540.91
644.69	56294.56
644.88	56124.58
645.08	55633.07
645.27	55743.66
645.46	55743.66
645.66	56411.30
645.85	55825.58
646.05	56317.09
646.24	56392.87
646.43	56153.26
646.63	56427.68
646.82	56267.94
647.02	56394.92
647.21	56153.26
647.40	56171.69
647.60	56657.06
647.79	56808.61
647.99	56100.01
648.18	56343.72
648.37	57091.22
648.57	56874.14
648.76	56829.08
648.96	56315.04
649.15	57191.58
649.34	56751.26
649.54	56536.23
649.73	56738.97
649.92	56622.24
650.12	56687.78
650.31	56663.20
650.51	56202.41
650.70	57052.31
650.89	56761.50
651.09	57556.11
651.28	56753.31
651.47	57238.68
651.67	57023.64
651.86	57431.19
652.06	56865.95
652.25	56849.56
652.44	56802.46
652.64	56956.06
652.83	57119.90
653.02	56913.05
653.22	56962.20
653.41	57214.10
653.60	56693.92
653.80	56972.44
653.99	57167.00
654.18	56743.07
654.38	56964.25
654.57	57238.68
654.76	57255.06
654.96	57050.27
655.15	57064.60
655.34	57154.71
655.54	57017.50
655.73	56849.56
655.92	57291.93
656.12	57136.28
656.31	57621.65
656.50	57382.04
656.70	57330.84
656.89	57308.31
657.08	57693.33
657.28	57156.76
657.47	57576.59
657.66	57267.35
657.86	57547.92
658.05	57427.09
658.24	57615.50
658.43	57656.46
658.63	57435.28
658.82	57752.72
659.01	57703.57
659.21	57353.36
659.40	57615.50
659.59	57482.39
659.79	57775.25
659.98	57767.05
660.17	57767.05
660.36	57586.83
660.56	57664.66
660.75	57619.60
660.94	57304.21
661.14	57402.52
661.33	57971.85
661.52	57193.62
661.71	58459.27
661.91	57941.13
662.10	57537.68
662.29	58145.93
662.49	57656.46
662.68	57572.50
662.87	58391.68
663.06	57810.06
663.26	57578.64
663.45	57988.24
663.64	57494.67
663.83	58367.11
664.03	58076.30
664.22	57918.60
664.41	57840.78
664.60	57330.84
664.80	57552.02
664.99	57820.30
665.18	57717.90
665.37	57525.39
665.57	57834.64
665.76	57136.28
665.95	57472.15
666.14	57511.06
666.34	57814.16
666.53	57574.55
666.72	57595.03
666.91	57234.58
667.11	57509.01
667.30	57765.01
667.49	57791.63
667.68	57627.79
667.87	57474.20
668.07	57943.18
668.26	57132.18
668.45	57253.01
668.64	57664.66
668.84	57959.56
669.03	57511.06
669.22	57496.72
669.41	57255.06
669.60	57472.15
669.80	57429.14
669.99	57560.21
670.18	56931.48
670.37	57400.47
670.57	57595.03
670.76	57582.74
670.95	57681.04
671.14	57431.19
671.33	57054.36
671.53	57617.55
671.72	57279.64
671.91	57058.46
672.10	57336.98
672.29	56968.35
672.48	57162.90
672.68	57580.69
672.87	57435.28
673.06	57179.29
673.25	56888.48
673.44	57054.36
673.64	56943.77
673.83	57312.41
674.02	56710.30
674.21	56573.09
674.40	57369.75
674.59	56835.23
674.79	57222.29
674.98	56796.32
675.17	57218.20
675.36	56958.11
675.55	57089.18
675.74	57054.36
675.94	57107.61
676.13	56749.21
676.32	57189.53
676.51	57259.16
676.70	57203.86
676.89	56763.55
677.08	57373.84
677.28	56603.81
677.47	57087.13
677.66	56978.59
677.85	56917.15
678.04	56794.27
678.23	57042.07
678.42	57119.90
678.62	56476.83
678.81	56904.86
679.00	56642.72
679.19	57203.86
679.38	56568.99
679.57	56824.99
679.76	56728.73
679.96	56648.86
680.15	56616.10
680.34	56439.97
680.53	56540.32
680.72	56396.96
680.91	56769.69
681.10	56532.13
681.29	56857.76
681.48	56437.92
681.68	56593.57
681.87	56450.21
682.06	56345.76
682.25	56177.83
682.44	56040.62
682.63	56626.34
682.82	55993.51
683.01	56020.14
683.20	55649.45
683.39	55780.52
683.59	55934.12
683.78	55473.33
683.97	55612.59
684.16	55989.42
684.35	55825.58
684.54	56153.26
684.73	55809.20
684.92	55805.10
685.11	55563.44
685.30	55631.02
685.49	56163.50
685.69	55497.91
685.88	55415.99
686.07	55383.22
686.26	55262.39
686.45	55895.21
686.64	55375.03
686.83	56059.05
687.02	55684.27
687.21	55581.87
687.40	55674.03
687.59	55798.96
687.78	55624.88
687.97	55649.45
688.16	55252.15
688.35	55078.07
688.54	55323.83
688.74	55432.37
688.93	55258.29
689.12	55260.34
689.31	55303.35
689.50	55743.66
689.69	55223.48
689.88	54867.13
690.07	55454.90
690.26	55028.92
690.45	55506.10
690.64	54951.10
690.83	54623.42
691.02	54691.01
691.21	55094.46
691.40	54842.56
691.59	54736.06
691.78	54903.99
691.97	55067.83
692.16	54701.25
692.35	55076.02
692.54	55243.96
692.73	54826.17
692.92	54508.74
693.11	54686.91
693.30	54699.20
693.49	54983.86
693.68	54629.57
693.87	54967.48
694.06	54660.29
694.25	55094.46
694.44	54635.71
694.63	54353.09
694.82	55121.08
695.01	54561.98
695.20	54506.69
695.39	54240.45
695.58	54772.92
695.77	54449.35
695.96	54340.80
696.15	54424.77
696.34	54486.21
696.53	54158.53
696.72	54742.20
696.91	54318.28
697.10	54244.55
697.29	54023.37
697.48	54625.47
697.67	54279.36
697.86	53974.22
698.05	54144.20
698.24	54695.10
698.43	53415.12
698.62	54197.44
698.81	53941.45
699.00	54211.78
699.19	53949.64
699.38	54086.85
699.57	53935.30
699.76	54631.61
699.95	54029.51
700.14	53613.77
700.32	53738.70
700.51	53540.05
700.70	54383.81
700.89	54131.91
701.08	54109.38
701.27	53925.07
701.46	53996.74
701.65	53208.28
701.84	53605.58
702.03	54041.80
702.22	53755.08
702.41	53679.31
702.60	53714.12
702.79	53365.97
702.98	53585.10
703.17	53849.29
703.35	53288.15
703.54	53394.64
703.73	53652.69
703.92	53322.96
704.11	54000.84
704.30	53314.77
704.49	53468.37
704.68	53298.39
704.87	53628.11
705.06	53593.29
705.25	53478.61
705.43	53386.45
705.62	53212.37
705.81	53494.99
706.00	53568.72
706.19	53175.51
706.38	53060.82
706.57	53306.58
706.76	53523.66
706.95	53486.80
707.14	53109.97
707.32	53146.84
707.51	52767.96
707.70	53187.80
707.89	53402.83
708.08	53275.86
708.27	53179.60
708.46	53492.94
708.65	53032.15
708.84	53236.95
709.02	53306.58
709.21	52686.04
709.40	53327.06
709.59	53026.01
709.78	52718.81
709.97	53339.35
710.16	52915.42
710.34	52909.27
710.53	53015.77
710.72	52706.52
710.91	52989.14
711.10	53152.98
711.29	52831.45
711.48	52663.52
711.66	52657.37
711.85	52909.27
712.04	52608.22
712.23	52804.83
712.42	52667.61
712.61	52595.93
712.80	52770.01
712.98	52724.96
713.17	52399.33
713.36	53118.17
713.55	52196.58
713.74	52704.48
713.93	52608.22
714.11	52702.43
714.30	52423.90
714.49	52856.03
714.68	52565.21
714.87	52688.09
715.06	52358.37
715.24	52225.25
715.43	52409.57
715.62	51754.22
715.81	51977.45
716.00	52348.13
716.18	51903.72
716.37	52167.91
716.56	51977.45
716.75	52548.83
716.94	51653.87
717.12	52155.62
717.31	52622.56
717.50	52407.52
717.69	52016.36
717.88	52112.61
718.06	52020.45
718.25	52184.29
718.44	51653.87
718.63	52004.07
718.82	51688.68
719.00	51432.69
719.19	51518.70
719.38	51719.40
719.57	51166.45
719.76	51766.51
719.94	51227.89
720.13	51197.17
720.32	51475.69
720.51	51500.27
720.69	51004.66
720.88	51010.81
721.07	51365.10
721.26	51021.05
721.44	51272.95
721.63	50763.00
721.82	50808.06
722.01	50773.24
722.20	51127.54
722.38	50576.64
722.57	50357.50
722.76	50803.96
722.95	50541.82
723.13	50386.18
723.32	50242.82
723.51	50304.26
723.70	50011.40
723.88	50443.52
724.07	50128.13
724.26	50433.28
724.44	49659.15
724.63	50226.43
724.82	49988.87
725.01	49976.58
725.19	50107.65
725.38	49747.21
725.57	49786.12
725.76	50074.88
725.94	49925.38
726.13	49790.22
726.32	49138.96
726.51	49698.06
726.69	49790.22
726.88	49880.33
727.07	49892.61
727.25	49923.33
727.44	49919.24
727.63	49339.66
727.82	49562.89
728.00	49992.97
728.19	49532.17
728.38	49890.57
728.56	49257.74
728.75	50238.72
728.94	49251.60
729.12	49378.57
729.31	49454.35
729.50	49196.31
729.69	49583.37
729.87	49429.77
730.06	49607.95
730.25	49360.14
730.43	49505.55
730.62	49171.73
730.81	49632.52
730.99	49364.24
731.18	49112.34
731.37	49546.51
731.55	49599.76
731.74	49853.70
731.93	49495.31
732.11	49550.60
732.30	49261.84
732.49	49648.91
732.67	49304.85
732.86	49167.63
733.05	49476.88
733.23	48725.27
733.42	49165.59
733.61	48995.60
733.79	49128.72
733.98	48964.88
734.17	49073.43
734.35	49052.95
734.54	49079.57
734.73	49188.11
734.91	49200.40
735.10	48792.86
735.29	48872.73
735.47	48784.66
735.66	48825.62
735.84	48821.53
736.03	48252.19
736.22	48905.49
736.40	48788.76
736.59	48698.65
736.78	48846.10
736.96	48665.88
737.15	48674.07
737.33	48477.47
737.52	48540.96
737.71	48569.63
737.89	48491.80
738.08	48039.20
738.27	47873.32
738.45	48782.62
738.64	48497.95
738.82	48411.93
739.01	48338.21
739.20	48438.56
739.38	48356.64
739.57	48231.71
739.75	48135.46
739.94	48141.60
740.13	47885.61
740.31	47957.28
740.50	48059.68
740.68	47779.11
740.87	48088.35
741.06	47889.70
741.24	47693.10
741.43	47568.17
741.61	47901.99
741.80	47623.47
741.99	47574.31
742.17	47502.64
742.36	47645.99
742.54	47299.89
742.73	47416.62
742.91	47420.72
743.10	47318.32
743.29	47609.13
743.47	47793.45
743.66	47568.17
743.84	47275.31
744.03	47357.23
744.21	47265.07
744.40	47392.04
744.59	47027.51
744.77	46314.81
744.96	47076.66
745.14	46787.89
745.33	46599.48
745.51	46781.75
745.70	46552.38
745.88	46703.93
746.07	46890.29
746.26	46427.45
746.44	46503.23
746.63	46826.81
746.81	46890.29
747.00	46427.45
747.18	46552.38
747.37	46703.93
747.55	46703.93
747.74	46677.30
747.92	46157.12
748.11	46384.44
748.29	46445.88
748.48	46230.85
748.66	46138.69
748.85	46058.82
749.03	46185.79
749.22	46351.68
749.41	45821.25
749.59	46648.63
749.78	45921.60
749.96	45944.13
750.15	46097.73
750.33	45911.36
750.52	46056.77
750.70	45897.03
750.89	45823.30
751.07	45638.98
751.26	45475.15
751.44	45499.72
751.63	45262.16
751.81	45122.90
752.00	45385.04
752.18	45608.26
752.37	45014.35
752.55	45163.85
752.74	45471.05
752.92	45268.30
753.10	45188.43
753.29	45137.23
753.47	44893.52
753.66	45335.88
753.84	45329.74
754.03	44764.50
754.21	44725.59
754.40	45225.29
754.58	45139.28
754.77	44924.24
754.95	44692.82
755.14	44744.02
755.32	44981.59
755.51	44193.12
755.69	44285.28
755.88	44610.90
756.06	44662.10
756.24	44322.14
756.43	44412.25
756.61	44264.80
756.80	44471.64
756.98	44336.48
757.17	44424.54
757.35	43935.07
757.54	44062.05
757.72	44232.03
757.90	43949.41
758.09	44029.28
758.27	43838.82
758.46	43689.32
758.64	43808.10
758.83	43881.83
759.01	43824.48
759.19	43646.31
759.38	43834.72
759.56	43816.29
759.75	44184.93
759.93	43459.94
760.12	43371.88
760.30	43828.58
760.48	43607.40
760.67	43343.21
760.85	43341.16
761.04	43806.05
761.22	43638.12
761.40	43562.34
761.59	43183.47
761.77	42909.04
761.96	43791.72
762.14	43263.34
762.32	43040.11
762.51	43226.48
762.69	42970.48
762.88	43230.57
763.06	43279.72
763.24	43062.64
763.43	43418.99
763.61	43124.08
763.80	42976.62
763.98	42941.81
764.16	42737.01
764.35	42640.76
764.53	42155.39
764.72	42112.38
764.90	42472.82
765.08	42501.50
765.27	42446.20
765.45	42192.25
765.63	42169.72
765.82	42800.50
766.00	42026.37
766.18	41932.16
766.37	42407.29
766.55	42012.03
766.74	42001.79
766.92	42022.27
767.10	42206.59
767.29	41842.05
767.47	41610.63
767.65	41758.08
767.84	41530.76
768.02	42065.28
768.20	41643.40
768.39	41805.19
768.57	41497.99
768.75	41907.58
768.94	41731.46
769.12	41899.39
769.30	41510.28
769.49	41624.96
769.67	41596.29
769.85	41391.50
770.04	41334.15
770.22	41319.82
770.40	41328.01
770.59	41002.38
770.77	41151.88
770.95	40867.22
771.14	40799.63
771.32	40920.46
771.50	40783.25
771.69	40826.26
771.87	41610.63
772.05	41012.62
772.24	40666.52
772.42	40895.89
772.60	40428.95
772.78	40934.80
772.97	40787.35
773.15	41295.24
773.33	41096.59
773.52	40734.10
773.70	40838.54
773.88	41031.05
774.07	40598.93
774.25	40723.86
774.43	40871.31
774.61	40871.31
774.80	41139.60
774.98	40820.11
775.16	41080.21
775.34	40764.82
775.53	40572.31
775.71	41266.57
775.89	40695.19
776.08	40719.76
776.26	40744.34
776.44	40789.39
776.62	40469.91
776.81	40471.96
776.99	41061.77
777.17	40766.87
777.35	40959.38
777.54	41129.36
777.72	40703.38
777.90	41006.48
778.08	41121.16
778.27	41289.10
778.45	41659.78
778.63	41260.43
778.81	40609.17
779.00	41721.22
779.18	40881.55
779.36	41500.04
779.54	41104.78
779.73	40940.94
779.91	41997.70
780.09	41371.02
780.27	41706.88
780.46	41688.45
780.64	41672.07
780.82	41256.33
781.00	41227.66
781.19	41887.10
781.37	41962.88
781.55	41710.98
781.73	42237.31
781.91	41344.39
782.10	41659.78
782.28	42042.75
782.46	42079.61
782.64	42460.54
782.82	41426.31
783.01	42100.09
783.19	42134.91
783.37	42145.15
783.55	41989.50
783.74	42087.81
783.92	41655.68
784.10	42642.81
784.28	41819.52
784.46	41694.60
784.64	41840.00
784.83	42132.86
785.01	42177.92
785.19	41966.98
785.37	42321.27
785.55	42235.26
785.74	41469.32
785.92	41745.80
786.10	41969.02
786.28	42100.09
786.46	41639.30
786.64	41508.23
786.83	41852.29
787.01	42120.57
787.19	41811.33
787.37	41682.31
787.55	41846.15
787.74	41721.22
787.92	41471.37
788.10	41516.42
788.28	41348.49
788.46	41541.00
788.64	41471.37
788.82	41803.14
789.01	41477.51
789.19	41573.77
789.37	41231.75
789.55	41422.22
789.73	40889.74
789.91	40904.08
790.09	41319.82
790.28	40922.51
790.46	40891.79
790.64	40465.81
790.82	40742.29
791.00	40887.70
791.18	40813.97
791.36	40512.92
791.55	40613.27
791.73	40687.00
791.91	40314.26
792.09	40453.53
792.27	40330.65
792.45	40629.65
792.63	40281.50
792.81	40226.20
793.00	40547.73
793.18	40283.55
793.36	40527.25
793.54	40431.00
793.72	39638.44
793.90	39867.81
794.08	39822.75
794.26	39968.16
794.44	39667.11
794.62	39474.60
794.81	39495.08
794.99	39411.11
795.17	39927.20
795.35	39433.64
795.53	39640.48
795.71	39550.37
795.89	39067.05
796.07	38917.55
796.25	39271.85
796.43	38618.55
796.61	38329.78
796.80	38677.94
796.98	38671.79
797.16	38610.35
797.34	38561.20
797.52	38292.92
797.70	38868.40
797.88	38364.60
798.06	37952.96
798.24	38145.47
798.42	38081.98
798.60	37672.39
798.78	38018.49
798.96	37987.77
799.14	37565.89
799.32	37680.58
799.51	37541.32
799.69	37629.38
799.87	37733.82
800.05	37434.82
800.23	37293.51
800.41	37270.98
800.59	37402.05
800.77	37025.23
800.95	37074.38
801.13	36662.74
801.31	36455.89
801.49	36402.64
801.67	36758.99
801.85	36599.25
802.03	36677.07
802.21	36345.30
802.39	36105.69
802.57	36394.45
802.75	36185.56
802.93	36171.22
803.11	36093.40
803.29	35878.36
803.47	35880.41
803.65	35941.85
803.83	35954.14
804.01	35894.75
804.19	35741.15
804.37	35284.45
804.55	35450.34
804.73	35360.23
804.91	35395.04
805.09	35411.43
805.27	35204.58
805.45	35026.41
805.63	35290.60
805.81	34969.07
805.99	35010.03
806.17	34805.23
806.35	35057.13
806.53	34477.55
806.71	34682.35
806.89	34637.30
807.07	34606.58
807.25	34651.63
807.43	34237.94
807.61	34420.21
807.79	34457.07
807.97	34305.52
808.15	34280.95
808.33	33799.68
808.51	33904.12
808.69	34094.58
808.87	33754.62
809.05	34029.05
809.23	33887.74
809.41	33414.66
809.59	33365.51
809.77	33609.22
809.95	33107.46
810.13	33791.48
810.31	32876.04
810.49	33189.38
810.67	33246.72
810.84	33191.43
811.02	32941.58
811.20	32618.00
811.38	32589.33
811.56	32622.09
811.74	33252.87
811.92	32396.82
812.10	32464.40
812.28	32646.67
812.46	32562.70
812.64	32380.43
812.82	32523.79
813.00	32269.84
813.18	32362.00
813.36	31989.27
813.53	32325.14
813.71	32036.38
813.89	31718.94
814.07	32179.73
814.25	32087.57
814.43	31483.42
814.61	31669.79
814.79	31796.76
814.97	31555.10
815.15	31573.53
815.33	31430.18
815.50	31129.12
815.68	31663.64
815.86	31589.92
816.04	31116.84
816.22	31133.22
816.40	31452.70
816.58	30975.53
816.76	30811.69
816.94	30967.34
817.11	31200.80
817.29	31034.92
817.47	30686.76
817.65	30461.49
817.83	30643.76
818.01	30297.65
818.19	30553.65
818.37	30713.39
818.54	30314.03
818.72	30342.70
818.90	30443.06
819.08	30381.62
819.26	30443.06
819.44	29963.83
819.62	29959.73
819.80	30129.72
819.97	30144.05
820.15	29980.21
820.33	29894.20
820.51	30211.64
820.69	29627.96
820.87	29769.27
821.05	29982.26
821.22	29668.92
821.40	29726.27
821.58	29374.02
821.76	29290.05
821.94	29257.28
822.12	29394.50
822.29	29423.17
822.47	29210.18
822.65	29230.66
822.83	29292.10
823.01	29171.27
823.19	28769.86
823.36	29015.62
823.54	29052.48
823.72	28927.56
823.90	28489.29
824.08	28393.04
824.25	28872.26
824.43	28622.41
824.61	28526.16
824.79	28692.04
824.97	28221.01
825.15	28907.08
825.32	28841.54
825.50	28257.87
825.68	28626.51
825.86	28440.14
826.04	28343.89
826.21	28302.93
826.39	28497.49
826.57	28167.76
826.75	28116.56
826.93	27997.78
827.10	27899.48
827.28	28128.85
827.46	28292.69
827.64	28114.52
827.81	27747.93
827.99	28008.02
828.17	27639.39
828.35	27833.94
828.53	27829.85
828.70	27676.25
828.88	27502.17
829.06	27688.54
829.24	27627.10
829.41	27620.95
829.59	27696.73
829.77	27407.97
829.95	27401.82
830.12	27336.29
830.30	27268.70
830.48	27459.16
830.66	27356.77
830.84	27027.04
831.01	27100.77
831.19	26932.84
831.37	27049.57
831.55	27098.72
831.72	26914.41
831.90	26904.17
832.08	26945.12
832.25	26801.77
832.43	26953.32
832.61	26613.35
832.79	26502.76
832.96	26619.50
833.14	26848.87
833.32	26560.11
833.50	26574.44
833.67	26619.50
833.85	26326.64
834.03	26168.94
834.20	26316.40
834.38	26801.77
834.56	26635.88
834.74	26087.03
834.91	26336.88
835.09	26236.53
835.27	25955.96
835.44	25988.72
835.62	25773.69
835.80	25992.82
835.98	25998.96
836.15	26001.01
836.33	25880.18
836.51	25947.76
836.68	25443.96
836.86	25497.21
837.04	25763.45
837.21	25560.70
837.39	25661.05
837.57	25738.87
837.75	25642.62
837.92	25523.83
838.10	25382.52
838.28	25060.99
838.45	25558.65
838.63	25259.65
838.81	25669.24
838.98	25536.12
839.16	24911.49
839.34	25202.30
839.51	24993.41
839.69	24917.64
839.87	25034.37
840.04	24866.44
840.22	25208.45
840.40	24950.40
840.57	24827.53
840.75	25005.70
840.93	24686.22
841.10	24620.68
841.28	25187.97
841.46	24755.85
841.63	24934.02
841.81	24673.93
841.98	24964.74
842.16	24635.02
842.34	24753.80
842.51	24477.32
842.69	24733.32
842.87	24467.08
843.04	24731.27
843.22	24413.84
843.40	24512.14
843.57	24137.36
843.75	24411.79
843.92	24555.15
844.10	24346.25
844.28	24129.17
844.45	24333.96
844.63	24229.52
844.81	24020.63
844.98	24313.48
845.16	24034.96
845.33	24223.37
845.51	23830.16
845.69	23864.98
845.86	23928.47
846.04	23832.21
846.21	23799.44
846.39	23606.94
846.57	23842.45
846.74	23797.40
846.92	23594.65
847.09	23725.72
847.27	23518.87
847.45	23400.09
847.62	23819.92
847.80	23608.98
847.97	23408.28
848.15	23406.23
848.32	23107.23
848.50	23312.03
848.68	22951.59
848.85	23176.86
849.03	22920.87
849.20	23269.02
849.38	23207.58
849.56	23094.94
849.73	23058.08
849.91	23281.31
850.08	23266.97
850.26	22609.58
850.43	22873.76
850.61	22754.98
850.78	22707.88
850.96	22939.30
851.14	22990.50
851.31	23043.74
851.49	22609.58
851.66	22765.22
851.84	22654.63
852.01	22894.24
852.19	22671.01
852.36	22668.97
852.54	22777.51
852.71	22582.95
852.89	22806.18
853.07	22970.02
853.24	22634.15
853.42	22716.07
853.59	22152.88
853.77	22570.66
853.94	22718.12
854.12	22965.92
854.29	22152.88
854.47	22548.14
854.64	22120.11
854.82	22361.77
854.99	22384.30
855.17	22599.34
855.34	22224.56
855.52	22341.29
855.69	22505.13
855.87	22333.10
856.04	22159.02
856.22	22214.32
856.39	21692.08
856.57	22124.21
856.74	22156.97
856.92	22101.68
857.09	22019.76
857.27	22013.62
857.44	22013.62
857.62	22089.39
857.79	22068.91
857.97	21962.42
858.14	21884.59
858.32	21761.72
858.49	21737.14
858.67	21780.15
858.84	21470.90
859.02	21853.87
859.19	21405.37
859.37	21597.88
859.54	21423.80
859.72	21796.53
859.89	21649.08
860.06	21567.16
860.24	21323.45
860.41	21522.10
860.59	21360.31
860.76	21370.55
860.94	21098.17
861.11	21231.29
861.29	21415.61
861.46	21372.60
861.64	20999.87
861.81	21483.19
861.98	21200.57
862.16	21262.01
862.33	21055.17
862.51	20956.86
862.68	21073.60
862.86	21075.65
863.03	20997.82
863.21	20874.95
863.38	21006.02
863.55	20702.92
863.73	21055.17
863.90	20885.19
864.08	20983.49
864.25	20655.81
864.43	20641.48
864.60	20606.66
864.77	20721.35
864.95	20889.28
865.12	20670.15
865.30	20657.86
865.47	20520.65
865.64	20643.52
865.82	20688.58
865.99	20455.11
866.17	20526.79
866.34	20729.54
866.51	20219.60
866.69	20625.09
866.86	20416.20
867.04	20264.65
867.21	20258.51
867.38	20231.88
867.56	20418.25
867.73	20225.74
867.91	20254.41
868.08	20244.17
868.25	19990.22
868.43	20313.80
868.60	20156.11
868.78	20178.64
868.95	20205.26
869.12	20117.20
869.30	20094.67
869.47	20319.95
869.64	19750.61
869.82	20115.15
869.99	19744.47
870.16	20014.80
870.34	19855.06
870.51	20035.28
870.69	19697.36
870.86	19527.38
871.03	19795.67
871.21	19748.56
871.38	19750.61
871.55	19551.96
871.73	19517.14
871.90	19371.74
872.07	19693.27
872.25	19179.23
872.42	19379.93
872.59	19338.97
872.77	19160.80
872.94	19601.11
873.11	19267.29
873.29	19422.94
873.46	19218.14
873.63	19187.42
873.81	19265.24
873.98	19099.36
874.15	19119.84
874.33	19128.03
874.50	18867.94
874.67	19017.44
874.85	19048.16
875.02	18728.67
875.19	18826.98
875.37	18671.33
875.54	18624.23
875.71	18958.05
875.88	18642.66
876.06	18728.67
876.23	18781.92
876.40	18376.42
876.58	18810.59
876.75	18474.73
876.92	18482.92
877.10	18568.93
877.27	18501.35
877.44	18429.67
877.61	18314.98
877.79	18360.04
877.96	18163.43
878.13	18355.94
878.31	18284.26
878.48	18228.97
878.65	18214.63
878.82	18075.37
879.00	18362.09
879.17	17932.01
879.34	18063.08
879.51	17786.61
879.69	17942.25
879.86	17708.79
880.03	17880.82
880.21	17729.27
880.38	17809.14
880.55	17821.42
880.72	17637.11
880.90	17780.46
881.07	17639.15
881.24	17794.80
881.41	17694.45
881.59	17528.56
881.76	17628.92
881.93	17665.78
882.10	17520.37
882.28	17262.33
882.45	17671.92
882.62	17360.63
882.79	17499.89
882.96	17522.42
883.14	17444.60
883.31	17577.72
883.48	17362.68
883.65	17551.09
883.83	17518.32
884.00	17348.34
884.17	17559.28
884.34	17518.32
884.51	17452.79
884.69	17659.63
884.86	17612.53
885.03	17323.77
885.20	17006.33
885.38	17149.69
885.55	17247.99
885.72	17247.99
885.89	17065.72
886.06	17458.93
886.24	17217.27
886.41	17288.95
886.58	17327.86
886.75	17299.19
886.92	16946.94
887.10	17088.25
887.27	17012.48
887.44	16957.18
887.61	16930.56
887.78	17096.44
887.95	17008.38
888.13	16832.26
888.30	16615.17
888.47	16895.74
888.64	16946.94
888.81	16781.06
888.99	16912.13
889.16	16629.51
889.33	16662.27
889.50	16727.81
889.67	16725.76
889.84	16449.28
890.01	16770.82
890.19	16828.16
890.36	16695.04
890.53	16467.72
890.70	16371.46
890.87	16445.19
891.04	16189.19
891.22	16023.31
891.39	16174.86
891.56	16238.34
891.73	16328.45
891.90	16131.85
892.07	15982.35
892.24	16076.55
892.42	16156.43
892.59	16027.40
892.76	15986.44
892.93	16111.37
893.10	16310.02
893.27	16334.60
893.44	15994.64
893.61	15861.52
893.79	16191.24
893.96	15832.85
894.13	15927.05
894.30	15890.19
894.47	15744.78
894.64	16078.60
894.81	15957.77
894.98	16066.31
895.15	16127.75
895.33	15838.99
895.50	16006.92
895.67	15773.46
895.84	15867.66
896.01	15681.30
896.18	15998.73
896.35	16013.07
896.52	15947.53
896.69	15810.32
896.86	15830.80
897.04	15920.91
897.21	15687.44
897.38	15798.03
897.55	15802.13
897.72	16041.74
897.89	15691.54
898.06	16035.60
898.23	15908.62
898.40	15943.44
898.57	15810.32
898.74	15699.73
898.91	15693.58
899.08	15949.58
899.26	15630.10
899.43	15851.28
899.60	15587.09
899.77	15939.34
899.94	15658.77
900.11	15363.86
900.28	15644.43
900.45	16002.83
900.62	15693.58
900.79	15752.98
900.96	15546.13
901.13	15685.39
901.30	15677.20
901.47	15562.51
901.64	15832.85
901.81	15795.98
901.98	15691.54
902.15	15675.15
902.32	15515.41
902.49	15648.53
902.66	15662.86
902.83	15664.91
903.01	15466.26
903.18	15580.95
903.35	15847.18
903.52	15656.72
903.69	15556.37
903.86	15830.80
904.03	15617.81
904.20	15820.56
904.37	15576.85
904.54	15779.60
904.71	15529.75
904.88	15728.40
905.05	15378.20
905.22	15578.90
905.39	15525.65
905.56	15427.35
905.73	15445.78
905.90	15488.79
906.07	15580.95
906.24	15613.71
906.41	15531.80
906.58	15548.18
906.75	15693.58
906.92	15623.95
907.09	15650.58
907.26	15496.98
907.43	15410.96
907.60	15456.02
907.77	15709.97
907.93	15367.96
908.10	15591.19
908.27	15662.86
908.44	15431.44
908.61	15365.91
908.78	15617.81
908.95	15343.38
909.12	15142.68
909.29	15333.14
909.46	15388.44
909.63	15451.92
909.80	15576.85
909.97	15327.00
910.14	15415.06
910.31	15271.70
910.48	15363.86
910.65	15386.39
910.82	15312.66
910.99	15015.71
911.16	15240.98
911.33	15290.13
911.50	15195.93
911.66	15322.90
911.83	15154.97
912.00	15210.26
912.17	14976.80
912.34	15245.08
912.51	14864.16
912.68	14952.22
912.85	15128.35
913.02	15126.30
913.19	14747.42
913.36	14780.19
913.53	15185.69
913.70	14898.97
913.86	14864.16
914.03	14722.85
914.20	14595.87
914.37	14821.15
914.54	14753.57
914.71	14827.29
914.88	14520.10
915.05	14747.42
915.22	14468.90
915.39	14556.96
915.55	14456.61
915.72	14755.61
915.89	14421.80
916.06	14298.92
916.23	14327.59
916.40	14331.69
916.57	14473.00
916.74	14292.77
916.91	14266.15
917.07	14214.95
917.24	14067.50
917.41	14135.08
917.58	14055.21
917.75	14069.55
917.92	14114.60
918.09	14092.07
918.26	14008.11
918.42	13831.98
918.59	13885.23
918.76	13795.12
918.93	13788.97
919.10	13782.83
919.27	13762.35
919.44	13762.35
919.60	13893.42
919.77	13625.14
919.94	13594.42
920.11	13662.00
920.28	13532.98
920.45	13332.28
920.61	13231.93
920.78	13449.01
920.95	13164.34
921.12	13274.93
921.29	13207.35
921.46	13258.55
921.62	12830.52
921.79	13102.90
921.96	13113.14
922.13	12982.07
922.30	12951.35
922.47	12877.63
922.63	12871.48
922.80	12724.03
922.97	12681.02
923.14	12531.52
923.31	12681.02
923.47	12787.52
923.64	12822.33
923.81	12461.89
923.98	12398.40
924.15	12445.51
924.32	12318.53
924.48	12332.87
924.65	12363.59
924.82	12298.05
924.99	12074.82
925.15	11966.28
925.32	12021.58
925.49	12021.58
925.66	12044.10
925.83	11618.13
925.99	11786.06
926.16	11886.41
926.33	11960.14
926.50	11734.86
926.67	11941.71
926.83	11759.44
927.00	11396.95
927.17	11573.07
927.34	11370.32
927.50	11517.78
927.67	11657.04
927.84	11470.67
928.01	11464.53
928.17	11464.53
928.34	11212.63
928.51	11243.35
928.68	10921.82
928.84	11050.84
929.01	11067.22
929.18	10860.38
929.35	11013.98
929.51	10944.34
929.68	10792.80
929.85	10710.88
930.02	10663.77
930.18	10663.77
930.35	10815.32
930.52	10542.94
930.69	10737.50
930.85	10731.36
931.02	10622.81
931.19	10504.03
931.36	10401.63
931.52	10362.72
931.69	10295.14
931.86	10354.53
932.02	10084.20
932.19	10252.13
932.36	10235.75
932.53	10293.09
932.69	9844.59
932.86	10125.16
933.03	9932.65
933.19	9934.70
933.36	9858.92
933.53	9940.84
933.70	9627.50
933.86	9559.92
934.03	9727.85
934.20	9494.38
934.36	9693.04
934.53	9334.64
934.70	9365.36
934.86	9142.13
935.03	9262.96
935.20	9191.28
935.36	9045.88
935.53	8986.49
935.70	9033.59
935.86	8902.52
936.03	8732.54
936.20	8761.21
936.36	8566.65
936.53	8458.11
936.70	8499.07
936.86	8710.01
937.03	8529.79
937.20	8165.25
937.36	8343.42
937.53	8112.00
937.70	7933.83
937.86	8009.61
938.03	8003.46
938.20	7946.12
938.36	7679.88
938.53	7753.61
938.70	7600.01
938.86	7587.72
939.03	7569.29
939.20	7401.36
939.36	7319.44
939.53	7182.23
939.70	7384.98
939.86	6981.53
940.03	6987.67
940.19	6838.17
940.36	6784.92
940.53	6786.97
940.69	6729.63
940.86	6614.94
941.03	6494.11
941.19	6385.57
941.36	6297.50
941.52	6377.37
941.69	6283.17
941.86	6139.81
942.02	6174.63
942.19	6102.95
942.35	6182.82
942.52	6059.94
942.69	5849.00
942.85	5873.57
943.02	5902.25
943.18	5846.95
943.35	5924.77
943.52	5793.70
943.68	5664.68
943.85	5642.15
944.01	5607.34
944.18	5656.49
944.35	5709.74
944.51	5547.95
944.68	5377.97
944.84	5441.45
945.01	5558.19
945.17	5537.71
945.34	5425.07
945.51	5414.83
945.67	5318.57
945.84	5244.85
946.00	5277.62
946.17	5302.19
946.33	5300.14
946.50	5384.11
946.67	5388.21
946.83	5285.81
947.00	5326.77
947.16	5302.19
947.33	5296.05
947.49	5355.44
947.66	5218.22
947.82	5181.36
947.99	5230.51
948.16	5330.86
948.32	5179.31
948.49	5205.94
948.65	5285.81
948.82	5216.18
948.98	5189.55
949.15	5181.36
949.31	5199.79
949.48	5328.81
949.64	5234.61
949.81	5095.35
949.97	5240.75
950.14	5269.42
950.30	5175.22
950.47	5537.71
950.63	5203.89
950.80	5265.33
950.96	5332.91
951.13	5197.74
951.30	5408.69
951.46	5250.99
951.63	5420.97
951.79	5355.44
951.96	5476.27
952.12	5322.67
952.29	5447.60
952.45	5201.84
952.62	5377.97
952.78	5425.07
952.94	5160.88
953.11	5351.34
953.27	5181.36
953.44	5490.60
953.60	5302.19
953.77	5408.69
953.93	5351.34
954.10	5334.96
954.26	5291.95
954.43	5394.35
954.59	5455.79
954.76	5631.91
954.92	5328.81
955.09	5404.59
955.25	5349.29
955.42	5334.96
955.58	5494.70
955.75	5455.79
955.91	5341.10
956.07	5410.73
956.24	5332.91
956.40	5459.88
956.57	5580.71
956.73	5492.65
956.90	5543.85
957.06	5394.35
957.23	5429.17
957.39	5384.11
957.56	5400.49
957.72	5367.73
957.88	5281.71
958.05	5597.10
958.21	5500.84
958.38	5558.19
958.54	5357.49
958.71	5648.30
958.87	5490.60
959.03	5427.12
959.20	5480.36
959.36	5310.38
959.53	5347.25
959.69	5261.23
959.85	5390.25
960.02	5291.95
960.18	5429.17
960.35	5267.38
960.51	5441.45
960.68	5431.21
960.84	5515.18
961.00	5330.86
961.17	5291.95
961.33	5416.88
961.50	5396.40
961.66	5392.30
961.82	5310.38
961.99	5394.35
962.15	5400.49
962.31	5337.01
962.48	5285.81
962.64	5459.88
962.81	5394.35
962.97	5447.60
963.13	5451.69
963.30	5375.92
963.46	5302.19
963.62	5420.97
963.79	5210.03
963.95	5400.49
964.12	5308.34
964.28	5357.49
964.44	5328.81
964.61	5279.66
964.77	5337.01
964.93	5382.06
965.10	5285.81
965.26	5287.86
965.42	5304.24
965.59	5220.27
965.75	5281.71
965.92	5201.84
966.08	5367.73
966.24	5283.76
966.41	5265.33
966.57	5320.62
966.73	5167.03
966.90	5371.82
967.06	5132.21
967.22	5156.79
967.39	5250.99
967.55	5279.66
967.71	5199.79
967.88	5144.50
968.04	5099.44
968.20	5238.70
968.37	5156.79
968.53	5087.15
968.69	5111.73
968.85	5246.90
969.02	5220.27
969.18	5117.87
969.34	5212.08
969.51	5089.20
969.67	5095.35
969.83	4984.76
970.00	5175.22
970.16	5089.20
970.32	5107.63
970.48	5169.07
970.65	4917.17
970.81	4941.75
970.97	5001.14
971.14	4857.78
971.30	5140.40
971.46	4896.69
971.63	4859.83
971.79	5013.43
971.95	5054.39
972.11	4833.21
972.28	4847.54
972.44	4976.56
972.60	4786.10
972.76	4906.93
972.93	4894.65
973.09	4865.97
973.25	4919.22
973.42	4839.35
973.58	4995.00
973.74	4908.98
973.90	4911.03
974.07	4712.38
974.23	4958.13
974.39	5021.62
974.55	4796.34
974.72	4706.23
974.88	4661.18
975.04	4900.79
975.20	4749.24
975.37	4876.21
975.53	4681.66
975.69	4773.82
975.85	4652.98
976.01	4626.36
976.18	4857.78
976.34	4702.14
976.50	4745.14
976.66	4579.26
976.83	4659.13
976.99	4614.07
977.15	4638.65
977.31	4509.63
977.47	4618.17
977.64	4599.74
977.80	4526.01
977.96	4716.47
978.12	4534.20
978.29	4542.39
978.45	4509.63
978.61	4552.63
978.77	4634.55
978.93	4597.69
979.10	4548.54
979.26	4591.55
979.42	4591.55
979.58	4382.65
979.74	4429.76
979.91	4562.87
980.07	4419.52
980.23	4429.76
980.39	4300.73
980.55	4583.35
980.71	4476.86
980.88	4315.07
981.04	4464.57
981.20	4425.66
981.36	4392.89
981.52	4401.08
981.68	4274.11
981.85	4450.24
982.01	4276.16
982.17	4255.68
982.33	4315.07
982.49	4347.84
982.65	4263.87
982.82	4429.76
982.98	4313.02
983.14	4196.29
983.30	4237.25
983.46	4263.87
983.62	4450.24
983.79	4116.42
983.95	4237.25
984.11	4138.94
984.27	4114.37
984.43	4280.25
984.59	4216.77
984.75	4276.16
984.91	4208.58
985.08	4241.34
985.24	4134.85
985.40	4038.59
985.56	4198.34
985.72	4157.38
985.88	4222.91
986.04	4165.57
986.20	4022.21
986.37	4198.34
986.53	4016.07
986.69	4116.42
986.85	4009.92
987.01	4075.46
987.17	4020.16
987.33	4022.21
987.49	3948.48
987.65	4009.92
987.82	3987.40
987.98	3895.24
988.14	4044.74
988.30	3938.24
988.46	4042.69
988.62	3985.35
988.78	3878.85
988.94	3925.96
989.10	3862.47
989.26	3903.43
989.42	3844.04
989.59	3848.13
989.75	3885.00
989.91	3827.65
990.07	3559.37
990.23	3872.71
990.39	3930.05
990.55	3844.04
990.71	3635.14
990.87	3721.16
991.03	3846.09
991.19	3735.50
991.35	3667.91
991.51	3729.35
991.67	3819.46
991.83	3811.27
992.00	3776.45
992.16	3749.83
992.32	3751.88
992.48	3669.96
992.64	3583.95
992.80	3768.26
992.96	3680.20
993.12	3602.38
993.28	3725.26
993.44	3641.29
993.60	3678.15
993.76	3745.73
993.92	3774.41
994.08	3616.71
994.24	3624.90
994.40	3520.46
994.56	3672.01
994.72	3497.93
994.88	3538.89
995.04	3485.64
995.20	3545.03
995.36	3540.94
995.52	3450.83
995.68	3585.99
995.84	3493.83
996.00	3547.08
996.16	3504.07
996.32	3493.83
996.48	3391.44
996.64	3557.32
996.80	3459.02
996.96	3465.16
997.12	3499.98
997.28	3334.09
997.44	3319.76
997.60	3559.37
997.76	3432.40
997.92	3319.76
998.08	3491.79
998.24	3389.39
998.40	3426.25
998.56	3409.87
998.72	3383.24
998.88	3295.18
999.04	3327.95
999.20	3434.44
999.36	3383.24
999.52	3428.30
999.68	3297.23
999.84	3393.48
1000.00	3284.94
1000.16	3358.67
1000.32	3215.31
1000.48	3418.06
1000.64	3272.65
1000.80	3184.59
1000.95	3125.20
1001.11	3260.37
1001.27	3186.64
1001.43	3280.85
1001.59	3135.44
1001.75	3096.53
1001.91	3211.22
1002.07	3022.80
1002.23	3166.16
1002.39	3182.54
1002.55	3172.30
1002.71	3100.62
1002.87	3129.30
1003.03	3039.19
1003.19	3131.34
1003.34	3160.02
1003.50	3151.82
1003.66	3147.73
1003.82	2975.70
1003.98	3188.69
1004.14	3069.91
1004.30	3061.71
1004.46	2979.79
1004.62	2973.65
1004.78	2983.89
1004.94	3035.09
1005.09	3084.24
1005.25	3067.86
1005.41	2924.50
1005.57	3022.80
1005.73	2977.75
1005.89	2920.40
1006.05	3014.61
1006.21	2924.50
1006.37	2967.51
1006.52	2916.31
1006.68	2899.92
1006.84	3006.42
1007.00	2901.97
1007.16	3026.90
1007.32	2826.20
1007.48	2947.03
1007.64	2904.02
1007.79	2871.25
1007.95	2854.87
1008.11	2973.65
1008.27	2830.29
1008.43	2932.69
1008.59	2889.68
1008.75	2891.73
1008.91	2938.84
1009.06	2846.68
1009.22	2809.81
1009.38	2885.59
1009.54	2861.01
1009.70	2801.62
1009.86	2758.61
1010.01	2818.00
1010.17	2740.18
1010.33	2904.02
1010.49	2785.24
1010.65	2820.05
1010.81	2707.41
1010.96	2779.09
1011.12	2672.60
1011.28	2697.17
1011.44	2807.77
1011.60	2736.09
1011.76	2703.32
1011.91	2795.48
1012.07	2787.29
1012.23	2602.97
1012.39	2629.59
1012.55	2734.04
1012.71	2734.04
1012.86	2545.63
1013.02	2684.89
1013.18	2637.78
1013.34	2660.31
1013.50	2609.11
1013.65	2711.51
1013.81	2645.98
1013.97	2572.25
1014.13	2617.30
1014.29	2549.72
1014.44	2627.54
1014.60	2574.30
1014.76	2654.17
1014.92	2525.15
1015.07	2582.49
1015.23	2568.15
1015.39	2510.81
1015.55	2545.63
1015.71	2541.53
1015.86	2566.10
1016.02	2510.81
1016.18	2482.14
1016.34	2570.20
1016.49	2475.99
1016.65	2543.58
1016.81	2473.95
1016.97	2465.75
1017.12	2549.72
1017.28	2422.75
1017.44	2486.23
1017.60	2414.56
1017.75	2455.51
1017.91	2498.52
1018.07	2404.32
1018.23	2435.03
1018.38	2451.42
1018.54	2441.18
1018.70	2469.85
1018.86	2357.21
1019.01	2320.35
1019.17	2412.51
1019.33	2527.19
1019.49	2306.01
1019.64	2392.03
1019.80	2383.84
1019.96	2494.43
1020.12	2387.93
1020.27	2445.27
1020.43	2359.26
1020.59	2351.07
1020.74	2490.33
1020.90	2447.32
1021.06	2334.68
1021.22	2306.01
1021.37	2461.66
1021.53	2371.55
1021.69	2465.75
1021.84	2258.91
1022.00	2342.88
1022.16	2248.67
1022.31	2234.33
1022.47	2334.68
1022.63	2416.60
1022.79	2185.18
1022.94	2287.58
1023.10	2359.26
1023.26	2316.25
1023.41	2332.64
1023.57	2281.44
1023.73	2289.63
1023.88	2314.20
1024.04	2144.22
1024.20	2199.52
1024.35	2293.72
1024.51	2224.09
1024.67	2252.77
1024.82	2256.86
1024.98	2195.42
1025.14	2191.33
1025.29	2211.81
1025.45	2338.78
1025.61	2187.23
1025.76	2181.09
1025.92	2258.91
1026.08	2267.10
1026.23	2250.72
1026.39	2191.33
1026.55	2252.77
1026.70	2115.55
1026.86	2140.13
1027.02	2271.20
1027.17	2215.90
1027.33	2254.81
1027.48	2199.52
1027.64	2150.37
1027.80	2146.27
1027.95	2152.42
1028.11	1990.63
1028.27	2150.37
1028.42	2197.47
1028.58	2140.13
1028.73	2113.50
1028.89	2007.01
1029.05	2238.43
1029.20	2088.93
>>>>>End Processed Spectral Data<<<<<
