SpectraSuite Data File
++++++++++++++++++++++++++++++++++++
Date: Fri Jun 02 14:44:38 CEST 2017
User: INFO_000
Dark Spectrum Present: No
Reference Spectrum Present: No
Number of Sampled Component Spectra: 1
Spectrometers: USB4H00879
Integration Time (usec): 80000 (USB4H00879)
Spectra Averaged: 1 (USB4H00879)
Boxcar Smoothing: 0 (USB4H00879)
Correct for Electrical Dark: No (USB4H00879)
Strobe/Lamp Enabled: No (USB4H00879)
Correct for Detector Non-linearity: No (USB4H00879)
Correct for Stray Light: No (USB4H00879)
Number of Pixels in Processed Spectrum: 3648
>>>>>Begin Processed Spectral Data<<<<<
345.13	1300.46
345.34	1300.46
345.56	1300.46
345.78	1255.40
345.99	1269.74
346.21	1703.91
346.42	1751.01
346.64	1652.71
346.86	1853.41
347.07	1669.09
347.29	1781.73
347.50	1624.04
347.72	1708.01
347.94	1699.81
348.15	1576.94
348.37	1560.55
348.59	1667.05
348.80	1615.85
349.02	1816.55
349.23	1863.65
349.45	1796.07
349.67	1839.08
349.88	1822.69
350.10	1920.99
350.31	1882.08
350.53	1787.88
350.75	1980.39
350.96	1781.73
351.18	1855.46
351.39	1834.98
351.61	1839.08
351.82	1910.75
352.04	1904.61
352.26	1804.26
352.47	1873.89
352.69	1873.89
352.90	1755.11
353.12	1939.43
353.34	1896.42
353.55	1925.09
353.77	1884.13
353.98	1880.04
354.20	1908.71
354.41	2035.68
354.63	1865.70
354.85	1994.72
355.06	1941.47
355.28	1787.88
355.49	1822.69
355.71	1916.90
355.92	1900.52
356.14	1918.95
356.35	1898.47
356.57	1843.17
356.79	1927.14
357.00	1869.80
357.22	1970.15
357.43	1882.08
357.65	1900.52
357.86	1802.21
358.08	1859.56
358.29	1918.95
358.51	1961.95
358.72	1945.57
358.94	1939.43
359.16	1902.56
359.37	1914.85
359.59	1935.33
359.80	1966.05
360.02	1920.99
360.23	1945.57
360.45	2093.02
360.66	1955.81
360.88	1918.95
361.09	1978.34
361.31	1978.34
361.52	1951.71
361.74	2007.01
361.95	2064.35
362.17	1951.71
362.38	2068.45
362.60	2027.49
362.81	2017.25
363.03	2017.25
363.24	2019.30
363.46	2033.63
363.67	1933.28
363.89	2007.01
364.10	1974.24
364.32	1972.19
364.53	2013.15
364.75	1814.50
364.96	2047.97
365.18	2037.73
365.39	2007.01
365.61	1984.48
365.82	2146.27
366.04	2009.06
366.25	1937.38
366.47	1982.43
366.68	2144.22
366.90	2002.91
367.11	2037.73
367.33	2093.02
367.54	2039.78
367.76	1974.24
367.97	2144.22
368.19	2062.30
368.40	2078.69
368.62	1980.39
368.83	1933.28
369.05	2019.30
369.26	1994.72
369.48	1978.34
369.69	2013.15
369.91	2035.68
370.12	1996.77
370.33	2045.92
370.55	1990.63
370.76	2119.65
370.98	2133.98
371.19	2027.49
371.41	1964.00
371.62	2099.17
371.84	1972.19
372.05	2205.66
372.27	2082.78
372.48	2086.88
372.69	2152.42
372.91	2115.55
373.12	2236.38
373.34	2119.65
373.55	2068.45
373.77	2146.27
373.98	2068.45
374.20	2228.19
374.41	2176.99
374.62	2191.33
374.84	2166.75
375.05	2224.09
375.27	2129.89
375.48	2185.18
375.70	2099.17
375.91	2289.63
376.12	2240.48
376.34	2220.00
376.55	2138.08
376.77	2154.46
376.98	2111.46
377.19	2154.46
377.41	2154.46
377.62	2176.99
377.84	2234.33
378.05	2336.73
378.27	2154.46
378.48	2322.40
378.69	2428.89
378.91	2279.39
379.12	2293.72
379.34	2164.70
379.55	2328.54
379.76	2330.59
379.98	2369.50
380.19	2191.33
380.41	2277.34
380.62	2236.38
380.83	2242.53
381.05	2187.23
381.26	2418.65
381.47	2256.86
381.69	2306.01
381.90	2322.40
382.12	2291.68
382.33	2312.16
382.54	2299.87
382.76	2353.12
382.97	2285.53
383.19	2258.91
383.40	2414.56
383.61	2250.72
383.83	2234.33
384.04	2244.57
384.25	2351.07
384.47	2369.50
384.68	2361.31
384.89	2447.32
385.11	2326.49
385.32	2291.68
385.54	2392.03
385.75	2318.30
385.96	2373.60
386.18	2365.40
386.39	2455.51
386.60	2336.73
386.82	2478.04
387.03	2410.46
387.24	2455.51
387.46	2478.04
387.67	2432.99
387.88	2525.15
388.10	2435.03
388.31	2437.08
388.52	2527.19
388.74	2537.43
388.95	2529.24
389.16	2482.14
389.38	2418.65
389.59	2570.20
389.80	2559.96
390.02	2584.54
390.23	2602.97
390.44	2492.38
390.66	2572.25
390.87	2525.15
391.08	2641.88
391.30	2748.37
391.51	2713.56
391.72	2764.76
391.94	2641.88
392.15	2629.59
392.36	2666.46
392.58	2576.34
392.79	2680.79
393.00	2736.09
393.22	2701.27
393.43	2750.42
393.64	2783.19
393.85	2797.53
394.07	2674.65
394.28	2721.75
394.49	2676.70
394.71	2752.47
394.92	2910.16
395.13	2756.57
395.35	2850.77
395.56	2787.29
395.77	2772.95
395.98	2797.53
396.20	2822.10
396.41	2775.00
396.62	2889.68
396.84	2787.29
397.05	2883.54
397.26	2922.45
397.47	2951.12
397.69	2910.16
397.90	3024.85
398.11	2881.49
398.32	2973.65
398.54	2856.92
398.75	2826.20
398.96	3049.43
399.18	2920.40
399.39	3037.14
399.60	3063.76
399.81	3037.14
400.03	2998.23
400.24	3276.75
400.45	2965.46
400.66	3065.81
400.88	2979.79
401.09	3196.88
401.30	3008.47
401.51	3125.20
401.73	3141.58
401.94	3004.37
402.15	3143.63
402.36	3203.02
402.58	3190.74
402.79	3162.06
403.00	3117.01
403.21	3192.78
403.43	3153.87
403.64	3313.61
403.85	3157.97
404.06	3194.83
404.27	3069.91
404.49	3223.50
404.70	3123.15
404.91	3344.33
405.12	3289.04
405.34	3203.02
405.55	3393.48
405.76	3155.92
405.97	3313.61
406.19	3444.68
406.40	3190.74
406.61	3346.38
406.82	3258.32
407.03	3305.42
407.25	3276.75
407.46	3379.15
407.67	3448.78
407.88	3477.45
408.09	3264.46
408.31	3370.96
408.52	3459.02
408.73	3352.52
408.94	3401.68
409.15	3510.22
409.37	3485.64
409.58	3661.77
409.79	3526.60
410.00	3598.28
410.21	3542.99
410.43	3436.49
410.64	3387.34
410.85	3463.12
411.06	3579.85
411.27	3624.90
411.48	3626.95
411.70	3594.19
411.91	3579.85
412.12	3811.27
412.33	3682.25
412.54	3688.39
412.76	3674.06
412.97	3608.52
413.18	3559.37
413.39	3661.77
413.60	3651.53
413.81	3766.21
414.03	3715.02
414.24	3643.34
414.45	3878.85
414.66	3624.90
414.87	3803.08
415.08	3743.69
415.30	3856.33
415.51	3753.93
415.72	3827.65
415.93	3815.37
416.14	3831.75
416.35	3878.85
416.56	3731.40
416.78	3942.34
416.99	3891.14
417.20	3915.72
417.41	3993.54
417.62	3958.72
417.83	4022.21
418.04	3909.57
418.26	3930.05
418.47	3895.24
418.68	4169.66
418.89	3991.49
419.10	4059.07
419.31	3971.01
419.52	4165.57
419.73	3936.20
419.95	4151.23
420.16	4087.75
420.37	4118.47
420.58	4050.88
420.79	4020.16
421.00	4122.56
421.21	4220.86
421.42	4034.50
421.63	4188.10
421.85	4192.19
422.06	4167.62
422.27	4245.44
422.48	4247.49
422.69	4251.58
422.90	4272.06
423.11	4233.15
423.32	4284.35
423.53	4456.38
423.75	4364.22
423.96	4616.12
424.17	4319.17
424.38	4591.55
424.59	4464.57
424.80	4728.76
425.01	4483.00
425.22	4491.20
425.43	4519.87
425.64	4624.31
425.85	4691.90
426.06	4575.16
426.28	4618.17
426.49	4505.53
426.70	4513.72
426.91	4622.27
427.12	4685.75
427.33	4622.27
427.54	4644.79
427.75	4667.32
427.96	4882.36
428.17	4691.90
428.38	4845.49
428.59	4800.44
428.80	4775.86
429.01	4929.46
429.23	4796.34
429.44	4958.13
429.65	5001.14
429.86	5005.24
430.07	4878.26
430.28	4810.68
430.49	4933.56
430.70	5099.44
430.91	5113.78
431.12	4941.75
431.33	5097.39
431.54	5134.26
431.75	5095.35
431.96	5113.78
432.17	5138.35
432.38	5121.97
432.59	5375.92
432.80	5185.46
433.01	5257.14
433.22	5187.50
433.43	5179.31
433.64	5259.18
433.85	5287.86
434.06	5463.98
434.27	5228.46
434.49	5443.50
434.70	5375.92
434.91	5521.32
435.12	5453.74
435.33	5586.86
435.54	5367.73
435.75	5287.86
435.96	5316.53
436.17	5373.87
436.38	5556.14
436.59	5621.67
436.80	5633.96
437.01	5834.66
437.22	5787.56
437.43	5633.96
437.64	5404.59
437.85	5789.61
438.06	5873.57
438.27	5648.30
438.48	5767.08
438.69	5851.05
438.90	5715.88
439.11	5793.70
439.32	5951.40
439.53	5849.00
439.74	5844.90
439.95	5746.60
440.16	6021.03
440.37	6000.55
440.57	5844.90
440.78	5889.96
440.99	5998.50
441.20	5951.40
441.41	5910.44
441.62	6197.15
441.83	5957.54
442.04	6164.39
442.25	6057.89
442.46	6260.64
442.67	6231.97
442.88	6440.86
443.09	5982.12
443.30	6272.93
443.51	6377.37
443.72	6438.81
443.93	6125.47
444.14	6616.99
444.35	6326.18
444.56	6410.14
444.77	6461.34
444.98	6455.20
445.19	6469.53
445.40	6479.77
445.61	6471.58
445.81	6637.47
446.02	6594.46
446.23	6477.73
446.44	6389.66
446.65	6555.55
446.86	6504.35
447.07	6619.04
447.28	6965.14
447.49	6840.22
447.70	6590.36
447.91	6825.88
448.12	6700.95
448.33	6899.61
448.54	6934.42
448.74	6746.01
448.95	6932.37
449.16	6733.72
449.37	7149.46
449.58	6897.56
449.79	7114.64
450.00	6889.37
450.21	7012.24
450.42	7358.35
450.63	7163.79
450.84	7034.77
451.05	7190.42
451.25	7120.79
451.46	7126.93
451.67	7217.04
451.88	7417.74
452.09	7384.98
452.30	7370.64
452.51	7231.38
452.72	7487.37
452.93	7704.46
453.13	7311.25
453.34	7280.53
453.55	7405.46
453.76	7481.23
453.97	7837.58
454.18	7511.95
454.39	7675.79
454.60	7503.76
454.81	7661.45
455.01	7755.66
455.22	7442.32
455.43	7769.99
455.64	7788.43
455.85	8105.86
456.06	8320.90
456.27	8028.04
456.48	7810.95
456.68	7999.37
456.89	8157.06
457.10	7866.25
457.31	8128.39
457.52	8132.48
457.73	8236.93
457.94	8359.81
458.14	8109.96
458.35	8421.25
458.56	8279.94
458.77	8120.20
458.98	8347.52
459.19	8120.20
459.39	8411.01
459.60	8451.97
459.81	8466.30
460.02	8802.17
460.23	8482.69
460.44	8685.44
460.65	8830.84
460.85	8836.99
461.06	8740.73
461.27	8519.55
461.48	8923.00
461.69	8941.43
461.89	8595.32
462.10	8904.57
462.31	8900.47
462.52	8740.73
462.73	8994.68
462.94	9105.27
463.14	9148.28
463.35	8988.53
463.56	9447.28
463.77	9381.74
463.98	9086.84
464.18	9277.30
464.39	9607.02
464.60	9500.53
464.81	9555.82
465.02	9490.29
465.23	9713.52
465.43	9658.22
465.64	9951.08
465.85	9525.10
466.06	9826.15
466.27	9899.88
466.47	9897.83
466.68	9975.66
466.89	10000.23
467.10	10207.08
467.30	9883.50
467.51	10137.45
467.72	10440.54
467.93	9959.27
468.14	10172.26
468.34	10422.11
468.55	10563.42
468.76	10592.09
468.97	10282.85
469.17	10790.75
469.38	10829.66
469.59	10790.75
469.80	10555.23
470.01	10717.02
470.21	10887.00
470.42	11030.36
470.63	11269.97
470.84	10954.58
471.04	11198.29
471.25	11292.50
471.46	11204.44
471.67	11489.10
471.87	11382.61
472.08	11634.51
472.29	11953.99
472.50	11470.67
472.70	11657.04
472.91	11884.36
473.12	12017.48
473.33	12142.41
473.53	12183.37
473.74	12095.30
473.95	12390.21
474.16	12547.90
474.36	12244.81
474.57	12592.96
474.78	12693.31
474.99	12799.80
475.19	12543.81
475.40	12947.26
475.61	12908.35
475.81	13129.53
476.02	13412.15
476.23	12971.83
476.44	13328.18
476.64	13492.02
476.85	13895.47
477.06	13418.29
477.27	13834.03
477.47	13614.90
477.68	13942.57
477.89	13897.52
478.09	13989.67
478.30	14124.84
478.51	14282.53
478.71	14509.86
478.92	14493.47
479.13	14692.13
479.34	14827.29
479.54	14829.34
479.75	14808.86
479.96	15152.92
480.16	14941.98
480.37	15114.01
480.58	15316.76
480.78	15486.74
480.99	15507.22
481.20	15525.65
481.41	15808.27
481.61	15765.26
481.82	16183.05
482.03	15759.12
482.23	15972.11
482.44	16228.10
482.65	16348.93
482.85	16338.69
483.06	16514.82
483.27	16600.83
483.47	16525.06
483.68	16592.64
483.89	16883.45
484.09	16983.80
484.30	17059.58
484.51	17204.99
484.71	17377.01
484.92	17241.85
485.13	17340.15
485.33	17673.97
485.54	17153.79
485.75	17823.47
485.95	17784.56
486.16	17710.83
486.37	18056.94
486.57	18130.67
486.78	18118.38
486.98	18271.98
487.19	18247.40
487.40	18374.38
487.60	18540.26
487.81	18689.76
488.02	18388.71
488.22	18855.65
488.43	18511.59
488.64	18872.03
488.84	19136.22
489.05	19189.47
489.25	19361.50
489.46	19283.67
489.67	19410.65
489.87	19572.44
490.08	19298.01
490.29	19701.46
490.49	19889.87
490.70	19953.36
490.90	19924.69
491.11	19934.93
491.32	20098.77
491.52	20217.55
491.73	20252.36
491.94	20238.03
492.14	20147.92
492.35	20424.39
492.55	20633.29
492.76	20788.93
492.97	20790.98
493.17	20537.03
493.38	20784.83
493.58	21159.61
493.79	20946.62
494.00	20868.80
494.20	21053.12
494.41	21321.40
494.61	21176.00
494.82	21356.22
495.02	21141.18
495.23	21747.38
495.44	21704.37
495.64	21569.21
495.85	21575.35
496.05	21642.93
496.26	21589.69
496.47	21964.46
496.67	21817.01
496.88	22185.65
497.08	21771.96
497.29	22183.60
497.49	22455.98
497.70	22251.18
497.91	22519.46
498.11	22339.24
498.32	22711.97
498.52	22574.76
498.73	22943.39
498.93	22904.48
499.14	22832.80
499.34	23160.48
499.55	23185.05
499.76	22871.72
499.96	23146.14
500.17	23099.04
500.37	23357.08
500.58	23320.22
500.78	23443.10
500.99	23500.44
501.19	23824.02
501.40	23643.80
501.60	23430.81
501.81	23500.44
502.02	23766.68
502.22	23682.71
502.43	23803.54
502.63	23826.07
502.84	24039.06
503.04	24075.92
503.25	23785.11
503.45	24129.17
503.66	24202.89
503.86	24194.70
504.07	24395.40
504.27	24211.09
504.48	24655.50
504.68	24503.95
504.89	24718.98
505.09	24884.87
505.30	24807.05
505.50	24811.14
505.71	24848.00
505.91	25052.80
506.12	25048.71
506.32	25173.63
506.53	25179.78
506.73	25228.93
506.94	25282.17
507.14	24856.20
507.35	25597.56
507.55	25515.64
507.76	25550.46
507.96	25452.16
508.17	25577.08
508.37	25599.61
508.58	25759.35
508.78	25749.11
508.99	26027.63
509.19	26168.94
509.40	26054.26
509.60	26056.31
509.81	26340.97
510.01	26082.93
510.22	25982.58
510.42	26105.46
510.63	25955.96
510.83	26244.72
511.04	26277.49
511.24	26541.68
511.44	26254.96
511.65	26707.56
511.85	26566.25
512.06	26930.79
512.26	26676.84
512.47	26965.60
512.67	27106.91
512.88	27057.76
513.08	26789.48
513.29	27111.01
513.49	26990.18
513.69	26977.89
513.90	27197.02
514.10	27743.83
514.31	27473.50
514.51	27629.15
514.72	27770.46
514.92	27410.01
515.13	27573.85
515.33	27752.02
515.53	27465.31
515.74	27856.47
515.94	28077.65
516.15	28063.32
516.35	27776.60
516.56	27954.77
516.76	28130.90
516.96	28192.34
517.17	28345.94
517.37	28454.48
517.58	28294.74
517.78	28581.45
517.99	28730.95
518.19	28718.67
518.39	28917.32
518.60	29195.84
518.80	29081.16
519.01	29304.38
519.21	29310.53
519.41	29130.31
519.62	29322.82
519.82	29185.60
520.03	29361.73
520.23	29587.00
520.43	29427.26
520.64	29912.63
520.84	30008.89
521.05	29840.95
521.25	30336.56
521.45	30185.01
521.66	30400.05
521.86	30301.75
522.07	30598.70
522.27	30385.71
522.47	30516.78
522.68	30924.33
522.88	30621.23
523.08	30828.07
523.29	30850.60
523.49	30901.80
523.70	30953.00
523.90	31213.09
524.10	31288.87
524.31	31616.54
524.51	31325.73
524.71	31614.49
524.92	31503.90
525.12	31798.81
525.33	31577.63
525.53	31710.75
525.73	31942.17
525.94	31899.16
526.14	31923.74
526.34	32024.09
526.55	32228.88
526.75	32003.61
526.95	32577.04
527.16	32278.04
527.36	32491.02
527.56	32661.01
527.77	33052.17
527.97	32884.23
528.17	32708.11
528.38	32888.33
528.58	33072.65
528.78	33232.39
528.99	33027.59
529.19	33310.21
529.39	33695.23
529.60	33674.75
529.80	33472.00
530.00	33590.78
530.21	33293.83
530.41	33922.55
530.61	33725.95
530.82	33961.47
531.02	33916.41
531.22	34084.34
531.43	34342.39
531.63	34287.09
531.83	34737.65
532.04	34694.64
532.24	34551.28
532.44	34780.65
532.64	35085.80
532.85	35249.64
533.05	35059.18
533.25	34706.93
533.46	34950.63
533.66	35102.18
533.86	35497.44
534.07	35663.33
534.27	35040.75
534.47	35669.47
534.67	35636.70
534.88	35368.42
535.08	35773.92
535.28	35669.47
535.49	35937.76
535.69	36183.51
535.89	35814.88
536.09	36175.32
536.30	36232.66
536.50	36533.71
536.70	36333.01
536.91	36175.32
537.11	36396.50
537.31	36683.22
537.51	36845.01
537.72	37053.90
537.92	36877.77
538.12	36924.88
538.32	37209.54
538.53	37281.22
538.73	36922.83
538.93	36978.12
539.13	36888.01
539.34	37205.45
539.54	37150.15
539.74	37377.48
539.94	37217.74
540.15	37369.29
540.35	37770.69
540.55	37608.90
540.75	37471.68
540.96	37797.31
541.16	37860.80
541.36	37871.04
541.56	37795.26
541.77	38241.72
541.97	38153.66
542.17	38065.60
542.37	38362.55
542.58	38423.99
542.78	38055.36
542.98	38163.90
543.18	38047.16
543.38	39157.16
543.59	38811.06
543.79	38575.54
543.99	38735.28
544.19	38774.19
544.40	38739.38
544.60	39155.11
544.80	38819.25
545.00	39212.46
545.20	38915.50
545.41	38733.23
545.61	39368.10
545.81	39040.43
546.01	39175.59
546.21	39335.34
546.42	39304.62
546.62	39273.90
546.82	39339.43
547.02	39108.01
547.22	39249.32
547.43	39282.09
547.63	39810.46
547.83	39720.35
548.03	39413.16
548.23	39884.19
548.44	39955.87
548.64	39724.45
548.84	40220.06
549.04	39787.94
549.24	40201.63
549.45	40566.16
549.65	40091.04
549.85	40187.29
550.05	40062.36
550.25	40080.80
550.45	40746.39
550.66	40435.10
550.86	40371.61
551.06	40420.76
551.26	40469.91
551.46	40441.24
551.66	40342.94
551.87	40461.72
552.07	40693.14
552.27	40828.30
552.47	40934.80
552.67	40809.87
552.87	40607.12
553.07	40945.04
553.28	41026.96
553.48	41262.47
553.68	41129.36
553.88	41178.51
554.08	41108.88
554.28	41088.40
554.48	41110.92
554.69	41500.04
554.89	41547.14
555.09	41477.51
555.29	41420.17
555.49	41659.78
555.69	41272.71
555.89	41465.22
556.10	41915.78
556.30	41514.37
556.50	42229.12
556.70	41497.99
556.90	42169.72
557.10	42188.16
557.30	41874.82
557.50	42319.23
557.70	42306.94
557.91	42270.08
558.11	42347.90
558.31	42349.95
558.51	42161.53
558.71	42478.97
558.91	42632.57
559.11	42274.17
559.31	42491.26
559.51	42427.77
559.72	42876.27
559.92	42927.47
560.12	42466.68
560.32	43169.13
560.52	42691.96
560.72	42943.86
560.92	43101.55
561.12	43101.55
561.32	43382.12
561.52	42868.08
561.72	43627.88
561.93	43261.29
562.13	43402.60
562.33	42868.08
562.53	43865.44
562.73	43697.51
562.93	43347.31
563.13	43666.79
563.33	43728.23
563.53	43738.47
563.73	43269.48
563.93	43611.49
564.13	44184.93
564.33	44043.62
564.53	44154.21
564.74	43922.79
564.94	43947.36
565.14	44152.16
565.34	43984.22
565.54	44346.72
565.74	44531.03
565.94	44963.15
566.14	44553.56
566.34	44438.87
566.54	45282.64
566.74	44565.85
566.94	44623.19
567.14	44682.58
567.34	44295.52
567.54	45016.40
567.74	44535.13
567.94	44615.00
568.14	44727.64
568.34	45497.67
568.54	45104.46
568.74	45016.40
568.94	45049.17
569.14	45702.47
569.34	45327.69
569.54	45464.91
569.75	45335.88
569.95	45530.44
570.15	45845.83
570.35	45786.44
570.55	45528.39
570.75	45512.01
570.95	45528.39
571.15	45663.56
571.35	45856.07
571.55	46116.16
571.75	46062.91
571.95	46482.75
572.15	46101.82
572.35	46316.86
572.55	46331.20
572.75	46241.09
572.95	46261.57
573.15	46171.46
573.35	46347.58
573.55	46411.07
573.75	46597.43
573.95	47064.37
574.15	46333.24
574.35	46714.17
574.55	46757.17
574.75	46744.89
574.95	46777.65
575.15	46953.78
575.34	46849.33
575.54	47314.22
575.74	47279.41
575.94	47093.04
576.14	46798.13
576.34	47424.81
576.54	47426.86
576.74	47265.07
576.94	47037.75
577.14	47349.04
577.34	47711.53
577.54	47330.61
577.74	47912.23
577.94	47652.14
578.14	47881.51
578.34	48153.89
578.54	47119.66
578.74	47830.31
578.94	47754.54
579.14	47789.35
579.34	47707.43
579.54	48002.34
579.74	48356.64
579.94	48051.49
580.13	48112.93
580.33	48297.25
580.53	48407.84
580.73	48284.96
580.93	48424.22
581.13	48401.69
581.33	48792.86
581.53	48760.09
581.73	48780.57
581.93	48805.14
582.13	48477.47
582.33	48606.49
582.53	48919.83
582.73	48731.42
582.92	48682.27
583.12	48895.25
583.32	48645.40
583.52	48381.21
583.72	49214.74
583.92	48850.20
584.12	48973.08
584.32	49270.03
584.52	48954.64
584.72	48866.58
584.92	49298.70
585.11	49861.90
585.31	49382.67
585.51	49597.71
585.71	49237.26
585.91	49808.65
586.11	49325.33
586.31	49354.00
586.51	49354.00
586.71	49462.54
586.91	49546.51
587.10	49976.58
587.30	49335.57
587.50	49362.19
587.70	49812.74
587.90	50056.45
588.10	49976.58
588.30	50046.21
588.50	50179.33
588.69	50072.84
588.89	50105.60
589.09	49995.01
589.29	49909.00
589.49	50099.46
589.69	49710.35
589.89	50382.08
590.08	50177.28
590.28	50453.76
590.48	50324.74
590.68	49995.01
590.88	50214.15
591.08	50685.18
591.28	50025.73
591.47	50359.55
591.67	50390.27
591.87	49990.92
592.07	50623.74
592.27	50334.98
592.47	49960.20
592.67	50734.33
592.86	50042.12
593.06	50509.05
593.26	50750.71
593.46	50713.85
593.66	50423.04
593.86	50812.15
594.05	50167.04
594.25	51141.88
594.45	50386.18
594.65	50617.60
594.85	50803.96
595.05	51090.68
595.24	50433.28
595.44	50623.74
595.64	50930.93
595.84	50662.65
596.04	50869.50
596.23	51365.10
596.43	51160.31
596.63	50853.11
596.83	50846.97
597.03	51131.64
597.22	51041.53
597.42	51287.28
597.62	51172.60
597.82	51123.44
598.02	51178.74
598.21	51856.62
598.41	50967.80
598.61	51391.73
598.81	51307.76
599.01	51535.09
599.20	51395.82
599.40	51148.02
599.60	51528.94
599.80	51672.30
600.00	51416.30
600.19	51369.20
600.39	51436.78
600.59	51600.62
600.79	51770.60
600.98	51367.15
601.18	51641.58
601.38	51795.18
601.58	51993.83
601.78	52088.04
601.97	51897.58
602.17	52303.07
602.37	52065.51
602.57	51893.48
602.76	51911.91
602.96	51551.47
603.16	52557.02
603.36	52038.89
603.55	52587.74
603.75	52122.85
603.95	52354.27
604.15	52202.72
604.34	52430.05
604.54	52466.91
604.74	52516.06
604.94	52770.01
605.13	52763.87
605.33	52704.48
605.53	52610.27
605.73	52727.00
605.92	52602.08
606.12	52737.24
606.32	53195.99
606.52	52526.30
606.71	52737.24
606.91	53150.93
607.11	52626.65
607.30	53056.73
607.50	53163.22
607.70	52999.38
607.90	52950.23
608.09	53148.88
608.29	53218.52
608.49	53257.43
608.68	53341.39
608.88	53044.44
609.08	53531.86
609.28	53517.52
609.47	53265.62
609.67	53859.53
609.87	53767.37
610.06	53396.69
610.26	53974.22
610.46	53480.66
610.66	53560.53
610.85	53419.22
611.05	53800.14
611.25	53634.25
611.44	54156.49
611.64	53699.79
611.84	53204.18
612.03	53660.88
612.23	53789.90
612.43	54097.09
612.62	53820.62
612.82	53781.71
613.02	53630.16
613.21	54232.26
613.41	53609.68
613.61	54369.47
613.80	53794.00
614.00	54322.37
614.20	53875.91
614.39	54062.28
614.59	53941.45
614.79	54201.54
614.98	54125.77
615.18	54019.27
615.38	54219.97
615.57	54170.82
615.77	54478.02
615.97	54897.85
616.16	54308.04
616.36	54287.56
616.56	54414.53
616.75	54334.66
616.95	54367.43
617.15	54203.59
617.34	54217.92
617.54	54680.77
617.74	54371.52
617.93	54846.65
618.13	53908.68
618.32	54271.17
618.52	54052.04
618.72	54154.44
618.91	54813.88
619.11	54686.91
619.31	54385.86
619.50	54746.30
619.70	54174.92
619.90	54777.02
620.09	53955.78
620.29	54820.03
620.48	54760.64
620.68	54670.53
620.88	54416.58
621.07	54406.34
621.27	54922.43
621.46	54596.80
621.66	54736.06
621.86	54473.92
622.05	55108.79
622.25	55051.45
622.44	54445.25
622.64	54729.92
622.84	55301.30
623.03	54758.59
623.23	54842.56
623.42	55274.68
623.62	55391.41
623.82	55231.67
624.01	55624.88
624.21	55428.27
624.40	54871.23
624.60	54826.17
624.80	55049.40
624.99	55598.26
625.19	54873.27
625.38	55305.40
625.58	55409.84
625.77	55184.57
625.97	55426.23
626.17	54863.03
626.36	55182.52
626.56	55442.61
626.75	54838.46
626.95	55424.18
627.14	55248.05
627.34	55719.09
627.54	55125.17
627.73	55657.65
627.93	55293.11
628.12	54908.09
628.32	55514.29
628.51	55016.63
628.71	55739.57
628.90	55168.18
629.10	55407.79
629.30	55653.55
629.49	55913.64
629.69	55270.58
629.88	55854.25
630.08	56112.30
630.27	56079.53
630.47	55833.77
630.66	55585.97
630.86	56040.62
631.05	55764.14
631.25	55915.69
631.44	55970.99
631.64	56177.83
631.84	55821.48
632.03	56530.08
632.23	55796.91
632.42	56790.17
632.62	55975.08
632.81	55827.63
633.01	56022.19
633.20	56632.48
633.40	56595.62
633.59	55960.75
633.79	56097.96
633.98	56112.30
634.18	56376.48
634.37	56269.99
634.57	56378.53
634.76	56771.74
634.96	56452.26
635.15	56390.82
635.35	56003.75
635.54	55915.69
635.74	56278.18
635.93	56548.51
636.13	56695.97
636.32	56566.94
636.52	56140.97
636.71	56392.87
636.91	56538.27
637.10	56153.26
637.30	56196.26
637.49	56575.14
637.69	56556.70
637.88	57035.93
638.08	56140.97
638.27	56745.12
638.46	56423.59
638.66	56822.94
638.85	56829.08
639.05	56685.73
639.24	57345.17
639.44	56937.63
639.63	56954.01
639.83	57009.31
640.02	57050.27
640.22	56751.26
640.41	56921.24
640.61	56542.37
640.80	56853.66
640.99	56442.02
641.19	57320.60
641.38	56951.96
641.58	56636.58
641.77	57199.77
641.97	56933.53
642.16	56579.23
642.36	57117.85
642.55	57349.27
642.74	56214.69
642.94	56861.85
643.13	56974.49
643.33	56947.87
643.52	57285.78
643.72	57433.24
643.91	57054.36
644.10	57390.23
644.30	57123.99
644.49	57586.83
644.69	57420.95
644.88	57222.29
645.08	56884.38
645.27	56939.68
645.46	57083.03
645.66	57693.33
645.85	56837.28
646.05	57625.74
646.24	57167.00
646.43	57205.91
646.63	57635.98
646.82	57171.10
647.02	57042.07
647.21	57633.94
647.40	57152.66
647.60	57717.90
647.79	57140.38
647.99	57281.69
648.18	57355.41
648.37	57568.40
648.57	57711.76
648.76	57427.09
648.96	57154.71
649.15	57580.69
649.34	57777.29
649.54	57228.44
649.73	57447.57
649.92	57660.56
650.12	57332.89
650.31	57486.48
650.51	57443.48
650.70	57611.41
650.89	57095.32
651.09	58111.11
651.28	57431.19
651.47	57224.34
651.67	57224.34
651.86	57894.03
652.06	56802.46
652.25	57367.70
652.44	57511.06
652.64	56982.68
652.83	57068.70
653.02	57052.31
653.22	57336.98
653.41	57365.65
653.60	57134.23
653.80	57386.13
653.99	57132.18
654.18	57087.13
654.38	57203.86
654.57	57121.94
654.76	56829.08
654.96	57070.75
655.15	57037.98
655.34	57220.25
655.54	56738.97
655.73	57416.85
655.92	57179.29
656.12	57218.20
656.31	57066.65
656.50	57003.16
656.70	57072.79
656.89	56927.39
657.08	57089.18
657.28	56738.97
657.47	57101.46
657.66	57257.11
657.86	56997.02
658.05	56865.95
658.24	57048.22
658.43	57066.65
658.63	57029.79
658.82	57509.01
659.01	57240.73
659.21	57093.27
659.40	56851.61
659.59	57058.46
659.79	57126.04
659.98	56450.21
660.17	57017.50
660.36	56865.95
660.56	56798.37
660.75	57113.75
660.94	56775.84
661.14	57029.79
661.33	56495.27
661.52	56757.41
661.71	57097.37
661.91	56898.72
662.10	56308.90
662.29	57371.80
662.49	56978.59
662.68	56894.62
662.87	56792.22
663.06	56540.32
663.26	56882.33
663.45	56966.30
663.64	56851.61
663.83	56681.63
664.03	57248.92
664.22	56681.63
664.41	56728.73
664.60	56509.60
664.80	56278.18
664.99	56511.65
665.18	56401.06
665.37	56556.70
665.57	57181.34
665.76	56272.04
665.95	56284.33
666.14	56351.91
666.34	56380.58
666.53	56566.94
666.72	56659.10
666.91	56294.56
667.11	56540.32
667.30	56878.24
667.49	56894.62
667.68	56302.76
667.87	56087.72
668.07	56460.45
668.26	56321.19
668.45	56179.88
668.64	56233.13
668.84	56698.01
669.03	56374.44
669.22	56327.33
669.41	55848.11
669.60	56407.20
669.80	56218.79
669.99	56259.75
670.18	56022.19
670.37	56046.76
670.57	56151.21
670.76	56327.33
670.95	56255.65
671.14	56032.42
671.33	55925.93
671.53	56294.56
671.72	56089.77
671.91	56050.86
672.10	55739.57
672.29	56038.57
672.48	55927.98
672.68	56534.18
672.87	55870.64
673.06	55760.05
673.25	55975.08
673.44	56054.95
673.64	55907.50
673.83	55917.74
674.02	55952.55
674.21	55612.59
674.40	55735.47
674.59	55344.31
674.79	55729.33
674.98	55641.26
675.17	56153.26
675.36	55598.26
675.55	56263.85
675.74	55538.86
675.94	55809.20
676.13	55942.31
676.32	56112.30
676.51	56073.38
676.70	55991.47
676.89	55545.01
677.08	55930.03
677.28	55872.68
677.47	55801.00
677.66	55911.59
677.85	56050.86
678.04	56073.38
678.23	55727.28
678.42	55661.74
678.62	55850.16
678.81	55858.35
679.00	55551.15
679.19	56433.83
679.38	55610.54
679.57	55401.65
679.76	55944.36
679.96	56304.80
680.15	55674.03
680.34	55655.60
680.53	55571.63
680.72	55698.61
680.91	55905.45
681.10	55729.33
681.29	56034.47
681.48	55714.99
681.68	55329.97
681.87	55604.40
682.06	55821.48
682.25	55364.79
682.44	55465.14
682.63	55798.96
682.82	55612.59
683.01	55286.96
683.20	55153.85
683.39	55508.14
683.59	54901.95
683.78	54998.20
683.97	55303.35
684.16	55452.85
684.35	55006.39
684.54	55104.70
684.73	55162.04
684.92	55346.36
685.11	54928.57
685.30	55211.19
685.49	55571.63
685.69	55278.77
685.88	55186.61
686.07	55112.89
686.26	55497.91
686.45	55524.53
686.64	55188.66
686.83	55350.45
687.02	55522.48
687.21	55600.30
687.40	55551.15
687.59	55456.95
687.78	55108.79
687.97	55504.05
688.16	55016.63
688.35	55073.98
688.54	55235.77
688.74	55321.78
688.93	55170.23
689.12	55227.57
689.31	55311.54
689.50	54998.20
689.69	54785.21
689.88	55286.96
690.07	55366.84
690.26	54881.47
690.45	55563.44
690.64	55039.16
690.83	54717.63
691.02	54817.98
691.21	54858.94
691.40	55059.64
691.59	55465.14
691.78	54916.28
691.97	55489.71
692.16	54992.06
692.35	55035.06
692.54	55100.60
692.73	54887.61
692.92	54936.76
693.11	55497.91
693.30	54994.10
693.49	55104.70
693.68	55100.60
693.87	54951.10
694.06	54809.79
694.25	54951.10
694.44	55039.16
694.63	54961.34
694.82	55270.58
695.01	54969.53
695.20	54852.80
695.39	55012.54
695.58	55221.43
695.77	54856.89
695.96	54707.39
696.15	54924.47
696.34	54916.28
696.53	54916.28
696.72	55047.35
696.91	54770.88
697.10	54768.83
697.29	55258.29
697.48	54998.20
697.67	54355.14
697.86	54721.72
698.05	54666.43
698.24	55270.58
698.43	54516.93
698.62	54764.73
698.81	54725.82
699.00	54824.12
699.19	54500.54
699.38	54731.96
699.57	54545.60
699.76	55133.37
699.95	54490.30
700.14	54668.48
700.32	54252.74
700.51	54772.92
700.70	55022.78
700.89	54813.88
701.08	54265.03
701.27	54494.40
701.46	54662.33
701.65	54127.81
701.84	54795.45
702.03	54478.02
702.22	54502.59
702.41	54318.28
702.60	54535.36
702.79	54576.32
702.98	54217.92
703.17	54330.56
703.35	54695.10
703.54	53961.93
703.73	55096.50
703.92	54721.72
704.11	54224.07
704.30	54168.77
704.49	54219.97
704.68	54475.97
704.87	54078.66
705.06	54248.64
705.25	53933.26
705.43	54435.01
705.62	54447.30
705.81	54471.87
706.00	54336.71
706.19	54064.33
706.38	54269.12
706.57	54260.93
706.76	54262.98
706.95	54242.50
707.14	53671.12
707.32	53601.49
707.51	53855.43
707.70	54148.29
707.89	54033.61
708.08	54170.82
708.27	53777.61
708.46	54400.19
708.65	53630.16
708.84	54711.49
709.02	54250.69
709.21	54531.26
709.40	53720.27
709.59	54021.32
709.78	54203.59
709.97	54011.08
710.16	53736.65
710.34	54136.01
710.53	53984.46
710.72	53558.48
710.91	54015.18
711.10	53497.04
711.29	54144.20
711.48	53810.38
711.66	53466.32
711.85	53081.30
712.04	53748.94
712.23	53834.95
712.42	53585.10
712.61	53529.81
712.80	53738.70
712.98	53548.24
713.17	53421.26
713.36	53677.26
713.55	53355.73
713.74	53501.14
713.93	53224.66
714.11	53277.91
714.30	53189.84
714.49	53302.48
714.68	53163.22
714.87	53425.36
715.06	53576.91
715.24	53163.22
715.43	53122.26
715.62	52851.93
715.81	52679.90
716.00	53165.27
716.18	52892.89
716.37	52933.85
716.56	53040.34
716.75	52999.38
716.94	52819.16
717.12	52645.08
717.31	53036.25
717.50	52653.28
717.69	52665.56
717.88	52860.12
718.06	52659.42
718.25	53220.56
718.44	52778.20
718.63	52368.61
718.82	52409.57
719.00	52552.93
719.19	52393.18
719.38	52337.89
719.57	51807.47
719.76	51819.75
719.94	51733.74
720.13	51899.62
720.32	51977.45
720.51	52180.20
720.69	51733.74
720.88	51870.95
721.07	52245.73
721.26	51541.23
721.44	51399.92
721.63	51664.11
721.82	51279.09
722.01	51451.12
722.20	51305.71
722.38	51164.40
722.57	50597.12
722.76	51234.03
722.95	51029.24
723.13	50754.81
723.32	51010.81
723.51	50609.40
723.70	50767.10
723.88	50611.45
724.07	50466.05
724.26	50590.97
724.44	50093.32
724.63	50730.23
724.82	50353.41
725.01	50756.86
725.19	50349.31
725.38	50369.79
725.57	50593.02
725.76	50255.11
725.94	49861.90
726.13	50455.81
726.32	50220.29
726.51	50072.84
726.69	50382.08
726.88	50005.25
727.07	49927.43
727.25	50193.67
727.44	50173.19
727.63	50050.31
727.82	50263.30
728.00	50066.69
728.19	50281.73
728.38	49642.76
728.56	50003.20
728.75	49927.43
728.94	49661.19
729.12	49790.22
729.31	49904.90
729.50	49638.67
729.69	49556.75
729.87	49546.51
730.06	49714.44
730.25	49386.77
730.43	50119.94
730.62	49261.84
730.81	49847.56
730.99	49804.55
731.18	49249.55
731.37	49505.55
731.55	50040.07
731.74	50099.46
731.93	49816.84
732.11	49452.30
732.30	49863.94
732.49	49503.50
732.67	49585.42
732.86	49118.48
733.05	49374.48
733.23	49313.04
733.42	49448.21
733.61	48981.27
733.79	49122.58
733.98	49816.84
734.17	49124.63
734.35	49208.59
734.54	48968.98
734.73	49431.82
734.91	48962.84
735.10	48944.41
735.29	48762.14
735.47	48706.84
735.66	49136.91
735.84	48993.56
736.03	48555.29
736.22	48684.31
736.40	48672.03
736.59	48567.58
736.78	48772.38
736.96	48303.39
737.15	48567.58
737.33	48491.80
737.52	48786.71
737.71	48489.76
737.89	48280.86
738.08	48262.43
738.27	48172.32
738.45	48784.66
738.64	48323.87
738.82	47983.91
739.01	48155.94
739.20	48137.51
739.38	47955.24
739.57	48205.09
739.75	48071.97
739.94	47709.48
740.13	48289.06
740.31	47514.92
740.50	47703.34
740.68	47553.83
740.87	48045.35
741.06	47949.09
741.24	47545.64
741.43	47404.33
741.61	47138.10
741.80	47418.67
741.99	47666.47
742.17	47314.22
742.36	47420.72
742.54	47527.21
742.73	47093.04
742.91	47748.39
743.10	47301.93
743.29	47510.83
743.47	47594.79
743.66	47609.13
743.84	47433.00
744.03	47074.61
744.21	46695.74
744.40	47275.31
744.59	47052.08
744.77	47007.03
744.96	46771.51
745.14	47099.19
745.33	46804.28
745.51	46392.64
745.70	46765.37
745.88	46507.32
746.07	46748.98
746.26	46478.65
746.44	46591.29
746.63	46308.67
746.81	46771.51
747.00	46257.47
747.18	46497.08
747.37	46257.47
747.55	46417.21
747.74	46392.64
747.92	45944.13
748.11	46167.36
748.29	46114.11
748.48	46212.41
748.66	45456.71
748.85	46001.47
749.03	46261.57
749.22	45796.68
749.41	45628.74
749.59	45890.88
749.78	46046.53
749.96	45944.13
750.15	45958.47
750.33	45718.85
750.52	45821.25
750.70	45501.77
750.89	45428.04
751.07	45184.33
751.26	45243.73
751.44	45077.84
751.63	45471.05
751.81	45294.92
752.00	44688.73
752.18	44967.25
752.37	45274.45
752.55	44598.62
752.74	44772.69
752.92	44539.22
753.10	44930.39
753.29	45198.67
753.47	44823.89
753.66	44619.10
753.84	44926.29
754.03	44868.95
754.21	44430.68
754.40	44557.66
754.58	44860.76
754.77	44621.14
754.95	44383.58
755.14	44578.14
755.32	44191.07
755.51	44418.39
755.69	44350.81
755.88	44348.76
756.06	44393.82
756.24	44322.14
756.43	44332.38
756.61	44236.12
756.80	43873.63
756.98	43779.43
757.17	43636.07
757.35	43595.11
757.54	43539.82
757.72	43834.72
757.90	43638.12
758.09	43386.22
758.27	43664.74
758.46	43570.54
758.64	43437.42
758.83	43853.15
759.01	43638.12
759.19	43447.66
759.38	43660.65
759.56	43660.65
759.75	43277.68
759.93	43416.94
760.12	43332.97
760.30	43115.89
760.48	43216.24
760.67	43488.62
760.85	42945.90
761.04	43423.08
761.22	42968.43
761.40	43279.72
761.59	43115.89
761.77	42884.47
761.96	42909.04
762.14	43111.79
762.32	42929.52
762.51	42415.48
762.69	42597.75
762.88	43087.21
763.06	42734.96
763.24	42904.95
763.43	42884.47
763.61	42294.65
763.80	42179.96
763.98	42442.10
764.16	42397.05
764.35	42292.60
764.53	42007.94
764.72	42067.33
764.90	42329.47
765.08	42179.96
765.27	42407.29
765.45	41764.23
765.63	41477.51
765.82	42003.84
766.00	41643.40
766.18	41848.19
766.37	41809.28
766.55	41667.97
766.74	41366.92
766.92	41405.83
767.10	41809.28
767.29	41803.14
767.47	41289.10
767.65	41928.06
767.84	41129.36
768.02	41524.61
768.20	41407.88
768.39	41526.66
768.57	41055.63
768.75	41538.95
768.94	41403.78
769.12	41268.62
769.30	40869.26
769.49	41534.85
769.67	40994.19
769.85	40924.56
770.04	41170.32
770.22	41053.58
770.40	40543.64
770.59	40498.58
770.77	41096.59
770.95	40899.98
771.14	40467.86
771.32	40662.42
771.50	40289.69
771.69	40299.93
771.87	40910.22
772.05	40396.18
772.24	40269.21
772.42	40660.37
772.60	40363.42
772.78	40555.93
772.97	40009.12
773.15	40820.11
773.33	40170.91
773.52	40269.21
773.70	40340.89
773.88	40170.91
774.07	40168.86
774.25	39699.87
774.43	40379.80
774.61	40367.51
774.80	40517.01
774.98	40369.56
775.16	40154.52
775.34	40519.06
775.53	40113.56
775.71	40142.24
775.89	40211.87
776.08	40160.67
776.26	40637.84
776.44	40441.24
776.62	40050.08
776.81	39746.98
776.99	40086.94
777.17	40531.35
777.35	40424.86
777.54	40678.80
777.72	40318.36
777.90	40578.45
778.08	41053.58
778.27	40369.56
778.45	40770.96
778.63	41065.87
778.81	40543.64
779.00	40965.52
779.18	40785.30
779.36	40801.68
779.54	40633.75
779.73	40744.34
779.91	40744.34
780.09	41463.18
780.27	41094.54
780.46	40820.11
780.64	41452.94
780.82	40848.78
781.00	41088.40
781.19	41358.73
781.37	41434.50
781.55	41534.85
781.73	41883.01
781.91	41295.24
782.10	41581.96
782.28	41133.45
782.46	41041.29
782.64	41442.70
782.82	41209.23
783.01	41667.97
783.19	41641.35
783.37	41659.78
783.55	41489.80
783.74	41737.60
783.92	41321.87
784.10	41887.10
784.28	41702.79
784.46	41479.56
784.64	41524.61
784.83	41606.53
785.01	41837.95
785.19	41823.62
785.37	41946.50
785.55	41788.80
785.74	41201.04
785.92	41385.35
786.10	41465.22
786.28	41348.49
786.46	41297.29
786.64	41225.61
786.83	41680.26
787.01	41510.28
787.19	41504.13
787.37	41534.85
787.55	41465.22
787.74	41328.01
787.92	41551.24
788.10	41137.55
788.28	41037.20
788.46	41434.50
788.64	40801.68
788.82	41317.77
789.01	40652.18
789.19	41411.98
789.37	40838.54
789.55	40717.71
789.73	40553.88
789.91	40717.71
790.09	40869.26
790.28	40218.01
790.46	40736.15
790.64	40912.27
790.82	40777.11
791.00	40617.36
791.18	40502.68
791.36	40650.13
791.55	40154.52
791.73	40201.63
791.91	40162.72
792.09	40060.32
792.27	39982.49
792.45	40402.33
792.63	40183.19
792.81	39851.42
793.00	39982.49
793.18	40136.09
793.36	39796.13
793.54	40015.26
793.72	39347.62
793.90	39613.86
794.08	39452.07
794.26	39685.54
794.44	39024.04
794.62	38872.49
794.81	39316.90
794.99	39247.27
795.17	39189.93
795.35	39300.52
795.53	39249.32
795.71	38999.47
795.89	38843.82
796.07	38628.79
796.25	38983.09
796.43	38665.65
796.61	38438.33
796.80	38299.06
796.98	38331.83
797.16	38309.30
797.34	38264.25
797.52	38139.32
797.70	38354.36
797.88	38557.11
798.06	38106.55
798.24	37854.65
798.42	37797.31
798.60	38086.07
798.78	37686.72
798.96	37297.61
799.14	37258.70
799.32	37688.77
799.51	37506.50
799.69	37680.58
799.87	37240.26
800.05	37101.00
800.23	37336.52
800.41	36971.98
800.59	37225.93
800.77	36746.70
800.95	36275.67
801.13	36586.96
801.31	36638.16
801.49	36924.88
801.67	36740.56
801.85	36705.74
802.03	36320.73
802.21	36271.57
802.39	36169.18
802.57	36347.35
802.75	36027.87
802.93	36300.25
803.11	35872.22
803.29	35790.30
803.47	35821.02
803.65	36130.26
803.83	35880.41
804.01	35814.88
804.19	35341.80
804.37	35507.68
804.55	35476.96
804.73	35317.22
804.91	35562.98
805.09	35458.53
805.27	35235.30
805.45	35446.24
805.63	34964.97
805.81	35231.21
805.99	35462.63
806.17	35149.29
806.35	35139.05
806.53	34866.67
806.71	34864.62
806.89	34713.07
807.07	34856.43
807.25	34772.46
807.43	34479.60
807.61	34512.37
807.79	34516.47
807.97	34547.18
808.15	34379.25
808.33	34127.35
808.51	34055.67
808.69	34489.84
808.87	33979.90
809.05	33965.56
809.23	33869.31
809.41	33949.18
809.59	33603.07
809.77	33566.21
809.95	33390.08
810.13	33840.64
810.31	33799.68
810.49	33592.83
810.67	33293.83
810.84	33627.65
811.02	33136.13
811.20	33461.76
811.38	33297.92
811.56	33000.97
811.74	33129.99
811.92	32941.58
812.10	32902.67
812.28	32947.72
812.46	32962.06
812.64	32955.91
812.82	32695.82
813.00	33017.35
813.18	32771.60
813.36	32808.46
813.53	32515.60
813.71	32392.72
813.89	32435.73
814.07	32626.19
814.25	32558.61
814.43	32288.28
814.61	31929.88
814.79	31905.31
814.97	32114.20
815.15	32067.09
815.33	31878.68
815.50	31653.40
815.68	31878.68
815.86	31925.78
816.04	31731.23
816.22	31725.08
816.40	31571.49
816.58	31512.10
816.76	31258.15
816.94	31421.98
817.11	31661.60
817.29	31252.00
817.47	31100.45
817.65	30823.98
817.83	31313.44
818.01	31198.76
818.19	31010.34
818.37	30928.42
818.54	30570.03
818.72	30590.51
818.90	30975.53
819.08	31061.54
819.26	30674.48
819.44	30899.75
819.62	30596.65
819.80	30848.55
819.97	31022.63
820.15	30381.62
820.33	30391.86
820.51	30586.41
820.69	30352.94
820.87	30588.46
821.05	30785.07
821.22	30113.33
821.40	30115.38
821.58	30201.40
821.76	29748.79
821.94	29914.68
822.12	29937.21
822.29	29867.58
822.47	29576.76
822.65	30092.85
822.83	30105.14
823.01	29765.18
823.19	29814.33
823.36	29457.98
823.54	29578.81
823.72	29705.79
823.90	29521.47
824.08	29179.46
824.25	29226.56
824.43	29091.40
824.61	29185.60
824.79	29429.31
824.97	28847.69
825.15	29363.78
825.32	28997.19
825.50	29189.70
825.68	28839.50
825.86	29302.34
826.04	29177.41
826.21	28991.05
826.39	28587.60
826.57	28825.16
826.75	28755.53
826.93	28307.02
827.10	28556.88
827.28	28798.54
827.46	28653.13
827.64	28829.26
827.81	28733.00
827.99	28505.68
828.17	28427.85
828.35	28290.64
828.53	28061.27
828.70	28606.03
828.88	28114.52
829.06	28436.05
829.24	28085.84
829.41	28255.82
829.59	28153.43
829.77	27944.53
829.95	28208.72
830.12	28067.41
830.30	28157.52
830.48	28042.84
830.66	28022.36
830.84	27835.99
831.01	28012.12
831.19	27678.30
831.37	27889.24
831.55	27580.00
831.72	27731.54
831.90	27631.19
832.08	27416.16
832.25	27475.55
832.43	27565.66
832.61	27594.33
832.79	27121.25
832.96	27367.01
833.14	27121.25
833.32	27401.82
833.50	27295.33
833.67	27240.03
833.85	27022.95
834.03	27063.91
834.20	26908.26
834.38	27291.23
834.56	27227.74
834.74	26418.80
834.91	26785.38
835.09	26871.40
835.27	26674.79
835.44	26748.52
835.62	26418.80
835.80	26414.70
835.98	26525.29
836.15	26502.76
836.33	26812.01
836.51	26721.90
836.68	26304.11
836.86	26203.76
837.04	26312.30
837.21	26216.05
837.39	26562.15
837.57	26470.00
837.75	26412.65
837.92	26007.16
838.10	26242.67
838.28	25851.51
838.45	25833.08
838.63	26041.97
838.81	25947.76
838.98	25953.91
839.16	25654.90
839.34	25484.92
839.51	25659.00
839.69	25470.59
839.87	25407.10
840.04	25740.92
840.22	25867.89
840.40	25538.17
840.57	25278.08
840.75	25728.63
840.93	25220.74
841.10	25480.83
841.28	25833.08
841.46	25290.37
841.63	25534.07
841.81	25233.02
841.98	25046.66
842.16	25271.93
842.34	25144.96
842.51	24649.35
842.69	25151.10
842.87	25007.75
843.04	25382.52
843.22	24884.87
843.40	24776.33
843.57	24927.88
843.75	25071.23
843.92	25271.93
844.10	24663.69
844.28	24985.22
844.45	24802.95
844.63	24802.95
844.81	24567.43
844.98	24628.87
845.16	24645.26
845.33	24743.56
845.51	24419.98
845.69	24331.92
845.86	24180.37
846.04	24309.39
846.21	24426.12
846.39	24405.64
846.57	24481.42
846.74	24219.28
846.92	24252.05
847.09	24397.45
847.27	23950.99
847.45	23848.60
847.62	24213.13
847.80	24065.68
847.97	23987.86
848.15	23772.82
848.32	23555.74
848.50	23903.89
848.68	23768.73
848.85	23617.18
849.03	23561.88
849.20	23807.64
849.38	23574.17
849.56	23664.28
849.73	23557.78
849.91	23578.26
850.08	23604.89
850.26	23420.57
850.43	23496.35
850.61	23283.36
850.78	23258.78
850.96	23291.55
851.14	23428.76
851.31	23377.56
851.49	23127.71
851.66	23414.43
851.84	23226.01
852.01	23301.79
852.19	23166.62
852.36	23017.12
852.54	23189.15
852.71	23115.42
852.89	22863.52
853.07	22996.64
853.24	22787.75
853.42	22927.01
853.59	22625.96
853.77	23060.13
853.94	22697.64
854.12	22959.78
854.29	22816.42
854.47	22632.10
854.64	22281.90
854.82	22603.43
854.99	22431.40
855.17	22349.48
855.34	22394.54
855.52	22511.27
855.69	22714.02
855.87	22261.42
856.04	22181.55
856.22	22570.66
856.39	21991.09
856.57	22410.92
856.74	22050.48
856.92	22329.00
857.09	22236.84
857.27	22140.59
857.44	22156.97
857.62	21986.99
857.79	21909.17
857.97	22097.58
858.14	22030.00
858.32	21919.41
858.49	22124.21
858.67	21737.14
858.84	21665.46
859.02	21800.63
859.19	21552.82
859.37	21579.45
859.54	21778.10
859.72	21952.18
859.89	21716.66
860.06	21565.11
860.24	21728.95
860.41	21737.14
860.59	21348.03
860.76	21319.35
860.94	21264.06
861.11	21405.37
861.29	21413.56
861.46	21307.07
861.64	21161.66
861.81	21124.80
861.98	21204.67
862.16	20948.67
862.33	21057.21
862.51	20885.19
862.68	20903.62
862.86	20829.89
863.03	21231.29
863.21	21087.93
863.38	20963.01
863.55	20987.58
863.73	20926.14
863.90	20915.90
864.08	21073.60
864.25	20633.29
864.43	20653.76
864.60	20676.29
864.77	20428.49
864.95	20530.89
865.12	20248.27
865.30	20639.43
865.47	20438.73
865.64	20391.62
865.82	20778.69
865.99	20633.29
866.17	20305.61
866.34	20422.34
866.51	20412.10
866.69	20301.51
866.86	20258.51
867.04	20219.60
867.21	20203.21
867.38	20035.28
867.56	20254.41
867.73	20086.48
867.91	20086.48
868.08	20326.09
868.25	19810.00
868.43	19766.99
868.60	19631.83
868.78	19588.82
868.95	19871.44
869.12	19764.95
869.30	19480.28
869.47	19715.80
869.64	19615.44
869.82	19756.75
869.99	19451.61
870.16	19726.04
870.34	19414.74
870.51	19660.50
870.69	19347.16
870.86	19490.52
871.03	19275.48
871.21	19287.77
871.38	19408.60
871.55	19273.43
871.73	19326.68
871.90	19424.98
872.07	19263.19
872.25	18992.86
872.42	18937.57
872.59	19068.64
872.77	18867.94
872.94	18902.75
873.11	18728.67
873.29	19236.57
873.46	18861.79
873.63	18953.95
873.81	18941.66
873.98	18751.20
874.15	18861.79
874.33	18634.47
874.50	18521.83
874.67	18763.49
874.85	18501.35
875.02	18409.19
875.19	18296.55
875.37	18251.50
875.54	18331.37
875.71	18386.66
875.88	18142.96
876.06	18321.13
876.23	18056.94
876.40	17981.17
876.58	18235.11
876.75	17964.78
876.92	18038.51
877.10	18239.21
877.27	18024.17
877.44	17927.92
877.61	17764.08
877.79	17778.42
877.96	17569.52
878.13	17843.95
878.31	17684.21
878.48	17647.35
878.65	17567.48
878.82	17596.15
879.00	17630.96
879.17	17788.66
879.34	17577.72
879.51	17547.00
879.69	17301.24
879.86	17409.78
880.03	17413.88
880.21	17469.17
880.38	17354.49
880.55	17725.17
880.72	17090.30
880.90	17207.03
881.07	17305.34
881.24	17395.45
881.41	17413.88
881.59	17172.22
881.76	17143.55
881.93	17125.11
882.10	17157.88
882.28	16858.88
882.45	17104.64
882.62	16989.95
882.79	17155.83
882.96	16748.29
883.14	17045.24
883.31	17104.64
883.48	16754.43
883.65	16989.95
883.83	16846.59
884.00	17065.72
884.17	16822.02
884.34	17000.19
884.51	16830.21
884.69	16840.45
884.86	16692.99
885.03	16641.79
885.20	16494.34
885.38	16670.47
885.55	16688.90
885.72	16643.84
885.89	16611.07
886.06	16674.56
886.24	16533.25
886.41	16404.23
886.58	16707.33
886.75	16631.55
886.92	16389.89
887.10	16684.80
887.27	16381.70
887.44	16445.19
887.61	16656.13
887.78	16604.93
887.95	16234.25
888.13	16336.65
888.30	15933.20
888.47	16029.45
888.64	16267.02
888.81	16140.04
888.99	15875.85
889.16	16066.31
889.33	16033.55
889.50	15898.38
889.67	16209.67
889.84	15939.34
890.01	16076.55
890.19	15804.17
890.36	15927.05
890.53	15996.68
890.70	15746.83
890.87	15978.25
891.04	15920.91
891.22	15724.30
891.39	15894.29
891.56	15712.02
891.73	15601.43
891.90	15570.71
892.07	15578.90
892.24	15621.91
892.42	15593.23
892.59	15615.76
892.76	15535.89
892.93	15542.03
893.10	15654.67
893.27	15564.56
893.44	15372.05
893.61	15499.03
893.79	15560.47
893.96	15650.58
894.13	15449.88
894.30	15427.35
894.47	15511.32
894.64	15456.02
894.81	15277.85
894.98	15351.57
895.15	15363.86
895.33	15312.66
895.50	15558.42
895.67	15359.77
895.84	15316.76
896.01	15470.36
896.18	15288.09
896.35	15460.12
896.52	15458.07
896.69	15126.30
896.86	15130.39
897.04	15294.23
897.21	15361.81
897.38	15273.75
897.55	15443.73
897.72	15378.20
897.89	15253.27
898.06	15347.48
898.23	15339.29
898.40	15308.57
898.57	15185.69
898.74	15296.28
898.91	14978.84
899.08	15234.84
899.26	15077.15
899.43	15179.54
899.60	15189.78
899.77	15443.73
899.94	15101.72
900.11	15044.38
900.28	15144.73
900.45	15267.61
900.62	15279.89
900.79	15312.66
900.96	15576.85
901.13	15169.30
901.30	15171.35
901.47	15216.41
901.64	15226.65
901.81	15347.48
901.98	15408.92
902.15	15245.08
902.32	14991.13
902.49	15116.06
902.66	15267.61
902.83	15214.36
903.01	15142.68
903.18	15173.40
903.35	15292.18
903.52	15159.06
903.69	15167.26
903.86	15134.49
904.03	15165.21
904.20	15183.64
904.37	15152.92
904.54	14960.41
904.71	15335.19
904.88	15097.63
905.05	14972.70
905.22	15363.86
905.39	15023.90
905.56	15073.05
905.73	15040.28
905.90	15109.91
906.07	15025.95
906.24	15267.61
906.41	15273.75
906.58	15167.26
906.75	15083.29
906.92	14933.79
907.09	15025.95
907.26	15157.02
907.43	14933.79
907.60	14888.73
907.77	15290.13
907.93	15185.69
908.10	15212.31
908.27	15124.25
908.44	14714.66
908.61	14991.13
908.78	15015.71
908.95	15183.64
909.12	15208.22
909.29	14855.97
909.46	15189.78
909.63	15189.78
909.80	14851.87
909.97	15171.35
910.14	14962.46
910.31	15023.90
910.48	15023.90
910.65	14970.65
910.82	15138.58
910.99	14948.12
911.16	14571.30
911.33	14845.73
911.50	14829.34
911.66	14778.14
911.83	14720.80
912.00	15054.62
912.17	14819.10
912.34	14772.00
912.51	14675.74
912.68	14663.46
912.85	14630.69
913.02	14833.44
913.19	14634.78
913.36	14941.98
913.53	14839.58
913.70	14524.19
913.86	14696.22
914.03	14587.68
914.20	14516.00
914.37	14595.87
914.54	14493.47
914.71	14546.72
914.88	14356.26
915.05	14280.49
915.22	14200.62
915.39	14438.18
915.55	14298.92
915.72	14206.76
915.89	14315.30
916.06	14225.19
916.23	14049.07
916.40	14096.17
916.57	14122.79
916.74	14206.76
916.91	14120.74
917.07	14053.16
917.24	13860.65
917.41	14067.50
917.58	14075.69
917.75	13885.23
917.92	13721.39
918.09	13745.97
918.26	13815.60
918.42	13823.79
918.59	13788.97
918.76	13682.48
918.93	13569.84
919.10	13537.07
919.27	13772.59
919.44	13479.73
919.60	13721.39
919.77	13444.91
919.94	13428.53
920.11	13356.85
920.28	13401.91
920.45	13393.72
920.61	13348.66
920.78	13102.90
920.95	13446.96
921.12	13221.69
921.29	12949.31
921.46	13037.37
921.62	12949.31
921.79	12973.88
921.96	13125.43
922.13	13041.46
922.30	12758.85
922.47	12797.76
922.63	12773.18
922.80	12853.05
922.97	12447.55
923.14	12584.77
923.31	12748.61
923.47	12422.98
923.64	13027.13
923.81	12365.64
923.98	12506.95
924.15	12355.40
924.32	12511.04
924.48	12453.70
924.65	12554.05
924.82	12173.13
924.99	12117.83
925.15	11923.27
925.32	12353.35
925.49	12029.77
925.66	12103.50
925.83	11734.86
925.99	12013.38
926.16	11898.70
926.33	11984.71
926.50	11820.88
926.67	11814.73
926.83	11849.55
927.00	11857.74
927.17	11843.40
927.34	11544.40
927.50	11536.21
927.67	11872.07
927.84	11620.17
928.01	11501.39
928.17	11327.32
928.34	11681.61
928.51	11507.54
928.68	11138.90
928.84	11251.54
929.01	11052.89
929.18	10962.78
929.35	10880.86
929.51	11034.46
929.68	10819.42
929.85	10743.64
930.02	10809.18
930.18	10866.52
930.35	10714.97
930.52	10905.43
930.69	10755.93
930.85	10772.32
931.02	10602.33
931.19	10454.88
931.36	10411.87
931.52	10469.22
931.69	10508.13
931.86	10276.71
932.02	10432.35
932.19	10332.00
932.36	10377.06
932.53	10366.82
932.69	10125.16
932.86	10164.07
933.03	10192.74
933.19	10092.39
933.36	10129.25
933.53	9932.65
933.70	9824.11
933.86	9893.74
934.03	9822.06
934.20	9822.06
934.36	9826.15
934.53	9490.29
934.70	9490.29
934.86	9647.98
935.03	9316.21
935.20	9336.69
935.36	9164.66
935.53	9133.94
935.70	9174.90
935.86	9160.56
936.03	8920.95
936.20	8828.79
936.36	8976.25
936.53	8736.63
936.70	8662.91
936.86	8673.15
937.03	8615.80
937.20	8484.73
937.36	8714.11
937.53	8357.76
937.70	8411.01
937.86	8232.83
938.03	7970.69
938.20	8191.88
938.36	7829.38
938.53	7864.20
938.70	7655.31
938.86	7708.55
939.03	7567.24
939.20	7425.93
939.36	7446.41
939.53	7423.89
939.70	7563.15
939.86	7147.41
940.03	7079.83
940.19	6952.85
940.36	7045.01
940.53	7110.55
940.69	6848.41
940.86	6881.18
941.03	6668.19
941.19	6410.14
941.36	6641.56
941.52	6428.57
941.69	6537.12
941.86	6332.32
942.02	6322.08
942.19	6217.63
942.35	6332.32
942.52	6043.56
942.69	6000.55
942.85	5971.88
943.02	6049.70
943.18	6166.43
943.35	5826.47
943.52	5844.90
943.68	5953.45
943.85	5973.92
944.01	5808.04
944.18	5730.22
944.35	5711.78
944.51	5623.72
944.68	5685.16
944.84	5636.01
945.01	5539.76
945.17	5658.54
945.34	5627.82
945.51	5521.32
945.67	5619.63
945.84	5525.42
946.00	5472.17
946.17	5443.50
946.33	5298.10
946.50	5519.28
946.67	5521.32
946.83	5410.73
947.00	5521.32
947.16	5455.79
947.33	5494.70
947.49	5509.04
947.66	5396.40
947.82	5394.35
947.99	5334.96
948.16	5504.94
948.32	5347.25
948.49	5492.65
948.65	5531.56
948.82	5441.45
948.98	5500.84
949.15	5357.49
949.31	5506.99
949.48	5443.50
949.64	5337.01
949.81	5418.93
949.97	5414.83
950.14	5502.89
950.30	5418.93
950.47	5490.60
950.63	5539.76
950.80	5461.93
950.96	5392.30
951.13	5509.04
951.30	5488.56
951.46	5476.27
951.63	5679.02
951.79	5566.38
951.96	5511.08
952.12	5537.71
952.29	5590.95
952.45	5482.41
952.62	5533.61
952.78	5607.34
952.94	5576.62
953.11	5521.32
953.27	5447.60
953.44	5746.60
953.60	5615.53
953.77	5584.81
953.93	5576.62
954.10	5474.22
954.26	5492.65
954.43	5816.23
954.59	5613.48
954.76	5717.93
954.92	5584.81
955.09	5468.08
955.25	5623.72
955.42	5488.56
955.58	5652.39
955.75	5668.78
955.91	5502.89
956.07	5492.65
956.24	5556.14
956.40	5685.16
956.57	5756.84
956.73	5599.15
956.90	5728.17
957.06	5642.15
957.23	5525.42
957.39	5496.75
957.56	5779.37
957.72	5550.00
957.88	5582.76
958.05	5736.36
958.21	5588.91
958.38	5736.36
958.54	5578.67
958.71	5672.87
958.87	5805.99
959.03	5568.43
959.20	5648.30
959.36	5504.94
959.53	5562.28
959.69	5517.23
959.85	5701.54
960.02	5607.34
960.18	5638.06
960.35	5703.59
960.51	5746.60
960.68	5545.90
960.84	5476.27
961.00	5574.57
961.17	5590.95
961.33	5619.63
961.50	5564.33
961.66	5564.33
961.82	5466.03
961.99	5666.73
962.15	5654.44
962.31	5545.90
962.48	5644.20
962.64	5525.42
962.81	5470.12
962.97	5580.71
963.13	5607.34
963.30	5504.94
963.46	5578.67
963.62	5457.84
963.79	5529.52
963.95	5498.80
964.12	5441.45
964.28	5603.24
964.44	5506.99
964.61	5515.18
964.77	5351.34
964.93	5519.28
965.10	5517.23
965.26	5367.73
965.42	5414.83
965.59	5410.73
965.75	5550.00
965.92	5531.56
966.08	5523.37
966.24	5439.40
966.41	5367.73
966.57	5474.22
966.73	5517.23
966.90	5476.27
967.06	5447.60
967.22	5375.92
967.39	5416.88
967.55	5287.86
967.71	5330.86
967.88	5283.76
968.04	5361.58
968.20	5199.79
968.37	5302.19
968.53	5212.08
968.69	5218.22
968.85	5298.10
969.02	5318.57
969.18	5447.60
969.34	5199.79
969.51	5289.90
969.67	5361.58
969.83	5230.51
970.00	5343.15
970.16	5289.90
970.32	5214.13
970.48	5343.15
970.65	5207.98
970.81	5103.54
970.97	5238.70
971.14	5083.06
971.30	5291.95
971.46	5048.24
971.63	5107.63
971.79	5187.50
971.95	5261.23
972.11	5171.12
972.28	5175.22
972.44	5070.77
972.60	4990.90
972.76	4966.32
972.93	5029.81
973.09	5119.92
973.25	5093.30
973.42	4927.41
973.58	4923.32
973.74	5062.58
973.90	4976.56
974.07	4925.36
974.23	5076.91
974.39	5072.82
974.55	5019.57
974.72	4919.22
974.88	4845.49
975.04	4925.36
975.20	4736.95
975.37	4943.80
975.53	4999.09
975.69	4974.52
975.85	4886.45
976.01	4849.59
976.18	4898.74
976.34	4829.11
976.50	4812.73
976.66	4845.49
976.83	4814.77
976.99	4902.84
977.15	4876.21
977.31	4575.16
977.47	4845.49
977.64	4687.80
977.80	4825.01
977.96	4597.69
978.12	4753.34
978.29	4679.61
978.45	4626.36
978.61	4650.94
978.77	4722.62
978.93	4569.02
979.10	4556.73
979.26	4562.87
979.42	4671.42
979.58	4464.57
979.74	4562.87
979.91	4577.21
980.07	4628.41
980.23	4579.26
980.39	4425.66
980.55	4544.44
980.71	4427.71
980.88	4542.39
981.04	4554.68
981.20	4374.46
981.36	4480.96
981.52	4433.85
981.68	4388.80
981.85	4444.09
982.01	4431.80
982.17	4435.90
982.33	4302.78
982.49	4335.55
982.65	4372.41
982.82	4396.99
982.98	4472.76
983.14	4270.01
983.30	4403.13
983.46	4335.55
983.62	4386.75
983.79	4251.58
983.95	4167.62
984.11	4114.37
984.27	4345.79
984.43	4308.93
984.59	4222.91
984.75	4341.69
984.91	4331.45
985.08	4243.39
985.24	4179.90
985.40	4116.42
985.56	4212.67
985.72	4263.87
985.88	4300.73
986.04	4237.25
986.20	4073.41
986.37	4153.28
986.53	4001.73
986.69	4173.76
986.85	4145.09
987.01	4134.85
987.17	4063.17
987.33	4014.02
987.49	4075.46
987.65	4194.24
987.82	4085.70
987.98	4097.99
988.14	3995.59
988.30	4110.27
988.46	3968.96
988.62	3985.35
988.78	4018.11
988.94	3901.38
989.10	3915.72
989.26	3905.48
989.42	3966.92
989.59	3815.37
989.75	3835.85
989.91	3915.72
990.07	3758.02
990.23	3844.04
990.39	3794.89
990.55	3862.47
990.71	3737.54
990.87	3854.28
991.03	3835.85
991.19	3792.84
991.35	3901.38
991.51	3798.98
991.67	3860.42
991.83	3780.55
992.00	3684.30
992.16	3770.31
992.32	3688.39
992.48	3731.40
992.64	3801.03
992.80	3749.83
992.96	3764.17
993.12	3694.54
993.28	3708.87
993.44	3780.55
993.60	3657.67
993.76	3731.40
993.92	3678.15
994.08	3733.45
994.24	3647.43
994.40	3624.90
994.56	3721.16
994.72	3545.03
994.88	3616.71
995.04	3622.86
995.20	3665.86
995.36	3538.89
995.52	3522.51
995.68	3530.70
995.84	3547.08
996.00	3661.77
996.16	3551.18
996.32	3538.89
996.48	3514.31
996.64	3569.61
996.80	3479.50
996.96	3506.12
997.12	3426.25
997.28	3479.50
997.44	3442.64
997.60	3340.24
997.76	3432.40
997.92	3407.82
998.08	3405.77
998.24	3424.20
998.40	3352.52
998.56	3483.59
998.72	3358.67
998.88	3362.76
999.04	3332.05
999.20	3422.16
999.36	3282.89
999.52	3370.96
999.68	3274.70
999.84	3350.48
1000.00	3358.67
1000.16	3346.38
1000.32	3241.93
1000.48	3375.05
1000.64	3340.24
1000.80	3246.03
1000.95	3309.52
1001.11	3147.73
1001.27	3227.60
1001.43	3182.54
1001.59	3121.10
1001.75	3209.17
1001.91	3213.26
1002.07	3215.31
1002.23	3221.45
1002.39	3227.60
1002.55	3166.16
1002.71	3203.02
1002.87	3067.86
1003.03	3100.62
1003.19	3104.72
1003.34	3248.08
1003.50	3084.24
1003.66	3149.78
1003.82	3100.62
1003.98	2996.18
1004.14	3088.34
1004.30	3108.82
1004.46	2963.41
1004.62	3059.67
1004.78	2947.03
1004.94	2949.08
1005.09	3082.19
1005.25	3004.37
1005.41	3020.75
1005.57	2965.46
1005.73	2901.97
1005.89	2863.06
1006.05	3010.51
1006.21	2949.08
1006.37	2842.58
1006.52	2951.12
1006.68	2826.20
1006.84	2957.27
1007.00	2924.50
1007.16	3088.34
1007.32	2863.06
1007.48	2928.60
1007.64	2875.35
1007.79	2885.59
1007.95	2869.20
1008.11	2947.03
1008.27	2883.54
1008.43	2834.39
1008.59	2871.25
1008.75	2799.57
1008.91	2914.26
1009.06	2787.29
1009.22	2758.61
1009.38	2721.75
1009.54	2813.91
1009.70	2738.13
1009.86	2785.24
1010.01	2789.33
1010.17	2752.47
1010.33	2832.34
1010.49	2809.81
1010.65	2795.48
1010.81	2744.28
1010.96	2838.48
1011.12	2777.05
1011.28	2619.35
1011.44	2793.43
1011.60	2729.94
1011.76	2703.32
1011.91	2797.53
1012.07	2627.54
1012.23	2559.96
1012.39	2582.49
1012.55	2793.43
1012.71	2719.70
1012.86	2625.50
1013.02	2613.21
1013.18	2609.11
1013.34	2570.20
1013.50	2691.03
1013.65	2688.98
1013.81	2523.10
1013.97	2643.93
1014.13	2623.45
1014.29	2564.06
1014.44	2629.59
1014.60	2607.06
1014.76	2594.78
1014.92	2572.25
1015.07	2547.67
1015.23	2629.59
1015.39	2445.27
1015.55	2537.43
1015.71	2539.48
1015.86	2482.14
1016.02	2482.14
1016.18	2467.80
1016.34	2529.24
1016.49	2551.77
1016.65	2576.34
1016.81	2508.76
1016.97	2521.05
1017.12	2547.67
1017.28	2480.09
1017.44	2400.22
1017.60	2383.84
1017.75	2416.60
1017.91	2502.62
1018.07	2463.71
1018.23	2480.09
1018.38	2394.08
1018.54	2480.09
1018.70	2392.03
1018.86	2412.51
1019.01	2330.59
1019.17	2387.93
1019.33	2494.43
1019.49	2377.69
1019.64	2465.75
1019.80	2338.78
1019.96	2402.27
1020.12	2367.45
1020.27	2293.72
1020.43	2416.60
1020.59	2408.41
1020.74	2346.97
1020.90	2430.94
1021.06	2240.48
1021.22	2285.53
1021.37	2271.20
1021.53	2338.78
1021.69	2342.88
1021.84	2220.00
1022.00	2318.30
1022.16	2252.77
1022.31	2283.49
1022.47	2297.82
1022.63	2256.86
1022.79	2174.94
1022.94	2293.72
1023.10	2353.12
1023.26	2281.44
1023.41	2222.05
1023.57	2226.14
1023.73	2334.68
1023.88	2336.73
1024.04	2240.48
1024.20	2156.51
1024.35	2338.78
1024.51	2283.49
1024.67	2287.58
1024.82	2340.83
1024.98	2123.74
1025.14	2222.05
1025.29	2217.95
1025.45	2285.53
1025.61	2179.04
1025.76	2158.56
1025.92	2101.22
1026.08	2140.13
1026.23	2236.38
1026.39	2248.67
1026.55	2131.94
1026.70	2068.45
1026.86	2224.09
1027.02	2168.80
1027.17	2121.70
1027.33	2299.87
1027.48	2109.41
1027.64	2066.40
1027.80	2148.32
1027.95	2189.28
1028.11	2060.26
1028.27	2142.18
1028.42	2150.37
1028.58	2181.09
1028.73	2080.74
1028.89	2039.78
1029.05	2172.89
1029.20	2148.32
>>>>>End Processed Spectral Data<<<<<
