SpectraSuite Data File
++++++++++++++++++++++++++++++++++++
Date: Fri Jun 02 14:44:37 CEST 2017
User: INFO_000
Dark Spectrum Present: No
Reference Spectrum Present: No
Number of Sampled Component Spectra: 1
Spectrometers: USB4H00879
Integration Time (usec): 80000 (USB4H00879)
Spectra Averaged: 1 (USB4H00879)
Boxcar Smoothing: 0 (USB4H00879)
Correct for Electrical Dark: No (USB4H00879)
Strobe/Lamp Enabled: No (USB4H00879)
Correct for Detector Non-linearity: No (USB4H00879)
Correct for Stray Light: No (USB4H00879)
Number of Pixels in Processed Spectrum: 3648
>>>>>Begin Processed Spectral Data<<<<<
345.13	1322.99
345.34	1322.99
345.56	1322.99
345.78	1286.12
345.99	1261.55
346.21	1742.82
346.42	1689.57
346.64	1673.19
346.86	1785.83
347.07	1652.71
347.29	1697.77
347.50	1630.18
347.72	1660.90
347.94	1740.77
348.15	1564.65
348.37	1564.65
348.59	1681.38
348.80	1703.91
349.02	1763.30
349.23	1837.03
349.45	1861.60
349.67	1892.32
349.88	1849.32
350.10	1994.72
350.31	1859.56
350.53	1822.69
350.75	1839.08
350.96	1744.87
351.18	1906.66
351.39	1882.08
351.61	1843.17
351.82	1888.23
352.04	1941.47
352.26	1937.38
352.47	1877.99
352.69	1896.42
352.90	1716.20
353.12	1839.08
353.34	1837.03
353.55	1955.81
353.77	1968.10
353.98	1890.28
354.20	1894.37
354.41	1966.05
354.63	1923.04
354.85	2060.26
355.06	1894.37
355.28	1746.92
355.49	1857.51
355.71	1828.84
355.92	1925.09
356.14	1970.15
356.35	1830.88
356.57	1884.13
356.79	1902.56
357.00	1812.45
357.22	1953.76
357.43	1832.93
357.65	1912.80
357.86	1888.23
358.08	1869.80
358.29	2033.63
358.51	1957.86
358.72	1984.48
358.94	1947.62
359.16	1970.15
359.37	1920.99
359.59	1904.61
359.80	1984.48
360.02	1978.34
360.23	1945.57
360.45	2047.97
360.66	1968.10
360.88	1851.36
361.09	1988.58
361.31	2023.39
361.52	1920.99
361.74	2052.06
361.95	2056.16
362.17	1982.43
362.38	1992.67
362.60	1998.82
362.81	2039.78
363.03	1916.90
363.24	2015.20
363.46	2050.02
363.67	2099.17
363.89	2037.73
364.10	1978.34
364.32	1945.57
364.53	2004.96
364.75	2021.35
364.96	1935.33
365.18	1986.53
365.39	2084.83
365.61	2007.01
365.82	2127.84
366.04	1996.77
366.25	1886.18
366.47	2066.40
366.68	2064.35
366.90	1984.48
367.11	2066.40
367.33	2099.17
367.54	2045.92
367.76	1966.05
367.97	2082.78
368.19	2000.87
368.40	2101.22
368.62	1968.10
368.83	1916.90
369.05	2050.02
369.26	2041.82
369.48	1970.15
369.69	1992.67
369.91	2041.82
370.12	1933.28
370.33	2138.08
370.55	1988.58
370.76	2021.35
370.98	2017.25
371.19	2080.74
371.41	2017.25
371.62	2000.87
371.84	2015.20
372.05	2148.32
372.27	2156.51
372.48	2080.74
372.69	2115.55
372.91	2121.70
373.12	2174.94
373.34	2060.26
373.55	2115.55
373.77	2127.84
373.98	2142.18
374.20	2152.42
374.41	2269.15
374.62	2121.70
374.84	2203.61
375.05	2174.94
375.27	2111.46
375.48	2228.19
375.70	2181.09
375.91	2197.47
376.12	2310.11
376.34	2148.32
376.55	2195.42
376.77	2230.24
376.98	2072.54
377.19	2123.74
377.41	2127.84
377.62	2185.18
377.84	2269.15
378.05	2338.78
378.27	2215.90
378.48	2308.06
378.69	2299.87
378.91	2383.84
379.12	2260.96
379.34	2248.67
379.55	2314.20
379.76	2281.44
379.98	2344.92
380.19	2303.96
380.41	2179.04
380.62	2254.81
380.83	2322.40
381.05	2148.32
381.26	2394.08
381.47	2211.81
381.69	2195.42
381.90	2396.12
382.12	2322.40
382.33	2279.39
382.54	2306.01
382.76	2394.08
382.97	2306.01
383.19	2265.05
383.40	2363.36
383.61	2326.49
383.83	2279.39
384.04	2363.36
384.25	2303.96
384.47	2383.84
384.68	2387.93
384.89	2349.02
385.11	2338.78
385.32	2346.97
385.54	2308.06
385.75	2281.44
385.96	2463.71
386.18	2392.03
386.39	2447.32
386.60	2267.10
386.82	2404.32
387.03	2430.94
387.24	2523.10
387.46	2500.57
387.67	2514.91
387.88	2443.23
388.10	2410.46
388.31	2559.96
388.52	2605.02
388.74	2576.34
388.95	2387.93
389.16	2494.43
389.38	2428.89
389.59	2551.77
389.80	2641.88
390.02	2523.10
390.23	2633.69
390.44	2572.25
390.66	2545.63
390.87	2555.86
391.08	2670.55
391.30	2658.26
391.51	2588.63
391.72	2691.03
391.94	2619.35
392.15	2572.25
392.36	2668.50
392.58	2576.34
392.79	2691.03
393.00	2625.50
393.22	2789.33
393.43	2756.57
393.64	2830.29
393.85	2748.37
394.07	2684.89
394.28	2703.32
394.49	2799.57
394.71	2713.56
394.92	2863.06
395.13	2762.71
395.35	2711.51
395.56	2785.24
395.77	2854.87
395.98	2828.24
396.20	2783.19
396.41	2760.66
396.62	2910.16
396.84	2789.33
397.05	2867.16
397.26	2873.30
397.47	2990.03
397.69	2891.73
397.90	2961.36
398.11	2897.88
398.32	2875.35
398.54	2770.90
398.75	2897.88
398.96	2942.93
399.18	3024.85
399.39	3018.71
399.60	3074.00
399.81	3002.32
400.03	2979.79
400.24	3266.51
400.45	2942.93
400.66	3033.04
400.88	3069.91
401.09	3237.84
401.30	3004.37
401.51	3157.97
401.73	3215.31
401.94	3080.14
402.15	3190.74
402.36	3205.07
402.58	3186.64
402.79	3205.07
403.00	3243.98
403.21	3278.80
403.43	3178.45
403.64	3217.36
403.85	3192.78
404.06	3264.46
404.27	3033.04
404.49	3311.57
404.70	3172.30
404.91	3278.80
405.12	3246.03
405.34	3289.04
405.55	3330.00
405.76	3162.06
405.97	3235.79
406.19	3309.52
406.40	3307.47
406.61	3377.10
406.82	3282.89
407.03	3213.26
407.25	3315.66
407.46	3497.93
407.67	3309.52
407.88	3446.73
408.09	3323.85
408.31	3350.48
408.52	3391.44
408.73	3289.04
408.94	3330.00
409.15	3407.82
409.37	3502.03
409.58	3489.74
409.79	3610.57
410.00	3522.51
410.21	3450.83
410.43	3405.77
410.64	3426.25
410.85	3555.27
411.06	3663.82
411.27	3575.75
411.48	3518.41
411.70	3495.88
411.91	3647.43
412.12	3639.24
412.33	3604.42
412.54	3661.77
412.76	3571.66
412.97	3657.67
413.18	3483.59
413.39	3598.28
413.60	3624.90
413.81	3686.34
414.03	3626.95
414.24	3575.75
414.45	3854.28
414.66	3635.14
414.87	3663.82
415.08	3624.90
415.30	3721.16
415.51	3727.30
415.72	3688.39
415.93	3796.93
416.14	3702.73
416.35	3827.65
416.56	3827.65
416.78	3778.50
416.99	3901.38
417.20	3846.09
417.41	3827.65
417.62	3895.24
417.83	3979.20
418.04	3825.61
418.26	3882.95
418.47	3999.68
418.68	4048.83
418.89	3997.64
419.10	4179.90
419.31	4073.41
419.52	4059.07
419.73	4003.78
419.95	4151.23
420.16	4073.41
420.37	4128.70
420.58	4196.29
420.79	3891.14
421.00	4124.61
421.21	4132.80
421.42	4153.28
421.63	3987.40
421.85	4173.76
422.06	4212.67
422.27	4239.30
422.48	4222.91
422.69	4278.21
422.90	4280.25
423.11	4366.27
423.32	4315.07
423.53	4337.60
423.75	4368.32
423.96	4485.05
424.17	4349.89
424.38	4644.79
424.59	4501.44
424.80	4698.04
425.01	4491.20
425.22	4431.80
425.43	4460.48
425.64	4724.66
425.85	4573.11
426.06	4581.31
426.28	4599.74
426.49	4497.34
426.70	4591.55
426.91	4581.31
427.12	4708.28
427.33	4732.86
427.54	4595.64
427.75	4700.09
427.96	4911.03
428.17	4732.86
428.38	4896.69
428.59	4833.21
428.80	4861.88
429.01	4878.26
429.23	4847.54
429.44	5035.96
429.65	5074.87
429.86	5109.68
430.07	4927.41
430.28	4820.92
430.49	5025.72
430.70	5183.41
430.91	5244.85
431.12	5068.72
431.33	5228.46
431.54	5130.16
431.75	5097.39
431.96	5283.76
432.17	5058.48
432.38	5171.12
432.59	5451.69
432.80	5259.18
433.01	5386.16
433.22	5341.10
433.43	5296.05
433.64	5306.29
433.85	5246.90
434.06	5388.21
434.27	5341.10
434.49	5556.14
434.70	5550.00
434.91	5427.12
435.12	5550.00
435.33	5398.45
435.54	5509.04
435.75	5287.86
435.96	5386.16
436.17	5443.50
436.38	5605.29
436.59	5629.87
436.80	5650.35
437.01	5795.75
437.22	5652.39
437.43	5554.09
437.64	5525.42
437.85	5859.24
438.06	5685.16
438.27	5695.40
438.48	5808.04
438.69	5896.10
438.90	5898.15
439.11	5697.45
439.32	6004.64
439.53	5820.33
439.74	5941.16
439.95	5986.21
440.16	5973.92
440.37	5943.21
440.57	5863.33
440.78	5965.73
440.99	6000.55
441.20	6066.08
441.41	5851.05
441.62	6174.63
441.83	5861.29
442.04	6193.06
442.25	6098.85
442.46	5969.83
442.67	6299.55
442.88	6457.25
443.09	6053.80
443.30	6231.97
443.51	6172.58
443.72	6422.43
443.93	6225.82
444.14	6530.97
444.35	6215.59
444.56	6406.05
444.77	6238.11
444.98	6395.81
445.19	6358.94
445.40	6299.55
445.61	6365.09
445.81	6461.34
446.02	6524.83
446.23	6471.58
446.44	6346.66
446.65	6576.03
446.86	6604.70
447.07	6447.01
447.28	6596.51
447.49	6537.12
447.70	6653.85
447.91	6672.28
448.12	6606.75
448.33	6823.83
448.54	6725.53
448.74	6819.74
448.95	6723.48
449.16	6836.12
449.37	7028.63
449.58	7055.25
449.79	7077.78
450.00	6766.49
450.21	6999.96
450.42	7264.15
450.63	7059.35
450.84	7151.51
451.05	7151.51
451.25	7042.96
451.46	7092.12
451.67	7188.37
451.88	7231.38
452.09	7196.56
452.30	7303.06
452.51	7321.49
452.72	7387.02
452.93	7669.64
453.13	7401.36
453.34	7286.67
453.55	7552.91
453.76	7401.36
453.97	7724.94
454.18	7696.27
454.39	7530.38
454.60	7589.77
454.81	7708.55
455.01	7776.14
455.22	7360.40
455.43	7677.83
455.64	7825.29
455.85	8083.33
456.06	8101.76
456.27	7769.99
456.48	7903.11
456.68	8040.33
456.89	8152.96
457.10	7933.83
457.31	7993.22
457.52	7954.31
457.73	7964.55
457.94	8351.62
458.14	7964.55
458.35	8556.41
458.56	8392.58
458.77	8327.04
458.98	8411.01
459.19	8419.20
459.39	8486.78
459.60	8456.06
459.81	8482.69
460.02	8660.86
460.23	8447.87
460.44	8912.76
460.65	8927.10
460.85	8832.89
461.06	8869.75
461.27	8685.44
461.48	9076.60
461.69	9092.98
461.89	8869.75
462.10	8914.81
462.31	8810.36
462.52	8980.34
462.73	9064.31
462.94	9316.21
463.14	9090.93
463.35	9072.50
463.56	9854.83
463.77	9559.92
463.98	9156.47
464.18	9351.03
464.39	9725.80
464.60	9852.78
464.81	9506.67
465.02	9537.39
465.23	9809.77
465.43	9545.58
465.64	9906.02
465.85	9930.60
466.06	9576.30
466.27	9949.03
466.47	10030.95
466.68	10166.12
466.89	9928.55
467.10	10217.32
467.30	9873.26
467.51	10262.37
467.72	10389.35
467.93	10010.47
468.14	10393.44
468.34	10456.93
468.55	10559.33
468.76	10686.30
468.97	10381.15
469.17	10798.94
469.38	10653.53
469.59	11018.07
469.80	10674.01
470.01	10858.33
470.21	10899.29
470.42	10940.25
470.63	11505.49
470.84	10766.17
471.04	11229.01
471.25	11335.51
471.46	11382.61
471.67	11679.57
471.87	11507.54
472.08	11611.98
472.29	11753.29
472.50	11442.00
472.70	11620.17
472.91	11890.51
473.12	11931.47
473.33	11749.20
473.53	12310.34
473.74	12001.10
473.95	12164.93
474.16	12429.12
474.36	12283.72
474.57	12425.03
474.78	12656.45
474.99	12687.17
475.19	12523.33
475.40	12894.01
475.61	13113.14
475.81	13242.17
476.02	13264.69
476.23	13035.32
476.44	13113.14
476.64	13291.32
476.85	13487.92
477.06	13487.92
477.27	13694.77
477.47	13793.07
477.68	13791.02
477.89	14004.01
478.09	14149.42
478.30	13989.67
478.51	14217.00
478.71	14126.89
478.92	14210.86
479.13	14460.71
479.34	14358.31
479.54	14655.26
479.75	14763.81
479.96	14649.12
480.16	14903.07
480.37	15007.52
480.58	15083.29
480.78	15191.83
480.99	15388.44
481.20	15437.59
481.41	15296.28
481.61	15578.90
481.82	15941.39
482.03	15451.92
482.23	15834.89
482.44	16140.04
482.65	16154.38
482.85	16291.59
483.06	16187.14
483.27	16408.33
483.47	16340.74
483.68	16449.28
483.89	16609.03
484.09	16609.03
484.30	16705.28
484.51	17047.29
484.71	17168.12
484.92	17032.96
485.13	17424.12
485.33	17147.64
485.54	17235.70
485.75	17481.46
485.95	17590.00
486.16	17555.19
486.37	18018.03
486.57	17565.43
486.78	17690.35
486.98	17823.47
487.19	18265.83
487.40	18513.64
487.60	18253.55
487.81	18460.39
488.02	18415.34
488.22	18419.43
488.43	19191.52
488.64	18611.94
488.84	18777.83
489.05	18947.81
489.25	19181.28
489.46	19031.77
489.67	19246.81
489.87	19621.59
490.08	19269.34
490.29	19392.22
490.49	19803.86
490.70	19594.96
490.90	19979.98
491.11	20031.18
491.32	19982.03
491.52	19668.69
491.73	20225.74
491.94	20049.61
492.14	20373.19
492.35	20463.30
492.55	20446.92
492.76	20672.20
492.97	20854.47
493.17	20776.64
493.38	20750.02
493.58	21208.76
493.79	20932.29
494.00	21120.70
494.20	21313.21
494.41	21276.35
494.61	21358.27
494.82	21405.37
495.02	21292.73
495.23	21681.85
495.44	21808.82
495.64	21853.87
495.85	21829.30
496.05	21982.90
496.26	22070.96
496.47	22083.25
496.67	22111.92
496.88	22310.57
497.08	21933.75
497.29	22394.54
497.49	22490.79
497.70	22464.17
497.91	22523.56
498.11	22779.56
498.32	22814.37
498.52	22617.77
498.73	23230.11
498.93	22865.57
499.14	23105.18
499.34	22986.40
499.55	23205.53
499.76	23006.88
499.96	23084.70
500.17	23228.06
500.37	23498.39
500.58	23342.75
500.78	23402.14
500.99	23531.16
501.19	23574.17
501.40	23805.59
501.60	23772.82
501.81	23795.35
502.02	24338.06
502.22	23817.88
502.43	24049.30
502.63	24379.02
502.84	24057.49
503.04	24174.22
503.25	24256.14
503.45	24549.00
503.66	24565.39
503.86	24737.41
504.07	24624.78
504.27	24266.38
504.48	24995.46
504.68	24770.18
504.89	25304.70
505.09	25153.15
505.30	25093.76
505.50	24923.78
505.71	25001.60
505.91	25419.39
506.12	25241.21
506.32	25251.45
506.53	25124.48
506.73	25126.53
506.94	25267.84
507.14	25405.05
507.35	25585.27
507.55	25540.22
507.76	25493.12
507.96	25695.86
508.17	25745.02
508.37	25671.29
508.58	25925.24
508.78	25955.96
508.99	26197.62
509.19	26236.53
509.40	26322.54
509.60	26457.71
509.81	26340.97
510.01	26312.30
510.22	26359.41
510.42	26168.94
510.63	26562.15
510.83	26623.59
511.04	26467.95
511.24	26660.46
511.44	26463.85
511.65	26652.27
511.85	26691.18
512.06	26685.03
512.26	26652.27
512.47	26965.60
512.67	26723.94
512.88	26838.63
513.08	26652.27
513.29	27194.98
513.49	27039.33
513.69	26961.51
513.90	27301.47
514.10	27156.07
514.31	27496.03
514.51	27666.01
514.72	27868.76
514.92	27541.08
515.13	27594.33
515.33	27586.14
515.53	27407.97
515.74	27706.97
515.94	27749.98
516.15	27774.55
516.35	27725.40
516.56	27846.23
516.76	27780.70
516.96	27833.94
517.17	28116.56
517.37	28173.91
517.58	28505.68
517.78	28677.71
517.99	28538.44
518.19	28634.70
518.39	28653.13
518.60	28704.33
518.80	28651.08
519.01	29054.53
519.21	28825.16
519.41	28991.05
519.62	29087.30
519.82	29142.60
520.03	29181.51
520.23	29453.89
520.43	29052.48
520.64	29593.15
520.84	29746.75
521.05	29691.45
521.25	29759.03
521.45	29650.49
521.66	30027.32
521.86	29982.26
522.07	29814.33
522.27	29994.55
522.47	30334.51
522.68	30467.63
522.88	30131.76
523.08	30823.98
523.29	30610.99
523.49	30686.76
523.70	30430.77
523.90	30838.31
524.10	30869.03
524.31	31213.09
524.51	31004.20
524.71	31346.21
524.92	31172.13
525.12	31082.02
525.33	31229.48
525.53	31725.08
525.73	31733.28
525.94	31594.01
526.14	31254.05
526.34	31790.62
526.55	31923.74
526.75	31944.22
526.95	32288.28
527.16	32058.90
527.36	31929.88
527.56	32454.16
527.77	32730.64
527.97	32306.71
528.17	32738.83
528.38	32937.48
528.58	32474.64
528.78	32876.04
528.99	33175.05
529.19	32996.87
529.39	33115.65
529.60	33336.84
529.80	33074.70
530.00	33082.89
530.21	33304.07
530.41	33656.32
530.61	33650.17
530.82	33666.56
531.02	33742.33
531.22	33891.83
531.43	34029.05
531.63	34135.54
531.83	34387.44
532.04	34520.56
532.24	33940.99
532.44	34690.54
532.64	34813.42
532.85	34964.97
533.05	34815.47
533.25	34567.66
533.46	34801.13
533.66	35796.45
533.86	34977.26
534.07	35433.96
534.27	35220.97
534.47	35288.55
534.67	35347.94
534.88	35526.11
535.08	35583.46
535.28	35808.73
535.49	35911.13
535.69	36236.76
535.89	35991.00
536.09	36224.47
536.30	36439.51
536.50	36306.39
536.70	36453.84
536.91	36521.43
537.11	36662.74
537.31	36744.66
537.51	36404.69
537.72	37572.03
537.92	37094.86
538.12	37422.53
538.32	37090.76
538.53	37397.96
538.73	37121.48
538.93	37225.93
539.13	37541.32
539.34	37354.95
539.54	37451.20
539.74	37662.15
539.94	37531.08
540.15	37414.34
540.35	38124.99
540.55	38149.56
540.75	37873.09
540.96	38194.62
541.16	37844.41
541.36	38229.43
541.56	37766.59
541.77	38661.55
541.97	37950.91
542.17	38630.83
542.37	38401.46
542.58	38532.53
542.78	38235.58
542.98	38311.35
543.18	38862.26
543.38	38794.67
543.59	38821.30
543.79	38565.30
543.99	38802.86
544.19	38954.41
544.40	38956.46
544.60	39671.20
544.80	39216.55
545.00	38981.04
545.20	39511.46
545.41	39349.67
545.61	39151.02
545.81	39765.41
546.01	39525.80
546.21	39433.64
546.42	39447.97
546.62	39863.71
546.82	39296.42
547.02	39656.87
547.22	39583.14
547.43	39341.48
547.63	39923.10
547.83	39726.50
548.03	40035.74
548.23	40015.26
548.44	39785.89
548.64	40250.78
548.84	40281.50
549.04	40412.57
549.24	40461.72
549.45	40967.57
549.65	39931.29
549.85	40615.32
550.05	40805.78
550.25	40592.79
550.45	41059.73
550.66	40394.14
550.86	40308.12
551.06	40666.52
551.26	40945.04
551.46	40758.67
551.66	40693.14
551.87	40867.22
552.07	41076.11
552.27	40850.83
552.47	41039.25
552.67	41260.43
552.87	41067.92
553.07	41043.34
553.28	41368.97
553.48	41047.44
553.68	41299.34
553.88	41850.24
554.08	41280.91
554.28	41334.15
554.48	41762.18
554.69	41647.49
554.89	41530.76
555.09	41334.15
555.29	41336.20
555.49	42024.32
555.69	41760.13
555.89	41573.77
556.10	42167.68
556.30	41870.72
556.50	41774.47
556.70	41745.80
556.90	41891.20
557.10	42165.63
557.30	42104.19
557.50	42075.52
557.70	42229.12
557.91	42202.49
558.11	41999.74
558.31	42632.57
558.51	41938.30
558.71	42718.58
558.91	42694.00
559.11	42495.35
559.31	42384.76
559.51	42157.44
559.72	42640.76
559.92	42800.50
560.12	42237.31
560.32	42698.10
560.52	42495.35
560.72	42554.74
560.92	42933.62
561.12	42739.06
561.32	43140.46
561.52	42759.54
561.72	43388.27
561.93	42984.82
562.13	43179.37
562.33	42943.86
562.53	43494.76
562.73	42913.14
562.93	42917.23
563.13	43320.68
563.33	43210.09
563.53	43697.51
563.73	43206.00
563.93	43380.07
564.13	43472.23
564.33	43167.09
564.53	43396.46
564.74	43797.86
564.94	43681.13
565.14	44111.20
565.34	43521.38
565.54	44008.80
565.74	43896.16
565.94	44264.80
566.14	44062.05
566.34	44096.86
566.54	44389.72
566.74	43857.25
566.94	44103.01
567.14	44414.30
567.34	44098.91
567.54	44494.17
567.74	44299.61
567.94	44029.28
568.14	44442.97
568.34	44512.60
568.54	44623.19
568.74	44715.35
568.94	44756.31
569.14	45026.64
569.34	44936.53
569.54	44858.71
569.75	44668.25
569.95	45049.17
570.15	45155.66
570.35	44891.48
570.55	45350.22
570.75	45106.51
570.95	45346.12
571.15	45557.06
571.35	45256.01
571.55	45651.27
571.75	45245.77
571.95	45636.94
572.15	45569.35
572.35	45509.96
572.55	45360.46
572.75	45796.68
572.95	45356.36
573.15	45860.16
573.35	45882.69
573.55	45487.43
573.75	46056.77
573.95	46286.14
574.15	45937.99
574.35	46282.05
574.55	45933.89
574.75	46288.19
574.95	46302.53
575.15	45980.99
575.34	46144.83
575.54	46134.59
575.74	46597.43
575.94	46318.91
576.14	46306.62
576.34	47115.57
576.54	46658.87
576.74	46894.39
576.94	46622.01
577.14	47060.27
577.34	47299.89
577.54	46804.28
577.74	47103.28
577.94	47226.16
578.14	47093.04
578.34	47772.97
578.54	46558.52
578.74	47531.31
578.94	47430.96
579.14	47095.09
579.34	47406.38
579.54	47486.25
579.74	47961.38
579.94	47813.93
580.13	48127.27
580.33	47594.79
580.53	47793.45
580.73	47609.13
580.93	47422.76
581.13	48332.06
581.33	48061.73
581.53	48235.81
581.73	48373.02
581.93	48377.12
582.13	48473.37
582.33	48540.96
582.53	48467.23
582.73	48655.64
582.92	48657.69
583.12	48391.45
583.32	48594.20
583.52	48528.67
583.72	48821.53
583.92	48999.70
584.12	48821.53
584.32	49235.22
584.52	49116.43
584.72	49458.45
584.92	49214.74
585.11	49685.77
585.31	49495.31
585.51	49442.06
585.71	48835.86
585.91	49427.73
586.11	49347.86
586.31	49478.92
586.51	49599.76
586.71	49675.53
586.91	49900.81
587.10	50150.66
587.30	49966.34
587.50	49898.76
587.70	50175.23
587.90	49530.12
588.10	49820.94
588.30	49698.06
588.50	50244.87
588.69	50339.07
588.89	50341.12
589.09	50590.97
589.29	49853.70
589.49	50158.85
589.69	50177.28
589.89	50304.26
590.08	50644.22
590.28	50236.67
590.48	50115.84
590.68	50400.51
590.88	50363.65
591.08	50066.69
591.28	50558.20
591.47	50738.43
591.67	50453.76
591.87	50590.97
592.07	50834.68
592.27	50740.47
592.47	50631.93
592.67	50877.69
592.86	50423.04
593.06	50717.95
593.26	50898.17
593.46	50676.99
593.66	50930.93
593.86	51121.40
594.05	50740.47
594.25	51127.54
594.45	50726.14
594.65	51225.84
594.85	50711.80
595.05	50961.65
595.24	51148.02
595.44	50795.77
595.64	51105.01
595.84	51004.66
596.04	50783.48
596.23	51062.00
596.43	51514.61
596.63	51211.51
596.83	51563.76
597.03	51191.03
597.22	51737.83
597.42	51506.41
597.62	52010.21
597.82	51635.44
598.02	51578.09
598.21	51983.59
598.41	51916.01
598.61	51596.52
598.81	52112.61
599.01	52243.68
599.20	51639.53
599.40	51668.20
599.60	52145.38
599.80	52120.80
600.00	51901.67
600.19	52446.43
600.39	51807.47
600.59	52368.61
600.79	52229.35
600.98	52346.08
601.18	52352.23
601.38	52559.07
601.58	52477.15
601.78	52364.51
601.97	52595.93
602.17	53335.25
602.37	52544.73
602.57	52575.45
602.76	53069.01
602.96	52288.74
603.16	52409.57
603.36	52460.77
603.55	53243.09
603.75	53013.72
603.95	53282.00
604.15	52950.23
604.34	52989.14
604.54	53279.96
604.74	53447.89
604.94	52784.35
605.13	53574.86
605.33	53327.06
605.53	52696.28
605.73	53441.74
605.92	53169.36
606.12	53454.03
606.32	53267.67
606.52	53220.56
606.71	53210.32
606.91	53173.46
607.11	52960.47
607.30	53314.77
607.50	53195.99
607.70	53370.07
607.90	53777.61
608.09	53865.67
608.29	53859.53
608.49	53970.12
608.68	53378.26
608.88	53843.15
609.08	53546.19
609.28	53707.98
609.47	53791.95
609.67	53935.30
609.87	53982.41
610.06	53896.39
610.26	53935.30
610.46	54015.18
610.66	53753.04
610.85	53890.25
611.05	53652.69
611.25	54162.63
611.44	53929.16
611.64	53912.78
611.84	53730.51
612.03	54127.81
612.23	53746.89
612.43	54318.28
612.62	54033.61
612.82	54428.87
613.02	54322.37
613.21	54080.71
613.41	54150.34
613.61	54111.43
613.80	53335.25
614.00	54379.71
614.20	54099.14
614.39	54338.75
614.59	54406.34
614.79	54291.65
614.98	54078.66
615.18	54367.43
615.38	54414.53
615.57	53877.96
615.77	54768.83
615.97	54367.43
616.16	54281.41
616.36	54291.65
616.56	54133.96
616.75	54426.82
616.95	54131.91
617.15	54064.33
617.34	54408.39
617.54	54183.11
617.74	54736.06
617.93	54566.08
618.13	53990.60
618.32	54344.90
618.52	54191.30
618.72	54301.89
618.91	54613.18
619.11	54531.26
619.31	54432.96
619.50	53982.41
619.70	54244.55
619.90	54084.81
620.09	54371.52
620.29	54310.08
620.48	54592.70
620.68	54652.09
620.88	54183.11
621.07	54283.46
621.27	54514.88
621.46	54154.44
621.66	54834.36
621.86	54389.95
622.05	54127.81
622.25	54623.42
622.44	54443.20
622.64	54219.97
622.84	54510.78
623.03	54777.02
623.23	54617.28
623.42	54631.61
623.62	54674.62
623.82	54834.36
624.01	54566.08
624.21	54801.60
624.40	54314.18
624.60	54860.99
624.80	53859.53
624.99	54420.67
625.19	54146.25
625.38	54568.13
625.58	54572.22
625.77	55092.41
625.97	54541.50
626.17	54379.71
626.36	54676.67
626.56	54703.29
626.75	54289.60
626.95	55504.05
627.14	54439.11
627.34	54801.60
627.54	54629.57
627.73	54899.90
627.93	55112.89
628.12	55086.26
628.32	54801.60
628.51	54621.37
628.71	54756.54
628.90	55243.96
629.10	55051.45
629.30	55250.10
629.49	55123.13
629.69	55043.26
629.88	54621.37
630.08	55514.29
630.27	55387.31
630.47	55278.77
630.66	55008.44
630.86	55108.79
631.05	54789.31
631.25	55792.81
631.44	55125.17
631.64	55266.48
631.84	55379.12
632.03	55383.22
632.23	55538.86
632.42	55579.82
632.62	55174.33
632.81	55104.70
633.01	55714.99
633.20	55571.63
633.40	55571.63
633.59	55385.27
633.79	55295.16
633.98	55440.56
634.18	55749.81
634.37	55645.36
634.57	55340.21
634.76	55977.13
634.96	55680.17
635.15	55780.52
635.35	55923.88
635.54	55788.72
635.74	55901.36
635.93	55762.09
636.13	55952.55
636.32	56128.68
636.52	55575.73
636.71	55983.27
636.91	56202.41
637.10	55682.22
637.30	55782.57
637.49	55930.03
637.69	55927.98
637.88	56259.75
638.08	55549.10
638.27	56165.54
638.46	56259.75
638.66	55841.96
638.85	56331.43
639.05	56444.07
639.24	56161.45
639.44	56016.04
639.63	56390.82
639.83	56308.90
640.02	56485.03
640.22	56362.15
640.41	56239.27
640.61	55780.52
640.80	56482.98
640.99	56456.35
641.19	56554.66
641.38	56376.48
641.58	56763.55
641.77	56108.20
641.97	55958.70
642.16	56548.51
642.36	56710.30
642.55	56992.92
642.74	56366.24
642.94	57316.50
643.13	56288.42
643.33	56878.24
643.52	56575.14
643.72	56874.14
643.91	56855.71
644.10	56800.41
644.30	56908.96
644.49	56726.69
644.69	56925.34
644.88	57177.24
645.08	56781.98
645.27	56833.18
645.46	56738.97
645.66	56929.44
645.85	56911.00
646.05	57052.31
646.24	56880.28
646.43	56831.13
646.63	57435.28
646.82	57128.09
647.02	56980.63
647.21	57201.82
647.40	57197.72
647.60	56902.81
647.79	57709.71
647.99	57349.27
648.18	56849.56
648.37	57463.96
648.57	57631.89
648.76	57001.11
648.96	57029.79
649.15	57775.25
649.34	57500.82
649.54	57455.76
649.73	56972.44
649.92	57103.51
650.12	57261.21
650.31	57367.70
650.51	57568.40
650.70	57509.01
650.89	57029.79
651.09	57697.42
651.28	57648.27
651.47	57504.91
651.67	57435.28
651.86	58082.44
652.06	56894.62
652.25	57431.19
652.44	57349.27
652.64	56937.63
652.83	57230.49
653.02	57394.32
653.22	57210.01
653.41	57418.90
653.60	56898.72
653.80	57265.30
653.99	57377.94
654.18	57390.23
654.38	57123.99
654.57	57306.26
654.76	57152.66
654.96	57660.56
655.15	57302.17
655.34	57119.90
655.54	56841.37
655.73	57728.14
655.92	57308.31
656.12	57777.29
656.31	57080.98
656.50	57312.41
656.70	57289.88
656.89	57203.86
657.08	57357.46
657.28	57328.79
657.47	57414.80
657.66	57529.49
657.86	57310.36
658.05	57500.82
658.24	57685.14
658.43	57128.09
658.63	57218.20
658.82	57711.76
659.01	57502.87
659.21	56829.08
659.40	57631.89
659.59	57799.82
659.79	57400.47
659.98	57957.52
660.17	57547.92
660.36	57220.25
660.56	57044.12
660.75	57447.57
660.94	57732.24
661.14	57562.26
661.33	57136.28
661.52	57459.86
661.71	57474.20
661.91	57078.94
662.10	57123.99
662.29	57615.50
662.49	57451.67
662.68	57603.22
662.87	57513.11
663.06	57742.48
663.26	57771.15
663.45	57658.51
663.64	56796.32
663.83	57470.10
664.03	57070.75
664.22	57525.39
664.41	57324.69
664.60	57302.17
664.80	57119.90
664.99	56968.35
665.18	56949.92
665.37	57080.98
665.57	57652.37
665.76	56894.62
665.95	56542.37
666.14	56988.83
666.34	56853.66
666.53	57087.13
666.72	57078.94
666.91	56743.07
667.11	56843.42
667.30	57033.88
667.49	56878.24
667.68	56792.22
667.87	56646.82
668.07	57257.11
668.26	56964.25
668.45	57046.17
668.64	57154.71
668.84	57226.39
669.03	56841.37
669.22	56935.58
669.41	56882.33
669.60	56857.76
669.80	56806.56
669.99	56837.28
670.18	57144.47
670.37	56374.44
670.57	56765.60
670.76	56644.77
670.95	57334.93
671.14	56704.16
671.33	56272.04
671.53	56923.29
671.72	56761.50
671.91	56571.04
672.10	56511.65
672.29	56515.75
672.48	56337.57
672.68	56671.39
672.87	56345.76
673.06	56702.11
673.25	56532.13
673.44	56507.55
673.64	56487.07
673.83	56292.52
674.02	56413.35
674.21	56226.98
674.40	56192.17
674.59	56239.27
674.79	56163.50
674.98	55803.05
675.17	56259.75
675.36	55942.31
675.55	56194.21
675.74	55940.27
675.94	56358.05
676.13	56302.76
676.32	56253.61
676.51	56464.55
676.70	55938.22
676.89	56177.83
677.08	56816.80
677.28	55956.65
677.47	56300.71
677.66	56521.89
677.85	56079.53
678.04	56147.11
678.23	56599.71
678.42	56179.88
678.62	55475.38
678.81	56210.60
679.00	55977.13
679.19	56689.82
679.38	56353.96
679.57	56366.24
679.76	56104.10
679.96	56589.47
680.15	55993.51
680.34	55993.51
680.53	56013.99
680.72	56358.05
680.91	56011.95
681.10	55895.21
681.29	55794.86
681.48	55862.44
681.68	55641.26
681.87	55807.15
682.06	55788.72
682.25	55753.90
682.44	55256.24
682.63	55805.10
682.82	55489.71
683.01	55366.84
683.20	54912.19
683.39	55383.22
683.59	55674.03
683.78	55852.20
683.97	55248.05
684.16	55555.25
684.35	55465.14
684.54	55084.22
684.73	54869.18
684.92	55409.84
685.11	55293.11
685.30	55366.84
685.49	55710.89
685.69	55420.08
685.88	55356.60
686.07	55241.91
686.26	54985.91
686.45	55327.92
686.64	55043.26
686.83	55203.00
687.02	55520.43
687.21	55508.14
687.40	55186.61
687.59	55078.07
687.78	55155.89
687.97	55198.90
688.16	55524.53
688.35	54998.20
688.54	54908.09
688.74	54936.76
688.93	55254.20
689.12	54766.78
689.31	55071.93
689.50	55311.54
689.69	54916.28
689.88	54502.59
690.07	54633.66
690.26	54854.84
690.45	55280.82
690.64	54502.59
690.83	55057.59
691.02	54570.18
691.21	55162.04
691.40	54766.78
691.59	54590.66
691.78	55090.36
691.97	54908.09
692.16	54615.23
692.35	55049.40
692.54	54746.30
692.73	54604.99
692.92	54887.61
693.11	54928.57
693.30	54799.55
693.49	54815.93
693.68	54756.54
693.87	54670.53
694.06	54691.01
694.25	54604.99
694.44	54318.28
694.63	54903.99
694.82	54652.09
695.01	54772.92
695.20	53976.26
695.39	54635.71
695.58	54637.76
695.77	54918.33
695.96	54426.82
696.15	54901.95
696.34	54406.34
696.53	54328.52
696.72	54994.10
696.91	54133.96
697.10	54131.91
697.29	54101.19
697.48	54592.70
697.67	53970.12
697.86	54144.20
698.05	53943.50
698.24	54484.16
698.43	53806.28
698.62	54527.17
698.81	53679.31
699.00	54279.36
699.19	54121.67
699.38	54062.28
699.57	53914.83
699.76	54549.70
699.95	54478.02
700.14	53753.04
700.32	53652.69
700.51	53802.19
700.70	54183.11
700.89	54006.98
701.08	54170.82
701.27	53834.95
701.46	54252.74
701.65	53585.10
701.84	54193.35
702.03	54156.49
702.22	53484.75
702.41	53761.23
702.60	54119.62
702.79	53748.94
702.98	53550.29
703.17	53783.76
703.35	53298.39
703.54	53812.43
703.73	53941.45
703.92	54187.21
704.11	53859.53
704.30	53494.99
704.49	53617.87
704.68	53499.09
704.87	53585.10
705.06	53533.90
705.25	53562.57
705.43	53900.49
705.62	53562.57
705.81	53638.35
706.00	53748.94
706.19	53282.00
706.38	53472.46
706.57	53982.41
706.76	53079.25
706.95	53527.76
707.14	53239.00
707.32	53560.53
707.51	53349.59
707.70	53191.89
707.89	53703.88
708.08	53101.78
708.27	53351.63
708.46	53531.86
708.65	53794.00
708.84	53904.59
709.02	53574.86
709.21	53902.54
709.40	53523.66
709.59	53302.48
709.78	52980.95
709.97	53724.36
710.16	53101.78
710.34	53275.86
710.53	53443.79
710.72	53312.72
710.91	53136.60
711.10	53322.96
711.29	53085.40
711.48	53265.62
711.66	52823.26
711.85	52989.14
712.04	53064.92
712.23	52896.98
712.42	53040.34
712.61	53107.93
712.80	53404.88
712.98	53060.82
713.17	53122.26
713.36	52851.93
713.55	52886.74
713.74	52810.97
713.93	53382.35
714.11	52792.54
714.30	52686.04
714.49	52901.08
714.68	52907.22
714.87	52770.01
715.06	52880.60
715.24	52622.56
715.43	52395.23
715.62	52632.80
715.81	52600.03
716.00	52847.83
716.18	52372.70
716.37	51948.78
716.56	52475.10
716.75	52692.19
716.94	52827.35
717.12	51619.05
717.31	52538.59
717.50	52294.88
717.69	52344.03
717.88	52188.39
718.06	52149.48
718.25	52567.26
718.44	51881.19
718.63	51963.11
718.82	51465.45
719.00	51596.52
719.19	51809.51
719.38	52004.07
719.57	51754.22
719.76	51694.83
719.94	51352.82
720.13	51809.51
720.32	51885.29
720.51	51946.73
720.69	51467.50
720.88	51277.04
721.07	51768.55
721.26	50840.82
721.44	51240.18
721.63	51109.11
721.82	51205.36
722.01	50814.20
722.20	51090.68
722.38	51332.34
722.57	50541.82
722.76	50889.98
722.95	50593.02
723.13	50779.39
723.32	50357.50
723.51	50650.36
723.70	50586.88
723.88	50769.15
724.07	50341.12
724.26	50566.40
724.44	49782.02
724.63	50492.67
724.82	50689.27
725.01	49698.06
725.19	50267.39
725.38	49939.72
725.57	50244.87
725.76	49978.63
725.94	49534.22
726.13	50013.44
726.32	49855.75
726.51	49943.81
726.69	50304.26
726.88	50152.71
727.07	50017.54
727.25	50124.04
727.44	49657.10
727.63	50306.30
727.82	50013.44
728.00	50033.92
728.19	49736.97
728.38	49849.61
728.56	49560.84
728.75	50238.72
728.94	49460.49
729.12	50136.32
729.31	49988.87
729.50	49947.91
729.69	49792.26
729.87	49984.77
730.06	49454.35
730.25	49775.88
730.43	49765.64
730.62	49388.81
730.81	49354.00
730.99	49673.48
731.18	49386.77
731.37	50107.65
731.55	49839.37
731.74	49759.50
731.93	50031.88
732.11	49585.42
732.30	49845.51
732.49	49141.01
732.67	49560.84
732.86	49444.11
733.05	49317.14
733.23	49192.21
733.42	49349.90
733.61	49304.85
733.79	49259.79
733.98	49814.79
734.17	49755.40
734.35	49044.76
734.54	49517.84
734.73	49468.69
734.91	49263.89
735.10	48772.38
735.29	49583.37
735.47	48848.15
735.66	49528.08
735.84	49040.66
736.03	48862.49
736.22	49356.05
736.40	48651.55
736.59	49163.54
736.78	48565.53
736.96	48983.32
737.15	49222.93
737.33	48573.72
737.52	48641.31
737.71	48321.82
737.89	48510.24
738.08	48420.13
738.27	48368.93
738.45	49001.75
738.64	48641.31
738.82	48543.00
739.01	48518.43
739.20	48514.33
739.38	48432.41
739.57	48626.97
739.75	48483.61
739.94	48071.97
740.13	48471.32
740.31	47830.31
740.50	47881.51
740.68	48264.48
740.87	48196.90
741.06	48198.94
741.24	48053.54
741.43	48008.48
741.61	48166.18
741.80	47547.69
741.99	47803.69
742.17	47922.47
742.36	48123.17
742.54	47693.10
742.73	47826.21
742.91	47906.08
743.10	47818.02
743.29	47846.69
743.47	47756.58
743.66	47291.69
743.84	47760.68
744.03	47807.78
744.21	47236.40
744.40	47594.79
744.59	47549.74
744.77	47150.38
744.96	47437.10
745.14	47428.91
745.33	47619.37
745.51	47291.69
745.70	47037.75
745.88	46867.76
746.07	47035.70
746.26	46949.68
746.44	46998.83
746.63	46511.42
746.81	46869.81
747.00	46454.08
747.18	47111.47
747.37	47078.71
747.55	46900.53
747.74	47019.31
747.92	46798.13
748.11	46660.92
748.29	46302.53
748.48	46669.11
748.66	46224.70
748.85	46507.32
749.03	46638.39
749.22	46433.60
749.41	46232.89
749.59	46359.87
749.78	46333.24
749.96	46079.30
750.15	46458.17
750.33	46466.36
750.52	45753.67
750.70	46392.64
750.89	45776.20
751.07	45319.50
751.26	46028.10
751.44	45581.64
751.63	45651.27
751.81	45303.12
752.00	45438.28
752.18	45772.10
752.37	45743.43
752.55	45507.91
752.74	45569.35
752.92	45442.38
753.10	45350.22
753.29	45565.26
753.47	45460.81
753.66	45014.35
753.84	45585.74
754.03	45096.27
754.21	44971.35
754.40	45524.30
754.58	45239.63
754.77	45137.23
754.95	44784.98
755.14	45131.09
755.32	44721.49
755.51	44590.42
755.69	44746.07
755.88	44911.95
756.06	44817.75
756.24	44811.60
756.43	44115.29
756.61	44551.51
756.80	44211.55
756.98	44082.53
757.17	44576.09
757.35	44430.68
757.54	44281.18
757.72	44467.55
757.90	44332.38
758.09	44246.36
758.27	44281.18
758.46	43916.64
758.64	43717.99
758.83	44250.46
759.01	44186.97
759.19	43769.19
759.38	44186.97
759.56	44008.80
759.75	43720.04
759.93	43580.78
760.12	42831.22
760.30	43416.94
760.48	43398.51
760.67	43644.26
760.85	43883.87
761.04	43586.92
761.22	43660.65
761.40	43523.43
761.59	43568.49
761.77	43267.44
761.96	43335.02
762.14	43165.04
762.32	43201.90
762.51	42950.00
762.69	42898.80
762.88	42947.95
763.06	42980.72
763.24	43076.97
763.43	43107.69
763.61	42925.42
763.80	43345.26
763.98	42767.73
764.16	42841.46
764.35	42528.12
764.53	42239.36
764.72	42794.36
764.90	42528.12
765.08	42351.99
765.27	42343.80
765.45	42188.16
765.63	42204.54
765.82	42403.19
766.00	41878.91
766.18	41874.82
766.37	42380.67
766.55	41631.11
766.74	42061.18
766.92	41717.12
767.10	42128.77
767.29	41647.49
767.47	41440.65
767.65	41817.47
767.84	41391.50
768.02	41833.86
768.20	41141.64
768.39	41395.59
768.57	41811.33
768.75	41551.24
768.94	41211.28
769.12	41287.05
769.30	41137.55
769.49	41440.65
769.67	41274.76
769.85	40701.33
770.04	41014.67
770.22	41104.78
770.40	40930.70
770.59	41162.12
770.77	41072.01
770.95	40971.66
771.14	40750.48
771.32	40457.62
771.50	40560.02
771.69	40715.67
771.87	40797.59
772.05	40312.22
772.24	40428.95
772.42	40615.32
772.60	40502.68
772.78	40172.96
772.97	40330.65
773.15	40693.14
773.33	40471.96
773.52	40361.37
773.70	40353.18
773.88	40185.24
774.07	40476.05
774.25	40271.26
774.43	40334.74
774.61	40484.25
774.80	40244.63
774.98	40285.59
775.16	40435.10
775.34	39980.45
775.53	40306.07
775.71	40730.00
775.89	40152.48
776.08	40517.01
776.26	40398.23
776.44	40453.53
776.62	40730.00
776.81	40199.58
776.99	40510.87
777.17	40338.84
777.35	40652.18
777.54	40431.00
777.72	40240.54
777.90	40359.32
778.08	40801.68
778.27	40517.01
778.45	40942.99
778.63	41024.91
778.81	40453.53
779.00	41037.20
779.18	40869.26
779.36	40887.70
779.54	40816.02
779.73	40545.69
779.91	41127.31
780.09	40924.56
780.27	41078.16
780.46	41106.83
780.64	41006.48
780.82	40750.48
781.00	41051.53
781.19	41043.34
781.37	41194.89
781.55	41190.80
781.73	41358.73
781.91	41436.55
782.10	41006.48
782.28	41268.62
782.46	41465.22
782.64	41282.95
782.82	41192.84
783.01	41131.40
783.19	41203.08
783.37	41672.07
783.55	41168.27
783.74	42077.57
783.92	41096.59
784.10	41710.98
784.28	41635.20
784.46	41354.63
784.64	40932.75
784.83	41305.48
785.01	41334.15
785.19	41209.23
785.37	41461.13
785.55	41489.80
785.74	40756.63
785.92	41080.21
786.10	41303.43
786.28	41536.90
786.46	41276.81
786.64	40738.19
786.83	41246.09
787.01	41127.31
787.19	41000.33
787.37	40947.09
787.55	41082.25
787.74	40674.71
787.92	40754.58
788.10	40869.26
788.28	40232.35
788.46	40934.80
788.64	40484.25
788.82	41098.64
789.01	40742.29
789.19	40555.93
789.37	40459.67
789.55	40424.86
789.73	39853.47
789.91	40531.35
790.09	40363.42
790.28	40349.08
790.46	39962.01
790.64	40664.47
790.82	40465.81
791.00	39779.74
791.18	39720.35
791.36	39740.83
791.55	39890.34
791.73	39566.76
791.91	39536.04
792.09	39857.57
792.27	39640.48
792.45	40015.26
792.63	39744.93
792.81	39656.87
793.00	39867.81
793.18	39665.06
793.36	39232.94
793.54	39181.74
793.72	39112.11
793.90	39003.56
794.08	39101.87
794.26	39034.28
794.44	38401.46
794.62	38792.62
794.81	38962.61
794.99	38940.08
795.17	39058.86
795.35	38786.48
795.53	38526.39
795.71	38655.41
795.89	38258.10
796.07	38307.26
796.25	38448.57
796.43	38274.49
796.61	38340.02
796.80	37895.61
796.98	37877.18
797.16	37758.40
797.34	38075.84
797.52	37838.27
797.70	37895.61
797.88	37512.64
798.06	37410.25
798.24	37432.77
798.42	37346.76
798.60	37338.57
798.78	37735.87
798.96	37273.03
799.14	36955.60
799.32	37367.24
799.51	36552.15
799.69	37103.05
799.87	37049.80
800.05	36951.50
800.23	36654.54
800.41	36341.21
800.59	36621.78
800.77	36474.32
800.95	36021.72
801.13	36097.50
801.31	35882.46
801.49	36107.74
801.67	36226.52
801.85	35997.15
802.03	36074.97
802.21	35618.27
802.39	35769.82
802.57	35696.10
802.75	35696.10
802.93	35644.90
803.11	35319.27
803.29	35714.53
803.47	35438.05
803.65	35341.80
803.83	35528.16
804.01	35540.45
804.19	34909.68
804.37	35444.20
804.55	35155.43
804.73	34971.11
804.91	34588.14
805.09	34792.94
805.27	34647.54
805.45	34756.08
805.63	34899.44
805.81	34835.95
805.99	34764.27
806.17	34940.39
806.35	34477.55
806.53	34289.14
806.71	34344.44
806.89	34504.18
807.07	34635.25
807.25	34174.45
807.43	34065.91
807.61	34160.12
807.79	34176.50
807.97	33891.83
808.15	33824.25
808.33	33793.53
808.51	33713.66
808.69	34043.38
808.87	33424.90
809.05	33609.22
809.23	33543.68
809.41	33494.53
809.59	33277.44
809.77	33492.48
809.95	33101.32
810.13	33488.38
810.31	33144.33
810.49	33027.59
810.67	33056.26
810.84	33117.70
811.02	32898.57
811.20	32736.78
811.38	32935.43
811.56	32552.46
811.74	32718.35
811.92	32839.18
812.10	32912.91
812.28	32587.28
812.46	32357.91
812.64	32341.52
812.82	32536.08
813.00	32452.11
813.18	32177.68
813.36	31995.42
813.53	32075.29
813.71	31991.32
813.89	31976.98
814.07	31991.32
814.25	32196.12
814.43	31956.50
814.61	31909.40
814.79	31612.45
814.97	31528.48
815.15	31684.12
815.33	31616.54
815.50	31381.03
815.68	31632.93
815.86	31489.57
816.04	31350.31
816.22	31354.40
816.40	31321.63
816.58	31196.71
816.76	31155.75
816.94	31225.38
817.11	31387.17
817.29	31229.48
817.47	31143.46
817.65	30402.10
817.83	30918.18
818.01	30901.80
818.19	30512.69
818.37	30656.04
818.54	30395.95
818.72	30551.60
818.90	30774.83
819.08	30623.28
819.26	30799.40
819.44	30584.37
819.62	30594.61
819.80	30436.91
819.97	30864.94
820.15	30455.34
820.33	30391.86
820.51	30420.53
820.69	30297.65
820.87	30275.12
821.05	30398.00
821.22	30135.86
821.40	30199.35
821.58	29916.73
821.76	29865.53
821.94	29855.29
822.12	29976.12
822.29	30082.61
822.47	29384.26
822.65	30072.37
822.83	29806.14
823.01	29726.27
823.19	29775.42
823.36	29292.10
823.54	29257.28
823.72	29314.62
823.90	29349.44
824.08	28915.27
824.25	28970.57
824.43	29058.63
824.61	28790.34
824.79	28937.80
824.97	29115.97
825.15	29177.41
825.32	29150.79
825.50	28833.35
825.68	29124.16
825.86	29146.69
826.04	28866.12
826.21	28878.41
826.39	28823.11
826.57	28589.64
826.75	28517.96
826.93	28399.18
827.10	28468.81
827.28	28419.66
827.46	28952.13
827.64	28657.23
827.81	28366.42
827.99	28364.37
828.17	28241.49
828.35	28597.84
828.53	28229.20
828.70	28360.27
828.88	28227.15
829.06	28243.54
829.24	28137.04
829.41	28145.23
829.59	28227.15
829.77	27883.09
829.95	28057.17
830.12	28003.92
830.30	27895.38
830.48	27897.43
830.66	28042.84
830.84	27846.23
831.01	28034.64
831.19	27559.52
831.37	27678.30
831.55	27401.82
831.72	27309.66
831.90	27610.71
832.08	27506.27
832.25	27922.01
832.43	27649.63
832.61	27147.87
832.79	27039.33
832.96	26918.50
833.14	27156.07
833.32	27088.48
833.50	27299.42
833.67	27301.47
833.85	27203.17
834.03	26758.76
834.20	27176.55
834.38	26918.50
834.56	27344.48
834.74	26693.22
834.91	27111.01
835.09	26650.22
835.27	26621.55
835.44	26809.96
835.62	26349.17
835.80	26719.85
835.98	26527.34
836.15	26265.20
836.33	26521.20
836.51	26705.51
836.68	26283.63
836.86	26652.27
837.04	26381.93
837.21	26437.23
837.39	26293.87
837.57	26560.11
837.75	26355.31
837.92	26013.30
838.10	26148.46
838.28	26134.13
838.45	25960.05
838.63	25880.18
838.81	25863.80
838.98	25843.32
839.16	26003.06
839.34	25992.82
839.51	25828.98
839.69	25745.02
839.87	25865.85
840.04	25919.09
840.22	25998.96
840.40	25728.63
840.57	25280.13
840.75	25712.25
840.93	25366.14
841.10	25519.74
841.28	25581.18
841.46	25749.11
841.63	25505.40
841.81	25366.14
841.98	25400.96
842.16	25906.80
842.34	25532.03
842.51	24993.41
842.69	25413.24
842.87	25243.26
843.04	25329.28
843.22	24929.92
843.40	24876.68
843.57	25036.42
843.75	25147.01
843.92	24981.12
844.10	24991.36
844.28	24938.12
844.45	25163.39
844.63	24825.48
844.81	24815.24
844.98	24989.31
845.16	24462.99
845.33	24653.45
845.51	25046.66
845.69	24422.03
845.86	24317.58
846.04	24538.76
846.21	24684.17
846.39	24284.81
846.57	24458.89
846.74	24206.99
846.92	24565.39
847.09	24555.15
847.27	23873.17
847.45	24245.90
847.62	24346.25
847.80	24225.42
847.97	23877.27
848.15	23795.35
848.32	23819.92
848.50	23844.50
848.68	23809.68
848.85	23828.12
849.03	23799.44
849.20	23912.08
849.38	23926.42
849.56	23950.99
849.73	23633.56
849.91	23447.19
850.08	23799.44
850.26	23477.91
850.43	23715.48
850.61	23334.56
850.78	23398.04
850.96	23606.94
851.14	23232.16
851.31	23907.99
851.49	23439.00
851.66	23561.88
851.84	23424.67
852.01	23373.47
852.19	23244.45
852.36	23355.04
852.54	23396.00
852.71	23183.01
852.89	23518.87
853.07	23008.93
853.24	23078.56
853.42	22929.06
853.59	22791.84
853.77	22937.25
853.94	22984.35
854.12	23076.51
854.29	22599.34
854.47	22884.00
854.64	22873.76
854.82	22634.15
854.99	22972.07
855.17	22630.05
855.34	22521.51
855.52	22922.91
855.69	22671.01
855.87	22337.20
856.04	22281.90
856.22	22496.94
856.39	22382.25
856.57	22468.27
856.74	22152.88
856.92	22550.18
857.09	22281.90
857.27	22308.52
857.44	22292.14
857.62	22292.14
857.79	22357.67
857.97	22261.42
858.14	22038.19
858.32	22171.31
858.49	22220.46
858.67	22073.01
858.84	21874.35
859.02	21851.83
859.19	21909.17
859.37	21943.99
859.54	21806.77
859.72	21903.03
859.89	21954.22
860.06	21886.64
860.24	21704.37
860.41	21855.92
860.59	21397.18
860.76	21819.06
860.94	21454.52
861.11	21575.35
861.29	21202.62
861.46	21620.41
861.64	21395.13
861.81	21384.89
861.98	21335.74
862.16	21225.15
862.33	21249.72
862.51	21292.73
862.68	21337.79
862.86	21339.83
863.03	21345.98
863.21	21419.71
863.38	21044.93
863.55	20977.34
863.73	21022.40
863.90	21247.68
864.08	20793.03
864.25	20750.02
864.43	20979.39
864.60	21046.97
864.77	20827.84
864.95	20666.05
865.12	20739.78
865.30	20913.86
865.47	20629.19
865.64	20717.25
865.82	20772.55
865.99	20567.75
866.17	20756.16
866.34	20553.41
866.51	20342.47
866.69	20586.18
866.86	20442.82
867.04	20448.97
867.21	20483.78
867.38	20278.99
867.56	20467.40
867.73	20192.97
867.91	20244.17
868.08	20231.88
868.25	20121.29
868.43	20002.51
868.60	20178.64
868.78	20014.80
868.95	20315.85
869.12	19916.50
869.30	20014.80
869.47	20109.01
869.64	19703.51
869.82	19848.91
869.99	19924.69
870.16	19887.82
870.34	19730.13
870.51	20047.57
870.69	19365.59
870.86	19717.84
871.03	19799.76
871.21	19314.39
871.38	19820.24
871.55	19633.88
871.73	19289.82
871.90	19504.85
872.07	19121.88
872.25	19312.35
872.42	19164.89
872.59	19046.11
872.77	19437.27
872.94	19011.29
873.11	19089.12
873.29	19029.73
873.46	18941.66
873.63	19035.87
873.81	18869.98
873.98	18818.78
874.15	18669.28
874.33	18624.23
874.50	18728.67
874.67	18890.46
874.85	18777.83
875.02	18663.14
875.19	18675.43
875.37	18505.45
875.54	18654.95
875.71	18460.39
875.88	18386.66
876.06	18470.63
876.23	18298.60
876.40	18380.52
876.58	18374.38
876.75	18294.50
876.92	18194.15
877.10	18020.08
877.27	17919.73
877.44	18163.43
877.61	18048.75
877.79	18093.80
877.96	17860.34
878.13	17884.91
878.31	17708.79
878.48	17671.92
878.65	17805.04
878.82	17680.11
879.00	17886.96
879.17	17764.08
879.34	17671.92
879.51	17567.48
879.69	17606.39
879.86	17665.78
880.03	17362.68
880.21	17329.91
880.38	17360.63
880.55	17319.67
880.72	17071.87
880.90	17295.10
881.07	17323.77
881.24	17485.56
881.41	17381.11
881.59	17184.51
881.76	17213.18
881.93	17331.96
882.10	17159.93
882.28	17073.92
882.45	17278.71
882.62	17075.96
882.79	17338.10
882.96	16740.10
883.14	17108.73
883.31	17180.41
883.48	17057.53
883.65	17080.06
883.83	17080.06
884.00	16989.95
884.17	16948.99
884.34	16809.73
884.51	16502.53
884.69	16830.21
884.86	17213.18
885.03	16772.86
885.20	16795.39
885.38	16842.50
885.55	16901.89
885.72	16592.64
885.89	16674.56
886.06	16848.64
886.24	16611.07
886.41	16473.86
886.58	16766.72
886.75	17028.86
886.92	16545.54
887.10	16543.49
887.27	16389.89
887.44	16547.59
887.61	16723.71
887.78	16627.46
887.95	16572.16
888.13	16250.63
888.30	16080.65
888.47	16191.24
888.64	16172.81
888.81	16240.39
888.99	16121.61
889.16	15896.33
889.33	16115.47
889.50	16025.36
889.67	16027.40
889.84	16133.90
890.01	16031.50
890.19	16041.74
890.36	16004.88
890.53	16156.43
890.70	15832.85
890.87	15654.67
891.04	15793.94
891.22	16070.41
891.39	15726.35
891.56	15828.75
891.73	15959.82
891.90	15742.74
892.07	15251.22
892.24	15435.54
892.42	15607.57
892.59	15560.47
892.76	15603.47
892.93	15582.99
893.10	15654.67
893.27	15539.99
893.44	15486.74
893.61	15308.57
893.79	15464.21
893.96	15511.32
894.13	15286.04
894.30	15464.21
894.47	15658.77
894.64	15660.82
894.81	15367.96
894.98	15343.38
895.15	15183.64
895.33	15191.83
895.50	15210.26
895.67	15392.53
895.84	15329.05
896.01	15122.20
896.18	15306.52
896.35	15398.68
896.52	15421.20
896.69	15339.29
896.86	15243.03
897.04	15101.72
897.21	15150.87
897.38	15114.01
897.55	15283.99
897.72	15247.13
897.89	15179.54
898.06	15265.56
898.23	15314.71
898.40	15236.89
898.57	15257.37
898.74	15349.53
898.91	15009.56
899.08	15105.82
899.26	15226.65
899.43	15183.64
899.60	15372.05
899.77	15216.41
899.94	15148.82
900.11	14821.15
900.28	15157.02
900.45	14847.77
900.62	14796.57
900.79	14995.23
900.96	14999.32
901.13	15228.70
901.30	14999.32
901.47	14876.44
901.64	14944.03
901.81	15085.34
901.98	15187.74
902.15	15126.30
902.32	15091.48
902.49	15105.82
902.66	14921.50
902.83	15230.74
903.01	15251.22
903.18	14913.31
903.35	15224.60
903.52	15077.15
903.69	15005.47
903.86	15327.00
904.03	15148.82
904.20	15060.76
904.37	15159.06
904.54	14991.13
904.71	14960.41
904.88	14966.56
905.05	15025.95
905.22	15054.62
905.39	15064.86
905.56	15085.34
905.73	15001.37
905.90	15083.29
906.07	14982.94
906.24	15114.01
906.41	14911.26
906.58	14876.44
906.75	15165.21
906.92	14987.04
907.09	15071.00
907.26	14974.75
907.43	14901.02
907.60	14862.11
907.77	15027.99
907.93	14982.94
908.10	15087.39
908.27	15007.52
908.44	15001.37
908.61	15007.52
908.78	15023.90
908.95	15230.74
909.12	14839.58
909.29	15083.29
909.46	14806.81
909.63	14937.88
909.80	14827.29
909.97	14835.49
910.14	14776.09
910.31	14839.58
910.48	14896.92
910.65	14954.27
910.82	14661.41
910.99	14737.18
911.16	14874.40
911.33	14917.40
911.50	14618.40
911.66	14747.42
911.83	14763.81
912.00	14458.66
912.17	14569.25
912.34	14524.19
912.51	14630.69
912.68	14706.46
912.85	14718.75
913.02	14718.75
913.19	14534.43
913.36	14532.39
913.53	14542.63
913.70	14389.03
913.86	14810.91
914.03	14403.36
914.20	14429.99
914.37	14378.79
914.54	14593.83
914.71	14468.90
914.88	14421.80
915.05	14184.23
915.22	14173.99
915.39	14499.62
915.55	14233.38
915.72	13987.63
915.89	14047.02
916.06	14061.35
916.23	14016.30
916.40	13926.19
916.57	13948.72
916.74	13946.67
916.91	13874.99
917.07	14083.88
917.24	13942.57
917.41	13821.74
917.58	13991.72
917.75	13858.60
917.92	13645.62
918.09	13780.78
918.26	13791.02
918.42	13659.95
918.59	13565.74
918.76	13553.46
918.93	13408.05
919.10	13504.31
919.27	13348.66
919.44	13428.53
919.60	13526.83
919.77	13432.63
919.94	13168.44
920.11	13289.27
920.28	13242.17
920.45	13154.10
920.61	13094.71
920.78	13231.93
920.95	13006.65
921.12	13139.77
921.29	12857.15
921.46	12959.55
921.62	12846.91
921.79	13020.99
921.96	12769.09
922.13	12937.02
922.30	12689.21
922.47	12648.26
922.63	12646.21
922.80	12504.90
922.97	12468.03
923.14	12300.10
923.31	12435.27
923.47	12097.35
923.64	12476.23
923.81	12367.68
923.98	12365.64
924.15	11945.80
924.32	12388.16
924.48	12365.64
924.65	12316.48
924.82	12126.02
924.99	12232.52
925.15	11749.20
925.32	12173.13
925.49	11956.04
925.66	11769.68
925.83	12035.91
925.99	11779.92
926.16	11775.82
926.33	11751.24
926.50	11532.11
926.67	11882.31
926.83	11542.35
927.00	11644.75
927.17	11716.43
927.34	11702.09
927.50	11272.02
927.67	11763.53
927.84	11343.70
928.01	11390.80
928.17	11046.74
928.34	11245.40
928.51	11325.27
928.68	11237.20
928.84	11145.05
929.01	10995.54
929.18	10829.66
929.35	10932.06
929.51	10901.34
929.68	10837.85
929.85	10710.88
930.02	10665.82
930.18	10538.85
930.35	10788.70
930.52	10628.96
930.69	10604.38
930.85	10426.21
931.02	10432.35
931.19	10393.44
931.36	10444.64
931.52	10338.15
931.69	10444.64
931.86	10260.32
932.02	10379.11
932.19	10174.31
932.36	10139.49
932.53	10198.88
932.69	9940.84
932.86	10166.12
933.03	9932.65
933.19	9793.39
933.36	9981.80
933.53	9961.32
933.70	9889.64
933.86	9854.83
934.03	9744.24
934.20	9482.10
934.36	9877.35
934.53	9506.67
934.70	9166.71
934.86	9535.34
935.03	9230.20
935.20	9199.48
935.36	9320.31
935.53	8931.19
935.70	9154.42
935.86	9146.23
936.03	8920.95
936.20	8808.31
936.36	8781.69
936.53	8660.86
936.70	8679.29
936.86	8826.75
937.03	8675.20
937.20	8347.52
937.36	8372.10
937.53	8138.63
937.70	8036.23
937.86	7976.84
938.03	8025.99
938.20	8114.05
938.36	7858.06
938.53	7735.18
938.70	7673.74
938.86	7630.73
939.03	7497.61
939.20	7557.00
939.36	7360.40
939.53	7270.29
939.70	7448.46
939.86	7143.32
940.03	6995.86
940.19	6954.90
940.36	6784.92
940.53	6983.57
940.69	6807.45
940.86	6721.43
941.03	6596.51
941.19	6535.07
941.36	6510.49
941.52	6610.84
941.69	6404.00
941.86	6490.01
942.02	6287.26
942.19	6244.26
942.35	6375.33
942.52	6178.72
942.69	5978.02
942.85	5910.44
943.02	6059.94
943.18	6051.75
943.35	5892.01
943.52	5943.21
943.68	5799.85
943.85	5773.22
944.01	5709.74
944.18	5588.91
944.35	5713.83
944.51	5697.45
944.68	5588.91
944.84	5539.76
945.01	5566.38
945.17	5633.96
945.34	5554.09
945.51	5539.76
945.67	5521.32
945.84	5455.79
946.00	5386.16
946.17	5353.39
946.33	5447.60
946.50	5513.13
946.67	5545.90
946.83	5271.47
947.00	5523.37
947.16	5412.78
947.33	5345.20
947.49	5420.97
947.66	5373.87
947.82	5476.27
947.99	5463.98
948.16	5451.69
948.32	5357.49
948.49	5439.40
948.65	5388.21
948.82	5277.62
948.98	5373.87
949.15	5375.92
949.31	5484.46
949.48	5560.24
949.64	5410.73
949.81	5341.10
949.97	5302.19
950.14	5601.19
950.30	5328.81
950.47	5373.87
950.63	5400.49
950.80	5406.64
950.96	5410.73
951.13	5463.98
951.30	5345.20
951.46	5494.70
951.63	5648.30
951.79	5541.80
951.96	5636.01
952.12	5461.93
952.29	5535.66
952.45	5367.73
952.62	5457.84
952.78	5496.75
952.94	5449.64
953.11	5509.04
953.27	5484.46
953.44	5621.67
953.60	5472.17
953.77	5463.98
953.93	5484.46
954.10	5416.88
954.26	5652.39
954.43	5560.24
954.59	5683.11
954.76	5687.21
954.92	5550.00
955.09	5597.10
955.25	5564.33
955.42	5599.15
955.58	5703.59
955.75	5656.49
955.91	5627.82
956.07	5564.33
956.24	5717.93
956.40	5558.19
956.57	5595.05
956.73	5742.50
956.90	5629.87
957.06	5564.33
957.23	5644.20
957.39	5711.78
957.56	5623.72
957.72	5517.23
957.88	5541.80
958.05	5701.54
958.21	5805.99
958.38	5660.59
958.54	5574.57
958.71	5660.59
958.87	5617.58
959.03	5509.04
959.20	5816.23
959.36	5648.30
959.53	5570.48
959.69	5631.91
959.85	5685.16
960.02	5597.10
960.18	5619.63
960.35	5570.48
960.51	5672.87
960.68	5627.82
960.84	5691.31
961.00	5439.40
961.17	5588.91
961.33	5535.66
961.50	5576.62
961.66	5623.72
961.82	5613.48
961.99	5660.59
962.15	5689.26
962.31	5578.67
962.48	5459.88
962.64	5681.07
962.81	5498.80
962.97	5685.16
963.13	5574.57
963.30	5504.94
963.46	5367.73
963.62	5597.10
963.79	5574.57
963.95	5443.50
964.12	5488.56
964.28	5670.83
964.44	5445.55
964.61	5523.37
964.77	5498.80
964.93	5529.52
965.10	5513.13
965.26	5492.65
965.42	5451.69
965.59	5377.97
965.75	5355.44
965.92	5451.69
966.08	5455.79
966.24	5506.99
966.41	5511.08
966.57	5541.80
966.73	5371.82
966.90	5494.70
967.06	5302.19
967.22	5494.70
967.39	5349.29
967.55	5294.00
967.71	5367.73
967.88	5226.42
968.04	5341.10
968.20	5308.34
968.37	5394.35
968.53	5314.48
968.69	5283.76
968.85	5275.57
969.02	5388.21
969.18	5406.64
969.34	5289.90
969.51	5312.43
969.67	5238.70
969.83	5175.22
970.00	5246.90
970.16	5214.13
970.32	5287.86
970.48	5439.40
970.65	5265.33
970.81	5025.72
970.97	5160.88
971.14	5033.91
971.30	5218.22
971.46	5105.59
971.63	5095.35
971.79	5054.39
971.95	5111.73
972.11	5050.29
972.28	5121.97
972.44	5105.59
972.60	4884.41
972.76	5078.96
972.93	4999.09
973.09	5150.64
973.25	5146.55
973.42	4951.99
973.58	5158.83
973.74	5001.14
973.90	5023.67
974.07	4919.22
974.23	4913.08
974.39	5109.68
974.55	4954.04
974.72	5025.72
974.88	4810.68
975.04	4892.60
975.20	4843.45
975.37	4976.56
975.53	4794.29
975.69	4898.74
975.85	4929.46
976.01	5042.10
976.18	4925.36
976.34	4882.36
976.50	4911.03
976.66	4845.49
976.83	4870.07
976.99	4775.86
977.15	4829.11
977.31	4794.29
977.47	4939.70
977.64	4804.53
977.80	4675.51
977.96	4632.51
978.12	4612.03
978.29	4708.28
978.45	4581.31
978.61	4655.03
978.77	4681.66
978.93	4739.00
979.10	4665.27
979.26	4739.00
979.42	4698.04
979.58	4466.62
979.74	4683.70
979.91	4628.41
980.07	4589.50
980.23	4652.98
980.39	4470.72
980.55	4507.58
980.71	4693.94
980.88	4452.28
981.04	4493.24
981.20	4556.73
981.36	4698.04
981.52	4521.92
981.68	4358.08
981.85	4581.31
982.01	4450.24
982.17	4433.85
982.33	4435.90
982.49	4425.66
982.65	4409.28
982.82	4405.18
982.98	4511.68
983.14	4251.58
983.30	4409.28
983.46	4374.46
983.62	4476.86
983.79	4210.62
983.95	4284.35
984.11	4218.82
984.27	4263.87
984.43	4249.54
984.59	4284.35
984.75	4310.97
984.91	4214.72
985.08	4302.78
985.24	4165.57
985.40	4243.39
985.56	4231.10
985.72	4132.80
985.88	4159.42
986.04	4134.85
986.20	4134.85
986.37	4255.68
986.53	4069.31
986.69	4126.66
986.85	4067.27
987.01	4024.26
987.17	4251.58
987.33	4124.61
987.49	4116.42
987.65	4157.38
987.82	4032.45
987.98	3958.72
988.14	4030.40
988.30	4028.35
988.46	3874.76
988.62	3987.40
988.78	3876.80
988.94	3915.72
989.10	3975.11
989.26	3909.57
989.42	3913.67
989.59	3827.65
989.75	3919.81
989.91	3895.24
990.07	3919.81
990.23	3819.46
990.39	3866.56
990.55	3907.52
990.71	3837.89
990.87	3821.51
991.03	3940.29
991.19	3780.55
991.35	3919.81
991.51	3819.46
991.67	3899.33
991.83	3747.78
992.00	3805.13
992.16	3710.92
992.32	3866.56
992.48	3801.03
992.64	3723.21
992.80	3657.67
992.96	3766.21
993.12	3669.96
993.28	3737.54
993.44	3663.82
993.60	3639.24
993.76	3678.15
993.92	3751.88
994.08	3672.01
994.24	3614.66
994.40	3706.82
994.56	3622.86
994.72	3598.28
994.88	3604.42
995.04	3518.41
995.20	3551.18
995.36	3594.19
995.52	3624.90
995.68	3620.81
995.84	3551.18
996.00	3585.99
996.16	3561.42
996.32	3506.12
996.48	3477.45
996.64	3491.79
996.80	3430.35
996.96	3514.31
997.12	3485.64
997.28	3475.40
997.44	3387.34
997.60	3483.59
997.76	3428.30
997.92	3403.72
998.08	3487.69
998.24	3428.30
998.40	3301.33
998.56	3368.91
998.72	3321.81
998.88	3325.90
999.04	3284.94
999.20	3459.02
999.36	3342.28
999.52	3430.35
999.68	3385.29
999.84	3377.10
1000.00	3229.65
1000.16	3403.72
1000.32	3215.31
1000.48	3221.45
1000.64	3170.26
1000.80	3252.17
1000.95	3104.72
1001.11	3313.61
1001.27	3147.73
1001.43	3254.22
1001.59	3092.43
1001.75	3174.35
1001.91	3192.78
1002.07	3117.01
1002.23	3196.88
1002.39	3172.30
1002.55	3217.36
1002.71	3164.11
1002.87	3184.59
1003.03	3074.00
1003.19	3059.67
1003.34	3149.78
1003.50	3030.99
1003.66	3198.93
1003.82	3147.73
1003.98	3074.00
1004.14	3151.82
1004.30	3039.19
1004.46	2977.75
1004.62	3071.95
1004.78	3026.90
1004.94	3006.42
1005.09	3069.91
1005.25	3039.19
1005.41	3006.42
1005.57	2930.64
1005.73	2961.36
1005.89	2940.88
1006.05	3002.32
1006.21	3000.27
1006.37	2955.22
1006.52	2883.54
1006.68	2901.97
1006.84	2947.03
1007.00	2887.64
1007.16	2940.88
1007.32	2959.31
1007.48	2942.93
1007.64	2940.88
1007.79	2721.75
1007.95	2852.82
1008.11	2930.64
1008.27	2885.59
1008.43	2904.02
1008.59	2879.44
1008.75	2906.07
1008.91	2858.96
1009.06	2838.48
1009.22	2877.40
1009.38	2844.63
1009.54	2867.16
1009.70	2779.09
1009.86	2873.30
1010.01	2850.77
1010.17	2762.71
1010.33	2809.81
1010.49	2736.09
1010.65	2793.43
1010.81	2721.75
1010.96	2699.22
1011.12	2670.55
1011.28	2701.27
1011.44	2766.81
1011.60	2727.89
1011.76	2656.22
1011.91	2801.62
1012.07	2619.35
1012.23	2535.39
1012.39	2629.59
1012.55	2656.22
1012.71	2658.26
1012.86	2627.54
1013.02	2867.16
1013.18	2641.88
1013.34	2625.50
1013.50	2688.98
1013.65	2723.80
1013.81	2621.40
1013.97	2643.93
1014.13	2594.78
1014.29	2617.30
1014.44	2602.97
1014.60	2625.50
1014.76	2613.21
1014.92	2643.93
1015.07	2588.63
1015.23	2553.82
1015.39	2490.33
1015.55	2562.01
1015.71	2447.32
1015.86	2498.52
1016.02	2488.28
1016.18	2435.03
1016.34	2514.91
1016.49	2506.71
1016.65	2619.35
1016.81	2488.28
1016.97	2527.19
1017.12	2525.15
1017.28	2412.51
1017.44	2379.74
1017.60	2420.70
1017.75	2439.13
1017.91	2566.10
1018.07	2426.84
1018.23	2404.32
1018.38	2389.98
1018.54	2469.85
1018.70	2412.51
1018.86	2373.60
1019.01	2383.84
1019.17	2324.44
1019.33	2465.75
1019.49	2432.99
1019.64	2424.80
1019.80	2367.45
1019.96	2412.51
1020.12	2445.27
1020.27	2381.79
1020.43	2320.35
1020.59	2469.85
1020.74	2428.89
1020.90	2398.17
1021.06	2293.72
1021.22	2361.31
1021.37	2338.78
1021.53	2277.34
1021.69	2338.78
1021.84	2199.52
1022.00	2375.64
1022.16	2258.91
1022.31	2308.06
1022.47	2363.36
1022.63	2351.07
1022.79	2199.52
1022.94	2314.20
1023.10	2332.64
1023.26	2248.67
1023.41	2238.43
1023.57	2330.59
1023.73	2310.11
1023.88	2271.20
1024.04	2179.04
1024.20	2164.70
1024.35	2277.34
1024.51	2238.43
1024.67	2263.01
1024.82	2248.67
1024.98	2166.75
1025.14	2303.96
1025.29	2215.90
1025.45	2281.44
1025.61	2105.31
1025.76	2154.46
1025.92	2142.18
1026.08	2160.61
1026.23	2269.15
1026.39	2181.09
1026.55	2295.77
1026.70	2150.37
1026.86	2209.76
1027.02	2201.57
1027.17	2140.13
1027.33	2164.70
1027.48	2115.55
1027.64	2207.71
1027.80	2045.92
1027.95	2189.28
1028.11	2058.21
1028.27	2097.12
1028.42	2215.90
1028.58	2158.56
1028.73	2125.79
1028.89	2035.68
1029.05	2224.09
1029.20	2066.40
>>>>>End Processed Spectral Data<<<<<
