SpectraSuite Data File
++++++++++++++++++++++++++++++++++++
Date: Fri Jun 02 14:44:36 CEST 2017
User: INFO_000
Dark Spectrum Present: No
Reference Spectrum Present: No
Number of Sampled Component Spectra: 1
Spectrometers: USB4H00879
Integration Time (usec): 80000 (USB4H00879)
Spectra Averaged: 1 (USB4H00879)
Boxcar Smoothing: 0 (USB4H00879)
Correct for Electrical Dark: No (USB4H00879)
Strobe/Lamp Enabled: No (USB4H00879)
Correct for Detector Non-linearity: No (USB4H00879)
Correct for Stray Light: No (USB4H00879)
Number of Pixels in Processed Spectrum: 3648
>>>>>Begin Processed Spectral Data<<<<<
345.13	1331.18
345.34	1331.18
345.56	1331.18
345.78	1310.70
345.99	1269.74
346.21	1624.04
346.42	1675.24
346.64	1650.66
346.86	1834.98
347.07	1652.71
347.29	1748.97
347.50	1603.56
347.72	1667.05
347.94	1718.25
348.15	1621.99
348.37	1615.85
348.59	1642.47
348.80	1599.46
349.02	1875.94
349.23	1902.56
349.45	1806.31
349.67	1822.69
349.88	1740.77
350.10	1935.33
350.31	1804.26
350.53	1759.21
350.75	1968.10
350.96	1732.58
351.18	1822.69
351.39	1910.75
351.61	1794.02
351.82	1896.42
352.04	1906.66
352.26	1826.79
352.47	1925.09
352.69	1920.99
352.90	1734.63
353.12	1861.60
353.34	1769.44
353.55	1961.95
353.77	1843.17
353.98	1837.03
354.20	1816.55
354.41	1912.80
354.63	1931.23
354.85	2021.35
355.06	1875.94
355.28	1771.49
355.49	1916.90
355.71	1902.56
355.92	1908.71
356.14	1886.18
356.35	1914.85
356.57	1923.04
356.79	1984.48
357.00	1861.60
357.22	1933.28
357.43	1818.60
357.65	1873.89
357.86	1800.16
358.08	1906.66
358.29	1982.43
358.51	1902.56
358.72	1949.67
358.94	1900.52
359.16	1984.48
359.37	1953.76
359.59	1955.81
359.80	2041.82
360.02	1935.33
360.23	1990.63
360.45	2058.21
360.66	1939.43
360.88	1806.31
361.09	1939.43
361.31	1957.86
361.52	1970.15
361.74	2011.11
361.95	2029.54
362.17	1976.29
362.38	2011.11
362.60	2031.58
362.81	2062.30
363.03	1966.05
363.24	2068.45
363.46	2068.45
363.67	1998.82
363.89	2052.06
364.10	2029.54
364.32	2000.87
364.53	2037.73
364.75	1875.94
364.96	2070.50
365.18	1992.67
365.39	2035.68
365.61	1931.23
365.82	2131.94
366.04	2054.11
366.25	2017.25
366.47	2033.63
366.68	2109.41
366.90	1949.67
367.11	2078.69
367.33	2050.02
367.54	2056.16
367.76	2002.91
367.97	2064.35
368.19	1990.63
368.40	2033.63
368.62	1941.47
368.83	2043.87
369.05	2002.91
369.26	2066.40
369.48	1951.71
369.69	1935.33
369.91	2002.91
370.12	1968.10
370.33	2133.98
370.55	1918.95
370.76	2002.91
370.98	2095.07
371.19	2002.91
371.41	2097.12
371.62	2039.78
371.84	2031.58
372.05	2107.36
372.27	2021.35
372.48	2043.87
372.69	2086.88
372.91	2191.33
373.12	2183.13
373.34	2101.22
373.55	2168.80
373.77	2142.18
373.98	2045.92
374.20	2176.99
374.41	2275.29
374.62	2080.74
374.84	2150.37
375.05	2248.67
375.27	2123.74
375.48	2121.70
375.70	2150.37
375.91	2244.57
376.12	2293.72
376.34	2138.08
376.55	2174.94
376.77	2205.66
376.98	2070.50
377.19	2131.94
377.41	2144.22
377.62	2201.57
377.84	2271.20
378.05	2332.64
378.27	2195.42
378.48	2265.05
378.69	2359.26
378.91	2248.67
379.12	2254.81
379.34	2236.38
379.55	2334.68
379.76	2338.78
379.98	2230.24
380.19	2303.96
380.41	2217.95
380.62	2322.40
380.83	2232.29
381.05	2230.24
381.26	2365.40
381.47	2273.25
381.69	2338.78
381.90	2439.13
382.12	2273.25
382.33	2291.68
382.54	2244.57
382.76	2297.82
382.97	2295.77
383.19	2293.72
383.40	2381.79
383.61	2338.78
383.83	2244.57
384.04	2365.40
384.25	2365.40
384.47	2424.80
384.68	2426.84
384.89	2355.16
385.11	2361.31
385.32	2377.69
385.54	2275.29
385.75	2312.16
385.96	2322.40
386.18	2469.85
386.39	2488.28
386.60	2351.07
386.82	2490.33
387.03	2502.62
387.24	2465.75
387.46	2367.45
387.67	2422.75
387.88	2529.24
388.10	2478.04
388.31	2455.51
388.52	2613.21
388.74	2557.91
388.95	2504.67
389.16	2506.71
389.38	2447.32
389.59	2605.02
389.80	2623.45
390.02	2543.58
390.23	2637.78
390.44	2527.19
390.66	2602.97
390.87	2523.10
391.08	2625.50
391.30	2613.21
391.51	2641.88
391.72	2654.17
391.94	2654.17
392.15	2562.01
392.36	2691.03
392.58	2598.87
392.79	2633.69
393.00	2633.69
393.22	2660.31
393.43	2699.22
393.64	2789.33
393.85	2768.85
394.07	2627.54
394.28	2682.84
394.49	2811.86
394.71	2770.90
394.92	2801.62
395.13	2676.70
395.35	2815.96
395.56	2781.14
395.77	2777.05
395.98	2799.57
396.20	2869.20
396.41	2836.44
396.62	2916.31
396.84	2764.76
397.05	2822.10
397.26	2811.86
397.47	2891.73
397.69	2918.36
397.90	3065.81
398.11	2918.36
398.32	2920.40
398.54	2885.59
398.75	2883.54
398.96	2926.55
399.18	3112.91
399.39	2912.21
399.60	3004.37
399.81	2996.18
400.03	2914.26
400.24	3139.54
400.45	2985.94
400.66	3100.62
400.88	2998.23
401.09	3280.85
401.30	3145.68
401.51	3143.63
401.73	3131.34
401.94	3143.63
402.15	3104.72
402.36	3213.26
402.58	3186.64
402.79	3076.05
403.00	3090.38
403.21	3293.13
403.43	3227.60
403.64	3278.80
403.85	3190.74
404.06	3207.12
404.27	3178.45
404.49	3123.15
404.70	3125.20
404.91	3325.90
405.12	3307.47
405.34	3215.31
405.55	3428.30
405.76	3209.17
405.97	3164.11
406.19	3379.15
406.40	3278.80
406.61	3387.34
406.82	3317.71
407.03	3360.72
407.25	3237.84
407.46	3430.35
407.67	3481.55
407.88	3502.03
408.09	3356.62
408.31	3389.39
408.52	3426.25
408.73	3360.72
408.94	3325.90
409.15	3434.44
409.37	3506.12
409.58	3551.18
409.79	3616.71
410.00	3585.99
410.21	3364.81
410.43	3450.83
410.64	3461.07
410.85	3520.46
411.06	3571.66
411.27	3590.09
411.48	3698.63
411.70	3508.17
411.91	3540.94
412.12	3715.02
412.33	3559.37
412.54	3645.38
412.76	3667.91
412.97	3760.07
413.18	3639.24
413.39	3721.16
413.60	3694.54
413.81	3807.17
414.03	3581.90
414.24	3600.33
414.45	3928.00
414.66	3602.38
414.87	3721.16
415.08	3749.83
415.30	3772.36
415.51	3747.78
415.72	3870.66
415.93	3796.93
416.14	3805.13
416.35	3864.52
416.56	3774.41
416.78	3825.61
416.99	3854.28
417.20	3907.52
417.41	3934.15
417.62	3964.87
417.83	3942.34
418.04	3911.62
418.26	3899.33
418.47	3911.62
418.68	4042.69
418.89	4020.16
419.10	4206.53
419.31	3973.06
419.52	4097.99
419.73	4003.78
419.95	4112.32
420.16	3958.72
420.37	3962.82
420.58	4161.47
420.79	3899.33
421.00	4036.55
421.21	4212.67
421.42	3940.29
421.63	4059.07
421.85	4065.22
422.06	4356.03
422.27	4255.68
422.48	4169.66
422.69	4120.51
422.90	4399.04
423.11	4253.63
423.32	4267.97
423.53	4325.31
423.75	4288.45
423.96	4442.04
424.17	4347.84
424.38	4556.73
424.59	4413.37
424.80	4548.54
425.01	4442.04
425.22	4411.32
425.43	4468.67
425.64	4661.18
425.85	4698.04
426.06	4685.75
426.28	4501.44
426.49	4526.01
426.70	4421.56
426.91	4575.16
427.12	4741.05
427.33	4702.14
427.54	4620.22
427.75	4714.42
427.96	4751.29
428.17	4687.80
428.38	4757.43
428.59	4915.12
428.80	4820.92
429.01	4857.78
429.23	4917.17
429.44	4974.52
429.65	4880.31
429.86	4956.08
430.07	4640.70
430.28	4894.65
430.49	5089.20
430.70	5140.40
430.91	4960.18
431.12	4988.85
431.33	5179.31
431.54	5218.22
431.75	5150.64
431.96	5027.76
432.17	5013.43
432.38	5050.29
432.59	5386.16
432.80	5287.86
433.01	5261.23
433.22	5343.15
433.43	5328.81
433.64	5175.22
433.85	5255.09
434.06	5441.45
434.27	5193.65
434.49	5543.85
434.70	5449.64
434.91	5361.58
435.12	5463.98
435.33	5392.30
435.54	5423.02
435.75	5304.24
435.96	5511.08
436.17	5310.38
436.38	5713.83
436.59	5539.76
436.80	5478.32
437.01	5724.07
437.22	5756.84
437.43	5754.79
437.64	5550.00
437.85	5797.80
438.06	5769.13
438.27	5717.93
438.48	5767.08
438.69	5822.38
438.90	5801.90
439.11	5746.60
439.32	5975.97
439.53	5844.90
439.74	5961.64
439.95	6004.64
440.16	5928.87
440.37	6006.69
440.57	5887.91
440.78	6119.33
440.99	5885.86
441.20	6006.69
441.41	6006.69
441.62	6168.48
441.83	5924.77
442.04	6258.59
442.25	6135.71
442.46	6143.91
442.67	6170.53
442.88	6608.80
443.09	6074.28
443.30	6215.59
443.51	6266.78
443.72	6518.68
443.93	6274.98
444.14	6592.41
444.35	6223.78
444.56	6301.60
444.77	6371.23
444.98	6479.77
445.19	6584.22
445.40	6424.48
445.61	6616.99
445.81	6619.04
446.02	6614.94
446.23	6580.12
446.44	6510.49
446.65	6668.19
446.86	6768.54
447.07	6619.04
447.28	6760.34
447.49	6784.92
447.70	6576.03
447.91	6840.22
448.12	6694.81
448.33	6963.09
448.54	6803.35
448.74	6793.11
448.95	6868.89
449.16	6664.09
449.37	7204.75
449.58	6858.65
449.79	7206.80
450.00	6715.29
450.21	7012.24
450.42	7045.01
450.63	7104.40
450.84	7008.15
451.05	7088.02
451.25	6934.42
451.46	6954.90
451.67	7176.08
451.88	7329.68
452.09	7243.67
452.30	6987.67
452.51	7135.12
452.72	7376.78
452.93	7526.29
453.13	7372.69
453.34	7153.55
453.55	7202.71
453.76	7204.75
453.97	7636.88
454.18	7434.13
454.39	7546.76
454.60	7470.99
454.81	7360.40
455.01	7651.21
455.22	7434.13
455.43	7677.83
455.64	7702.41
455.85	8032.13
456.06	7831.43
456.27	7671.69
456.48	7643.02
456.68	7944.07
456.89	8011.65
457.10	7942.02
457.31	7925.64
457.52	7819.14
457.73	8060.80
457.94	8071.04
458.14	7864.20
458.35	8488.83
458.56	8370.05
458.77	8060.80
458.98	8363.90
459.19	8216.45
459.39	8421.25
459.60	8519.55
459.81	8431.49
460.02	8660.86
460.23	8519.55
460.44	8599.42
460.65	8537.98
460.85	8646.52
461.06	8808.31
461.27	8503.17
461.48	9019.25
461.69	8894.33
461.89	8550.27
462.10	8865.66
462.31	8626.04
462.52	8927.10
462.73	8832.89
462.94	9033.59
463.14	9047.93
463.35	9152.37
463.56	9463.66
463.77	9465.71
463.98	9119.60
464.18	9193.33
464.39	9383.79
464.60	9613.17
464.81	9662.32
465.02	9486.19
465.23	9629.55
465.43	9690.99
465.64	9930.60
465.85	9877.35
466.06	9627.50
466.27	10137.45
466.47	10006.38
466.68	9959.27
466.89	10116.97
467.10	10227.56
467.30	9928.55
467.51	10245.99
467.72	10524.51
467.93	10137.45
468.14	10432.35
468.34	10676.06
468.55	10514.27
468.76	10708.83
468.97	10557.28
469.17	10850.14
469.38	10809.18
469.59	10981.21
469.80	10800.99
470.01	11020.12
470.21	11048.79
470.42	11325.27
470.63	11247.44
470.84	11108.18
471.04	11267.92
471.25	11468.62
471.46	11507.54
471.67	11708.24
471.87	11540.30
472.08	11575.12
472.29	11851.60
472.50	11677.52
472.70	11773.77
472.91	11841.36
473.12	12150.60
473.33	12093.26
473.53	12130.12
473.74	12302.15
473.95	12472.13
474.16	12619.58
474.36	12580.67
474.57	12715.84
474.78	12889.92
474.99	12826.43
475.19	12697.41
475.40	13162.30
475.61	13156.15
475.81	13311.80
476.02	13522.74
476.23	13100.86
476.44	13350.71
476.64	13715.25
476.85	13858.60
477.06	13561.65
477.27	13784.88
477.47	14100.26
477.68	14024.49
477.89	14190.38
478.09	14161.70
478.30	14192.42
478.51	14206.76
478.71	14485.28
478.92	14583.59
479.13	14735.14
479.34	14798.62
479.54	14647.07
479.75	14794.53
479.96	14817.05
480.16	15314.71
480.37	15148.82
480.58	15195.93
480.78	15679.25
480.99	15505.17
481.20	15599.38
481.41	15599.38
481.61	15652.63
481.82	15722.26
482.03	15697.68
482.23	15693.58
482.44	16213.77
482.65	16111.37
482.85	16203.53
483.06	16340.74
483.27	16418.57
483.47	16545.54
483.68	16580.36
483.89	16510.72
484.09	16652.03
484.30	17020.67
484.51	16971.52
484.71	17112.83
484.92	17110.78
485.13	17282.81
485.33	17313.53
485.54	17168.12
485.75	17467.13
485.95	17751.79
486.16	17598.20
486.37	17622.77
486.57	17731.31
486.78	17624.82
486.98	17692.40
487.19	17927.92
487.40	18235.11
487.60	18048.75
487.81	18263.79
488.02	18192.11
488.22	17948.40
488.43	18468.58
488.64	18437.86
488.84	18798.31
489.05	18661.09
489.25	18861.79
489.46	18796.26
489.67	18886.37
489.87	19031.77
490.08	19033.82
490.29	18796.26
490.49	19631.83
490.70	19551.96
490.90	19396.31
491.11	19351.26
491.32	19785.43
491.52	19660.50
491.73	19615.44
491.94	19740.37
492.14	19498.71
492.35	19982.03
492.55	20209.36
492.76	20156.11
492.97	20315.85
493.17	20440.78
493.38	20446.92
493.58	20805.31
493.79	20819.65
494.00	20295.37
494.20	20924.10
494.41	20727.49
494.61	20969.15
494.82	20956.86
495.02	20879.04
495.23	21180.09
495.44	21182.14
495.64	21354.17
495.85	21348.03
496.05	21386.94
496.26	21399.23
496.47	21651.13
496.67	21491.38
496.88	21927.60
497.08	21802.68
497.29	22224.56
497.49	22015.66
497.70	22259.37
497.91	22109.87
498.11	22134.45
498.32	22238.89
498.52	22546.09
498.73	22558.38
498.93	22621.86
499.14	22714.02
499.34	22974.11
499.55	22902.43
499.76	22922.91
499.96	22918.82
500.17	22888.10
500.37	23080.61
500.58	23035.55
500.78	23369.37
500.99	23295.64
501.19	23914.13
501.40	23889.56
501.60	23414.43
501.81	23707.29
502.02	23623.32
502.22	23604.89
502.43	24067.73
502.63	24125.07
502.84	24108.69
503.04	24123.02
503.25	24182.42
503.45	24254.09
503.66	24239.76
503.86	24229.52
504.07	24718.98
504.27	24270.48
504.48	24907.40
504.68	24946.31
504.89	24993.41
505.09	25073.28
505.30	25114.24
505.50	25372.28
505.71	25249.41
505.91	25448.06
506.12	25142.91
506.32	25349.76
506.53	25575.03
506.73	25396.86
506.94	25828.98
507.14	25767.54
507.35	25861.75
507.55	26021.49
507.76	26125.94
507.96	26195.57
508.17	25976.44
508.37	25958.00
508.58	26373.74
508.78	26306.16
508.99	26400.37
509.19	26785.38
509.40	26388.08
509.60	26594.92
509.81	26545.77
510.01	26590.83
510.22	26605.16
510.42	26834.53
510.63	26891.88
510.83	27108.96
511.04	27235.94
511.24	27086.43
511.44	27018.85
511.65	27199.07
511.85	27158.11
512.06	27340.38
512.26	27401.82
512.47	27602.52
512.67	27606.62
512.88	27489.88
513.08	27311.71
513.29	27960.92
513.49	27829.85
513.69	28112.47
513.90	27590.24
514.10	27778.65
514.31	28008.02
514.51	28010.07
514.72	28038.74
514.92	28169.81
515.13	28014.16
515.33	28225.11
515.53	28278.35
515.74	28249.68
515.94	28741.19
516.15	28479.05
516.35	28235.35
516.56	28423.76
516.76	28573.26
516.96	28651.08
517.17	28853.83
517.37	28937.80
517.58	28982.85
517.78	28745.29
517.99	28747.34
518.19	29167.17
518.39	29324.86
518.60	29271.62
518.80	29077.06
519.01	29441.60
519.21	29179.46
519.41	29075.01
519.62	29005.38
519.82	29527.61
520.03	29660.73
520.23	29419.07
520.43	29675.07
520.64	29754.94
520.84	29953.59
521.05	29797.95
521.25	30189.11
521.45	30078.52
521.66	30283.31
521.86	29990.45
522.07	30160.44
522.27	29976.12
522.47	30266.93
522.68	30725.68
522.88	30686.76
523.08	30223.92
523.29	30484.01
523.49	30445.10
523.70	30477.87
523.90	31061.54
524.10	31014.44
524.31	31018.53
524.51	30185.01
524.71	31022.63
524.92	31272.48
525.12	31233.57
525.33	31149.60
525.53	31241.76
525.73	31600.16
525.94	31196.71
526.14	31702.56
526.34	31505.95
526.55	31518.24
526.75	31677.98
526.95	31737.37
527.16	31497.76
527.36	31786.52
527.56	31890.97
527.77	32357.91
527.97	32132.63
528.17	31909.40
528.38	32245.27
528.58	31946.26
528.78	32290.32
528.99	32675.34
529.19	32581.13
529.39	32151.06
529.60	32857.61
529.80	32716.30
530.00	32869.90
530.21	32873.99
530.41	33187.33
530.61	32808.46
530.82	33189.38
531.02	33052.17
531.22	33170.95
531.43	33177.09
531.63	33639.93
531.83	33535.49
532.04	34067.96
532.24	33715.71
532.44	33953.27
532.64	34090.49
532.85	33773.05
533.05	33828.35
533.25	34141.69
533.46	33863.16
533.66	34604.53
533.86	34131.45
534.07	34637.30
534.27	34452.98
534.47	34455.03
534.67	34702.83
534.88	34579.95
535.08	34739.69
535.28	34803.18
535.49	35069.42
535.69	35272.17
535.89	35286.50
536.09	35014.12
536.30	35327.46
536.50	35352.04
536.70	35390.95
536.91	35536.35
537.11	35390.95
537.31	35823.07
537.51	35788.25
537.72	36058.59
537.92	36158.94
538.12	36206.04
538.32	35941.85
538.53	36144.60
538.73	36101.59
538.93	36210.14
539.13	36269.53
539.34	36752.85
539.54	36279.77
539.74	36986.32
539.94	37092.81
540.15	36244.95
540.35	37090.76
540.55	36873.68
540.75	36951.50
540.96	37344.71
541.16	37436.87
541.36	37412.29
541.56	37535.17
541.77	37762.50
541.97	37502.40
542.17	37668.29
542.37	37785.02
542.58	37766.59
542.78	37811.65
542.98	38155.71
543.18	38141.37
543.38	38233.53
543.59	38663.60
543.79	38206.90
543.99	38081.98
544.19	38467.00
544.40	38464.95
544.60	38911.41
544.80	38766.00
545.00	38811.06
545.20	39044.52
545.41	38942.13
545.61	39349.67
545.81	39159.21
546.01	39490.98
546.21	39296.42
546.42	39413.16
546.62	39499.17
546.82	39384.49
547.02	39669.15
547.22	39392.68
547.43	39742.88
547.63	39603.62
547.83	39959.97
548.03	39863.71
548.23	40070.56
548.44	40005.02
548.64	40168.86
548.84	40154.52
549.04	40177.05
549.24	40719.76
549.45	40480.15
549.65	40730.00
549.85	40768.91
550.05	40836.50
550.25	40891.79
550.45	41465.22
550.66	40920.46
550.86	40652.18
551.06	41149.84
551.26	41393.54
551.46	41291.15
551.66	41395.59
551.87	41432.46
552.07	41610.63
552.27	41803.14
552.47	41749.89
552.67	41928.06
552.87	41872.77
553.07	41657.73
553.28	41975.17
553.48	42055.04
553.68	42042.75
553.88	41923.97
554.08	42229.12
554.28	41928.06
554.48	42098.05
554.69	42456.44
554.89	42163.58
555.09	42399.10
555.29	42354.04
555.49	42671.48
555.69	42587.51
555.89	42739.06
556.10	43001.20
556.30	42749.30
556.50	43031.92
556.70	42689.91
556.90	43214.19
557.10	43244.91
557.30	42833.27
557.50	43615.59
557.70	43201.90
557.91	43474.28
558.11	43343.21
558.31	43826.53
558.51	43296.11
558.71	43339.11
558.91	43492.71
559.11	43351.40
559.31	43670.89
559.51	43435.37
559.72	43308.40
559.92	43691.37
560.12	43498.86
560.32	44100.96
560.52	43832.68
560.72	43804.00
560.92	44121.44
561.12	43826.53
561.32	44156.25
561.52	43691.37
561.72	44447.07
561.93	43859.30
562.13	44270.94
562.33	43691.37
562.53	44602.71
562.73	44373.34
562.93	44422.49
563.13	44221.79
563.33	44137.82
563.53	44678.49
563.73	44105.06
563.93	44539.22
564.13	44629.34
564.33	44690.77
564.53	44494.17
564.74	44885.33
564.94	44184.93
565.14	44739.93
565.34	44518.74
565.54	44774.74
565.74	44295.52
565.94	44881.24
566.14	45081.94
566.34	44846.42
566.54	45176.14
566.74	44627.29
566.94	45102.42
567.14	44950.87
567.34	44475.74
567.54	44948.82
567.74	44506.46
567.94	44854.61
568.14	45151.57
568.34	45299.02
568.54	45081.94
568.74	45155.66
568.94	45417.80
569.14	45149.52
569.34	45241.68
569.54	45358.41
569.75	44938.58
569.95	44971.35
570.15	45339.98
570.35	45677.90
570.55	45049.17
570.75	45174.09
570.95	45131.09
571.15	45210.96
571.35	45430.09
571.55	45499.72
571.75	45299.02
571.95	45348.17
572.15	45339.98
572.35	45649.22
572.55	45911.36
572.75	45667.66
572.95	45544.78
573.15	45669.70
573.35	45804.87
573.55	45753.67
573.75	45598.02
573.95	45534.54
574.15	45798.73
574.35	45858.12
574.55	45770.05
574.75	45389.13
574.95	46110.02
575.15	45505.87
575.34	45864.26
575.54	45987.14
575.74	45831.49
575.94	45995.33
576.14	45440.33
576.34	46302.53
576.54	46310.72
576.74	46269.76
576.94	46056.77
577.14	46103.87
577.34	46994.74
577.54	45667.66
577.74	46535.99
577.94	46519.61
578.14	46189.89
578.34	46499.13
578.54	45999.43
578.74	46112.06
578.94	46417.21
579.14	46222.65
579.34	46535.99
579.54	46466.36
579.74	46925.11
579.94	46409.02
580.13	47240.50
580.33	46665.02
580.53	46804.28
580.73	46703.93
580.93	46656.82
581.13	46347.58
581.33	46835.00
581.53	47326.51
581.73	46955.83
581.93	47142.19
582.13	47322.41
582.33	47238.45
582.53	46927.16
582.73	47150.38
582.92	47172.91
583.12	47420.72
583.32	47093.04
583.52	46890.29
583.72	47672.62
583.92	47346.99
584.12	47764.78
584.32	47818.02
584.52	47398.19
584.72	47588.65
584.92	47326.51
585.11	48121.12
585.31	47764.78
585.51	47963.43
585.71	47725.86
585.91	48110.88
586.11	47918.37
586.31	48207.14
586.51	47818.02
586.71	47965.48
586.91	48246.05
587.10	48010.53
587.30	48602.39
587.50	48409.89
587.70	48198.94
587.90	48667.93
588.10	48352.54
588.30	48698.65
588.50	48559.39
588.69	48278.82
588.89	48512.28
589.09	48399.65
589.29	48624.92
589.49	48887.06
589.69	48641.31
589.89	48817.43
590.08	48993.56
590.28	48604.44
590.48	48813.34
590.68	48946.45
590.88	49018.13
591.08	49267.98
591.28	48882.97
591.47	49728.78
591.67	49239.31
591.87	49300.75
592.07	49521.93
592.27	49564.94
592.47	49687.82
592.67	49489.16
592.86	49460.49
593.06	49589.52
593.26	49962.25
593.46	49769.74
593.66	49532.17
593.86	50218.24
594.05	49777.93
594.25	49943.81
594.45	49906.95
594.65	49904.90
594.85	49763.59
595.05	50423.04
595.24	50568.44
595.44	50208.00
595.64	50611.45
595.84	50646.27
596.04	50416.89
596.23	50398.46
596.43	51248.37
596.63	50763.00
596.83	50742.52
597.03	51035.38
597.22	51225.84
597.42	51406.06
597.62	51027.19
597.82	51199.22
598.02	51516.65
598.21	51916.01
598.41	51160.31
598.61	51533.04
598.81	51508.46
599.01	51862.76
599.20	51848.42
599.40	51954.92
599.60	52600.03
599.80	51510.51
600.00	51660.01
600.19	51944.68
600.39	52028.65
600.59	52217.06
600.79	51940.58
600.98	52382.94
601.18	52503.77
601.38	52714.72
601.58	53017.82
601.78	52413.66
601.97	52421.86
602.17	53476.56
602.37	52806.87
602.57	53085.40
602.76	52765.91
602.96	52802.78
603.16	53048.53
603.36	53116.12
603.55	53556.43
603.75	53304.53
603.95	53605.58
604.15	53888.20
604.34	53507.28
604.54	53789.90
604.74	53785.80
604.94	53837.00
605.13	54176.97
605.33	54023.37
605.53	53998.79
605.73	54338.75
605.92	53925.07
606.12	54291.65
606.32	54381.76
606.52	54183.11
606.71	54191.30
606.91	54531.26
607.11	54414.53
607.30	54105.29
607.50	54695.10
607.70	54959.29
607.90	54772.92
608.09	54695.10
608.29	54889.66
608.49	55303.35
608.68	54516.93
608.88	55121.08
609.08	54953.15
609.28	55272.63
609.47	55162.04
609.67	55164.09
609.87	55887.02
610.06	55612.59
610.26	55022.78
610.46	55839.92
610.66	55002.30
610.85	55577.78
611.05	55217.33
611.25	55317.68
611.44	55325.88
611.64	55522.48
611.84	55743.66
612.03	55002.30
612.23	55256.24
612.43	55739.57
612.62	55342.26
612.82	55829.68
613.02	55835.82
613.21	55739.57
613.41	55491.76
613.61	56253.61
613.80	55262.39
614.00	56022.19
614.20	55514.29
614.39	55551.15
614.59	56104.10
614.79	55690.41
614.98	55614.64
615.18	56036.52
615.38	55987.37
615.57	55583.92
615.77	56079.53
615.97	55596.21
616.16	56474.79
616.36	56001.71
616.56	56767.65
616.75	56202.41
616.95	55522.48
617.15	55846.06
617.34	55893.16
617.54	55399.60
617.74	56333.48
617.93	56323.24
618.13	55309.49
618.32	56040.62
618.52	55786.67
618.72	55932.07
618.91	55841.96
619.11	55772.33
619.31	55854.25
619.50	55893.16
619.70	55442.61
619.90	55760.05
620.09	56026.28
620.29	55714.99
620.48	55686.32
620.68	56102.06
620.88	55471.28
621.07	55440.56
621.27	55606.45
621.46	55655.60
621.66	55776.43
621.86	55645.36
622.05	55555.25
622.25	56022.19
622.44	55592.11
622.64	55684.27
622.84	55686.32
623.03	55530.67
623.23	55729.33
623.42	56001.71
623.62	55768.24
623.82	55915.69
624.01	55407.79
624.21	55737.52
624.40	55856.30
624.60	55688.37
624.80	55145.65
624.99	55395.51
625.19	55510.19
625.38	55590.06
625.58	55753.90
625.77	55719.09
625.97	55555.25
626.17	55274.68
626.36	55303.35
626.56	55211.19
626.75	54879.42
626.95	55702.70
627.14	55229.62
627.34	55430.32
627.54	54836.41
627.73	55080.12
627.93	55499.95
628.12	55133.37
628.32	55301.30
628.51	55329.97
628.71	55342.26
628.90	54959.29
629.10	55260.34
629.30	55444.66
629.49	55618.74
629.69	54957.24
629.88	55121.08
630.08	55268.53
630.27	55110.84
630.47	55309.49
630.66	55039.16
630.86	55633.07
631.05	54570.18
631.25	55219.38
631.44	55071.93
631.64	54893.75
631.84	54985.91
632.03	55399.60
632.23	55334.07
632.42	55811.24
632.62	54895.80
632.81	54785.21
633.01	55108.79
633.20	55116.98
633.40	55155.89
633.59	55088.31
633.79	54301.89
633.98	54850.75
634.18	55106.74
634.37	55274.68
634.57	55022.78
634.76	55444.66
634.96	54932.67
635.15	55080.12
635.35	54629.57
635.54	54785.21
635.74	55198.90
635.93	54756.54
636.13	55131.32
636.32	55131.32
636.52	54633.66
636.71	55178.42
636.91	55078.07
637.10	54834.36
637.30	54482.11
637.49	54899.90
637.69	54729.92
637.88	55383.22
638.08	54465.73
638.27	54994.10
638.46	54895.80
638.66	54213.83
638.85	55221.43
639.05	55317.68
639.24	54959.29
639.44	54521.02
639.63	54721.72
639.83	54785.21
640.02	54463.68
640.22	54645.95
640.41	55086.26
640.61	54527.17
640.80	54785.21
640.99	54555.84
641.19	55428.27
641.38	54543.55
641.58	54942.91
641.77	54645.95
641.97	54764.73
642.16	54172.87
642.36	54828.22
642.55	55387.31
642.74	54787.26
642.94	55465.14
643.13	54385.86
643.33	55153.85
643.52	55246.00
643.72	55219.38
643.91	54654.14
644.10	54930.62
644.30	55444.66
644.49	54623.42
644.69	55340.21
644.88	54985.91
645.08	54951.10
645.27	54873.27
645.46	54928.57
645.66	54998.20
645.85	54885.56
646.05	55215.29
646.24	55082.17
646.43	54930.62
646.63	55422.13
646.82	55276.72
647.02	54983.86
647.21	55368.88
647.40	55241.91
647.60	55278.77
647.79	55835.82
647.99	55127.22
648.18	54891.71
648.37	55366.84
648.57	55655.60
648.76	55653.55
648.96	55004.34
649.15	55489.71
649.34	55495.86
649.54	55375.03
649.73	55086.26
649.92	55669.93
650.12	55033.02
650.31	55405.75
650.51	55321.78
650.70	55678.13
650.89	55334.07
651.09	55919.79
651.28	55989.42
651.47	55497.91
651.67	56016.04
651.86	56386.72
652.06	55334.07
652.25	56034.47
652.44	55360.69
652.64	55682.22
652.83	55510.19
653.02	55063.74
653.22	55825.58
653.41	55655.60
653.60	55594.16
653.80	55628.98
653.99	55878.83
654.18	55753.90
654.38	55602.35
654.57	56009.90
654.76	56196.26
654.96	55678.13
655.15	55989.42
655.34	56169.64
655.54	55674.03
655.73	56011.95
655.92	56462.50
656.12	55977.13
656.31	56710.30
656.50	55874.73
656.70	56284.33
656.89	55940.27
657.08	56126.63
657.28	56173.73
657.47	56171.69
657.66	56274.09
657.86	56446.11
658.05	56216.74
658.24	56243.37
658.43	55794.86
658.63	56427.68
658.82	56153.26
659.01	56333.48
659.21	56700.06
659.40	56276.13
659.59	56456.35
659.79	56736.93
659.98	56511.65
660.17	56757.41
660.36	56661.15
660.56	56487.07
660.75	56919.20
660.94	56788.13
661.14	56603.81
661.33	56571.04
661.52	56439.97
661.71	57029.79
661.91	56243.37
662.10	56419.49
662.29	56812.70
662.49	56857.76
662.68	56947.87
662.87	56962.20
663.06	57021.59
663.26	56620.19
663.45	57447.57
663.64	56974.49
663.83	57046.17
664.03	57111.70
664.22	56990.87
664.41	57119.90
664.60	56702.11
664.80	57083.03
664.99	56657.06
665.18	57167.00
665.37	57275.54
665.57	57257.11
665.76	56714.40
665.95	57646.22
666.14	57285.78
666.34	57156.76
666.53	57289.88
666.72	57134.23
666.91	57214.10
667.11	57029.79
667.30	57201.82
667.49	56978.59
667.68	57341.08
667.87	57009.31
668.07	57402.52
668.26	57414.80
668.45	57601.17
668.64	57509.01
668.84	57799.82
669.03	57539.73
669.22	57681.04
669.41	57887.88
669.60	57461.91
669.80	57377.94
669.99	57490.58
670.18	57689.23
670.37	57392.28
670.57	57912.46
670.76	57400.47
670.95	57812.11
671.14	58094.73
671.33	57410.71
671.53	57859.21
671.72	57988.24
671.91	57871.50
672.10	57521.30
672.29	57650.32
672.48	57973.90
672.68	58170.50
672.87	57463.96
673.06	57529.49
673.25	57650.32
673.44	57375.89
673.64	57719.95
673.83	57627.79
674.02	58172.55
674.21	57848.97
674.40	57840.78
674.59	57410.71
674.79	57498.77
674.98	57566.35
675.17	57998.48
675.36	58090.63
675.55	58010.76
675.74	57797.77
675.94	57699.47
676.13	57699.47
676.32	57623.70
676.51	58438.79
676.70	57605.26
676.89	57846.93
677.08	57998.48
677.28	57758.86
677.47	58344.58
677.66	58172.55
677.85	58021.00
678.04	58041.48
678.23	58168.46
678.42	57578.64
678.62	57746.57
678.81	57945.23
679.00	57678.99
679.19	58272.90
679.38	57625.74
679.57	57869.45
679.76	57818.25
679.96	57713.81
680.15	57857.17
680.34	57820.30
680.53	57629.84
680.72	57859.21
680.91	58008.71
681.10	57719.95
681.29	58111.11
681.48	57709.71
681.68	57818.25
681.87	57793.68
682.06	57728.14
682.25	57664.66
682.44	57511.06
682.63	57638.03
682.82	57054.36
683.01	57330.84
683.20	56915.10
683.39	57398.42
683.59	57357.46
683.78	57345.17
683.97	57515.15
684.16	57386.13
684.35	57154.71
684.54	57107.61
684.73	57590.93
684.92	57373.84
685.11	57300.12
685.30	57570.45
685.49	57316.50
685.69	57423.00
685.88	57281.69
686.07	57273.49
686.26	56908.96
686.45	57152.66
686.64	56874.14
686.83	57074.84
687.02	57048.22
687.21	57246.87
687.40	57103.51
687.59	56941.72
687.78	56775.84
687.97	57371.80
688.16	57001.11
688.35	56878.24
688.54	56620.19
688.74	56470.69
688.93	57025.69
689.12	56902.81
689.31	56831.13
689.50	56802.46
689.69	56161.45
689.88	56265.89
690.07	56894.62
690.26	56597.66
690.45	56775.84
690.64	56571.04
690.83	55962.79
691.02	56163.50
691.21	56392.87
691.40	56155.30
691.59	56693.92
691.78	56210.60
691.97	56153.26
692.16	55999.66
692.35	56519.84
692.54	56612.00
692.73	56644.77
692.92	56224.93
693.11	56272.04
693.30	55770.28
693.49	55895.21
693.68	55585.97
693.87	55956.65
694.06	55952.55
694.25	55960.75
694.44	55514.29
694.63	55917.74
694.82	56087.72
695.01	55442.61
695.20	55184.57
695.39	55633.07
695.58	55604.40
695.77	55317.68
695.96	55385.27
696.15	55073.98
696.34	55532.72
696.53	55454.90
696.72	55663.79
696.91	54965.43
697.10	55368.88
697.29	55116.98
697.48	55246.00
697.67	54727.87
697.86	54666.43
698.05	54910.14
698.24	55458.99
698.43	54424.77
698.62	55239.86
698.81	54613.18
699.00	55055.54
699.19	54344.90
699.38	54826.17
699.57	54338.75
699.76	54889.66
699.95	54295.75
700.14	54189.25
700.32	54557.89
700.51	53916.87
700.70	54496.45
700.89	54686.91
701.08	54383.81
701.27	54121.67
701.46	54131.91
701.65	53781.71
701.84	54250.69
702.03	54078.66
702.22	53449.94
702.41	54150.34
702.60	53900.49
702.79	53830.86
702.98	53660.88
703.17	53716.17
703.35	53900.49
703.54	53775.56
703.73	53918.92
703.92	53839.05
704.11	53896.39
704.30	53435.60
704.49	53521.62
704.68	53103.83
704.87	53370.07
705.06	53130.45
705.25	53494.99
705.43	53009.62
705.62	53255.38
705.81	53015.77
706.00	53363.92
706.19	52757.72
706.38	52958.42
706.57	53071.06
706.76	52462.82
706.95	53144.79
707.14	52393.18
707.32	52606.17
707.51	52647.13
707.70	52425.95
707.89	52638.94
708.08	52475.10
708.27	52884.70
708.46	52610.27
708.65	52159.72
708.84	52790.49
709.02	52712.67
709.21	52694.24
709.40	52380.90
709.59	52298.98
709.78	51680.49
709.97	52532.45
710.16	52053.22
710.34	52059.37
710.53	52012.26
710.72	51922.15
710.91	52139.24
711.10	52092.13
711.29	51862.76
711.48	51850.47
711.66	51752.17
711.85	51719.40
712.04	51690.73
712.23	51768.55
712.42	51592.43
712.61	51719.40
712.80	51143.92
712.98	51420.40
713.17	51713.26
713.36	51397.87
713.55	51412.21
713.74	51709.16
713.93	51389.68
714.11	51504.37
714.30	51242.23
714.49	51213.55
714.68	51184.88
714.87	51131.64
715.06	51338.48
715.24	51145.97
715.43	50767.10
715.62	51217.65
715.81	50699.51
716.00	50789.62
716.18	50636.03
716.37	50279.68
716.56	50724.09
716.75	50853.11
716.94	50658.56
717.12	50476.29
717.31	50875.64
717.50	50550.01
717.69	50799.86
717.88	50197.76
718.06	50355.46
718.25	50396.42
718.44	49845.51
718.63	50377.98
718.82	49673.48
719.00	50248.96
719.19	50015.49
719.38	49904.90
719.57	49689.87
719.76	49476.88
719.94	49456.40
720.13	49571.08
720.32	49829.13
720.51	49397.01
720.69	49560.84
720.88	49249.55
721.07	49470.73
721.26	49337.62
721.44	49224.98
721.63	49222.93
721.82	49198.35
722.01	48770.33
722.20	49288.46
722.38	48692.50
722.57	48760.09
722.76	49147.15
722.95	48872.73
723.13	48500.00
723.32	49020.18
723.51	48608.54
723.70	48440.60
723.88	48780.57
724.07	48665.88
724.26	48743.70
724.44	47998.24
724.63	48661.79
724.82	48297.25
725.01	48174.37
725.19	48330.01
725.38	47803.69
725.57	47912.23
725.76	47922.47
725.94	48186.66
726.13	47715.62
726.32	47973.67
726.51	47670.57
726.69	48190.75
726.88	48022.82
727.07	47838.50
727.25	47832.36
727.44	48358.69
727.63	48219.42
727.82	48203.04
728.00	48096.55
728.19	47936.80
728.38	48405.79
728.56	47940.90
728.75	48381.21
728.94	47846.69
729.12	48028.96
729.31	47883.56
729.50	48141.60
729.69	47947.04
729.87	47887.65
730.06	48071.97
730.25	48227.62
730.43	48313.63
730.62	48012.58
730.81	47969.57
730.99	47754.54
731.18	48035.11
731.37	48174.37
731.55	48293.15
731.74	48084.26
731.93	47703.34
732.11	48231.71
732.30	47922.47
732.49	47766.82
732.67	47822.12
732.86	47838.50
733.05	48092.45
733.23	48022.82
733.42	47783.21
733.61	47918.37
733.79	47785.25
733.98	47734.06
734.17	47691.05
734.35	47697.19
734.54	48287.01
734.73	48284.96
734.91	47994.15
735.10	48139.55
735.29	48020.77
735.47	47344.94
735.66	47813.93
735.84	47985.96
736.03	47877.41
736.22	47891.75
736.40	47041.84
736.59	47824.17
736.78	47465.77
736.96	47797.54
737.15	47525.16
737.33	48018.72
737.52	48092.45
737.71	47648.04
737.89	47324.46
738.08	47183.15
738.27	47504.68
738.45	48166.18
738.64	47920.42
738.82	47840.55
739.01	47691.05
739.20	47535.40
739.38	47838.50
739.57	47609.13
739.75	47459.63
739.94	47295.79
740.13	47535.40
740.31	47537.45
740.50	47217.97
740.68	47594.79
740.87	47205.68
741.06	47017.27
741.24	47269.17
741.43	47150.38
741.61	47318.32
741.80	47158.58
741.99	47392.04
742.17	47709.48
742.36	47584.55
742.54	47381.80
742.73	47445.29
742.91	47351.09
743.10	47303.98
743.29	47430.96
743.47	47043.89
743.66	46978.36
743.84	46978.36
744.03	47222.06
744.21	47322.41
744.40	47605.03
744.59	46740.79
744.77	47060.27
744.96	47390.00
745.14	47385.90
745.33	47398.19
745.51	47035.70
745.70	47453.48
745.88	47082.80
746.07	46794.04
746.26	46714.17
746.44	46851.38
746.63	46628.15
746.81	47117.62
747.00	46478.65
747.18	46929.20
747.37	46710.07
747.55	47150.38
747.74	47279.41
747.92	46839.09
748.11	46890.29
748.29	46449.98
748.48	46990.64
748.66	46628.15
748.85	46943.54
749.03	47084.85
749.22	46791.99
749.41	46658.87
749.59	46775.61
749.78	46607.67
749.96	46325.05
750.15	46794.04
750.33	46703.93
750.52	46865.72
750.70	46726.46
750.89	46376.25
751.07	46429.50
751.26	46306.62
751.44	46478.65
751.63	46339.39
751.81	46132.54
752.00	46011.71
752.18	46245.18
752.37	46458.17
752.55	45983.04
752.74	45899.08
752.92	46189.89
753.10	46126.40
753.29	46230.85
753.47	46406.97
753.66	45696.33
753.84	46585.15
754.03	45741.38
754.21	45802.82
754.40	46257.47
754.58	46064.96
754.77	46327.10
754.95	45532.49
755.14	45913.41
755.32	46155.07
755.51	46073.15
755.69	45503.82
755.88	45725.00
756.06	46339.39
756.24	45851.97
756.43	45952.32
756.61	45921.60
756.80	45358.41
756.98	45974.85
757.17	45428.04
757.35	45413.71
757.54	45409.61
757.72	45557.06
757.90	45659.46
758.09	45389.13
758.27	45366.60
758.46	45147.47
758.64	45309.26
758.83	45456.71
759.01	44967.25
759.19	45194.57
759.38	44848.47
759.56	45565.26
759.75	45561.16
759.93	45180.24
760.12	44858.71
760.30	45172.05
760.48	45149.52
760.67	45049.17
760.85	44731.73
761.04	45145.42
761.22	44895.57
761.40	44987.73
761.59	45245.77
761.77	44582.23
761.96	44963.15
762.14	44373.34
762.32	44465.50
762.51	44600.66
762.69	44506.46
762.88	44434.78
763.06	44635.48
763.24	44619.10
763.43	44784.98
763.61	44375.39
763.80	44479.83
763.98	44129.63
764.16	44711.25
764.35	44037.47
764.53	43824.48
764.72	44121.44
764.90	44143.97
765.08	44152.16
765.27	43963.75
765.45	44236.12
765.63	43296.11
765.82	44019.04
766.00	43478.38
766.18	43857.25
766.37	44088.67
766.55	43736.42
766.74	43791.72
766.92	43396.46
767.10	43253.10
767.29	43283.82
767.47	43429.23
767.65	43322.73
767.84	42816.88
768.02	43480.42
768.20	43238.76
768.39	43378.03
768.57	43201.90
768.75	42968.43
768.94	43294.06
769.12	43353.45
769.30	42880.37
769.49	43001.20
769.67	42734.96
769.85	42304.89
770.04	42954.10
770.22	42603.89
770.40	42503.54
770.59	42747.25
770.77	42685.81
770.95	42673.52
771.14	42315.13
771.32	42155.39
771.50	41737.60
771.69	42268.03
771.87	42423.67
772.05	42120.57
772.24	41827.71
772.42	41983.36
772.60	42155.39
772.78	42065.28
772.97	42046.85
773.15	42042.75
773.33	42024.32
773.52	41878.91
773.70	41657.73
773.88	41862.53
774.07	41753.99
774.25	41682.31
774.43	42009.98
774.61	41489.80
774.80	41934.21
774.98	41844.10
775.16	41887.10
775.34	41825.67
775.53	41766.27
775.71	41934.21
775.89	41858.43
776.08	41741.70
776.26	42087.81
776.44	42315.13
776.62	41792.90
776.81	41780.61
776.99	42065.28
777.17	41844.10
777.35	41964.93
777.54	42139.00
777.72	41629.06
777.90	41588.10
778.08	41921.92
778.27	41921.92
778.45	42323.32
778.63	42331.51
778.81	41700.74
779.00	42225.02
779.18	42128.77
779.36	42083.71
779.54	42044.80
779.73	42470.78
779.91	42677.62
780.09	42333.56
780.27	42087.81
780.46	42159.48
780.64	42382.71
780.82	41932.16
781.00	41923.97
781.19	42280.31
781.37	42438.01
781.55	42327.42
781.73	42839.41
781.91	42405.24
782.10	42249.60
782.28	42415.48
782.46	42440.06
782.64	42554.74
782.82	42020.22
783.01	42716.53
783.19	42368.38
783.37	42505.59
783.55	41870.72
783.74	42931.57
783.92	42286.46
784.10	42767.73
784.28	42325.37
784.46	42229.12
784.64	41964.93
784.83	42472.82
785.01	42411.38
785.19	42460.54
785.37	42644.85
785.55	41620.87
785.74	41960.83
785.92	42096.00
786.10	41940.35
786.28	42022.27
786.46	41653.64
786.64	41950.59
786.83	41538.95
787.01	41893.25
787.19	41866.63
787.37	42198.40
787.55	41786.75
787.74	41377.16
787.92	41663.88
788.10	41457.03
788.28	40922.51
788.46	41706.88
788.64	41180.56
788.82	41809.28
789.01	40990.09
789.19	41184.65
789.37	40967.57
789.55	40895.89
789.73	40576.40
789.91	40756.63
790.09	40727.95
790.28	40633.75
790.46	40451.48
790.64	41069.97
790.82	40701.33
791.00	40258.97
791.18	40449.43
791.36	40203.67
791.55	39818.66
791.73	40172.96
791.91	39994.78
792.09	40527.25
792.27	40170.91
792.45	40074.65
792.63	39867.81
792.81	39523.75
793.00	39869.86
793.18	39658.91
793.36	39605.67
793.54	39484.84
793.72	39462.31
793.90	39196.07
794.08	39435.69
794.26	39265.70
794.44	38831.54
794.62	38542.77
794.81	38935.98
794.99	38536.63
795.17	38645.17
795.35	38301.11
795.53	38780.34
795.71	38661.55
795.89	38038.97
796.07	37920.19
796.25	38057.40
796.43	37903.81
796.61	37803.46
796.80	37746.11
796.98	37914.05
797.16	37903.81
797.34	37875.13
797.52	37510.60
797.70	37899.71
797.88	37445.06
798.06	36914.64
798.24	37451.20
798.42	37139.91
798.60	37283.27
798.78	36976.08
798.96	36949.45
799.14	36781.52
799.32	36847.05
799.51	36976.08
799.69	36799.95
799.87	36894.16
800.05	36402.64
800.23	36095.45
800.41	36363.73
800.59	35941.85
800.77	35986.91
800.95	35757.53
801.13	35900.89
801.31	35581.41
801.49	35966.43
801.67	35716.58
801.85	35489.25
802.03	35153.38
802.21	35327.46
802.39	34801.13
802.57	34907.63
802.75	34928.11
802.93	34928.11
803.11	34909.68
803.29	34659.82
803.47	34481.65
803.65	34729.45
803.83	34819.56
804.01	34465.27
804.19	34190.84
804.37	34244.09
804.55	34483.70
804.73	34151.93
804.91	34076.15
805.09	34092.54
805.27	34037.24
805.45	34149.88
805.63	33916.41
805.81	33666.56
805.99	33834.49
806.17	33865.21
806.35	33771.00
806.53	33404.42
806.71	33666.56
806.89	33654.27
807.07	33385.99
807.25	33457.67
807.43	33771.00
807.61	33435.14
807.79	33547.78
807.97	32730.64
808.15	33306.12
808.33	32618.00
808.51	32767.50
808.69	32548.37
808.87	32462.35
809.05	32675.34
809.23	32431.63
809.41	32210.45
809.59	32306.71
809.77	32495.12
809.95	31913.50
810.13	32091.67
810.31	31893.02
810.49	32251.41
810.67	31864.35
810.84	31757.85
811.02	31766.04
811.20	31567.39
811.38	31731.23
811.56	31317.54
811.74	31786.52
811.92	30953.00
812.10	31700.51
812.28	31315.49
812.46	31290.91
812.64	31299.11
812.82	31290.91
813.00	31272.48
813.18	31317.54
813.36	31360.55
813.53	30670.38
813.71	30848.55
813.89	31008.29
814.07	30793.26
814.25	30807.59
814.43	30514.73
814.61	30719.53
814.79	30301.75
814.97	30406.19
815.15	30506.54
815.33	30185.01
815.50	29965.88
815.68	30383.66
815.86	30684.72
816.04	29810.23
816.22	29855.29
816.40	30242.35
816.58	30015.03
816.76	30127.67
816.94	30060.09
817.11	30115.38
817.29	29597.24
817.47	29595.20
817.65	29824.57
817.83	29433.41
818.01	29558.33
818.19	29232.71
818.37	29306.43
818.54	29085.25
818.72	29171.27
818.90	29371.97
819.08	29232.71
819.26	29421.12
819.44	29132.36
819.62	28943.94
819.80	29277.76
819.97	29060.68
820.15	28976.71
820.33	28964.42
820.51	29085.25
820.69	28837.45
820.87	29120.07
821.05	28788.30
821.22	28671.56
821.40	29087.30
821.58	28575.31
821.76	28503.63
821.94	28337.74
822.12	28573.26
822.29	28624.46
822.47	28274.26
822.65	28712.52
822.83	28343.89
823.01	28085.84
823.19	28249.68
823.36	28014.16
823.54	28153.43
823.72	27950.68
823.90	28155.47
824.08	27721.30
824.25	27866.71
824.43	27756.12
824.61	27743.83
824.79	27735.64
824.97	27930.20
825.15	27977.30
825.32	27813.46
825.50	27647.58
825.68	27608.67
825.86	27582.04
826.04	27846.23
826.21	27627.10
826.39	27428.45
826.57	27694.68
826.75	27391.58
826.93	27194.98
827.10	27240.03
827.28	27493.98
827.46	27399.77
827.64	27422.30
827.81	27068.00
827.99	27258.46
828.17	27436.64
828.35	27137.63
828.53	27113.06
828.70	26799.72
828.88	26955.36
829.06	27252.32
829.24	27498.08
829.41	27012.71
829.59	27231.84
829.77	26799.72
829.95	27035.24
830.12	26904.17
830.30	26775.14
830.48	26914.41
830.66	26797.67
830.84	26803.82
831.01	26416.75
831.19	26826.34
831.37	26449.52
831.55	26320.49
831.72	26484.33
831.90	26668.65
832.08	26486.38
832.25	26445.42
832.43	26457.71
832.61	26214.00
832.79	26355.31
832.96	26357.36
833.14	26433.13
833.32	26502.76
833.50	26676.84
833.67	26177.14
833.85	26209.90
834.03	25859.70
834.20	26152.56
834.38	26556.01
834.56	26472.04
834.74	25843.32
834.91	26238.58
835.09	26078.83
835.27	25417.34
835.44	25769.59
835.62	25691.77
835.80	25726.58
835.98	25857.65
836.15	25900.66
836.33	25702.01
836.51	25839.22
836.68	25448.06
836.86	25747.06
837.04	25855.61
837.21	25523.83
837.39	25599.61
837.57	25759.35
837.75	25878.13
837.92	25196.16
838.10	25419.39
838.28	25235.07
838.45	25360.00
838.63	25355.90
838.81	25294.46
838.98	25239.17
839.16	25378.43
839.34	25093.76
839.51	25456.25
839.69	24956.55
839.87	25159.30
840.04	25269.89
840.22	25605.75
840.40	24987.27
840.57	24841.86
840.75	25312.89
840.93	24616.58
841.10	25124.48
841.28	25327.23
841.46	25208.45
841.63	25028.23
841.81	24823.43
841.98	24997.51
842.16	24895.11
842.34	24991.36
842.51	24764.04
842.69	24809.09
842.87	24936.07
843.04	24901.25
843.22	24546.95
843.40	24997.51
843.57	24579.72
843.75	24671.88
843.92	24356.49
844.10	24524.43
844.28	24643.21
844.45	24372.88
844.63	24741.51
844.81	24329.87
844.98	24546.95
845.16	24649.35
845.33	24467.08
845.51	24655.50
845.69	24442.51
845.86	24239.76
846.04	24002.19
846.21	24428.17
846.39	24305.29
846.57	24333.96
846.74	24276.62
846.92	24290.96
847.09	24297.10
847.27	23643.80
847.45	23940.75
847.62	24163.98
847.80	24092.30
847.97	24159.89
848.15	23725.72
848.32	23924.37
848.50	23686.81
848.68	23828.12
848.85	23783.06
849.03	23643.80
849.20	23889.56
849.38	23781.01
849.56	23975.57
849.73	23746.20
849.91	23873.17
850.08	23695.00
850.26	23332.51
850.43	23389.85
850.61	23899.80
850.78	23512.73
850.96	23512.73
851.14	23647.90
851.31	23709.33
851.49	23406.23
851.66	23430.81
851.84	23557.78
852.01	23576.22
852.19	23338.65
852.36	23434.91
852.54	23285.40
852.71	23387.80
852.89	23250.59
853.07	23041.70
853.24	23236.25
853.42	22793.89
853.59	22959.78
853.77	23434.91
853.94	23060.13
854.12	23146.14
854.29	23096.99
854.47	23053.98
854.64	22804.13
854.82	22724.26
854.99	23000.74
855.17	22904.48
855.34	22703.78
855.52	22912.67
855.69	22933.15
855.87	22875.81
856.04	22492.84
856.22	22771.36
856.39	22470.31
856.57	22593.19
856.74	22552.23
856.92	23172.77
857.09	22394.54
857.27	22800.04
857.44	22843.04
857.62	22591.14
857.79	22517.42
857.97	22443.69
858.14	22269.61
858.32	22738.60
858.49	22609.58
858.67	22478.50
858.84	22429.35
859.02	22818.47
859.19	22351.53
859.37	22449.83
859.54	22308.52
859.72	22433.45
859.89	22273.71
860.06	22216.36
860.24	22048.43
860.41	22228.65
860.59	21882.55
860.76	22103.73
860.94	21931.70
861.11	22081.20
861.29	22111.92
861.46	21886.64
861.64	21857.97
861.81	21950.13
861.98	21802.68
862.16	21948.08
862.33	21556.92
862.51	21927.60
862.68	21843.63
862.86	21532.34
863.03	21720.76
863.21	21728.95
863.38	21814.96
863.55	21726.90
863.73	21878.45
863.90	21530.30
864.08	21339.83
864.25	21558.97
864.43	21563.06
864.60	21470.90
864.77	21378.75
864.95	21264.06
865.12	21182.14
865.30	21413.56
865.47	21491.38
865.64	21356.22
865.82	21329.59
865.99	21423.80
866.17	21024.45
866.34	21044.93
866.51	20991.68
866.69	21096.13
866.86	21442.23
867.04	21237.44
867.21	21229.24
867.38	20750.02
867.56	20940.48
867.73	20815.55
867.91	21089.98
868.08	21059.26
868.25	20934.34
868.43	20717.25
868.60	20653.76
868.78	20707.01
868.95	20727.49
869.12	20686.53
869.30	20725.44
869.47	20702.92
869.64	20354.76
869.82	20649.67
869.99	20575.94
870.16	20582.09
870.34	20592.33
870.51	20457.16
870.69	20455.11
870.86	20205.26
871.03	20424.39
871.21	20164.30
871.38	20412.10
871.55	19814.10
871.73	20217.55
871.90	20008.65
872.07	19969.74
872.25	20012.75
872.42	19775.19
872.59	19910.35
872.77	20022.99
872.94	20047.57
873.11	19918.54
873.29	19867.34
873.46	19664.60
873.63	19517.14
873.81	19810.00
873.98	19441.37
874.15	19568.34
874.33	19449.56
874.50	19547.86
874.67	19771.09
874.85	19101.40
875.02	19250.91
875.19	19463.90
875.37	19447.51
875.54	19263.19
875.71	19455.70
875.88	19019.49
876.06	19119.84
876.23	19336.92
876.40	18765.54
876.58	19271.39
876.75	19168.99
876.92	19033.82
877.10	18990.81
877.27	18804.45
877.44	18730.72
877.61	18788.07
877.79	18726.63
877.96	18657.00
878.13	18718.43
878.31	18575.08
878.48	18714.34
878.65	18497.25
878.82	18642.66
879.00	18380.52
879.17	18472.68
879.34	18333.42
879.51	18241.26
879.69	18274.03
879.86	18106.09
880.03	18233.07
880.21	18231.02
880.38	18204.39
880.55	17987.31
880.72	18153.20
880.90	18005.74
881.07	18216.68
881.24	17901.29
881.41	17944.30
881.59	17770.22
881.76	17839.86
881.93	17938.16
882.10	17743.60
882.28	17913.58
882.45	17940.21
882.62	17837.81
882.79	18063.08
882.96	17366.78
883.14	17587.96
883.31	17782.51
883.48	17901.29
883.65	18001.65
883.83	17645.30
884.00	17573.62
884.17	17772.27
884.34	17532.66
884.51	17383.16
884.69	17598.20
884.86	17649.39
885.03	17524.47
885.20	17356.54
885.38	17557.24
885.55	17452.79
885.72	17501.94
885.89	17291.00
886.06	17254.14
886.24	17157.88
886.41	17125.11
886.58	17395.45
886.75	17426.17
886.92	17198.84
887.10	17524.47
887.27	17258.23
887.44	16899.84
887.61	17348.34
887.78	17204.99
887.95	16983.80
888.13	16879.36
888.30	16830.21
888.47	16674.56
888.64	16883.45
888.81	16854.78
888.99	16817.92
889.16	16668.42
889.33	16701.19
889.50	16572.16
889.67	16596.74
889.84	16566.02
890.01	16742.14
890.19	16424.71
890.36	16631.55
890.53	16480.00
890.70	16740.10
890.87	16193.29
891.04	16475.91
891.22	16533.25
891.39	16465.67
891.56	16183.05
891.73	16387.85
891.90	16242.44
892.07	16289.54
892.24	16291.59
892.42	16029.45
892.59	16037.64
892.76	16086.79
892.93	16156.43
893.10	16090.89
893.27	16152.33
893.44	16166.67
893.61	15740.69
893.79	16181.00
893.96	15730.45
894.13	16019.21
894.30	16025.36
894.47	15871.76
894.64	16140.04
894.81	16054.03
894.98	15752.98
895.15	15931.15
895.33	15693.58
895.50	15943.44
895.67	15701.78
895.84	15861.52
896.01	15933.20
896.18	15746.83
896.35	15834.89
896.52	15695.63
896.69	15632.15
896.86	15662.86
897.04	15748.88
897.21	15752.98
897.38	15630.10
897.55	15582.99
897.72	15582.99
897.89	15628.05
898.06	15679.25
898.23	15650.58
898.40	15558.42
898.57	15834.89
898.74	15626.00
898.91	15552.27
899.08	15546.13
899.26	15642.39
899.43	15587.09
899.60	15437.59
899.77	15685.39
899.94	15505.17
900.11	15277.85
900.28	15699.73
900.45	15413.01
900.62	15429.40
900.79	15714.06
900.96	15511.32
901.13	15288.09
901.30	15460.12
901.47	15333.14
901.64	15660.82
901.81	15343.38
901.98	15501.08
902.15	15572.75
902.32	15181.59
902.49	15628.05
902.66	15286.04
902.83	15187.74
903.01	15439.64
903.18	15384.34
903.35	15464.21
903.52	15408.92
903.69	15550.23
903.86	15159.06
904.03	15408.92
904.20	15546.13
904.37	15591.19
904.54	15318.81
904.71	15111.96
904.88	15601.43
905.05	15040.28
905.22	15396.63
905.39	15376.15
905.56	15427.35
905.73	15316.76
905.90	15505.17
906.07	15228.70
906.24	15138.58
906.41	15152.92
906.58	15343.38
906.75	15214.36
906.92	15181.59
907.09	15316.76
907.26	15177.50
907.43	15068.95
907.60	15148.82
907.77	15234.84
907.93	15263.51
908.10	15105.82
908.27	15265.56
908.44	15036.19
908.61	14964.51
908.78	15384.34
908.95	15210.26
909.12	15017.75
909.29	15064.86
909.46	14874.40
909.63	15140.63
909.80	15068.95
909.97	14939.93
910.14	14896.92
910.31	14991.13
910.48	15044.38
910.65	14933.79
910.82	14815.01
910.99	15126.30
911.16	14561.06
911.33	14747.42
911.50	14706.46
911.66	14714.66
911.83	14868.25
912.00	14685.98
912.17	14245.67
912.34	14597.92
912.51	14307.11
912.68	14610.21
912.85	14698.27
913.02	14606.11
913.19	14774.05
913.36	14587.68
913.53	14759.71
913.70	14415.65
913.86	14786.33
914.03	14446.37
914.20	14284.58
914.37	14462.76
914.54	14331.69
914.71	14389.03
914.88	14354.21
915.05	14180.14
915.22	14200.62
915.39	14307.11
915.55	14165.80
915.72	14028.59
915.89	13834.03
916.06	13954.86
916.23	14198.57
916.40	13905.71
916.57	13874.99
916.74	13856.56
916.91	13967.15
917.07	13643.57
917.24	13815.60
917.41	13809.45
917.58	13963.05
917.75	13614.90
917.92	13604.66
918.09	13639.47
918.26	13410.10
918.42	13741.87
918.59	13578.03
918.76	13356.85
918.93	13309.75
919.10	13268.79
919.27	13334.32
919.44	13399.86
919.60	13281.08
919.77	13227.83
919.94	13197.11
920.11	13156.15
920.28	13403.96
920.45	13074.23
920.61	12814.14
920.78	12922.68
920.95	12732.22
921.12	12853.05
921.29	12705.60
921.46	12785.47
921.62	12627.78
921.79	12908.35
921.96	12574.53
922.13	12410.69
922.30	12543.81
922.47	12533.57
922.63	12402.50
922.80	12605.25
922.97	12347.20
923.14	12142.41
923.31	12287.81
923.47	12271.43
923.64	12592.96
923.81	12134.21
923.98	12185.41
924.15	12234.57
924.32	11978.57
924.48	11925.32
924.65	11974.47
924.82	11863.88
924.99	11814.73
925.15	11759.44
925.32	11841.36
925.49	11698.00
925.66	11654.99
925.83	11683.66
925.99	11388.75
926.16	11650.89
926.33	11532.11
926.50	11442.00
926.67	11552.59
926.83	11376.47
927.00	11546.45
927.17	11351.89
927.34	11157.33
927.50	11218.77
927.67	11378.51
927.84	11267.92
928.01	11079.51
928.17	11011.93
928.34	11122.52
928.51	11093.85
928.68	10747.74
928.84	10782.56
929.01	10676.06
929.18	10628.96
929.35	10446.69
929.51	10676.06
929.68	10544.99
929.85	10467.17
930.02	10585.95
930.18	10387.30
930.35	10536.80
930.52	10299.23
930.69	10399.59
930.85	10366.82
931.02	10342.24
931.19	10295.14
931.36	10385.25
931.52	10202.98
931.69	10268.52
931.86	10237.80
932.02	9805.67
932.19	9811.82
932.36	9903.98
932.53	10080.10
932.69	10039.14
932.86	9860.97
933.03	9611.12
933.19	9734.00
933.36	9785.19
933.53	9684.84
933.70	9441.14
933.86	9709.42
934.03	9572.21
934.20	9314.16
934.36	9516.91
934.53	9174.90
934.70	9170.80
934.86	9236.34
935.03	8974.20
935.20	8988.53
935.36	8908.66
935.53	8857.46
935.70	8822.65
935.86	8826.75
936.03	8570.75
936.20	8589.18
936.36	8388.48
936.53	8431.49
936.70	8351.62
936.86	8488.83
937.03	8157.06
937.20	8146.82
937.36	8132.48
937.53	7997.32
937.70	8030.09
937.86	7786.38
938.03	7790.47
938.20	7868.30
938.36	7581.58
938.53	7712.65
938.70	7368.59
938.86	7407.50
939.03	7268.24
939.20	7116.69
939.36	7266.19
939.53	6997.91
939.70	7303.06
939.86	7040.92
940.03	6770.58
940.19	6637.47
940.36	6676.38
940.53	6666.14
940.69	6479.77
940.86	6502.30
941.03	6539.16
941.19	6209.44
941.36	6334.37
941.52	6238.11
941.69	6014.88
941.86	6160.29
942.02	5902.25
942.19	6229.92
942.35	5961.64
942.52	5939.11
942.69	5750.70
942.85	5883.81
943.02	5883.81
943.18	5754.79
943.35	5656.49
943.52	5597.10
943.68	5529.52
943.85	5576.62
944.01	5398.45
944.18	5625.77
944.35	5599.15
944.51	5457.84
944.68	5285.81
944.84	5433.26
945.01	5345.20
945.17	5394.35
945.34	5343.15
945.51	5414.83
945.67	5382.06
945.84	5347.25
946.00	5218.22
946.17	5226.42
946.33	5250.99
946.50	5312.43
946.67	5234.61
946.83	5220.27
947.00	5355.44
947.16	5070.77
947.33	5250.99
947.49	5279.66
947.66	5087.15
947.82	5304.24
947.99	5154.74
948.16	5224.37
948.32	5185.46
948.49	5205.94
948.65	5257.14
948.82	5160.88
948.98	5115.83
949.15	5027.76
949.31	5298.10
949.48	5320.62
949.64	5263.28
949.81	5287.86
949.97	5164.98
950.14	5296.05
950.30	5253.04
950.47	5273.52
950.63	5216.18
950.80	5373.87
950.96	5210.03
951.13	5357.49
951.30	5232.56
951.46	5193.65
951.63	5359.53
951.79	5244.85
951.96	5304.24
952.12	5345.20
952.29	5343.15
952.45	5175.22
952.62	5316.53
952.78	5423.02
952.94	5388.21
953.11	5408.69
953.27	5255.09
953.44	5550.00
953.60	5347.25
953.77	5433.26
953.93	5294.00
954.10	5337.01
954.26	5230.51
954.43	5386.16
954.59	5461.93
954.76	5482.41
954.92	5441.45
955.09	5373.87
955.25	5214.13
955.42	5369.77
955.58	5410.73
955.75	5545.90
955.91	5519.28
956.07	5410.73
956.24	5640.11
956.40	5420.97
956.57	5535.66
956.73	5388.21
956.90	5523.37
957.06	5369.77
957.23	5312.43
957.39	5310.38
957.56	5437.36
957.72	5504.94
957.88	5343.15
958.05	5550.00
958.21	5728.17
958.38	5478.32
958.54	5513.13
958.71	5582.76
958.87	5232.56
959.03	5382.06
959.20	5480.36
959.36	5355.44
959.53	5386.16
959.69	5513.13
959.85	5504.94
960.02	5310.38
960.18	5412.78
960.35	5539.76
960.51	5554.09
960.68	5380.01
960.84	5398.45
961.00	5357.49
961.17	5384.11
961.33	5461.93
961.50	5363.63
961.66	5474.22
961.82	5416.88
961.99	5492.65
962.15	5339.05
962.31	5337.01
962.48	5490.60
962.64	5283.76
962.81	5316.53
962.97	5332.91
963.13	5463.98
963.30	5312.43
963.46	5310.38
963.62	5361.58
963.79	5300.14
963.95	5400.49
964.12	5361.58
964.28	5404.59
964.44	5423.02
964.61	5351.34
964.77	5332.91
964.93	5423.02
965.10	5414.83
965.26	5365.68
965.42	5304.24
965.59	5199.79
965.75	5291.95
965.92	5240.75
966.08	5388.21
966.24	5361.58
966.41	5312.43
966.57	5250.99
966.73	5277.62
966.90	5326.77
967.06	5255.09
967.22	5310.38
967.39	5296.05
967.55	5044.15
967.71	5164.98
967.88	5267.38
968.04	5001.14
968.20	5160.88
968.37	5195.70
968.53	5162.93
968.69	5205.94
968.85	5162.93
969.02	5162.93
969.18	5263.28
969.34	5214.13
969.51	5130.16
969.67	5115.83
969.83	5132.21
970.00	5089.20
970.16	4929.46
970.32	5113.78
970.48	5199.79
970.65	5095.35
970.81	5097.39
970.97	4939.70
971.14	4915.12
971.30	5072.82
971.46	5013.43
971.63	5083.06
971.79	5158.83
971.95	5148.59
972.11	5095.35
972.28	4976.56
972.44	4972.47
972.60	5021.62
972.76	4943.80
972.93	4947.89
973.09	4876.21
973.25	4876.21
973.42	4763.58
973.58	4964.28
973.74	5013.43
973.90	4786.10
974.07	4837.30
974.23	4775.86
974.39	4986.80
974.55	4853.69
974.72	4827.06
974.88	4648.89
975.04	4827.06
975.20	4714.42
975.37	4857.78
975.53	4921.27
975.69	4771.77
975.85	4792.25
976.01	4681.66
976.18	4894.65
976.34	4671.42
976.50	4698.04
976.66	4808.63
976.83	4810.68
976.99	4765.62
977.15	4640.70
977.31	4581.31
977.47	4820.92
977.64	4683.70
977.80	4609.98
977.96	4581.31
978.12	4720.57
978.29	4632.51
978.45	4712.38
978.61	4771.77
978.77	4741.05
978.93	4652.98
979.10	4554.68
979.26	4501.44
979.42	4614.07
979.58	4554.68
979.74	4579.26
979.91	4478.91
980.07	4466.62
980.23	4427.71
980.39	4550.59
980.55	4425.66
980.71	4440.00
980.88	4343.74
981.04	4501.44
981.20	4480.96
981.36	4468.67
981.52	4466.62
981.68	4390.84
981.85	4290.49
982.01	4450.24
982.17	4442.04
982.33	4329.41
982.49	4485.05
982.65	4257.73
982.82	4378.56
982.98	4347.84
983.14	4190.14
983.30	4407.23
983.46	4337.60
983.62	4263.87
983.79	4278.21
983.95	4177.86
984.11	4214.72
984.27	4165.57
984.43	4253.63
984.59	4075.46
984.75	4165.57
984.91	4124.61
985.08	4315.07
985.24	4136.90
985.40	4218.82
985.56	4138.94
985.72	4192.19
985.88	4194.24
986.04	4151.23
986.20	4011.97
986.37	4114.37
986.53	4034.50
986.69	4124.61
986.85	3995.59
987.01	4063.17
987.17	4169.66
987.33	4054.98
987.49	3960.77
987.65	4114.37
987.82	4097.99
987.98	4040.64
988.14	4052.93
988.30	4114.37
988.46	3915.72
988.62	4020.16
988.78	3923.91
988.94	3944.39
989.10	3928.00
989.26	4042.69
989.42	3878.85
989.59	3809.22
989.75	3854.28
989.91	3981.25
990.07	3807.17
990.23	3723.21
990.39	3813.32
990.55	3911.62
990.71	3674.06
990.87	3850.18
991.03	3923.91
991.19	3901.38
991.35	3684.30
991.51	3876.80
991.67	3837.89
991.83	3805.13
992.00	3796.93
992.16	3801.03
992.32	3889.09
992.48	3663.82
992.64	3643.34
992.80	3712.97
992.96	3704.78
993.12	3710.92
993.28	3786.69
993.44	3796.93
993.60	3745.73
993.76	3706.82
993.92	3725.26
994.08	3725.26
994.24	3553.23
994.40	3725.26
994.56	3680.20
994.72	3635.14
994.88	3575.75
995.04	3583.95
995.20	3639.24
995.36	3567.56
995.52	3721.16
995.68	3571.66
995.84	3477.45
996.00	3702.73
996.16	3499.98
996.32	3491.79
996.48	3526.60
996.64	3579.85
996.80	3493.83
996.96	3514.31
997.12	3426.25
997.28	3403.72
997.44	3590.09
997.60	3346.38
997.76	3522.51
997.92	3487.69
998.08	3471.31
998.24	3286.99
998.40	3422.16
998.56	3467.21
998.72	3284.94
998.88	3426.25
999.04	3403.72
999.20	3401.68
999.36	3256.27
999.52	3354.57
999.68	3289.04
999.84	3358.67
1000.00	3366.86
1000.16	3336.14
1000.32	3295.18
1000.48	3475.40
1000.64	3264.46
1000.80	3215.31
1000.95	3327.95
1001.11	3280.85
1001.27	3215.31
1001.43	3289.04
1001.59	3248.08
1001.75	3235.79
1001.91	3186.64
1002.07	3246.03
1002.23	3139.54
1002.39	3178.45
1002.55	3119.06
1002.71	3223.50
1002.87	3164.11
1003.03	3131.34
1003.19	3221.45
1003.34	3223.50
1003.50	3162.06
1003.66	3276.75
1003.82	3135.44
1003.98	3002.32
1004.14	3010.51
1004.30	3059.67
1004.46	3106.77
1004.62	3088.34
1004.78	3149.78
1004.94	3170.26
1005.09	3080.14
1005.25	3149.78
1005.41	2928.60
1005.57	3002.32
1005.73	3022.80
1005.89	2990.03
1006.05	3059.67
1006.21	3033.04
1006.37	2928.60
1006.52	2967.51
1006.68	2901.97
1006.84	3082.19
1007.00	2936.79
1007.16	2920.40
1007.32	2858.96
1007.48	3002.32
1007.64	3041.23
1007.79	2975.70
1007.95	2863.06
1008.11	2951.12
1008.27	2918.36
1008.43	2885.59
1008.59	2867.16
1008.75	2885.59
1008.91	2881.49
1009.06	2947.03
1009.22	2938.84
1009.38	2895.83
1009.54	2861.01
1009.70	2891.73
1009.86	2916.31
1010.01	2854.87
1010.17	2783.19
1010.33	2854.87
1010.49	2772.95
1010.65	2842.58
1010.81	2711.51
1010.96	2824.15
1011.12	2707.41
1011.28	2736.09
1011.44	2746.33
1011.60	2764.76
1011.76	2680.79
1011.91	2834.39
1012.07	2641.88
1012.23	2652.12
1012.39	2709.46
1012.55	2693.08
1012.71	2602.97
1012.86	2725.85
1013.02	2660.31
1013.18	2645.98
1013.34	2656.22
1013.50	2701.27
1013.65	2738.13
1013.81	2639.83
1013.97	2541.53
1014.13	2658.26
1014.29	2637.78
1014.44	2738.13
1014.60	2650.07
1014.76	2574.30
1014.92	2582.49
1015.07	2639.83
1015.23	2598.87
1015.39	2543.58
1015.55	2605.02
1015.71	2559.96
1015.86	2494.43
1016.02	2551.77
1016.18	2502.62
1016.34	2578.39
1016.49	2541.53
1016.65	2551.77
1016.81	2514.91
1016.97	2498.52
1017.12	2592.73
1017.28	2471.90
1017.44	2512.86
1017.60	2527.19
1017.75	2488.28
1017.91	2482.14
1018.07	2471.90
1018.23	2531.29
1018.38	2449.37
1018.54	2418.65
1018.70	2473.95
1018.86	2445.27
1019.01	2367.45
1019.17	2494.43
1019.33	2514.91
1019.49	2414.56
1019.64	2445.27
1019.80	2420.70
1019.96	2396.12
1020.12	2527.19
1020.27	2289.63
1020.43	2322.40
1020.59	2383.84
1020.74	2439.13
1020.90	2396.12
1021.06	2379.74
1021.22	2381.79
1021.37	2437.08
1021.53	2310.11
1021.69	2447.32
1021.84	2254.81
1022.00	2377.69
1022.16	2265.05
1022.31	2252.77
1022.47	2375.64
1022.63	2334.68
1022.79	2346.97
1022.94	2242.53
1023.10	2422.75
1023.26	2373.60
1023.41	2250.72
1023.57	2314.20
1023.73	2269.15
1023.88	2273.25
1024.04	2269.15
1024.20	2308.06
1024.35	2281.44
1024.51	2334.68
1024.67	2228.19
1024.82	2263.01
1024.98	2156.51
1025.14	2199.52
1025.29	2256.86
1025.45	2320.35
1025.61	2160.61
1025.76	2232.29
1025.92	2187.23
1026.08	2328.54
1026.23	2256.86
1026.39	2293.72
1026.55	2226.14
1026.70	2189.28
1026.86	2215.90
1027.02	2263.01
1027.17	2248.67
1027.33	2224.09
1027.48	2093.02
1027.64	2189.28
1027.80	2045.92
1027.95	2244.57
1028.11	2009.06
1028.27	2150.37
1028.42	2127.84
1028.58	2080.74
1028.73	2183.13
1028.89	2090.98
1029.05	2129.89
1029.20	2158.56
>>>>>End Processed Spectral Data<<<<<
