SpectraSuite Data File
++++++++++++++++++++++++++++++++++++
Date: Fri Jun 02 14:44:38 CEST 2017
User: INFO_000
Dark Spectrum Present: No
Reference Spectrum Present: No
Number of Sampled Component Spectra: 1
Spectrometers: USB4H00879
Integration Time (usec): 80000 (USB4H00879)
Spectra Averaged: 1 (USB4H00879)
Boxcar Smoothing: 0 (USB4H00879)
Correct for Electrical Dark: No (USB4H00879)
Strobe/Lamp Enabled: No (USB4H00879)
Correct for Detector Non-linearity: No (USB4H00879)
Correct for Stray Light: No (USB4H00879)
Number of Pixels in Processed Spectrum: 3648
>>>>>Begin Processed Spectral Data<<<<<
345.13	1292.27
345.34	1292.27
345.56	1292.27
345.78	1273.84
345.99	1216.49
346.21	1748.97
346.42	1619.94
346.64	1609.70
346.86	1875.94
347.07	1619.94
347.29	1716.20
347.50	1697.77
347.72	1632.23
347.94	1757.16
348.15	1605.61
348.37	1589.22
348.59	1748.97
348.80	1615.85
349.02	1748.97
349.23	1847.27
349.45	1820.64
349.67	1877.99
349.88	1810.40
350.10	1920.99
350.31	1802.21
350.53	1830.88
350.75	1927.14
350.96	1875.94
351.18	1890.28
351.39	1822.69
351.61	1814.50
351.82	1867.75
352.04	1947.62
352.26	1851.36
352.47	1959.91
352.69	1920.99
352.90	1746.92
353.12	1853.41
353.34	1828.84
353.55	2002.91
353.77	1822.69
353.98	1828.84
354.20	1845.22
354.41	1945.57
354.63	1871.84
354.85	1980.39
355.06	1863.65
355.28	1742.82
355.49	1961.95
355.71	1939.43
355.92	1914.85
356.14	1853.41
356.35	1880.04
356.57	1884.13
356.79	1964.00
357.00	1894.37
357.22	1986.53
357.43	1861.60
357.65	1896.42
357.86	1802.21
358.08	1898.47
358.29	1953.76
358.51	1978.34
358.72	1968.10
358.94	1923.04
359.16	1920.99
359.37	1912.80
359.59	1949.67
359.80	2031.58
360.02	1943.52
360.23	1914.85
360.45	1978.34
360.66	1892.32
360.88	1800.16
361.09	1900.52
361.31	2015.20
361.52	1957.86
361.74	1998.82
361.95	2088.93
362.17	1869.80
362.38	2082.78
362.60	2017.25
362.81	1892.32
363.03	1986.53
363.24	1968.10
363.46	2027.49
363.67	1972.19
363.89	2047.97
364.10	1951.71
364.32	1951.71
364.53	2101.22
364.75	1937.38
364.96	2023.39
365.18	1970.15
365.39	1959.91
365.61	1894.37
365.82	2191.33
366.04	2017.25
366.25	1955.81
366.47	2066.40
366.68	2027.49
366.90	1937.38
367.11	2103.26
367.33	2015.20
367.54	2082.78
367.76	1986.53
367.97	2164.70
368.19	1925.09
368.40	2117.60
368.62	1927.14
368.83	1945.57
369.05	2019.30
369.26	1912.80
369.48	2090.98
369.69	2002.91
369.91	2093.02
370.12	2119.65
370.33	2064.35
370.55	1968.10
370.76	2086.88
370.98	2039.78
371.19	2068.45
371.41	1990.63
371.62	1986.53
371.84	2033.63
372.05	2142.18
372.27	2000.87
372.48	2101.22
372.69	2131.94
372.91	2232.29
373.12	2166.75
373.34	2154.46
373.55	2138.08
373.77	2131.94
373.98	2041.82
374.20	2193.37
374.41	2179.04
374.62	2129.89
374.84	2115.55
375.05	2166.75
375.27	2234.33
375.48	2099.17
375.70	2193.37
375.91	2242.53
376.12	2297.82
376.34	2105.31
376.55	2148.32
376.77	2246.62
376.98	2045.92
377.19	2111.46
377.41	2105.31
377.62	2299.87
377.84	2191.33
378.05	2287.58
378.27	2222.05
378.48	2273.25
378.69	2396.12
378.91	2248.67
379.12	2170.85
379.34	2215.90
379.55	2285.53
379.76	2279.39
379.98	2267.10
380.19	2260.96
380.41	2303.96
380.62	2197.47
380.83	2217.95
381.05	2201.57
381.26	2441.18
381.47	2234.33
381.69	2265.05
381.90	2412.51
382.12	2338.78
382.33	2240.48
382.54	2226.14
382.76	2289.63
382.97	2256.86
383.19	2183.13
383.40	2389.98
383.61	2281.44
383.83	2246.62
384.04	2289.63
384.25	2367.45
384.47	2271.20
384.68	2299.87
384.89	2303.96
385.11	2400.22
385.32	2330.59
385.54	2381.79
385.75	2312.16
385.96	2404.32
386.18	2432.99
386.39	2457.56
386.60	2422.75
386.82	2340.83
387.03	2412.51
387.24	2396.12
387.46	2426.84
387.67	2510.81
387.88	2500.57
388.10	2443.23
388.31	2435.03
388.52	2506.71
388.74	2449.37
388.95	2572.25
389.16	2549.72
389.38	2539.48
389.59	2580.44
389.80	2557.91
390.02	2605.02
390.23	2715.61
390.44	2594.78
390.66	2582.49
390.87	2490.33
391.08	2580.44
391.30	2641.88
391.51	2588.63
391.72	2592.73
391.94	2623.45
392.15	2625.50
392.36	2574.30
392.58	2658.26
392.79	2719.70
393.00	2686.94
393.22	2738.13
393.43	2787.29
393.64	2818.00
393.85	2729.94
394.07	2639.83
394.28	2703.32
394.49	2772.95
394.71	2764.76
394.92	2838.48
395.13	2645.98
395.35	2850.77
395.56	2779.09
395.77	2830.29
395.98	2865.11
396.20	2928.60
396.41	2854.87
396.62	2787.29
396.84	2668.50
397.05	2691.03
397.26	2920.40
397.47	2895.83
397.69	2887.64
397.90	3059.67
398.11	2936.79
398.32	2932.69
398.54	2803.67
398.75	2848.72
398.96	2967.51
399.18	3121.10
399.39	2969.55
399.60	3024.85
399.81	2916.31
400.03	2998.23
400.24	3291.09
400.45	2924.50
400.66	3176.40
400.88	2887.64
401.09	3231.69
401.30	3074.00
401.51	3133.39
401.73	3139.54
401.94	3135.44
402.15	3012.56
402.36	3106.77
402.58	3092.43
402.79	3182.54
403.00	3119.06
403.21	3225.55
403.43	3243.98
403.64	3284.94
403.85	3157.97
404.06	3350.48
404.27	3143.63
404.49	3108.82
404.70	3239.89
404.91	3276.75
405.12	3299.28
405.34	3276.75
405.55	3377.10
405.76	3200.98
405.97	3221.45
406.19	3397.58
406.40	3317.71
406.61	3325.90
406.82	3334.09
407.03	3305.42
407.25	3311.57
407.46	3428.30
407.67	3411.92
407.88	3434.44
408.09	3411.92
408.31	3452.88
408.52	3463.12
408.73	3370.96
408.94	3352.52
409.15	3344.33
409.37	3368.91
409.58	3526.60
409.79	3585.99
410.00	3575.75
410.21	3485.64
410.43	3409.87
410.64	3442.64
410.85	3534.79
411.06	3459.02
411.27	3602.38
411.48	3581.90
411.70	3639.24
411.91	3653.58
412.12	3817.41
412.33	3594.19
412.54	3637.19
412.76	3678.15
412.97	3712.97
413.18	3606.47
413.39	3575.75
413.60	3661.77
413.81	3727.30
414.03	3653.58
414.24	3739.59
414.45	3739.59
414.66	3645.38
414.87	3835.85
415.08	3846.09
415.30	3743.69
415.51	3770.31
415.72	3704.78
415.93	3827.65
416.14	3839.94
416.35	3919.81
416.56	3733.45
416.78	3899.33
416.99	3925.96
417.20	3850.18
417.41	3919.81
417.62	3876.80
417.83	3956.68
418.04	3895.24
418.26	4011.97
418.47	4007.87
418.68	3981.25
418.89	4007.87
419.10	4061.12
419.31	4022.21
419.52	3983.30
419.73	4188.10
419.95	4169.66
420.16	3868.61
420.37	4018.11
420.58	4204.48
420.79	3928.00
421.00	4003.78
421.21	4120.51
421.42	4165.57
421.63	4169.66
421.85	4138.94
422.06	4206.53
422.27	4333.50
422.48	4190.14
422.69	4280.25
422.90	4319.17
423.11	4229.06
423.32	4317.12
423.53	4425.66
423.75	4284.35
423.96	4454.33
424.17	4306.88
424.38	4468.67
424.59	4386.75
424.80	4695.99
425.01	4407.23
425.22	4509.63
425.43	4523.96
425.64	4638.65
425.85	4667.32
426.06	4523.96
426.28	4505.53
426.49	4478.91
426.70	4579.26
426.91	4677.56
427.12	4673.46
427.33	4673.46
427.54	4644.79
427.75	4769.72
427.96	5013.43
428.17	4687.80
428.38	4865.97
428.59	4908.98
428.80	4833.21
429.01	4906.93
429.23	4874.17
429.44	4853.69
429.65	4960.18
429.86	4933.56
430.07	4970.42
430.28	4900.79
430.49	5023.67
430.70	5279.66
430.91	5121.97
431.12	4925.36
431.33	5148.59
431.54	5193.65
431.75	5099.44
431.96	5171.12
432.17	5087.15
432.38	5115.83
432.59	5418.93
432.80	5318.57
433.01	5341.10
433.22	5283.76
433.43	5429.17
433.64	5275.57
433.85	5226.42
434.06	5351.34
434.27	5320.62
434.49	5314.48
434.70	5541.80
434.91	5435.31
435.12	5476.27
435.33	5431.21
435.54	5502.89
435.75	5371.82
435.96	5515.18
436.17	5486.51
436.38	5562.28
436.59	5554.09
436.80	5513.13
437.01	5775.27
437.22	5816.23
437.43	5572.52
437.64	5472.17
437.85	5758.89
438.06	5869.48
438.27	5765.03
438.48	5824.42
438.69	5767.08
438.90	5849.00
439.11	5693.35
439.32	5945.25
439.53	5908.39
439.74	5928.87
439.95	6016.93
440.16	5879.72
440.37	5988.26
440.57	5881.77
440.78	6129.57
440.99	6012.84
441.20	6123.43
441.41	5881.77
441.62	6098.85
441.83	5982.12
442.04	6277.02
442.25	6100.90
442.46	6102.95
442.67	6401.95
442.88	6645.66
443.09	6025.12
443.30	6254.50
443.51	6246.30
443.72	6465.44
443.93	6162.34
444.14	6666.14
444.35	6180.77
444.56	6332.32
444.77	6358.94
444.98	6481.82
445.19	6586.27
445.40	6516.64
445.61	6381.47
445.81	6653.85
446.02	6754.20
446.23	6510.49
446.44	6457.25
446.65	6504.35
446.86	6588.32
447.07	6666.14
447.28	6950.81
447.49	6678.43
447.70	6578.08
447.91	6729.63
448.12	6709.15
448.33	6866.84
448.54	6748.06
448.74	6703.00
448.95	6877.08
449.16	6719.39
449.37	7204.75
449.58	6854.55
449.79	7184.27
450.00	6713.24
450.21	7135.12
450.42	7092.12
450.63	7016.34
450.84	7061.40
451.05	7063.44
451.25	7157.65
451.46	7167.89
451.67	7333.78
451.88	7337.87
452.09	7124.88
452.30	6983.57
452.51	7296.91
452.72	7069.59
452.93	7524.24
453.13	7153.55
453.34	7341.97
453.55	7456.65
453.76	7434.13
453.97	7608.20
454.18	7540.62
454.39	7634.83
454.60	7419.79
454.81	7569.29
455.01	7626.64
455.22	7546.76
455.43	7810.95
455.64	7843.72
455.85	7987.08
456.06	7989.13
456.27	7733.13
456.48	7731.08
456.68	7810.95
456.89	7878.54
457.10	8048.52
457.31	8052.61
457.52	8030.09
457.73	8220.55
457.94	8368.00
458.14	8085.38
458.35	8425.34
458.56	8322.94
458.77	8306.56
458.98	8329.09
459.19	8351.62
459.39	8302.47
459.60	8658.81
459.81	8365.95
460.02	8472.45
460.23	8398.72
460.44	8832.89
460.65	8699.77
460.85	8726.39
461.06	8742.78
461.27	8744.83
461.48	8834.94
461.69	8888.18
461.89	8701.82
462.10	9006.97
462.31	8703.87
462.52	8798.07
462.73	8980.34
462.94	9297.78
463.14	9107.32
463.35	9123.70
463.56	9533.29
463.77	9320.31
463.98	9154.42
464.18	9308.02
464.39	9359.22
464.60	9713.52
464.81	9512.81
465.02	9670.51
465.23	9906.02
465.43	9662.32
465.64	10127.21
465.85	9674.60
466.06	9789.29
466.27	10274.66
466.47	10049.38
466.68	10135.40
466.89	9838.44
467.10	10135.40
467.30	10024.81
467.51	10301.28
467.72	10659.68
467.93	10301.28
468.14	10401.63
468.34	10616.67
468.55	10444.64
468.76	10661.73
468.97	10454.88
469.17	10669.92
469.38	10970.97
469.59	11022.17
469.80	10671.97
470.01	11030.36
470.21	11020.12
470.42	10958.68
470.63	11231.06
470.84	11159.38
471.04	11605.84
471.25	11294.55
471.46	11388.75
471.67	11708.24
471.87	11642.70
472.08	11548.50
472.29	11669.33
472.50	11681.61
472.70	11835.21
472.91	11894.60
473.12	11976.52
473.33	12269.38
473.53	12246.85
473.74	12191.56
473.95	12441.41
474.16	12595.01
474.36	12584.77
474.57	12640.06
474.78	12891.96
474.99	12877.63
475.19	12803.90
475.40	13186.87
475.61	13254.45
475.81	13262.65
476.02	13363.00
476.23	13358.90
476.44	13399.86
476.64	13698.86
476.85	13864.75
477.06	13547.31
477.27	13977.39
477.47	14036.78
477.68	13942.57
477.89	14157.61
478.09	14186.28
478.30	14315.30
478.51	14360.36
478.71	14395.17
478.92	14571.30
479.13	14563.11
479.34	14827.29
479.54	15025.95
479.75	15001.37
479.96	14628.64
480.16	15036.19
480.37	15124.25
480.58	15531.80
480.78	15791.89
480.99	15521.56
481.20	15607.57
481.41	15802.13
481.61	15802.13
481.82	15808.27
482.03	15699.73
482.23	15886.09
482.44	15961.87
482.65	16492.29
482.85	16445.19
483.06	16387.85
483.27	16338.69
483.47	16092.94
483.68	16420.61
483.89	16811.78
484.09	16723.71
484.30	16920.32
484.51	17061.63
484.71	17006.33
484.92	16996.09
485.13	17327.86
485.33	17538.80
485.54	17235.70
485.75	17616.63
485.95	17645.30
486.16	17721.07
486.37	17876.72
486.57	17659.63
486.78	17637.11
486.98	18128.62
487.19	18380.52
487.40	18106.09
487.60	18554.60
487.81	18736.87
488.02	18470.63
488.22	18423.53
488.43	18654.95
488.64	18790.11
488.84	18876.13
489.05	19130.08
489.25	18980.57
489.46	19271.39
489.67	18896.61
489.87	19371.74
490.08	19576.53
490.29	19531.48
490.49	19896.02
490.70	19572.44
490.90	19592.92
491.11	19494.61
491.32	19988.18
491.52	19889.87
491.73	20295.37
491.94	20180.68
492.14	20393.67
492.35	20238.03
492.55	20485.83
492.76	20389.58
492.97	20774.60
493.17	20547.27
493.38	20684.48
493.58	21163.71
493.79	20840.13
494.00	20840.13
494.20	20905.66
494.41	21249.72
494.61	21202.62
494.82	21501.62
495.02	21298.88
495.23	21339.83
495.44	21405.37
495.64	21577.40
495.85	21503.67
496.05	21720.76
496.26	21690.04
496.47	21991.09
496.67	21792.44
496.88	22302.38
497.08	22003.38
497.29	22083.25
497.49	22193.84
497.70	22812.32
497.91	22388.39
498.11	22236.84
498.32	22515.37
498.52	22673.06
498.73	22765.22
498.93	22462.12
499.14	22800.04
499.34	22992.55
499.55	23023.26
499.76	22974.11
499.96	23148.19
500.17	23195.29
500.37	23449.24
500.58	23086.75
500.78	23281.31
500.99	23439.00
501.19	23613.08
501.40	23705.24
501.60	23443.10
501.81	23695.00
502.02	23522.97
502.22	23756.44
502.43	23864.98
502.63	24262.29
502.84	24059.54
503.04	24084.11
503.25	24452.75
503.45	23953.04
503.66	24391.31
503.86	24348.30
504.07	24909.44
504.27	24424.08
504.48	24643.21
504.68	24690.31
504.89	24833.67
505.09	24960.64
505.30	25116.29
505.50	24831.62
505.71	25036.42
505.91	25245.31
506.12	25386.62
506.32	25075.33
506.53	25464.44
506.73	25310.85
506.94	25615.99
507.14	25562.75
507.35	25362.04
507.55	25589.37
507.76	25966.20
507.96	25644.66
508.17	25679.48
508.37	25822.84
508.58	25919.09
508.78	26027.63
508.99	26482.28
509.19	26445.42
509.40	26422.89
509.60	26218.10
509.81	26498.67
510.01	26588.78
510.22	26465.90
510.42	26615.40
510.63	26596.97
510.83	26699.37
511.04	26928.74
511.24	26775.14
511.44	26984.04
511.65	26844.77
511.85	27012.71
512.06	27248.22
512.26	27342.43
512.47	27143.78
512.67	27250.27
512.88	27340.38
513.08	27225.70
513.29	27668.06
513.49	27352.67
513.69	27453.02
513.90	27659.87
514.10	27827.80
514.31	27735.64
514.51	27797.08
514.72	27567.71
514.92	27819.61
515.13	27889.24
515.33	28114.52
515.53	28171.86
515.74	28200.53
515.94	28352.08
516.15	28429.90
516.35	27879.00
516.56	28638.80
516.76	28247.63
516.96	28614.22
517.17	29046.34
517.37	28493.39
517.58	28833.35
517.78	29048.39
517.99	29113.92
518.19	29019.72
518.39	29165.12
518.60	29212.23
518.80	29201.99
519.01	29500.99
519.21	29414.98
519.41	29539.90
519.62	29228.61
519.82	29781.56
520.03	29744.70
520.23	29918.78
520.43	29939.26
520.64	30004.79
520.84	29998.65
521.05	29853.24
521.25	30146.10
521.45	30475.82
521.66	30170.68
521.86	30451.25
522.07	30432.82
522.27	30205.49
522.47	30420.53
522.68	30537.26
522.88	30447.15
523.08	30795.31
523.29	30647.85
523.49	30901.80
523.70	31131.17
523.90	31610.40
524.10	31163.94
524.31	31112.74
524.51	31096.36
524.71	31600.16
524.92	31467.04
525.12	31788.57
525.33	31663.64
525.53	32011.80
525.73	31944.22
525.94	31737.37
526.14	31974.94
526.34	32278.04
526.55	31675.93
526.75	32151.06
526.95	32306.71
527.16	32224.79
527.36	32265.75
527.56	32697.87
527.77	32634.38
527.97	32763.40
528.17	32378.39
528.38	32810.51
528.58	33023.50
528.78	33150.47
528.99	32738.83
529.19	33342.98
529.39	33025.54
529.60	33895.93
529.80	33150.47
530.00	33183.24
530.21	33918.46
530.41	33631.74
530.61	33484.29
530.82	33615.36
531.02	33691.13
531.22	33992.19
531.43	33594.88
531.63	33967.61
531.83	34186.74
532.04	34125.30
532.24	34254.33
532.44	34500.08
532.64	34821.61
532.85	34545.14
533.05	34377.20
533.25	34518.51
533.46	34799.08
533.66	34981.35
533.86	34858.48
534.07	35104.23
534.27	34987.50
534.47	35061.22
534.67	35505.63
534.88	35210.73
535.08	35141.10
535.28	35536.35
535.49	35737.05
535.69	35923.42
535.89	35806.69
536.09	36326.87
536.30	35769.82
536.50	35878.36
536.70	36187.61
536.91	35790.30
537.11	35948.00
537.31	36363.73
537.51	36345.30
537.72	36650.45
537.92	36519.38
538.12	36670.93
538.32	36427.22
538.53	36937.16
538.73	36699.60
538.93	36890.06
539.13	36873.68
539.34	37062.09
539.54	37481.92
539.74	37311.94
539.94	37352.90
540.15	37131.72
540.35	37418.44
540.55	37436.87
540.75	36900.30
540.96	37410.25
541.16	37864.89
541.36	37377.48
541.56	37852.61
541.77	37825.98
541.97	37930.43
542.17	38008.25
542.37	38002.11
542.58	37948.86
542.78	37866.94
542.98	38043.07
543.18	38569.40
543.38	38294.97
543.59	38628.79
543.79	38473.14
543.99	38178.23
544.19	38749.62
544.40	38761.90
544.60	39001.52
544.80	38690.23
545.00	38716.85
545.20	38997.42
545.41	38899.12
545.61	38700.47
545.81	39073.20
546.01	39466.41
546.21	39124.40
546.42	38952.37
546.62	39454.12
546.82	39404.97
547.02	39523.75
547.22	39308.71
547.43	39478.69
547.63	39525.80
547.83	39681.44
548.03	39450.02
548.23	39552.42
548.44	39603.62
548.64	39849.38
548.84	40207.77
549.04	40107.42
549.24	40025.50
549.45	40291.74
549.65	40142.24
549.85	40060.32
550.05	40633.75
550.25	40490.39
550.45	40932.75
550.66	40512.92
550.86	40568.21
551.06	41082.25
551.26	40779.15
551.46	40484.25
551.66	41045.39
551.87	40674.71
552.07	40906.13
552.27	40770.96
552.47	41110.92
552.67	41162.12
552.87	41119.12
553.07	41053.58
553.28	41317.77
553.48	41291.15
553.68	41072.01
553.88	41639.30
554.08	41473.42
554.28	41475.46
554.48	41416.07
554.69	42030.46
554.89	41842.05
555.09	41733.51
555.29	41907.58
555.49	42184.06
555.69	42055.04
555.89	42163.58
556.10	42341.75
556.30	42020.22
556.50	42055.04
556.70	41893.25
556.90	42165.63
557.10	42526.07
557.30	42317.18
557.50	42775.92
557.70	42429.82
557.91	42571.13
558.11	42481.02
558.31	42952.05
558.51	42544.50
558.71	43177.33
558.91	42857.84
559.11	42632.57
559.31	42759.54
559.51	42601.85
559.72	43005.30
559.92	43281.77
560.12	43056.50
560.32	43214.19
560.52	42966.38
560.72	43181.42
560.92	42990.96
561.12	43595.11
561.32	43763.04
561.52	43597.16
561.72	43543.91
561.93	43406.70
562.13	43638.12
562.33	43591.01
562.53	44143.97
562.73	43785.57
562.93	43939.17
563.13	43847.01
563.33	43717.99
563.53	44121.44
563.73	43799.91
563.93	44096.86
564.13	44328.28
564.33	44168.54
564.53	43955.55
564.74	44426.59
564.94	44227.93
565.14	44569.94
565.34	44490.07
565.54	44715.35
565.74	44752.21
565.94	44774.74
566.14	44612.95
566.34	44647.77
566.54	45350.22
566.74	44684.63
566.94	45180.24
567.14	45159.76
567.34	44496.22
567.54	45122.90
567.74	44795.22
567.94	45215.05
568.14	45391.18
568.34	45495.63
568.54	45258.06
568.74	45294.92
568.94	45636.94
569.14	45737.29
569.34	45684.04
569.54	45206.86
569.75	45088.08
569.95	45577.54
570.15	45806.92
570.35	45755.72
570.55	45669.70
570.75	45776.20
570.95	45729.09
571.15	45843.78
571.35	45847.88
571.55	46482.75
571.75	46097.73
571.95	46120.26
572.15	46110.02
572.35	46320.96
572.55	45847.88
572.75	46257.47
572.95	46304.57
573.15	46605.62
573.35	46527.80
573.55	46619.96
573.75	46187.84
573.95	46540.09
574.15	46581.05
574.35	46949.68
574.55	46505.27
574.75	46642.49
574.95	46785.85
575.15	46603.58
575.34	46906.68
575.54	46867.76
575.74	46871.86
575.94	46900.53
576.14	46695.74
576.34	47306.03
576.54	47254.83
576.74	47226.16
576.94	47160.62
577.14	47377.71
577.34	47437.10
577.54	47228.21
577.74	47371.57
577.94	47449.39
578.14	47574.31
578.34	48016.68
578.54	46884.15
578.74	47303.98
578.94	47777.06
579.14	47652.14
579.34	47508.78
579.54	47478.06
579.74	48051.49
579.94	47963.43
580.13	48112.93
580.33	47777.06
580.53	48180.51
580.73	48059.68
580.93	48096.55
581.13	47912.23
581.33	48117.03
581.53	48352.54
581.73	48381.21
581.93	48088.35
582.13	48426.27
582.33	48567.58
582.53	48514.33
582.73	48579.87
582.92	48731.42
583.12	48387.36
583.32	48362.78
583.52	48239.90
583.72	49005.84
583.92	48637.21
584.12	48669.98
584.32	49218.83
584.52	48919.83
584.72	48856.34
584.92	49222.93
585.11	49575.18
585.31	48737.56
585.51	49280.27
585.71	48608.54
585.91	49558.80
586.11	48915.73
586.31	49130.77
586.51	48565.53
586.71	48731.42
586.91	49394.96
587.10	49278.22
587.30	49446.16
587.50	49208.59
587.70	49427.73
587.90	49317.14
588.10	49655.05
588.30	49943.81
588.50	49708.30
588.69	49696.01
588.89	49655.05
589.09	49884.42
589.29	49763.59
589.49	49759.50
589.69	49491.21
589.89	49829.13
590.08	49956.10
590.28	49370.38
590.48	49751.30
590.68	49493.26
590.88	49472.78
591.08	49640.71
591.28	49493.26
591.47	50410.75
591.67	50324.74
591.87	50078.98
592.07	50214.15
592.27	49947.91
592.47	50017.54
592.67	50210.05
592.86	50115.84
593.06	49976.58
593.26	50298.11
593.46	50011.40
593.66	50885.88
593.86	50408.70
594.05	50644.22
594.25	50521.34
594.45	50115.84
594.65	50099.46
594.85	50085.12
595.05	50570.49
595.24	50769.15
595.44	50439.42
595.64	50451.71
595.84	50388.22
596.04	50984.18
596.23	50799.86
596.43	50898.17
596.63	50765.05
596.83	50578.68
597.03	50779.39
597.22	51408.11
597.42	51258.61
597.62	51066.10
597.82	50986.23
598.02	50816.25
598.21	51127.54
598.41	51115.25
598.61	50855.16
598.81	51148.02
599.01	51528.94
599.20	51156.21
599.40	51176.69
599.60	51428.59
599.80	51248.37
600.00	51229.94
600.19	51670.25
600.39	51530.99
600.59	51895.53
600.79	51483.89
600.98	51504.37
601.18	51631.34
601.38	51991.78
601.58	51926.25
601.78	52221.16
601.97	51668.20
602.17	52364.51
602.37	52075.75
602.57	51981.54
602.76	52143.33
602.96	51819.75
603.16	52673.76
603.36	52098.28
603.55	52544.73
603.75	51971.30
603.95	52569.31
604.15	52696.28
604.34	52550.88
604.54	52573.41
604.74	52909.27
604.94	52806.87
605.13	53116.12
605.33	52798.68
605.53	52440.29
605.73	53460.18
605.92	52720.86
606.12	52999.38
606.32	52915.42
606.52	52755.68
606.71	53239.00
606.91	52843.74
607.11	53091.54
607.30	53765.32
607.50	53701.84
607.70	53423.31
607.90	53224.66
608.09	53400.79
608.29	53255.38
608.49	53599.44
608.68	53232.85
608.88	53472.46
609.08	53853.39
609.28	53916.87
609.47	53546.19
609.67	54035.66
609.87	54047.94
610.06	54093.00
610.26	53816.52
610.46	54408.39
610.66	53554.38
610.85	53982.41
611.05	53978.31
611.25	54500.54
611.44	53896.39
611.64	54484.16
611.84	53816.52
612.03	53923.02
612.23	54090.95
612.43	54400.19
612.62	53791.95
612.82	54928.57
613.02	54189.25
613.21	54275.27
613.41	53941.45
613.61	54617.28
613.80	54408.39
614.00	54830.27
614.20	54566.08
614.39	54410.43
614.59	54691.01
614.79	54473.92
614.98	54482.11
615.18	54240.45
615.38	54881.47
615.57	54516.93
615.77	55139.51
615.97	55084.22
616.16	54654.14
616.36	54867.13
616.56	54781.12
616.75	54891.71
616.95	54885.56
617.15	55143.61
617.34	55219.38
617.54	55051.45
617.74	55714.99
617.93	55407.79
618.13	54469.82
618.32	54832.32
618.52	54957.24
618.72	55239.86
618.91	54971.58
619.11	54975.67
619.31	55026.87
619.50	55096.50
619.70	54764.73
619.90	55203.00
620.09	55110.84
620.29	55174.33
620.48	55190.71
620.68	55497.91
620.88	54670.53
621.07	54912.19
621.27	55487.67
621.46	55127.22
621.66	55379.12
621.86	55014.58
622.05	54932.67
622.25	55477.43
622.44	55274.68
622.64	54998.20
622.84	55631.02
623.03	54731.96
623.23	55850.16
623.42	55504.05
623.62	55899.31
623.82	55610.54
624.01	55188.66
624.21	55762.09
624.40	55489.71
624.60	55624.88
624.80	55301.30
624.99	55372.98
625.19	55293.11
625.38	55776.43
625.58	55815.34
625.77	55327.92
625.97	55452.85
626.17	55516.34
626.36	56003.75
626.56	55788.72
626.75	55383.22
626.95	55874.73
627.14	56063.14
627.34	56147.11
627.54	55342.26
627.73	55788.72
627.93	56124.58
628.12	56161.45
628.32	55852.20
628.51	55975.08
628.71	55686.32
628.90	55823.53
629.10	55887.02
629.30	56317.09
629.49	55788.72
629.69	56011.95
629.88	55989.42
630.08	56091.82
630.27	55997.61
630.47	55831.72
630.66	56308.90
630.86	55884.97
631.05	55786.67
631.25	56431.78
631.44	56554.66
631.64	55792.81
631.84	55903.40
632.03	56648.86
632.23	56102.06
632.42	56321.19
632.62	56345.76
632.81	55641.26
633.01	56362.15
633.20	56333.48
633.40	56648.86
633.59	55979.18
633.79	55964.84
633.98	56071.34
634.18	56902.81
634.37	56298.66
634.57	56378.53
634.76	56870.04
634.96	56497.31
635.15	56392.87
635.35	56521.89
635.54	56210.60
635.74	56720.54
635.93	56261.80
636.13	56493.22
636.32	56269.99
636.52	56186.02
636.71	56134.82
636.91	56247.46
637.10	56669.34
637.30	56863.90
637.49	56751.26
637.69	56784.03
637.88	56857.76
638.08	56110.25
638.27	56689.82
638.46	56401.06
638.66	56923.29
638.85	56560.80
639.05	56589.47
639.24	56927.39
639.44	56718.49
639.63	56779.93
639.83	56489.12
640.02	56644.77
640.22	56460.45
640.41	56540.32
640.61	56169.64
640.80	56974.49
640.99	56503.46
641.19	56865.95
641.38	56833.18
641.58	56622.24
641.77	56456.35
641.97	56360.10
642.16	56278.18
642.36	56687.78
642.55	56698.01
642.74	56390.82
642.94	57152.66
643.13	56546.47
643.33	57283.73
643.52	57185.43
643.72	56714.40
643.91	56784.03
644.10	57289.88
644.30	57091.22
644.49	56450.21
644.69	57011.35
644.88	56941.72
645.08	56620.19
645.27	56908.96
645.46	56525.99
645.66	56861.85
645.85	56812.70
646.05	56882.33
646.24	56816.80
646.43	56878.24
646.63	57271.45
646.82	57201.82
647.02	56710.30
647.21	56976.54
647.40	57017.50
647.60	57160.86
647.79	57132.18
647.99	57414.80
648.18	56775.84
648.37	57316.50
648.57	57050.27
648.76	56691.87
648.96	56833.18
649.15	57529.49
649.34	57382.04
649.54	57216.15
649.73	57101.46
649.92	56833.18
650.12	56814.75
650.31	56521.89
650.51	56794.27
650.70	57328.79
650.89	56652.96
651.09	57410.71
651.28	57050.27
651.47	57123.99
651.67	57001.11
651.86	57285.78
652.06	56745.12
652.25	56794.27
652.44	56667.30
652.64	56671.39
652.83	56521.89
653.02	56773.79
653.22	56655.01
653.41	56771.74
653.60	56732.83
653.80	56636.58
653.99	56902.81
654.18	56757.41
654.38	56341.67
654.57	56882.33
654.76	56781.98
654.96	56239.27
655.15	56327.33
655.34	56603.81
655.54	56407.20
655.73	56738.97
655.92	56863.90
656.12	56714.40
656.31	56747.17
656.50	57113.75
656.70	56566.94
656.89	56757.41
657.08	56599.71
657.28	56849.56
657.47	56802.46
657.66	56804.51
657.86	56415.40
658.05	56593.57
658.24	56915.10
658.43	56396.96
658.63	56949.92
658.82	56777.89
659.01	56523.94
659.21	56720.54
659.40	56460.45
659.59	56638.62
659.79	56571.04
659.98	56749.21
660.17	56671.39
660.36	56431.78
660.56	56718.49
660.75	56634.53
660.94	56655.01
661.14	56458.40
661.33	56333.48
661.52	56435.87
661.71	56595.62
661.91	55821.48
662.10	56718.49
662.29	56503.46
662.49	56509.60
662.68	56657.06
662.87	56716.45
663.06	56450.21
663.26	56384.68
663.45	56153.26
663.64	56657.06
663.83	56810.65
664.03	56786.08
664.22	56747.17
664.41	56175.78
664.60	55932.07
664.80	56214.69
664.99	56020.14
665.18	56378.53
665.37	56317.09
665.57	56886.43
665.76	55870.64
665.95	56427.68
666.14	56448.16
666.34	56214.69
666.53	56298.66
666.72	56409.25
666.91	56116.39
667.11	55995.56
667.30	56257.70
667.49	56235.17
667.68	56079.53
667.87	55993.51
668.07	56530.08
668.26	56308.90
668.45	56478.88
668.64	56243.37
668.84	56702.11
669.03	56226.98
669.22	56366.24
669.41	56464.55
669.60	56386.72
669.80	55825.58
669.99	56046.76
670.18	55968.94
670.37	55844.01
670.57	56605.86
670.76	56304.80
670.95	56478.88
671.14	56423.59
671.33	55821.48
671.53	56517.79
671.72	56343.72
671.91	55917.74
672.10	55895.21
672.29	56149.16
672.48	55936.17
672.68	56132.78
672.87	55649.45
673.06	56145.06
673.25	55737.52
673.44	55860.40
673.64	55954.60
673.83	55741.61
674.02	55917.74
674.21	55934.12
674.40	56095.91
674.59	55383.22
674.79	55540.91
674.98	55409.84
675.17	56196.26
675.36	55870.64
675.55	56196.26
675.74	55805.10
675.94	55975.08
676.13	56054.95
676.32	56374.44
676.51	56046.76
676.70	55891.12
676.89	55700.65
677.08	56327.33
677.28	56122.54
677.47	56194.21
677.66	56253.61
677.85	56147.11
678.04	56196.26
678.23	56566.94
678.42	56210.60
678.62	55805.10
678.81	56472.74
679.00	55848.11
679.19	56343.72
679.38	56089.77
679.57	56097.96
679.76	56042.66
679.96	56059.05
680.15	56358.05
680.34	56140.97
680.53	55821.48
680.72	56020.14
680.91	55837.87
681.10	55667.89
681.29	56263.85
681.48	55764.14
681.68	55788.72
681.87	56175.78
682.06	56284.33
682.25	55792.81
682.44	55465.14
682.63	55973.03
682.82	55477.43
683.01	55827.63
683.20	55401.65
683.39	56063.14
683.59	55927.98
683.78	55866.54
683.97	55508.14
684.16	55534.77
684.35	55985.32
684.54	55647.41
684.73	55805.10
684.92	55551.15
685.11	55807.15
685.30	55399.60
685.49	56054.95
685.69	55313.59
685.88	55768.24
686.07	55674.03
686.26	55561.39
686.45	55948.46
686.64	55665.84
686.83	55567.54
687.02	56216.74
687.21	55944.36
687.40	56042.66
687.59	55735.47
687.78	55776.43
687.97	56093.86
688.16	55780.52
688.35	55561.39
688.54	55483.57
688.74	56067.24
688.93	55225.53
689.12	55624.88
689.31	55639.22
689.50	55819.44
689.69	54973.63
689.88	55342.26
690.07	55481.52
690.26	55129.27
690.45	56140.97
690.64	55235.77
690.83	55518.38
691.02	55362.74
691.21	55395.51
691.40	55456.95
691.59	55862.44
691.78	55592.11
691.97	55749.81
692.16	55329.97
692.35	55321.78
692.54	56126.63
692.73	55960.75
692.92	55667.89
693.11	55297.20
693.30	55469.23
693.49	55829.68
693.68	55751.85
693.87	55628.98
694.06	55364.79
694.25	55915.69
694.44	55594.16
694.63	55481.52
694.82	55739.57
695.01	55487.67
695.20	55241.91
695.39	55452.85
695.58	55608.50
695.77	55008.44
695.96	54820.03
696.15	55395.51
696.34	55612.59
696.53	55518.38
696.72	55809.20
696.91	55430.32
697.10	55540.91
697.29	55159.99
697.48	55465.14
697.67	55157.94
697.86	54990.01
698.05	54824.12
698.24	55325.88
698.43	54770.88
698.62	55293.11
698.81	54934.71
699.00	55196.85
699.19	54662.33
699.38	55041.21
699.57	54637.76
699.76	55399.60
699.95	54828.22
700.14	55039.16
700.32	54881.47
700.51	55104.70
700.70	55506.10
700.89	55047.35
701.08	55203.00
701.27	54856.89
701.46	55151.80
701.65	54523.07
701.84	54641.85
702.03	54783.16
702.22	54754.49
702.41	54918.33
702.60	55028.92
702.79	54844.60
702.98	54482.11
703.17	54641.85
703.35	54750.40
703.54	54088.90
703.73	54817.98
703.92	54416.58
704.11	54756.54
704.30	54977.72
704.49	54578.37
704.68	54473.92
704.87	54678.72
705.06	54895.80
705.25	54531.26
705.43	54453.44
705.62	54734.01
705.81	54414.53
706.00	54183.11
706.19	53974.22
706.38	54494.40
706.57	54301.89
706.76	54389.95
706.95	54363.33
707.14	54351.04
707.32	54047.94
707.51	54082.76
707.70	54129.86
707.89	54310.08
708.08	54170.82
708.27	54228.16
708.46	54088.90
708.65	54279.36
708.84	53920.97
709.02	54035.66
709.21	54500.54
709.40	54187.21
709.59	54363.33
709.78	53826.76
709.97	54211.78
710.16	53783.76
710.34	53884.11
710.53	53853.39
710.72	53712.08
710.91	54193.35
711.10	53697.74
711.29	54273.22
711.48	53888.20
711.66	53748.94
711.85	53822.67
712.04	53761.23
712.23	53837.00
712.42	53425.36
712.61	53241.04
712.80	53228.76
712.98	53638.35
713.17	53005.53
713.36	53607.63
713.55	53767.37
713.74	53198.04
713.93	53548.24
714.11	53441.74
714.30	53130.45
714.49	53355.73
714.68	53150.93
714.87	53048.53
715.06	53421.26
715.24	52939.99
715.43	52960.47
715.62	52843.74
715.81	52706.52
716.00	53427.41
716.18	52896.98
716.37	52692.19
716.56	52372.70
716.75	53384.40
716.94	52563.17
717.12	52958.42
717.31	52923.61
717.50	52430.05
717.69	52608.22
717.88	52622.56
718.06	52436.19
718.25	52589.79
718.44	51938.54
718.63	52542.69
718.82	52147.43
719.00	52286.69
719.19	51660.01
719.38	52321.51
719.57	52038.89
719.76	51614.96
719.94	51377.39
720.13	51748.07
720.32	51991.78
720.51	51778.79
720.69	51817.71
720.88	51500.27
721.07	51539.18
721.26	50830.58
721.44	51447.02
721.63	51289.33
721.82	50955.51
722.01	51244.27
722.20	51313.90
722.38	51041.53
722.57	50451.71
722.76	51180.79
722.95	50836.73
723.13	50361.60
723.32	50484.48
723.51	50119.94
723.70	50220.29
723.88	50502.91
724.07	50124.04
724.26	50091.27
724.44	49999.11
724.63	50447.61
724.82	50511.10
725.01	49911.05
725.19	49845.51
725.38	50017.54
725.57	49911.05
725.76	49984.77
725.94	49788.17
726.13	50029.83
726.32	49779.98
726.51	49906.95
726.69	50136.32
726.88	50167.04
727.07	49831.18
727.25	49687.82
727.44	49833.22
727.63	49296.66
727.82	49708.30
728.00	49429.77
728.19	49536.27
728.38	49855.75
728.56	49034.52
728.75	49704.20
728.94	49515.79
729.12	49646.86
729.31	49779.98
729.50	49653.00
729.69	49476.88
729.87	49349.90
730.06	49077.52
730.25	49085.72
730.43	49827.08
730.62	49380.62
730.81	49243.41
730.99	49298.70
731.18	48821.53
731.37	49653.00
731.55	49642.76
731.74	49198.35
731.93	48956.69
732.11	48973.08
732.30	49392.91
732.49	49089.81
732.67	49108.24
732.86	48856.34
733.05	48678.17
733.23	48598.30
733.42	48706.84
733.61	48694.55
733.79	49003.80
733.98	49145.11
734.17	48514.33
734.35	48850.20
734.54	48987.41
734.73	48968.98
734.91	48700.70
735.10	48581.91
735.29	48655.64
735.47	48157.99
735.66	48346.40
735.84	48416.03
736.03	48307.49
736.22	48549.15
736.40	48192.80
736.59	48168.22
736.78	48610.59
736.96	48379.17
737.15	48493.85
737.33	48274.72
737.52	48276.77
737.71	47832.36
737.89	48250.14
738.08	48153.89
738.27	47799.59
738.45	48436.51
738.64	48037.16
738.82	48110.88
739.01	47637.80
739.20	47609.13
739.38	47285.55
739.57	47652.14
739.75	47760.68
739.94	47760.68
740.13	47424.81
740.31	47768.87
740.50	47813.93
740.68	47547.69
740.87	47551.79
741.06	47457.58
741.24	47072.56
741.43	47197.49
741.61	47805.73
741.80	46845.24
741.99	47215.92
742.17	47052.08
742.36	47269.17
742.54	46837.05
742.73	47029.55
742.91	46980.40
743.10	46816.57
743.29	46921.01
743.47	46841.14
743.66	46894.39
743.84	47301.93
744.03	46630.20
744.21	46769.46
744.40	47408.43
744.59	46624.06
744.77	46433.60
744.96	46345.53
745.14	46449.98
745.33	46576.95
745.51	46470.46
745.70	46409.02
745.88	46093.63
746.07	46406.97
746.26	46089.54
746.44	46091.58
746.63	46304.57
746.81	46193.98
747.00	45825.35
747.18	46107.97
747.37	46236.99
747.55	46388.54
747.74	46208.32
747.92	45774.15
748.11	45983.04
748.29	45929.80
748.48	45811.01
748.66	45770.05
748.85	45880.64
749.03	45841.73
749.22	46099.78
749.41	45274.45
749.59	45720.90
749.78	45432.14
749.96	45262.16
750.15	45694.28
750.33	45276.49
750.52	45622.60
750.70	45290.83
750.89	45053.26
751.07	44959.06
751.26	45323.60
751.44	45040.98
751.63	45038.93
751.81	45204.81
752.00	44707.16
752.18	44809.56
752.37	45114.70
752.55	44537.18
752.74	44944.72
752.92	44692.82
753.10	44717.40
753.29	44719.45
753.47	44291.42
753.66	44907.86
753.84	45096.27
754.03	44365.15
754.21	44373.34
754.40	45131.09
754.58	44995.92
754.77	44414.30
754.95	44371.29
755.14	44236.12
755.32	44199.26
755.51	44512.60
755.69	44248.41
755.88	44004.70
756.06	44248.41
756.24	43996.51
756.43	43990.37
756.61	43926.88
756.80	43773.28
756.98	43779.43
757.17	43328.87
757.35	44002.66
757.54	43836.77
757.72	43824.48
757.90	43775.33
758.09	43588.97
758.27	43523.43
758.46	43285.87
758.64	43711.84
758.83	43990.37
759.01	43519.34
759.19	43234.67
759.38	43672.93
759.56	43801.96
759.75	43607.40
759.93	43316.59
760.12	43183.47
760.30	43660.65
760.48	43287.92
760.67	43187.56
760.85	43568.49
761.04	43335.02
761.22	43513.19
761.40	42921.33
761.59	43472.23
761.77	43025.78
761.96	42790.26
762.14	42943.86
762.32	42392.95
762.51	42644.85
762.69	42562.93
762.88	42804.59
763.06	42655.09
763.24	43044.21
763.43	42933.62
763.61	42675.57
763.80	42540.41
763.98	42560.89
764.16	42335.61
764.35	42124.67
764.53	42120.57
764.72	42212.73
764.90	42073.47
765.08	42071.42
765.27	42360.19
765.45	42014.08
765.63	41643.40
765.82	41811.33
766.00	41653.64
766.18	42067.33
766.37	42388.86
766.55	41868.67
766.74	42098.05
766.92	41487.75
767.10	41895.30
767.29	41612.68
767.47	41629.06
767.65	41635.20
767.84	41354.63
768.02	41702.79
768.20	41176.46
768.39	41473.42
768.57	41803.14
768.75	41201.04
768.94	41760.13
769.12	41078.16
769.30	41680.26
769.49	41268.62
769.67	41057.68
769.85	41225.61
770.04	41078.16
770.22	41041.29
770.40	40996.24
770.59	40912.27
770.77	41153.93
770.95	41258.38
771.14	41002.38
771.32	40676.76
771.50	40598.93
771.69	40594.84
771.87	41219.47
772.05	40852.88
772.24	40543.64
772.42	40504.73
772.60	40273.31
772.78	40676.76
772.97	41012.62
773.15	40752.53
773.33	40453.53
773.52	40267.16
773.70	40553.88
773.88	40750.48
774.07	40211.87
774.25	40482.20
774.43	40369.56
774.61	40215.96
774.80	40650.13
774.98	40654.23
775.16	40635.80
775.34	40811.92
775.53	40338.84
775.71	41086.35
775.89	40854.93
776.08	40424.86
776.26	40721.81
776.44	40451.48
776.62	40517.01
776.81	40476.05
776.99	40629.65
777.17	40693.14
777.35	40875.41
777.54	41307.53
777.72	40777.11
777.90	40322.46
778.08	40994.19
778.27	40998.29
778.45	41252.23
778.63	40977.81
778.81	40762.77
779.00	41547.14
779.18	41072.01
779.36	41698.69
779.54	41350.54
779.73	41155.98
779.91	41381.26
780.09	40961.42
780.27	41338.25
780.46	41207.18
780.64	41905.54
780.82	41424.26
781.00	41252.23
781.19	41928.06
781.37	41358.73
781.55	41684.36
781.73	41899.39
781.91	41381.26
782.10	41356.68
782.28	41704.84
782.46	41690.50
782.64	42007.94
782.82	41907.58
783.01	42124.67
783.19	42395.00
783.37	41733.51
783.55	41534.85
783.74	41821.57
783.92	41346.44
784.10	41848.19
784.28	41960.83
784.46	41825.67
784.64	41690.50
784.83	41663.88
785.01	41991.55
785.19	41444.74
785.37	41893.25
785.55	41831.81
785.74	41409.93
785.92	41682.31
786.10	42034.56
786.28	41844.10
786.46	41692.55
786.64	41622.92
786.83	41817.47
787.01	41850.24
787.19	41983.36
787.37	42059.13
787.55	41862.53
787.74	41784.71
787.92	41657.73
788.10	41778.56
788.28	41057.68
788.46	41821.57
788.64	41399.69
788.82	41840.00
789.01	41522.57
789.19	41598.34
789.37	41164.17
789.55	41051.53
789.73	40842.64
789.91	40824.21
790.09	40818.07
790.28	40930.70
790.46	40711.57
790.64	40881.55
790.82	41160.08
791.00	40889.74
791.18	40777.11
791.36	40840.59
791.55	40773.01
791.73	40652.18
791.91	40498.58
792.09	40633.75
792.27	40535.45
792.45	40766.87
792.63	40496.53
792.81	40340.89
793.00	39978.40
793.18	39988.64
793.36	40308.12
793.54	40269.21
793.72	39939.49
793.90	39869.86
794.08	39912.86
794.26	40074.65
794.44	39628.20
794.62	39376.30
794.81	39781.79
794.99	39335.34
795.17	39476.65
795.35	39593.38
795.53	39556.52
795.71	39482.79
795.89	39015.85
796.07	39187.88
796.25	38880.69
796.43	39110.06
796.61	38634.93
796.80	38516.15
796.98	38743.47
797.16	38434.23
797.34	38411.70
797.52	38806.96
797.70	38671.79
797.88	38284.73
798.06	38012.35
798.24	38141.37
798.42	38073.79
798.60	38174.14
798.78	37887.42
798.96	37977.53
799.14	37785.02
799.32	37907.90
799.51	37807.55
799.69	37854.65
799.87	37397.96
800.05	37469.64
800.23	37473.73
800.41	37289.42
800.59	37225.93
800.77	36845.01
800.95	36849.10
801.13	36920.78
801.31	36816.33
801.49	36785.61
801.67	36607.44
801.85	36996.56
802.03	36337.11
802.21	37035.47
802.39	36599.25
802.57	36142.55
802.75	36648.40
802.93	35929.56
803.11	36511.19
803.29	36074.97
803.47	35966.43
803.65	36263.38
803.83	35833.31
804.01	35868.12
804.19	35966.43
804.37	35745.25
804.55	35751.39
804.73	35569.12
804.91	35550.69
805.09	35317.22
805.27	35524.07
805.45	35364.32
805.63	35601.89
805.81	35304.93
805.99	35331.56
806.17	34977.26
806.35	35026.41
806.53	34719.21
806.71	35093.99
806.89	35034.60
807.07	34924.01
807.25	35102.18
807.43	34508.27
807.61	35073.51
807.79	34549.23
807.97	34166.26
808.15	34272.76
808.33	34168.31
808.51	34170.36
808.69	34469.36
808.87	33949.18
809.05	34055.67
809.23	34133.50
809.41	33551.87
809.59	33992.19
809.77	34027.00
809.95	33365.51
810.13	33934.84
810.31	33572.35
810.49	33519.10
810.67	33469.95
810.84	33437.19
811.02	33166.85
811.20	33261.06
811.38	33474.05
811.56	32830.99
811.74	33050.12
811.92	32914.95
812.10	32945.67
812.28	32888.33
812.46	33015.30
812.64	33195.53
812.82	32824.84
813.00	32728.59
813.18	32960.01
813.36	32853.51
813.53	32556.56
813.71	32884.23
813.89	32331.28
814.07	32632.33
814.25	32499.22
814.43	31749.66
814.61	31964.70
814.79	31862.30
814.97	31753.76
815.15	32431.63
815.33	31665.69
815.50	31804.95
815.68	31729.18
815.86	31938.07
816.04	31725.08
816.22	31649.31
816.40	31632.93
816.58	31477.28
816.76	31395.36
816.94	31544.86
817.11	31737.37
817.29	31403.55
817.47	31088.17
817.65	31225.38
817.83	31239.72
818.01	30936.62
818.19	30793.26
818.37	30979.62
818.54	30785.07
818.72	30527.02
818.90	30697.00
819.08	30723.63
819.26	31051.30
819.44	30541.36
819.62	30625.32
819.80	30496.30
819.97	30711.34
820.15	30692.91
820.33	30236.21
820.51	30422.58
820.69	30377.52
820.87	30340.66
821.05	30506.54
821.22	30064.18
821.40	30350.90
821.58	30334.51
821.76	29965.88
821.94	29761.08
822.12	29580.86
822.29	30066.23
822.47	29453.89
822.65	29890.10
822.83	29599.29
823.01	29732.41
823.19	29443.65
823.36	29443.65
823.54	29419.07
823.72	29486.65
823.90	29601.34
824.08	29056.58
824.25	29183.55
824.43	29214.27
824.61	29220.42
824.79	29115.97
824.97	29040.20
825.15	29326.91
825.32	28945.99
825.50	28902.98
825.68	28487.25
825.86	29015.62
826.04	28845.64
826.21	28925.51
826.39	28511.82
826.57	28530.25
826.75	28489.29
826.93	28438.09
827.10	28515.92
827.28	28515.92
827.46	28784.20
827.64	28528.20
827.81	28671.56
827.99	28309.07
828.17	28382.80
828.35	28311.12
828.53	28149.33
828.70	28104.28
828.88	28085.84
829.06	28196.43
829.24	28294.74
829.41	27907.67
829.59	28280.40
829.77	27797.08
829.95	27954.77
830.12	27752.02
830.30	27727.45
830.48	28010.07
830.66	27651.67
830.84	27805.27
831.01	27262.56
831.19	27631.19
831.37	27483.74
831.55	27313.76
831.72	27373.15
831.90	27536.99
832.08	27608.67
832.25	27469.40
832.43	27207.26
832.61	27580.00
832.79	27248.22
832.96	27031.14
833.14	27074.15
833.32	27297.38
833.50	27192.93
833.67	27010.66
833.85	26758.76
834.03	26805.86
834.20	26752.62
834.38	27000.42
834.56	26916.45
834.74	26619.50
834.91	26603.11
835.09	26517.10
835.27	26420.84
835.44	26359.41
835.62	26416.75
835.80	26619.50
835.98	26586.73
836.15	26252.91
836.33	26179.18
836.51	26545.77
836.68	26033.78
836.86	25857.65
837.04	26166.90
837.21	26265.20
837.39	26103.41
837.57	26144.37
837.75	26189.42
837.92	25742.97
838.10	25509.50
838.28	25466.49
838.45	25863.80
838.63	25667.19
838.81	25749.11
838.98	25605.75
839.16	25585.27
839.34	25712.25
839.51	25644.66
839.69	25269.89
839.87	25652.86
840.04	25419.39
840.22	25642.62
840.40	25470.59
840.57	25126.53
840.75	25187.97
840.93	24784.52
841.10	25288.32
841.28	25390.72
841.46	25032.32
841.63	25230.98
841.81	25179.78
841.98	25216.64
842.16	25122.43
842.34	24987.27
842.51	24616.58
842.69	25261.69
842.87	24991.36
843.04	24882.82
843.22	24612.49
843.40	24854.15
843.57	24917.64
843.75	24921.73
843.92	24682.12
844.10	24792.71
844.28	24395.40
844.45	24503.95
844.63	24604.30
844.81	24094.35
844.98	24403.60
845.16	24442.51
845.33	24446.60
845.51	24485.51
845.69	24192.65
845.86	24424.08
846.04	23996.05
846.21	24307.34
846.39	24120.98
846.57	24028.82
846.74	23967.38
846.92	24026.77
847.09	24094.35
847.27	23740.05
847.45	23840.40
847.62	23905.94
847.80	24037.01
847.97	23813.78
848.15	23885.46
848.32	23787.16
848.50	23854.74
848.68	23633.56
848.85	23787.16
849.03	23277.21
849.20	23666.33
849.38	23477.91
849.56	23457.43
849.73	23443.10
849.91	23531.16
850.08	23436.95
850.26	23346.84
850.43	23027.36
850.61	23412.38
850.78	23127.71
850.96	23236.25
851.14	22994.59
851.31	23185.05
851.49	22857.38
851.66	23252.64
851.84	22933.15
852.01	23355.04
852.19	23039.65
852.36	22822.56
852.54	23099.04
852.71	22828.71
852.89	22746.79
853.07	23240.35
853.24	22875.81
853.42	22474.41
853.59	22650.53
853.77	22560.42
853.94	22570.66
854.12	22648.49
854.29	22386.35
854.47	22480.55
854.64	22591.14
854.82	22464.17
854.99	22535.85
855.17	22372.01
855.34	22331.05
855.52	22306.48
855.69	22433.45
855.87	22056.62
856.04	22111.92
856.22	22044.34
856.39	21831.35
856.57	22075.06
856.74	21872.31
856.92	22187.69
857.09	22034.10
857.27	21921.46
857.44	22099.63
857.62	21896.88
857.79	21913.27
857.97	21923.51
858.14	21860.02
858.32	22124.21
858.49	21393.08
858.67	21888.69
858.84	21497.53
859.02	21786.29
859.19	21524.15
859.37	21565.11
859.54	21505.72
859.72	21628.60
859.89	21769.91
860.06	21618.36
860.24	21401.27
860.41	21831.35
860.59	21245.63
860.76	21495.48
860.94	21196.48
861.11	21268.16
861.29	21262.01
861.46	21159.61
861.64	21208.76
861.81	21065.41
861.98	21106.37
862.16	20985.54
862.33	20752.07
862.51	21049.02
862.68	20854.47
862.86	21042.88
863.03	20932.29
863.21	20780.74
863.38	20657.86
863.55	20713.16
863.73	20756.16
863.90	20979.39
864.08	20819.65
864.25	20733.64
864.43	20639.43
864.60	20692.68
864.77	20612.81
864.95	20788.93
865.12	20278.99
865.30	20608.71
865.47	20356.81
865.64	20416.20
865.82	20330.19
865.99	20264.65
866.17	20481.74
866.34	20608.71
866.51	19975.89
866.69	20104.91
866.86	20330.19
867.04	20291.27
867.21	20258.51
867.38	20311.75
867.56	19902.16
867.73	19994.32
867.91	20051.66
868.08	19791.57
868.25	20119.24
868.43	20006.61
868.60	19656.40
868.78	19603.16
868.95	20055.76
869.12	19611.35
869.30	19705.56
869.47	19889.87
869.64	19685.08
869.82	19781.33
869.99	19635.92
870.16	19680.98
870.34	19732.18
870.51	19527.38
870.69	19226.33
870.86	19521.24
871.03	19281.63
871.21	19324.63
871.38	19338.97
871.55	19269.34
871.73	19164.89
871.90	19138.27
872.07	19097.31
872.25	18855.65
872.42	18968.29
872.59	19052.25
872.77	18747.11
872.94	19029.73
873.11	18908.90
873.29	18915.04
873.46	18910.94
873.63	18712.29
873.81	18804.45
873.98	18474.73
874.15	18683.62
874.33	18450.15
874.50	18722.53
874.67	18462.44
874.85	18331.37
875.02	18357.99
875.19	18376.42
875.37	18487.01
875.54	18378.47
875.71	18484.97
875.88	18304.74
876.06	18329.32
876.23	18257.64
876.40	18110.19
876.58	18044.65
876.75	18095.85
876.92	17819.38
877.10	18206.44
877.27	17944.30
877.44	17889.01
877.61	17829.62
877.79	17647.35
877.96	17719.03
878.13	17940.21
878.31	17587.96
878.48	18007.79
878.65	17686.26
878.82	17694.45
879.00	17610.48
879.17	17530.61
879.34	17796.85
879.51	17516.28
879.69	17356.54
879.86	17221.37
880.03	17192.70
880.21	17211.13
880.38	17624.82
880.55	17219.32
880.72	17420.02
880.90	17293.05
881.07	17204.99
881.24	17321.72
881.41	17131.26
881.59	17121.02
881.76	17088.25
881.93	17331.96
882.10	16887.55
882.28	16934.65
882.45	17139.45
882.62	16967.42
882.79	17067.77
882.96	16768.77
883.14	16926.46
883.31	16967.42
883.48	17028.86
883.65	17059.58
883.83	17166.07
884.00	17014.52
884.17	16860.93
884.34	17004.28
884.51	16772.86
884.69	16989.95
884.86	16604.93
885.03	16889.60
885.20	16514.82
885.38	16643.84
885.55	16762.62
885.72	16658.18
885.89	16578.31
886.06	16713.47
886.24	16654.08
886.41	16678.66
886.58	16680.71
886.75	16940.80
886.92	16363.27
887.10	16414.47
887.27	16572.16
887.44	16465.67
887.61	16824.06
887.78	16527.11
887.95	16514.82
888.13	16432.90
888.30	16312.07
888.47	16279.30
888.64	16291.59
888.81	16213.77
888.99	16195.34
889.16	16043.79
889.33	16080.65
889.50	16291.59
889.67	16205.58
889.84	16219.91
890.01	16035.60
890.19	16086.79
890.36	15785.74
890.53	15982.35
890.70	15886.09
890.87	16080.65
891.04	15890.19
891.22	15904.53
891.39	15851.28
891.56	15677.20
891.73	15886.09
891.90	15535.89
892.07	15640.34
892.24	15578.90
892.42	15648.53
892.59	15619.86
892.76	15617.81
892.93	15589.14
893.10	15621.91
893.27	15501.08
893.44	15564.56
893.61	15421.20
893.79	15634.19
893.96	15546.13
894.13	15720.21
894.30	15601.43
894.47	15519.51
894.64	15523.60
894.81	15693.58
894.98	15826.70
895.15	15458.07
895.33	15372.05
895.50	15232.79
895.67	15386.39
895.84	15396.63
896.01	15415.06
896.18	15206.17
896.35	15429.40
896.52	15431.44
896.69	15312.66
896.86	15480.60
897.04	15208.22
897.21	15286.04
897.38	15535.89
897.55	15222.55
897.72	15488.79
897.89	15228.70
898.06	15451.92
898.23	15275.80
898.40	15386.39
898.57	15384.34
898.74	15195.93
898.91	15370.01
899.08	15243.03
899.26	15288.09
899.43	15114.01
899.60	15310.61
899.77	15236.89
899.94	15324.95
900.11	15183.64
900.28	15114.01
900.45	14884.64
900.62	15152.92
900.79	15519.51
900.96	15255.32
901.13	15365.91
901.30	15410.96
901.47	15107.87
901.64	14956.32
901.81	15236.89
901.98	15148.82
902.15	15353.62
902.32	15132.44
902.49	15238.94
902.66	15343.38
902.83	15390.49
903.01	15003.42
903.18	15212.31
903.35	15204.12
903.52	15027.99
903.69	15310.61
903.86	15187.74
904.03	15181.59
904.20	15458.07
904.37	15398.68
904.54	15222.55
904.71	15302.42
904.88	15240.98
905.05	15451.92
905.22	15310.61
905.39	15097.63
905.56	15212.31
905.73	15238.94
905.90	15277.85
906.07	15052.57
906.24	15343.38
906.41	15195.93
906.58	15339.29
906.75	15298.33
906.92	14989.08
907.09	15157.02
907.26	15124.25
907.43	15079.19
907.60	15288.09
907.77	15095.58
907.93	15290.13
908.10	15308.57
908.27	15333.14
908.44	15116.06
908.61	15040.28
908.78	15128.35
908.95	15263.51
909.12	14999.32
909.29	15085.34
909.46	15243.03
909.63	15032.09
909.80	15132.44
909.97	15165.21
910.14	14976.80
910.31	15318.81
910.48	14941.98
910.65	15111.96
910.82	14892.83
910.99	14980.89
911.16	15003.42
911.33	14894.88
911.50	14946.08
911.66	14726.94
911.83	15122.20
912.00	14858.01
912.17	14718.75
912.34	14909.21
912.51	14753.57
912.68	14796.57
912.85	14745.38
913.02	14698.27
913.19	14810.91
913.36	14909.21
913.53	14858.01
913.70	14692.13
913.86	14743.33
914.03	14591.78
914.20	14638.88
914.37	14436.13
914.54	14642.98
914.71	14767.90
914.88	14630.69
915.05	14403.36
915.22	14446.37
915.39	14528.29
915.55	14393.12
915.72	14458.66
915.89	14092.07
916.06	14116.65
916.23	14333.73
916.40	14221.10
916.57	14223.14
916.74	14282.53
916.91	14069.55
917.07	14112.55
917.24	14159.66
917.41	14014.25
917.58	14053.16
917.75	14151.46
917.92	14049.07
918.09	13940.52
918.26	13891.37
918.42	13928.24
918.59	13961.00
918.76	13942.57
918.93	13694.77
919.10	13539.12
919.27	13637.42
919.44	13768.49
919.60	13842.22
919.77	13635.38
919.94	13786.93
920.11	13539.12
920.28	13563.70
920.45	13322.04
920.61	13438.77
920.78	13393.72
920.95	13387.57
921.12	13272.89
921.29	13264.69
921.46	13279.03
921.62	13205.30
921.79	13123.38
921.96	13150.01
922.13	12922.68
922.30	12984.12
922.47	12971.83
922.63	12889.92
922.80	12789.56
922.97	12744.51
923.14	12635.97
923.31	12830.52
923.47	12488.51
923.64	12859.20
923.81	12486.47
923.98	12412.74
924.15	12328.77
924.32	12646.21
924.48	12496.71
924.65	12562.24
924.82	12361.54
924.99	12531.52
925.15	12267.33
925.32	12226.37
925.49	12205.89
925.66	12369.73
925.83	12013.38
925.99	11990.86
926.16	12046.15
926.33	11999.05
926.50	11773.77
926.67	11835.21
926.83	11800.40
927.00	11747.15
927.17	11755.34
927.34	11564.88
927.50	11585.36
927.67	11591.50
927.84	11536.21
928.01	11665.23
928.17	11562.83
928.34	11407.19
928.51	11456.34
928.68	11290.45
928.84	11300.69
929.01	11077.46
929.18	11083.61
929.35	11169.62
929.51	11214.68
929.68	10864.47
929.85	10819.42
930.02	11091.80
930.18	10794.84
930.35	10930.01
930.52	10807.13
930.69	10798.94
930.85	10657.63
931.02	10585.95
931.19	10682.20
931.36	10837.85
931.52	10735.45
931.69	10602.33
931.86	10471.26
932.02	10454.88
932.19	10401.63
932.36	10596.19
932.53	10313.57
932.69	10233.70
932.86	10248.04
933.03	10106.73
933.19	10139.49
933.36	9910.12
933.53	10078.05
933.70	9985.90
933.86	10084.20
934.03	9940.84
934.20	9832.30
934.36	9750.38
934.53	9502.58
934.70	9387.89
934.86	9541.49
935.03	9486.19
935.20	9406.32
935.36	9348.98
935.53	9269.11
935.70	9215.86
935.86	9086.84
936.03	9052.02
936.20	8853.37
936.36	8775.55
936.53	8834.94
936.70	8482.69
936.86	8834.94
937.03	8603.52
937.20	8611.71
937.36	8599.42
937.53	8400.77
937.70	8359.81
937.86	8130.44
938.03	8062.85
938.20	8314.75
938.36	7913.35
938.53	7942.02
938.70	7636.88
938.86	7716.75
939.03	7460.75
939.20	7554.96
939.36	7321.49
939.53	7520.14
939.70	7427.98
939.86	7143.32
940.03	7045.01
940.19	7116.69
940.36	6967.19
940.53	6905.75
940.69	6905.75
940.86	6852.50
941.03	6731.67
941.19	6645.66
941.36	6645.66
941.52	6473.63
941.69	6469.53
941.86	6555.55
942.02	6414.24
942.19	6266.78
942.35	6311.84
942.52	6164.39
942.69	6225.82
942.85	6096.80
943.02	6041.51
943.18	6012.84
943.35	6068.13
943.52	5992.36
943.68	5865.38
943.85	5830.57
944.01	5910.44
944.18	5834.66
944.35	5685.16
944.51	5744.55
944.68	5613.48
944.84	5648.30
945.01	5513.13
945.17	5611.43
945.34	5652.39
945.51	5595.05
945.67	5654.44
945.84	5541.80
946.00	5361.58
946.17	5459.88
946.33	5388.21
946.50	5480.36
946.67	5347.25
946.83	5365.68
947.00	5541.80
947.16	5425.07
947.33	5439.40
947.49	5441.45
947.66	5351.34
947.82	5418.93
947.99	5324.72
948.16	5455.79
948.32	5351.34
948.49	5466.03
948.65	5590.95
948.82	5441.45
948.98	5447.60
949.15	5269.42
949.31	5414.83
949.48	5480.36
949.64	5466.03
949.81	5361.58
949.97	5316.53
950.14	5435.31
950.30	5445.55
950.47	5482.41
950.63	5386.16
950.80	5519.28
950.96	5357.49
951.13	5474.22
951.30	5445.55
951.46	5498.80
951.63	5525.42
951.79	5474.22
951.96	5480.36
952.12	5654.44
952.29	5570.48
952.45	5476.27
952.62	5457.84
952.78	5605.29
952.94	5547.95
953.11	5463.98
953.27	5345.20
953.44	5746.60
953.60	5552.04
953.77	5552.04
953.93	5529.52
954.10	5662.63
954.26	5617.58
954.43	5623.72
954.59	5642.15
954.76	5554.09
954.92	5584.81
955.09	5576.62
955.25	5547.95
955.42	5576.62
955.58	5685.16
955.75	5715.88
955.91	5572.52
956.07	5552.04
956.24	5715.88
956.40	5607.34
956.57	5709.74
956.73	5517.23
956.90	5648.30
957.06	5599.15
957.23	5498.80
957.39	5578.67
957.56	5564.33
957.72	5547.95
957.88	5463.98
958.05	5668.78
958.21	5621.67
958.38	5599.15
958.54	5722.02
958.71	5722.02
958.87	5664.68
959.03	5619.63
959.20	5660.59
959.36	5699.50
959.53	5644.20
959.69	5492.65
959.85	5580.71
960.02	5521.32
960.18	5558.19
960.35	5623.72
960.51	5648.30
960.68	5525.42
960.84	5631.91
961.00	5427.12
961.17	5607.34
961.33	5638.06
961.50	5568.43
961.66	5693.35
961.82	5582.76
961.99	5554.09
962.15	5439.40
962.31	5406.64
962.48	5627.82
962.64	5652.39
962.81	5623.72
962.97	5506.99
963.13	5492.65
963.30	5574.57
963.46	5468.08
963.62	5414.83
963.79	5482.41
963.95	5500.84
964.12	5494.70
964.28	5543.85
964.44	5296.05
964.61	5685.16
964.77	5523.37
964.93	5601.19
965.10	5437.36
965.26	5423.02
965.42	5416.88
965.59	5232.56
965.75	5328.81
965.92	5461.93
966.08	5281.71
966.24	5463.98
966.41	5410.73
966.57	5445.55
966.73	5472.17
966.90	5480.36
967.06	5347.25
967.22	5310.38
967.39	5253.04
967.55	5253.04
967.71	5300.14
967.88	5326.77
968.04	5355.44
968.20	5238.70
968.37	5255.09
968.53	5181.36
968.69	5337.01
968.85	5296.05
969.02	5195.70
969.18	5312.43
969.34	5199.79
969.51	5324.72
969.67	5205.94
969.83	5113.78
970.00	5394.35
970.16	5205.94
970.32	5205.94
970.48	5334.96
970.65	5193.65
970.81	5158.83
970.97	5296.05
971.14	5027.76
971.30	5167.03
971.46	5013.43
971.63	5058.48
971.79	5242.80
971.95	5054.39
972.11	5107.63
972.28	4984.76
972.44	5062.58
972.60	5009.33
972.76	4972.47
972.93	4966.32
973.09	4990.90
973.25	5083.06
973.42	4956.08
973.58	5048.24
973.74	5048.24
973.90	4999.09
974.07	4863.93
974.23	4884.41
974.39	5072.82
974.55	4863.93
974.72	4933.56
974.88	4892.60
975.04	4941.75
975.20	4849.59
975.37	5087.15
975.53	4814.77
975.69	4794.29
975.85	4976.56
976.01	4882.36
976.18	4786.10
976.34	4810.68
976.50	4888.50
976.66	4839.35
976.83	4822.97
976.99	4874.17
977.15	4804.53
977.31	4622.27
977.47	4865.97
977.64	4671.42
977.80	4661.18
977.96	4614.07
978.12	4630.46
978.29	4601.79
978.45	4624.31
978.61	4497.34
978.77	4745.14
978.93	4569.02
979.10	4601.79
979.26	4558.78
979.42	4628.41
979.58	4491.20
979.74	4503.48
979.91	4507.58
980.07	4462.52
980.23	4419.52
980.39	4399.04
980.55	4415.42
980.71	4427.71
980.88	4446.14
981.04	4390.84
981.20	4349.89
981.36	4573.11
981.52	4403.13
981.68	4364.22
981.85	4341.69
982.01	4425.66
982.17	4419.52
982.33	4411.32
982.49	4460.48
982.65	4306.88
982.82	4294.59
982.98	4288.45
983.14	4341.69
983.30	4382.65
983.46	4362.17
983.62	4294.59
983.79	4321.21
983.95	4267.97
984.11	4222.91
984.27	4331.45
984.43	4259.78
984.59	4200.38
984.75	4261.82
984.91	4161.47
985.08	4249.54
985.24	4136.90
985.40	4083.65
985.56	4175.81
985.72	4261.82
985.88	4282.30
986.04	4140.99
986.20	4106.18
986.37	4169.66
986.53	4026.31
986.69	4138.94
986.85	4042.69
987.01	3936.20
987.17	4202.43
987.33	3944.39
987.49	4044.74
987.65	4112.32
987.82	3987.40
987.98	3907.52
988.14	4038.59
988.30	4011.97
988.46	3930.05
988.62	3960.77
988.78	3977.16
988.94	3919.81
989.10	3837.89
989.26	3805.13
989.42	3964.87
989.59	3758.02
989.75	3844.04
989.91	3862.47
990.07	3751.88
990.23	3844.04
990.39	3819.46
990.55	3874.76
990.71	3811.27
990.87	3848.13
991.03	3971.01
991.19	3811.27
991.35	3796.93
991.51	3751.88
991.67	3925.96
991.83	3743.69
992.00	3794.89
992.16	3821.51
992.32	3712.97
992.48	3768.26
992.64	3667.91
992.80	3712.97
992.96	3721.16
993.12	3721.16
993.28	3641.29
993.44	3747.78
993.60	3635.14
993.76	3762.12
993.92	3655.62
994.08	3645.38
994.24	3704.78
994.40	3559.37
994.56	3688.39
994.72	3620.81
994.88	3635.14
995.04	3622.86
995.20	3502.03
995.36	3555.27
995.52	3590.09
995.68	3528.65
995.84	3403.72
996.00	3590.09
996.16	3518.41
996.32	3477.45
996.48	3542.99
996.64	3522.51
996.80	3377.10
996.96	3499.98
997.12	3354.57
997.28	3479.50
997.44	3342.28
997.60	3444.68
997.76	3327.95
997.92	3434.44
998.08	3456.97
998.24	3366.86
998.40	3391.44
998.56	3381.20
998.72	3321.81
998.88	3219.41
999.04	3364.81
999.20	3360.72
999.36	3313.61
999.52	3393.48
999.68	3266.51
999.84	3332.05
1000.00	3262.41
1000.16	3450.83
1000.32	3260.37
1000.48	3385.29
1000.64	3141.58
1000.80	3155.92
1000.95	3166.16
1001.11	3256.27
1001.27	3117.01
1001.43	3223.50
1001.59	3133.39
1001.75	3151.82
1001.91	3172.30
1002.07	2985.94
1002.23	3114.96
1002.39	3125.20
1002.55	3114.96
1002.71	3049.43
1002.87	3112.91
1003.03	3008.47
1003.19	3035.09
1003.34	3280.85
1003.50	3166.16
1003.66	3157.97
1003.82	3149.78
1003.98	2947.03
1004.14	3059.67
1004.30	3117.01
1004.46	3028.95
1004.62	3114.96
1004.78	3071.95
1004.94	3051.47
1005.09	3153.87
1005.25	3051.47
1005.41	2957.27
1005.57	2959.31
1005.73	2961.36
1005.89	2838.48
1006.05	2965.46
1006.21	2920.40
1006.37	2893.78
1006.52	2869.20
1006.68	2809.81
1006.84	2979.79
1007.00	2838.48
1007.16	2897.88
1007.32	2983.89
1007.48	2901.97
1007.64	2904.02
1007.79	2785.24
1007.95	2836.44
1008.11	2967.51
1008.27	2928.60
1008.43	2781.14
1008.59	2811.86
1008.75	2926.55
1008.91	2815.96
1009.06	2842.58
1009.22	2832.34
1009.38	2844.63
1009.54	2731.99
1009.70	2752.47
1009.86	2703.32
1010.01	2779.09
1010.17	2650.07
1010.33	2824.15
1010.49	2731.99
1010.65	2803.67
1010.81	2666.46
1010.96	2688.98
1011.12	2701.27
1011.28	2650.07
1011.44	2729.94
1011.60	2656.22
1011.76	2641.88
1011.91	2752.47
1012.07	2656.22
1012.23	2629.59
1012.39	2605.02
1012.55	2645.98
1012.71	2629.59
1012.86	2545.63
1013.02	2547.67
1013.18	2584.54
1013.34	2654.17
1013.50	2678.74
1013.65	2564.06
1013.81	2596.82
1013.97	2641.88
1014.13	2584.54
1014.29	2547.67
1014.44	2645.98
1014.60	2576.34
1014.76	2602.97
1014.92	2602.97
1015.07	2643.93
1015.23	2631.64
1015.39	2588.63
1015.55	2469.85
1015.71	2562.01
1015.86	2570.20
1016.02	2455.51
1016.18	2484.19
1016.34	2475.99
1016.49	2447.32
1016.65	2576.34
1016.81	2453.47
1016.97	2543.58
1017.12	2471.90
1017.28	2467.80
1017.44	2375.64
1017.60	2478.04
1017.75	2545.63
1017.91	2551.77
1018.07	2459.61
1018.23	2432.99
1018.38	2334.68
1018.54	2389.98
1018.70	2459.61
1018.86	2492.38
1019.01	2385.88
1019.17	2424.80
1019.33	2480.09
1019.49	2338.78
1019.64	2490.33
1019.80	2404.32
1019.96	2453.47
1020.12	2318.30
1020.27	2195.42
1020.43	2330.59
1020.59	2432.99
1020.74	2453.47
1020.90	2396.12
1021.06	2258.91
1021.22	2314.20
1021.37	2334.68
1021.53	2394.08
1021.69	2314.20
1021.84	2224.09
1022.00	2230.24
1022.16	2303.96
1022.31	2389.98
1022.47	2353.12
1022.63	2400.22
1022.79	2189.28
1022.94	2220.00
1023.10	2252.77
1023.26	2193.37
1023.41	2271.20
1023.57	2125.79
1023.73	2252.77
1023.88	2209.76
1024.04	2191.33
1024.20	2244.57
1024.35	2375.64
1024.51	2351.07
1024.67	2166.75
1024.82	2220.00
1024.98	2133.98
1025.14	2199.52
1025.29	2113.50
1025.45	2215.90
1025.61	2101.22
1025.76	2174.94
1025.92	2207.71
1026.08	2172.89
1026.23	2242.53
1026.39	2174.94
1026.55	2213.85
1026.70	2164.70
1026.86	2133.98
1027.02	2181.09
1027.17	2152.42
1027.33	2150.37
1027.48	2070.50
1027.64	2230.24
1027.80	2099.17
1027.95	2193.37
1028.11	2078.69
1028.27	2156.51
1028.42	2103.26
1028.58	2093.02
1028.73	2072.54
1028.89	2023.39
1029.05	2170.85
1029.20	2164.70
>>>>>End Processed Spectral Data<<<<<
