SpectraSuite Data File
++++++++++++++++++++++++++++++++++++
Date: Fri Jun 02 14:44:34 CEST 2017
User: INFO_000
Dark Spectrum Present: No
Reference Spectrum Present: No
Number of Sampled Component Spectra: 1
Spectrometers: USB4H00879
Integration Time (usec): 80000 (USB4H00879)
Spectra Averaged: 1 (USB4H00879)
Boxcar Smoothing: 0 (USB4H00879)
Correct for Electrical Dark: No (USB4H00879)
Strobe/Lamp Enabled: No (USB4H00879)
Correct for Detector Non-linearity: No (USB4H00879)
Correct for Stray Light: No (USB4H00879)
Number of Pixels in Processed Spectrum: 3648
>>>>>Begin Processed Spectral Data<<<<<
345.13	1290.22
345.34	1290.22
345.56	1290.22
345.78	1288.17
345.99	1263.60
346.21	1761.25
346.42	1687.53
346.64	1662.95
346.86	1791.97
347.07	1630.18
347.29	1724.39
347.50	1619.94
347.72	1691.62
347.94	1789.92
348.15	1507.30
348.37	1632.23
348.59	1728.49
348.80	1628.14
349.02	1748.97
349.23	1884.13
349.45	1810.40
349.67	1853.41
349.88	1808.36
350.10	1916.90
350.31	1773.54
350.53	1789.92
350.75	2043.87
350.96	1765.35
351.18	1867.75
351.39	1865.70
351.61	1781.73
351.82	1914.85
352.04	1994.72
352.26	1853.41
352.47	1837.03
352.69	1890.28
352.90	1777.64
353.12	1804.26
353.34	1828.84
353.55	1898.47
353.77	1884.13
353.98	1818.60
354.20	1855.46
354.41	1900.52
354.63	1955.81
354.85	2062.30
355.06	1896.42
355.28	1824.74
355.49	1873.89
355.71	1925.09
355.92	1902.56
356.14	2007.01
356.35	1892.32
356.57	1851.36
356.79	1978.34
357.00	1871.84
357.22	1935.33
357.43	1857.51
357.65	1996.77
357.86	1847.27
358.08	1947.62
358.29	1953.76
358.51	2035.68
358.72	1925.09
358.94	1882.08
359.16	1890.28
359.37	1955.81
359.59	1912.80
359.80	2035.68
360.02	1914.85
360.23	1914.85
360.45	2043.87
360.66	1982.43
360.88	1918.95
361.09	1984.48
361.31	1976.29
361.52	1929.19
361.74	2070.50
361.95	2058.21
362.17	1882.08
362.38	2099.17
362.60	2090.98
362.81	1980.39
363.03	1986.53
363.24	1892.32
363.46	2148.32
363.67	2082.78
363.89	1961.95
364.10	2047.97
364.32	2007.01
364.53	2084.83
364.75	1937.38
364.96	2043.87
365.18	2084.83
365.39	2021.35
365.61	2031.58
365.82	2123.74
366.04	2037.73
366.25	1916.90
366.47	2021.35
366.68	2015.20
366.90	1982.43
367.11	2133.98
367.33	2054.11
367.54	2082.78
367.76	2062.30
367.97	2080.74
368.19	2054.11
368.40	2058.21
368.62	1943.52
368.83	1959.91
369.05	2088.93
369.26	2002.91
369.48	2027.49
369.69	1972.19
369.91	2099.17
370.12	1933.28
370.33	2160.61
370.55	1920.99
370.76	2029.54
370.98	2176.99
371.19	2125.79
371.41	2043.87
371.62	2119.65
371.84	1972.19
372.05	2131.94
372.27	2072.54
372.48	2078.69
372.69	2127.84
372.91	2164.70
373.12	2179.04
373.34	1949.67
373.55	2172.89
373.77	2232.29
373.98	2107.36
374.20	2248.67
374.41	2263.01
374.62	2109.41
374.84	2113.50
375.05	2185.18
375.27	2195.42
375.48	2193.37
375.70	2158.56
375.91	2207.71
376.12	2254.81
376.34	2150.37
376.55	2154.46
376.77	2256.86
376.98	2035.68
377.19	2142.18
377.41	2101.22
377.62	2197.47
377.84	2172.89
378.05	2373.60
378.27	2166.75
378.48	2353.12
378.69	2312.16
378.91	2263.01
379.12	2312.16
379.34	2260.96
379.55	2269.15
379.76	2287.58
379.98	2295.77
380.19	2174.94
380.41	2269.15
380.62	2293.72
380.83	2340.83
381.05	2189.28
381.26	2400.22
381.47	2287.58
381.69	2283.49
381.90	2367.45
382.12	2297.82
382.33	2324.44
382.54	2230.24
382.76	2322.40
382.97	2279.39
383.19	2228.19
383.40	2363.36
383.61	2357.21
383.83	2322.40
384.04	2273.25
384.25	2383.84
384.47	2363.36
384.68	2412.51
384.89	2269.15
385.11	2328.54
385.32	2346.97
385.54	2340.83
385.75	2299.87
385.96	2441.18
386.18	2443.23
386.39	2428.89
386.60	2361.31
386.82	2422.75
387.03	2414.56
387.24	2428.89
387.46	2422.75
387.67	2502.62
387.88	2484.19
388.10	2418.65
388.31	2439.13
388.52	2607.06
388.74	2578.39
388.95	2484.19
389.16	2555.86
389.38	2502.62
389.59	2582.49
389.80	2582.49
390.02	2588.63
390.23	2662.36
390.44	2625.50
390.66	2506.71
390.87	2490.33
391.08	2613.21
391.30	2627.54
391.51	2658.26
391.72	2668.50
391.94	2664.41
392.15	2645.98
392.36	2648.02
392.58	2600.92
392.79	2584.54
393.00	2701.27
393.22	2736.09
393.43	2723.80
393.64	2748.37
393.85	2762.71
394.07	2691.03
394.28	2637.78
394.49	2760.66
394.71	2740.18
394.92	2832.34
395.13	2736.09
395.35	2721.75
395.56	2691.03
395.77	2836.44
395.98	2822.10
396.20	2879.44
396.41	2883.54
396.62	2947.03
396.84	2781.14
397.05	2832.34
397.26	2955.22
397.47	2934.74
397.69	2861.01
397.90	3055.57
398.11	2908.12
398.32	2850.77
398.54	2807.77
398.75	3067.86
398.96	2971.60
399.18	2973.65
399.39	2967.51
399.60	3059.67
399.81	2979.79
400.03	2848.72
400.24	3282.89
400.45	2983.89
400.66	3076.05
400.88	3051.47
401.09	3176.40
401.30	3147.73
401.51	3237.84
401.73	3194.83
401.94	3110.86
402.15	3129.30
402.36	3139.54
402.58	3176.40
402.79	3223.50
403.00	3151.82
403.21	3274.70
403.43	3231.69
403.64	3069.91
403.85	3143.63
404.06	3141.58
404.27	3129.30
404.49	3145.68
404.70	3147.73
404.91	3327.95
405.12	3258.32
405.34	3276.75
405.55	3411.92
405.76	3213.26
405.97	3180.50
406.19	3356.62
406.40	3221.45
406.61	3286.99
406.82	3373.00
407.03	3289.04
407.25	3264.46
407.46	3379.15
407.67	3418.06
407.88	3375.05
408.09	3377.10
408.31	3420.11
408.52	3401.68
408.73	3426.25
408.94	3358.67
409.15	3512.27
409.37	3567.56
409.58	3499.98
409.79	3518.41
410.00	3575.75
410.21	3362.76
410.43	3401.68
410.64	3393.48
410.85	3608.52
411.06	3590.09
411.27	3583.95
411.48	3672.01
411.70	3518.41
411.91	3567.56
412.12	3559.37
412.33	3624.90
412.54	3612.62
412.76	3731.40
412.97	3702.73
413.18	3526.60
413.39	3733.45
413.60	3737.54
413.81	3780.55
414.03	3540.94
414.24	3645.38
414.45	3880.90
414.66	3665.86
414.87	3854.28
415.08	3755.97
415.30	3710.92
415.51	3811.27
415.72	3692.49
415.93	3798.98
416.14	3774.41
416.35	3825.61
416.56	3811.27
416.78	3760.07
416.99	3835.85
417.20	3817.41
417.41	3946.44
417.62	4024.26
417.83	3962.82
418.04	3911.62
418.26	3921.86
418.47	3919.81
418.68	4075.46
418.89	3895.24
419.10	4067.27
419.31	3993.54
419.52	4214.72
419.73	3960.77
419.95	4161.47
420.16	3923.91
420.37	4007.87
420.58	4255.68
420.79	4018.11
421.00	4046.79
421.21	4173.76
421.42	4071.36
421.63	4212.67
421.85	4239.30
422.06	4206.53
422.27	4159.42
422.48	4261.82
422.69	4210.62
422.90	4222.91
423.11	4362.17
423.32	4450.24
423.53	4417.47
423.75	4358.08
423.96	4470.72
424.17	4304.83
424.38	4595.64
424.59	4521.92
424.80	4718.52
425.01	4407.23
425.22	4579.26
425.43	4491.20
425.64	4706.23
425.85	4579.26
426.06	4648.89
426.28	4536.25
426.49	4583.35
426.70	4591.55
426.91	4630.46
427.12	4812.73
427.33	4677.56
427.54	4573.11
427.75	4695.99
427.96	4747.19
428.17	4769.72
428.38	4769.72
428.59	4896.69
428.80	4700.09
429.01	4835.25
429.23	4818.87
429.44	5015.48
429.65	5048.24
429.86	4964.28
430.07	4863.93
430.28	4820.92
430.49	4956.08
430.70	5136.31
430.91	5175.22
431.12	5001.14
431.33	5173.17
431.54	5312.43
431.75	5095.35
431.96	5246.90
432.17	5068.72
432.38	5107.63
432.59	5380.01
432.80	5259.18
433.01	5285.81
433.22	5394.35
433.43	5261.23
433.64	5294.00
433.85	5255.09
434.06	5431.21
434.27	5277.62
434.49	5517.23
434.70	5484.46
434.91	5457.84
435.12	5412.78
435.33	5410.73
435.54	5408.69
435.75	5304.24
435.96	5365.68
436.17	5394.35
436.38	5629.87
436.59	5642.15
436.80	5623.72
437.01	5838.76
437.22	5660.59
437.43	5756.84
437.64	5650.35
437.85	5695.40
438.06	5730.22
438.27	5701.54
438.48	5668.78
438.69	5955.49
438.90	5820.33
439.11	5824.42
439.32	5898.15
439.53	5785.51
439.74	5742.50
439.95	5775.27
440.16	5812.14
440.37	5916.58
440.57	5846.95
440.78	6174.63
440.99	6045.60
441.20	6061.99
441.41	5894.05
441.62	6084.52
441.83	6033.32
442.04	6014.88
442.25	6172.58
442.46	6053.80
442.67	6264.74
442.88	6735.77
443.09	6176.67
443.30	6158.24
443.51	6193.06
443.72	6629.27
443.93	6035.36
444.14	6315.94
444.35	6223.78
444.56	6404.00
444.77	6303.65
444.98	6430.62
445.19	6508.44
445.40	6428.57
445.61	6340.51
445.81	6604.70
446.02	6592.41
446.23	6520.73
446.44	6236.06
446.65	6492.06
446.86	6467.49
447.07	6692.76
447.28	6823.83
447.49	6645.66
447.70	6576.03
447.91	6680.47
448.12	6748.06
448.33	6762.39
448.54	6975.38
448.74	6743.96
448.95	6928.28
449.16	6719.39
449.37	7131.03
449.58	7047.06
449.79	7163.79
450.00	6817.69
450.21	7096.21
450.42	7034.77
450.63	7231.38
450.84	6872.98
451.05	7059.35
451.25	7131.03
451.46	7122.84
451.67	7438.22
451.88	7337.87
452.09	7346.06
452.30	7063.44
452.51	7344.02
452.72	7378.83
452.93	7434.13
453.13	7331.73
453.34	7266.19
453.55	7376.78
453.76	7509.90
453.97	7700.36
454.18	7468.94
454.39	7655.31
454.60	7380.88
454.81	7550.86
455.01	7739.27
455.22	7481.23
455.43	7604.11
455.64	7862.15
455.85	8032.13
456.06	7982.98
456.27	7759.75
456.48	7788.43
456.68	7919.50
456.89	7905.16
457.10	8015.75
457.31	7905.16
457.52	7987.08
457.73	8167.30
457.94	8218.50
458.14	7968.65
458.35	8378.24
458.56	8116.10
458.77	8241.03
458.98	8187.78
459.19	8339.33
459.39	8486.78
459.60	8601.47
459.81	8390.53
460.02	8718.20
460.23	8445.82
460.44	8707.96
460.65	8759.16
460.85	8746.87
461.06	8834.94
461.27	8636.28
461.48	9013.11
461.69	9207.67
461.89	8634.24
462.10	8992.63
462.31	8628.09
462.52	8886.14
462.73	9113.46
462.94	9244.53
463.14	9025.40
463.35	9119.60
463.56	9391.98
463.77	9385.84
463.98	9303.92
464.18	9469.81
464.39	9471.86
464.60	9752.43
464.81	9676.65
465.02	9549.68
465.23	9832.30
465.43	9756.52
465.64	9903.98
465.85	9879.40
466.06	9754.48
466.27	10172.26
466.47	10067.81
466.68	9983.85
466.89	10016.62
467.10	10073.96
467.30	9996.14
467.51	10131.30
467.72	10475.36
467.93	10106.73
468.14	10393.44
468.34	10446.69
468.55	10389.35
468.76	10559.33
468.97	10475.36
469.17	10823.51
469.38	10889.05
469.59	10950.49
469.80	10618.72
470.01	10809.18
470.21	10655.58
470.42	11102.04
470.63	11317.08
470.84	11202.39
471.04	11401.04
471.25	11470.67
471.46	11355.99
471.67	11786.06
471.87	11728.72
472.08	11564.88
472.29	11939.66
472.50	11548.50
472.70	11712.33
472.91	12029.77
473.12	12144.45
473.33	11894.60
473.53	12279.62
473.74	12025.67
473.95	12394.31
474.16	12453.70
474.36	12470.08
474.57	12803.90
474.78	12726.08
474.99	12676.93
475.19	12617.54
475.40	12887.87
475.61	13059.90
475.81	13182.77
476.02	13332.28
476.23	13236.02
476.44	13410.10
476.64	13782.83
476.85	13745.97
477.06	13498.16
477.27	13983.53
477.47	13997.87
477.68	13932.33
477.89	14178.09
478.09	14075.69
478.30	14135.08
478.51	14366.50
478.71	14284.58
478.92	14608.16
479.13	14522.15
479.34	14761.76
479.54	14894.88
479.75	14876.44
479.96	14810.91
480.16	14864.16
480.37	14982.94
480.58	15025.95
480.78	15257.37
480.99	15224.60
481.20	15484.69
481.41	15572.75
481.61	15871.76
481.82	15888.14
482.03	15795.98
482.23	15730.45
482.44	16150.28
482.65	16275.21
482.85	16164.62
483.06	16422.66
483.27	16381.70
483.47	16516.87
483.68	16393.99
483.89	16668.42
484.09	16670.47
484.30	16824.06
484.51	16920.32
484.71	17174.27
484.92	17256.18
485.13	17108.73
485.33	17286.90
485.54	17186.55
485.75	17985.26
485.95	17540.85
486.16	17538.80
486.37	17739.51
486.57	17823.47
486.78	17839.86
486.98	18026.22
487.19	18226.92
487.40	18480.87
487.60	18065.13
487.81	18464.49
488.02	18366.18
488.22	18355.94
488.43	18562.79
488.64	18587.36
488.84	18661.09
489.05	18912.99
489.25	18927.33
489.46	19197.66
489.67	19050.21
489.87	19224.28
490.08	19140.32
490.29	19463.90
490.49	19580.63
490.70	19613.40
490.90	19715.80
491.11	19779.28
491.32	19822.29
491.52	19979.98
491.73	19916.50
491.94	20393.67
492.14	19977.94
492.35	20334.28
492.55	20395.72
492.76	20354.76
492.97	21040.83
493.17	20383.43
493.38	20793.03
493.58	21202.62
493.79	21044.93
494.00	21042.88
494.20	20956.86
494.41	21149.37
494.61	21319.35
494.82	21425.85
495.02	21204.67
495.23	21438.14
495.44	21595.83
495.64	21659.32
495.85	21487.29
496.05	21694.13
496.26	21720.76
496.47	22066.86
496.67	21911.22
496.88	22148.78
497.08	22009.52
497.29	22286.00
497.49	22009.52
497.70	22382.25
497.91	22359.72
498.11	22550.18
498.32	22498.98
498.52	22914.72
498.73	22916.77
498.93	23039.65
499.14	23105.18
499.34	23047.84
499.55	23062.18
499.76	22791.84
499.96	23477.91
500.17	22888.10
500.37	23264.92
500.58	23363.23
500.78	23314.08
500.99	23606.94
501.19	23658.14
501.40	23660.18
501.60	23789.20
501.81	23811.73
502.02	24118.93
502.22	23819.92
502.43	24157.84
502.63	24264.33
502.84	24020.63
503.04	24229.52
503.25	23895.70
503.45	24520.33
503.66	24761.99
503.86	24659.59
504.07	24577.67
504.27	24782.47
504.48	24557.19
504.68	24784.52
504.89	24829.57
505.09	25218.69
505.30	24710.79
505.50	24960.64
505.71	25196.16
505.91	25224.83
506.12	25220.74
506.32	25196.16
506.53	25384.57
506.73	25435.77
506.94	25695.86
507.14	25362.04
507.35	25671.29
507.55	25552.51
507.76	25732.73
507.96	25673.34
508.17	25853.56
508.37	25996.92
508.58	25974.39
508.78	25888.37
508.99	26474.09
509.19	26486.38
509.40	26134.13
509.60	26482.28
509.81	26334.83
510.01	26156.66
510.22	26470.00
510.42	26744.42
510.63	26820.20
510.83	26537.58
511.04	26476.14
511.24	26875.49
511.44	26777.19
511.65	26730.09
511.85	27045.48
512.06	26693.22
512.26	27000.42
512.47	27053.67
512.67	26998.37
512.88	27434.59
513.08	26904.17
513.29	27369.05
513.49	27584.09
513.69	27737.69
513.90	27584.09
514.10	27674.20
514.31	27577.95
514.51	27809.37
514.72	27864.66
514.92	27459.16
515.13	28065.36
515.33	27940.44
515.53	28071.51
515.74	27911.77
515.94	28255.82
516.15	28204.63
516.35	28245.58
516.56	28005.97
516.76	28175.95
516.96	28280.40
517.17	28634.70
517.37	28382.80
517.58	28616.27
517.78	28712.52
517.99	28622.41
518.19	28859.98
518.39	28907.08
518.60	29277.76
518.80	28827.21
519.01	29001.29
519.21	29298.24
519.41	29029.96
519.62	29400.64
519.82	29437.50
520.03	29673.02
520.23	29584.96
520.43	29312.58
520.64	30129.72
520.84	29961.78
521.05	29539.90
521.25	30109.24
521.45	30021.17
521.66	30324.27
521.86	30051.89
522.07	30064.18
522.27	30326.32
522.47	30189.11
522.68	30666.28
522.88	30361.14
523.08	31020.58
523.29	30467.63
523.49	30504.49
523.70	30684.72
523.90	31102.50
524.10	30789.16
524.31	31092.26
524.51	30989.86
524.71	31768.09
524.92	31299.11
525.12	31237.67
525.33	31280.67
525.53	31622.69
525.73	31518.24
525.94	31667.74
526.14	31561.25
526.34	31948.31
526.55	31698.46
526.75	32108.05
526.95	32318.99
527.16	31884.83
527.36	32245.27
527.56	32450.06
527.77	32628.24
527.97	32822.80
528.17	32355.86
528.38	32929.29
528.58	32460.30
528.78	33205.77
528.99	32755.21
529.19	33070.60
529.39	32937.48
529.60	33402.37
529.80	33095.18
530.00	33236.48
530.21	33664.51
530.41	33566.21
530.61	33525.25
530.82	33474.05
531.02	33596.93
531.22	33951.23
531.43	33644.03
531.63	33666.56
531.83	33910.27
532.04	34305.52
532.24	33940.99
532.44	34762.22
532.64	34366.96
532.85	34854.38
533.05	34674.16
533.25	34784.75
533.46	34549.23
533.66	34670.06
533.86	35005.93
534.07	35415.52
534.27	34809.32
534.47	35085.80
534.67	35276.26
534.88	35347.94
535.08	35374.56
535.28	35436.00
535.49	35882.46
535.69	36015.58
535.89	35825.12
536.09	36259.29
536.30	36031.96
536.50	35911.13
536.70	36226.52
536.91	36085.21
537.11	36300.25
537.31	36449.75
537.51	36445.65
537.72	36791.76
537.92	36705.74
538.12	36986.32
538.32	36847.05
538.53	37019.08
538.73	36404.69
538.93	36771.28
539.13	36832.72
539.34	37008.84
539.54	36711.89
539.74	37295.56
539.94	37205.45
540.15	37115.34
540.35	37782.98
540.55	37656.00
540.75	37111.24
540.96	37776.83
541.16	37352.90
541.36	37676.48
541.56	37397.96
541.77	37856.70
541.97	37879.23
542.17	38446.52
542.37	38254.01
542.58	38307.26
542.78	38178.23
542.98	38247.86
543.18	38122.94
543.38	38604.21
543.59	38540.72
543.79	38604.21
543.99	38452.66
544.19	38931.89
544.40	38561.20
544.60	39040.43
544.80	39099.82
545.00	39028.14
545.20	39226.79
545.41	38966.70
545.61	38880.69
545.81	39540.13
546.01	39482.79
546.21	38745.52
546.42	39349.67
546.62	39388.58
546.82	39298.47
547.02	39368.10
547.22	39742.88
547.43	39495.08
547.63	39599.52
547.83	39994.78
548.03	39376.30
548.23	40068.51
548.44	40273.31
548.64	39835.04
548.84	40078.75
549.04	40213.91
549.24	40263.07
549.45	40334.74
549.65	40023.45
549.85	40365.46
550.05	40336.79
550.25	40172.96
550.45	41190.80
550.66	40457.62
550.86	40648.08
551.06	41053.58
551.26	40961.42
551.46	40625.56
551.66	41137.55
551.87	40875.41
552.07	41428.36
552.27	40607.12
552.47	41016.72
552.67	41567.62
552.87	41162.12
553.07	41688.45
553.28	41055.63
553.48	41407.88
553.68	41758.08
553.88	42233.21
554.08	41725.32
554.28	41688.45
554.48	41368.97
554.69	41862.53
554.89	41547.14
555.09	41829.76
555.29	41737.60
555.49	42124.67
555.69	42136.96
555.89	41868.67
556.10	42108.29
556.30	42263.93
556.50	42337.66
556.70	41889.15
556.90	42274.17
557.10	42581.37
557.30	41997.70
557.50	42958.19
557.70	42622.33
557.91	42628.47
558.11	42941.81
558.31	42939.76
558.51	42419.58
558.71	42534.26
558.91	43167.09
559.11	42442.10
559.31	42872.18
559.51	42749.30
559.72	42607.99
559.92	43316.59
560.12	43275.63
560.32	43328.87
560.52	42945.90
560.72	43158.89
560.92	43146.61
561.12	43375.98
561.32	43898.21
561.52	43457.90
561.72	43951.46
561.93	43474.28
562.13	43576.68
562.33	43783.52
562.53	44201.31
562.73	43629.93
562.93	43502.95
563.13	43963.75
563.33	43566.44
563.53	44197.21
563.73	43750.76
563.93	44180.83
564.13	44658.01
564.33	44209.50
564.53	44258.65
564.74	44434.78
564.94	43799.91
565.14	44350.81
565.34	44275.04
565.54	44590.42
565.74	44248.41
565.94	44727.64
566.14	44655.96
566.34	44592.47
566.54	44778.84
566.74	44281.18
566.94	44942.67
567.14	44809.56
567.34	44506.46
567.54	45088.08
567.74	44514.65
567.94	44752.21
568.14	45196.62
568.34	45454.67
568.54	45342.03
568.74	45229.39
568.94	45245.77
569.14	45544.78
569.34	45225.29
569.54	45403.47
569.75	45202.77
569.95	45274.45
570.15	45747.53
570.35	45684.04
570.55	45712.71
570.75	45393.23
570.95	45550.92
571.15	45714.76
571.35	45329.74
571.55	45933.89
571.75	46116.16
571.95	46103.87
572.15	46224.70
572.35	45950.27
572.55	45960.51
572.75	46316.86
572.95	46064.96
573.15	46019.91
573.35	46187.84
573.55	45909.32
573.75	46392.64
573.95	46167.36
574.15	45661.51
574.35	46687.54
574.55	46013.76
574.75	46236.99
574.95	46624.06
575.15	46392.64
575.34	46679.35
575.54	46673.21
575.74	46622.01
575.94	46767.41
576.14	46900.53
576.34	46984.50
576.54	47281.45
576.74	46888.24
576.94	46691.64
577.14	47275.31
577.34	47127.86
577.54	47068.47
577.74	47099.19
577.94	47301.93
578.14	47062.32
578.34	47453.48
578.54	46574.91
578.74	47101.23
578.94	47815.97
579.14	46986.55
579.34	47125.81
579.54	47459.63
579.74	47908.13
579.94	47461.68
580.13	47598.89
580.33	47949.09
580.53	47883.56
580.73	48164.13
580.93	47836.45
581.13	47897.89
581.33	48080.16
581.53	48207.14
581.73	48024.87
581.93	48239.90
582.13	47783.21
582.33	48139.55
582.53	48373.02
582.73	48616.73
582.92	48035.11
583.12	48127.27
583.32	48366.88
583.52	47746.34
583.72	48674.07
583.92	48028.96
584.12	48377.12
584.32	49003.80
584.52	48370.97
584.72	48575.77
584.92	48510.24
585.11	49511.69
585.31	48799.00
585.51	48954.64
585.71	49069.33
585.91	49055.00
586.11	48827.67
586.31	48520.48
586.51	48145.70
586.71	48512.28
586.91	49124.63
587.10	48708.89
587.30	48815.38
587.50	49310.99
587.70	49239.31
587.90	49282.32
588.10	49374.48
588.30	49151.25
588.50	49493.26
588.69	49544.46
588.89	49448.21
589.09	49542.41
589.29	49534.22
589.49	49952.01
589.69	49085.72
589.89	49790.22
590.08	49378.57
590.28	49546.51
590.48	49085.72
590.68	49569.04
590.88	49552.65
591.08	49573.13
591.28	49919.24
591.47	50177.28
591.67	49843.46
591.87	50095.36
592.07	49935.62
592.27	50175.23
592.47	49900.81
592.67	50052.36
592.86	50044.16
593.06	49894.66
593.26	49716.49
593.46	49972.49
593.66	50111.75
593.86	50191.62
594.05	50140.42
594.25	50795.77
594.45	50523.39
594.65	50062.60
594.85	49835.27
595.05	50939.13
595.24	50500.86
595.44	50539.77
595.64	50304.26
595.84	50533.63
596.04	50220.29
596.23	50797.82
596.43	50633.98
596.63	50601.21
596.83	50558.20
597.03	51307.76
597.22	51246.32
597.42	51123.44
597.62	51182.84
597.82	51076.34
598.02	51162.36
598.21	51487.98
598.41	50861.30
598.61	51426.54
598.81	51160.31
599.01	51012.85
599.20	51279.09
599.40	51221.75
599.60	51514.61
599.80	51594.48
600.00	51569.90
600.19	51545.33
600.39	51037.43
600.59	52065.51
600.79	51631.34
600.98	51549.42
601.18	52258.02
601.38	51825.90
601.58	52278.50
601.78	52210.92
601.97	52208.87
602.17	52280.55
602.37	51983.59
602.57	52042.98
602.76	52673.76
602.96	52253.92
603.16	52720.86
603.36	52049.13
603.55	52843.74
603.75	52436.19
603.95	52718.81
604.15	52565.21
604.34	52559.07
604.54	52876.51
604.74	52704.48
604.94	53159.12
605.13	53191.89
605.33	53052.63
605.53	53222.61
605.73	53634.25
605.92	53261.52
606.12	53116.12
606.32	53507.28
606.52	53370.07
606.71	53216.47
606.91	53531.86
607.11	53314.77
607.30	53425.36
607.50	53687.50
607.70	54138.05
607.90	53689.55
608.09	53886.15
608.29	53925.07
608.49	53853.39
608.68	53744.84
608.88	53826.76
609.08	54138.05
609.28	53978.31
609.47	54097.09
609.67	54686.91
609.87	53834.95
610.06	54283.46
610.26	54367.43
610.46	54703.29
610.66	54744.25
610.85	54402.24
611.05	54283.46
611.25	54783.16
611.44	54357.19
611.64	54318.28
611.84	54416.58
612.03	54250.69
612.23	54592.70
612.43	54883.51
612.62	54547.65
612.82	54629.57
613.02	55043.26
613.21	55088.31
613.41	54834.36
613.61	54967.48
613.80	54639.81
614.00	54459.58
614.20	54817.98
614.39	54998.20
614.59	55344.31
614.79	54613.18
614.98	54748.35
615.18	55227.57
615.38	54863.03
615.57	55598.26
615.77	55379.12
615.97	55391.41
616.16	55641.26
616.36	55502.00
616.56	55211.19
616.75	55473.33
616.95	55057.59
617.15	54867.13
617.34	55506.10
617.54	55067.83
617.74	55774.38
617.93	55434.42
618.13	55147.70
618.32	55682.22
618.52	55137.46
618.72	55375.03
618.91	55399.60
619.11	55278.77
619.31	55567.54
619.50	55635.12
619.70	55336.12
619.90	55407.79
620.09	55585.97
620.29	55628.98
620.48	55209.14
620.68	56239.27
620.88	55033.02
621.07	55669.93
621.27	55293.11
621.46	54990.01
621.66	55551.15
621.86	55352.50
622.05	55413.94
622.25	55913.64
622.44	55424.18
622.64	55354.55
622.84	55907.50
623.03	55174.33
623.23	55598.26
623.42	55196.85
623.62	55418.03
623.82	55780.52
624.01	55536.82
624.21	55741.61
624.40	55680.17
624.60	56024.23
624.80	55608.50
624.99	55710.89
625.19	55059.64
625.38	55768.24
625.58	55915.69
625.77	55485.62
625.97	55671.98
626.17	55372.98
626.36	55639.22
626.56	56044.71
626.75	54932.67
626.95	55848.11
627.14	55905.45
627.34	56097.96
627.54	55172.28
627.73	55895.21
627.93	55796.91
628.12	55727.28
628.32	55868.59
628.51	56104.10
628.71	55858.35
628.90	55895.21
629.10	55622.83
629.30	55966.89
629.49	55624.88
629.69	55956.65
629.88	55764.14
630.08	55909.55
630.27	55915.69
630.47	55936.17
630.66	55686.32
630.86	56171.69
631.05	55743.66
631.25	55970.99
631.44	55944.36
631.64	55723.18
631.84	56284.33
632.03	56425.64
632.23	55878.83
632.42	56177.83
632.62	55643.31
632.81	55696.56
633.01	55661.74
633.20	55934.12
633.40	56313.00
633.59	56089.77
633.79	55393.46
633.98	56181.93
634.18	56329.38
634.37	56130.73
634.57	56167.59
634.76	56323.24
634.96	55991.47
635.15	56259.75
635.35	55653.55
635.54	55862.44
635.74	55917.74
635.93	55860.40
636.13	56423.59
636.32	56005.80
636.52	55661.74
636.71	55776.43
636.91	56548.51
637.10	56048.81
637.30	55448.75
637.49	56030.38
637.69	56018.09
637.88	56431.78
638.08	55796.91
638.27	56306.85
638.46	55612.59
638.66	56044.71
638.85	55987.37
639.05	56063.14
639.24	56011.95
639.44	55833.77
639.63	56181.93
639.83	56339.62
640.02	56229.03
640.22	56067.24
640.41	56288.42
640.61	55547.06
640.80	56100.01
640.99	55694.51
641.19	56513.70
641.38	56259.75
641.58	56157.35
641.77	55571.63
641.97	55721.13
642.16	56044.71
642.36	56128.68
642.55	56509.60
642.74	56071.34
642.94	56325.28
643.13	55909.55
643.33	56057.00
643.52	56675.49
643.72	55878.83
643.91	55846.06
644.10	56605.86
644.30	56470.69
644.49	56022.19
644.69	56267.94
644.88	56513.70
645.08	56431.78
645.27	56472.74
645.46	55825.58
645.66	56298.66
645.85	55553.20
646.05	56046.76
646.24	55973.03
646.43	56163.50
646.63	56335.52
646.82	56392.87
647.02	56194.21
647.21	55837.87
647.40	55938.22
647.60	56095.91
647.79	56304.80
647.99	56038.57
648.18	55731.37
648.37	56472.74
648.57	55809.20
648.76	56054.95
648.96	56226.98
649.15	56415.40
649.34	56063.14
649.54	56456.35
649.73	55950.51
649.92	56104.10
650.12	56263.85
650.31	56057.00
650.51	56302.76
650.70	56337.57
650.89	56220.84
651.09	56818.84
651.28	56599.71
651.47	56425.64
651.67	56382.63
651.86	56835.23
652.06	55827.63
652.25	56157.35
652.44	56214.69
652.64	56392.87
652.83	56116.39
653.02	56018.09
653.22	56523.94
653.41	55602.35
653.60	56149.16
653.80	55743.66
653.99	56474.79
654.18	56493.22
654.38	55620.78
654.57	56263.85
654.76	56382.63
654.96	56224.93
655.15	55760.05
655.34	56132.78
655.54	56267.94
655.73	56024.23
655.92	56059.05
656.12	56282.28
656.31	56405.16
656.50	56120.49
656.70	56202.41
656.89	55645.36
657.08	56163.50
657.28	56011.95
657.47	55985.32
657.66	56321.19
657.86	55866.54
658.05	56136.87
658.24	56474.79
658.43	56085.67
658.63	56485.03
658.82	56358.05
659.01	56489.12
659.21	56167.59
659.40	56198.31
659.59	56112.30
659.79	55964.84
659.98	56771.74
660.17	56120.49
660.36	56159.40
660.56	56511.65
660.75	56214.69
660.94	56224.93
661.14	56720.54
661.33	56415.40
661.52	55927.98
661.71	56644.77
661.91	56280.23
662.10	56366.24
662.29	56521.89
662.49	56038.57
662.68	56489.12
662.87	56718.49
663.06	56464.55
663.26	56171.69
663.45	56863.90
663.64	56249.51
663.83	56663.20
664.03	56515.75
664.22	56489.12
664.41	56159.40
664.60	56356.00
664.80	56202.41
664.99	56364.20
665.18	56417.44
665.37	56308.90
665.57	56276.13
665.76	56136.87
665.95	56710.30
666.14	56151.21
666.34	56091.82
666.53	56169.64
666.72	56331.43
666.91	56165.54
667.11	56022.19
667.30	56575.14
667.49	56274.09
667.68	56546.47
667.87	56194.21
668.07	56749.21
668.26	56620.19
668.45	56255.65
668.64	56460.45
668.84	56595.62
669.03	56556.70
669.22	56425.64
669.41	56839.32
669.60	56847.52
669.80	56087.72
669.99	56511.65
670.18	56497.31
670.37	56235.17
670.57	56990.87
670.76	56382.63
670.95	56800.41
671.14	56462.50
671.33	56206.50
671.53	56671.39
671.72	56853.66
671.91	56134.82
672.10	56415.40
672.29	56577.18
672.48	56638.62
672.68	56849.56
672.87	56288.42
673.06	56286.37
673.25	56407.20
673.44	56589.47
673.64	56523.94
673.83	56272.04
674.02	56726.69
674.21	56431.78
674.40	57013.40
674.59	56435.87
674.79	56550.56
674.98	56317.09
675.17	56773.79
675.36	56263.85
675.55	56851.61
675.74	56304.80
675.94	56868.00
676.13	56763.55
676.32	56562.85
676.51	56906.91
676.70	56898.72
676.89	56773.79
677.08	56816.80
677.28	56581.28
677.47	57449.62
677.66	56808.61
677.85	56870.04
678.04	56841.37
678.23	56779.93
678.42	56532.13
678.62	56714.40
678.81	56882.33
679.00	56911.00
679.19	57226.39
679.38	56816.80
679.57	56712.35
679.76	56751.26
679.96	57320.60
680.15	57136.28
680.34	56509.60
680.53	56927.39
680.72	57285.78
680.91	57224.34
681.10	57017.50
681.29	57037.98
681.48	56728.73
681.68	56865.95
681.87	57021.59
682.06	56673.44
682.25	56743.07
682.44	56718.49
682.63	56708.25
682.82	56335.52
683.01	56657.06
683.20	56302.76
683.39	56865.95
683.59	56804.51
683.78	56411.30
683.97	56429.73
684.16	56579.23
684.35	56245.41
684.54	56747.17
684.73	56628.38
684.92	56482.98
685.11	56442.02
685.30	56468.64
685.49	57281.69
685.69	56587.42
685.88	56612.00
686.07	56491.17
686.26	56581.28
686.45	56564.90
686.64	56992.92
686.83	56788.13
687.02	56550.56
687.21	56931.48
687.40	56542.37
687.59	56310.95
687.78	56384.68
687.97	56818.84
688.16	56122.54
688.35	56351.91
688.54	56153.26
688.74	56745.12
688.93	56433.83
689.12	56423.59
689.31	56356.00
689.50	56951.96
689.69	56366.24
689.88	56042.66
690.07	56857.76
690.26	56224.93
690.45	56915.10
690.64	56222.89
690.83	56417.44
691.02	56347.81
691.21	56515.75
691.40	56493.22
691.59	56380.58
691.78	56245.41
691.97	56247.46
692.16	56394.92
692.35	56521.89
692.54	56741.02
692.73	56143.02
692.92	56382.63
693.11	56069.29
693.30	56087.72
693.49	56568.99
693.68	56153.26
693.87	55932.07
694.06	55839.92
694.25	56054.95
694.44	55899.31
694.63	55919.79
694.82	56261.80
695.01	56519.84
695.20	55645.36
695.39	55760.05
695.58	55567.54
695.77	55700.65
695.96	55536.82
696.15	55817.39
696.34	55975.08
696.53	55723.18
696.72	55780.52
696.91	55760.05
697.10	55514.29
697.29	55235.77
697.48	55874.73
697.67	55532.72
697.86	55522.48
698.05	55334.07
698.24	55895.21
698.43	55143.61
698.62	55643.31
698.81	55352.50
699.00	55909.55
699.19	55131.32
699.38	55712.94
699.57	54779.07
699.76	56079.53
699.95	55469.23
700.14	55098.55
700.32	54990.01
700.51	54817.98
700.70	55614.64
700.89	55166.13
701.08	55002.30
701.27	54738.11
701.46	55348.40
701.65	54146.25
701.84	55444.66
702.03	55022.78
702.22	54715.58
702.41	54502.59
702.60	54721.72
702.79	54899.90
702.98	54621.37
703.17	54908.09
703.35	54453.44
703.54	54318.28
703.73	54822.08
703.92	54504.64
704.11	54721.72
704.30	54334.66
704.49	54711.49
704.68	54453.44
704.87	54037.70
705.06	54793.40
705.25	54115.53
705.43	54351.04
705.62	54301.89
705.81	54131.91
706.00	54258.88
706.19	54078.66
706.38	54060.23
706.57	54101.19
706.76	54207.68
706.95	53867.72
707.14	54138.05
707.32	54060.23
707.51	54121.67
707.70	53353.68
707.89	53814.47
708.08	53851.34
708.27	53998.79
708.46	54312.13
708.65	53368.02
708.84	53871.82
709.02	53535.95
709.21	53765.32
709.40	53230.80
709.59	53816.52
709.78	53437.65
709.97	53753.04
710.16	53279.96
710.34	52983.00
710.53	53026.01
710.72	53277.91
710.91	53081.30
711.10	52976.86
711.29	53671.12
711.48	53341.39
711.66	53243.09
711.85	52456.67
712.04	53038.29
712.23	53050.58
712.42	52884.70
712.61	53069.01
712.80	52753.63
712.98	52894.94
713.17	52292.83
713.36	52661.47
713.55	52479.20
713.74	52878.55
713.93	52552.93
714.11	52757.72
714.30	52569.31
714.49	52262.11
714.68	52479.20
714.87	52172.00
715.06	52356.32
715.24	52237.54
715.43	51942.63
715.62	51795.18
715.81	51832.04
716.00	52155.62
716.18	51725.55
716.37	51916.01
716.56	51535.09
716.75	52169.96
716.94	51940.58
717.12	51365.10
717.31	51574.00
717.50	51059.96
717.69	51700.97
717.88	51512.56
718.06	51475.69
718.25	51936.49
718.44	51064.05
718.63	51404.02
718.82	51258.61
719.00	51137.78
719.19	50963.70
719.38	51098.87
719.57	50691.32
719.76	50537.72
719.94	50437.37
720.13	50431.23
720.32	50775.29
720.51	50533.63
720.69	50658.56
720.88	50246.91
721.07	50345.22
721.26	49906.95
721.44	49956.10
721.63	49714.44
721.82	50050.31
722.01	50007.30
722.20	50423.04
722.38	49681.67
722.57	49911.05
722.76	49812.74
722.95	49663.24
723.13	49612.04
723.32	49675.53
723.51	49206.55
723.70	49220.88
723.88	49331.47
724.07	49300.75
724.26	49530.12
724.44	48706.84
724.63	49255.70
724.82	49317.14
725.01	48747.80
725.19	48907.54
725.38	49134.87
725.57	48678.17
725.76	48995.60
725.94	48360.73
726.13	48725.27
726.32	48264.48
726.51	48155.94
726.69	48880.92
726.88	48809.24
727.07	48837.91
727.25	48399.65
727.44	48723.22
727.63	48663.83
727.82	48493.85
728.00	48313.63
728.19	48151.84
728.38	48110.88
728.56	48223.52
728.75	48665.88
728.94	48461.08
729.12	48379.17
729.31	48358.69
729.50	48203.04
729.69	48295.20
729.87	48497.95
730.06	47973.67
730.25	48096.55
730.43	48428.32
730.62	47953.19
730.81	48071.97
730.99	48284.96
731.18	48127.27
731.37	48117.03
731.55	48489.76
731.74	48370.97
731.93	48231.71
732.11	48356.64
732.30	48327.97
732.49	47949.09
732.67	47957.28
732.86	47537.45
733.05	48166.18
733.23	48033.06
733.42	48028.96
733.61	47977.76
733.79	48024.87
733.98	48026.92
734.17	47703.34
734.35	47598.89
734.54	47525.16
734.73	47912.23
734.91	47512.88
735.10	47797.54
735.29	48012.58
735.47	47232.30
735.66	47629.61
735.84	47504.68
736.03	47072.56
736.22	47498.54
736.40	47459.63
736.59	47553.83
736.78	47383.85
736.96	47519.02
737.15	47707.43
737.33	47482.16
737.52	47150.38
737.71	47869.22
737.89	47234.35
738.08	46769.46
738.27	46902.58
738.45	47551.79
738.64	47217.97
738.82	46949.68
739.01	47017.27
739.20	46839.09
739.38	47217.97
739.57	47258.93
739.75	47031.60
739.94	46988.60
740.13	46945.59
740.31	46683.45
740.50	47230.26
740.68	47236.40
740.87	47023.41
741.06	46814.52
741.24	46765.37
741.43	46456.12
741.61	46611.77
741.80	46730.55
741.99	46665.02
742.17	46748.98
742.36	46910.77
742.54	46609.72
742.73	46753.08
742.91	47142.19
743.10	46466.36
743.29	46937.40
743.47	46970.16
743.66	46814.52
743.84	46687.54
744.03	46568.76
744.21	46470.46
744.40	46359.87
744.59	46204.22
744.77	46011.71
744.96	45989.19
745.14	46019.91
745.33	45864.26
745.51	46253.37
745.70	46423.36
745.88	46402.88
746.07	45983.04
746.26	45626.70
746.44	46193.98
746.63	46136.64
746.81	46001.47
747.00	45751.62
747.18	46167.36
747.37	45823.30
747.55	45786.44
747.74	46359.87
747.92	46128.45
748.11	45536.59
748.29	46128.45
748.48	45952.32
748.66	45888.84
748.85	45647.18
749.03	45761.86
749.22	46003.52
749.41	45677.90
749.59	45858.12
749.78	45817.16
749.96	45696.33
750.15	45905.22
750.33	45546.82
750.52	45524.30
750.70	46118.21
750.89	45655.37
751.07	45372.75
751.26	45131.09
751.44	45253.97
751.63	45346.12
751.81	45290.83
752.00	44922.19
752.18	45530.44
752.37	45575.50
752.55	45053.26
752.74	45389.13
752.92	45460.81
753.10	44776.79
753.29	45262.16
753.47	44952.91
753.66	44686.68
753.84	45106.51
754.03	45043.02
754.21	44914.00
754.40	45208.91
754.58	45180.24
754.77	44864.85
754.95	44684.63
755.14	44621.14
755.32	44866.90
755.51	45020.50
755.69	44621.14
755.88	44459.35
756.06	44801.36
756.24	44721.49
756.43	44537.18
756.61	44821.84
756.80	44670.29
756.98	44297.56
757.17	44791.12
757.35	44574.04
757.54	44442.97
757.72	44834.13
757.90	44973.39
758.09	44402.01
758.27	44449.11
758.46	44189.02
758.64	44209.50
758.83	44275.04
759.01	44537.18
759.19	44381.53
759.38	44389.72
759.56	43896.16
759.75	44389.72
759.93	44234.08
760.12	43804.00
760.30	44320.09
760.48	44090.72
760.67	44150.11
760.85	44176.73
761.04	44512.60
761.22	44107.10
761.40	44365.15
761.59	44027.23
761.77	44010.85
761.96	44293.47
762.14	43709.80
762.32	43699.56
762.51	43660.65
762.69	44006.75
762.88	44057.95
763.06	43873.63
763.24	44037.47
763.43	43812.20
763.61	43732.32
763.80	43529.58
763.98	43443.56
764.16	43597.16
764.35	42978.67
764.53	43308.40
764.72	43363.69
764.90	43674.98
765.08	43509.10
765.27	43402.60
765.45	43040.11
765.63	42890.61
765.82	43277.68
766.00	42995.06
766.18	42911.09
766.37	42966.38
766.55	42612.09
766.74	43115.89
766.92	42898.80
767.10	43132.27
767.29	42741.11
767.47	42485.11
767.65	43132.27
767.84	42990.96
768.02	42536.31
768.20	42474.87
768.39	42497.40
768.57	42757.49
768.75	42466.68
768.94	42872.18
769.12	42167.68
769.30	42247.55
769.49	42573.17
769.67	42229.12
769.85	41850.24
770.04	42061.18
770.22	42272.12
770.40	42110.33
770.59	42200.44
770.77	42347.90
770.95	41926.02
771.14	41962.88
771.32	41835.91
771.50	41952.64
771.69	42028.41
771.87	42126.72
772.05	41862.53
772.24	41514.37
772.42	41858.43
772.60	41952.64
772.78	41823.62
772.97	41637.25
773.15	42233.21
773.33	42145.15
773.52	41432.46
773.70	41792.90
773.88	41848.19
774.07	41497.99
774.25	41938.30
774.43	41985.41
774.61	41848.19
774.80	41999.74
774.98	41495.94
775.16	42073.47
775.34	41993.60
775.53	41700.74
775.71	41909.63
775.89	41782.66
776.08	41768.32
776.26	41975.17
776.44	41704.84
776.62	41526.66
776.81	41809.28
776.99	41850.24
777.17	41645.44
777.35	42202.49
777.54	42444.15
777.72	41911.68
777.90	41977.22
778.08	41907.58
778.27	41850.24
778.45	42079.61
778.63	42102.14
778.81	41635.20
779.00	42255.74
779.18	42474.87
779.36	42677.62
779.54	42384.76
779.73	42370.43
779.91	42530.17
780.09	42714.48
780.27	42347.90
780.46	42483.06
780.64	42257.79
780.82	42448.25
781.00	42161.53
781.19	43113.84
781.37	42945.90
781.55	42583.41
781.73	42843.51
781.91	42249.60
782.10	43013.49
782.28	42757.49
782.46	42497.40
782.64	42935.66
782.82	42440.06
783.01	43179.37
783.19	43113.84
783.37	42757.49
783.55	42708.34
783.74	42870.13
783.92	42616.18
784.10	43009.39
784.28	42724.72
784.46	42409.34
784.64	42546.55
784.83	42567.03
785.01	42861.94
785.19	42984.82
785.37	42886.51
785.55	42747.25
785.74	42562.93
785.92	42476.92
786.10	42954.10
786.28	42853.75
786.46	42577.27
786.64	42347.90
786.83	42624.37
787.01	42464.63
787.19	42347.90
787.37	42497.40
787.55	42704.24
787.74	42272.12
787.92	42268.03
788.10	42247.55
788.28	42134.91
788.46	42034.56
788.64	41604.49
788.82	42220.92
789.01	42177.92
789.19	42069.37
789.37	41866.63
789.55	41829.76
789.73	41506.18
789.91	41708.93
790.09	42091.90
790.28	41383.30
790.46	41301.39
790.64	41567.62
790.82	41371.02
791.00	41029.01
791.18	41051.53
791.36	41502.09
791.55	41264.52
791.73	41334.15
791.91	40998.29
792.09	40996.24
792.27	41024.91
792.45	41407.88
792.63	40863.12
792.81	40568.21
793.00	40379.80
793.18	40560.02
793.36	40582.55
793.54	40486.29
793.72	40295.83
793.90	40285.59
794.08	40363.42
794.26	40179.10
794.44	40088.99
794.62	39771.55
794.81	39896.48
794.99	39728.55
795.17	39529.89
795.35	39474.60
795.53	39685.54
795.71	39597.48
795.89	39245.23
796.07	38954.41
796.25	38921.65
796.43	39091.63
796.61	38985.13
796.80	38673.84
796.98	39052.72
797.16	38413.75
797.34	38299.06
797.52	38329.78
797.70	38786.48
797.88	38376.89
798.06	37725.63
798.24	38342.07
798.42	38223.29
798.60	37912.00
798.78	37631.43
798.96	38028.73
799.14	37754.30
799.32	37737.92
799.51	37367.24
799.69	37602.75
799.87	37524.93
800.05	37426.63
800.23	37107.15
800.41	37305.80
800.59	37041.61
800.77	36939.21
800.95	36597.20
801.13	36531.67
801.31	36740.56
801.49	36466.13
801.67	36175.32
801.85	36287.96
802.03	36066.78
802.21	36279.77
802.39	36097.50
802.57	36251.09
802.75	35821.02
802.93	36107.74
803.11	36103.64
803.29	35685.86
803.47	35251.69
803.65	35739.10
803.83	35501.54
804.01	35284.45
804.19	34899.44
804.37	35237.35
804.55	35016.17
804.73	34801.13
804.91	34940.39
805.09	35096.04
805.27	34649.58
805.45	35190.25
805.63	34643.44
805.81	34967.02
805.99	34713.07
806.17	34715.12
806.35	34348.53
806.53	34342.39
806.71	33988.09
806.89	34235.89
807.07	33900.03
807.25	34571.76
807.43	33771.00
807.61	34256.37
807.79	33768.96
807.97	33601.02
808.15	33730.05
808.33	33433.09
808.51	33613.31
808.69	33648.13
808.87	33349.12
809.05	32992.78
809.23	33146.37
809.41	32968.20
809.59	32876.04
809.77	33297.92
809.95	32892.43
810.13	33152.52
810.31	32800.27
810.49	32759.31
810.67	32521.74
810.84	32568.85
811.02	32497.17
811.20	32310.80
811.38	32347.67
811.56	32040.47
811.74	32374.29
811.92	32007.70
812.10	31907.35
812.28	32101.91
812.46	31927.83
812.64	31979.03
812.82	32028.18
813.00	32146.97
813.18	31903.26
813.36	31647.26
813.53	31395.36
813.71	31362.59
813.89	31524.38
814.07	31628.83
814.25	31585.82
814.43	31315.49
814.61	30899.75
814.79	31016.49
814.97	31415.84
815.15	30991.91
815.33	30938.66
815.50	30610.99
815.68	31047.21
815.86	31086.12
816.04	30807.59
816.22	30264.88
816.40	30717.48
816.58	30578.22
816.76	30172.72
816.94	30178.87
817.11	30645.80
817.29	30385.71
817.47	30246.45
817.65	30545.45
817.83	30187.06
818.01	29998.65
818.19	29998.65
818.37	29699.64
818.54	29591.10
818.72	29470.27
818.90	29455.93
819.08	29621.82
819.26	29689.40
819.44	29527.61
819.62	29568.57
819.80	29398.59
819.97	29716.03
820.15	29564.48
820.33	29220.42
820.51	29320.77
820.69	28878.41
820.87	29142.60
821.05	29371.97
821.22	28997.19
821.40	29265.47
821.58	29259.33
821.76	28915.27
821.94	28886.60
822.12	28513.87
822.29	28868.17
822.47	28833.35
822.65	28907.08
822.83	28782.15
823.01	28657.23
823.19	28669.51
823.36	28311.12
823.54	28376.66
823.72	28294.74
823.90	28294.74
824.08	27833.94
824.25	28059.22
824.43	27881.05
824.61	28188.24
824.79	28100.18
824.97	28067.41
825.15	28227.15
825.32	28048.98
825.50	27833.94
825.68	27854.42
825.86	27907.67
826.04	27743.83
826.21	27719.26
826.39	27606.62
826.57	27790.94
826.75	27514.46
826.93	27504.22
827.10	27387.49
827.28	27549.28
827.46	27647.58
827.64	27780.70
827.81	27432.54
827.99	27321.95
828.17	27213.41
828.35	27352.67
828.53	27221.60
828.70	27172.45
828.88	27295.33
829.06	27307.62
829.24	26807.91
829.41	26953.32
829.59	27395.68
829.77	26961.51
829.95	26898.02
830.12	26955.36
830.30	26857.06
830.48	26840.68
830.66	26838.63
830.84	27022.95
831.01	26506.86
831.19	26406.51
831.37	26461.80
831.55	26586.73
831.72	26355.31
831.90	26381.93
832.08	26478.19
832.25	26334.83
832.43	26211.95
832.61	25925.24
832.79	26080.88
832.96	26074.74
833.14	26359.41
833.32	26408.56
833.50	26156.66
833.67	26207.86
833.85	26191.47
834.03	25618.04
834.20	26072.69
834.38	26412.65
834.56	26058.35
834.74	25646.71
834.91	25757.30
835.09	25857.65
835.27	25529.98
835.44	25523.83
835.62	25222.78
835.80	25411.20
835.98	25644.66
836.15	25636.47
836.33	25554.55
836.51	25679.48
836.68	25587.32
836.86	25405.05
837.04	25431.68
837.21	25454.20
837.39	25529.98
837.57	25257.60
837.75	25368.19
837.92	25507.45
838.10	25151.10
838.28	24882.82
838.45	24958.60
838.63	24692.36
838.81	25167.49
838.98	24882.82
839.16	24997.51
839.34	24981.12
839.51	24866.44
839.69	24862.34
839.87	24663.69
840.04	24815.24
840.22	25011.84
840.40	24964.74
840.57	24266.38
840.75	24888.96
840.93	24383.12
841.10	24764.04
841.28	24626.82
841.46	24450.70
841.63	24891.01
841.81	24510.09
841.98	24559.24
842.16	24665.74
842.34	24510.09
842.51	23889.56
842.69	24866.44
842.87	24106.64
843.04	24428.17
843.22	24182.42
843.40	24338.06
843.57	24317.58
843.75	24444.56
843.92	24147.60
844.10	24243.85
844.28	24518.28
844.45	24237.71
844.63	23924.37
844.81	24006.29
844.98	23969.43
845.16	23979.67
845.33	24039.06
845.51	23971.47
845.69	23727.77
845.86	23608.98
846.04	23729.81
846.21	23686.81
846.39	23948.95
846.57	23871.12
846.74	23658.14
846.92	23486.11
847.09	23447.19
847.27	23305.88
847.45	23600.79
847.62	23746.20
847.80	23590.55
847.97	23441.05
848.15	23439.00
848.32	23277.21
848.50	23660.18
848.68	23664.28
848.85	23228.06
849.03	23121.57
849.20	23490.20
849.38	23418.52
849.56	23324.32
849.73	23226.01
849.91	23113.38
850.08	23144.09
850.26	22957.73
850.43	23023.26
850.61	23023.26
850.78	22908.58
850.96	23133.86
851.14	23051.94
851.31	22965.92
851.49	22914.72
851.66	23168.67
851.84	22888.10
852.01	23053.98
852.19	22701.73
852.36	22838.95
852.54	22652.58
852.71	22808.23
852.89	22668.97
853.07	22544.04
853.24	22625.96
853.42	22978.21
853.59	22527.66
853.77	22652.58
853.94	22693.54
854.12	22967.97
854.29	22206.13
854.47	22750.88
854.64	22435.50
854.82	22501.03
854.99	22613.67
855.17	22251.18
855.34	22167.21
855.52	22271.66
855.69	22423.21
855.87	22087.34
856.04	22132.40
856.22	22288.04
856.39	22070.96
856.57	22339.24
856.74	22097.58
856.92	22394.54
857.09	22036.14
857.27	22027.95
857.44	22265.52
857.62	22132.40
857.79	22042.29
857.97	22363.82
858.14	22101.68
858.32	21978.80
858.49	21872.31
858.67	22003.38
858.84	22066.86
859.02	22001.33
859.19	21888.69
859.37	21878.45
859.54	21923.51
859.72	21950.13
859.89	21722.80
860.06	21833.39
860.24	21608.12
860.41	21745.33
860.59	21362.36
860.76	21577.40
860.94	21225.15
861.11	21716.66
861.29	21454.52
861.46	21608.12
861.64	21307.07
861.81	21378.75
861.98	21372.60
862.16	21356.22
862.33	21544.63
862.51	21276.35
862.68	21225.15
862.86	21108.41
863.03	21143.23
863.21	21165.76
863.38	21137.09
863.55	21112.51
863.73	21472.95
863.90	20922.05
864.08	21102.27
864.25	21339.83
864.43	21112.51
864.60	21079.74
864.77	20827.84
864.95	20838.08
865.12	20958.91
865.30	21036.74
865.47	21184.19
865.64	20725.44
865.82	20784.83
865.99	20819.65
866.17	20608.71
866.34	20723.40
866.51	20424.39
866.69	20567.75
866.86	20676.29
867.04	20737.73
867.21	20410.06
867.38	20901.57
867.56	20614.85
867.73	20442.82
867.91	20678.34
868.08	20414.15
868.25	20414.15
868.43	20508.36
868.60	20090.57
868.78	19998.41
868.95	20629.19
869.12	20342.47
869.30	20293.32
869.47	20424.39
869.64	20477.64
869.82	20154.06
869.99	19779.28
870.16	20387.53
870.34	20211.40
870.51	20147.92
870.69	19822.29
870.86	19803.86
871.03	19959.50
871.21	19893.97
871.38	20096.72
871.55	19707.60
871.73	19619.54
871.90	19830.48
872.07	19760.85
872.25	19721.94
872.42	19341.02
872.59	19715.80
872.77	19490.52
872.94	19439.32
873.11	19588.82
873.29	19521.24
873.46	19443.42
873.63	19621.59
873.81	19463.90
873.98	19484.37
874.15	18986.72
874.33	19265.24
874.50	19111.64
874.67	19316.44
874.85	19271.39
875.02	19005.15
875.19	19246.81
875.37	19203.80
875.54	18956.00
875.71	19013.34
875.88	18902.75
876.06	18915.04
876.23	18921.18
876.40	18691.81
876.58	18536.17
876.75	18839.26
876.92	18708.19
877.10	18603.75
877.27	18487.01
877.44	18411.24
877.61	18448.10
877.79	18595.56
877.96	18405.10
878.13	18413.29
878.31	18405.10
878.48	18583.27
878.65	18470.63
878.82	18188.01
879.00	18527.97
879.17	18310.89
879.34	18269.93
879.51	17960.69
879.69	17966.83
879.86	17940.21
880.03	18226.92
880.21	18048.75
880.38	17983.21
880.55	18208.49
880.72	18005.74
880.90	18118.38
881.07	17749.75
881.24	17874.67
881.41	17909.49
881.59	17727.22
881.76	17899.25
881.93	17856.24
882.10	17721.07
882.28	17540.85
882.45	17929.97
882.62	17802.99
882.79	17862.38
882.96	17391.35
883.14	17874.67
883.31	17743.60
883.48	17497.84
883.65	17653.49
883.83	17655.54
884.00	17827.57
884.17	17833.71
884.34	17622.77
884.51	17622.77
884.69	17432.31
884.86	17372.92
885.03	17315.58
885.20	17303.29
885.38	17575.67
885.55	17291.00
885.72	17522.42
885.89	17344.25
886.06	17362.68
886.24	17379.06
886.41	17178.36
886.58	17239.80
886.75	17307.38
886.92	17020.67
887.10	17444.60
887.27	17016.57
887.44	17370.87
887.61	17186.55
887.78	17090.30
887.95	17276.66
888.13	17018.62
888.30	17000.19
888.47	16910.08
888.64	17000.19
888.81	16713.47
888.99	16944.89
889.16	16445.19
889.33	16809.73
889.50	16781.06
889.67	16772.86
889.84	16631.55
890.01	16604.93
890.19	16592.64
890.36	16672.51
890.53	16609.03
890.70	16504.58
890.87	16586.50
891.04	16508.68
891.22	16322.31
891.39	16469.76
891.56	16449.28
891.73	16617.22
891.90	16277.26
892.07	16168.71
892.24	16269.06
892.42	16187.14
892.59	16146.19
892.76	16152.33
892.93	16475.91
893.10	16293.64
893.27	16203.53
893.44	15935.24
893.61	16029.45
893.79	16131.85
893.96	15935.24
894.13	16160.52
894.30	16054.03
894.47	16074.51
894.64	16205.58
894.81	16144.14
894.98	16051.98
895.15	16090.89
895.33	15826.70
895.50	15845.13
895.67	16185.10
895.84	16131.85
896.01	15879.95
896.18	15906.57
896.35	16162.57
896.52	15937.29
896.69	15947.53
896.86	15838.99
897.04	15814.41
897.21	15937.29
897.38	16049.93
897.55	15869.71
897.72	16279.30
897.89	15976.20
898.06	15908.62
898.23	15845.13
898.40	15968.01
898.57	15855.37
898.74	15888.14
898.91	15777.55
899.08	15922.96
899.26	15875.85
899.43	15750.93
899.60	15918.86
899.77	15785.74
899.94	15607.57
900.11	15697.68
900.28	15537.94
900.45	15922.96
900.62	15488.79
900.79	15656.72
900.96	15773.46
901.13	15697.68
901.30	15615.76
901.47	15453.97
901.64	15683.34
901.81	15765.26
901.98	15638.29
902.15	15838.99
902.32	15505.17
902.49	15662.86
902.66	15818.51
902.83	15574.80
903.01	15482.64
903.18	15683.34
903.35	15646.48
903.52	15634.19
903.69	15675.15
903.86	15931.15
904.03	15619.86
904.20	15798.03
904.37	15781.65
904.54	15548.18
904.71	15617.81
904.88	15726.35
905.05	15605.52
905.22	15847.18
905.39	15521.56
905.56	15613.71
905.73	15394.58
905.90	15453.97
906.07	15646.48
906.24	15658.77
906.41	15699.73
906.58	15767.31
906.75	15488.79
906.92	15552.27
907.09	15699.73
907.26	15585.04
907.43	15171.35
907.60	15763.22
907.77	15685.39
907.93	15347.48
908.10	15574.80
908.27	15408.92
908.44	15333.14
908.61	15179.54
908.78	15236.89
908.95	15257.37
909.12	15449.88
909.29	15572.75
909.46	15404.82
909.63	15337.24
909.80	15699.73
909.97	15320.85
910.14	15413.01
910.31	15286.04
910.48	15224.60
910.65	15474.45
910.82	15107.87
910.99	15306.52
911.16	15128.35
911.33	15265.56
911.50	15243.03
911.66	15259.42
911.83	15183.64
912.00	15005.47
912.17	14894.88
912.34	15011.61
912.51	14956.32
912.68	15109.91
912.85	15046.43
913.02	14962.46
913.19	14944.03
913.36	14812.96
913.53	14905.12
913.70	14513.95
913.86	14939.93
914.03	14794.53
914.20	14645.02
914.37	14847.77
914.54	14769.95
914.71	14534.43
914.88	14663.46
915.05	14651.17
915.22	14538.53
915.39	14526.24
915.55	14454.56
915.72	14372.64
915.89	14477.09
916.06	14286.63
916.23	14466.85
916.40	14047.02
916.57	14149.42
916.74	14255.91
916.91	14403.36
917.07	13983.53
917.24	14155.56
917.41	14102.31
917.58	14290.73
917.75	14069.55
917.92	13815.60
918.09	14090.02
918.26	13840.17
918.42	13926.19
918.59	13950.76
918.76	13932.33
918.93	13659.95
919.10	13793.07
919.27	13641.52
919.44	13801.26
919.60	13651.76
919.77	13565.74
919.94	13453.11
920.11	13485.87
920.28	13508.40
920.45	13512.50
920.61	13352.76
920.78	13342.52
920.95	13311.80
921.12	13170.49
921.29	13031.23
921.46	12967.74
921.62	12998.46
921.79	13092.66
921.96	12941.11
922.13	12865.34
922.30	12803.90
922.47	12848.96
922.63	12666.69
922.80	12726.08
922.97	12697.41
923.14	12472.13
923.31	12773.18
923.47	12298.05
923.64	12656.45
923.81	12332.87
923.98	12357.44
924.15	12437.31
924.32	12427.07
924.48	12502.85
924.65	12566.34
924.82	12166.98
924.99	11904.84
925.15	12078.92
925.32	12156.74
925.49	11880.27
925.66	11790.16
925.83	11597.65
925.99	11855.69
926.16	11841.36
926.33	11894.60
926.50	11652.94
926.67	11808.59
926.83	11693.90
927.00	11568.98
927.17	11683.66
927.34	11327.32
927.50	11388.75
927.67	11462.48
927.84	11421.52
928.01	11349.84
928.17	11284.31
928.34	11173.72
928.51	11046.74
928.68	11026.26
928.84	10934.11
929.01	11097.94
929.18	10878.81
929.35	10905.43
929.51	10784.60
929.68	10755.93
929.85	10598.24
930.02	10698.59
930.18	10608.48
930.35	10618.72
930.52	10864.47
930.69	10489.70
930.85	10403.68
931.02	10352.48
931.19	10506.08
931.36	10207.08
931.52	10293.09
931.69	10338.15
931.86	10186.60
932.02	10235.75
932.19	10207.08
932.36	10008.42
932.53	10033.00
932.69	10022.76
932.86	10051.43
933.03	9820.01
933.19	9611.12
933.36	9846.63
933.53	9744.24
933.70	9676.65
933.86	9637.74
934.03	9656.17
934.20	9543.53
934.36	9656.17
934.53	9369.46
934.70	9269.11
934.86	9244.53
935.03	9265.01
935.20	9031.54
935.36	9068.41
935.53	9009.01
935.70	8947.58
935.86	8990.58
936.03	8681.34
936.20	8654.72
936.36	8834.94
936.53	8681.34
936.70	8449.92
936.86	8509.31
937.03	8503.17
937.20	8243.07
937.36	8245.12
937.53	7972.74
937.70	7917.45
937.86	7815.05
938.03	7942.02
938.20	7886.73
938.36	7716.75
938.53	7759.75
938.70	7446.41
938.86	7518.09
939.03	7350.16
939.20	7292.82
939.36	7323.54
939.53	7151.51
939.70	7423.89
939.86	6963.09
940.03	6850.46
940.19	6705.05
940.36	6877.08
940.53	6907.80
940.69	6705.05
940.86	6619.04
941.03	6535.07
941.19	6356.90
941.36	6303.65
941.52	6367.13
941.69	6320.03
941.86	6080.42
942.02	6219.68
942.19	6170.53
942.35	6125.47
942.52	6162.34
942.69	5969.83
942.85	5980.07
943.02	5816.23
943.18	6041.51
943.35	5894.05
943.52	5902.25
943.68	5664.68
943.85	5640.11
944.01	5590.95
944.18	5492.65
944.35	5582.76
944.51	5537.71
944.68	5529.52
944.84	5498.80
945.01	5517.23
945.17	5482.41
945.34	5484.46
945.51	5482.41
945.67	5535.66
945.84	5300.14
946.00	5212.08
946.17	5355.44
946.33	5224.37
946.50	5330.86
946.67	5357.49
946.83	5324.72
947.00	5261.23
947.16	5242.80
947.33	5300.14
947.49	5226.42
947.66	5226.42
947.82	5337.01
947.99	5207.98
948.16	5253.04
948.32	5283.76
948.49	5294.00
948.65	5431.21
948.82	5185.46
948.98	5253.04
949.15	5195.70
949.31	5205.94
949.48	5197.74
949.64	5228.46
949.81	5296.05
949.97	5091.25
950.14	5353.39
950.30	5136.31
950.47	5250.99
950.63	5216.18
950.80	5246.90
950.96	5238.70
951.13	5253.04
951.30	5341.10
951.46	5222.32
951.63	5468.08
951.79	5314.48
951.96	5468.08
952.12	5265.33
952.29	5396.40
952.45	5255.09
952.62	5296.05
952.78	5236.66
952.94	5461.93
953.11	5361.58
953.27	5402.54
953.44	5441.45
953.60	5402.54
953.77	5222.32
953.93	5339.05
954.10	5250.99
954.26	5447.60
954.43	5259.18
954.59	5445.55
954.76	5418.93
954.92	5416.88
955.09	5375.92
955.25	5302.19
955.42	5392.30
955.58	5504.94
955.75	5377.97
955.91	5246.90
956.07	5390.25
956.24	5404.59
956.40	5294.00
956.57	5484.46
956.73	5447.60
956.90	5472.17
957.06	5513.13
957.23	5439.40
957.39	5472.17
957.56	5326.77
957.72	5330.86
957.88	5500.84
958.05	5490.60
958.21	5480.36
958.38	5359.53
958.54	5509.04
958.71	5582.76
958.87	5248.94
959.03	5445.55
959.20	5500.84
959.36	5232.56
959.53	5449.64
959.69	5369.77
959.85	5468.08
960.02	5326.77
960.18	5554.09
960.35	5392.30
960.51	5468.08
960.68	5404.59
960.84	5277.62
961.00	5377.97
961.17	5341.10
961.33	5433.26
961.50	5343.15
961.66	5439.40
961.82	5384.11
961.99	5496.75
962.15	5326.77
962.31	5271.47
962.48	5304.24
962.64	5390.25
962.81	5371.82
962.97	5398.45
963.13	5283.76
963.30	5476.27
963.46	5316.53
963.62	5283.76
963.79	5306.29
963.95	5287.86
964.12	5386.16
964.28	5357.49
964.44	5257.14
964.61	5312.43
964.77	5238.70
964.93	5523.37
965.10	5279.66
965.26	5255.09
965.42	5296.05
965.59	5238.70
965.75	5175.22
965.92	5132.21
966.08	5212.08
966.24	5263.28
966.41	5138.35
966.57	5238.70
966.73	5330.86
966.90	5275.57
967.06	5126.07
967.22	5253.04
967.39	5232.56
967.55	5105.59
967.71	5085.11
967.88	5234.61
968.04	5214.13
968.20	5255.09
968.37	5038.00
968.53	5154.74
968.69	5148.59
968.85	5214.13
969.02	4988.85
969.18	5058.48
969.34	5193.65
969.51	5212.08
969.67	5033.91
969.83	4908.98
970.00	5074.87
970.16	5146.55
970.32	4947.89
970.48	5124.02
970.65	4976.56
970.81	5011.38
970.97	5156.79
971.14	4947.89
971.30	5025.72
971.46	4995.00
971.63	4980.66
971.79	5003.19
971.95	5076.91
972.11	4861.88
972.28	4970.42
972.44	5017.52
972.60	4810.68
972.76	4825.01
972.93	4796.34
973.09	4962.23
973.25	4968.37
973.42	4804.53
973.58	4956.08
973.74	4886.45
973.90	4878.26
974.07	4878.26
974.23	4876.21
974.39	4894.65
974.55	4896.69
974.72	4755.38
974.88	4792.25
975.04	4792.25
975.20	4782.01
975.37	4976.56
975.53	4829.11
975.69	4759.48
975.85	4673.46
976.01	4638.65
976.18	4775.86
976.34	4638.65
976.50	4720.57
976.66	4716.47
976.83	4716.47
976.99	4677.56
977.15	4583.35
977.31	4620.22
977.47	4712.38
977.64	4679.61
977.80	4532.15
977.96	4648.89
978.12	4652.98
978.29	4517.82
978.45	4534.20
978.61	4456.38
978.77	4569.02
978.93	4483.00
979.10	4452.28
979.26	4583.35
979.42	4618.17
979.58	4255.68
979.74	4534.20
979.91	4478.91
980.07	4317.12
980.23	4495.29
980.39	4370.37
980.55	4495.29
980.71	4433.85
980.88	4329.41
981.04	4341.69
981.20	4333.50
981.36	4374.46
981.52	4360.13
981.68	4310.97
981.85	4343.74
982.01	4378.56
982.17	4272.06
982.33	4476.86
982.49	4319.17
982.65	4345.79
982.82	4237.25
982.98	4276.16
983.14	4247.49
983.30	4390.84
983.46	4286.40
983.62	4302.78
983.79	4204.48
983.95	4116.42
984.11	4087.75
984.27	4100.03
984.43	4155.33
984.59	4227.01
984.75	4165.57
984.91	4177.86
985.08	4243.39
985.24	4020.16
985.40	4079.55
985.56	4042.69
985.72	4204.48
985.88	4212.67
986.04	4077.51
986.20	4077.51
986.37	3991.49
986.53	4067.27
986.69	4110.27
986.85	4005.83
987.01	3921.86
987.17	4054.98
987.33	3975.11
987.49	3944.39
987.65	4124.61
987.82	4048.83
987.98	3911.62
988.14	3950.53
988.30	3817.41
988.46	4044.74
988.62	3997.64
988.78	3966.92
988.94	3962.82
989.10	3852.23
989.26	3745.73
989.42	3782.60
989.59	3803.08
989.75	3852.23
989.91	3891.14
990.07	3659.72
990.23	3739.59
990.39	3895.24
990.55	3841.99
990.71	3901.38
990.87	3809.22
991.03	3874.76
991.19	3708.87
991.35	3733.45
991.51	3780.55
991.67	3917.76
991.83	3676.10
992.00	3745.73
992.16	3698.63
992.32	3858.37
992.48	3813.32
992.64	3667.91
992.80	3729.35
992.96	3631.05
993.12	3735.50
993.28	3690.44
993.44	3751.88
993.60	3626.95
993.76	3698.63
993.92	3629.00
994.08	3674.06
994.24	3600.33
994.40	3686.34
994.56	3596.23
994.72	3542.99
994.88	3608.52
995.04	3471.31
995.20	3551.18
995.36	3534.79
995.52	3534.79
995.68	3540.94
995.84	3409.87
996.00	3592.14
996.16	3575.75
996.32	3442.64
996.48	3516.36
996.64	3557.32
996.80	3385.29
996.96	3420.11
997.12	3456.97
997.28	3373.00
997.44	3434.44
997.60	3475.40
997.76	3411.92
997.92	3446.73
998.08	3403.72
998.24	3295.18
998.40	3366.86
998.56	3381.20
998.72	3246.03
998.88	3256.27
999.04	3301.33
999.20	3391.44
999.36	3256.27
999.52	3368.91
999.68	3309.52
999.84	3272.65
1000.00	3256.27
1000.16	3317.71
1000.32	3246.03
1000.48	3389.39
1000.64	3176.40
1000.80	3231.69
1000.95	3184.59
1001.11	3172.30
1001.27	3241.93
1001.43	3303.37
1001.59	3231.69
1001.75	3135.44
1001.91	3241.93
1002.07	3270.61
1002.23	3092.43
1002.39	3117.01
1002.55	3119.06
1002.71	3137.49
1002.87	3084.24
1003.03	3012.56
1003.19	3104.72
1003.34	3207.12
1003.50	3098.58
1003.66	3051.47
1003.82	3141.58
1003.98	2987.99
1004.14	3178.45
1004.30	2977.75
1004.46	2983.89
1004.62	2977.75
1004.78	3067.86
1004.94	3137.49
1005.09	3102.67
1005.25	3000.27
1005.41	2987.99
1005.57	2942.93
1005.73	3002.32
1005.89	3022.80
1006.05	2992.08
1006.21	2981.84
1006.37	2777.05
1006.52	2959.31
1006.68	2838.48
1006.84	3004.37
1007.00	2867.16
1007.16	2934.74
1007.32	2871.25
1007.48	2877.40
1007.64	2918.36
1007.79	2879.44
1007.95	2758.61
1008.11	2981.84
1008.27	2916.31
1008.43	2944.98
1008.59	2691.03
1008.75	2811.86
1008.91	2910.16
1009.06	2871.25
1009.22	2844.63
1009.38	2912.21
1009.54	2803.67
1009.70	2707.41
1009.86	2883.54
1010.01	2893.78
1010.17	2760.66
1010.33	2713.56
1010.49	2729.94
1010.65	2867.16
1010.81	2641.88
1010.96	2729.94
1011.12	2691.03
1011.28	2621.40
1011.44	2777.05
1011.60	2715.61
1011.76	2777.05
1011.91	2740.18
1012.07	2588.63
1012.23	2594.78
1012.39	2736.09
1012.55	2764.76
1012.71	2652.12
1012.86	2629.59
1013.02	2674.65
1013.18	2662.36
1013.34	2609.11
1013.50	2752.47
1013.65	2736.09
1013.81	2482.14
1013.97	2600.92
1014.13	2619.35
1014.29	2635.74
1014.44	2623.45
1014.60	2559.96
1014.76	2584.54
1014.92	2686.94
1015.07	2621.40
1015.23	2596.82
1015.39	2553.82
1015.55	2578.39
1015.71	2568.15
1015.86	2551.77
1016.02	2572.25
1016.18	2488.28
1016.34	2535.39
1016.49	2508.76
1016.65	2582.49
1016.81	2422.75
1016.97	2490.33
1017.12	2533.34
1017.28	2402.27
1017.44	2400.22
1017.60	2467.80
1017.75	2500.57
1017.91	2541.53
1018.07	2519.00
1018.23	2473.95
1018.38	2402.27
1018.54	2451.42
1018.70	2424.80
1018.86	2400.22
1019.01	2400.22
1019.17	2361.31
1019.33	2396.12
1019.49	2527.19
1019.64	2428.89
1019.80	2428.89
1019.96	2445.27
1020.12	2353.12
1020.27	2330.59
1020.43	2387.93
1020.59	2453.47
1020.74	2473.95
1020.90	2449.37
1021.06	2308.06
1021.22	2387.93
1021.37	2351.07
1021.53	2279.39
1021.69	2455.51
1021.84	2279.39
1022.00	2289.63
1022.16	2306.01
1022.31	2428.89
1022.47	2396.12
1022.63	2326.49
1022.79	2234.33
1022.94	2334.68
1023.10	2351.07
1023.26	2271.20
1023.41	2267.10
1023.57	2197.47
1023.73	2369.50
1023.88	2299.87
1024.04	2275.29
1024.20	2232.29
1024.35	2299.87
1024.51	2344.92
1024.67	2164.70
1024.82	2363.36
1024.98	2224.09
1025.14	2195.42
1025.29	2222.05
1025.45	2349.02
1025.61	2174.94
1025.76	2248.67
1025.92	2213.85
1026.08	2285.53
1026.23	2306.01
1026.39	2265.05
1026.55	2289.63
1026.70	2150.37
1026.86	2289.63
1027.02	2166.75
1027.17	2215.90
1027.33	2183.13
1027.48	2252.77
1027.64	2123.74
1027.80	2117.60
1027.95	2183.13
1028.11	2156.51
1028.27	2123.74
1028.42	2236.38
1028.58	2125.79
1028.73	2127.84
1028.89	2162.66
1029.05	2199.52
1029.20	2191.33
>>>>>End Processed Spectral Data<<<<<
