SpectraSuite Data File
++++++++++++++++++++++++++++++++++++
Date: Fri Jun 02 14:57:17 CEST 2017
User: INFO_000
Dark Spectrum Present: No
Reference Spectrum Present: No
Number of Sampled Component Spectra: 1
Spectrometers: USB4H00879
Integration Time (usec): 80000 (USB4H00879)
Spectra Averaged: 1 (USB4H00879)
Boxcar Smoothing: 0 (USB4H00879)
Correct for Electrical Dark: No (USB4H00879)
Strobe/Lamp Enabled: No (USB4H00879)
Correct for Detector Non-linearity: No (USB4H00879)
Correct for Stray Light: No (USB4H00879)
Number of Pixels in Processed Spectrum: 3648
>>>>>Begin Processed Spectral Data<<<<<
345.13	1304.56
345.34	1304.56
345.56	1304.56
345.78	1206.25
345.99	1257.45
346.21	1705.96
346.42	1712.10
346.64	1667.05
346.86	1757.16
347.07	1691.62
347.29	1671.14
347.50	1642.47
347.72	1714.15
347.94	1767.40
348.15	1662.95
348.37	1619.94
348.59	1738.73
348.80	1656.81
349.02	1769.44
349.23	1814.50
349.45	1722.34
349.67	1818.60
349.88	1722.34
350.10	2000.87
350.31	1839.08
350.53	1765.35
350.75	1890.28
350.96	1679.33
351.18	1814.50
351.39	1763.30
351.61	1798.12
351.82	1859.56
352.04	1857.51
352.26	1824.74
352.47	1830.88
352.69	1910.75
352.90	1728.49
353.12	1814.50
353.34	1808.36
353.55	1898.47
353.77	1875.94
353.98	1865.70
354.20	1820.64
354.41	1867.75
354.63	1814.50
354.85	2021.35
355.06	2000.87
355.28	1732.58
355.49	1916.90
355.71	1818.60
355.92	1867.75
356.14	1914.85
356.35	1814.50
356.57	1834.98
356.79	1861.60
357.00	1910.75
357.22	1896.42
357.43	1951.71
357.65	1920.99
357.86	1761.25
358.08	1871.84
358.29	1923.04
358.51	1972.19
358.72	1966.05
358.94	1945.57
359.16	1937.38
359.37	1937.38
359.59	1929.19
359.80	1966.05
360.02	1957.86
360.23	1951.71
360.45	2027.49
360.66	1972.19
360.88	1826.79
361.09	1822.69
361.31	1974.24
361.52	1888.23
361.74	2056.16
361.95	2107.36
362.17	2025.44
362.38	2037.73
362.60	2035.68
362.81	1918.95
363.03	1976.29
363.24	1947.62
363.46	1964.00
363.67	1990.63
363.89	1896.42
364.10	2017.25
364.32	1955.81
364.53	2045.92
364.75	1884.13
364.96	1968.10
365.18	2041.82
365.39	2023.39
365.61	1955.81
365.82	2090.98
366.04	1957.86
366.25	1875.94
366.47	2009.06
366.68	2076.64
366.90	2015.20
367.11	2017.25
367.33	2140.13
367.54	2050.02
367.76	1990.63
367.97	2088.93
368.19	2015.20
368.40	2125.79
368.62	1986.53
368.83	2019.30
369.05	2125.79
369.26	1996.77
369.48	2033.63
369.69	2013.15
369.91	2070.50
370.12	2035.68
370.33	2109.41
370.55	1996.77
370.76	2035.68
370.98	2121.70
371.19	2068.45
371.41	2082.78
371.62	2013.15
371.84	2033.63
372.05	2119.65
372.27	2056.16
372.48	2086.88
372.69	2099.17
372.91	2105.31
373.12	2256.86
373.34	1998.82
373.55	2129.89
373.77	2162.66
373.98	2088.93
374.20	2248.67
374.41	2205.66
374.62	2084.83
374.84	2084.83
375.05	2195.42
375.27	2121.70
375.48	2215.90
375.70	2129.89
375.91	2131.94
376.12	2285.53
376.34	2146.27
376.55	2123.74
376.77	2199.52
376.98	2166.75
377.19	2189.28
377.41	2127.84
377.62	2248.67
377.84	2248.67
378.05	2353.12
378.27	2111.46
378.48	2228.19
378.69	2346.97
378.91	2287.58
379.12	2240.48
379.34	2269.15
379.55	2217.95
379.76	2240.48
379.98	2146.27
380.19	2242.53
380.41	2248.67
380.62	2269.15
380.83	2201.57
381.05	2254.81
381.26	2486.23
381.47	2209.76
381.69	2238.43
381.90	2432.99
382.12	2404.32
382.33	2346.97
382.54	2256.86
382.76	2396.12
382.97	2338.78
383.19	2256.86
383.40	2498.52
383.61	2353.12
383.83	2269.15
384.04	2379.74
384.25	2346.97
384.47	2400.22
384.68	2432.99
384.89	2281.44
385.11	2273.25
385.32	2453.47
385.54	2293.72
385.75	2396.12
385.96	2408.41
386.18	2418.65
386.39	2441.18
386.60	2381.79
386.82	2422.75
387.03	2361.31
387.24	2574.30
387.46	2441.18
387.67	2465.75
387.88	2484.19
388.10	2582.49
388.31	2490.33
388.52	2519.00
388.74	2523.10
388.95	2514.91
389.16	2451.42
389.38	2494.43
389.59	2592.73
389.80	2615.26
390.02	2574.30
390.23	2609.11
390.44	2580.44
390.66	2480.09
390.87	2527.19
391.08	2549.72
391.30	2623.45
391.51	2662.36
391.72	2723.80
391.94	2572.25
392.15	2629.59
392.36	2615.26
392.58	2531.29
392.79	2744.28
393.00	2719.70
393.22	2719.70
393.43	2768.85
393.64	2818.00
393.85	2760.66
394.07	2613.21
394.28	2707.41
394.49	2736.09
394.71	2836.44
394.92	2760.66
395.13	2760.66
395.35	2721.75
395.56	2734.04
395.77	2768.85
395.98	2828.24
396.20	2844.63
396.41	2783.19
396.62	2901.97
396.84	2787.29
397.05	2731.99
397.26	2834.39
397.47	2854.87
397.69	2799.57
397.90	2916.31
398.11	2871.25
398.32	2828.24
398.54	2920.40
398.75	2977.75
398.96	2893.78
399.18	3063.76
399.39	2944.98
399.60	3008.47
399.81	2899.92
400.03	3033.04
400.24	3200.98
400.45	3022.80
400.66	3112.91
400.88	2936.79
401.09	3260.37
401.30	3039.19
401.51	3194.83
401.73	3164.11
401.94	3211.22
402.15	3211.22
402.36	3063.76
402.58	3149.78
402.79	3174.35
403.00	3127.25
403.21	3192.78
403.43	3274.70
403.64	3227.60
403.85	3135.44
404.06	3227.60
404.27	3190.74
404.49	3276.75
404.70	3180.50
404.91	3227.60
405.12	3274.70
405.34	3272.65
405.55	3362.76
405.76	3194.83
405.97	3252.17
406.19	3399.63
406.40	3303.37
406.61	3432.40
406.82	3364.81
407.03	3323.85
407.25	3299.28
407.46	3342.28
407.67	3499.98
407.88	3467.21
408.09	3383.24
408.31	3485.64
408.52	3487.69
408.73	3348.43
408.94	3381.20
409.15	3407.82
409.37	3463.12
409.58	3518.41
409.79	3452.88
410.00	3475.40
410.21	3370.96
410.43	3510.22
410.64	3489.74
410.85	3526.60
411.06	3534.79
411.27	3557.32
411.48	3514.31
411.70	3483.59
411.91	3653.58
412.12	3600.33
412.33	3600.33
412.54	3608.52
412.76	3561.42
412.97	3694.54
413.18	3418.06
413.39	3581.90
413.60	3733.45
413.81	3700.68
414.03	3614.66
414.24	3583.95
414.45	3811.27
414.66	3596.23
414.87	3717.06
415.08	3694.54
415.30	3727.30
415.51	3684.30
415.72	3837.89
415.93	3735.50
416.14	3844.04
416.35	3911.62
416.56	3768.26
416.78	3833.80
416.99	3846.09
417.20	3889.09
417.41	3760.07
417.62	3968.96
417.83	4028.35
418.04	3880.90
418.26	3915.72
418.47	3911.62
418.68	4032.45
418.89	3903.43
419.10	4171.71
419.31	4005.83
419.52	4046.79
419.73	4061.12
419.95	4132.80
420.16	3968.96
420.37	4091.84
420.58	4147.14
420.79	4009.92
421.00	4061.12
421.21	4095.94
421.42	3987.40
421.63	4118.47
421.85	4140.99
422.06	4171.71
422.27	4237.25
422.48	4147.14
422.69	4298.69
422.90	4380.61
423.11	4239.30
423.32	4292.54
423.53	4437.95
423.75	4267.97
423.96	4419.52
424.17	4470.72
424.38	4476.86
424.59	4454.33
424.80	4507.58
425.01	4534.20
425.22	4325.31
425.43	4497.34
425.64	4648.89
425.85	4536.25
426.06	4532.15
426.28	4562.87
426.49	4343.74
426.70	4712.38
426.91	4540.35
427.12	4732.86
427.33	4650.94
427.54	4642.75
427.75	4722.62
427.96	4876.21
428.17	4714.42
428.38	4792.25
428.59	4829.11
428.80	4855.73
429.01	4968.37
429.23	4931.51
429.44	4968.37
429.65	4911.03
429.86	5103.54
430.07	4929.46
430.28	4939.70
430.49	4951.99
430.70	5158.83
430.91	5113.78
431.12	4892.60
431.33	5236.66
431.54	5189.55
431.75	5150.64
431.96	5117.87
432.17	5027.76
432.38	5171.12
432.59	5357.49
432.80	5337.01
433.01	5269.42
433.22	5298.10
433.43	5320.62
433.64	5242.80
433.85	5167.03
434.06	5343.15
434.27	5326.77
434.49	5355.44
434.70	5576.62
434.91	5574.57
435.12	5472.17
435.33	5408.69
435.54	5439.40
435.75	5328.81
435.96	5472.17
436.17	5279.66
436.38	5474.22
436.59	5681.07
436.80	5562.28
437.01	5695.40
437.22	5717.93
437.43	5726.12
437.64	5476.27
437.85	5789.61
438.06	5726.12
438.27	5623.72
438.48	5709.74
438.69	5844.90
438.90	5824.42
439.11	5785.51
439.32	5889.96
439.53	5830.57
439.74	5859.24
439.95	5982.12
440.16	5896.10
440.37	5744.55
440.57	5748.65
440.78	5879.72
440.99	5922.73
441.20	5922.73
441.41	5746.60
441.62	6125.47
441.83	5873.57
442.04	5902.25
442.25	6018.98
442.46	5982.12
442.67	6150.05
442.88	6383.52
443.09	5998.50
443.30	6094.76
443.51	6053.80
443.72	6332.32
443.93	6158.24
444.14	6438.81
444.35	6162.34
444.56	6213.54
444.77	6234.02
444.98	6283.17
445.19	6371.23
445.40	6381.47
445.61	6324.13
445.81	6543.26
446.02	6614.94
446.23	6420.38
446.44	6324.13
446.65	6563.74
446.86	6526.88
447.07	6645.66
447.28	6735.77
447.49	6920.09
447.70	6612.89
447.91	6664.09
448.12	6655.90
448.33	6766.49
448.54	6885.27
448.74	6698.91
448.95	6717.34
449.16	6608.80
449.37	6975.38
449.58	6719.39
449.79	7020.44
450.00	6778.78
450.21	6778.78
450.42	6969.24
450.63	6995.86
450.84	6942.61
451.05	6875.03
451.25	6889.37
451.46	6707.10
451.67	7104.40
451.88	7096.21
452.09	7100.31
452.30	7069.59
452.51	7088.02
452.72	7200.66
452.93	7653.26
453.13	7106.45
453.34	7411.60
453.55	7421.84
453.76	7368.59
453.97	7595.92
454.18	7540.62
454.39	7532.43
454.60	7409.55
454.81	7337.87
455.01	7868.30
455.22	7526.29
455.43	7669.64
455.64	7837.58
455.85	8013.70
456.06	7915.40
456.27	7776.14
456.48	7651.21
456.68	7753.61
456.89	7845.77
457.10	8021.89
457.31	8126.34
457.52	7882.63
457.73	8132.48
457.94	8142.72
458.14	7964.55
458.35	8374.14
458.56	8259.46
458.77	8228.74
458.98	8232.83
459.19	8318.85
459.39	8505.21
459.60	8480.64
459.81	8378.24
460.02	8703.87
460.23	8497.02
460.44	8662.91
460.65	8851.32
460.85	8654.72
461.06	8855.42
461.27	8648.57
461.48	9156.47
461.69	9086.84
461.89	8736.63
462.10	8982.39
462.31	8904.57
462.52	8902.52
462.73	9142.13
462.94	9328.50
463.14	9154.42
463.35	9148.28
463.56	9709.42
463.77	9549.68
463.98	9328.50
464.18	9361.27
464.39	9523.05
464.60	9555.82
464.81	9867.11
465.02	9680.75
465.23	9795.43
465.43	9690.99
465.64	10041.19
465.85	9858.92
466.06	9602.93
466.27	10084.20
466.47	10059.62
466.68	10116.97
466.89	10153.83
467.10	10354.53
467.30	10049.38
467.51	10213.22
467.72	10354.53
467.93	10123.11
468.14	10547.04
468.34	10737.50
468.55	10757.98
468.76	10596.19
468.97	10473.31
469.17	10854.23
469.38	10776.41
469.59	10934.11
469.80	10637.15
470.01	10878.81
470.21	11095.89
470.42	11114.33
470.63	11444.05
470.84	11327.32
471.04	11300.69
471.25	11380.56
471.46	11112.28
471.67	11634.51
471.87	11685.71
472.08	11743.05
472.29	12156.74
472.50	11577.17
472.70	11614.03
472.91	11851.60
473.12	12101.45
473.33	11917.13
473.53	12263.24
473.74	12130.12
473.95	12427.07
474.16	12447.55
474.36	12412.74
474.57	12578.62
474.78	12578.62
474.99	12623.68
475.19	12504.90
475.40	13045.56
475.61	13057.85
475.81	13080.38
476.02	13244.21
476.23	13066.04
476.44	13342.52
476.64	13475.63
476.85	13786.93
477.06	13780.78
477.27	13676.34
477.47	13635.38
477.68	13594.42
477.89	13950.76
478.09	13999.91
478.30	14024.49
478.51	14044.97
478.71	14182.18
478.92	14374.69
479.13	14397.22
479.34	14577.44
479.54	14335.78
479.75	14663.46
479.96	14726.94
480.16	14761.76
480.37	14888.73
480.58	15019.80
480.78	15341.33
480.99	15165.21
481.20	15318.81
481.41	15322.90
481.61	15437.59
481.82	15435.54
482.03	15535.89
482.23	15521.56
482.44	15877.90
482.65	15945.48
482.85	15910.67
483.06	15896.33
483.27	16019.21
483.47	16031.50
483.68	16094.99
483.89	16353.03
484.09	16224.01
484.30	16475.91
484.51	17002.24
484.71	16662.27
484.92	16815.87
485.13	16852.73
485.33	16885.50
485.54	16828.16
485.75	17305.34
485.95	17344.25
486.16	17135.35
486.37	17219.32
486.57	17454.84
486.78	17377.01
486.98	17780.46
487.19	17622.77
487.40	17759.98
487.60	17882.86
487.81	18239.21
488.02	17944.30
488.22	18169.58
488.43	18118.38
488.64	18212.59
488.84	18339.56
489.05	18558.69
489.25	18652.90
489.46	19107.55
489.67	18937.57
489.87	18986.72
490.08	19285.72
490.29	18902.75
490.49	19148.51
490.70	19197.66
490.90	19588.82
491.11	19465.94
491.32	19566.29
491.52	19736.27
491.73	19738.32
491.94	19758.80
492.14	19660.50
492.35	20285.13
492.55	20098.77
492.76	20100.81
492.97	20477.64
493.17	20481.74
493.38	20584.13
493.58	20799.17
493.79	20637.38
494.00	20653.76
494.20	20805.31
494.41	20958.91
494.61	20915.90
494.82	20790.98
495.02	20948.67
495.23	21274.30
495.44	21069.50
495.64	21520.06
495.85	21405.37
496.05	21737.14
496.26	21567.16
496.47	21823.16
496.67	21612.21
496.88	22070.96
497.08	21728.95
497.29	22034.10
497.49	21888.69
497.70	22269.61
497.91	22165.17
498.11	22320.81
498.32	22515.37
498.52	22793.89
498.73	22939.30
498.93	22525.61
499.14	23088.80
499.34	22773.41
499.55	22750.88
499.76	22951.59
499.96	23158.43
500.17	22924.96
500.37	23039.65
500.58	23101.09
500.78	23357.08
500.99	23504.54
501.19	23654.04
501.40	23467.67
501.60	23486.11
501.81	23512.73
502.02	23477.91
502.22	23735.96
502.43	23910.04
502.63	24250.00
502.84	24278.67
503.04	24272.53
503.25	24336.01
503.45	24262.29
503.66	24325.77
503.86	24436.36
504.07	24454.79
504.27	24680.07
504.48	24934.02
504.68	24735.37
504.89	25044.61
505.09	24923.78
505.30	25192.06
505.50	25054.85
505.71	25335.42
505.91	25683.58
506.12	25347.71
506.32	25507.45
506.53	25292.41
506.73	25511.55
506.94	25263.74
507.14	25419.39
507.35	25603.71
507.55	25896.56
507.76	25732.73
507.96	25734.78
508.17	26001.01
508.37	25988.72
508.58	25974.39
508.78	26234.48
508.99	26551.91
509.19	26070.64
509.40	26226.29
509.60	26261.10
509.81	26562.15
510.01	26277.49
510.22	26584.68
510.42	26424.94
510.63	26601.07
510.83	26750.57
511.04	26740.33
511.24	26859.11
511.44	26949.22
511.65	26953.32
511.85	27248.22
512.06	27088.48
512.26	26979.94
512.47	27473.50
512.67	27393.63
512.88	27389.53
513.08	26703.46
513.29	27641.43
513.49	27516.51
513.69	27475.55
513.90	27571.80
514.10	27784.79
514.31	27936.34
514.51	28012.12
514.72	27444.83
514.92	27795.03
515.13	27860.57
515.33	27962.97
515.53	27815.51
515.74	27747.93
515.94	28337.74
516.15	27887.19
516.35	27821.66
516.56	28288.59
516.76	28198.48
516.96	28300.88
517.17	28261.97
517.37	28386.89
517.58	28739.15
517.78	28683.85
517.99	28610.12
518.19	28958.28
518.39	29056.58
518.60	28710.47
518.80	29027.91
519.01	28761.67
519.21	29113.92
519.41	29324.86
519.62	28739.15
519.82	29363.78
520.03	29398.59
520.23	29288.00
520.43	29328.96
520.64	29808.19
520.84	29716.03
521.05	29365.82
521.25	29619.77
521.45	30242.35
521.66	30219.83
521.86	29632.06
522.07	29425.22
522.27	30066.23
522.47	30002.74
522.68	30297.65
522.88	30115.38
523.08	30361.14
523.29	30559.79
523.49	30348.85
523.70	30621.23
523.90	30705.20
524.10	30711.34
524.31	30842.41
524.51	30969.38
524.71	31061.54
524.92	30821.93
525.12	31075.88
525.33	31297.06
525.53	31280.67
525.73	31434.27
525.94	31516.19
526.14	31270.43
526.34	31321.63
526.55	31327.78
526.75	31706.65
526.95	32198.16
527.16	31591.97
527.36	31569.44
527.56	32169.49
527.77	31888.92
527.97	31989.27
528.17	32194.07
528.38	32364.05
528.58	32247.32
528.78	32337.43
528.99	32589.33
529.19	32896.52
529.39	32478.74
529.60	32867.85
529.80	32679.44
530.00	32888.33
530.21	33115.65
530.41	33179.14
530.61	32933.39
530.82	32884.23
531.02	32937.48
531.22	33793.53
531.43	33433.09
531.63	33502.72
531.83	33717.76
532.04	33996.28
532.24	33783.29
532.44	33867.26
532.64	34070.01
532.85	34098.68
533.05	34209.27
533.25	33912.31
533.46	34254.33
533.66	34369.01
533.86	34147.83
534.07	34788.85
534.27	34661.87
534.47	34713.07
534.67	34616.82
534.88	34694.64
535.08	34960.87
535.28	35143.14
535.49	35020.27
535.69	35020.27
535.89	35487.20
536.09	35468.77
536.30	35739.10
536.50	35511.78
536.70	35757.53
536.91	35753.44
537.11	35683.81
537.31	35878.36
537.51	35751.39
537.72	36199.90
537.92	36179.42
538.12	36623.83
538.32	35913.18
538.53	36140.50
538.73	35988.95
538.93	36353.49
539.13	36382.16
539.34	35970.52
539.54	36646.35
539.74	36892.11
539.94	36552.15
540.15	36775.37
540.35	36869.58
540.55	36982.22
540.75	36879.82
540.96	37035.47
541.16	37291.46
541.36	37070.28
541.56	37258.70
541.77	37670.34
541.97	37602.75
542.17	37490.12
542.37	37580.23
542.58	37672.39
542.78	37385.67
542.98	37637.57
543.18	38063.55
543.38	38352.31
543.59	38190.52
543.79	37891.52
543.99	38167.99
544.19	38061.50
544.40	38090.17
544.60	38679.99
544.80	38333.88
545.00	38477.24
545.20	38673.84
545.41	38645.17
545.61	38606.26
545.81	38843.82
546.01	39032.24
546.21	38940.08
546.42	39140.78
546.62	38981.04
546.82	38753.71
547.02	39282.09
547.22	39165.35
547.43	39400.87
547.63	39077.29
547.83	39286.18
548.03	39130.54
548.23	39394.73
548.44	39318.95
548.64	39726.50
548.84	39966.11
549.04	39351.72
549.24	39937.44
549.45	40146.33
549.65	39378.34
549.85	40451.48
550.05	40199.58
550.25	39902.62
550.45	40574.36
550.66	40570.26
550.86	40199.58
551.06	40396.18
551.26	40152.48
551.46	40478.10
551.66	40398.23
551.87	40084.89
552.07	40695.19
552.27	40514.97
552.47	40832.40
552.67	40727.95
552.87	41151.88
553.07	40879.50
553.28	40897.94
553.48	41067.92
553.68	40605.08
553.88	41307.53
554.08	41489.80
554.28	40906.13
554.48	40785.30
554.69	41489.80
554.89	41602.44
555.09	41295.24
555.29	41262.47
555.49	41543.05
555.69	41338.25
555.89	41461.13
556.10	41706.88
556.30	41063.82
556.50	41911.68
556.70	41766.27
556.90	41926.02
557.10	41903.49
557.30	41772.42
557.50	42280.31
557.70	42521.98
557.91	42571.13
558.11	42102.14
558.31	42239.36
558.51	42210.68
558.71	42259.84
558.91	42706.29
559.11	42501.50
559.31	42476.92
559.51	42349.95
559.72	42890.61
559.92	42835.31
560.12	42575.22
560.32	42790.26
560.52	43054.45
560.72	42878.32
560.92	43384.17
561.12	43122.03
561.32	43193.71
561.52	42894.71
561.72	43392.36
561.93	43003.25
562.13	43210.09
562.33	43052.40
562.53	43836.77
562.73	42636.66
562.93	43464.04
563.13	43392.36
563.33	43365.74
563.53	43316.59
563.73	43662.69
563.93	43720.04
564.13	44033.38
564.33	43976.03
564.53	43785.57
564.74	44105.06
564.94	43849.06
565.14	43945.31
565.34	43611.49
565.54	44148.06
565.74	43836.77
565.94	44141.92
566.14	44137.82
566.34	44066.14
566.54	44522.84
566.74	44287.32
566.94	44275.04
567.14	44608.86
567.34	44342.62
567.54	44690.77
567.74	44481.88
567.94	44148.06
568.14	44821.84
568.34	44840.28
568.54	44940.63
568.74	45071.70
568.94	44399.96
569.14	44975.44
569.34	44848.47
569.54	45346.12
569.75	44547.42
569.95	45200.72
570.15	45071.70
570.35	45315.40
570.55	44784.98
570.75	45028.69
570.95	45251.92
571.15	45227.34
571.35	45509.96
571.55	45684.04
571.75	45292.88
571.95	45509.96
572.15	45333.84
572.35	45729.09
572.55	45778.25
572.75	45720.90
572.95	45315.40
573.15	45630.79
573.35	45720.90
573.55	45872.45
573.75	46032.19
573.95	46183.74
574.15	46161.22
574.35	46101.82
574.55	46318.91
574.75	45946.18
574.95	46259.52
575.15	46181.70
575.34	46105.92
575.54	46587.19
575.74	46302.53
575.94	46153.02
576.14	46560.57
576.34	46847.29
576.54	47150.38
576.74	46781.75
576.94	46656.82
577.14	46931.25
577.34	46861.62
577.54	46644.54
577.74	46906.68
577.94	47117.62
578.14	46986.55
578.34	47011.12
578.54	46966.07
578.74	47076.66
578.94	47299.89
579.14	47246.64
579.34	47377.71
579.54	47398.19
579.74	47885.61
579.94	47572.27
580.13	47469.87
580.33	47582.51
580.53	47662.38
580.73	47709.48
580.93	47592.75
581.13	47793.45
581.33	47652.14
581.53	48260.38
581.73	47838.50
581.93	48071.97
582.13	48428.32
582.33	48223.52
582.53	48100.64
582.73	48350.49
582.92	48291.10
583.12	48039.20
583.32	48389.41
583.52	48366.88
583.72	48649.50
583.92	48510.24
584.12	48698.65
584.32	49239.31
584.52	48350.49
584.72	48420.13
584.92	48606.49
585.11	49030.42
585.31	48758.04
585.51	48889.11
585.71	48622.87
585.91	49087.76
586.11	48911.64
586.31	49245.46
586.51	48895.25
586.71	49143.06
586.91	49157.39
587.10	49200.40
587.30	49462.54
587.50	49212.69
587.70	49218.83
587.90	49433.87
588.10	49515.79
588.30	49315.09
588.50	49489.16
588.69	49579.28
588.89	49122.58
589.09	49540.36
589.29	49829.13
589.49	49722.63
589.69	49218.83
589.89	50341.12
590.08	49556.75
590.28	49702.15
590.48	49728.78
590.68	49841.42
590.88	49997.06
591.08	50087.17
591.28	50046.21
591.47	50423.04
591.67	50011.40
591.87	50162.95
592.07	49798.41
592.27	49749.26
592.47	50183.43
592.67	50091.27
592.86	50359.55
593.06	50226.43
593.26	50566.40
593.46	49671.43
593.66	50418.94
593.86	49812.74
594.05	50310.40
594.25	50337.02
594.45	49802.50
594.65	50431.23
594.85	49771.78
595.05	50681.08
595.24	50902.26
595.44	50558.20
595.64	50369.79
595.84	51086.58
596.04	50631.93
596.23	51158.26
596.43	50785.53
596.63	50502.91
596.83	50795.77
597.03	50896.12
597.22	51041.53
597.42	50773.24
597.62	51670.25
597.82	51107.06
598.02	51180.79
598.21	51559.66
598.41	51365.10
598.61	51152.12
598.81	51338.48
599.01	51676.40
599.20	51315.95
599.40	51119.35
599.60	51483.89
599.80	51287.28
600.00	51455.21
600.19	51655.92
600.39	51291.38
600.59	51844.33
600.79	51631.34
600.98	51639.53
601.18	51549.42
601.38	51901.67
601.58	52024.55
601.78	52026.60
601.97	51717.35
602.17	52460.77
602.37	52557.02
602.57	52200.68
602.76	52438.24
602.96	51696.88
603.16	52368.61
603.36	52098.28
603.55	52159.72
603.75	51909.86
603.95	52278.50
604.15	52647.13
604.34	51995.88
604.54	52290.79
604.74	52380.90
604.94	52823.26
605.13	53253.33
605.33	52622.56
605.53	52446.43
605.73	52960.47
605.92	52266.21
606.12	52774.11
606.32	53171.41
606.52	52501.73
606.71	52798.68
606.91	52823.26
607.11	52307.17
607.30	52823.26
607.50	52806.87
607.70	53329.11
607.90	53269.72
608.09	53134.55
608.29	52956.38
608.49	53593.29
608.68	53136.60
608.88	53245.14
609.08	53015.77
609.28	53066.97
609.47	53107.93
609.67	53925.07
609.87	53228.76
610.06	53599.44
610.26	53359.83
610.46	53515.47
610.66	53388.50
610.85	53497.04
611.05	53609.68
611.25	53619.92
611.44	53277.91
611.64	53464.27
611.84	53507.28
612.03	53533.90
612.23	53429.46
612.43	53533.90
612.62	53478.61
612.82	54219.97
613.02	53327.06
613.21	54162.63
613.41	53591.25
613.61	53918.92
613.80	53417.17
614.00	53791.95
614.20	54000.84
614.39	53826.76
614.59	53716.17
614.79	53845.19
614.98	53619.92
615.18	53955.78
615.38	53828.81
615.57	53695.69
615.77	54260.93
615.97	53966.02
616.16	53652.69
616.36	53687.50
616.56	54162.63
616.75	53667.02
616.95	53605.58
617.15	53705.93
617.34	53785.80
617.54	53515.47
617.74	54209.73
617.93	53542.10
618.13	53763.28
618.32	54125.77
618.52	53755.08
618.72	54238.40
618.91	54117.57
619.11	53769.42
619.31	54158.53
619.50	54170.82
619.70	53540.05
619.90	53941.45
620.09	53515.47
620.29	53771.47
620.48	54088.90
620.68	54250.69
620.88	53699.79
621.07	53460.18
621.27	54084.81
621.46	53900.49
621.66	53992.65
621.86	53867.72
622.05	53974.22
622.25	54111.43
622.44	53810.38
622.64	53648.59
622.84	53982.41
623.03	53916.87
623.23	54045.90
623.42	53933.26
623.62	53841.10
623.82	54574.27
624.01	54346.95
624.21	53796.04
624.40	53480.66
624.60	53576.91
624.80	53578.96
624.99	54123.72
625.19	53974.22
625.38	54035.66
625.58	54254.79
625.77	53703.88
625.97	54023.37
626.17	53466.32
626.36	53918.92
626.56	54604.99
626.75	53480.66
626.95	54555.84
627.14	54031.56
627.34	54389.95
627.54	53839.05
627.73	54004.94
627.93	54025.42
628.12	54174.92
628.32	54238.40
628.51	54195.40
628.71	54422.72
628.90	54283.46
629.10	53941.45
629.30	54205.64
629.49	53972.17
629.69	54166.73
629.88	54502.59
630.08	54719.68
630.27	54555.84
630.47	54840.51
630.66	54445.25
630.86	55010.49
631.05	54641.85
631.25	54564.03
631.44	54547.65
631.64	54322.37
631.84	54527.17
632.03	54924.47
632.23	54449.35
632.42	55276.72
632.62	54678.72
632.81	54170.82
633.01	54869.18
633.20	54682.81
633.40	54537.41
633.59	54637.76
633.79	54392.00
633.98	54768.83
634.18	54871.23
634.37	54932.67
634.57	54959.29
634.76	55190.71
634.96	54817.98
635.15	55383.22
635.35	54768.83
635.54	55182.52
635.74	55049.40
635.93	54650.05
636.13	55129.27
636.32	55383.22
636.52	54750.40
636.71	54648.00
636.91	55252.15
637.10	55344.31
637.30	55246.00
637.49	55526.58
637.69	55436.47
637.88	55694.51
638.08	55020.73
638.27	55620.78
638.46	54975.67
638.66	55080.12
638.85	55211.19
639.05	55434.42
639.24	55600.30
639.44	55252.15
639.63	55329.97
639.83	55850.16
640.02	55530.67
640.22	55254.20
640.41	56075.43
640.61	55280.82
640.80	55375.03
640.99	55428.27
641.19	56212.65
641.38	55293.11
641.58	55604.40
641.77	55780.52
641.97	55776.43
642.16	55882.92
642.36	56013.99
642.55	56390.82
642.74	56085.67
642.94	56206.50
643.13	55590.06
643.33	56446.11
643.52	56054.95
643.72	55884.97
643.91	55927.98
644.10	56446.11
644.30	56013.99
644.49	55932.07
644.69	56214.69
644.88	55893.16
645.08	55831.72
645.27	56317.09
645.46	55940.27
645.66	56261.80
645.85	56597.66
646.05	56630.43
646.24	56005.80
646.43	56335.52
646.63	56556.70
646.82	56474.79
647.02	56290.47
647.21	56423.59
647.40	56261.80
647.60	57212.06
647.79	56579.23
647.99	57042.07
648.18	56370.34
648.37	57111.70
648.57	56865.95
648.76	56585.38
648.96	56612.00
649.15	56773.79
649.34	57121.94
649.54	57101.46
649.73	56538.27
649.92	56878.24
650.12	57054.36
650.31	57103.51
650.51	56628.38
650.70	57341.08
650.89	56706.21
651.09	57253.01
651.28	57533.59
651.47	57246.87
651.67	56902.81
651.86	57214.10
652.06	56765.60
652.25	57310.36
652.44	57031.83
652.64	57013.40
652.83	57410.71
653.02	56904.86
653.22	57169.05
653.41	57148.57
653.60	56743.07
653.80	57111.70
653.99	57023.64
654.18	57154.71
654.38	56915.10
654.57	57554.07
654.76	57345.17
654.96	57119.90
655.15	56954.01
655.34	56802.46
655.54	57113.75
655.73	57441.43
655.92	57412.76
656.12	57046.17
656.31	57404.56
656.50	57455.76
656.70	57291.93
656.89	56997.02
657.08	57132.18
657.28	57678.99
657.47	57068.70
657.66	57349.27
657.86	57435.28
658.05	57511.06
658.24	57306.26
658.43	56853.66
658.63	57904.27
658.82	57459.86
659.01	57885.84
659.21	57834.64
659.40	57670.80
659.59	57439.38
659.79	57527.44
659.98	57504.91
660.17	57611.41
660.36	57959.56
660.56	57369.75
660.75	57386.13
660.94	57793.68
661.14	58033.29
661.33	57633.94
661.52	56876.19
661.71	57939.08
661.91	57250.97
662.10	57783.44
662.29	57695.38
662.49	57420.95
662.68	57777.29
662.87	57463.96
663.06	57554.07
663.26	57816.21
663.45	57746.57
663.64	57961.61
663.83	58113.16
664.03	57871.50
664.22	57388.18
664.41	58088.59
664.60	57609.36
664.80	57750.67
664.99	57343.12
665.18	57468.05
665.37	57554.07
665.57	57543.83
665.76	57496.72
665.95	57549.97
666.14	57449.62
666.34	57480.34
666.53	57230.49
666.72	57230.49
666.91	57242.77
667.11	57365.65
667.30	57275.54
667.49	57441.43
667.68	57101.46
667.87	56966.30
668.07	57513.11
668.26	57386.13
668.45	57439.38
668.64	57187.48
668.84	57664.66
669.03	57650.32
669.22	57214.10
669.41	57265.30
669.60	57564.31
669.80	57607.31
669.99	57687.18
670.18	57134.23
670.37	57054.36
670.57	57472.15
670.76	57179.29
670.95	57947.28
671.14	57267.35
671.33	57238.68
671.53	57498.77
671.72	57373.84
671.91	57439.38
672.10	57193.62
672.29	56919.20
672.48	56861.85
672.68	57599.12
672.87	57087.13
673.06	56745.12
673.25	56890.52
673.44	56919.20
673.64	57009.31
673.83	56966.30
674.02	56947.87
674.21	56972.44
674.40	57556.11
674.59	56925.34
674.79	56841.37
674.98	56687.78
675.17	57502.87
675.36	56689.82
675.55	57091.22
675.74	56546.47
675.94	56829.08
676.13	56835.23
676.32	56632.48
676.51	57130.14
676.70	56833.18
676.89	56722.59
677.08	57181.34
677.28	56624.29
677.47	57017.50
677.66	57085.08
677.85	56732.83
678.04	56794.27
678.23	56597.66
678.42	56652.96
678.62	56325.28
678.81	56513.70
679.00	56503.46
679.19	56960.15
679.38	56796.32
679.57	56431.78
679.76	56607.90
679.96	56679.58
680.15	56349.86
680.34	56480.93
680.53	56652.96
680.72	56403.11
680.91	56736.93
681.10	56491.17
681.29	56448.16
681.48	56226.98
681.68	55936.17
681.87	56106.15
682.06	56480.93
682.25	55755.95
682.44	55835.82
682.63	56026.28
682.82	55835.82
683.01	55747.76
683.20	55774.38
683.39	56005.80
683.59	55663.79
683.78	55499.95
683.97	55610.54
684.16	55925.93
684.35	55164.09
684.54	55882.92
684.73	55772.33
684.92	55608.50
685.11	55956.65
685.30	55655.60
685.49	55801.00
685.69	55616.69
685.88	55559.34
686.07	55243.96
686.26	55286.96
686.45	55248.05
686.64	55444.66
686.83	55475.38
687.02	55692.46
687.21	55524.53
687.40	55604.40
687.59	55282.87
687.78	55313.59
687.97	55612.59
688.16	55297.20
688.35	54932.67
688.54	55370.93
688.74	55141.56
688.93	54609.09
689.12	54942.91
689.31	54973.63
689.50	55153.85
689.69	54734.01
689.88	54547.65
690.07	55133.37
690.26	54959.29
690.45	55063.74
690.64	54750.40
690.83	54848.70
691.02	54670.53
691.21	54604.99
691.40	54498.50
691.59	54756.54
691.78	54301.89
691.97	54621.37
692.16	54478.02
692.35	54850.75
692.54	54602.94
692.73	54600.89
692.92	54478.02
693.11	54609.09
693.30	53861.58
693.49	54105.29
693.68	54201.54
693.87	54348.99
694.06	54099.14
694.25	54523.07
694.44	54084.81
694.63	54473.92
694.82	54150.34
695.01	53845.19
695.20	54113.48
695.39	53462.22
695.58	53941.45
695.77	53667.02
695.96	53857.48
696.15	53892.30
696.34	53896.39
696.53	53775.56
696.72	53873.87
696.91	53531.86
697.10	53507.28
697.29	53718.22
697.48	53736.65
697.67	53624.01
697.86	53431.50
698.05	53239.00
698.24	53671.12
698.43	53140.69
698.62	53529.81
698.81	53187.80
699.00	53552.33
699.19	53249.24
699.38	53593.29
699.57	53056.73
699.76	53576.91
699.95	53124.31
700.14	53007.58
700.32	53003.48
700.51	53089.49
700.70	52995.29
700.89	53228.76
701.08	53390.55
701.27	52827.35
701.46	53533.90
701.65	52696.28
701.84	53505.23
702.03	52868.31
702.22	52587.74
702.41	52567.26
702.60	52548.83
702.79	52894.94
702.98	52241.63
703.17	52665.56
703.35	52624.60
703.54	52501.73
703.73	52788.44
703.92	52503.77
704.11	52659.42
704.30	52223.20
704.49	52395.23
704.68	52133.09
704.87	52190.44
705.06	51967.21
705.25	51770.60
705.43	52368.61
705.62	52325.60
705.81	52018.41
706.00	52118.76
706.19	52092.13
706.38	51924.20
706.57	52196.58
706.76	51969.26
706.95	52092.13
707.14	51741.93
707.32	51905.77
707.51	51858.66
707.70	51764.46
707.89	52284.64
708.08	51674.35
708.27	51995.88
708.46	52294.88
708.65	52040.93
708.84	51944.68
709.02	52088.04
709.21	51514.61
709.40	51434.74
709.59	51574.00
709.78	51774.70
709.97	51840.23
710.16	51598.57
710.34	51973.35
710.53	51647.72
710.72	51404.02
710.91	51680.49
711.10	51516.65
711.29	51672.30
711.48	51338.48
711.66	51279.09
711.85	51041.53
712.04	51111.16
712.23	50873.59
712.42	51107.06
712.61	51141.88
712.80	50898.17
712.98	51371.25
713.17	51019.00
713.36	51356.91
713.55	50930.93
713.74	50959.61
713.93	50701.56
714.11	51229.94
714.30	50814.20
714.49	51000.57
714.68	50713.85
714.87	51188.98
715.06	51148.02
715.24	50437.37
715.43	50601.21
715.62	50859.26
715.81	50386.18
716.00	51031.29
716.18	50619.64
716.37	50521.34
716.56	50464.00
716.75	50822.39
716.94	50439.42
717.12	50347.26
717.31	50973.94
717.50	50085.12
717.69	50220.29
717.88	50478.33
718.06	50300.16
718.25	50572.54
718.44	49849.61
718.63	50132.23
718.82	50132.23
719.00	50056.45
719.19	50099.46
719.38	50197.76
719.57	50050.31
719.76	49505.55
719.94	49485.07
720.13	49816.84
720.32	49730.83
720.51	49534.22
720.69	50056.45
720.88	49407.25
721.07	49255.70
721.26	49450.25
721.44	49698.06
721.63	49317.14
721.82	49034.52
722.01	48876.82
722.20	49321.23
722.38	49108.24
722.57	49171.73
722.76	48960.79
722.95	49192.21
723.13	49098.00
723.32	48995.60
723.51	48444.70
723.70	48747.80
723.88	48862.49
724.07	48665.88
724.26	48913.69
724.44	48229.66
724.63	48950.55
724.82	48602.39
725.01	48600.35
725.19	48708.89
725.38	48633.11
725.57	48655.64
725.76	48610.59
725.94	48174.37
726.13	48223.52
726.32	48502.04
726.51	48178.46
726.69	48497.95
726.88	48418.08
727.07	48672.03
727.25	48715.03
727.44	48649.50
727.63	48313.63
727.82	48475.42
728.00	48446.75
728.19	48551.20
728.38	48903.45
728.56	48301.34
728.75	48373.02
728.94	48196.90
729.12	48602.39
729.31	48252.19
729.50	48225.57
729.69	48592.15
729.87	48024.87
730.06	48196.90
730.25	48731.42
730.43	48416.03
730.62	48403.74
730.81	48575.77
730.99	48737.56
731.18	48110.88
731.37	48239.90
731.55	48481.56
731.74	48733.46
731.93	48360.73
732.11	48430.36
732.30	48690.46
732.49	47875.37
732.67	48487.71
732.86	48174.37
733.05	48508.19
733.23	48207.14
733.42	48538.91
733.61	48196.90
733.79	48569.63
733.98	48678.17
734.17	48487.71
734.35	48526.62
734.54	48692.50
734.73	48796.95
734.91	48217.38
735.10	47897.89
735.29	48309.53
735.47	47791.40
735.66	48280.86
735.84	48268.58
736.03	47926.56
736.22	48088.35
736.40	47815.97
736.59	48151.84
736.78	47981.86
736.96	48002.34
737.15	48211.23
737.33	48002.34
737.52	48127.27
737.71	47441.20
737.89	47779.11
738.08	47697.19
738.27	47822.12
738.45	47904.04
738.64	48309.53
738.82	47680.81
739.01	48053.54
739.20	47813.93
739.38	47772.97
739.57	48207.14
739.75	47949.09
739.94	47562.03
740.13	47977.76
740.31	47901.99
740.50	47676.71
740.68	48006.44
740.87	48127.27
741.06	48082.21
741.24	47875.37
741.43	47613.23
741.61	47842.60
741.80	47490.35
741.99	47514.92
742.17	47488.30
742.36	47430.96
742.54	47306.03
742.73	47465.77
742.91	47811.88
743.10	47637.80
743.29	47465.77
743.47	47770.92
743.66	47506.73
743.84	47426.86
744.03	47422.76
744.21	47263.02
744.40	47514.92
744.59	47109.43
744.77	47037.75
744.96	47224.11
745.14	47457.58
745.33	47318.32
745.51	46961.97
745.70	47381.80
745.88	47390.00
746.07	47136.05
746.26	46820.66
746.44	47039.79
746.63	46990.64
746.81	47387.95
747.00	47093.04
747.18	47273.26
747.37	47195.44
747.55	46624.06
747.74	47338.80
747.92	46810.42
748.11	47074.61
748.29	46855.48
748.48	46869.81
748.66	46751.03
748.85	47009.07
749.03	46642.49
749.22	46925.11
749.41	46689.59
749.59	46824.76
749.78	46734.65
749.96	46562.62
750.15	46650.68
750.33	46826.81
750.52	46847.29
750.70	46511.42
750.89	46384.44
751.07	46404.92
751.26	46171.46
751.44	45987.14
751.63	46495.03
751.81	46280.00
752.00	46443.84
752.18	46435.64
752.37	46011.71
752.55	45915.46
752.74	46019.91
752.92	46300.48
753.10	45753.67
753.29	46325.05
753.47	45921.60
753.66	45649.22
753.84	45927.75
754.03	45839.68
754.21	45681.99
754.40	46372.16
754.58	45933.89
754.77	45634.89
754.95	45497.67
755.14	45704.52
755.32	45548.87
755.51	45366.60
755.69	45100.37
755.88	45675.85
756.06	45749.57
756.24	45442.38
756.43	45141.33
756.61	45440.33
756.80	45274.45
756.98	44823.89
757.17	45356.36
757.35	45151.57
757.54	44895.57
757.72	45555.02
757.90	45153.62
758.09	45036.88
758.27	45137.23
758.46	44957.01
758.64	44942.67
758.83	45239.63
759.01	45221.20
759.19	44442.97
759.38	44604.76
759.56	45139.28
759.75	44799.32
759.93	44787.03
760.12	44694.87
760.30	44569.94
760.48	44531.03
760.67	44627.29
760.85	44916.05
761.04	44623.19
761.22	44856.66
761.40	44825.94
761.59	44502.36
761.77	44320.09
761.96	44406.11
762.14	44416.35
762.32	44109.15
762.51	44129.63
762.69	44158.30
762.88	44418.39
763.06	44156.25
763.24	44512.60
763.43	44244.32
763.61	44109.15
763.80	44143.97
763.98	44213.60
764.16	43896.16
764.35	43674.98
764.53	43502.95
764.72	43771.24
764.90	43777.38
765.08	43945.31
765.27	43578.73
765.45	43416.94
765.63	43076.97
765.82	43732.32
766.00	43468.14
766.18	43595.11
766.37	43521.38
766.55	43201.90
766.74	43515.24
766.92	43619.69
767.10	42831.22
767.29	43545.96
767.47	43081.07
767.65	43349.35
767.84	43193.71
768.02	43130.22
768.20	42771.83
768.39	43058.54
768.57	43318.64
768.75	42777.97
768.94	42882.42
769.12	42935.66
769.30	42689.91
769.49	42607.99
769.67	42851.70
769.85	42237.31
770.04	42466.68
770.22	42384.76
770.40	42141.05
770.59	41936.26
770.77	42243.45
770.95	42435.96
771.14	41788.80
771.32	42061.18
771.50	42050.94
771.69	41860.48
771.87	42067.33
772.05	41817.47
772.24	41719.17
772.42	41627.01
772.60	42005.89
772.78	41919.87
772.97	41502.09
773.15	41840.00
773.33	41727.36
773.52	41418.12
773.70	41512.33
773.88	41870.72
774.07	41620.87
774.25	41641.35
774.43	41561.48
774.61	41749.89
774.80	41762.18
774.98	41584.01
775.16	41792.90
775.34	41667.97
775.53	41409.93
775.71	41936.26
775.89	41541.00
776.08	41561.48
776.26	41807.23
776.44	41946.50
776.62	41846.15
776.81	41541.00
776.99	41852.29
777.17	41803.14
777.35	41825.67
777.54	41614.72
777.72	41522.57
777.90	41633.16
778.08	41909.63
778.27	41950.59
778.45	42263.93
778.63	42194.30
778.81	41473.42
779.00	42308.99
779.18	41966.98
779.36	41989.50
779.54	41889.15
779.73	41764.23
779.91	42206.59
780.09	42161.53
780.27	42130.81
780.46	42149.24
780.64	42438.01
780.82	42317.18
781.00	41901.44
781.19	42345.85
781.37	42607.99
781.55	42769.78
781.73	42392.95
781.91	42065.28
782.10	42153.34
782.28	42231.16
782.46	42626.42
782.64	42321.27
782.82	42052.99
783.01	42280.31
783.19	42521.98
783.37	42190.20
783.55	41944.45
783.74	42372.47
783.92	42204.54
784.10	42993.01
784.28	42558.84
784.46	42601.85
784.64	42208.64
784.83	41956.74
785.01	42587.51
785.19	42665.33
785.37	42435.96
785.55	42096.00
785.74	42048.89
785.92	42354.04
786.10	42026.37
786.28	42323.32
786.46	41954.69
786.64	41811.33
786.83	41844.10
787.01	42548.60
787.19	42171.77
787.37	41858.43
787.55	42030.46
787.74	41778.56
787.92	41831.81
788.10	41444.74
788.28	41305.48
788.46	41954.69
788.64	41080.21
788.82	41500.04
789.01	41108.88
789.19	41297.29
789.37	41391.50
789.55	41379.21
789.73	40781.20
789.91	40877.46
790.09	40826.26
790.28	40875.41
790.46	40512.92
790.64	41274.76
790.82	40828.30
791.00	40703.38
791.18	40455.57
791.36	40084.89
791.55	40471.96
791.73	40422.81
791.91	39554.47
792.09	40312.22
792.27	40154.52
792.45	40351.13
792.63	39755.17
792.81	39890.34
793.00	40150.43
793.18	39628.20
793.36	39581.09
793.54	39204.27
793.72	39632.29
793.90	39062.96
794.08	39046.57
794.26	39175.59
794.44	38632.88
794.62	38917.55
794.81	39185.83
794.99	39230.89
795.17	38417.85
795.35	38426.04
795.53	39120.30
795.71	38735.28
795.89	38657.46
796.07	38319.54
796.25	38032.83
796.43	38196.67
796.61	38139.32
796.80	37967.29
796.98	38098.36
797.16	37254.60
797.34	37645.76
797.52	37522.88
797.70	37899.71
797.88	37387.72
798.06	37357.00
798.24	37213.64
798.42	37258.70
798.60	37174.73
798.78	37205.45
798.96	37017.04
799.14	36642.26
799.32	37008.84
799.51	36613.59
799.69	36953.55
799.87	36644.30
800.05	36445.65
800.23	36470.23
800.41	36439.51
800.59	36314.58
800.77	36310.49
800.95	35593.70
801.13	36203.99
801.31	35796.45
801.49	35997.15
801.67	35804.64
801.85	35679.71
802.03	35358.18
802.21	35388.90
802.39	35186.15
802.57	35423.72
802.75	35249.64
802.93	35309.03
803.11	34993.64
803.29	35149.29
803.47	35050.99
803.65	34917.87
803.83	34921.96
804.01	34950.63
804.19	34637.30
804.37	34371.06
804.55	34479.60
804.73	34334.20
804.91	34225.65
805.09	34274.80
805.27	34215.41
805.45	34076.15
805.63	34303.48
805.81	34395.64
805.99	34084.34
806.17	34252.28
806.35	34215.41
806.53	33689.09
806.71	33680.89
806.89	33766.91
807.07	33519.10
807.25	33809.92
807.43	33484.29
807.61	33359.36
807.79	33226.24
807.97	32976.39
808.15	32869.90
808.33	33035.78
808.51	33152.52
808.69	33136.13
808.87	32706.06
809.05	32599.57
809.23	32603.66
809.41	32443.92
809.59	32685.58
809.77	32353.81
809.95	32159.25
810.13	32593.42
810.31	32222.74
810.49	32089.62
810.67	32022.04
810.84	32216.60
811.02	32083.48
811.20	31493.66
811.38	32144.92
811.56	31860.25
811.74	31804.95
811.92	31788.57
812.10	31764.00
812.28	31594.01
812.46	31868.44
812.64	31585.82
812.82	31417.89
813.00	31309.35
813.18	31168.04
813.36	31315.49
813.53	30893.61
813.71	30776.87
813.89	30715.44
814.07	31036.97
814.25	30791.21
814.43	30621.23
814.61	30690.86
814.79	30907.94
814.97	30559.79
815.15	30924.33
815.33	30451.25
815.50	30262.83
815.68	30334.51
815.86	30176.82
816.04	30055.99
816.22	30025.27
816.40	30260.79
816.58	29961.78
816.76	29830.71
816.94	29883.96
817.11	30017.08
817.29	29941.30
817.47	29447.74
817.65	29343.30
817.83	29462.08
818.01	29537.85
818.19	29500.99
818.37	29443.65
818.54	29130.31
818.72	29136.45
818.90	29384.26
819.08	29161.03
819.26	29193.79
819.44	29111.88
819.62	29093.44
819.80	28984.90
819.97	29204.03
820.15	29017.67
820.33	28888.65
820.51	29052.48
820.69	28935.75
820.87	29095.49
821.05	29054.53
821.22	28913.22
821.40	28730.95
821.58	28454.48
821.76	28544.59
821.94	28618.32
822.12	28601.93
822.29	28567.12
822.47	28378.70
822.65	28780.10
822.83	28718.67
823.01	28212.82
823.19	28356.18
823.36	27887.19
823.54	28083.80
823.72	27958.87
823.90	28077.65
824.08	27899.48
824.25	28036.69
824.43	27838.04
824.61	28028.50
824.79	27936.34
824.97	27514.46
825.15	27758.17
825.32	27727.45
825.50	27434.59
825.68	27532.89
825.86	27569.76
826.04	27842.14
826.21	27293.28
826.39	27553.37
826.57	27336.29
826.75	27543.13
826.93	27088.48
827.10	27252.32
827.28	27420.25
827.46	27311.71
827.64	27522.65
827.81	27129.44
827.99	27186.79
828.17	27108.96
828.35	26920.55
828.53	26998.37
828.70	26678.89
828.88	26971.75
829.06	26938.98
829.24	26949.22
829.41	26984.04
829.59	26789.48
829.77	26494.57
829.95	26799.72
830.12	26791.53
830.30	26381.93
830.48	26572.39
830.66	26297.97
830.84	26697.32
831.01	26633.83
831.19	26631.79
831.37	26117.75
831.55	26322.54
831.72	26218.10
831.90	26343.02
832.08	26248.82
832.25	26289.77
832.43	26132.08
832.61	25898.61
832.79	25900.66
832.96	25955.96
833.14	26005.11
833.32	26142.32
833.50	26252.91
833.67	26011.25
833.85	25857.65
834.03	25806.45
834.20	26066.55
834.38	25968.24
834.56	25568.89
834.74	25728.63
834.91	25669.24
835.09	25554.55
835.27	25808.50
835.44	25656.95
835.62	25237.12
835.80	25194.11
835.98	25749.11
836.15	25456.25
836.33	25163.39
836.51	25435.77
836.68	25134.72
836.86	25079.43
837.04	25226.88
837.21	25067.14
837.39	25124.48
837.57	25415.29
837.75	25357.95
837.92	24796.81
838.10	24940.16
838.28	24866.44
838.45	24696.46
838.63	25114.24
838.81	25011.84
838.98	24927.88
839.16	24827.53
839.34	24882.82
839.51	24620.68
839.69	24516.23
839.87	24387.21
840.04	24596.10
840.22	24415.88
840.40	24661.64
840.57	24391.31
840.75	24403.60
840.93	24262.29
841.10	24651.40
841.28	24489.61
841.46	24505.99
841.63	24440.46
841.81	24436.36
841.98	24323.72
842.16	24311.44
842.34	24147.60
842.51	23948.95
842.69	24104.59
842.87	24225.42
843.04	24221.33
843.22	23905.94
843.40	24323.72
843.57	24196.75
843.75	24147.60
843.92	23946.90
844.10	24002.19
844.28	23979.67
844.45	24204.94
844.63	23953.04
844.81	23778.97
844.98	23842.45
845.16	24026.77
845.33	23887.51
845.51	23907.99
845.69	23834.26
845.86	23625.37
846.04	23776.92
846.21	23660.18
846.39	23762.58
846.57	23271.07
846.74	23574.17
846.92	23697.05
847.09	23244.45
847.27	23461.53
847.45	23330.46
847.62	23506.59
847.80	23486.11
847.97	23432.86
848.15	23367.32
848.32	23170.72
848.50	23170.72
848.68	23162.53
848.85	23162.53
849.03	22984.35
849.20	23244.45
849.38	23291.55
849.56	23047.84
849.73	22820.52
849.91	22949.54
850.08	23330.46
850.26	22935.20
850.43	22849.19
850.61	22879.91
850.78	22863.52
850.96	22900.39
851.14	22695.59
851.31	22963.87
851.49	22673.06
851.66	22816.42
851.84	22980.26
852.01	23002.78
852.19	22742.69
852.36	22785.70
852.54	22699.69
852.71	22259.37
852.89	22537.90
853.07	22795.94
853.24	22560.42
853.42	22642.34
853.59	22769.32
853.77	22513.32
853.94	22515.37
854.12	22490.79
854.29	22083.25
854.47	22329.00
854.64	22308.52
854.82	22306.48
854.99	22263.47
855.17	22177.45
855.34	22273.71
855.52	22240.94
855.69	22341.29
855.87	22351.53
856.04	22210.22
856.22	21823.16
856.39	21894.83
856.57	21937.84
856.74	21735.09
856.92	22068.91
857.09	21946.03
857.27	21687.99
857.44	22212.27
857.62	21956.27
857.79	21958.32
857.97	21878.45
858.14	21937.84
858.32	22019.76
858.49	22132.40
858.67	22202.03
858.84	21679.80
859.02	21687.99
859.19	21655.22
859.37	21857.97
859.54	21431.99
859.72	21579.45
859.89	21657.27
860.06	21733.04
860.24	21411.51
860.41	21651.13
860.59	21186.24
860.76	21395.13
860.94	21501.62
861.11	21262.01
861.29	21518.01
861.46	21161.66
861.64	21042.88
861.81	21157.57
861.98	21044.93
862.16	21186.24
862.33	21210.81
862.51	21120.70
862.68	21042.88
862.86	21026.50
863.03	20858.56
863.21	20940.48
863.38	21198.52
863.55	20967.10
863.73	20838.08
863.90	21108.41
864.08	21030.59
864.25	20719.30
864.43	20891.33
864.60	20799.17
864.77	20584.13
864.95	20944.58
865.12	20401.86
865.30	20807.36
865.47	20465.35
865.64	20664.00
865.82	20686.53
865.99	20772.55
866.17	20377.29
866.34	20758.21
866.51	20338.38
866.69	20577.99
866.86	20672.20
867.04	20471.50
867.21	20416.20
867.38	20317.90
867.56	20168.40
867.73	20365.00
867.91	20317.90
868.08	20086.48
868.25	19793.62
868.43	20090.57
868.60	19812.05
868.78	19861.20
868.95	20360.91
869.12	20209.36
869.30	19996.37
869.47	20160.20
869.64	19908.30
869.82	19871.44
869.99	19963.60
870.16	19752.66
870.34	19928.78
870.51	19908.30
870.69	19467.99
870.86	19623.64
871.03	19748.56
871.21	19785.43
871.38	19756.75
871.55	19799.76
871.73	19775.19
871.90	19613.40
872.07	19601.11
872.25	19414.74
872.42	19420.89
872.59	19525.33
872.77	19445.46
872.94	19316.44
873.11	19044.06
873.29	19357.40
873.46	19363.54
873.63	19238.62
873.81	19015.39
873.98	19093.21
874.15	19117.79
874.33	18906.85
874.50	19025.63
874.67	18808.54
874.85	18982.62
875.02	18837.22
875.19	18706.15
875.37	18831.07
875.54	18630.37
875.71	18847.46
875.88	18425.57
876.06	18693.86
876.23	18745.06
876.40	18570.98
876.58	18601.70
876.75	18564.84
876.92	18513.64
877.10	18542.31
877.27	18491.11
877.44	18429.67
877.61	18169.58
877.79	18460.39
877.96	18233.07
878.13	18034.41
878.31	18159.34
878.48	18179.82
878.65	17862.38
878.82	17794.80
879.00	18259.69
879.17	18009.84
879.34	17899.25
879.51	17987.31
879.69	17811.18
879.86	17778.42
880.03	18011.89
880.21	17884.91
880.38	17692.40
880.55	17880.82
880.72	17762.03
880.90	17772.27
881.07	17977.07
881.24	17633.01
881.41	17776.37
881.59	17759.98
881.76	17477.37
881.93	17821.42
882.10	17284.86
882.28	17555.19
882.45	17602.29
882.62	17374.97
882.79	17495.80
882.96	17202.94
883.14	17530.61
883.31	17565.43
883.48	17491.70
883.65	17366.78
883.83	17348.34
884.00	17282.81
884.17	17270.52
884.34	17557.24
884.51	17276.66
884.69	17100.54
884.86	17149.69
885.03	17112.83
885.20	17006.33
885.38	17157.88
885.55	17338.10
885.72	17270.52
885.89	16901.89
886.06	17065.72
886.24	17051.39
886.41	17020.67
886.58	17266.42
886.75	17096.44
886.92	16647.94
887.10	17084.16
887.27	16963.33
887.44	16905.98
887.61	16979.71
887.78	16971.52
887.95	16867.07
888.13	16910.08
888.30	16865.02
888.47	16948.99
888.64	16729.86
888.81	16563.97
888.99	16467.72
889.16	16471.81
889.33	16539.40
889.50	16500.48
889.67	16502.53
889.84	16389.89
890.01	16432.90
890.19	16406.28
890.36	16363.27
890.53	16508.68
890.70	16250.63
890.87	16299.78
891.04	16377.61
891.22	16439.05
891.39	16336.65
891.56	16303.88
891.73	16340.74
891.90	16144.14
892.07	16037.64
892.24	16131.85
892.42	15941.39
892.59	16342.79
892.76	15959.82
892.93	16117.51
893.10	16326.41
893.27	16224.01
893.44	15892.24
893.61	16006.92
893.79	16215.82
893.96	15992.59
894.13	16004.88
894.30	16033.55
894.47	15828.75
894.64	15957.77
894.81	15898.38
894.98	15853.33
895.15	16074.51
895.33	16105.23
895.50	15910.67
895.67	16080.65
895.84	15795.98
896.01	15867.66
896.18	15634.19
896.35	15992.59
896.52	15728.40
896.69	15601.43
896.86	15898.38
897.04	15779.60
897.21	15908.62
897.38	15892.24
897.55	15722.26
897.72	15935.24
897.89	15720.21
898.06	15857.42
898.23	15871.76
898.40	15822.61
898.57	15929.10
898.74	15709.97
898.91	15673.10
899.08	15992.59
899.26	15783.70
899.43	15877.90
899.60	15761.17
899.77	15736.59
899.94	15775.50
900.11	15591.19
900.28	15943.44
900.45	15752.98
900.62	15687.44
900.79	15853.33
900.96	15757.07
901.13	15978.25
901.30	15464.21
901.47	15564.56
901.64	15587.09
901.81	15812.37
901.98	15652.63
902.15	15736.59
902.32	15560.47
902.49	15802.13
902.66	15761.17
902.83	15877.90
903.01	15800.08
903.18	15925.00
903.35	15675.15
903.52	15599.38
903.69	15742.74
903.86	15677.20
904.03	15419.16
904.20	15826.70
904.37	15849.23
904.54	15478.55
904.71	15429.40
904.88	15718.16
905.05	15363.86
905.22	15728.40
905.39	15552.27
905.56	15480.60
905.73	15638.29
905.90	15582.99
906.07	15519.51
906.24	15458.07
906.41	15724.30
906.58	15652.63
906.75	15599.38
906.92	15400.72
907.09	15630.10
907.26	15509.27
907.43	15623.95
907.60	15552.27
907.77	15654.67
907.93	15535.89
908.10	15470.36
908.27	15673.10
908.44	15582.99
908.61	15544.08
908.78	15609.62
908.95	15664.91
909.12	15673.10
909.29	15294.23
909.46	15490.84
909.63	15642.39
909.80	15566.61
909.97	15496.98
910.14	15441.68
910.31	15341.33
910.48	15361.81
910.65	15267.61
910.82	15484.69
910.99	15298.33
911.16	15410.96
911.33	15443.73
911.50	15230.74
911.66	15185.69
911.83	15144.73
912.00	15275.80
912.17	15122.20
912.34	15189.78
912.51	15169.30
912.68	15138.58
912.85	15064.86
913.02	15058.71
913.19	14817.05
913.36	15142.68
913.53	15034.14
913.70	14798.62
913.86	15236.89
914.03	15140.63
914.20	15200.02
914.37	14886.68
914.54	14626.59
914.71	15005.47
914.88	14710.56
915.05	14845.73
915.22	14569.25
915.39	14847.77
915.55	14634.78
915.72	14528.29
915.89	14573.35
916.06	14657.31
916.23	14354.21
916.40	14432.04
916.57	14384.93
916.74	14274.34
916.91	14212.90
917.07	14231.33
917.24	14317.35
917.41	14071.59
917.58	14139.18
917.75	14262.05
917.92	14047.02
918.09	14110.50
918.26	14178.09
918.42	14173.99
918.59	14020.39
918.76	13911.85
918.93	13838.12
919.10	13655.86
919.27	13668.14
919.44	13815.60
919.60	13743.92
919.77	13739.82
919.94	13641.52
920.11	13518.64
920.28	13686.58
920.45	13512.50
920.61	13508.40
920.78	13256.50
920.95	13442.87
921.12	13373.24
921.29	13338.42
921.46	13264.69
921.62	13096.76
921.79	13037.37
921.96	13311.80
922.13	12986.17
922.30	12877.63
922.47	12859.20
922.63	12855.10
922.80	12941.11
922.97	12961.59
923.14	12685.12
923.31	12678.97
923.47	12758.85
923.64	12697.41
923.81	12650.30
923.98	12726.08
924.15	12517.18
924.32	12539.71
924.48	12490.56
924.65	12801.85
924.82	12296.00
924.99	12156.74
925.15	12185.41
925.32	12427.07
925.49	12187.46
925.66	12097.35
925.83	12160.84
925.99	12130.12
926.16	12003.14
926.33	11968.33
926.50	11761.48
926.67	12017.48
926.83	11972.43
927.00	11831.12
927.17	11867.98
927.34	11614.03
927.50	11702.09
927.67	11902.79
927.84	11638.61
928.01	11482.96
928.17	11186.01
928.34	11444.05
928.51	11384.66
928.68	11323.22
928.84	11349.84
929.01	11269.97
929.18	10956.63
929.35	11179.86
929.51	11321.17
929.68	11067.22
929.85	10872.67
930.02	10907.48
930.18	10850.14
930.35	10794.84
930.52	10803.04
930.69	10717.02
930.85	10641.25
931.02	10542.94
931.19	10571.61
931.36	10487.65
931.52	10483.55
931.69	10501.98
931.86	10399.59
932.02	10278.76
932.19	10270.56
932.36	10241.89
932.53	10198.88
932.69	10033.00
932.86	10178.40
933.03	10069.86
933.19	9883.50
933.36	9875.31
933.53	9838.44
933.70	9881.45
933.86	9916.26
934.03	9699.18
934.20	9672.56
934.36	9547.63
934.53	9510.77
934.70	9389.94
934.86	9570.16
935.03	9359.22
935.20	9273.20
935.36	9084.79
935.53	9121.65
935.70	9064.31
935.86	9013.11
936.03	8902.52
936.20	8628.09
936.36	8943.48
936.53	8630.14
936.70	8753.02
936.86	8675.20
937.03	8683.39
937.20	8314.75
937.36	8408.96
937.53	8202.11
937.70	8177.54
937.86	7907.21
938.03	7962.50
938.20	8144.77
938.36	7948.17
938.53	7874.44
938.70	7579.53
938.86	7671.69
939.03	7407.50
939.20	7514.00
939.36	7675.79
939.53	7350.16
939.70	7350.16
939.86	6991.77
940.03	6924.18
940.19	6911.89
940.36	6836.12
940.53	6952.85
940.69	6733.72
940.86	6729.63
941.03	6610.84
941.19	6633.37
941.36	6498.20
941.52	6520.73
941.69	6471.58
941.86	6178.72
942.02	6277.02
942.19	6186.91
942.35	6201.25
942.52	6076.32
942.69	6107.04
942.85	5918.63
943.02	5957.54
943.18	6115.23
943.35	5939.11
943.52	5828.52
943.68	5742.50
943.85	5613.48
944.01	5762.98
944.18	5640.11
944.35	5734.31
944.51	5523.37
944.68	5498.80
944.84	5541.80
945.01	5666.73
945.17	5527.47
945.34	5470.12
945.51	5566.38
945.67	5447.60
945.84	5517.23
946.00	5463.98
946.17	5539.76
946.33	5470.12
946.50	5547.95
946.67	5519.28
946.83	5400.49
947.00	5568.43
947.16	5402.54
947.33	5429.17
947.49	5261.23
947.66	5240.75
947.82	5369.77
947.99	5453.74
948.16	5257.14
948.32	5277.62
948.49	5531.56
948.65	5584.81
948.82	5427.12
948.98	5250.99
949.15	5302.19
949.31	5244.85
949.48	5388.21
949.64	5410.73
949.81	5373.87
949.97	5363.63
950.14	5361.58
950.30	5203.89
950.47	5369.77
950.63	5250.99
950.80	5406.64
950.96	5218.22
951.13	5457.84
951.30	5494.70
951.46	5543.85
951.63	5547.95
951.79	5406.64
951.96	5496.75
952.12	5494.70
952.29	5314.48
952.45	5447.60
952.62	5427.12
952.78	5533.61
952.94	5443.50
953.11	5445.55
953.27	5359.53
953.44	5443.50
953.60	5496.75
953.77	5562.28
953.93	5402.54
954.10	5423.02
954.26	5478.32
954.43	5410.73
954.59	5699.50
954.76	5603.24
954.92	5541.80
955.09	5386.16
955.25	5423.02
955.42	5506.99
955.58	5572.52
955.75	5484.46
955.91	5459.88
956.07	5560.24
956.24	5500.84
956.40	5636.01
956.57	5560.24
956.73	5474.22
956.90	5478.32
957.06	5435.31
957.23	5515.18
957.39	5302.19
957.56	5531.56
957.72	5273.52
957.88	5377.97
958.05	5556.14
958.21	5488.56
958.38	5541.80
958.54	5404.59
958.71	5539.76
958.87	5511.08
959.03	5525.42
959.20	5506.99
959.36	5425.07
959.53	5511.08
959.69	5423.02
959.85	5437.36
960.02	5529.52
960.18	5441.45
960.35	5326.77
960.51	5468.08
960.68	5418.93
960.84	5552.04
961.00	5289.90
961.17	5506.99
961.33	5459.88
961.50	5463.98
961.66	5457.84
961.82	5396.40
961.99	5504.94
962.15	5480.36
962.31	5334.96
962.48	5517.23
962.64	5414.83
962.81	5500.84
962.97	5431.21
963.13	5433.26
963.30	5476.27
963.46	5349.29
963.62	5341.10
963.79	5384.11
963.95	5441.45
964.12	5500.84
964.28	5529.52
964.44	5283.76
964.61	5365.68
964.77	5349.29
964.93	5500.84
965.10	5351.34
965.26	5263.28
965.42	5377.97
965.59	5298.10
965.75	5263.28
965.92	5332.91
966.08	5238.70
966.24	5402.54
966.41	5201.84
966.57	5257.14
966.73	5259.18
966.90	5267.38
967.06	5341.10
967.22	5255.09
967.39	5136.31
967.55	5128.11
967.71	5271.47
967.88	5273.52
968.04	5136.31
968.20	5179.31
968.37	5177.26
968.53	5081.01
968.69	5013.43
968.85	5357.49
969.02	5212.08
969.18	5115.83
969.34	5265.33
969.51	5156.79
969.67	5146.55
969.83	4966.32
970.00	5107.63
970.16	5171.12
970.32	5095.35
970.48	5128.11
970.65	5025.72
970.81	5105.59
970.97	5064.63
971.14	4968.37
971.30	5136.31
971.46	5017.52
971.63	4997.04
971.79	4988.85
971.95	4982.71
972.11	5048.24
972.28	5050.29
972.44	5078.96
972.60	4788.15
972.76	4929.46
972.93	4933.56
973.09	4925.36
973.25	4927.41
973.42	4894.65
973.58	4908.98
973.74	4968.37
973.90	4931.51
974.07	4751.29
974.23	4935.60
974.39	4687.80
974.55	4779.96
974.72	4814.77
974.88	4765.62
975.04	4804.53
975.20	4681.66
975.37	4792.25
975.53	4841.40
975.69	4698.04
975.85	4681.66
976.01	4681.66
976.18	4585.40
976.34	4763.58
976.50	4695.99
976.66	4851.64
976.83	4554.68
976.99	4777.91
977.15	4661.18
977.31	4548.54
977.47	4779.96
977.64	4632.51
977.80	4667.32
977.96	4630.46
978.12	4552.63
978.29	4534.20
978.45	4550.59
978.61	4489.15
978.77	4681.66
978.93	4513.72
979.10	4540.35
979.26	4628.41
979.42	4460.48
979.58	4317.12
979.74	4370.37
979.91	4575.16
980.07	4427.71
980.23	4440.00
980.39	4394.94
980.55	4358.08
980.71	4360.13
980.88	4259.78
981.04	4380.61
981.20	4272.06
981.36	4417.47
981.52	4272.06
981.68	4165.57
981.85	4284.35
982.01	4304.83
982.17	4265.92
982.33	4239.30
982.49	4542.39
982.65	4356.03
982.82	4296.64
982.98	4341.69
983.14	4243.39
983.30	4257.73
983.46	4304.83
983.62	4265.92
983.79	4214.72
983.95	4175.81
984.11	4114.37
984.27	4104.13
984.43	4163.52
984.59	4251.58
984.75	4220.86
984.91	4173.76
985.08	4165.57
985.24	4079.55
985.40	4077.51
985.56	4057.03
985.72	4057.03
985.88	4169.66
986.04	4018.11
986.20	3977.16
986.37	3964.87
986.53	3991.49
986.69	3979.20
986.85	3997.64
987.01	4001.73
987.17	3973.06
987.33	3848.13
987.49	3891.14
987.65	3975.11
987.82	4034.50
987.98	3899.33
988.14	3964.87
988.30	3893.19
988.46	3854.28
988.62	3762.12
988.78	3780.55
988.94	3948.48
989.10	3770.31
989.26	3739.59
989.42	3817.41
989.59	3624.90
989.75	3721.16
989.91	3854.28
990.07	3715.02
990.23	3739.59
990.39	3712.97
990.55	3833.80
990.71	3733.45
990.87	3786.69
991.03	3848.13
991.19	3719.11
991.35	3774.41
991.51	3848.13
991.67	3794.89
991.83	3733.45
992.00	3735.50
992.16	3710.92
992.32	3792.84
992.48	3694.54
992.64	3573.71
992.80	3600.33
992.96	3624.90
993.12	3753.93
993.28	3721.16
993.44	3610.57
993.60	3649.48
993.76	3651.53
993.92	3653.58
994.08	3602.38
994.24	3504.07
994.40	3616.71
994.56	3600.33
994.72	3446.73
994.88	3481.55
995.04	3434.44
995.20	3407.82
995.36	3399.63
995.52	3565.51
995.68	3399.63
995.84	3485.64
996.00	3620.81
996.16	3530.70
996.32	3393.48
996.48	3456.97
996.64	3602.38
996.80	3510.22
996.96	3471.31
997.12	3456.97
997.28	3325.90
997.44	3368.91
997.60	3368.91
997.76	3305.42
997.92	3413.96
998.08	3368.91
998.24	3403.72
998.40	3405.77
998.56	3399.63
998.72	3231.69
998.88	3313.61
999.04	3241.93
999.20	3395.53
999.36	3282.89
999.52	3377.10
999.68	3143.63
999.84	3317.71
1000.00	3342.28
1000.16	3327.95
1000.32	3200.98
1000.48	3319.76
1000.64	3194.83
1000.80	3117.01
1000.95	3141.58
1001.11	3303.37
1001.27	3053.52
1001.43	3221.45
1001.59	3170.26
1001.75	3117.01
1001.91	3176.40
1002.07	3147.73
1002.23	2979.79
1002.39	3166.16
1002.55	3117.01
1002.71	3139.54
1002.87	3112.91
1003.03	3080.14
1003.19	3043.28
1003.34	3139.54
1003.50	3074.00
1003.66	3112.91
1003.82	3059.67
1003.98	3037.14
1004.14	2965.46
1004.30	3067.86
1004.46	3020.75
1004.62	2953.17
1004.78	2990.03
1004.94	2996.18
1005.09	3010.51
1005.25	3004.37
1005.41	2891.73
1005.57	2961.36
1005.73	2951.12
1005.89	2934.74
1006.05	2930.64
1006.21	2963.41
1006.37	2891.73
1006.52	2793.43
1006.68	2869.20
1006.84	2981.84
1007.00	2904.02
1007.16	2813.91
1007.32	2861.01
1007.48	2883.54
1007.64	2824.15
1007.79	2858.96
1007.95	2703.32
1008.11	2861.01
1008.27	2768.85
1008.43	2734.04
1008.59	2850.77
1008.75	2805.72
1008.91	2940.88
1009.06	2715.61
1009.22	2936.79
1009.38	2854.87
1009.54	2748.37
1009.70	2822.10
1009.86	2768.85
1010.01	2838.48
1010.17	2840.53
1010.33	2795.48
1010.49	2699.22
1010.65	2844.63
1010.81	2662.36
1010.96	2760.66
1011.12	2658.26
1011.28	2723.80
1011.44	2789.33
1011.60	2615.26
1011.76	2764.76
1011.91	2736.09
1012.07	2643.93
1012.23	2574.30
1012.39	2600.92
1012.55	2629.59
1012.71	2645.98
1012.86	2648.02
1013.02	2596.82
1013.18	2641.88
1013.34	2713.56
1013.50	2662.36
1013.65	2633.69
1013.81	2529.24
1013.97	2527.19
1014.13	2525.15
1014.29	2584.54
1014.44	2590.68
1014.60	2627.54
1014.76	2514.91
1014.92	2531.29
1015.07	2568.15
1015.23	2580.44
1015.39	2494.43
1015.55	2426.84
1015.71	2592.73
1015.86	2455.51
1016.02	2396.12
1016.18	2396.12
1016.34	2478.04
1016.49	2523.10
1016.65	2584.54
1016.81	2426.84
1016.97	2379.74
1017.12	2564.06
1017.28	2459.61
1017.44	2449.37
1017.60	2338.78
1017.75	2334.68
1017.91	2412.51
1018.07	2392.03
1018.23	2404.32
1018.38	2320.35
1018.54	2424.80
1018.70	2418.65
1018.86	2396.12
1019.01	2402.27
1019.17	2387.93
1019.33	2482.14
1019.49	2432.99
1019.64	2465.75
1019.80	2416.60
1019.96	2451.42
1020.12	2404.32
1020.27	2334.68
1020.43	2377.69
1020.59	2404.32
1020.74	2361.31
1020.90	2338.78
1021.06	2275.29
1021.22	2353.12
1021.37	2326.49
1021.53	2379.74
1021.69	2338.78
1021.84	2193.37
1022.00	2365.40
1022.16	2340.83
1022.31	2271.20
1022.47	2349.02
1022.63	2330.59
1022.79	2133.98
1022.94	2273.25
1023.10	2303.96
1023.26	2244.57
1023.41	2330.59
1023.57	2179.04
1023.73	2265.05
1023.88	2265.05
1024.04	2170.85
1024.20	2238.43
1024.35	2326.49
1024.51	2205.66
1024.67	2211.81
1024.82	2351.07
1024.98	2215.90
1025.14	2263.01
1025.29	2162.66
1025.45	2228.19
1025.61	2226.14
1025.76	2158.56
1025.92	2095.07
1026.08	2254.81
1026.23	2197.47
1026.39	2346.97
1026.55	2144.22
1026.70	2160.61
1026.86	2129.89
1027.02	2222.05
1027.17	2217.95
1027.33	2207.71
1027.48	2166.75
1027.64	2131.94
1027.80	2000.87
1027.95	2267.10
1028.11	2047.97
1028.27	2193.37
1028.42	2158.56
1028.58	2148.32
1028.73	2050.02
1028.89	1996.77
1029.05	2156.51
1029.20	2099.17
>>>>>End Processed Spectral Data<<<<<
