SpectraSuite Data File
++++++++++++++++++++++++++++++++++++
Date: Fri Jun 02 14:57:18 CEST 2017
User: INFO_000
Dark Spectrum Present: No
Reference Spectrum Present: No
Number of Sampled Component Spectra: 1
Spectrometers: USB4H00879
Integration Time (usec): 80000 (USB4H00879)
Spectra Averaged: 1 (USB4H00879)
Boxcar Smoothing: 0 (USB4H00879)
Correct for Electrical Dark: No (USB4H00879)
Strobe/Lamp Enabled: No (USB4H00879)
Correct for Detector Non-linearity: No (USB4H00879)
Correct for Stray Light: No (USB4H00879)
Number of Pixels in Processed Spectrum: 3648
>>>>>Begin Processed Spectral Data<<<<<
345.13	1249.26
345.34	1249.26
345.56	1249.26
345.78	1239.02
345.99	1261.55
346.21	1728.49
346.42	1728.49
346.64	1718.25
346.86	1808.36
347.07	1693.67
347.29	1695.72
347.50	1585.13
347.72	1746.92
347.94	1767.40
348.15	1621.99
348.37	1603.56
348.59	1628.14
348.80	1716.20
349.02	1716.20
349.23	1892.32
349.45	1839.08
349.67	1949.67
349.88	1837.03
350.10	1947.62
350.31	1824.74
350.53	1767.40
350.75	1968.10
350.96	1718.25
351.18	1894.37
351.39	1763.30
351.61	1759.21
351.82	1851.36
352.04	1912.80
352.26	1830.88
352.47	1888.23
352.69	1859.56
352.90	1808.36
353.12	1857.51
353.34	1845.22
353.55	1910.75
353.77	1935.33
353.98	1798.12
354.20	1920.99
354.41	1914.85
354.63	1968.10
354.85	2041.82
355.06	1929.19
355.28	1812.45
355.49	1890.28
355.71	1949.67
355.92	1892.32
356.14	1953.76
356.35	1914.85
356.57	1847.27
356.79	1875.94
357.00	1869.80
357.22	1939.43
357.43	1822.69
357.65	1896.42
357.86	1820.64
358.08	1916.90
358.29	1974.24
358.51	1964.00
358.72	2007.01
358.94	1974.24
359.16	1925.09
359.37	1974.24
359.59	1959.91
359.80	2035.68
360.02	1951.71
360.23	1968.10
360.45	1992.67
360.66	1978.34
360.88	1810.40
361.09	1970.15
361.31	2000.87
361.52	1865.70
361.74	2097.12
361.95	2037.73
362.17	1945.57
362.38	2125.79
362.60	2082.78
362.81	1953.76
363.03	1988.58
363.24	1990.63
363.46	1998.82
363.67	2070.50
363.89	2004.96
364.10	2023.39
364.32	1996.77
364.53	2027.49
364.75	1937.38
364.96	2084.83
365.18	2088.93
365.39	1976.29
365.61	1943.52
365.82	2088.93
366.04	2062.30
366.25	1949.67
366.47	2072.54
366.68	1978.34
366.90	1929.19
367.11	2066.40
367.33	2109.41
367.54	2068.45
367.76	2088.93
367.97	2066.40
368.19	2074.59
368.40	2131.94
368.62	1949.67
368.83	1984.48
369.05	2133.98
369.26	1947.62
369.48	1994.72
369.69	2035.68
369.91	2017.25
370.12	1964.00
370.33	2183.13
370.55	2035.68
370.76	2129.89
370.98	2113.50
371.19	2029.54
371.41	2047.97
371.62	2052.06
371.84	1972.19
372.05	2164.70
372.27	2125.79
372.48	2060.26
372.69	2099.17
372.91	2203.61
373.12	2240.48
373.34	2119.65
373.55	2107.36
373.77	2158.56
373.98	2109.41
374.20	2152.42
374.41	2252.77
374.62	2195.42
374.84	2125.79
375.05	2142.18
375.27	2230.24
375.48	2117.60
375.70	2205.66
375.91	2203.61
376.12	2258.91
376.34	2113.50
376.55	2228.19
376.77	2222.05
376.98	2150.37
377.19	2074.59
377.41	2183.13
377.62	2146.27
377.84	2301.92
378.05	2295.77
378.27	2138.08
378.48	2342.88
378.69	2267.10
378.91	2303.96
379.12	2277.34
379.34	2230.24
379.55	2285.53
379.76	2244.57
379.98	2297.82
380.19	2258.91
380.41	2260.96
380.62	2320.35
380.83	2295.77
381.05	2197.47
381.26	2426.84
381.47	2287.58
381.69	2166.75
381.90	2349.02
382.12	2295.77
382.33	2226.14
382.54	2244.57
382.76	2279.39
382.97	2369.50
383.19	2332.64
383.40	2322.40
383.61	2238.43
383.83	2234.33
384.04	2414.56
384.25	2369.50
384.47	2355.16
384.68	2402.27
384.89	2320.35
385.11	2287.58
385.32	2375.64
385.54	2351.07
385.75	2396.12
385.96	2473.95
386.18	2420.70
386.39	2306.01
386.60	2416.60
386.82	2473.95
387.03	2467.80
387.24	2455.51
387.46	2484.19
387.67	2396.12
387.88	2494.43
388.10	2449.37
388.31	2463.71
388.52	2459.61
388.74	2510.81
388.95	2469.85
389.16	2453.47
389.38	2426.84
389.59	2602.97
389.80	2605.02
390.02	2555.86
390.23	2670.55
390.44	2615.26
390.66	2516.95
390.87	2512.86
391.08	2607.06
391.30	2586.58
391.51	2619.35
391.72	2605.02
391.94	2719.70
392.15	2691.03
392.36	2541.53
392.58	2627.54
392.79	2658.26
393.00	2672.60
393.22	2670.55
393.43	2721.75
393.64	2791.38
393.85	2768.85
394.07	2611.16
394.28	2705.37
394.49	2875.35
394.71	2813.91
394.92	2844.63
395.13	2697.17
395.35	2748.37
395.56	2807.77
395.77	2811.86
395.98	2871.25
396.20	2891.73
396.41	2844.63
396.62	2830.29
396.84	2916.31
397.05	2838.48
397.26	2873.30
397.47	2928.60
397.69	2676.70
397.90	3078.10
398.11	2938.84
398.32	2901.97
398.54	2856.92
398.75	3004.37
398.96	2928.60
399.18	3117.01
399.39	2873.30
399.60	3045.33
399.81	2928.60
400.03	2969.55
400.24	3409.87
400.45	2906.07
400.66	3033.04
400.88	3000.27
401.09	3237.84
401.30	3094.48
401.51	3176.40
401.73	3106.77
401.94	3174.35
402.15	3076.05
402.36	3194.83
402.58	3237.84
402.79	3262.41
403.00	3178.45
403.21	3264.46
403.43	3200.98
403.64	3252.17
403.85	3170.26
404.06	3291.09
404.27	3170.26
404.49	3200.98
404.70	3164.11
404.91	3229.65
405.12	3344.33
405.34	3209.17
405.55	3551.18
405.76	3164.11
405.97	3237.84
406.19	3393.48
406.40	3317.71
406.61	3334.09
406.82	3383.24
407.03	3391.44
407.25	3295.18
407.46	3383.24
407.67	3499.98
407.88	3444.68
408.09	3497.93
408.31	3297.23
408.52	3469.26
408.73	3426.25
408.94	3348.43
409.15	3467.21
409.37	3432.40
409.58	3551.18
409.79	3530.70
410.00	3629.00
410.21	3436.49
410.43	3512.27
410.64	3430.35
410.85	3657.67
411.06	3514.31
411.27	3596.23
411.48	3676.10
411.70	3594.19
411.91	3629.00
412.12	3723.21
412.33	3633.10
412.54	3581.90
412.76	3872.71
412.97	3676.10
413.18	3551.18
413.39	3729.35
413.60	3760.07
413.81	3743.69
414.03	3721.16
414.24	3583.95
414.45	3747.78
414.66	3702.73
414.87	3882.95
415.08	3721.16
415.30	3723.21
415.51	3825.61
415.72	3811.27
415.93	3887.04
416.14	3825.61
416.35	3887.04
416.56	3864.52
416.78	3860.42
416.99	3794.89
417.20	3936.20
417.41	3887.04
417.62	3798.98
417.83	3977.16
418.04	3821.51
418.26	3874.76
418.47	3751.88
418.68	3903.43
418.89	3946.44
419.10	4120.51
419.31	3987.40
419.52	4026.31
419.73	3985.35
419.95	4134.85
420.16	3954.63
420.37	4042.69
420.58	4007.87
420.79	4042.69
421.00	4038.59
421.21	4044.74
421.42	4061.12
421.63	4179.90
421.85	4165.57
422.06	4259.78
422.27	4188.10
422.48	4198.34
422.69	4237.25
422.90	4251.58
423.11	4083.65
423.32	4310.97
423.53	4452.28
423.75	4323.26
423.96	4476.86
424.17	4396.99
424.38	4577.21
424.59	4452.28
424.80	4575.16
425.01	4528.06
425.22	4433.85
425.43	4368.32
425.64	4480.96
425.85	4526.01
426.06	4630.46
426.28	4583.35
426.49	4466.62
426.70	4462.52
426.91	4536.25
427.12	4683.70
427.33	4581.31
427.54	4495.29
427.75	4681.66
427.96	4759.48
428.17	4638.65
428.38	4663.22
428.59	4800.44
428.80	4628.41
429.01	4839.35
429.23	4689.85
429.44	5011.38
429.65	4876.21
429.86	4902.84
430.07	4771.77
430.28	4937.65
430.49	4923.32
430.70	5087.15
430.91	4982.71
431.12	4960.18
431.33	5093.30
431.54	5087.15
431.75	5009.33
431.96	5164.98
432.17	5029.81
432.38	4958.13
432.59	5257.14
432.80	5199.79
433.01	5246.90
433.22	5271.47
433.43	5156.79
433.64	5175.22
433.85	5173.17
434.06	5359.53
434.27	5199.79
434.49	5369.77
434.70	5457.84
434.91	5298.10
435.12	5482.41
435.33	5287.86
435.54	5506.99
435.75	5224.37
435.96	5369.77
436.17	5248.94
436.38	5541.80
436.59	5631.91
436.80	5552.04
437.01	5623.72
437.22	5707.69
437.43	5613.48
437.64	5457.84
437.85	5636.01
438.06	5758.89
438.27	5541.80
438.48	5642.15
438.69	5881.77
438.90	5670.83
439.11	5670.83
439.32	5762.98
439.53	5687.21
439.74	5916.58
439.95	5945.25
440.16	5740.46
440.37	5724.07
440.57	5834.66
440.78	5824.42
440.99	6008.74
441.20	6113.19
441.41	5869.48
441.62	5902.25
441.83	5803.94
442.04	6041.51
442.25	6096.80
442.46	6006.69
442.67	6354.85
442.88	6442.91
443.09	6039.46
443.30	6195.11
443.51	6176.67
443.72	6475.68
443.93	6143.91
444.14	6440.86
444.35	6297.50
444.56	6453.15
444.77	6545.31
444.98	6324.13
445.19	6330.27
445.40	6381.47
445.61	6393.76
445.81	6508.44
446.02	6625.18
446.23	6399.90
446.44	6399.90
446.65	6623.13
446.86	6498.20
447.07	6623.13
447.28	6832.02
447.49	6711.19
447.70	6545.31
447.91	6733.72
448.12	6524.83
448.33	6807.45
448.54	6791.06
448.74	6733.72
448.95	6838.17
449.16	6750.10
449.37	7063.44
449.58	6817.69
449.79	7069.59
450.00	7012.24
450.21	6973.33
450.42	7155.60
450.63	7073.68
450.84	7116.69
451.05	7053.20
451.25	7077.78
451.46	6989.72
451.67	7276.43
451.88	7278.48
452.09	7255.95
452.30	7012.24
452.51	7372.69
452.72	7409.55
452.93	7661.45
453.13	7069.59
453.34	7301.01
453.55	7296.91
453.76	7407.50
453.97	7714.70
454.18	7491.47
454.39	7550.86
454.60	7610.25
454.81	7704.46
455.01	7915.40
455.22	7573.39
455.43	7669.64
455.64	8042.37
455.85	7937.93
456.06	8206.21
456.27	7849.86
456.48	8193.92
456.68	8038.28
456.89	8099.72
457.10	8261.51
457.31	8273.79
457.52	8048.52
457.73	8152.96
457.94	8519.55
458.14	8150.92
458.35	8722.30
458.56	8286.08
458.77	8284.03
458.98	8488.83
459.19	8566.65
459.39	8658.81
459.60	8755.07
459.81	8449.92
460.02	8669.05
460.23	8667.00
460.44	8882.04
460.65	8935.29
460.85	8953.72
461.06	9033.59
461.27	8644.48
461.48	9078.65
461.69	9275.25
461.89	8892.28
462.10	9117.56
462.31	8859.51
462.52	9004.92
462.73	9086.84
462.94	9310.07
463.14	9265.01
463.35	9521.01
463.56	9766.76
463.77	9604.97
463.98	9400.18
464.18	9508.72
464.39	9760.62
464.60	9711.47
464.81	9783.15
465.02	9670.51
465.23	10133.35
465.43	9906.02
465.64	10043.24
465.85	9996.14
466.06	9951.08
466.27	10123.11
466.47	10270.56
466.68	10102.63
466.89	10082.15
467.10	10192.74
467.30	10135.40
467.51	10483.55
467.72	10626.91
467.93	10219.36
468.14	10477.41
468.34	10807.13
468.55	10571.61
468.76	10602.33
468.97	10542.94
469.17	10915.67
469.38	11044.70
469.59	11161.43
469.80	11022.17
470.01	10868.57
470.21	11036.50
470.42	11341.65
470.63	11622.22
470.84	11165.53
471.04	11362.13
471.25	11474.77
471.46	11515.73
471.67	11786.06
471.87	11525.97
472.08	11603.79
472.29	11927.37
472.50	11609.93
472.70	11804.49
472.91	11796.30
473.12	12140.36
473.33	12046.15
473.53	12363.59
473.74	12060.49
473.95	12328.77
474.16	12293.96
474.36	12349.25
474.57	12496.71
474.78	12570.43
474.99	12404.55
475.19	12638.02
475.40	12812.09
475.61	13031.23
475.81	13250.36
476.02	13172.54
476.23	12969.79
476.44	13082.42
476.64	13258.55
476.85	13649.71
477.06	13217.59
477.27	13799.21
477.47	13715.25
477.68	13735.73
477.89	14042.92
478.09	13926.19
478.30	13831.98
478.51	14221.10
478.71	14014.25
478.92	14192.42
479.13	14303.01
479.34	14786.33
479.54	14554.91
479.75	14346.02
479.96	14581.54
480.16	14657.31
480.37	14808.86
480.58	15075.10
480.78	15105.82
480.99	15083.29
481.20	15363.86
481.41	15056.67
481.61	15447.83
481.82	15316.76
482.03	15376.15
482.23	15236.89
482.44	15697.68
482.65	15906.57
482.85	15703.82
483.06	15720.21
483.27	16017.16
483.47	16011.02
483.68	16166.67
483.89	16088.84
484.09	16201.48
484.30	16273.16
484.51	16537.35
484.71	16654.08
484.92	16484.10
485.13	16729.86
485.33	16742.14
485.54	16692.99
485.75	16975.61
485.95	17182.46
486.16	17086.20
486.37	17293.05
486.57	17327.86
486.78	17360.63
486.98	17581.81
487.19	17606.39
487.40	17600.24
487.60	17493.75
487.81	17813.23
488.02	17733.36
488.22	17805.04
488.43	18130.67
488.64	18005.74
488.84	18241.26
489.05	18366.18
489.25	18431.72
489.46	18669.28
489.67	18605.80
489.87	18626.28
490.08	18761.44
490.29	18726.63
490.49	19257.05
490.70	19138.27
490.90	19205.85
491.11	18970.33
491.32	19314.39
491.52	19220.19
491.73	19328.73
491.94	19330.78
492.14	19257.05
492.35	20031.18
492.55	19545.81
492.76	19998.41
492.97	19975.89
493.17	19859.15
493.38	20035.28
493.58	19961.55
493.79	20297.42
494.00	20129.48
494.20	20455.11
494.41	20307.66
494.61	20541.13
494.82	20610.76
495.02	20530.89
495.23	20817.60
495.44	20827.84
495.64	20688.58
495.85	20864.71
496.05	21350.07
496.26	21157.57
496.47	21290.68
496.67	21196.48
496.88	21262.01
497.08	21464.76
497.29	21569.21
497.49	21493.43
497.70	21737.14
497.91	21694.13
498.11	21925.55
498.32	21960.37
498.52	22150.83
498.73	22218.41
498.93	22220.46
499.14	22345.39
499.34	22435.50
499.55	22468.27
499.76	22554.28
499.96	22466.22
500.17	22441.64
500.37	22656.68
500.58	22916.77
500.78	23029.41
500.99	22890.15
501.19	22984.35
501.40	23090.85
501.60	23004.83
501.81	23230.11
502.02	23226.01
502.22	23178.91
502.43	23574.17
502.63	23596.70
502.84	23535.26
503.04	23768.73
503.25	23940.75
503.45	23725.72
503.66	24215.18
503.86	24010.39
504.07	24475.27
504.27	23985.81
504.48	24370.83
504.68	24161.94
504.89	24626.82
505.09	24315.53
505.30	24471.18
505.50	24829.57
505.71	24583.82
505.91	25081.47
506.12	24831.62
506.32	24872.58
506.53	25073.28
506.73	25132.67
506.94	24901.25
507.14	24817.29
507.35	25153.15
507.55	25255.55
507.76	25286.27
507.96	25419.39
508.17	25003.65
508.37	25681.53
508.58	25341.57
508.78	25726.58
508.99	25865.85
509.19	26013.30
509.40	25902.71
509.60	26023.54
509.81	26005.11
510.01	26152.56
510.22	26068.59
510.42	26138.23
510.63	26209.90
510.83	26314.35
511.04	26386.03
511.24	26412.65
511.44	26713.70
511.65	26574.44
511.85	26228.34
512.06	26635.88
512.26	26736.23
512.47	26998.37
512.67	26791.53
512.88	27203.17
513.08	27121.25
513.29	26981.99
513.49	27479.64
513.69	27141.73
513.90	27481.69
514.10	27444.83
514.31	27455.07
514.51	27825.75
514.72	27749.98
514.92	27397.73
515.13	27375.20
515.33	27745.88
515.53	27512.41
515.74	28276.30
515.94	28200.53
516.15	28487.25
516.35	28053.08
516.56	28223.06
516.76	27833.94
516.96	28296.78
517.17	28454.48
517.37	28421.71
517.58	28692.04
517.78	28483.15
517.99	28638.80
518.19	28870.22
518.39	28798.54
518.60	29009.48
518.80	28921.41
519.01	29322.82
519.21	29318.72
519.41	29118.02
519.62	29281.86
519.82	29335.10
520.03	29564.48
520.23	29636.16
520.43	29490.75
520.64	29947.45
520.84	29992.50
521.05	29666.88
521.25	30062.13
521.45	30023.22
521.66	30004.79
521.86	29990.45
522.07	30287.41
522.27	30213.68
522.47	30375.47
522.68	30713.39
522.88	30377.52
523.08	30973.48
523.29	30647.85
523.49	30973.48
523.70	30764.59
523.90	31100.45
524.10	31034.92
524.31	31313.44
524.51	31104.55
524.71	31731.23
524.92	31444.51
525.12	31819.29
525.33	31585.82
525.53	31764.00
525.73	31829.53
525.94	31852.06
526.14	32134.68
526.34	31696.41
526.55	32056.85
526.75	32306.71
526.95	32790.03
527.16	32478.74
527.36	32491.02
527.56	32765.45
527.77	32867.85
527.97	32480.78
528.17	32642.57
528.38	33109.51
528.58	32902.67
528.78	33189.38
528.99	32794.12
529.19	33506.82
529.39	33152.52
529.60	33709.57
529.80	33760.76
530.00	33842.68
530.21	33715.71
530.41	33932.79
530.61	33824.25
530.82	33902.07
531.02	34092.54
531.22	34221.56
531.43	34446.83
531.63	34346.48
531.83	34536.94
532.04	35061.22
532.24	34475.51
532.44	34674.16
532.64	35116.52
532.85	35251.69
533.05	35206.63
533.25	35241.45
533.46	35145.19
533.66	35585.50
533.86	35388.90
534.07	35784.16
534.27	35769.82
534.47	36027.87
534.67	35673.57
534.88	35790.30
535.08	35896.80
535.28	36357.59
535.49	36109.78
535.69	36443.60
535.89	36683.22
536.09	36728.27
536.30	36904.40
536.50	36603.35
536.70	36838.86
536.91	36726.22
537.11	36902.35
537.31	36963.79
537.51	36818.38
537.72	37418.44
537.92	37666.24
538.12	37537.22
538.32	37139.91
538.53	37842.37
538.73	37443.01
538.93	37733.82
539.13	37877.18
539.34	37916.09
539.54	37805.50
539.74	38208.95
539.94	37961.15
540.15	38008.25
540.35	38303.16
540.55	38174.14
540.75	38073.79
540.96	38653.36
541.16	38460.85
541.36	38874.54
541.56	38473.14
541.77	38944.17
541.97	39065.00
542.17	38813.10
542.37	38942.13
542.58	38876.59
542.78	39032.24
542.98	38753.71
543.18	38733.23
543.38	39361.96
543.59	39185.83
543.79	39159.21
543.99	39321.00
544.19	39697.83
544.40	39372.20
544.60	39554.47
544.80	39620.00
545.00	39472.55
545.20	40156.57
545.41	39452.07
545.61	39763.36
545.81	39890.34
546.01	40080.80
546.21	39744.93
546.42	39962.01
546.62	40086.94
546.82	40185.24
547.02	40508.82
547.22	40738.19
547.43	39699.87
547.63	40492.44
547.83	40605.08
548.03	39898.53
548.23	40310.17
548.44	40514.97
548.64	40310.17
548.84	40848.78
549.04	40490.39
549.24	40691.09
549.45	41235.85
549.65	40494.49
549.85	40426.90
550.05	40879.50
550.25	40377.75
550.45	41186.70
550.66	41235.85
550.86	40973.71
551.06	41061.77
551.26	40906.13
551.46	41145.74
551.66	41067.92
551.87	40998.29
552.07	41168.27
552.27	41141.64
552.47	41809.28
552.67	41328.01
552.87	41135.50
553.07	41168.27
553.28	41614.72
553.48	41516.42
553.68	41432.46
553.88	41831.81
554.08	42071.42
554.28	41250.19
554.48	41936.26
554.69	41424.26
554.89	41647.49
555.09	41452.94
555.29	41567.62
555.49	42159.48
555.69	41942.40
555.89	41821.57
556.10	42034.56
556.30	41657.73
556.50	41946.50
556.70	42034.56
556.90	42122.62
557.10	42106.24
557.30	41905.54
557.50	42059.13
557.70	42282.36
557.91	42251.64
558.11	42227.07
558.31	42288.51
558.51	42055.04
558.71	42208.64
558.91	42603.89
559.11	41952.64
559.31	42153.34
559.51	42036.61
559.72	42362.23
559.92	42546.55
560.12	42528.12
560.32	42237.31
560.52	42143.10
560.72	42644.85
560.92	42540.41
561.12	42501.50
561.32	42769.78
561.52	42431.86
561.72	42753.40
561.93	42558.84
562.13	42790.26
562.33	42265.98
562.53	43236.72
562.73	42626.42
562.93	42700.15
563.13	42612.09
563.33	42620.28
563.53	43050.35
563.73	42536.31
563.93	42505.59
564.13	43171.18
564.33	42952.05
564.53	42415.48
564.74	43150.70
564.94	42970.48
565.14	42866.03
565.34	42737.01
565.54	43431.27
565.74	42960.24
565.94	43406.70
566.14	43414.89
566.34	42835.31
566.54	43418.99
566.74	43111.79
566.94	43218.28
567.14	42982.77
567.34	42888.56
567.54	43273.58
567.74	43064.69
567.94	43132.27
568.14	43515.24
568.34	43449.70
568.54	43287.92
568.74	43234.67
568.94	43693.41
569.14	43912.55
569.34	43410.79
569.54	43797.86
569.75	43193.71
569.95	43660.65
570.15	43947.36
570.35	43785.57
570.55	43625.83
570.75	43208.04
570.95	44150.11
571.15	43793.76
571.35	44037.47
571.55	43646.31
571.75	43742.56
571.95	44305.76
572.15	43810.15
572.35	44416.35
572.55	43599.21
572.75	44301.66
572.95	44082.53
573.15	44307.80
573.35	44143.97
573.55	44103.01
573.75	44342.62
573.95	44203.36
574.15	44168.54
574.35	44426.59
574.55	44064.10
574.75	44377.43
574.95	44602.71
575.15	43941.22
575.34	44463.45
575.54	44758.36
575.74	44827.99
575.94	44723.54
576.14	44643.67
576.34	44533.08
576.54	44909.91
576.74	45049.17
576.94	44834.13
577.14	44832.08
577.34	45262.16
577.54	44811.60
577.74	44938.58
577.94	45188.43
578.14	45180.24
578.34	45305.16
578.54	44684.63
578.74	45178.19
578.94	45567.30
579.14	45194.57
579.34	45559.11
579.54	45352.27
579.74	45811.01
579.94	45645.13
580.13	45935.94
580.33	45708.61
580.53	45811.01
580.73	45610.31
580.93	45524.30
581.13	45610.31
581.33	46040.39
581.53	46048.58
581.73	45962.56
581.93	46214.46
582.13	46333.24
582.33	46191.94
582.53	46296.38
582.73	46304.57
582.92	46826.81
583.12	46753.08
583.32	46429.50
583.52	46308.67
583.72	46771.51
583.92	46529.85
584.12	46660.92
584.32	46921.01
584.52	46820.66
584.72	46847.29
584.92	46748.98
585.11	47297.84
585.31	46951.73
585.51	47224.11
585.71	47068.47
585.91	47207.73
586.11	46996.79
586.31	47639.85
586.51	47215.92
586.71	47215.92
586.91	47711.53
587.10	47303.98
587.30	47645.99
587.50	47598.89
587.70	48080.16
587.90	47570.22
588.10	47811.88
588.30	47975.72
588.50	47928.61
588.69	48014.63
588.89	47670.57
589.09	47789.35
589.29	47992.10
589.49	48209.18
589.69	47945.00
589.89	48119.07
590.08	48141.60
590.28	48291.10
590.48	47942.95
590.68	48665.88
590.88	48948.50
591.08	48657.69
591.28	48305.44
591.47	48807.19
591.67	48809.24
591.87	48782.62
592.07	48704.79
592.27	49034.52
592.47	48790.81
592.67	49128.72
592.86	48893.21
593.06	49095.95
593.26	49063.19
593.46	49208.59
593.66	48821.53
593.86	49220.88
594.05	49315.09
594.25	49696.01
594.45	49034.52
594.65	49552.65
594.85	48964.88
595.05	49933.57
595.24	49597.71
595.44	49530.12
595.64	49409.29
595.84	49865.99
596.04	50052.36
596.23	50291.97
596.43	50507.01
596.63	49990.92
596.83	50187.52
597.03	50666.75
597.22	50765.05
597.42	50554.11
597.62	50726.14
597.82	50595.07
598.02	50756.86
598.21	50668.79
598.41	50183.43
598.61	51160.31
598.81	50556.16
599.01	51139.83
599.20	51002.61
599.40	50711.80
599.60	51487.98
599.80	51315.95
600.00	51051.76
600.19	51451.12
600.39	50693.37
600.59	51311.86
600.79	51514.61
600.98	51418.35
601.18	51641.58
601.38	51545.33
601.58	52139.24
601.78	51664.11
601.97	51795.18
602.17	52153.57
602.37	52137.19
602.57	51942.63
602.76	52565.21
602.96	51873.00
603.16	52358.37
603.36	51868.90
603.55	52630.75
603.75	52126.95
603.95	52720.86
604.15	52559.07
604.34	52692.19
604.54	52626.65
604.74	52491.49
604.94	52849.88
605.13	52800.73
605.33	52853.98
605.53	53040.34
605.73	53533.90
605.92	52800.73
606.12	53318.87
606.32	53583.05
606.52	53437.65
606.71	53370.07
606.91	53740.75
607.11	53253.33
607.30	53640.40
607.50	53691.60
607.70	54009.03
607.90	53515.47
608.09	53699.79
608.29	54246.60
608.49	54281.41
608.68	53777.61
608.88	54189.25
609.08	54056.14
609.28	54232.26
609.47	54146.25
609.67	54584.51
609.87	54318.28
610.06	54281.41
610.26	54400.19
610.46	55147.70
610.66	54144.20
610.85	54754.49
611.05	54314.18
611.25	54389.95
611.44	54592.70
611.64	54637.76
611.84	54555.84
612.03	54697.15
612.23	54926.52
612.43	54879.42
612.62	54664.38
612.82	54756.54
613.02	54758.59
613.21	55121.08
613.41	54688.96
613.61	55018.68
613.80	54738.11
614.00	55282.87
614.20	54992.06
614.39	55114.94
614.59	55612.59
614.79	55205.05
614.98	55579.82
615.18	55268.53
615.38	55321.78
615.57	55231.67
615.77	55428.27
615.97	55481.52
616.16	55149.75
616.36	55616.69
616.56	55409.84
616.75	55295.16
616.95	55200.95
617.15	55387.31
617.34	55678.13
617.54	55262.39
617.74	55940.27
617.93	55649.45
618.13	55342.26
618.32	55831.72
618.52	55618.74
618.72	55542.96
618.91	55891.12
619.11	55542.96
619.31	55805.10
619.50	55671.98
619.70	55026.87
619.90	55604.40
620.09	55725.23
620.29	55678.13
620.48	55837.87
620.68	56079.53
620.88	55694.51
621.07	55901.36
621.27	55884.97
621.46	55719.09
621.66	55723.18
621.86	55481.52
622.05	55436.47
622.25	56163.50
622.44	55637.17
622.64	55260.34
622.84	56253.61
623.03	55323.83
623.23	56243.37
623.42	55714.99
623.62	55747.76
623.82	56009.90
624.01	55784.62
624.21	56196.26
624.40	55917.74
624.60	56368.29
624.80	55655.60
624.99	55622.83
625.19	55051.45
625.38	55948.46
625.58	55962.79
625.77	55907.50
625.97	55880.88
626.17	55637.17
626.36	56259.75
626.56	56192.17
626.75	55798.96
626.95	56128.68
627.14	56208.55
627.34	56159.40
627.54	55907.50
627.73	55729.33
627.93	56153.26
628.12	56024.23
628.32	56265.89
628.51	55649.45
628.71	55952.55
628.90	55975.08
629.10	56169.64
629.30	56081.58
629.49	56226.98
629.69	56112.30
629.88	56046.76
630.08	56374.44
630.27	56464.55
630.47	56048.81
630.66	56325.28
630.86	56626.34
631.05	55977.13
631.25	56669.34
631.44	56358.05
631.64	56192.17
631.84	56390.82
632.03	56831.13
632.23	56274.09
632.42	56818.84
632.62	56302.76
632.81	56288.42
633.01	56374.44
633.20	56767.65
633.40	56685.73
633.59	57164.95
633.79	56216.74
633.98	56681.63
634.18	56734.88
634.37	56204.45
634.57	56362.15
634.76	56710.30
634.96	56704.16
635.15	56861.85
635.35	55989.42
635.54	56202.41
635.74	56706.21
635.93	56646.82
636.13	57177.24
636.32	57283.73
636.52	55985.32
636.71	56788.13
636.91	56913.05
637.10	56931.48
637.30	56632.48
637.49	56630.43
637.69	56716.45
637.88	56990.87
638.08	57003.16
638.27	56452.26
638.46	56775.84
638.66	56603.81
638.85	56648.86
639.05	56784.03
639.24	56902.81
639.44	56878.24
639.63	56773.79
639.83	56874.14
640.02	56685.73
640.22	56325.28
640.41	56945.82
640.61	56376.48
640.80	57009.31
640.99	56661.15
641.19	56994.97
641.38	56923.29
641.58	57060.51
641.77	56636.58
641.97	56788.13
642.16	56784.03
642.36	56933.53
642.55	57363.60
642.74	56956.06
642.94	57717.90
643.13	56863.90
643.33	57283.73
643.52	57078.94
643.72	57293.97
643.91	56861.85
644.10	56925.34
644.30	57253.01
644.49	57021.59
644.69	57103.51
644.88	57103.51
645.08	56687.78
645.27	56513.70
645.46	57144.47
645.66	57326.74
645.85	57404.56
646.05	57326.74
646.24	57468.05
646.43	57384.08
646.63	57379.99
646.82	57537.68
647.02	57293.97
647.21	57273.49
647.40	57156.76
647.60	57218.20
647.79	57320.60
647.99	57220.25
648.18	57244.82
648.37	57988.24
648.57	57881.74
648.76	56960.15
648.96	57533.59
649.15	57466.00
649.34	57365.65
649.54	57500.82
649.73	56997.02
649.92	57523.35
650.12	57058.46
650.31	57656.46
650.51	57611.41
650.70	57664.66
650.89	57261.21
651.09	57914.51
651.28	57697.42
651.47	57685.14
651.67	57300.12
651.86	57820.30
652.06	57302.17
652.25	57732.24
652.44	57365.65
652.64	57314.45
652.83	57386.13
653.02	56968.35
653.22	57531.54
653.41	57519.25
653.60	57220.25
653.80	57521.30
653.99	57611.41
654.18	57429.14
654.38	56886.43
654.57	57058.46
654.76	57150.62
654.96	57253.01
655.15	57005.21
655.34	57197.72
655.54	57316.50
655.73	57420.95
655.92	57646.22
656.12	57351.32
656.31	57210.01
656.50	57320.60
656.70	57369.75
656.89	57238.68
657.08	57652.37
657.28	57277.59
657.47	56908.96
657.66	57330.84
657.86	56972.44
658.05	57287.83
658.24	57394.32
658.43	57226.39
658.63	57463.96
658.82	57603.22
659.01	57556.11
659.21	57660.56
659.40	57031.83
659.59	57076.89
659.79	57578.64
659.98	57418.90
660.17	57408.66
660.36	57324.69
660.56	57212.06
660.75	57572.50
660.94	57678.99
661.14	57341.08
661.33	56956.06
661.52	56493.22
661.71	57353.36
661.91	56902.81
662.10	57052.31
662.29	56966.30
662.49	57121.94
662.68	57052.31
662.87	57132.18
663.06	57355.41
663.26	57005.21
663.45	57525.39
663.64	57056.41
663.83	57406.61
664.03	57425.04
664.22	57220.25
664.41	57109.66
664.60	56947.87
664.80	57130.14
664.99	57050.27
665.18	57136.28
665.37	57183.38
665.57	57078.94
665.76	56712.35
665.95	57128.09
666.14	57003.16
666.34	56566.94
666.53	56761.50
666.72	56722.59
666.91	56564.90
667.11	56534.18
667.30	56724.64
667.49	56761.50
667.68	56693.92
667.87	56951.96
668.07	56919.20
668.26	56874.14
668.45	57064.60
668.64	56751.26
668.84	57234.58
669.03	57033.88
669.22	56794.27
669.41	56726.69
669.60	56503.46
669.80	56603.81
669.99	56927.39
670.18	56554.66
670.37	56542.37
670.57	57076.89
670.76	56597.66
670.95	56730.78
671.14	56947.87
671.33	56198.31
671.53	56870.04
671.72	56761.50
671.91	56147.11
672.10	56368.29
672.29	56439.97
672.48	56100.01
672.68	56761.50
672.87	56337.57
673.06	56145.06
673.25	55962.79
673.44	56052.90
673.64	56265.89
673.83	56171.69
674.02	56079.53
674.21	55944.36
674.40	56302.76
674.59	55686.32
674.79	56079.53
674.98	56018.09
675.17	56439.97
675.36	55735.47
675.55	55968.94
675.74	56050.86
675.94	55747.76
676.13	56061.10
676.32	56065.19
676.51	55895.21
676.70	55925.93
676.89	56226.98
677.08	56054.95
677.28	55209.14
677.47	56407.20
677.66	56114.34
677.85	56138.92
678.04	56081.58
678.23	56069.29
678.42	55751.85
678.62	55497.91
678.81	55956.65
679.00	55671.98
679.19	56057.00
679.38	55979.18
679.57	55905.45
679.76	55981.23
679.96	56007.85
680.15	55626.93
680.34	55473.33
680.53	55139.51
680.72	55633.07
680.91	55796.91
681.10	55299.25
681.29	55671.98
681.48	55344.31
681.68	55411.89
681.87	55272.63
682.06	55583.92
682.25	54779.07
682.44	55248.05
682.63	55059.64
682.82	55229.62
683.01	54842.56
683.20	54949.05
683.39	54998.20
683.59	54557.89
683.78	54779.07
683.97	55088.31
684.16	54711.49
684.35	54641.85
684.54	55024.82
684.73	54744.25
684.92	54768.83
685.11	54564.03
685.30	55035.06
685.49	55047.35
685.69	55063.74
685.88	55106.74
686.07	54740.16
686.26	54330.56
686.45	54637.76
686.64	54574.27
686.83	54609.09
687.02	54473.92
687.21	54348.99
687.40	54654.14
687.59	54934.71
687.78	54389.95
687.97	54928.57
688.16	54588.61
688.35	54443.20
688.54	54373.57
688.74	54408.39
688.93	54432.96
689.12	54254.79
689.31	54199.49
689.50	53853.39
689.69	54142.15
689.88	53630.16
690.07	54123.72
690.26	54482.11
690.45	54748.35
690.64	53746.89
690.83	53990.60
691.02	53570.77
691.21	53861.58
691.40	53753.04
691.59	53877.96
691.78	53716.17
691.97	53785.80
692.16	53673.16
692.35	54074.57
692.54	53697.74
692.73	53785.80
692.92	53990.60
693.11	53669.07
693.30	53421.26
693.49	53386.45
693.68	53507.28
693.87	53572.81
694.06	53253.33
694.25	53370.07
694.44	53015.77
694.63	53329.11
694.82	53638.35
695.01	53208.28
695.20	53435.60
695.39	53566.67
695.58	53253.33
695.77	53212.37
695.96	52872.41
696.15	53081.30
696.34	53109.97
696.53	52950.23
696.72	53122.26
696.91	52444.38
697.10	52856.03
697.29	52876.51
697.48	53566.67
697.67	52559.07
697.86	53064.92
698.05	53124.31
698.24	53241.04
698.43	52479.20
698.62	52634.84
698.81	52210.92
699.00	52884.70
699.19	52483.30
699.38	52679.90
699.57	52362.46
699.76	53052.63
699.95	52356.32
700.14	52325.60
700.32	52421.86
700.51	52079.85
700.70	52794.59
700.89	52339.94
701.08	52659.42
701.27	52419.81
701.46	52847.83
701.65	51959.02
701.84	52077.80
702.03	52288.74
702.22	52139.24
702.41	52397.28
702.60	52471.01
702.79	51942.63
702.98	51987.69
703.17	52131.04
703.35	52006.12
703.54	52217.06
703.73	52266.21
703.92	52200.68
704.11	52143.33
704.30	52026.60
704.49	52131.04
704.68	51864.81
704.87	51875.05
705.06	51557.61
705.25	51561.71
705.43	51739.88
705.62	51979.49
705.81	51633.39
706.00	51625.20
706.19	50937.08
706.38	51844.33
706.57	51391.73
706.76	51463.41
706.95	51426.54
707.14	51383.54
707.32	51473.65
707.51	51442.93
707.70	51336.43
707.89	51277.04
708.08	51219.70
708.27	51647.72
708.46	51559.66
708.65	51268.85
708.84	51578.09
709.02	51279.09
709.21	51166.45
709.40	50910.46
709.59	51508.46
709.78	50697.47
709.97	51057.91
710.16	50883.83
710.34	51166.45
710.53	51115.25
710.72	50705.66
710.91	51221.75
711.10	51289.33
711.29	51303.67
711.48	51021.05
711.66	50793.72
711.85	50664.70
712.04	50371.84
712.23	51074.29
712.42	50763.00
712.61	50279.68
712.80	50201.86
712.98	50715.90
713.17	50418.94
713.36	50425.09
713.55	50672.89
713.74	50443.52
713.93	50502.91
714.11	50375.94
714.30	50386.18
714.49	50115.84
714.68	50408.70
714.87	50457.85
715.06	50212.10
715.24	50175.23
715.43	50502.91
715.62	49995.01
715.81	49949.96
716.00	50529.53
716.18	49691.91
716.37	49896.71
716.56	50017.54
716.75	50029.83
716.94	50001.16
717.12	49618.19
717.31	50177.28
717.50	49812.74
717.69	49802.50
717.88	49677.58
718.06	49749.26
718.25	50070.79
718.44	49857.80
718.63	49653.00
718.82	49239.31
719.00	49560.84
719.19	49575.18
719.38	49440.01
719.57	49038.61
719.76	49124.63
719.94	49292.56
720.13	49138.96
720.32	49390.86
720.51	49763.59
720.69	49286.42
720.88	49489.16
721.07	48823.58
721.26	48278.82
721.44	48715.03
721.63	48966.93
721.82	48530.72
722.01	48522.52
722.20	48905.49
722.38	48456.99
722.57	48196.90
722.76	48352.54
722.95	48696.60
723.13	48612.63
723.32	48373.02
723.51	48012.58
723.70	47795.49
723.88	48268.58
724.07	48149.79
724.26	48276.77
724.44	47426.86
724.63	48321.82
724.82	48340.25
725.01	47906.08
725.19	47684.90
725.38	48235.81
725.57	47863.08
725.76	47908.13
725.94	47818.02
726.13	48086.31
726.32	48074.02
726.51	47752.49
726.69	48319.77
726.88	48053.54
727.07	47904.04
727.25	47863.08
727.44	47979.81
727.63	47404.33
727.82	47596.84
728.00	47645.99
728.19	47600.94
728.38	47879.46
728.56	47136.05
728.75	48010.53
728.94	47885.61
729.12	47815.97
729.31	47406.38
729.50	47824.17
729.69	48033.06
729.87	47463.72
730.06	48024.87
730.25	47611.18
730.43	48100.64
730.62	47428.91
730.81	47822.12
730.99	47783.21
731.18	47684.90
731.37	47670.57
731.55	47578.41
731.74	47682.86
731.93	47844.65
732.11	47500.59
732.30	47502.64
732.49	47516.97
732.67	47871.27
732.86	47346.99
733.05	47609.13
733.23	47400.24
733.42	47437.10
733.61	47408.43
733.79	47725.86
733.98	47973.67
734.17	47443.24
734.35	47713.58
734.54	47439.15
734.73	48125.22
734.91	47271.21
735.10	47668.52
735.29	48010.53
735.47	47285.55
735.66	47670.57
735.84	47983.91
736.03	47160.62
736.22	47693.10
736.40	47162.67
736.59	47715.62
736.78	47240.50
736.96	47652.14
737.15	47271.21
737.33	47121.71
737.52	47318.32
737.71	47131.95
737.89	47275.31
738.08	47025.46
738.27	46865.72
738.45	47709.48
738.64	47279.41
738.82	47340.85
739.01	47029.55
739.20	47105.33
739.38	47140.14
739.57	47529.26
739.75	47596.84
739.94	46892.34
740.13	47115.57
740.31	47234.35
740.50	46898.48
740.68	47189.30
740.87	47260.97
741.06	47308.08
741.24	47228.21
741.43	47025.46
741.61	47613.23
741.80	46714.17
741.99	46742.84
742.17	46947.64
742.36	46937.40
742.54	47125.81
742.73	47260.97
742.91	47224.11
743.10	46998.83
743.29	47115.57
743.47	47058.23
743.66	46667.06
743.84	47199.54
744.03	46568.76
744.21	46785.85
744.40	46779.70
744.59	46421.31
744.77	46632.25
744.96	46611.77
745.14	46443.84
745.33	46585.15
745.51	46683.45
745.70	46789.94
745.88	46617.91
746.07	46822.71
746.26	46671.16
746.44	46552.38
746.63	46099.78
746.81	46380.35
747.00	46177.60
747.18	46904.63
747.37	46540.09
747.55	46044.48
747.74	46722.36
747.92	45987.14
748.11	46335.29
748.29	46292.29
748.48	46492.99
748.66	45868.36
748.85	46681.40
749.03	46540.09
749.22	46728.50
749.41	45978.95
749.59	46140.74
749.78	45866.31
749.96	46046.53
750.15	46138.69
750.33	45725.00
750.52	45964.61
750.70	46310.72
750.89	45909.32
751.07	45815.11
751.26	46210.37
751.44	46060.87
751.63	45776.20
751.81	46064.96
752.00	45829.44
752.18	46382.40
752.37	45995.33
752.55	45397.32
752.74	45800.77
752.92	45372.75
753.10	45784.39
753.29	45933.89
753.47	45727.05
753.66	45659.46
753.84	45583.69
754.03	45978.95
754.21	45237.58
754.40	45851.97
754.58	45409.61
754.77	45348.17
754.95	45176.14
755.14	44952.91
755.32	45425.99
755.51	45137.23
755.69	45215.05
755.88	45409.61
756.06	45034.83
756.24	44959.06
756.43	45260.11
756.61	44959.06
756.80	44848.47
756.98	44928.34
757.17	44957.01
757.35	45026.64
757.54	44549.46
757.72	45430.09
757.90	44782.93
758.09	44733.78
758.27	45045.07
758.46	44807.51
758.64	44891.48
758.83	45104.46
759.01	44780.88
759.19	45004.11
759.38	44723.54
759.56	44825.94
759.75	44391.77
759.93	44715.35
760.12	44330.33
760.30	44422.49
760.48	44696.92
760.67	44303.71
760.85	44363.10
761.04	44117.34
761.22	44879.19
761.40	44885.33
761.59	43980.13
761.77	44367.20
761.96	43890.02
762.14	44258.65
762.32	43971.94
762.51	44422.49
762.69	44350.81
762.88	44152.16
763.06	44107.10
763.24	44049.76
763.43	43781.48
763.61	43902.31
763.80	43627.88
763.98	43496.81
764.16	44129.63
764.35	43461.99
764.53	43494.76
764.72	44070.24
764.90	43945.31
765.08	43685.22
765.27	43828.58
765.45	43341.16
765.63	43113.84
765.82	43570.54
766.00	43685.22
766.18	43640.17
766.37	43642.21
766.55	43703.65
766.74	43337.07
766.92	43398.51
767.10	43169.13
767.29	43537.77
767.47	42997.10
767.65	43345.26
767.84	43021.68
768.02	43529.58
768.20	43083.12
768.39	43599.21
768.57	43158.89
768.75	43222.38
768.94	42882.42
769.12	42880.37
769.30	42872.18
769.49	42640.76
769.67	42804.59
769.85	42345.85
770.04	42460.54
770.22	42685.81
770.40	42407.29
770.59	42159.48
770.77	42642.81
770.95	42483.06
771.14	41772.42
771.32	41977.22
771.50	42179.96
771.69	42239.36
771.87	42519.93
772.05	42132.86
772.24	42018.17
772.42	41770.37
772.60	42108.29
772.78	41846.15
772.97	41717.12
773.15	42270.08
773.33	41817.47
773.52	41999.74
773.70	42046.85
773.88	41813.38
774.07	41706.88
774.25	41721.22
774.43	42190.20
774.61	41751.94
774.80	42343.80
774.98	41911.68
775.16	42268.03
775.34	42036.61
775.53	42034.56
775.71	42145.15
775.89	42081.66
776.08	41956.74
776.26	42286.46
776.44	42517.88
776.62	42024.32
776.81	41823.62
776.99	41954.69
777.17	42388.86
777.35	41907.58
777.54	42554.74
777.72	41979.26
777.90	41739.65
778.08	42673.52
778.27	41796.99
778.45	42476.92
778.63	42290.55
778.81	42034.56
779.00	42687.86
779.18	42409.34
779.36	42734.96
779.54	42284.41
779.73	42536.31
779.91	42734.96
780.09	42683.76
780.27	43058.54
780.46	42517.88
780.64	42726.77
780.82	42493.30
781.00	42806.64
781.19	43025.78
781.37	43173.23
781.55	43234.67
781.73	43171.18
781.91	42917.23
782.10	42804.59
782.28	42923.38
782.46	43023.73
782.64	43234.67
782.82	43021.68
783.01	43253.10
783.19	43193.71
783.37	43480.42
783.55	43050.35
783.74	43046.26
783.92	42777.97
784.10	43271.53
784.28	43382.12
784.46	42794.36
784.64	43128.17
784.83	43128.17
785.01	43382.12
785.19	43206.00
785.37	43271.53
785.55	43355.50
785.74	42761.59
785.92	42876.27
786.10	43031.92
786.28	42984.82
786.46	42859.89
786.64	42780.02
786.83	42866.03
787.01	42661.24
787.19	42796.40
787.37	42732.92
787.55	42868.08
787.74	42278.27
787.92	42517.88
788.10	42669.43
788.28	42255.74
788.46	42460.54
788.64	42241.40
788.82	42927.47
789.01	42263.93
789.19	42880.37
789.37	42392.95
789.55	42491.26
789.73	41817.47
789.91	41868.67
790.09	42057.09
790.28	41872.77
790.46	41985.41
790.64	42233.21
790.82	42016.13
791.00	41702.79
791.18	41137.55
791.36	41559.43
791.55	41246.09
791.73	41389.45
791.91	41186.70
792.09	41029.01
792.27	40795.54
792.45	41264.52
792.63	40981.90
792.81	40531.35
793.00	40875.41
793.18	40779.15
793.36	40674.71
793.54	40381.85
793.72	40760.72
793.90	40402.33
794.08	40392.09
794.26	40715.67
794.44	39861.66
794.62	39925.15
794.81	40269.21
794.99	39722.40
795.17	39832.99
795.35	39695.78
795.53	40172.96
795.71	40310.17
795.89	39458.21
796.07	39400.87
796.25	39716.26
796.43	39179.69
796.61	38987.18
796.80	39022.00
796.98	39034.28
797.16	39013.80
797.34	39142.83
797.52	38770.10
797.70	39183.79
797.88	38925.74
798.06	38684.08
798.24	38938.03
798.42	38286.78
798.60	38497.72
798.78	38497.72
798.96	38436.28
799.14	38032.83
799.32	38397.37
799.51	38149.56
799.69	37723.58
799.87	38131.13
800.05	37649.86
800.23	37809.60
800.41	37410.25
800.59	37658.05
800.77	37447.11
800.95	37027.28
801.13	36992.46
801.31	36947.40
801.49	37252.55
801.67	37021.13
801.85	36660.69
802.03	37019.08
802.21	36902.35
802.39	36623.83
802.57	36806.09
802.75	36425.17
802.93	36769.23
803.11	36396.50
803.29	35921.37
803.47	36316.63
803.65	36386.26
803.83	36095.45
804.01	35980.76
804.19	35859.93
804.37	35694.05
804.55	35511.78
804.73	35708.38
804.91	35550.69
805.09	35304.93
805.27	35509.73
805.45	35610.08
805.63	35591.65
805.81	35673.57
805.99	35536.35
806.17	35096.04
806.35	34868.72
806.53	35091.94
806.71	34921.96
806.89	35212.77
807.07	34729.45
807.25	35030.51
807.43	34616.82
807.61	34602.48
807.79	34350.58
807.97	34188.79
808.15	34129.40
808.33	34409.97
808.51	34108.92
808.69	34127.35
808.87	33728.00
809.05	33777.15
809.23	33695.23
809.41	33586.69
809.59	33601.02
809.77	33684.99
809.95	33314.31
810.13	33711.61
810.31	33508.86
810.49	34049.53
810.67	33406.47
810.84	33404.42
811.02	33080.84
811.20	33433.09
811.38	33072.65
811.56	32810.51
811.74	32769.55
811.92	32900.62
812.10	33158.66
812.28	32878.09
812.46	32570.90
812.64	32798.22
812.82	32667.15
813.00	32863.75
813.18	32851.47
813.36	32124.44
813.53	32200.21
813.71	32529.94
813.89	32081.43
814.07	32003.61
814.25	32044.57
814.43	31858.20
814.61	31661.60
814.79	32003.61
814.97	31841.82
815.15	32214.55
815.33	31329.83
815.50	31442.46
815.68	31460.90
815.86	31424.03
816.04	31358.50
816.22	31161.89
816.40	31516.19
816.58	31252.00
816.76	30946.86
816.94	31276.58
817.11	31235.62
817.29	31356.45
817.47	31096.36
817.65	30701.10
817.83	30981.67
818.01	30914.09
818.19	30344.75
818.37	30647.85
818.54	30264.88
818.72	30242.35
818.90	30649.90
819.08	30305.84
819.26	30430.77
819.44	30322.23
819.62	30320.18
819.80	30250.55
819.97	30418.48
820.15	30139.96
820.33	30182.96
820.51	30361.14
820.69	29906.49
820.87	30225.97
821.05	30273.07
821.22	29922.87
821.40	29963.83
821.58	29924.92
821.76	29673.02
821.94	29724.22
822.12	29595.20
822.29	29511.23
822.47	29472.32
822.65	29650.49
822.83	29851.19
823.01	29544.00
823.19	29462.08
823.36	29236.80
823.54	29394.50
823.72	28913.22
823.90	28939.85
824.08	29066.82
824.25	28888.65
824.43	28964.42
824.61	28798.54
824.79	29032.00
824.97	28984.90
825.15	29001.29
825.32	28591.69
825.50	28773.96
825.68	28579.40
825.86	28649.03
826.04	28692.04
826.21	28272.21
826.39	28300.88
826.57	28499.53
826.75	28085.84
826.93	27856.47
827.10	28364.37
827.28	28132.95
827.46	28259.92
827.64	28245.58
827.81	28200.53
827.99	28071.51
828.17	28081.75
828.35	27846.23
828.53	27954.77
828.70	28044.88
828.88	27547.23
829.06	27897.43
829.24	27938.39
829.41	27571.80
829.59	27653.72
829.77	27686.49
829.95	27391.58
830.12	27356.77
830.30	27590.24
830.48	27799.13
830.66	27473.50
830.84	27448.93
831.01	27211.36
831.19	27188.83
831.37	27051.62
831.55	27465.31
831.72	27315.81
831.90	26805.86
832.08	27111.01
832.25	27025.00
832.43	27065.96
832.61	26689.13
832.79	26852.97
832.96	26809.96
833.14	26965.60
833.32	26981.99
833.50	27084.39
833.67	26613.35
833.85	26730.09
834.03	26566.25
834.20	26615.40
834.38	26730.09
834.56	26408.56
834.74	26228.34
834.91	26498.67
835.09	26525.29
835.27	26476.14
835.44	26232.43
835.62	25818.74
835.80	26254.96
835.98	26236.53
836.15	26244.72
836.33	26277.49
836.51	26226.29
836.68	26029.68
836.86	25839.22
837.04	26056.31
837.21	25968.24
837.39	25820.79
837.57	25863.80
837.75	25845.37
837.92	25745.02
838.10	25654.90
838.28	25335.42
838.45	25601.66
838.63	25638.52
838.81	25718.39
838.98	25448.06
839.16	25394.81
839.34	25581.18
839.51	25329.28
839.69	24860.29
839.87	25491.07
840.04	25165.44
840.22	25144.96
840.40	25243.26
840.57	25052.80
840.75	25142.91
840.93	24958.60
841.10	25314.94
841.28	25370.24
841.46	25112.19
841.63	25101.95
841.81	25132.67
841.98	24929.92
842.16	24819.33
842.34	24718.98
842.51	24712.84
842.69	25073.28
842.87	24512.14
843.04	25126.53
843.22	24669.83
843.40	24639.11
843.57	24389.26
843.75	24661.64
843.92	24528.52
844.10	24516.23
844.28	24551.05
844.45	24546.95
844.63	24569.48
844.81	24135.31
844.98	24333.96
845.16	24282.77
845.33	24229.52
845.51	24403.60
845.69	24192.65
845.86	24094.35
846.04	23969.43
846.21	24120.98
846.39	24043.15
846.57	23842.45
846.74	23944.85
846.92	24542.86
847.09	23840.40
847.27	23959.19
847.45	23821.97
847.62	23570.07
847.80	23789.20
847.97	23910.04
848.15	23713.43
848.32	23486.11
848.50	23647.90
848.68	23445.15
848.85	23670.42
849.03	23197.34
849.20	23541.40
849.38	23477.91
849.56	23400.09
849.73	23309.98
849.91	23160.48
850.08	23455.39
850.26	23105.18
850.43	23006.88
850.61	23232.16
850.78	23072.42
850.96	23197.34
851.14	22843.04
851.31	22955.68
851.49	22879.91
851.66	22992.55
851.84	22984.35
852.01	22752.93
852.19	22818.47
852.36	22916.77
852.54	22967.97
852.71	22697.64
852.89	22787.75
853.07	22697.64
853.24	23053.98
853.42	22730.41
853.59	22570.66
853.77	22605.48
853.94	22640.29
854.12	22654.63
854.29	22374.06
854.47	22668.97
854.64	22404.78
854.82	22441.64
854.99	22363.82
855.17	22509.22
855.34	22206.13
855.52	22240.94
855.69	22283.95
855.87	22515.37
856.04	22081.20
856.22	22339.24
856.39	21806.77
856.57	22009.52
856.74	22030.00
856.92	22044.34
857.09	22052.53
857.27	21718.71
857.44	22095.53
857.62	21966.51
857.79	21790.39
857.97	22132.40
858.14	21855.92
858.32	21628.60
858.49	21558.97
858.67	21800.63
858.84	21827.25
859.02	21575.35
859.19	21434.04
859.37	21638.84
859.54	21618.36
859.72	21763.76
859.89	21448.38
860.06	21548.73
860.24	21343.93
860.41	21626.55
860.59	21257.92
860.76	21366.46
860.94	21067.45
861.11	21282.49
861.29	21296.83
861.46	21079.74
861.64	21049.02
861.81	21198.52
861.98	20881.09
862.16	20684.48
862.33	20729.54
862.51	20676.29
862.68	20887.23
862.86	20956.86
863.03	20686.53
863.21	20971.20
863.38	20727.49
863.55	20979.39
863.73	20795.07
863.90	20623.05
864.08	20547.27
864.25	20410.06
864.43	20747.97
864.60	20336.33
864.77	20684.48
864.95	20637.38
865.12	20385.48
865.30	20463.30
865.47	20405.96
865.64	20258.51
865.82	20459.21
865.99	20682.44
866.17	20367.05
866.34	20111.05
866.51	20092.62
866.69	20188.88
866.86	20444.87
867.04	20115.15
867.21	20127.44
867.38	19949.26
867.56	20014.80
867.73	19810.00
867.91	19949.26
868.08	19955.41
868.25	19824.34
868.43	19773.14
868.60	19683.03
868.78	19685.08
868.95	19783.38
869.12	19920.59
869.30	19603.16
869.47	19869.39
869.64	19711.70
869.82	19467.99
869.99	19736.27
870.16	19640.02
870.34	19500.76
870.51	19736.27
870.69	19396.31
870.86	19324.63
871.03	19300.06
871.21	19312.35
871.38	19474.13
871.55	19128.03
871.73	19166.94
871.90	19054.30
872.07	19046.11
872.25	18894.56
872.42	19044.06
872.59	18910.94
872.77	19113.69
872.94	18996.96
873.11	19019.49
873.29	18732.77
873.46	18659.04
873.63	18788.07
873.81	18603.75
873.98	18476.77
874.15	18620.13
874.33	18462.44
874.50	18378.47
874.67	18816.74
874.85	18292.46
875.02	18454.25
875.19	18368.23
875.37	18253.55
875.54	18286.31
875.71	18435.81
875.88	17954.54
876.06	18147.05
876.23	17960.69
876.40	18132.72
876.58	17993.45
876.75	18054.89
876.92	18091.76
877.10	18196.20
877.27	18024.17
877.44	17854.19
877.61	17852.14
877.79	17751.79
877.96	17458.93
878.13	17561.33
878.31	17553.14
878.48	17567.48
878.65	17571.57
878.82	17407.73
879.00	17561.33
879.17	17768.18
879.34	17372.92
879.51	17254.14
879.69	17254.14
879.86	17469.17
880.03	17213.18
880.21	17176.31
880.38	17350.39
880.55	17399.54
880.72	17237.75
880.90	17063.68
881.07	17018.62
881.24	17200.89
881.41	17071.87
881.59	17032.96
881.76	17118.97
881.93	16584.45
882.10	16795.39
882.28	16953.09
882.45	17118.97
882.62	17172.22
882.79	16953.09
882.96	16623.36
883.14	16656.13
883.31	16803.58
883.48	16649.99
883.65	16774.91
883.83	17153.79
884.00	16877.31
884.17	16727.81
884.34	16752.38
884.51	16316.17
884.69	16641.79
884.86	16672.51
885.03	16670.47
885.20	16453.38
885.38	16590.59
885.55	16494.34
885.72	16525.06
885.89	16318.22
886.06	16457.48
886.24	16117.51
886.41	16363.27
886.58	16613.12
886.75	16580.36
886.92	16324.36
887.10	16549.64
887.27	16336.65
887.44	16191.24
887.61	16348.93
887.78	16307.98
887.95	16297.74
888.13	16064.27
888.30	15953.68
888.47	15871.76
888.64	15933.20
888.81	16047.88
888.99	16035.60
889.16	15922.96
889.33	15750.93
889.50	15851.28
889.67	15929.10
889.84	15726.35
890.01	15894.29
890.19	15828.75
890.36	15732.50
890.53	15572.75
890.70	15431.44
890.87	15619.86
891.04	15554.32
891.22	15572.75
891.39	15677.20
891.56	15413.01
891.73	15509.27
891.90	15417.11
892.07	15230.74
892.24	15441.68
892.42	15456.02
892.59	15720.21
892.76	15359.77
892.93	15150.87
893.10	15161.11
893.27	15472.40
893.44	15349.53
893.61	15294.23
893.79	15408.92
893.96	15114.01
894.13	15408.92
894.30	15384.34
894.47	15288.09
894.64	15329.05
894.81	15150.87
894.98	15273.75
895.15	15132.44
895.33	14995.23
895.50	14964.51
895.67	15263.51
895.84	15212.31
896.01	15032.09
896.18	15003.42
896.35	15255.32
896.52	15068.95
896.69	14884.64
896.86	15253.27
897.04	15025.95
897.21	14931.74
897.38	14919.45
897.55	14980.89
897.72	14931.74
897.89	15050.52
898.06	15056.67
898.23	15011.61
898.40	15150.87
898.57	14987.04
898.74	15058.71
898.91	14958.36
899.08	15040.28
899.26	14933.79
899.43	15060.76
899.60	14880.54
899.77	14886.68
899.94	14909.21
900.11	15046.43
900.28	14784.29
900.45	14808.86
900.62	14931.74
900.79	15195.93
900.96	14915.36
901.13	14913.31
901.30	14810.91
901.47	14847.77
901.64	14958.36
901.81	14874.40
901.98	14669.60
902.15	14939.93
902.32	14630.69
902.49	14919.45
902.66	14812.96
902.83	14812.96
903.01	15101.72
903.18	15087.39
903.35	14817.05
903.52	14886.68
903.69	15099.67
903.86	14876.44
904.03	15046.43
904.20	15042.33
904.37	14767.90
904.54	14921.50
904.71	14860.06
904.88	14712.61
905.05	14690.08
905.22	14778.14
905.39	14982.94
905.56	14831.39
905.73	14704.42
905.90	14812.96
906.07	14761.76
906.24	14788.38
906.41	14683.94
906.58	14860.06
906.75	14812.96
906.92	14753.57
907.09	14698.27
907.26	14980.89
907.43	14374.69
907.60	14731.04
907.77	14645.02
907.93	14802.72
908.10	14759.71
908.27	14731.04
908.44	14712.61
908.61	14919.45
908.78	14620.45
908.95	14452.52
909.12	14698.27
909.29	14806.81
909.46	14638.88
909.63	14829.34
909.80	14606.11
909.97	14724.90
910.14	14440.23
910.31	14724.90
910.48	14712.61
910.65	14231.33
910.82	14544.67
910.99	14548.77
911.16	14477.09
911.33	14563.11
911.50	14325.54
911.66	14440.23
911.83	14460.71
912.00	14276.39
912.17	14204.71
912.34	14327.59
912.51	14544.67
912.68	14110.50
912.85	14382.88
913.02	14186.28
913.19	14288.68
913.36	14147.37
913.53	14049.07
913.70	14075.69
913.86	14374.69
914.03	14063.40
914.20	14118.70
914.37	14069.55
914.54	14118.70
914.71	13971.24
914.88	14001.96
915.05	13887.28
915.22	13971.24
915.39	13944.62
915.55	13928.24
915.72	14059.31
915.89	13696.82
916.06	13698.86
916.23	13715.25
916.40	13969.19
916.57	13848.36
916.74	13657.90
916.91	13678.38
917.07	13352.76
917.24	13360.95
917.41	13438.77
917.58	13571.89
917.75	13420.34
917.92	13399.86
918.09	13446.96
918.26	13381.43
918.42	13328.18
918.59	13285.17
918.76	12928.83
918.93	13199.16
919.10	13012.79
919.27	13088.57
919.44	13231.93
919.60	13125.43
919.77	12994.36
919.94	13061.94
920.11	13039.42
920.28	12941.11
920.45	12752.70
920.61	12840.76
920.78	12711.74
920.95	12846.91
921.12	12707.65
921.29	12871.48
921.46	12658.49
921.62	12748.61
921.79	12685.12
921.96	12412.74
922.13	12420.93
922.30	12388.16
922.47	12341.06
922.63	12111.69
922.80	12216.13
922.97	12205.89
923.14	12345.16
923.31	12207.94
923.47	12019.53
923.64	12111.69
923.81	12005.19
923.98	12095.30
924.15	11874.12
924.32	12011.34
924.48	11958.09
924.65	12001.10
924.82	11886.41
924.99	11732.81
925.15	11339.60
925.32	11716.43
925.49	11405.14
925.66	11638.61
925.83	11657.04
925.99	11626.32
926.16	11558.74
926.33	11439.95
926.50	11247.44
926.67	11620.17
926.83	11292.50
927.00	11110.23
927.17	11048.79
927.34	10948.44
927.50	11226.96
927.67	11153.24
927.84	11206.48
928.01	11104.09
928.17	10880.86
928.34	10782.56
928.51	10739.55
928.68	10694.49
928.84	10717.02
929.01	10655.58
929.18	10422.11
929.35	10655.58
929.51	10430.30
929.68	10311.52
929.85	10440.54
930.02	10346.34
930.18	10225.51
930.35	10252.13
930.52	10344.29
930.69	10329.95
930.85	10162.02
931.02	10270.56
931.19	9963.37
931.36	10198.88
931.52	10252.13
931.69	10198.88
931.86	9938.79
932.02	9992.04
932.19	10043.24
932.36	9793.39
932.53	9840.49
932.69	9527.15
932.86	9744.24
933.03	9762.67
933.19	9607.02
933.36	9643.88
933.53	9557.87
933.70	9625.45
933.86	9441.14
934.03	9498.48
934.20	9176.95
934.36	9234.29
934.53	9322.35
934.70	9172.85
934.86	9205.62
935.03	9041.78
935.20	8925.05
935.36	8884.09
935.53	8742.78
935.70	8857.46
935.86	8748.92
936.03	8484.73
936.20	8419.20
936.36	8456.06
936.53	8517.50
936.70	8302.47
936.86	8515.45
937.03	8228.74
937.20	7980.93
937.36	8261.51
937.53	7880.58
937.70	7874.44
937.86	7714.70
938.03	7731.08
938.20	7892.87
938.36	7622.54
938.53	7659.40
938.70	7360.40
938.86	7356.30
939.03	7337.87
939.20	7276.43
939.36	7081.88
939.53	7024.53
939.70	7114.64
939.86	6999.96
940.03	6733.72
940.19	6872.98
940.36	6786.97
940.53	6578.08
940.69	6500.25
940.86	6506.40
941.03	6279.07
941.19	6432.67
941.36	6377.37
941.52	6252.45
941.69	6352.80
941.86	6131.62
942.02	6141.86
942.19	5998.50
942.35	6025.12
942.52	5846.95
942.69	5910.44
942.85	5865.38
943.02	5865.38
943.18	5832.62
943.35	5746.60
943.52	5775.27
943.68	5638.06
943.85	5668.78
944.01	5658.54
944.18	5509.04
944.35	5472.17
944.51	5488.56
944.68	5408.69
944.84	5402.54
945.01	5474.22
945.17	5457.84
945.34	5504.94
945.51	5427.12
945.67	5382.06
945.84	5412.78
946.00	5328.81
946.17	5326.77
946.33	5240.75
946.50	5394.35
946.67	5420.97
946.83	5242.80
947.00	5312.43
947.16	5285.81
947.33	5341.10
947.49	5377.97
947.66	5230.51
947.82	5259.18
947.99	5027.76
948.16	5173.17
948.32	5210.03
948.49	5334.96
948.65	5562.28
948.82	5271.47
948.98	5201.84
949.15	5150.64
949.31	5361.58
949.48	5312.43
949.64	5156.79
949.81	5177.26
949.97	5193.65
950.14	5230.51
950.30	5291.95
950.47	5431.21
950.63	5271.47
950.80	5357.49
950.96	5277.62
951.13	5257.14
951.30	5316.53
951.46	5212.08
951.63	5316.53
951.79	5375.92
951.96	5375.92
952.12	5267.38
952.29	5408.69
952.45	5300.14
952.62	5240.75
952.78	5345.20
952.94	5431.21
953.11	5437.36
953.27	5267.38
953.44	5459.88
953.60	5306.29
953.77	5400.49
953.93	5506.99
954.10	5429.17
954.26	5394.35
954.43	5437.36
954.59	5525.42
954.76	5529.52
954.92	5332.91
955.09	5361.58
955.25	5326.77
955.42	5347.25
955.58	5392.30
955.75	5541.80
955.91	5332.91
956.07	5343.15
956.24	5459.88
956.40	5539.76
956.57	5363.63
956.73	5382.06
956.90	5484.46
957.06	5459.88
957.23	5398.45
957.39	5402.54
957.56	5345.20
957.72	5453.74
957.88	5429.17
958.05	5537.71
958.21	5429.17
958.38	5375.92
958.54	5496.75
958.71	5603.24
958.87	5435.31
959.03	5402.54
959.20	5687.21
959.36	5515.18
959.53	5406.64
959.69	5361.58
959.85	5509.04
960.02	5359.53
960.18	5539.76
960.35	5398.45
960.51	5541.80
960.68	5384.11
960.84	5431.21
961.00	5439.40
961.17	5474.22
961.33	5365.68
961.50	5334.96
961.66	5511.08
961.82	5441.45
961.99	5484.46
962.15	5240.75
962.31	5212.08
962.48	5382.06
962.64	5472.17
962.81	5380.01
962.97	5386.16
963.13	5351.34
963.30	5289.90
963.46	5285.81
963.62	5349.29
963.79	5324.72
963.95	5400.49
964.12	5318.57
964.28	5371.82
964.44	5220.27
964.61	5318.57
964.77	5359.53
964.93	5611.43
965.10	5347.25
965.26	5390.25
965.42	5384.11
965.59	5304.24
965.75	5394.35
965.92	5408.69
966.08	5255.09
966.24	5302.19
966.41	5382.06
966.57	5273.52
966.73	5121.97
966.90	5332.91
967.06	5267.38
967.22	5320.62
967.39	5337.01
967.55	5185.46
967.71	5238.70
967.88	5142.45
968.04	5083.06
968.20	5154.74
968.37	5255.09
968.53	5117.87
968.69	5033.91
968.85	5171.12
969.02	5124.02
969.18	5287.86
969.34	5212.08
969.51	5150.64
969.67	5214.13
969.83	4951.99
970.00	5314.48
970.16	5074.87
970.32	5107.63
970.48	5085.11
970.65	5146.55
970.81	4964.28
970.97	5148.59
971.14	5023.67
971.30	5193.65
971.46	5005.24
971.63	5261.23
971.79	4941.75
971.95	4999.09
972.11	4984.76
972.28	5031.86
972.44	4943.80
972.60	4966.32
972.76	4951.99
972.93	4859.83
973.09	5056.43
973.25	4941.75
973.42	5031.86
973.58	4990.90
973.74	4872.12
973.90	5015.48
974.07	4816.82
974.23	4913.08
974.39	4908.98
974.55	4767.67
974.72	4675.51
974.88	4880.31
975.04	4767.67
975.20	4876.21
975.37	4831.16
975.53	4710.33
975.69	4798.39
975.85	4650.94
976.01	4673.46
976.18	4728.76
976.34	4755.38
976.50	4788.15
976.66	4949.94
976.83	4698.04
976.99	4685.75
977.15	4806.58
977.31	4712.38
977.47	4829.11
977.64	4777.91
977.80	4657.08
977.96	4706.23
978.12	4673.46
978.29	4693.94
978.45	4573.11
978.61	4487.10
978.77	4761.53
978.93	4530.11
979.10	4556.73
979.26	4556.73
979.42	4622.27
979.58	4489.15
979.74	4497.34
979.91	4560.83
980.07	4566.97
980.23	4435.90
980.39	4442.04
980.55	4501.44
980.71	4530.11
980.88	4335.55
981.04	4376.51
981.20	4448.19
981.36	4421.56
981.52	4493.24
981.68	4399.04
981.85	4376.51
982.01	4370.37
982.17	4415.42
982.33	4290.49
982.49	4495.29
982.65	4362.17
982.82	4433.85
982.98	4415.42
983.14	4298.69
983.30	4267.97
983.46	4427.71
983.62	4331.45
983.79	4368.32
983.95	4251.58
984.11	4050.88
984.27	4280.25
984.43	4321.21
984.59	4136.90
984.75	4378.56
984.91	4310.97
985.08	4134.85
985.24	4122.56
985.40	4247.49
985.56	4143.04
985.72	4173.76
985.88	4278.21
986.04	3999.68
986.20	4046.79
986.37	4147.14
986.53	3985.35
986.69	4198.34
986.85	4024.26
987.01	4128.70
987.17	4173.76
987.33	4132.80
987.49	3995.59
987.65	4081.60
987.82	4001.73
987.98	4048.83
988.14	4032.45
988.30	4001.73
988.46	3903.43
988.62	4102.08
988.78	3852.23
988.94	3880.90
989.10	3790.79
989.26	3776.45
989.42	3940.29
989.59	3876.80
989.75	3852.23
989.91	3942.34
990.07	3788.74
990.23	3911.62
990.39	3874.76
990.55	3837.89
990.71	3893.19
990.87	3772.36
991.03	3932.10
991.19	3835.85
991.35	3860.42
991.51	3882.95
991.67	3940.29
991.83	3811.27
992.00	3764.17
992.16	3786.69
992.32	3747.78
992.48	3796.93
992.64	3655.62
992.80	3807.17
992.96	3643.34
993.12	3700.68
993.28	3745.73
993.44	3735.50
993.60	3753.93
993.76	3620.81
993.92	3682.25
994.08	3688.39
994.24	3657.67
994.40	3645.38
994.56	3678.15
994.72	3559.37
994.88	3594.19
995.04	3608.52
995.20	3485.64
995.36	3481.55
995.52	3629.00
995.68	3600.33
995.84	3469.26
996.00	3622.86
996.16	3471.31
996.32	3506.12
996.48	3483.59
996.64	3616.71
996.80	3446.73
996.96	3506.12
997.12	3514.31
997.28	3368.91
997.44	3399.63
997.60	3553.23
997.76	3385.29
997.92	3495.88
998.08	3469.26
998.24	3352.52
998.40	3364.81
998.56	3381.20
998.72	3305.42
998.88	3270.61
999.04	3405.77
999.20	3540.94
999.36	3413.96
999.52	3502.03
999.68	3356.62
999.84	3252.17
1000.00	3411.92
1000.16	3375.05
1000.32	3233.74
1000.48	3481.55
1000.64	3321.81
1000.80	3375.05
1000.95	3147.73
1001.11	3346.38
1001.27	3069.91
1001.43	3258.32
1001.59	3192.78
1001.75	3170.26
1001.91	3135.44
1002.07	3151.82
1002.23	3153.87
1002.39	3188.69
1002.55	3162.06
1002.71	3186.64
1002.87	3147.73
1003.03	3153.87
1003.19	3166.16
1003.34	3133.39
1003.50	3018.71
1003.66	3219.41
1003.82	3184.59
1003.98	3192.78
1004.14	3090.38
1004.30	3028.95
1004.46	3053.52
1004.62	3084.24
1004.78	2965.46
1004.94	3082.19
1005.09	3092.43
1005.25	3055.57
1005.41	3045.33
1005.57	3033.04
1005.73	2928.60
1005.89	2994.13
1006.05	2967.51
1006.21	3043.28
1006.37	2949.08
1006.52	2953.17
1006.68	2887.64
1006.84	3080.14
1007.00	2959.31
1007.16	3006.42
1007.32	2889.68
1007.48	2965.46
1007.64	2936.79
1007.79	2891.73
1007.95	2910.16
1008.11	3018.71
1008.27	2865.11
1008.43	2926.55
1008.59	2887.64
1008.75	2924.50
1008.91	2885.59
1009.06	2875.35
1009.22	2885.59
1009.38	2805.72
1009.54	2842.58
1009.70	2770.90
1009.86	2842.58
1010.01	2805.72
1010.17	2789.33
1010.33	2852.82
1010.49	2750.42
1010.65	2904.02
1010.81	2674.65
1010.96	2731.99
1011.12	2656.22
1011.28	2746.33
1011.44	2799.57
1011.60	2797.53
1011.76	2650.07
1011.91	2752.47
1012.07	2701.27
1012.23	2596.82
1012.39	2631.64
1012.55	2650.07
1012.71	2643.93
1012.86	2709.46
1013.02	2629.59
1013.18	2688.98
1013.34	2682.84
1013.50	2799.57
1013.65	2688.98
1013.81	2682.84
1013.97	2666.46
1014.13	2637.78
1014.29	2637.78
1014.44	2715.61
1014.60	2611.16
1014.76	2527.19
1014.92	2617.30
1015.07	2600.92
1015.23	2590.68
1015.39	2602.97
1015.55	2615.26
1015.71	2516.95
1015.86	2443.23
1016.02	2510.81
1016.18	2400.22
1016.34	2566.10
1016.49	2541.53
1016.65	2559.96
1016.81	2498.52
1016.97	2478.04
1017.12	2637.78
1017.28	2418.65
1017.44	2377.69
1017.60	2486.23
1017.75	2527.19
1017.91	2453.47
1018.07	2432.99
1018.23	2465.75
1018.38	2453.47
1018.54	2498.52
1018.70	2467.80
1018.86	2320.35
1019.01	2371.55
1019.17	2461.66
1019.33	2486.23
1019.49	2435.03
1019.64	2461.66
1019.80	2422.75
1019.96	2449.37
1020.12	2437.08
1020.27	2301.92
1020.43	2426.84
1020.59	2471.90
1020.74	2453.47
1020.90	2392.03
1021.06	2344.92
1021.22	2432.99
1021.37	2371.55
1021.53	2293.72
1021.69	2342.88
1021.84	2279.39
1022.00	2357.21
1022.16	2287.58
1022.31	2318.30
1022.47	2334.68
1022.63	2379.74
1022.79	2183.13
1022.94	2342.88
1023.10	2414.56
1023.26	2277.34
1023.41	2326.49
1023.57	2303.96
1023.73	2377.69
1023.88	2287.58
1024.04	2310.11
1024.20	2211.81
1024.35	2320.35
1024.51	2285.53
1024.67	2197.47
1024.82	2396.12
1024.98	2213.85
1025.14	2283.49
1025.29	2176.99
1025.45	2273.25
1025.61	2142.18
1025.76	2254.81
1025.92	2246.62
1026.08	2281.44
1026.23	2246.62
1026.39	2275.29
1026.55	2228.19
1026.70	2162.66
1026.86	2312.16
1027.02	2170.85
1027.17	2181.09
1027.33	2160.61
1027.48	2150.37
1027.64	2187.23
1027.80	2101.22
1027.95	2242.53
1028.11	2109.41
1028.27	2179.04
1028.42	2217.95
1028.58	2099.17
1028.73	2115.55
1028.89	2101.22
1029.05	2228.19
1029.20	2269.15
>>>>>End Processed Spectral Data<<<<<
