SpectraSuite Data File
++++++++++++++++++++++++++++++++++++
Date: Fri Jun 02 14:57:20 CEST 2017
User: INFO_000
Dark Spectrum Present: No
Reference Spectrum Present: No
Number of Sampled Component Spectra: 1
Spectrometers: USB4H00879
Integration Time (usec): 80000 (USB4H00879)
Spectra Averaged: 1 (USB4H00879)
Boxcar Smoothing: 0 (USB4H00879)
Correct for Electrical Dark: No (USB4H00879)
Strobe/Lamp Enabled: No (USB4H00879)
Correct for Detector Non-linearity: No (USB4H00879)
Correct for Stray Light: No (USB4H00879)
Number of Pixels in Processed Spectrum: 3648
>>>>>Begin Processed Spectral Data<<<<<
345.13	1296.36
345.34	1296.36
345.56	1296.36
345.78	1282.03
345.99	1271.79
346.21	1687.53
346.42	1777.64
346.64	1650.66
346.86	1761.25
347.07	1658.85
347.29	1744.87
347.50	1720.29
347.72	1728.49
347.94	1787.88
348.15	1558.50
348.37	1605.61
348.59	1740.77
348.80	1628.14
349.02	1826.79
349.23	1918.95
349.45	1802.21
349.67	1816.55
349.88	1837.03
350.10	1935.33
350.31	1941.47
350.53	1884.13
350.75	1982.43
350.96	1791.97
351.18	1871.84
351.39	1796.07
351.61	1787.88
351.82	1943.52
352.04	1894.37
352.26	1898.47
352.47	1910.75
352.69	1951.71
352.90	1816.55
353.12	1814.50
353.34	1927.14
353.55	1898.47
353.77	1904.61
353.98	1880.04
354.20	1816.55
354.41	1933.28
354.63	1970.15
354.85	2072.54
355.06	1955.81
355.28	1757.16
355.49	1875.94
355.71	1912.80
355.92	1880.04
356.14	1925.09
356.35	1894.37
356.57	1896.42
356.79	1947.62
357.00	1920.99
357.22	1992.67
357.43	1884.13
357.65	1884.13
357.86	1927.14
358.08	1966.05
358.29	1943.52
358.51	1943.52
358.72	1957.86
358.94	1900.52
359.16	1978.34
359.37	1972.19
359.59	1961.95
359.80	1994.72
360.02	1986.53
360.23	1970.15
360.45	2043.87
360.66	1945.57
360.88	1904.61
361.09	2021.35
361.31	1916.90
361.52	1920.99
361.74	2009.06
361.95	2136.03
362.17	1912.80
362.38	2080.74
362.60	1937.38
362.81	1980.39
363.03	2011.11
363.24	1970.15
363.46	2050.02
363.67	2052.06
363.89	2011.11
364.10	2027.49
364.32	2002.91
364.53	2019.30
364.75	1912.80
364.96	2033.63
365.18	2045.92
365.39	2047.97
365.61	1953.76
365.82	2119.65
366.04	1982.43
366.25	1976.29
366.47	2052.06
366.68	2088.93
366.90	2047.97
367.11	2133.98
367.33	2064.35
367.54	2054.11
367.76	2027.49
367.97	2144.22
368.19	2035.68
368.40	2095.07
368.62	2019.30
368.83	1945.57
369.05	2047.97
369.26	2039.78
369.48	1994.72
369.69	2000.87
369.91	2074.59
370.12	1949.67
370.33	2113.50
370.55	2041.82
370.76	2009.06
370.98	2152.42
371.19	2090.98
371.41	2025.44
371.62	2052.06
371.84	1970.15
372.05	2148.32
372.27	2037.73
372.48	2107.36
372.69	2090.98
372.91	2129.89
373.12	2164.70
373.34	2064.35
373.55	2250.72
373.77	2183.13
373.98	2017.25
374.20	2195.42
374.41	2215.90
374.62	2170.85
374.84	2142.18
375.05	2160.61
375.27	2166.75
375.48	2217.95
375.70	2142.18
375.91	2172.89
376.12	2324.44
376.34	2170.85
376.55	2131.94
376.77	2220.00
376.98	2191.33
377.19	2090.98
377.41	2205.66
377.62	2172.89
377.84	2187.23
378.05	2299.87
378.27	2189.28
378.48	2377.69
378.69	2326.49
378.91	2273.25
379.12	2289.63
379.34	2258.91
379.55	2252.77
379.76	2306.01
379.98	2246.62
380.19	2215.90
380.41	2236.38
380.62	2346.97
380.83	2265.05
381.05	2199.52
381.26	2396.12
381.47	2195.42
381.69	2234.33
381.90	2428.89
382.12	2357.21
382.33	2306.01
382.54	2263.01
382.76	2310.11
382.97	2398.17
383.19	2256.86
383.40	2486.23
383.61	2297.82
383.83	2318.30
384.04	2285.53
384.25	2312.16
384.47	2451.42
384.68	2383.84
384.89	2306.01
385.11	2330.59
385.32	2217.95
385.54	2328.54
385.75	2357.21
385.96	2381.79
386.18	2467.80
386.39	2449.37
386.60	2303.96
386.82	2420.70
387.03	2475.99
387.24	2451.42
387.46	2412.51
387.67	2455.51
387.88	2541.53
388.10	2408.41
388.31	2519.00
388.52	2531.29
388.74	2557.91
388.95	2541.53
389.16	2531.29
389.38	2568.15
389.59	2631.64
389.80	2541.53
390.02	2619.35
390.23	2652.12
390.44	2582.49
390.66	2539.48
390.87	2523.10
391.08	2629.59
391.30	2656.22
391.51	2682.84
391.72	2666.46
391.94	2670.55
392.15	2645.98
392.36	2625.50
392.58	2568.15
392.79	2680.79
393.00	2770.90
393.22	2711.51
393.43	2820.05
393.64	2828.24
393.85	2789.33
394.07	2803.67
394.28	2738.13
394.49	2746.33
394.71	2713.56
394.92	2830.29
395.13	2633.69
395.35	2777.05
395.56	2795.48
395.77	2869.20
395.98	2848.72
396.20	2906.07
396.41	2844.63
396.62	2887.64
396.84	2775.00
397.05	2910.16
397.26	2940.88
397.47	2994.13
397.69	2836.44
397.90	3071.95
398.11	2901.97
398.32	2877.40
398.54	2918.36
398.75	2996.18
398.96	3045.33
399.18	3000.27
399.39	2895.83
399.60	3100.62
399.81	2955.22
400.03	3035.09
400.24	3188.69
400.45	2985.94
400.66	3127.25
400.88	3018.71
401.09	3145.68
401.30	3088.34
401.51	3160.02
401.73	3092.43
401.94	3237.84
402.15	3090.38
402.36	3186.64
402.58	3149.78
402.79	3172.30
403.00	3084.24
403.21	3219.41
403.43	3303.37
403.64	3162.06
403.85	3211.22
404.06	3317.71
404.27	3086.29
404.49	3176.40
404.70	3225.55
404.91	3243.98
405.12	3303.37
405.34	3291.09
405.55	3522.51
405.76	3135.44
405.97	3256.27
406.19	3350.48
406.40	3237.84
406.61	3239.89
406.82	3330.00
407.03	3313.61
407.25	3325.90
407.46	3444.68
407.67	3530.70
407.88	3522.51
408.09	3370.96
408.31	3424.20
408.52	3499.98
408.73	3344.33
408.94	3209.17
409.15	3475.40
409.37	3491.79
409.58	3424.20
409.79	3499.98
410.00	3655.62
410.21	3483.59
410.43	3479.50
410.64	3313.61
410.85	3545.03
411.06	3567.56
411.27	3571.66
411.48	3559.37
411.70	3612.62
411.91	3522.51
412.12	3551.18
412.33	3536.84
412.54	3540.94
412.76	3649.48
412.97	3747.78
413.18	3514.31
413.39	3647.43
413.60	3674.06
413.81	3647.43
414.03	3585.99
414.24	3635.14
414.45	3782.60
414.66	3491.79
414.87	3762.12
415.08	3727.30
415.30	3764.17
415.51	3702.73
415.72	3657.67
415.93	3702.73
416.14	3606.47
416.35	3803.08
416.56	3733.45
416.78	3758.02
416.99	3811.27
417.20	3829.70
417.41	3858.37
417.62	3876.80
417.83	3940.29
418.04	3899.33
418.26	3844.04
418.47	3968.96
418.68	3899.33
418.89	3891.14
419.10	4061.12
419.31	4014.02
419.52	4061.12
419.73	3942.34
419.95	4118.47
420.16	3831.75
420.37	3864.52
420.58	4016.07
420.79	3913.67
421.00	3944.39
421.21	4173.76
421.42	4061.12
421.63	4161.47
421.85	4089.79
422.06	4081.60
422.27	4167.62
422.48	4206.53
422.69	4128.70
422.90	4270.01
423.11	4093.89
423.32	4302.78
423.53	4259.78
423.75	4329.41
423.96	4519.87
424.17	4231.10
424.38	4411.32
424.59	4392.89
424.80	4538.30
425.01	4274.11
425.22	4257.73
425.43	4370.37
425.64	4591.55
425.85	4630.46
426.06	4503.48
426.28	4542.39
426.49	4442.04
426.70	4413.37
426.91	4491.20
427.12	4747.19
427.33	4579.26
427.54	4509.63
427.75	4566.97
427.96	4878.26
428.17	4759.48
428.38	4691.90
428.59	4804.53
428.80	4640.70
429.01	4794.29
429.23	4818.87
429.44	4874.17
429.65	4906.93
429.86	4941.75
430.07	4822.97
430.28	4751.29
430.49	4925.36
430.70	5113.78
430.91	5105.59
431.12	5025.72
431.33	5142.45
431.54	5126.07
431.75	5017.52
431.96	5062.58
432.17	5156.79
432.38	5081.01
432.59	5369.77
432.80	5031.86
433.01	5275.57
433.22	5222.32
433.43	5279.66
433.64	5377.97
433.85	5167.03
434.06	5300.14
434.27	5115.83
434.49	5365.68
434.70	5347.25
434.91	5410.73
435.12	5316.53
435.33	5384.11
435.54	5451.69
435.75	5199.79
435.96	5402.54
436.17	5181.36
436.38	5558.19
436.59	5631.91
436.80	5517.23
437.01	5760.94
437.22	5623.72
437.43	5609.39
437.64	5664.68
437.85	5752.74
438.06	5898.15
438.27	5615.53
438.48	5623.72
438.69	5892.01
438.90	5803.94
439.11	5664.68
439.32	5892.01
439.53	5853.09
439.74	5812.14
439.95	5935.01
440.16	5896.10
440.37	5998.50
440.57	5709.74
440.78	6004.64
440.99	5959.59
441.20	5951.40
441.41	5822.38
441.62	5971.88
441.83	5892.01
442.04	6135.71
442.25	5965.73
442.46	6080.42
442.67	6078.37
442.88	6510.49
443.09	5984.16
443.30	6057.89
443.51	6223.78
443.72	6492.06
443.93	6191.01
444.14	6471.58
444.35	6360.99
444.56	6279.07
444.77	6360.99
444.98	6469.53
445.19	6408.09
445.40	6399.90
445.61	6514.59
445.81	6725.53
446.02	6627.23
446.23	6580.12
446.44	6326.18
446.65	6610.84
446.86	6549.40
447.07	6645.66
447.28	6866.84
447.49	6762.39
447.70	6639.51
447.91	6791.06
448.12	6780.82
448.33	6965.14
448.54	6805.40
448.74	6758.30
448.95	6834.07
449.16	6676.38
449.37	7114.64
449.58	6842.26
449.79	6983.57
450.00	6801.30
450.21	7122.84
450.42	7032.72
450.63	7137.17
450.84	7131.03
451.05	6899.61
451.25	7045.01
451.46	7088.02
451.67	7278.48
451.88	7255.95
452.09	7378.83
452.30	7133.08
452.51	7092.12
452.72	7344.02
452.93	7561.10
453.13	7217.04
453.34	7507.85
453.55	7415.69
453.76	7370.64
453.97	7802.76
454.18	7561.10
454.39	7636.88
454.60	7503.76
454.81	7561.10
455.01	7808.90
455.22	7432.08
455.43	7726.99
455.64	7853.96
455.85	7964.55
456.06	8122.24
456.27	8050.57
456.48	7884.68
456.68	7942.02
456.89	8095.62
457.10	8075.14
457.31	8021.89
457.52	8069.00
457.73	8277.89
457.94	8445.82
458.14	7999.37
458.35	8599.42
458.56	8314.75
458.77	8261.51
458.98	8607.61
459.19	8314.75
459.39	8499.07
459.60	8712.06
459.81	8454.02
460.02	8714.11
460.23	8591.23
460.44	9002.87
460.65	8796.03
460.85	8742.78
461.06	8828.79
461.27	8681.34
461.48	8982.39
461.69	9052.02
461.89	8910.71
462.10	9156.47
462.31	8753.02
462.52	9037.69
462.73	9109.36
462.94	9201.52
463.14	9125.75
463.35	9095.03
463.56	9510.77
463.77	9582.45
463.98	9289.59
464.18	9449.33
464.39	9760.62
464.60	9748.33
464.81	9590.64
465.02	9539.44
465.23	9801.58
465.43	9711.47
465.64	9883.50
465.85	9748.33
466.06	9668.46
466.27	9985.90
466.47	10004.33
466.68	10094.44
466.89	9793.39
467.10	10149.73
467.30	9820.01
467.51	10213.22
467.72	10530.66
467.93	10108.77
468.14	10399.59
468.34	10508.13
468.55	10442.59
468.76	10631.01
468.97	10477.41
469.17	10534.75
469.38	10821.47
469.59	10680.16
469.80	10626.91
470.01	10891.10
470.21	10798.94
470.42	11024.22
470.63	11229.01
470.84	10833.75
471.04	11409.23
471.25	11067.22
471.46	11112.28
471.67	11272.02
471.87	11450.19
472.08	11646.80
472.29	11624.27
472.50	11358.03
472.70	11599.70
472.91	11607.89
473.12	12044.10
473.33	11800.40
473.53	12152.65
473.74	11974.47
473.95	12115.78
474.16	12230.47
474.36	12189.51
474.57	12451.65
474.78	12552.00
474.99	12130.12
475.19	12449.60
475.40	12580.67
475.61	12619.58
475.81	12685.12
476.02	13035.32
476.23	12762.94
476.44	13166.39
476.64	13416.24
476.85	13559.60
477.06	13381.43
477.27	13410.10
477.47	13412.15
477.68	13498.16
477.89	13762.35
478.09	13791.02
478.30	13967.15
478.51	13610.80
478.71	14004.01
478.92	14141.22
479.13	14272.29
479.34	14042.92
479.54	14378.79
479.75	14190.38
479.96	14554.91
480.16	14440.23
480.37	14626.59
480.58	14819.10
480.78	14890.78
480.99	14778.14
481.20	15032.09
481.41	15030.04
481.61	15259.42
481.82	15175.45
482.03	15306.52
482.23	15298.33
482.44	15281.94
482.65	15525.65
482.85	15718.16
483.06	15671.06
483.27	15679.25
483.47	15736.59
483.68	15937.29
483.89	16051.98
484.09	16039.69
484.30	16199.43
484.51	16506.63
484.71	16465.67
484.92	16357.13
485.13	16889.60
485.33	16609.03
485.54	16508.68
485.75	16971.52
485.95	16946.94
486.16	16805.63
486.37	17391.35
486.57	17082.11
486.78	17096.44
486.98	16971.52
487.19	17630.96
487.40	17698.55
487.60	17667.83
487.81	17856.24
488.02	17673.97
488.22	17743.60
488.43	18067.18
488.64	17786.61
488.84	18181.87
489.05	18345.70
489.25	18188.01
489.46	18589.41
489.67	18413.29
489.87	18693.86
490.08	18478.82
490.29	18697.95
490.49	19181.28
490.70	19046.11
490.90	19125.98
491.11	18941.66
491.32	19386.07
491.52	19304.15
491.73	19453.66
491.94	19603.16
492.14	19410.65
492.35	19764.95
492.55	19760.85
492.76	20031.18
492.97	20049.61
493.17	19955.41
493.38	19984.08
493.58	20182.73
493.79	20164.30
494.00	20045.52
494.20	20233.93
494.41	20608.71
494.61	20582.09
494.82	20702.92
495.02	20645.57
495.23	20778.69
495.44	20915.90
495.64	21092.03
495.85	21180.09
496.05	21415.61
496.26	21225.15
496.47	21546.68
496.67	21350.07
496.88	21604.02
497.08	21325.50
497.29	21835.44
497.49	21796.53
497.70	21829.30
497.91	22019.76
498.11	22159.02
498.32	22171.31
498.52	22177.45
498.73	22742.69
498.93	22388.39
499.14	22609.58
499.34	22513.32
499.55	22847.14
499.76	22462.12
499.96	22679.21
500.17	22865.57
500.37	22996.64
500.58	22884.00
500.78	23078.56
500.99	23148.19
501.19	23445.15
501.40	23418.52
501.60	23418.52
501.81	23520.92
502.02	23762.58
502.22	23475.87
502.43	23690.90
502.63	23738.01
502.84	24080.02
503.04	24305.29
503.25	24112.78
503.45	24149.65
503.66	24411.79
503.86	24168.08
504.07	24323.72
504.27	24190.61
504.48	24823.43
504.68	24497.80
504.89	24688.26
505.09	24815.24
505.30	24876.68
505.50	24954.50
505.71	24907.40
505.91	24854.15
506.12	25138.82
506.32	25046.66
506.53	24925.83
506.73	25450.11
506.94	25237.12
507.14	25165.44
507.35	25536.12
507.55	25468.54
507.76	25538.17
507.96	25529.98
508.17	25798.26
508.37	25392.76
508.58	25794.17
508.78	26031.73
508.99	26142.32
509.19	26177.14
509.40	26580.59
509.60	26164.85
509.81	26467.95
510.01	25876.09
510.22	26170.99
510.42	26631.79
510.63	26707.56
510.83	26476.14
511.04	26510.96
511.24	26986.08
511.44	26543.72
511.65	26736.23
511.85	26873.45
512.06	27045.48
512.26	27215.46
512.47	27289.18
512.67	27053.67
512.88	27280.99
513.08	27016.80
513.29	27414.11
513.49	27666.01
513.69	27104.87
513.90	27512.41
514.10	27883.09
514.31	27592.28
514.51	27676.25
514.72	27934.29
514.92	27698.78
515.13	28069.46
515.33	28120.66
515.53	27776.60
515.74	27924.05
515.94	28294.74
516.15	28218.96
516.35	27864.66
516.56	28575.31
516.76	28354.13
516.96	28354.13
517.17	28548.68
517.37	28825.16
517.58	28292.69
517.78	28567.12
517.99	28773.96
518.19	28999.24
518.39	29009.48
518.60	29433.41
518.80	28890.70
519.01	29281.86
519.21	29255.23
519.41	29363.78
519.62	29476.41
519.82	29556.28
520.03	29826.62
520.23	29707.83
520.43	29716.03
520.64	30006.84
520.84	30086.71
521.05	29828.66
521.25	29777.47
521.45	30248.50
521.66	30244.40
521.86	30049.85
522.07	30195.25
522.27	30451.25
522.47	30488.11
522.68	30907.94
522.88	30563.89
523.08	30848.55
523.29	30823.98
523.49	30856.75
523.70	30826.03
523.90	31313.44
524.10	30885.42
524.31	31458.85
524.51	30586.41
524.71	31698.46
524.92	31176.23
525.12	31501.86
525.33	31417.89
525.53	31634.97
525.73	31815.19
525.94	31796.76
526.14	32058.90
526.34	32120.34
526.55	31893.02
526.75	31950.36
526.95	32056.85
527.16	32284.18
527.36	32421.39
527.56	32671.25
527.77	32421.39
527.97	32351.76
528.17	32847.37
528.38	32720.40
528.58	32951.82
528.78	33056.26
528.99	32777.74
529.19	33283.59
529.39	33046.02
529.60	33482.24
529.80	33316.36
530.00	33349.12
530.21	33652.22
530.41	33576.45
530.61	33586.69
530.82	33605.12
531.02	33687.04
531.22	33682.94
531.43	33918.46
531.63	33814.01
531.83	34215.41
532.04	34547.18
532.24	34227.70
532.44	34395.64
532.64	34698.73
532.85	34993.64
533.05	34489.84
533.25	34962.92
533.46	34694.64
533.66	35268.07
533.86	35089.90
534.07	35341.80
534.27	35159.53
534.47	35491.30
534.67	35837.41
534.88	35147.24
535.08	35526.11
535.28	35339.75
535.49	35722.72
535.69	36109.78
535.89	36001.24
536.09	36142.55
536.30	36322.77
536.50	36079.07
536.70	36304.34
536.91	36384.21
537.11	36558.29
537.31	36591.06
537.51	36492.76
537.72	36969.93
537.92	37043.66
538.12	37158.34
538.32	36992.46
538.53	37256.65
538.73	37051.85
538.93	37060.04
539.13	37305.80
539.34	36988.36
539.54	37113.29
539.74	37234.12
539.94	37397.96
540.15	37238.22
540.35	37883.33
540.55	37725.63
540.75	37664.19
540.96	37914.05
541.16	37774.78
541.36	37705.15
541.56	37891.52
541.77	38204.86
541.97	38053.31
542.17	38206.90
542.37	38231.48
542.58	37973.44
542.78	38432.18
542.98	38428.09
543.18	38401.46
543.38	38815.15
543.59	38649.27
543.79	38350.26
543.99	38815.15
544.19	38622.64
544.40	38663.60
544.60	39304.62
544.80	38970.80
545.00	38874.54
545.20	39314.86
545.41	38479.28
545.61	39259.56
545.81	39478.69
546.01	39194.03
546.21	39474.60
546.42	38944.17
546.62	39251.37
546.82	39126.44
547.02	39388.58
547.22	39490.98
547.43	39585.19
547.63	39640.48
547.83	39507.37
548.03	39208.36
548.23	39921.05
548.44	39763.36
548.64	39966.11
548.84	39681.44
549.04	40037.79
549.24	40031.65
549.45	40355.22
549.65	39796.13
549.85	39937.44
550.05	40172.96
550.25	40109.47
550.45	40775.06
550.66	40707.47
550.86	40291.74
551.06	40252.83
551.26	40469.91
551.46	40572.31
551.66	40338.84
551.87	40447.38
552.07	40365.46
552.27	40291.74
552.47	40261.02
552.67	40893.84
552.87	40471.96
553.07	40957.33
553.28	40605.08
553.48	40840.59
553.68	40379.80
553.88	41067.92
554.08	40793.49
554.28	40572.31
554.48	40611.22
554.69	40844.69
554.89	40830.35
555.09	41022.86
555.29	40711.57
555.49	41031.05
555.69	41579.91
555.89	40945.04
556.10	41497.99
556.30	40787.35
556.50	40893.84
556.70	40990.09
556.90	41108.88
557.10	41598.34
557.30	41135.50
557.50	41602.44
557.70	41739.65
557.91	42055.04
558.11	41272.71
558.31	41698.69
558.51	41530.76
558.71	41872.77
558.91	42128.77
559.11	41729.41
559.31	41809.28
559.51	41645.44
559.72	41770.37
559.92	42018.17
560.12	41510.28
560.32	41952.64
560.52	41694.60
560.72	41815.43
560.92	41690.50
561.12	41934.21
561.32	42874.23
561.52	42368.38
561.72	42419.58
561.93	41979.26
562.13	41944.45
562.33	42265.98
562.53	42628.47
562.73	42085.76
562.93	42001.79
563.13	42198.40
563.33	41878.91
563.53	42300.79
563.73	41647.49
563.93	42042.75
564.13	42403.19
564.33	42489.21
564.53	42253.69
564.74	42964.34
564.94	42311.03
565.14	42780.02
565.34	42308.99
565.54	42761.59
565.74	42980.72
565.94	42767.73
566.14	42689.91
566.34	42749.30
566.54	42886.51
566.74	42284.41
566.94	42802.55
567.14	42919.28
567.34	42737.01
567.54	42892.66
567.74	43199.85
567.94	42890.61
568.14	43001.20
568.34	43089.26
568.54	43234.67
568.74	43244.91
568.94	43066.73
569.14	43181.42
569.34	43550.06
569.54	43160.94
569.75	42683.76
569.95	43242.86
570.15	43787.62
570.35	43525.48
570.55	43558.25
570.75	43455.85
570.95	43658.60
571.15	43789.67
571.35	43855.20
571.55	43933.03
571.75	43287.92
571.95	43779.43
572.15	43896.16
572.35	44248.41
572.55	43593.06
572.75	43627.88
572.95	44258.65
573.15	44086.62
573.35	43865.44
573.55	43771.24
573.75	43963.75
573.95	44299.61
574.15	43930.98
574.35	44262.75
574.55	44184.93
574.75	44098.91
574.95	44148.06
575.15	44301.66
575.34	44877.14
575.54	44623.19
575.74	44782.93
575.94	44793.17
576.14	44440.92
576.34	44776.79
576.54	44981.59
576.74	45020.50
576.94	44580.18
577.14	45004.11
577.34	45399.37
577.54	44936.53
577.74	45090.13
577.94	45282.64
578.14	45004.11
578.34	45364.56
578.54	44991.83
578.74	45231.44
578.94	45413.71
579.14	45483.34
579.34	45550.92
579.54	45552.97
579.74	45868.36
579.94	45878.60
580.13	46034.24
580.33	45925.70
580.53	45798.73
580.73	45935.94
580.93	45755.72
581.13	45931.84
581.33	46167.36
581.53	46189.89
581.73	46499.13
581.93	46185.79
582.13	46495.03
582.33	46288.19
582.53	46714.17
582.73	46462.27
582.92	46329.15
583.12	46665.02
583.32	46619.96
583.52	46533.95
583.72	47293.74
583.92	46634.30
584.12	46923.06
584.32	47660.33
584.52	46726.46
584.72	47246.64
584.92	47101.23
585.11	47748.39
585.31	47535.40
585.51	47242.54
585.71	46921.01
585.91	47514.92
586.11	47357.23
586.31	47613.23
586.51	47734.06
586.71	47828.26
586.91	47936.80
587.10	48049.44
587.30	47928.61
587.50	48274.72
587.70	48276.77
587.90	48094.50
588.10	48301.34
588.30	48235.81
588.50	48395.55
588.69	48522.52
588.89	48076.07
589.09	48366.88
589.29	48379.17
589.49	48811.29
589.69	48246.05
589.89	48723.22
590.08	48778.52
590.28	48354.59
590.48	49024.28
590.68	48549.15
590.88	49081.62
591.08	49030.42
591.28	48583.96
591.47	49501.45
591.67	49304.85
591.87	49366.29
592.07	49435.92
592.27	49523.98
592.47	49358.09
592.67	49300.75
592.86	49509.64
593.06	49243.41
593.26	49634.57
593.46	49640.71
593.66	49489.16
593.86	49571.08
594.05	49863.94
594.25	49825.03
594.45	49331.47
594.65	50009.35
594.85	49710.35
595.05	50156.80
595.24	50261.25
595.44	49812.74
595.64	50230.53
595.84	50484.48
596.04	50492.67
596.23	50248.96
596.43	50263.30
596.63	50441.47
596.83	50865.40
597.03	50672.89
597.22	50656.51
597.42	50605.31
597.62	50664.70
597.82	51293.43
598.02	50910.46
598.21	51111.16
598.41	50806.01
598.61	51436.78
598.81	51356.91
599.01	51682.54
599.20	51463.41
599.40	51557.61
599.60	51641.58
599.80	51596.52
600.00	51973.35
600.19	51840.23
600.39	51647.72
600.59	52090.09
600.79	52053.22
600.98	52096.23
601.18	52280.55
601.38	51838.18
601.58	52245.73
601.78	52151.52
601.97	52274.40
602.17	52804.83
602.37	52468.96
602.57	52352.23
602.76	53019.86
602.96	52460.77
603.16	53021.91
603.36	52684.00
603.55	53290.19
603.75	52456.67
603.95	53073.11
604.15	52849.88
604.34	53284.05
604.54	53130.45
604.74	53269.72
604.94	53282.00
605.13	53451.98
605.33	53355.73
605.53	53505.23
605.73	53959.88
605.92	53419.22
606.12	53818.57
606.32	54068.42
606.52	53646.54
606.71	54260.93
606.91	54285.51
607.11	53707.98
607.30	54113.48
607.50	54031.56
607.70	54066.38
607.90	53982.41
608.09	53927.11
608.29	54244.55
608.49	54449.35
608.68	54297.80
608.88	54490.30
609.08	54523.07
609.28	54652.09
609.47	54371.52
609.67	54877.37
609.87	54643.90
610.06	54969.53
610.26	54641.85
610.46	55035.06
610.66	54404.29
610.85	54852.80
611.05	54799.55
611.25	54762.68
611.44	54793.40
611.64	55002.30
611.84	55078.07
612.03	54705.34
612.23	55448.75
612.43	54901.95
612.62	54803.64
612.82	55192.76
613.02	55205.05
613.21	55207.09
613.41	55002.30
613.61	55418.03
613.80	54592.70
614.00	55579.82
614.20	55397.55
614.39	55639.22
614.59	55514.29
614.79	55428.27
614.98	55383.22
615.18	55645.36
615.38	55334.07
615.57	55473.33
615.77	55776.43
615.97	55383.22
616.16	55706.80
616.36	55418.03
616.56	55987.37
616.75	55755.95
616.95	55784.62
617.15	55557.30
617.34	55381.17
617.54	55760.05
617.74	55706.80
617.93	55778.48
618.13	55319.73
618.32	55489.71
618.52	55432.37
618.72	55188.66
618.91	56005.80
619.11	55528.62
619.31	55807.15
619.50	55694.51
619.70	55686.32
619.90	55698.61
620.09	55743.66
620.29	55645.36
620.48	55938.22
620.68	55944.36
620.88	55440.56
621.07	55882.92
621.27	55932.07
621.46	55477.43
621.66	55270.58
621.86	55794.86
622.05	55063.74
622.25	56054.95
622.44	55727.28
622.64	55657.65
622.84	56018.09
623.03	55784.62
623.23	55919.79
623.42	55844.01
623.62	55936.17
623.82	55987.37
624.01	56075.43
624.21	56149.16
624.40	55604.40
624.60	55258.29
624.80	55813.29
624.99	55661.74
625.19	55186.61
625.38	55788.72
625.58	55956.65
625.77	55784.62
625.97	55514.29
626.17	55516.34
626.36	55481.52
626.56	55823.53
626.75	55008.44
626.95	55923.88
627.14	55657.65
627.34	56333.48
627.54	55815.34
627.73	55624.88
627.93	55792.81
628.12	55092.41
628.32	55565.49
628.51	55688.37
628.71	56108.20
628.90	56009.90
629.10	55768.24
629.30	55921.83
629.49	55807.15
629.69	55686.32
629.88	55739.57
630.08	56448.16
630.27	56507.55
630.47	56208.55
630.66	55612.59
630.86	56034.47
631.05	55354.55
631.25	56161.45
631.44	55884.97
631.64	55927.98
631.84	55884.97
632.03	56296.61
632.23	55891.12
632.42	56276.13
632.62	56052.90
632.81	55479.47
633.01	55872.68
633.20	55841.96
633.40	56226.98
633.59	56005.80
633.79	55626.93
633.98	56194.21
634.18	56251.56
634.37	55944.36
634.57	56231.08
634.76	56173.73
634.96	56075.43
635.15	56165.54
635.35	56128.68
635.54	55780.52
635.74	56048.81
635.93	55968.94
636.13	55921.83
636.32	56050.86
636.52	55696.56
636.71	56009.90
636.91	56255.65
637.10	56321.19
637.30	56202.41
637.49	56181.93
637.69	56235.17
637.88	56476.83
638.08	55913.64
638.27	56429.73
638.46	56482.98
638.66	55841.96
638.85	56351.91
639.05	56177.83
639.24	56169.64
639.44	55921.83
639.63	56327.33
639.83	55880.88
640.02	55917.74
640.22	56048.81
640.41	56681.63
640.61	55434.42
640.80	56136.87
640.99	55911.59
641.19	56575.14
641.38	56259.75
641.58	56284.33
641.77	56005.80
641.97	55985.32
642.16	56298.66
642.36	56151.21
642.55	56650.91
642.74	55946.41
642.94	56763.55
643.13	56288.42
643.33	56612.00
643.52	56169.64
643.72	56480.93
643.91	56214.69
644.10	56341.67
644.30	56622.24
644.49	56313.00
644.69	56423.59
644.88	56251.56
645.08	55704.75
645.27	56417.44
645.46	56042.66
645.66	56976.54
645.85	56235.17
646.05	56775.84
646.24	56632.48
646.43	56595.62
646.63	56972.44
646.82	56796.32
647.02	56521.89
647.21	56847.52
647.40	56507.55
647.60	56632.48
647.79	56616.10
647.99	56269.99
648.18	56257.70
648.37	56771.74
648.57	55985.32
648.76	56562.85
648.96	56288.42
649.15	56380.58
649.34	56671.39
649.54	56534.18
649.73	56276.13
649.92	56685.73
650.12	56423.59
650.31	56509.60
650.51	56915.10
650.70	56800.41
650.89	56288.42
651.09	57134.23
651.28	56378.53
651.47	56573.09
651.67	56624.29
651.86	57539.73
652.06	55522.48
652.25	56472.74
652.44	56022.19
652.64	56206.50
652.83	56538.27
653.02	56624.29
653.22	56411.30
653.41	56478.88
653.60	56487.07
653.80	56360.10
653.99	56876.19
654.18	56392.87
654.38	56521.89
654.57	56532.13
654.76	56343.72
654.96	56249.51
655.15	56167.59
655.34	56419.49
655.54	56386.72
655.73	56497.31
655.92	56673.44
656.12	56001.71
656.31	56292.52
656.50	56437.92
656.70	56165.54
656.89	56489.12
657.08	56331.43
657.28	56368.29
657.47	56188.07
657.66	56267.94
657.86	56100.01
658.05	56513.70
658.24	56536.23
658.43	55962.79
658.63	56812.70
658.82	56917.15
659.01	56671.39
659.21	56714.40
659.40	56564.90
659.59	56612.00
659.79	56444.07
659.98	56634.53
660.17	56661.15
660.36	56464.55
660.56	56325.28
660.75	56554.66
660.94	56190.12
661.14	56519.84
661.33	56538.27
661.52	56231.08
661.71	56087.72
661.91	56183.97
662.10	56136.87
662.29	56718.49
662.49	56597.66
662.68	56048.81
662.87	55956.65
663.06	56779.93
663.26	56116.39
663.45	56677.54
663.64	56022.19
663.83	56419.49
664.03	56489.12
664.22	56464.55
664.41	56403.11
664.60	56151.21
664.80	56218.79
664.99	56325.28
665.18	56005.80
665.37	55880.88
665.57	56366.24
665.76	55426.23
665.95	56204.45
666.14	55725.23
666.34	56104.10
666.53	55981.23
666.72	55661.74
666.91	55463.09
667.11	56081.58
667.30	55835.82
667.49	55794.86
667.68	55997.61
667.87	55721.13
668.07	56208.55
668.26	55762.09
668.45	56190.12
668.64	55739.57
668.84	56439.97
669.03	56104.10
669.22	55753.90
669.41	56011.95
669.60	55985.32
669.80	55743.66
669.99	56513.70
670.18	56063.14
670.37	56087.72
670.57	56435.87
670.76	55579.82
670.95	56011.95
671.14	55798.96
671.33	55491.76
671.53	55798.96
671.72	55921.83
671.91	55598.26
672.10	55567.54
672.29	55481.52
672.48	55747.76
672.68	55893.16
672.87	55020.73
673.06	55551.15
673.25	55121.08
673.44	55514.29
673.64	55243.96
673.83	55276.72
674.02	55397.55
674.21	55194.81
674.40	55618.74
674.59	55663.79
674.79	55831.72
674.98	55397.55
675.17	55588.02
675.36	55571.63
675.55	55671.98
675.74	55170.23
675.94	55071.93
676.13	55563.44
676.32	55456.95
676.51	55538.86
676.70	55200.95
676.89	55424.18
677.08	55628.98
677.28	55067.83
677.47	55608.50
677.66	55819.44
677.85	55227.57
678.04	55458.99
678.23	55477.43
678.42	55315.64
678.62	55295.16
678.81	55473.33
679.00	54781.12
679.19	55964.84
679.38	55233.72
679.57	54924.47
679.76	55166.13
679.96	55149.75
680.15	55209.14
680.34	55241.91
680.53	55071.93
680.72	55309.49
680.91	55375.03
681.10	54441.15
681.29	54930.62
681.48	55096.50
681.68	54652.09
681.87	54924.47
682.06	54877.37
682.25	54248.64
682.44	54445.25
682.63	54981.82
682.82	54240.45
683.01	54580.42
683.20	54566.08
683.39	54625.47
683.59	54150.34
683.78	54179.01
683.97	54572.22
684.16	54832.32
684.35	54006.98
684.54	54738.11
684.73	54648.00
684.92	54365.38
685.11	54430.91
685.30	54275.27
685.49	54310.08
685.69	54162.63
685.88	54445.25
686.07	54289.60
686.26	53953.74
686.45	54779.07
686.64	54224.07
686.83	54160.58
687.02	54648.00
687.21	54353.09
687.40	54101.19
687.59	54199.49
687.78	54234.31
687.97	54367.43
688.16	54351.04
688.35	54140.10
688.54	53667.02
688.74	53802.19
688.93	53861.58
689.12	54056.14
689.31	54138.05
689.50	54123.72
689.69	53710.03
689.88	53427.41
690.07	54068.42
690.26	53687.50
690.45	54305.99
690.64	54060.23
690.83	53699.79
691.02	53449.94
691.21	53634.25
691.40	53431.50
691.59	53507.28
691.78	53490.90
691.97	53845.19
692.16	53214.42
692.35	53888.20
692.54	53581.01
692.73	53558.48
692.92	53933.26
693.11	53445.84
693.30	53241.04
693.49	53363.92
693.68	53548.24
693.87	53148.88
694.06	52849.88
694.25	53011.67
694.44	53181.65
694.63	53570.77
694.82	53673.16
695.01	53066.97
695.20	53159.12
695.39	53081.30
695.58	53187.80
695.77	52980.95
695.96	52921.56
696.15	52991.19
696.34	53173.46
696.53	53116.12
696.72	53462.22
696.91	52856.03
697.10	53085.40
697.29	52702.43
697.48	53370.07
697.67	52919.51
697.86	52591.84
698.05	52991.19
698.24	53206.23
698.43	52446.43
698.62	52917.46
698.81	52559.07
699.00	53026.01
699.19	52286.69
699.38	53050.58
699.57	52552.93
699.76	52944.09
699.95	52618.46
700.14	52253.92
700.32	52384.99
700.51	52559.07
700.70	52614.37
700.89	52663.52
701.08	52495.58
701.27	52557.02
701.46	52565.21
701.65	51959.02
701.84	52495.58
702.03	52372.70
702.22	52167.91
702.41	52180.20
702.60	52624.60
702.79	52270.31
702.98	52133.09
703.17	52393.18
703.35	52184.29
703.54	51916.01
703.73	52626.65
703.92	52126.95
704.11	52389.09
704.30	51692.78
704.49	52126.95
704.68	51965.16
704.87	51682.54
705.06	51815.66
705.25	51670.25
705.43	51727.59
705.62	51819.75
705.81	51983.59
706.00	51715.31
706.19	51614.96
706.38	51887.34
706.57	51981.54
706.76	51647.72
706.95	51537.13
707.14	51277.04
707.32	51485.93
707.51	51561.71
707.70	51377.39
707.89	51870.95
708.08	51356.91
708.27	51946.73
708.46	51533.04
708.65	51135.73
708.84	51631.34
709.02	51614.96
709.21	51324.14
709.40	51213.55
709.59	51660.01
709.78	51037.43
709.97	51500.27
710.16	51004.66
710.34	51420.40
710.53	51610.86
710.72	51559.66
710.91	51225.84
711.10	51526.89
711.29	50967.80
711.48	51000.57
711.66	50973.94
711.85	50492.67
712.04	51064.05
712.23	51125.49
712.42	51057.91
712.61	50791.67
712.80	50781.43
712.98	50873.59
713.17	50582.78
713.36	50734.33
713.55	51053.81
713.74	50816.25
713.93	51133.68
714.11	50906.36
714.30	50822.39
714.49	50363.65
714.68	50709.75
714.87	50844.92
715.06	50853.11
715.24	50926.84
715.43	50363.65
715.62	50703.61
715.81	50429.18
716.00	50699.51
716.18	50418.94
716.37	49988.87
716.56	50439.42
716.75	50631.93
716.94	50271.49
717.12	50291.97
717.31	50504.96
717.50	50339.07
717.69	50504.96
717.88	50412.80
718.06	50380.03
718.25	50691.32
718.44	50277.63
718.63	49745.16
718.82	49808.65
719.00	50189.57
719.19	49845.51
719.38	49612.04
719.57	49610.00
719.76	49204.50
719.94	49521.93
720.13	49485.07
720.32	49519.88
720.51	49640.71
720.69	49583.37
720.88	49564.94
721.07	49435.92
721.26	48887.06
721.44	49151.25
721.63	49100.05
721.82	49083.67
722.01	48919.83
722.20	49216.78
722.38	49155.35
722.57	48561.44
722.76	49040.66
722.95	49108.24
723.13	48915.73
723.32	48420.13
723.51	48442.65
723.70	48313.63
723.88	48710.94
724.07	48698.65
724.26	48751.90
724.44	48411.93
724.63	48495.90
724.82	48514.33
725.01	48743.70
725.19	48444.70
725.38	48659.74
725.57	48370.97
725.76	48413.98
725.94	48536.86
726.13	48569.63
726.32	48387.36
726.51	48235.81
726.69	48735.51
726.88	48676.12
727.07	48411.93
727.25	48280.86
727.44	48164.13
727.63	48313.63
727.82	48014.63
728.00	47891.75
728.19	47988.00
728.38	48678.17
728.56	47793.45
728.75	47959.33
728.94	48008.48
729.12	48256.29
729.31	48237.86
729.50	48403.74
729.69	48504.09
729.87	48092.45
730.06	47977.76
730.25	48043.30
730.43	48624.92
730.62	47856.93
730.81	48137.51
730.99	48280.86
731.18	48084.26
731.37	47910.18
731.55	48248.10
731.74	48479.52
731.93	48571.67
732.11	48444.70
732.30	48305.44
732.49	48143.65
732.67	48198.94
732.86	47994.15
733.05	48190.75
733.23	47705.38
733.42	48358.69
733.61	48039.20
733.79	48053.54
733.98	48117.03
734.17	47979.81
734.35	48194.85
734.54	48174.37
734.73	48518.43
734.91	48215.33
735.10	47602.99
735.29	48708.89
735.47	47465.77
735.66	47916.32
735.84	48160.03
736.03	47578.41
736.22	48166.18
736.40	47680.81
736.59	47775.02
736.78	47801.64
736.96	48002.34
737.15	47981.86
737.33	47617.32
737.52	47748.39
737.71	47553.83
737.89	47631.66
738.08	47758.63
738.27	47525.16
738.45	47959.33
738.64	47912.23
738.82	47469.87
739.01	47713.58
739.20	47498.54
739.38	47496.49
739.57	48022.82
739.75	47420.72
739.94	47617.32
740.13	47953.19
740.31	47379.76
740.50	47596.84
740.68	47674.66
740.87	47766.82
741.06	47826.21
741.24	47224.11
741.43	47174.96
741.61	47707.43
741.80	47578.41
741.99	47142.19
742.17	47406.38
742.36	47246.64
742.54	47068.47
742.73	47707.43
742.91	47433.00
743.10	47232.30
743.29	47727.91
743.47	47969.57
743.66	47035.70
743.84	47351.09
744.03	47519.02
744.21	47072.56
744.40	47615.27
744.59	46863.67
744.77	46892.34
744.96	46880.05
745.14	47340.85
745.33	47054.13
745.51	47113.52
745.70	47246.64
745.88	46773.56
746.07	46898.48
746.26	46634.30
746.44	46693.69
746.63	46593.34
746.81	46988.60
747.00	46837.05
747.18	46880.05
747.37	46769.46
747.55	46742.84
747.74	47025.46
747.92	46710.07
748.11	46822.71
748.29	46875.96
748.48	46933.30
748.66	46288.19
748.85	46439.74
749.03	46961.97
749.22	46816.57
749.41	46384.44
749.59	46519.61
749.78	46482.75
749.96	46173.50
750.15	45997.38
750.33	46466.36
750.52	46452.03
750.70	46331.20
750.89	46286.14
751.07	46269.76
751.26	46150.98
751.44	46234.94
751.63	46056.77
751.81	46277.95
752.00	45847.88
752.18	46187.84
752.37	46243.13
752.55	45712.71
752.74	46253.37
752.92	46091.58
753.10	45626.70
753.29	46013.76
753.47	45768.01
753.66	45514.06
753.84	45700.42
754.03	45942.08
754.21	46134.59
754.40	45446.47
754.58	45712.71
754.77	45966.66
754.95	45296.97
755.14	45227.34
755.32	45391.18
755.51	45294.92
755.69	45131.09
755.88	45270.35
756.06	45524.30
756.24	45432.14
756.43	44987.73
756.61	45370.70
756.80	44979.54
756.98	45073.74
757.17	45143.38
757.35	45151.57
757.54	45458.76
757.72	45182.29
757.90	45194.57
758.09	44987.73
758.27	45182.29
758.46	45069.65
758.64	45274.45
758.83	45307.21
759.01	45196.62
759.19	44922.19
759.38	44717.40
759.56	44918.10
759.75	44719.45
759.93	44588.38
760.12	44637.53
760.30	44844.37
760.48	44440.92
760.67	44512.60
760.85	44582.23
761.04	44758.36
761.22	44914.00
761.40	44721.49
761.59	44731.73
761.77	43992.42
761.96	44492.12
762.14	44148.06
762.32	44266.84
762.51	44066.14
762.69	44019.04
762.88	44135.77
763.06	44461.40
763.24	44201.31
763.43	43857.25
763.61	43736.42
763.80	43705.70
763.98	43851.11
764.16	43976.03
764.35	43437.42
764.53	43306.35
764.72	43785.57
764.90	43558.25
765.08	43898.21
765.27	44070.24
765.45	43328.87
765.63	43083.12
765.82	43615.59
766.00	43578.73
766.18	43318.64
766.37	43638.12
766.55	43552.10
766.74	43511.14
766.92	43236.72
767.10	43373.93
767.29	43404.65
767.47	42964.34
767.65	42980.72
767.84	42876.27
768.02	43025.78
768.20	43160.94
768.39	43545.96
768.57	43410.79
768.75	43148.65
768.94	43177.33
769.12	43029.87
769.30	43027.82
769.49	42722.68
769.67	42704.24
769.85	42222.97
770.04	42579.32
770.22	42276.22
770.40	41862.53
770.59	42216.83
770.77	42913.14
770.95	42614.13
771.14	42009.98
771.32	42233.21
771.50	42130.81
771.69	41710.98
771.87	42311.03
772.05	41823.62
772.24	41629.06
772.42	42182.01
772.60	42018.17
772.78	41919.87
772.97	41801.09
773.15	41989.50
773.33	41932.16
773.52	41790.85
773.70	41758.08
773.88	42091.90
774.07	41541.00
774.25	41633.16
774.43	41817.47
774.61	41770.37
774.80	41721.22
774.98	41821.57
775.16	42235.26
775.34	42044.80
775.53	41608.58
775.71	41897.34
775.89	41979.26
776.08	41907.58
776.26	41991.55
776.44	42513.78
776.62	41866.63
776.81	41866.63
776.99	41893.25
777.17	42005.89
777.35	41926.02
777.54	42415.48
777.72	41749.89
777.90	42351.99
778.08	42413.43
778.27	42069.37
778.45	42124.67
778.63	42552.69
778.81	41973.12
779.00	42589.56
779.18	42237.31
779.36	42409.34
779.54	42634.61
779.73	42249.60
779.91	42655.09
780.09	42222.97
780.27	42583.41
780.46	42450.30
780.64	42614.13
780.82	42820.98
781.00	42663.28
781.19	42573.17
781.37	43060.59
781.55	42814.83
781.73	42960.24
781.91	42827.12
782.10	42325.37
782.28	42550.65
782.46	42528.12
782.64	43179.37
782.82	42456.44
783.01	42935.66
783.19	42939.76
783.37	43031.92
783.55	42804.59
783.74	43115.89
783.92	42554.74
784.10	43038.06
784.28	43306.35
784.46	42935.66
784.64	42491.26
784.83	42624.37
785.01	42968.43
785.19	42847.60
785.37	42960.24
785.55	42970.48
785.74	42569.08
785.92	42503.54
786.10	42978.67
786.28	42773.88
786.46	42706.29
786.64	42476.92
786.83	42395.00
787.01	42849.65
787.19	42405.24
787.37	42747.25
787.55	42493.30
787.74	42104.19
787.92	42304.89
788.10	42212.73
788.28	41958.78
788.46	42225.02
788.64	41919.87
788.82	42476.92
789.01	42005.89
789.19	42112.38
789.37	41698.69
789.55	41995.65
789.73	41657.73
789.91	41829.76
790.09	41536.90
790.28	41420.17
790.46	41317.77
790.64	41393.54
790.82	41825.67
791.00	41473.42
791.18	41004.43
791.36	41325.96
791.55	40859.02
791.73	40787.35
791.91	40502.68
792.09	41049.49
792.27	40635.80
792.45	40945.04
792.63	40666.52
792.81	40533.40
793.00	40867.22
793.18	40439.19
793.36	40326.55
793.54	40105.37
793.72	40299.93
793.90	40066.46
794.08	39931.29
794.26	40005.02
794.44	39843.23
794.62	39663.01
794.81	40082.84
794.99	39714.21
795.17	39663.01
795.35	39820.70
795.53	39581.09
795.71	39796.13
795.89	39220.65
796.07	39241.13
796.25	39073.20
796.43	39259.56
796.61	38663.60
796.80	38624.69
796.98	38839.73
797.16	38423.99
797.34	38477.24
797.52	38383.03
797.70	38782.38
797.88	38469.04
798.06	37991.87
798.24	38067.64
798.42	38245.82
798.60	38297.02
798.78	38190.52
798.96	37854.65
799.14	37656.00
799.32	37895.61
799.51	37393.86
799.69	37383.62
799.87	37361.09
800.05	37483.97
800.23	37357.00
800.41	36685.26
800.59	37369.29
800.77	36861.39
800.95	36836.81
801.13	36761.04
801.31	36642.26
801.49	36658.64
801.67	36978.12
801.85	36603.35
802.03	36203.99
802.21	36210.14
802.39	36279.77
802.57	36111.83
802.75	35995.10
802.93	36140.50
803.11	35823.07
803.29	35667.42
803.47	35632.61
803.65	35792.35
803.83	35657.18
804.01	35112.42
804.19	35278.31
804.37	35651.04
804.55	35149.29
804.73	35304.93
804.91	35253.73
805.09	35098.09
805.27	35036.65
805.45	35022.31
805.63	34975.21
805.81	34981.35
805.99	34801.13
806.17	34821.61
806.35	34692.59
806.53	34702.83
806.71	34391.54
806.89	34446.83
807.07	34432.50
807.25	34307.57
807.43	34113.02
807.61	34336.24
807.79	34049.53
807.97	33654.27
808.15	33842.68
808.33	33469.95
808.51	33551.87
808.69	33936.89
808.87	33490.43
809.05	33811.96
809.23	33574.40
809.41	33457.67
809.59	33306.12
809.77	33400.32
809.95	33166.85
810.13	33418.75
810.31	33302.02
810.49	32849.42
810.67	32884.23
810.84	33203.72
811.02	32669.20
811.20	32749.07
811.38	33054.22
811.56	32265.75
811.74	32462.35
811.92	32415.25
812.10	32658.96
812.28	32499.22
812.46	32667.15
812.64	32396.82
812.82	32232.98
813.00	32083.48
813.18	31804.95
813.36	31884.83
813.53	31749.66
813.71	31768.09
813.89	31645.21
814.07	31698.46
814.25	31847.96
814.43	31872.54
814.61	31471.14
814.79	31692.32
814.97	31477.28
815.15	31378.98
815.33	31063.59
815.50	31102.50
815.68	31362.59
815.86	31043.11
816.04	31153.70
816.22	31071.78
816.40	30610.99
816.58	30922.28
816.76	30467.63
816.94	30602.80
817.11	30244.40
817.29	30731.82
817.47	30797.35
817.65	30783.02
817.83	30385.71
818.01	30350.90
818.19	30115.38
818.37	30228.02
818.54	30230.07
818.72	29879.86
818.90	30072.37
819.08	30133.81
819.26	30025.27
819.44	29949.50
819.62	30037.56
819.80	29996.60
819.97	29775.42
820.15	29677.12
820.33	29517.37
820.51	29982.26
820.69	29621.82
820.87	29398.59
821.05	29773.37
821.22	29564.48
821.40	29668.92
821.58	29271.62
821.76	29414.98
821.94	29300.29
822.12	29353.54
822.29	29578.81
822.47	29302.34
822.65	29394.50
822.83	28943.94
823.01	29476.41
823.19	28978.76
823.36	28855.88
823.54	28765.77
823.72	28833.35
823.90	28816.97
824.08	28438.09
824.25	28552.78
824.43	28241.49
824.61	28419.66
824.79	28569.16
824.97	28411.47
825.15	28675.66
825.32	28284.50
825.50	28214.87
825.68	28120.66
825.86	28257.87
826.04	28280.40
826.21	27993.68
826.39	27874.90
826.57	28051.03
826.75	27852.38
826.93	27594.33
827.10	27823.70
827.28	27930.20
827.46	28022.36
827.64	27911.77
827.81	27676.25
827.99	27551.32
828.17	27534.94
828.35	27037.28
828.53	27422.30
828.70	27260.51
828.88	27473.50
829.06	27651.67
829.24	27340.38
829.41	27233.89
829.59	27604.57
829.77	27432.54
829.95	27043.43
830.12	27176.55
830.30	26967.65
830.48	27436.64
830.66	27106.91
830.84	27514.46
831.01	26738.28
831.19	26818.15
831.37	26914.41
831.55	26625.64
831.72	26736.23
831.90	26594.92
832.08	26963.56
832.25	26855.01
832.43	26711.66
832.61	26365.55
832.79	26300.01
832.96	26467.95
833.14	26326.64
833.32	26560.11
833.50	26459.76
833.67	26297.97
833.85	26457.71
834.03	26238.58
834.20	26443.37
834.38	26224.24
834.56	26568.30
834.74	26039.92
834.91	26084.98
835.09	25730.68
835.27	25867.89
835.44	25859.70
835.62	25613.95
835.80	25824.89
835.98	26011.25
836.15	26087.03
836.33	25822.84
836.51	26027.63
836.68	25601.66
836.86	25810.55
837.04	25761.40
837.21	25706.10
837.39	25661.05
837.57	25882.23
837.75	25828.98
837.92	25280.13
838.10	25448.06
838.28	25419.39
838.45	25241.21
838.63	25108.10
838.81	25030.27
838.98	24948.36
839.16	25159.30
839.34	25058.95
839.51	25104.00
839.69	24682.12
839.87	24696.46
840.04	24702.60
840.22	24915.59
840.40	24938.12
840.57	24575.62
840.75	25009.79
840.93	24403.60
841.10	24888.96
841.28	25058.95
841.46	24741.51
841.63	24929.92
841.81	24682.12
841.98	24571.53
842.16	24446.60
842.34	24573.58
842.51	24221.33
842.69	24585.86
842.87	24411.79
843.04	24661.64
843.22	24256.14
843.40	24393.36
843.57	24149.65
843.75	24532.62
843.92	24245.90
844.10	24241.81
844.28	24168.08
844.45	24413.84
844.63	24264.33
844.81	23971.47
844.98	24112.78
845.16	23971.47
845.33	24022.67
845.51	24260.24
845.69	23871.12
845.86	23965.33
846.04	23916.18
846.21	23934.61
846.39	24008.34
846.57	23735.96
846.74	23873.17
846.92	23699.09
847.09	23557.78
847.27	23334.56
847.45	23578.26
847.62	23801.49
847.80	23635.61
847.97	23551.64
848.15	23408.28
848.32	23346.84
848.50	23445.15
848.68	23297.69
848.85	23197.34
849.03	22613.67
849.20	23490.20
849.38	23297.69
849.56	23248.54
849.73	23062.18
849.91	23152.29
850.08	23312.03
850.26	22910.63
850.43	23111.33
850.61	23023.26
850.78	22560.42
850.96	23125.66
851.14	22841.00
851.31	23025.31
851.49	22466.22
851.66	22781.60
851.84	22914.72
852.01	22777.51
852.19	22783.65
852.36	22488.74
852.54	22298.28
852.71	22421.16
852.89	22460.07
853.07	22376.11
853.24	22636.20
853.42	22501.03
853.59	22382.25
853.77	22513.32
853.94	22498.98
854.12	22580.90
854.29	22175.41
854.47	22036.14
854.64	22263.47
854.82	22281.90
854.99	22128.30
855.17	22066.86
855.34	21956.27
855.52	21886.64
855.69	22386.35
855.87	22165.17
856.04	22187.69
856.22	22064.82
856.39	21757.62
856.57	21937.84
856.74	21849.78
856.92	21968.56
857.09	21579.45
857.27	21827.25
857.44	21845.68
857.62	21737.14
857.79	21837.49
857.97	21823.16
858.14	21753.52
858.32	21638.84
858.49	21405.37
858.67	21870.26
858.84	21313.21
859.02	21374.65
859.19	21421.75
859.37	21143.23
859.54	21225.15
859.72	21571.25
859.89	21483.19
860.06	21221.05
860.24	21317.31
860.41	21597.88
860.59	21219.00
860.76	21601.97
860.94	21051.07
861.11	21118.65
861.29	20838.08
861.46	20985.54
861.64	20766.40
861.81	21216.96
861.98	20938.43
862.16	20672.20
862.33	20821.70
862.51	20727.49
862.68	20795.07
862.86	20756.16
863.03	20545.22
863.21	20905.66
863.38	20653.76
863.55	20422.34
863.73	20752.07
863.90	20707.01
864.08	20356.81
864.25	20369.10
864.43	20440.78
864.60	20455.11
864.77	20086.48
864.95	20369.10
865.12	20192.97
865.30	20410.06
865.47	20276.94
865.64	20225.74
865.82	20289.23
865.99	20465.35
866.17	20258.51
866.34	20129.48
866.51	20049.61
866.69	20270.79
866.86	20043.47
867.04	20115.15
867.21	19977.94
867.38	19902.16
867.56	19871.44
867.73	19832.53
867.91	19783.38
868.08	19730.13
868.25	19721.94
868.43	19748.56
868.60	19533.53
868.78	19416.79
868.95	19742.42
869.12	19328.73
869.30	19562.20
869.47	19537.62
869.64	19373.78
869.82	19488.47
869.99	19537.62
870.16	19545.81
870.34	19437.27
870.51	19508.95
870.69	19177.18
870.86	19361.50
871.03	19205.85
871.21	19187.42
871.38	19255.00
871.55	19164.89
871.73	19365.59
871.90	19142.36
872.07	19048.16
872.25	18839.26
872.42	18867.94
872.59	18935.52
872.77	18734.82
872.94	18757.35
873.11	18863.84
873.29	19082.97
873.46	18691.81
873.63	18673.38
873.81	18523.88
873.98	18511.59
874.15	18552.55
874.33	18394.86
874.50	18605.80
874.67	18652.90
874.85	18476.77
875.02	18153.20
875.19	18335.46
875.37	18020.08
875.54	18321.13
875.71	18124.52
875.88	18147.05
876.06	18231.02
876.23	17919.73
876.40	17911.53
876.58	18030.32
876.75	17778.42
876.92	17811.18
877.10	18015.98
877.27	17710.83
877.44	17815.28
877.61	17696.50
877.79	17649.39
877.96	17600.24
878.13	17663.73
878.31	17788.66
878.48	17444.60
878.65	17481.46
878.82	17329.91
879.00	17342.20
879.17	17846.00
879.34	17559.28
879.51	17186.55
879.69	17149.69
879.86	17227.51
880.03	17256.18
880.21	17286.90
880.38	17061.63
880.55	17329.91
880.72	17186.55
880.90	17014.52
881.07	17006.33
881.24	17358.58
881.41	17198.84
881.59	17065.72
881.76	16834.30
881.93	16840.45
882.10	16799.49
882.28	16705.28
882.45	17192.70
882.62	16957.18
882.79	17078.01
882.96	16623.36
883.14	16873.21
883.31	16828.16
883.48	16666.37
883.65	16760.58
883.83	16822.02
884.00	16776.96
884.17	16672.51
884.34	16850.69
884.51	16742.14
884.69	16774.91
884.86	16699.14
885.03	16555.78
885.20	16355.08
885.38	16596.74
885.55	16477.96
885.72	16410.37
885.89	16443.14
886.06	16264.97
886.24	16383.75
886.41	16420.61
886.58	16453.38
886.75	16467.72
886.92	16219.91
887.10	16512.77
887.27	15904.53
887.44	16283.40
887.61	16596.74
887.78	16097.03
887.95	16297.74
888.13	16361.22
888.30	16125.71
888.47	16142.09
888.64	15994.64
888.81	15947.53
888.99	15669.01
889.16	15851.28
889.33	15873.81
889.50	15935.24
889.67	15853.33
889.84	15814.41
890.01	15906.57
890.19	15550.23
890.36	15834.89
890.53	15701.78
890.70	15642.39
890.87	15675.15
891.04	15617.81
891.22	15591.19
891.39	15752.98
891.56	15669.01
891.73	15372.05
891.90	15441.68
892.07	15415.06
892.24	15347.48
892.42	15509.27
892.59	15410.96
892.76	15349.53
892.93	15130.39
893.10	15650.58
893.27	15312.66
893.44	15238.94
893.61	15337.24
893.79	15124.25
893.96	15056.67
894.13	15255.32
894.30	15128.35
894.47	15275.80
894.64	15439.64
894.81	15181.59
894.98	15107.87
895.15	15126.30
895.33	15142.68
895.50	15077.15
895.67	15312.66
895.84	15161.11
896.01	15322.90
896.18	14974.75
896.35	15220.50
896.52	15093.53
896.69	15056.67
896.86	15109.91
897.04	15027.99
897.21	14888.73
897.38	15200.02
897.55	14911.26
897.72	14880.54
897.89	14954.27
898.06	15175.45
898.23	14862.11
898.40	15130.39
898.57	15163.16
898.74	14847.77
898.91	14817.05
899.08	15140.63
899.26	15032.09
899.43	15204.12
899.60	14841.63
899.77	15003.42
899.94	15191.83
900.11	14976.80
900.28	15011.61
900.45	14751.52
900.62	14839.58
900.79	15238.94
900.96	14765.85
901.13	14968.60
901.30	14815.01
901.47	14833.44
901.64	14827.29
901.81	15040.28
901.98	14974.75
902.15	15023.90
902.32	15005.47
902.49	14968.60
902.66	15021.85
902.83	15015.71
903.01	14972.70
903.18	14978.84
903.35	14909.21
903.52	15071.00
903.69	15032.09
903.86	15120.15
904.03	14901.02
904.20	15138.58
904.37	14921.50
904.54	14960.41
904.71	15023.90
904.88	14835.49
905.05	14810.91
905.22	15132.44
905.39	14778.14
905.56	14890.78
905.73	14884.64
905.90	14976.80
906.07	14950.17
906.24	14880.54
906.41	14907.16
906.58	14892.83
906.75	14892.83
906.92	14667.55
907.09	14675.74
907.26	14935.84
907.43	14616.35
907.60	14944.03
907.77	14960.41
907.93	14925.60
908.10	14913.31
908.27	15052.57
908.44	14640.93
908.61	14690.08
908.78	14694.18
908.95	14702.37
909.12	14704.42
909.29	14774.05
909.46	14894.88
909.63	14747.42
909.80	14776.09
909.97	14892.83
910.14	14659.36
910.31	14616.35
910.48	14608.16
910.65	14735.14
910.82	14591.78
910.99	14626.59
911.16	14429.99
911.33	14642.98
911.50	14573.35
911.66	14419.75
911.83	14571.30
912.00	14716.70
912.17	14497.57
912.34	14313.25
912.51	14309.16
912.68	14436.13
912.85	14391.08
913.02	14350.12
913.19	14268.20
913.36	14395.17
913.53	14321.45
913.70	14100.26
913.86	14362.40
914.03	14227.24
914.20	14145.32
914.37	14135.08
914.54	14223.14
914.71	14151.46
914.88	14208.81
915.05	14118.70
915.22	13905.71
915.39	14044.97
915.55	14141.22
915.72	13893.42
915.89	13713.20
916.06	13750.06
916.23	13637.42
916.40	13958.96
916.57	13745.97
916.74	13950.76
916.91	13535.03
917.07	13631.28
917.24	13616.94
917.41	13635.38
917.58	13674.29
917.75	13567.79
917.92	13324.08
918.09	13383.48
918.26	13506.35
918.42	13578.03
918.59	13537.07
918.76	13311.80
918.93	13174.58
919.10	13004.60
919.27	13100.86
919.44	13182.77
919.60	13201.21
919.77	13074.23
919.94	13121.34
920.11	12896.06
920.28	13025.08
920.45	12922.68
920.61	12658.49
920.78	12767.04
920.95	12783.42
921.12	12889.92
921.29	12752.70
921.46	12502.85
921.62	12601.15
921.79	12674.88
921.96	12527.42
922.13	12433.22
922.30	12572.48
922.47	12584.77
922.63	12461.89
922.80	12244.81
922.97	12394.31
923.14	12037.96
923.31	12201.80
923.47	12132.17
923.64	12392.26
923.81	12214.09
923.98	12275.52
924.15	12101.45
924.32	12117.83
924.48	11984.71
924.65	11910.99
924.82	11822.92
924.99	11788.11
925.15	11722.57
925.32	11984.71
925.49	11554.64
925.66	11542.35
925.83	11528.02
925.99	11431.76
926.16	11579.22
926.33	11513.68
926.50	11317.08
926.67	11476.82
926.83	11202.39
927.00	11292.50
927.17	11403.09
927.34	11505.49
927.50	11108.18
927.67	11315.03
927.84	11192.15
928.01	11206.48
928.17	10876.76
928.34	11028.31
928.51	10858.33
928.68	10784.60
928.84	10739.55
929.01	10788.70
929.18	10702.68
929.35	10608.48
929.51	10772.32
929.68	10432.35
929.85	10864.47
930.02	10608.48
930.18	10424.16
930.35	10602.33
930.52	10332.00
930.69	10510.18
930.85	10372.96
931.02	10309.47
931.19	10145.64
931.36	10051.43
931.52	10252.13
931.69	9930.60
931.86	10147.69
932.02	9961.32
932.19	9856.87
932.36	9973.61
932.53	9926.50
932.69	9916.26
932.86	9899.88
933.03	9951.08
933.19	9557.87
933.36	9572.21
933.53	9774.95
933.70	9482.10
933.86	9674.60
934.03	9469.81
934.20	9461.62
934.36	9566.06
934.53	9160.56
934.70	9133.94
934.86	9068.41
935.03	9097.08
935.20	8894.33
935.36	9004.92
935.53	8816.51
935.70	8791.93
935.86	8783.74
936.03	8441.73
936.20	8523.65
936.36	8591.23
936.53	8347.52
936.70	8451.97
936.86	8603.52
937.03	8329.09
937.20	8183.68
937.36	8464.25
937.53	7909.26
937.70	7987.08
937.86	7755.66
938.03	7933.83
938.20	7978.89
938.36	7769.99
938.53	7733.13
938.70	7507.85
938.86	7423.89
939.03	7362.45
939.20	7233.43
939.36	7229.33
939.53	7112.60
939.70	7344.02
939.86	7040.92
940.03	6739.87
940.19	6809.50
940.36	6770.58
940.53	6770.58
940.69	6748.06
940.86	6580.12
941.03	6590.36
941.19	6383.52
941.36	6320.03
941.52	6320.03
941.69	6213.54
941.86	6336.42
942.02	6104.99
942.19	6102.95
942.35	6061.99
942.52	6064.04
942.69	5857.19
942.85	5922.73
943.02	5746.60
943.18	5896.10
943.35	5705.64
943.52	5703.59
943.68	5762.98
943.85	5666.73
944.01	5625.77
944.18	5681.07
944.35	5523.37
944.51	5525.42
944.68	5433.26
944.84	5386.16
945.01	5398.45
945.17	5357.49
945.34	5470.12
945.51	5486.51
945.67	5427.12
945.84	5410.73
946.00	5322.67
946.17	5463.98
946.33	5308.34
946.50	5363.63
946.67	5353.39
946.83	5447.60
947.00	5353.39
947.16	5332.91
947.33	5337.01
947.49	5255.09
947.66	5343.15
947.82	5466.03
947.99	5152.69
948.16	5363.63
948.32	5257.14
948.49	5427.12
948.65	5375.92
948.82	5185.46
948.98	5240.75
949.15	5148.59
949.31	5357.49
949.48	5273.52
949.64	5371.82
949.81	5265.33
949.97	5289.90
950.14	5416.88
950.30	5124.02
950.47	5347.25
950.63	5296.05
950.80	5296.05
950.96	5339.05
951.13	5222.32
951.30	5334.96
951.46	5302.19
951.63	5308.34
951.79	5427.12
951.96	5427.12
952.12	5418.93
952.29	5425.07
952.45	5425.07
952.62	5296.05
952.78	5564.33
952.94	5472.17
953.11	5377.97
953.27	5287.86
953.44	5537.71
953.60	5496.75
953.77	5558.19
953.93	5435.31
954.10	5423.02
954.26	5490.60
954.43	5359.53
954.59	5629.87
954.76	5509.04
954.92	5455.79
955.09	5545.90
955.25	5384.11
955.42	5500.84
955.58	5638.06
955.75	5240.75
955.91	5484.46
956.07	5302.19
956.24	5433.26
956.40	5560.24
956.57	5429.17
956.73	5500.84
956.90	5455.79
957.06	5250.99
957.23	5470.12
957.39	5492.65
957.56	5482.41
957.72	5394.35
957.88	5355.44
958.05	5570.48
958.21	5523.37
958.38	5490.60
958.54	5431.21
958.71	5550.00
958.87	5484.46
959.03	5517.23
959.20	5429.17
959.36	5410.73
959.53	5386.16
959.69	5357.49
959.85	5480.36
960.02	5205.94
960.18	5412.78
960.35	5357.49
960.51	5449.64
960.68	5445.55
960.84	5478.32
961.00	5353.39
961.17	5455.79
961.33	5392.30
961.50	5375.92
961.66	5590.95
961.82	5402.54
961.99	5490.60
962.15	5406.64
962.31	5425.07
962.48	5388.21
962.64	5599.15
962.81	5402.54
962.97	5447.60
963.13	5402.54
963.30	5443.50
963.46	5271.47
963.62	5277.62
963.79	5492.65
963.95	5484.46
964.12	5373.87
964.28	5377.97
964.44	5115.83
964.61	5447.60
964.77	5451.69
964.93	5416.88
965.10	5423.02
965.26	5253.04
965.42	5320.62
965.59	5246.90
965.75	5316.53
965.92	5339.05
966.08	5248.94
966.24	5416.88
966.41	5226.42
966.57	5337.01
966.73	5341.10
966.90	5480.36
967.06	5222.32
967.22	5250.99
967.39	5156.79
967.55	5285.81
967.71	5187.50
967.88	5277.62
968.04	5228.46
968.20	5359.53
968.37	5296.05
968.53	5181.36
968.69	5220.27
968.85	5238.70
969.02	5334.96
969.18	5183.41
969.34	5220.27
969.51	5193.65
969.67	5189.55
969.83	5171.12
970.00	5269.42
970.16	4990.90
970.32	5107.63
970.48	5095.35
970.65	5078.96
970.81	5019.57
970.97	5105.59
971.14	4941.75
971.30	5193.65
971.46	5095.35
971.63	5001.14
971.79	5033.91
971.95	5038.00
972.11	4855.73
972.28	5031.86
972.44	5089.20
972.60	4939.70
972.76	5017.52
972.93	4878.26
973.09	5083.06
973.25	4933.56
973.42	4870.07
973.58	5113.78
973.74	5115.83
973.90	4894.65
974.07	4782.01
974.23	4863.93
974.39	4937.65
974.55	4999.09
974.72	4775.86
974.88	4741.05
975.04	4812.73
975.20	4835.25
975.37	4765.62
975.53	4847.54
975.69	4820.92
975.85	4796.34
976.01	4685.75
976.18	4835.25
976.34	4673.46
976.50	4771.77
976.66	4872.12
976.83	4749.24
976.99	4681.66
977.15	4730.81
977.31	4603.83
977.47	4681.66
977.64	4640.70
977.80	4734.90
977.96	4661.18
978.12	4673.46
978.29	4630.46
978.45	4552.63
978.61	4530.11
978.77	4652.98
978.93	4550.59
979.10	4540.35
979.26	4652.98
979.42	4661.18
979.58	4470.72
979.74	4491.20
979.91	4558.78
980.07	4444.09
980.23	4437.95
980.39	4405.18
980.55	4464.57
980.71	4417.47
980.88	4270.01
981.04	4456.38
981.20	4417.47
981.36	4474.81
981.52	4370.37
981.68	4345.79
981.85	4491.20
982.01	4392.89
982.17	4317.12
982.33	4272.06
982.49	4575.16
982.65	4321.21
982.82	4304.83
982.98	4437.95
983.14	4401.08
983.30	4401.08
983.46	4351.93
983.62	4364.22
983.79	4171.71
983.95	4171.71
984.11	4030.40
984.27	4247.49
984.43	4212.67
984.59	4196.29
984.75	4288.45
984.91	4243.39
985.08	4325.31
985.24	4198.34
985.40	4140.99
985.56	4145.09
985.72	4206.53
985.88	4134.85
986.04	4136.90
986.20	4179.90
986.37	4181.95
986.53	3936.20
986.69	4190.14
986.85	4026.31
987.01	4001.73
987.17	4163.52
987.33	4108.23
987.49	4022.21
987.65	4024.26
987.82	3936.20
987.98	3946.44
988.14	3923.91
988.30	4007.87
988.46	3977.16
988.62	3876.80
988.78	3958.72
988.94	4022.21
989.10	3872.71
989.26	3891.14
989.42	3891.14
989.59	3870.66
989.75	3813.32
989.91	3831.75
990.07	3641.29
990.23	3928.00
990.39	3835.85
990.55	3854.28
990.71	3809.22
990.87	3801.03
991.03	3866.56
991.19	3778.50
991.35	3827.65
991.51	3887.04
991.67	3885.00
991.83	3862.47
992.00	3768.26
992.16	3829.70
992.32	3772.36
992.48	3878.85
992.64	3717.06
992.80	3663.82
992.96	3598.28
993.12	3729.35
993.28	3798.98
993.44	3690.44
993.60	3678.15
993.76	3667.91
993.92	3610.57
994.08	3620.81
994.24	3739.59
994.40	3715.02
994.56	3581.90
994.72	3692.49
994.88	3438.54
995.04	3663.82
995.20	3620.81
995.36	3622.86
995.52	3555.27
995.68	3551.18
995.84	3391.44
996.00	3667.91
996.16	3575.75
996.32	3448.78
996.48	3487.69
996.64	3616.71
996.80	3528.65
996.96	3444.68
997.12	3426.25
997.28	3465.16
997.44	3409.87
997.60	3338.19
997.76	3377.10
997.92	3499.98
998.08	3393.48
998.24	3319.76
998.40	3459.02
998.56	3413.96
998.72	3459.02
998.88	3325.90
999.04	3311.57
999.20	3516.36
999.36	3305.42
999.52	3420.11
999.68	3215.31
999.84	3477.45
1000.00	3413.96
1000.16	3315.66
1000.32	3270.61
1000.48	3436.49
1000.64	3237.84
1000.80	3309.52
1000.95	3291.09
1001.11	3262.41
1001.27	3223.50
1001.43	3180.50
1001.59	3200.98
1001.75	3143.63
1001.91	3422.16
1002.07	3200.98
1002.23	3149.78
1002.39	3170.26
1002.55	3176.40
1002.71	3157.97
1002.87	3190.74
1003.03	3053.52
1003.19	3092.43
1003.34	3295.18
1003.50	3155.92
1003.66	3229.65
1003.82	3172.30
1003.98	3057.62
1004.14	3000.27
1004.30	3149.78
1004.46	2959.31
1004.62	3076.05
1004.78	3082.19
1004.94	3133.39
1005.09	3106.77
1005.25	2969.55
1005.41	3071.95
1005.57	2969.55
1005.73	3065.81
1005.89	2940.88
1006.05	3016.66
1006.21	2994.13
1006.37	2916.31
1006.52	2932.69
1006.68	2932.69
1006.84	3030.99
1007.00	2906.07
1007.16	2889.68
1007.32	2895.83
1007.48	2990.03
1007.64	2965.46
1007.79	2879.44
1007.95	2791.38
1008.11	2947.03
1008.27	2928.60
1008.43	2838.48
1008.59	2858.96
1008.75	2906.07
1008.91	2867.16
1009.06	2764.76
1009.22	2916.31
1009.38	2748.37
1009.54	2873.30
1009.70	2838.48
1009.86	2842.58
1010.01	2820.05
1010.17	2803.67
1010.33	2910.16
1010.49	2803.67
1010.65	2775.00
1010.81	2688.98
1010.96	2789.33
1011.12	2818.00
1011.28	2715.61
1011.44	2801.62
1011.60	2764.76
1011.76	2654.17
1011.91	2820.05
1012.07	2590.68
1012.23	2572.25
1012.39	2605.02
1012.55	2691.03
1012.71	2695.13
1012.86	2633.69
1013.02	2662.36
1013.18	2660.31
1013.34	2672.60
1013.50	2736.09
1013.65	2756.57
1013.81	2568.15
1013.97	2660.31
1014.13	2684.89
1014.29	2566.10
1014.44	2707.41
1014.60	2529.24
1014.76	2605.02
1014.92	2529.24
1015.07	2617.30
1015.23	2605.02
1015.39	2566.10
1015.55	2541.53
1015.71	2635.74
1015.86	2531.29
1016.02	2486.23
1016.18	2465.75
1016.34	2527.19
1016.49	2543.58
1016.65	2557.91
1016.81	2508.76
1016.97	2611.16
1017.12	2555.86
1017.28	2467.80
1017.44	2441.18
1017.60	2482.14
1017.75	2488.28
1017.91	2478.04
1018.07	2508.76
1018.23	2514.91
1018.38	2373.60
1018.54	2416.60
1018.70	2400.22
1018.86	2392.03
1019.01	2465.75
1019.17	2449.37
1019.33	2486.23
1019.49	2449.37
1019.64	2439.13
1019.80	2410.46
1019.96	2473.95
1020.12	2420.70
1020.27	2392.03
1020.43	2367.45
1020.59	2492.38
1020.74	2484.19
1020.90	2453.47
1021.06	2289.63
1021.22	2353.12
1021.37	2375.64
1021.53	2342.88
1021.69	2424.80
1021.84	2328.54
1022.00	2318.30
1022.16	2287.58
1022.31	2375.64
1022.47	2349.02
1022.63	2334.68
1022.79	2293.72
1022.94	2240.48
1023.10	2269.15
1023.26	2328.54
1023.41	2232.29
1023.57	2242.53
1023.73	2312.16
1023.88	2283.49
1024.04	2168.80
1024.20	2263.01
1024.35	2312.16
1024.51	2224.09
1024.67	2224.09
1024.82	2312.16
1024.98	2275.29
1025.14	2220.00
1025.29	2187.23
1025.45	2240.48
1025.61	2211.81
1025.76	2242.53
1025.92	2326.49
1026.08	2228.19
1026.23	2318.30
1026.39	2303.96
1026.55	2244.57
1026.70	2217.95
1026.86	2228.19
1027.02	2166.75
1027.17	2172.89
1027.33	2205.66
1027.48	2224.09
1027.64	2217.95
1027.80	2209.76
1027.95	2211.81
1028.11	2015.20
1028.27	2164.70
1028.42	2148.32
1028.58	2039.78
1028.73	2039.78
1028.89	2109.41
1029.05	2213.85
1029.20	2236.38
>>>>>End Processed Spectral Data<<<<<
