SpectraSuite Data File
++++++++++++++++++++++++++++++++++++
Date: Fri Jun 02 14:57:20 CEST 2017
User: INFO_000
Dark Spectrum Present: No
Reference Spectrum Present: No
Number of Sampled Component Spectra: 1
Spectrometers: USB4H00879
Integration Time (usec): 80000 (USB4H00879)
Spectra Averaged: 1 (USB4H00879)
Boxcar Smoothing: 0 (USB4H00879)
Correct for Electrical Dark: No (USB4H00879)
Strobe/Lamp Enabled: No (USB4H00879)
Correct for Detector Non-linearity: No (USB4H00879)
Correct for Stray Light: No (USB4H00879)
Number of Pixels in Processed Spectrum: 3648
>>>>>Begin Processed Spectral Data<<<<<
345.13	1232.88
345.34	1232.88
345.56	1232.88
345.78	1265.64
345.99	1331.18
346.21	1677.29
346.42	1734.63
346.64	1556.46
346.86	1800.16
347.07	1652.71
347.29	1753.06
347.50	1593.32
347.72	1621.99
347.94	1783.78
348.15	1601.51
348.37	1585.13
348.59	1677.29
348.80	1654.76
349.02	1828.84
349.23	1871.84
349.45	1810.40
349.67	1851.36
349.88	1841.12
350.10	1869.80
350.31	1818.60
350.53	1812.45
350.75	2027.49
350.96	1718.25
351.18	1890.28
351.39	1896.42
351.61	1822.69
351.82	1912.80
352.04	1931.23
352.26	1851.36
352.47	1906.66
352.69	1941.47
352.90	1820.64
353.12	1845.22
353.34	1841.12
353.55	1961.95
353.77	1873.89
353.98	1789.92
354.20	1822.69
354.41	1908.71
354.63	1906.66
354.85	2029.54
355.06	1908.71
355.28	1755.11
355.49	1869.80
355.71	1859.56
355.92	1888.23
356.14	1871.84
356.35	1859.56
356.57	1900.52
356.79	1949.67
357.00	1896.42
357.22	1992.67
357.43	1904.61
357.65	1976.29
357.86	1923.04
358.08	1923.04
358.29	1904.61
358.51	2086.88
358.72	1939.43
358.94	1892.32
359.16	1886.18
359.37	1941.47
359.59	1912.80
359.80	2027.49
360.02	2050.02
360.23	1896.42
360.45	1992.67
360.66	2009.06
360.88	1896.42
361.09	1847.27
361.31	1982.43
361.52	1947.62
361.74	2060.26
361.95	2050.02
362.17	1877.99
362.38	2039.78
362.60	2035.68
362.81	2002.91
363.03	1972.19
363.24	1986.53
363.46	2072.54
363.67	2035.68
363.89	1984.48
364.10	2041.82
364.32	1941.47
364.53	2136.03
364.75	1910.75
364.96	2025.44
365.18	2027.49
365.39	1976.29
365.61	2000.87
365.82	2090.98
366.04	1920.99
366.25	1945.57
366.47	2050.02
366.68	2133.98
366.90	2019.30
367.11	2031.58
367.33	2041.82
367.54	2119.65
367.76	2047.97
367.97	2078.69
368.19	1980.39
368.40	2131.94
368.62	1939.43
368.83	1898.47
369.05	2050.02
369.26	2074.59
369.48	2052.06
369.69	1994.72
369.91	2041.82
370.12	1998.82
370.33	2193.37
370.55	2039.78
370.76	2019.30
370.98	2174.94
371.19	2093.02
371.41	2078.69
371.62	2000.87
371.84	2017.25
372.05	2140.13
372.27	2123.74
372.48	2052.06
372.69	2084.83
372.91	2191.33
373.12	2228.19
373.34	2154.46
373.55	2160.61
373.77	2183.13
373.98	2125.79
374.20	2179.04
374.41	2279.39
374.62	2160.61
374.84	2226.14
375.05	2224.09
375.27	2129.89
375.48	2256.86
375.70	2121.70
375.91	2273.25
376.12	2232.29
376.34	2140.13
376.55	2172.89
376.77	2252.77
376.98	2160.61
377.19	2093.02
377.41	2093.02
377.62	2275.29
377.84	2314.20
378.05	2400.22
378.27	2127.84
378.48	2328.54
378.69	2426.84
378.91	2369.50
379.12	2228.19
379.34	2232.29
379.55	2236.38
379.76	2174.94
379.98	2209.76
380.19	2279.39
380.41	2301.92
380.62	2254.81
380.83	2279.39
381.05	2189.28
381.26	2398.17
381.47	2281.44
381.69	2265.05
381.90	2420.70
382.12	2312.16
382.33	2361.31
382.54	2269.15
382.76	2373.60
382.97	2236.38
383.19	2181.09
383.40	2385.88
383.61	2303.96
383.83	2322.40
384.04	2408.41
384.25	2379.74
384.47	2389.98
384.68	2465.75
384.89	2322.40
385.11	2363.36
385.32	2426.84
385.54	2308.06
385.75	2279.39
385.96	2457.56
386.18	2369.50
386.39	2320.35
386.60	2387.93
386.82	2340.83
387.03	2355.16
387.24	2486.23
387.46	2469.85
387.67	2516.95
387.88	2611.16
388.10	2465.75
388.31	2424.80
388.52	2596.82
388.74	2535.39
388.95	2490.33
389.16	2519.00
389.38	2457.56
389.59	2590.68
389.80	2674.65
390.02	2531.29
390.23	2629.59
390.44	2562.01
390.66	2602.97
390.87	2523.10
391.08	2564.06
391.30	2662.36
391.51	2645.98
391.72	2705.37
391.94	2553.82
392.15	2600.92
392.36	2650.07
392.58	2598.87
392.79	2605.02
393.00	2688.98
393.22	2762.71
393.43	2707.41
393.64	2731.99
393.85	2848.72
394.07	2676.70
394.28	2742.23
394.49	2777.05
394.71	2822.10
394.92	2846.68
395.13	2861.01
395.35	2770.90
395.56	2691.03
395.77	2783.19
395.98	2793.43
396.20	2955.22
396.41	2828.24
396.62	2801.62
396.84	2836.44
397.05	2768.85
397.26	2826.20
397.47	2994.13
397.69	2852.82
397.90	2987.99
398.11	2983.89
398.32	2801.62
398.54	2822.10
398.75	2940.88
398.96	3020.75
399.18	3000.27
399.39	2897.88
399.60	3084.24
399.81	2955.22
400.03	2895.83
400.24	3280.85
400.45	2996.18
400.66	3104.72
400.88	3071.95
401.09	3063.76
401.30	3012.56
401.51	3108.82
401.73	3164.11
401.94	3061.71
402.15	3172.30
402.36	3145.68
402.58	3143.63
402.79	3145.68
403.00	3110.86
403.21	3198.93
403.43	3264.46
403.64	3338.19
403.85	3069.91
404.06	3256.27
404.27	3108.82
404.49	3129.30
404.70	3108.82
404.91	3266.51
405.12	3227.60
405.34	3239.89
405.55	3434.44
405.76	3098.58
405.97	3229.65
406.19	3454.92
406.40	3157.97
406.61	3276.75
406.82	3282.89
407.03	3233.74
407.25	3325.90
407.46	3370.96
407.67	3313.61
407.88	3508.17
408.09	3295.18
408.31	3370.96
408.52	3438.54
408.73	3241.93
408.94	3338.19
409.15	3485.64
409.37	3483.59
409.58	3393.48
409.79	3471.31
410.00	3571.66
410.21	3327.95
410.43	3497.93
410.64	3428.30
410.85	3526.60
411.06	3504.07
411.27	3461.07
411.48	3596.23
411.70	3454.92
411.91	3571.66
412.12	3606.47
412.33	3559.37
412.54	3606.47
412.76	3727.30
412.97	3649.48
413.18	3545.03
413.39	3678.15
413.60	3624.90
413.81	3651.53
414.03	3641.29
414.24	3573.71
414.45	3815.37
414.66	3465.16
414.87	3624.90
415.08	3700.68
415.30	3614.66
415.51	3805.13
415.72	3645.38
415.93	3698.63
416.14	3878.85
416.35	3895.24
416.56	3782.60
416.78	3887.04
416.99	3715.02
417.20	3729.35
417.41	3917.76
417.62	3870.66
417.83	3977.16
418.04	3893.19
418.26	3934.15
418.47	3827.65
418.68	3940.29
418.89	3960.77
419.10	4128.70
419.31	3911.62
419.52	4132.80
419.73	3991.49
419.95	4085.70
420.16	4007.87
420.37	4050.88
420.58	4122.56
420.79	3946.44
421.00	4100.03
421.21	4073.41
421.42	4061.12
421.63	4149.18
421.85	4067.27
422.06	4192.19
422.27	4081.60
422.48	4100.03
422.69	4190.14
422.90	4118.47
423.11	4296.64
423.32	4194.24
423.53	4372.41
423.75	4452.28
423.96	4388.80
424.17	4319.17
424.38	4421.56
424.59	4372.41
424.80	4380.61
425.01	4485.05
425.22	4417.47
425.43	4476.86
425.64	4562.87
425.85	4562.87
426.06	4485.05
426.28	4566.97
426.49	4411.32
426.70	4464.57
426.91	4558.78
427.12	4624.31
427.33	4575.16
427.54	4675.51
427.75	4693.94
427.96	4833.21
428.17	4689.85
428.38	4829.11
428.59	4745.14
428.80	4730.81
429.01	4777.91
429.23	4777.91
429.44	4915.12
429.65	4892.60
429.86	4814.77
430.07	4802.49
430.28	4874.17
430.49	5019.57
430.70	5144.50
430.91	5083.06
431.12	4939.70
431.33	5193.65
431.54	5083.06
431.75	5017.52
431.96	5062.58
432.17	5210.03
432.38	5154.74
432.59	5377.97
432.80	5328.81
433.01	5240.75
433.22	5345.20
433.43	5242.80
433.64	5287.86
433.85	5205.94
434.06	5377.97
434.27	5156.79
434.49	5398.45
434.70	5566.38
434.91	5347.25
435.12	5482.41
435.33	5613.48
435.54	5550.00
435.75	5277.62
435.96	5509.04
436.17	5291.95
436.38	5533.61
436.59	5498.80
436.80	5517.23
437.01	5971.88
437.22	5791.66
437.43	5629.87
437.64	5529.52
437.85	5574.57
438.06	5830.57
438.27	5566.38
438.48	5697.45
438.69	5838.76
438.90	5705.64
439.11	5640.11
439.32	6012.84
439.53	5797.80
439.74	5869.48
439.95	5955.49
440.16	5971.88
440.37	5881.77
440.57	5808.04
440.78	5980.07
440.99	5975.97
441.20	5996.45
441.41	5820.33
441.62	6004.64
441.83	5859.24
442.04	6231.97
442.25	6098.85
442.46	6066.08
442.67	6328.22
442.88	6539.16
443.09	6053.80
443.30	6074.28
443.51	6258.59
443.72	6496.16
443.93	6262.69
444.14	6293.41
444.35	6215.59
444.56	6375.33
444.77	6428.57
444.98	6436.77
445.19	6348.70
445.40	6555.55
445.61	6369.18
445.81	6563.74
446.02	6569.88
446.23	6553.50
446.44	6408.09
446.65	6404.00
446.86	6533.02
447.07	6651.80
447.28	6705.05
447.49	6768.54
447.70	6590.36
447.91	6743.96
448.12	6694.81
448.33	6889.37
448.54	6535.07
448.74	6748.06
448.95	7006.10
449.16	6762.39
449.37	7174.03
449.58	6883.22
449.79	7139.22
450.00	6823.83
450.21	6928.28
450.42	7120.79
450.63	7069.59
450.84	7057.30
451.05	7131.03
451.25	7088.02
451.46	6975.38
451.67	7100.31
451.88	7171.99
452.09	7133.08
452.30	7112.60
452.51	7309.20
452.72	7473.04
452.93	7735.18
453.13	7200.66
453.34	7219.09
453.55	7339.92
453.76	7401.36
453.97	7712.65
454.18	7532.43
454.39	7622.54
454.60	7546.76
454.81	7493.52
455.01	7677.83
455.22	7321.49
455.43	7608.20
455.64	7780.23
455.85	7835.53
456.06	8048.52
456.27	7753.61
456.48	7747.47
456.68	7726.99
456.89	8021.89
457.10	8142.72
457.31	7976.84
457.52	7956.36
457.73	7995.27
457.94	8345.47
458.14	8036.23
458.35	8458.11
458.56	8324.99
458.77	8120.20
458.98	8398.72
459.19	8404.86
459.39	8411.01
459.60	8529.79
459.81	8275.84
460.02	8568.70
460.23	8386.43
460.44	8912.76
460.65	8585.08
460.85	8808.31
461.06	8662.91
461.27	8474.49
461.48	8994.68
461.69	8779.64
461.89	8875.90
462.10	8923.00
462.31	8890.23
462.52	8845.18
462.73	8892.28
462.94	9191.28
463.14	9201.52
463.35	9164.66
463.56	9525.10
463.77	9281.39
463.98	9205.62
464.18	9254.77
464.39	9478.00
464.60	9584.49
464.81	9531.25
465.02	9480.05
465.23	9711.47
465.43	9580.40
465.64	9852.78
465.85	9664.36
466.06	9613.17
466.27	10069.86
466.47	9981.80
466.68	9865.07
466.89	9979.75
467.10	10295.14
467.30	9867.11
467.51	10202.98
467.72	10590.05
467.93	9985.90
468.14	10264.42
468.34	10401.63
468.55	10620.77
468.76	10317.67
468.97	10348.39
469.17	10712.92
469.38	10594.14
469.59	10837.85
469.80	10594.14
470.01	10768.22
470.21	10682.20
470.42	10782.56
470.63	11194.20
470.84	10932.06
471.04	11155.29
471.25	11050.84
471.46	11378.51
471.67	11501.39
471.87	11433.81
472.08	11353.94
472.29	11689.81
472.50	11298.64
472.70	11591.50
472.91	11630.41
473.12	11794.25
473.33	11734.86
473.53	12156.74
473.74	11978.57
473.95	12179.27
474.16	12044.10
474.36	12169.03
474.57	12238.66
474.78	12566.34
474.99	12463.94
475.19	12347.20
475.40	12486.47
475.61	12660.54
475.81	12812.09
476.02	13180.73
476.23	13045.56
476.44	12937.02
476.64	13203.25
476.85	13389.62
477.06	13154.10
477.27	13489.97
477.47	13717.29
477.68	13602.61
477.89	13635.38
478.09	13920.04
478.30	13750.06
478.51	13829.93
478.71	13928.24
478.92	14139.18
479.13	14171.94
479.34	14106.41
479.54	14274.34
479.75	14495.52
479.96	14589.73
480.16	14536.48
480.37	14608.16
480.58	14884.64
480.78	15138.58
480.99	15060.76
481.20	15283.99
481.41	15175.45
481.61	15114.01
481.82	15466.26
482.03	15437.59
482.23	15425.30
482.44	15773.46
482.65	15662.86
482.85	15834.89
483.06	15845.13
483.27	15884.05
483.47	15779.60
483.68	16119.56
483.89	15992.59
484.09	16195.34
484.30	16404.23
484.51	16703.23
484.71	16402.18
484.92	16832.26
485.13	16846.59
485.33	16746.24
485.54	16801.54
485.75	17299.19
485.95	17161.98
486.16	17293.05
486.37	17331.96
486.57	17311.48
486.78	17364.73
486.98	17633.01
487.19	17673.97
487.40	17702.64
487.60	17661.68
487.81	18401.00
488.02	17919.73
488.22	17878.77
488.43	18411.24
488.64	18372.33
488.84	18409.19
489.05	18409.19
489.25	18693.86
489.46	18499.30
489.67	18648.80
489.87	19160.80
490.08	18925.28
490.29	18892.51
490.49	19244.76
490.70	19136.22
490.90	19447.51
491.11	19148.51
491.32	19521.24
491.52	19523.29
491.73	19637.97
491.94	19713.75
492.14	19388.12
492.35	19990.22
492.55	19922.64
492.76	20147.92
492.97	20313.80
493.17	20387.53
493.38	20260.55
493.58	20700.87
493.79	20672.20
494.00	20784.83
494.20	20653.76
494.41	20778.69
494.61	21116.61
494.82	21171.90
495.02	20948.67
495.23	21268.16
495.44	21249.72
495.64	21456.57
495.85	21266.11
496.05	21808.82
496.26	21401.27
496.47	21630.65
496.67	21743.28
496.88	22052.53
497.08	21382.84
497.29	22220.46
497.49	21960.37
497.70	22148.78
497.91	22585.00
498.11	22449.83
498.32	22257.32
498.52	22527.66
498.73	22703.78
498.93	22585.00
499.14	22578.86
499.34	22550.18
499.55	23365.28
499.76	22884.00
499.96	23099.04
500.17	23266.97
500.37	23058.08
500.58	23185.05
500.78	23199.39
500.99	23477.91
501.19	23764.63
501.40	23332.51
501.60	23303.84
501.81	23482.01
502.02	23910.04
502.22	23555.74
502.43	23924.37
502.63	24368.78
502.84	24174.22
503.04	24077.97
503.25	24393.36
503.45	24338.06
503.66	24610.44
503.86	24469.13
504.07	24632.97
504.27	24307.34
504.48	24743.56
504.68	24522.38
504.89	25038.47
505.09	25224.83
505.30	25089.67
505.50	24893.06
505.71	25226.88
505.91	25214.59
506.12	25380.48
506.32	25603.71
506.53	25263.74
506.73	25407.10
506.94	25888.37
507.14	25448.06
507.35	25765.49
507.55	25740.92
507.76	25679.48
507.96	25880.18
508.17	26111.60
508.37	25833.08
508.58	25917.04
508.78	26103.41
508.99	26424.94
509.19	26136.18
509.40	26349.17
509.60	26351.21
509.81	26322.54
510.01	26144.37
510.22	26236.53
510.42	26441.32
510.63	26644.07
510.83	26642.03
511.04	26623.59
511.24	26676.84
511.44	26781.29
511.65	27278.94
511.85	26953.32
512.06	26990.18
512.26	27096.67
512.47	27303.52
512.67	27117.15
512.88	27360.86
513.08	26984.04
513.29	27496.03
513.49	27573.85
513.69	27594.33
513.90	27190.88
514.10	27518.56
514.31	27825.75
514.51	27754.07
514.72	27663.96
514.92	27772.50
515.13	27745.88
515.33	27969.11
515.53	27895.38
515.74	28032.60
515.94	27891.29
516.15	28270.16
516.35	27969.11
516.56	28304.98
516.76	28374.61
516.96	28333.65
517.17	28726.86
517.37	28134.99
517.58	28321.36
517.78	28233.30
517.99	28575.31
518.19	28831.30
518.39	28819.02
518.60	29222.47
518.80	28816.97
519.01	29406.78
519.21	29015.62
519.41	29281.86
519.62	29255.23
519.82	29476.41
520.03	29486.65
520.23	29630.01
520.43	29335.10
520.64	29974.07
520.84	29832.76
521.05	29576.76
521.25	29838.90
521.45	29951.54
521.66	29793.85
521.86	29906.49
522.07	29828.66
522.27	30250.55
522.47	30101.04
522.68	30596.65
522.88	30185.01
523.08	30565.93
523.29	30074.42
523.49	30723.63
523.70	30674.48
523.90	30711.34
524.10	30918.18
524.31	31102.50
524.51	30869.03
524.71	31364.64
524.92	30981.67
525.12	31458.85
525.33	31165.99
525.53	31432.22
525.73	31882.78
525.94	31499.81
526.14	31411.74
526.34	31628.83
526.55	31684.12
526.75	31774.24
526.95	31821.34
527.16	31950.36
527.36	31929.88
527.56	32280.08
527.77	32232.98
527.97	32165.40
528.17	32245.27
528.38	32280.08
528.58	32001.56
528.78	32661.01
528.99	32587.28
529.19	32830.99
529.39	32781.84
529.60	33037.83
529.80	32837.13
530.00	33117.70
530.21	33148.42
530.41	33326.60
530.61	33342.98
530.82	33302.02
531.02	33216.01
531.22	33365.51
531.43	33465.86
531.63	33547.78
531.83	33951.23
532.04	34186.74
532.24	33916.41
532.44	34278.90
532.64	34213.37
532.85	34364.92
533.05	34741.74
533.25	34334.20
533.46	34362.87
533.66	34860.52
533.86	34457.07
534.07	35069.42
534.27	34477.55
534.47	35241.45
534.67	34952.68
534.88	35032.55
535.08	34944.49
535.28	35139.05
535.49	35440.10
535.69	35866.08
535.89	35460.58
536.09	35687.90
536.30	35915.23
536.50	36046.30
536.70	36054.49
536.91	36054.49
537.11	36072.92
537.31	36214.23
537.51	35909.08
537.72	36185.56
537.92	36279.77
538.12	36883.92
538.32	36361.69
538.53	36707.79
538.73	36488.66
538.93	37060.04
539.13	36621.78
539.34	36896.20
539.54	36722.13
539.74	36896.20
539.94	37438.92
540.15	37000.65
540.35	37176.78
540.55	37318.09
540.75	37176.78
540.96	37410.25
541.16	37735.87
541.36	37313.99
541.56	37664.19
541.77	38000.06
541.97	37465.54
542.17	37811.65
542.37	37569.99
542.58	38020.54
542.78	37778.88
542.98	37725.63
543.18	37893.57
543.38	38397.37
543.59	38247.86
543.79	38254.01
543.99	38213.05
544.19	38485.43
544.40	38489.52
544.60	38860.21
544.80	38600.12
545.00	38915.50
545.20	38714.80
545.41	38518.20
545.61	39009.71
545.81	38712.75
546.01	39015.85
546.21	39056.81
546.42	38739.38
546.62	39335.34
546.82	38854.06
547.02	39226.79
547.22	39194.03
547.43	39312.81
547.63	39667.11
547.83	39296.42
548.03	39333.29
548.23	39521.70
548.44	39536.04
548.64	39636.39
548.84	39759.27
549.04	39665.06
549.24	40129.95
549.45	39894.43
549.65	39595.43
549.85	39650.72
550.05	40166.81
550.25	39763.36
550.45	40394.14
550.66	40230.30
550.86	40344.98
551.06	40293.79
551.26	40387.99
551.46	40314.26
551.66	40531.35
551.87	40218.01
552.07	40588.69
552.27	40256.92
552.47	40834.45
552.67	40197.53
552.87	40244.63
553.07	40963.47
553.28	40813.97
553.48	41010.57
553.68	40609.17
553.88	41545.09
554.08	40986.00
554.28	40779.15
554.48	40338.84
554.69	41059.73
554.89	40924.56
555.09	41035.15
555.29	40910.22
555.49	41112.97
555.69	41024.91
555.89	41168.27
556.10	41588.10
556.30	41135.50
556.50	41526.66
556.70	41246.09
556.90	41510.28
557.10	41336.20
557.30	41260.43
557.50	41266.57
557.70	41659.78
557.91	41819.52
558.11	41567.62
558.31	41897.34
558.51	41618.82
558.71	42167.68
558.91	41911.68
559.11	41792.90
559.31	41985.41
559.51	41739.65
559.72	41645.44
559.92	42298.75
560.12	41547.14
560.32	42061.18
560.52	41719.17
560.72	42317.18
560.92	42538.36
561.12	42384.76
561.32	42859.89
561.52	41792.90
561.72	42634.61
561.93	41919.87
562.13	42022.27
562.33	42171.77
562.53	43206.00
562.73	42599.80
562.93	42290.55
563.13	42843.51
563.33	42339.71
563.53	42921.33
563.73	42186.11
563.93	42657.14
564.13	43005.30
564.33	42704.24
564.53	42837.36
564.74	42767.73
564.94	42521.98
565.14	42726.77
565.34	42732.92
565.54	43138.41
565.74	43097.45
565.94	43058.54
566.14	42947.95
566.34	42863.99
566.54	43289.96
566.74	43156.85
566.94	43521.38
567.14	43263.34
567.34	43062.64
567.54	43332.97
567.74	43468.14
567.94	43578.73
568.14	43599.21
568.34	43730.28
568.54	43398.51
568.74	43386.22
568.94	43492.71
569.14	43816.29
569.34	43717.99
569.54	43881.83
569.75	43390.31
569.95	43867.49
570.15	43976.03
570.35	44221.79
570.55	44068.19
570.75	43883.87
570.95	44078.43
571.15	44260.70
571.35	44047.71
571.55	44459.35
571.75	44465.50
571.95	44285.28
572.15	44371.29
572.35	44467.55
572.55	44146.01
572.75	44250.46
572.95	44379.48
573.15	44467.55
573.35	44582.23
573.55	44524.89
573.75	44662.10
573.95	44717.40
574.15	44496.22
574.35	44723.54
574.55	45055.31
574.75	44844.37
574.95	44840.28
575.15	45034.83
575.34	45233.49
575.54	45122.90
575.74	44997.97
575.94	45364.56
576.14	45380.94
576.34	45573.45
576.54	45505.87
576.74	45546.82
576.94	45454.67
577.14	45720.90
577.34	45765.96
577.54	45194.57
577.74	45401.42
577.94	45907.27
578.14	45483.34
578.34	46142.78
578.54	45458.76
578.74	46253.37
578.94	46120.26
579.14	45655.37
579.34	45985.09
579.54	46232.89
579.74	46476.60
579.94	46187.84
580.13	46335.29
580.33	46474.55
580.53	46220.61
580.73	46134.59
580.93	46607.67
581.13	46736.69
581.33	46617.91
581.53	46970.16
581.73	46945.59
581.93	47025.46
582.13	47217.97
582.33	47179.06
582.53	46802.23
582.73	47248.69
582.92	47009.07
583.12	47387.95
583.32	47183.15
583.52	47465.77
583.72	47617.32
583.92	47293.74
584.12	47625.51
584.32	48174.37
584.52	47734.06
584.72	47437.10
584.92	47701.29
585.11	48276.77
585.31	47760.68
585.51	47873.32
585.71	47764.78
585.91	48358.69
586.11	47695.14
586.31	47930.66
586.51	47873.32
586.71	48293.15
586.91	48313.63
587.10	48520.48
587.30	48643.35
587.50	48411.93
587.70	48837.91
587.90	48551.20
588.10	48637.21
588.30	48430.36
588.50	48870.68
588.69	48747.80
588.89	48739.61
589.09	49104.15
589.29	48893.21
589.49	49009.94
589.69	48641.31
589.89	49569.04
590.08	49132.82
590.28	48837.91
590.48	49210.64
590.68	49397.01
590.88	49095.95
591.08	49693.96
591.28	49448.21
591.47	49779.98
591.67	49702.15
591.87	49517.84
592.07	49564.94
592.27	49640.71
592.47	50056.45
592.67	49978.63
592.86	49444.11
593.06	49874.18
593.26	50003.20
593.46	50093.32
593.66	49988.87
593.86	50357.50
594.05	50308.35
594.25	50353.41
594.45	49870.09
594.65	50271.49
594.85	50464.00
595.05	50461.95
595.24	50556.16
595.44	50294.02
595.64	50676.99
595.84	50496.77
596.04	50713.85
596.23	50797.82
596.43	51070.20
596.63	50511.10
596.83	50947.32
597.03	51123.44
597.22	51311.86
597.42	50961.65
597.62	51141.88
597.82	51238.13
598.02	51105.01
598.21	51356.91
598.41	51469.55
598.61	51490.03
598.81	51768.55
599.01	51764.46
599.20	51342.58
599.40	51131.64
599.60	51750.12
599.80	51514.61
600.00	52049.13
600.19	52315.36
600.39	51553.52
600.59	51844.33
600.79	52458.72
600.98	51983.59
601.18	52260.07
601.38	52116.71
601.58	52565.21
601.78	52487.39
601.97	52753.63
602.17	52810.97
602.37	52810.97
602.57	52675.80
602.76	53097.69
602.96	52620.51
603.16	52704.48
603.36	52307.17
603.55	53437.65
603.75	52790.49
603.95	53318.87
604.15	53294.29
604.34	53251.28
604.54	53624.01
604.74	52872.41
604.94	53447.89
605.13	53265.62
605.33	53419.22
605.53	53431.50
605.73	53712.08
605.92	53077.21
606.12	53947.59
606.32	53605.58
606.52	53718.22
606.71	53929.16
606.91	54277.32
607.11	53703.88
607.30	54326.47
607.50	53781.71
607.70	53697.74
607.90	54236.36
608.09	53937.35
608.29	54058.18
608.49	54244.55
608.68	54363.33
608.88	54756.54
609.08	54559.94
609.28	54330.56
609.47	54318.28
609.67	54727.87
609.87	54224.07
610.06	54834.36
610.26	54412.48
610.46	54879.42
610.66	54199.49
610.85	54725.82
611.05	54674.62
611.25	54662.33
611.44	54791.36
611.64	54475.97
611.84	54774.97
612.03	54731.96
612.23	54656.19
612.43	55067.83
612.62	54496.45
612.82	54807.74
613.02	55270.58
613.21	54971.58
613.41	54752.44
613.61	55264.44
613.80	54516.93
614.00	54869.18
614.20	55012.54
614.39	55039.16
614.59	55352.50
614.79	55063.74
614.98	55311.54
615.18	55149.75
615.38	55329.97
615.57	55686.32
615.77	55657.65
615.97	55332.02
616.16	54891.71
616.36	54877.37
616.56	55434.42
616.75	55311.54
616.95	54979.77
617.15	55057.59
617.34	55235.77
617.54	55604.40
617.74	55407.79
617.93	55315.64
618.13	55028.92
618.32	55137.46
618.52	55348.40
618.72	55174.33
618.91	55661.74
619.11	55006.39
619.31	55446.71
619.50	55276.72
619.70	55368.88
619.90	55037.11
620.09	55207.09
620.29	55645.36
620.48	55256.24
620.68	55868.59
620.88	55241.91
621.07	54928.57
621.27	55223.48
621.46	55018.68
621.66	55266.48
621.86	55483.57
622.05	54844.60
622.25	55778.48
622.44	54654.14
622.64	55254.20
622.84	54801.60
623.03	54942.91
623.23	55166.13
623.42	55260.34
623.62	55854.25
623.82	55661.74
624.01	55399.60
624.21	55172.28
624.40	55387.31
624.60	55149.75
624.80	55200.95
624.99	55080.12
625.19	54615.23
625.38	55751.85
625.58	55147.70
625.77	55362.74
625.97	55495.86
626.17	54772.92
626.36	55297.20
626.56	55327.92
626.75	54916.28
626.95	55510.19
627.14	55598.26
627.34	55796.91
627.54	54852.80
627.73	54983.86
627.93	55336.12
628.12	55147.70
628.32	55188.66
628.51	55399.60
628.71	55502.00
628.90	55235.77
629.10	55321.78
629.30	55153.85
629.49	55612.59
629.69	55293.11
629.88	55342.26
630.08	55653.55
630.27	55598.26
630.47	55741.61
630.66	55278.77
630.86	55891.12
631.05	55385.27
631.25	55782.57
631.44	55602.35
631.64	55524.53
631.84	55475.38
632.03	55993.51
632.23	55428.27
632.42	56020.14
632.62	55356.60
632.81	55069.88
633.01	55436.47
633.20	55456.95
633.40	55549.10
633.59	55358.64
633.79	55387.31
633.98	55411.89
634.18	55588.02
634.37	55897.26
634.57	55606.45
634.76	55723.18
634.96	55387.31
635.15	55829.68
635.35	55719.09
635.54	55270.58
635.74	55870.64
635.93	55262.39
636.13	55874.73
636.32	55993.51
636.52	55239.86
636.71	55327.92
636.91	55440.56
637.10	55743.66
637.30	55876.78
637.49	55876.78
637.69	55440.56
637.88	55817.39
638.08	55168.18
638.27	55684.27
638.46	55475.38
638.66	55176.37
638.85	55276.72
639.05	55125.17
639.24	56136.87
639.44	55131.32
639.63	55954.60
639.83	55555.25
640.02	55690.41
640.22	55747.76
640.41	55899.31
640.61	55149.75
640.80	55801.00
640.99	55549.10
641.19	56071.34
641.38	55628.98
641.58	55743.66
641.77	55671.98
641.97	55477.43
642.16	55489.71
642.36	55983.27
642.55	56345.76
642.74	55559.34
642.94	56274.09
643.13	55680.17
643.33	56136.87
643.52	55979.18
643.72	56181.93
643.91	55571.63
644.10	56280.23
644.30	56038.57
644.49	55833.77
644.69	55911.59
644.88	55620.78
645.08	55502.00
645.27	55487.67
645.46	55360.69
645.66	55882.92
645.85	55719.09
646.05	56267.94
646.24	56063.14
646.43	55884.97
646.63	56198.31
646.82	56145.06
647.02	55846.06
647.21	55801.00
647.40	56030.38
647.60	56132.78
647.79	56153.26
647.99	56190.12
648.18	55639.22
648.37	56388.77
648.57	56202.41
648.76	55876.78
648.96	56153.26
649.15	56005.80
649.34	56226.98
649.54	55977.13
649.73	55844.01
649.92	56267.94
650.12	55964.84
650.31	56089.77
650.51	56636.58
650.70	56636.58
650.89	56370.34
651.09	56450.21
651.28	56011.95
651.47	56591.52
651.67	56235.17
651.86	56878.24
652.06	55966.89
652.25	56427.68
652.44	55946.41
652.64	56065.19
652.83	56030.38
653.02	55897.26
653.22	56333.48
653.41	56118.44
653.60	56167.59
653.80	56317.09
653.99	56485.03
654.18	55983.27
654.38	55780.52
654.57	55991.47
654.76	56235.17
654.96	55813.29
655.15	56026.28
655.34	56112.30
655.54	55743.66
655.73	55940.27
655.92	56267.94
656.12	56237.22
656.31	56280.23
656.50	56128.68
656.70	55753.90
656.89	55829.68
657.08	56480.93
657.28	55968.94
657.47	56167.59
657.66	56278.18
657.86	55764.14
658.05	56353.96
658.24	56444.07
658.43	56073.38
658.63	56218.79
658.82	56298.66
659.01	56491.17
659.21	56730.78
659.40	56337.57
659.59	56016.04
659.79	56683.68
659.98	56839.32
660.17	56419.49
660.36	56407.20
660.56	56280.23
660.75	56491.17
660.94	56218.79
661.14	56202.41
661.33	56222.89
661.52	55659.69
661.71	56186.02
661.91	55991.47
662.10	56190.12
662.29	56319.14
662.49	56736.93
662.68	56276.13
662.87	56571.04
663.06	56480.93
663.26	56183.97
663.45	56722.59
663.64	56155.30
663.83	56554.66
664.03	56456.35
664.22	56433.83
664.41	56095.91
664.60	56253.61
664.80	56636.58
664.99	56161.45
665.18	56403.11
665.37	56153.26
665.57	56233.13
665.76	56054.95
665.95	56489.12
666.14	55891.12
666.34	56333.48
666.53	55874.73
666.72	55667.89
666.91	56042.66
667.11	55958.70
667.30	56573.09
667.49	56294.56
667.68	55340.21
667.87	56065.19
668.07	56556.70
668.26	55712.94
668.45	56321.19
668.64	55805.10
668.84	56743.07
669.03	55997.61
669.22	56280.23
669.41	56239.27
669.60	56175.78
669.80	56194.21
669.99	56175.78
670.18	55850.16
670.37	55956.65
670.57	56022.19
670.76	55706.80
670.95	56337.57
671.14	56181.93
671.33	55735.47
671.53	56122.54
671.72	56237.22
671.91	55895.21
672.10	56167.59
672.29	55631.02
672.48	55866.54
672.68	55964.84
672.87	55555.25
673.06	56116.39
673.25	55362.74
673.44	55620.78
673.64	55993.51
673.83	55456.95
674.02	55239.86
674.21	55278.77
674.40	55934.12
674.59	55680.17
674.79	55579.82
674.98	55590.06
675.17	55604.40
675.36	55647.41
675.55	55913.64
675.74	55794.86
675.94	55719.09
676.13	55768.24
676.32	55475.38
676.51	56038.57
676.70	55764.14
676.89	55264.44
677.08	55925.93
677.28	55284.92
677.47	55684.27
677.66	56028.33
677.85	55526.58
678.04	55868.59
678.23	55747.76
678.42	55653.55
678.62	55119.03
678.81	55721.13
679.00	55223.48
679.19	56212.65
679.38	55555.25
679.57	55397.55
679.76	55157.94
679.96	55639.22
680.15	55426.23
680.34	55446.71
680.53	55504.05
680.72	55637.17
680.91	55841.96
681.10	55151.80
681.29	55520.43
681.48	54996.15
681.68	55391.41
681.87	55481.52
682.06	54932.67
682.25	54838.46
682.44	55289.01
682.63	55637.17
682.82	54717.63
683.01	55164.09
683.20	54955.19
683.39	54744.25
683.59	54756.54
683.78	54992.06
683.97	54797.50
684.16	54846.65
684.35	54516.93
684.54	54826.17
684.73	54740.16
684.92	54947.00
685.11	54691.01
685.30	54959.29
685.49	54826.17
685.69	54490.30
685.88	55028.92
686.07	54756.54
686.26	55014.58
686.45	55125.17
686.64	54871.23
686.83	54908.09
687.02	54916.28
687.21	54934.71
687.40	54625.47
687.59	54510.78
687.78	54551.74
687.97	54750.40
688.16	54623.42
688.35	54805.69
688.54	54533.31
688.74	54353.09
688.93	54703.29
689.12	54381.76
689.31	54480.06
689.50	54588.61
689.69	54140.10
689.88	53886.15
690.07	54518.98
690.26	54265.03
690.45	54439.11
690.64	54238.40
690.83	54291.65
691.02	53912.78
691.21	54207.68
691.40	53990.60
691.59	53877.96
691.78	54594.75
691.97	54131.91
692.16	54265.03
692.35	53837.00
692.54	53982.41
692.73	54236.36
692.92	54070.47
693.11	53810.38
693.30	54242.50
693.49	54224.07
693.68	53841.10
693.87	53992.65
694.06	53705.93
694.25	53599.44
694.44	53476.56
694.63	53722.32
694.82	53558.48
695.01	53675.21
695.20	53599.44
695.39	53638.35
695.58	53507.28
695.77	53368.02
695.96	53394.64
696.15	53992.65
696.34	53601.49
696.53	53941.45
696.72	53845.19
696.91	53210.32
697.10	53529.81
697.29	53159.12
697.48	53728.46
697.67	53349.59
697.86	53034.20
698.05	53263.57
698.24	53413.07
698.43	53107.93
698.62	53316.82
698.81	53189.84
699.00	53757.13
699.19	53216.47
699.38	53066.97
699.57	52817.11
699.76	53378.26
699.95	53118.17
700.14	52962.52
700.32	53167.32
700.51	52763.87
700.70	53318.87
700.89	53159.12
701.08	53359.83
701.27	53449.94
701.46	53325.01
701.65	52499.68
701.84	52704.48
702.03	53263.57
702.22	52407.52
702.41	52534.49
702.60	53142.74
702.79	52935.90
702.98	52794.59
703.17	52696.28
703.35	52507.87
703.54	52477.15
703.73	52749.53
703.92	52620.51
704.11	52417.76
704.30	52352.23
704.49	52585.69
704.68	52575.45
704.87	52022.50
705.06	52241.63
705.25	52094.18
705.43	52382.94
705.62	52524.25
705.81	52307.17
706.00	52217.06
706.19	51938.54
706.38	52241.63
706.57	52225.25
706.76	51750.12
706.95	51897.58
707.14	51737.83
707.32	52110.56
707.51	51819.75
707.70	51956.97
707.89	52139.24
708.08	52159.72
708.27	52190.44
708.46	51809.51
708.65	52069.61
708.84	51807.47
709.02	51754.22
709.21	51686.64
709.40	51447.02
709.59	51741.93
709.78	51219.70
709.97	51688.68
710.16	51719.40
710.34	51981.54
710.53	51723.50
710.72	51328.24
710.91	52010.21
711.10	51817.71
711.29	51594.48
711.48	51725.55
711.66	51303.67
711.85	51213.55
712.04	51389.68
712.23	50930.93
712.42	51557.61
712.61	51549.42
712.80	51463.41
712.98	50986.23
713.17	50967.80
713.36	51098.87
713.55	51012.85
713.74	51227.89
713.93	50982.13
714.11	50910.46
714.30	50939.13
714.49	50744.57
714.68	51578.09
714.87	50924.79
715.06	51348.72
715.24	50973.94
715.43	51084.53
715.62	50638.08
715.81	50883.83
716.00	51461.36
716.18	50719.99
716.37	50418.94
716.56	50732.28
716.75	50998.52
716.94	50672.89
717.12	50502.91
717.31	50777.34
717.50	50525.44
717.69	50597.12
717.88	50363.65
718.06	50537.72
718.25	50531.58
718.44	50230.53
718.63	49814.79
718.82	50140.42
719.00	50486.53
719.19	50296.06
719.38	49839.37
719.57	49677.58
719.76	49732.87
719.94	49497.36
720.13	50040.07
720.32	49884.42
720.51	49765.64
720.69	49628.43
720.88	49587.47
721.07	49544.46
721.26	49288.46
721.44	49319.18
721.63	49267.98
721.82	49192.21
722.01	49208.59
722.20	49413.39
722.38	48876.82
722.57	48481.56
722.76	49300.75
722.95	49243.41
723.13	48549.15
723.32	49034.52
723.51	48663.83
723.70	48876.82
723.88	48946.45
724.07	48616.73
724.26	49009.94
724.44	48129.31
724.63	49235.22
724.82	48618.78
725.01	48778.52
725.19	48510.24
725.38	48436.51
725.57	48792.86
725.76	48829.72
725.94	48606.49
726.13	48641.31
726.32	48758.04
726.51	48227.62
726.69	48592.15
726.88	48438.56
727.07	48465.18
727.25	48342.30
727.44	48403.74
727.63	48239.90
727.82	48340.25
728.00	48063.78
728.19	48102.69
728.38	48233.76
728.56	47652.14
728.75	48424.22
728.94	48094.50
729.12	48272.67
729.31	48387.36
729.50	48317.73
729.69	48610.59
729.87	48551.20
730.06	48413.98
730.25	48135.46
730.43	48475.42
730.62	48657.69
730.81	48182.56
730.99	48346.40
731.18	48481.56
731.37	48583.96
731.55	48399.65
731.74	48811.29
731.93	48119.07
732.11	48362.78
732.30	48387.36
732.49	47918.37
732.67	48188.70
732.86	47787.30
733.05	48096.55
733.23	47770.92
733.42	48106.79
733.61	48231.71
733.79	48293.15
733.98	48477.47
734.17	47914.28
734.35	47934.76
734.54	48250.14
734.73	48323.87
734.91	47822.12
735.10	48536.86
735.29	48497.95
735.47	47908.13
735.66	48012.58
735.84	48168.22
736.03	47789.35
736.22	48295.20
736.40	47830.31
736.59	48194.85
736.78	47775.02
736.96	47719.72
737.15	47791.40
737.33	47547.69
737.52	47762.73
737.71	47439.15
737.89	47686.95
738.08	47336.75
738.27	47568.17
738.45	47965.48
738.64	47869.22
738.82	47519.02
739.01	47858.98
739.20	47527.21
739.38	47445.29
739.57	47881.51
739.75	47379.76
739.94	47193.39
740.13	47695.14
740.31	47619.37
740.50	47320.37
740.68	47494.44
740.87	47338.80
741.06	47510.83
741.24	47527.21
741.43	47310.13
741.61	47619.37
741.80	47306.03
741.99	47056.18
742.17	47215.92
742.36	47187.25
742.54	46998.83
742.73	47303.98
742.91	47412.52
743.10	47289.65
743.29	47342.89
743.47	47410.48
743.66	47195.44
743.84	47183.15
744.03	47060.27
744.21	46726.46
744.40	47445.29
744.59	46794.04
744.77	46695.74
744.96	46619.96
745.14	46513.47
745.33	47285.55
745.51	46794.04
745.70	47056.18
745.88	46961.97
746.07	46728.50
746.26	46538.04
746.44	46503.23
746.63	46699.83
746.81	46966.07
747.00	46744.89
747.18	47113.52
747.37	46609.72
747.55	46730.55
747.74	46861.62
747.92	46470.46
748.11	46576.95
748.29	46644.54
748.48	46318.91
748.66	46200.13
748.85	46241.09
749.03	46509.37
749.22	46308.67
749.41	46384.44
749.59	46421.31
749.78	46515.51
749.96	45839.68
750.15	45952.32
750.33	46257.47
750.52	46363.96
750.70	46288.19
750.89	45829.44
751.07	45985.09
751.26	45833.54
751.44	45856.07
751.63	46290.24
751.81	45942.08
752.00	45745.48
752.18	45862.21
752.37	46230.85
752.55	45729.09
752.74	45688.13
752.92	45804.87
753.10	45415.76
753.29	45768.01
753.47	45202.77
753.66	45235.53
753.84	45692.23
754.03	45585.74
754.21	45153.62
754.40	45929.80
754.58	45540.68
754.77	45571.40
754.95	45094.22
755.14	45108.56
755.32	45036.88
755.51	45247.82
755.69	45436.23
755.88	44948.82
756.06	45008.21
756.24	45182.29
756.43	44909.91
756.61	45323.60
756.80	44946.77
756.98	44936.53
757.17	44860.76
757.35	45026.64
757.54	44827.99
757.72	45000.02
757.90	44914.00
758.09	44428.63
758.27	44733.78
758.46	44639.57
758.64	44967.25
758.83	45083.98
759.01	44891.48
759.19	44639.57
759.38	44868.95
759.56	44911.95
759.75	44586.33
759.93	44459.35
760.12	44574.04
760.30	44623.19
760.48	44264.80
760.67	44432.73
760.85	44578.14
761.04	44301.66
761.22	44412.25
761.40	44287.32
761.59	44215.65
761.77	44068.19
761.96	43855.20
762.14	44318.04
762.32	44156.25
762.51	43978.08
762.69	43570.54
762.88	43771.24
763.06	43906.40
763.24	44170.59
763.43	43918.69
763.61	43418.99
763.80	43398.51
763.98	43554.15
764.16	43763.04
764.35	42988.91
764.53	43228.52
764.72	43664.74
764.90	43629.93
765.08	43464.04
765.27	43650.41
765.45	43134.32
765.63	42833.27
765.82	43275.63
766.00	43148.65
766.18	43150.70
766.37	43494.76
766.55	43240.81
766.74	43042.16
766.92	43079.02
767.10	43206.00
767.29	42997.10
767.47	42749.30
767.65	42683.76
767.84	42769.78
768.02	42898.80
768.20	42507.64
768.39	42769.78
768.57	42767.73
768.75	42517.88
768.94	42655.09
769.12	42974.58
769.30	42755.44
769.49	42341.75
769.67	41856.39
769.85	42268.03
770.04	42386.81
770.22	42014.08
770.40	42024.32
770.59	42272.12
770.77	42614.13
770.95	42501.50
771.14	42071.42
771.32	41444.74
771.50	41483.66
771.69	41923.97
771.87	41944.45
772.05	41657.73
772.24	41497.99
772.42	41395.59
772.60	41768.32
772.78	41670.02
772.97	41383.30
773.15	41776.51
773.33	41588.10
773.52	41479.56
773.70	41553.29
773.88	41645.44
774.07	41506.18
774.25	41520.52
774.43	41917.82
774.61	41549.19
774.80	41661.83
774.98	41661.83
775.16	41895.30
775.34	41708.93
775.53	41149.84
775.71	41923.97
775.89	41596.29
776.08	41479.56
776.26	41622.92
776.44	42042.75
776.62	41338.25
776.81	41387.40
776.99	41756.03
777.17	41215.37
777.35	41796.99
777.54	41872.77
777.72	41414.02
777.90	41557.38
778.08	41919.87
778.27	41690.50
778.45	42014.08
778.63	42278.27
778.81	41954.69
779.00	42337.66
779.18	41827.71
779.36	42485.11
779.54	42190.20
779.73	41805.19
779.91	42339.71
780.09	42194.30
780.27	42278.27
780.46	41975.17
780.64	42179.96
780.82	42153.34
781.00	41620.87
781.19	42562.93
781.37	42202.49
781.55	42366.33
781.73	42401.14
781.91	42378.62
782.10	42243.45
782.28	42524.02
782.46	42366.33
782.64	42515.83
782.82	42290.55
783.01	42319.23
783.19	42485.11
783.37	42464.63
783.55	42102.14
783.74	42739.06
783.92	42409.34
784.10	42859.89
784.28	42579.32
784.46	42149.24
784.64	42298.75
784.83	42493.30
785.01	42622.33
785.19	42579.32
785.37	42593.65
785.55	42489.21
785.74	42034.56
785.92	42360.19
786.10	42380.67
786.28	42206.59
786.46	42128.77
786.64	42134.91
786.83	42100.09
787.01	42235.26
787.19	42018.17
787.37	42237.31
787.55	42231.16
787.74	42315.13
787.92	41788.80
788.10	41731.46
788.28	41381.26
788.46	41807.23
788.64	41440.65
788.82	42055.04
789.01	41491.85
789.19	41706.88
789.37	41768.32
789.55	41751.94
789.73	41448.84
789.91	41659.78
790.09	41055.63
790.28	41072.01
790.46	40732.05
790.64	41264.52
790.82	41285.00
791.00	40779.15
791.18	40998.29
791.36	40791.44
791.55	41000.33
791.73	40478.10
791.91	40725.91
792.09	40568.21
792.27	40367.51
792.45	40301.98
792.63	40033.69
792.81	40127.90
793.00	39849.38
793.18	40039.84
793.36	40072.60
793.54	40261.02
793.72	39757.22
793.90	39683.49
794.08	39632.29
794.26	39757.22
794.44	39404.97
794.62	39490.98
794.81	39675.30
794.99	39073.20
795.17	39525.80
795.35	39415.21
795.53	39108.01
795.71	39329.19
795.89	39034.28
796.07	38774.19
796.25	38532.53
796.43	38659.51
796.61	38221.24
796.80	37823.93
796.98	38639.03
797.16	38278.58
797.34	38450.61
797.52	38215.10
797.70	38507.96
797.88	38211.00
798.06	37549.51
798.24	37981.63
798.42	37764.54
798.60	38012.35
798.78	37694.91
798.96	37682.62
799.14	37445.06
799.32	37670.34
799.51	37033.42
799.69	37539.27
799.87	37318.09
800.05	37205.45
800.23	36589.01
800.41	37148.11
800.59	36904.40
800.77	36802.00
800.95	36294.10
801.13	36781.52
801.31	36394.45
801.49	36629.97
801.67	36345.30
801.85	36099.55
802.03	36267.48
802.21	35825.12
802.39	35892.70
802.57	36007.39
802.75	36085.21
802.93	35794.40
803.11	35622.37
803.29	35857.88
803.47	35415.52
803.65	35745.25
803.83	35423.72
804.01	35290.60
804.19	35268.07
804.37	35173.86
804.55	35341.80
804.73	35018.22
804.91	35173.86
805.09	35071.46
805.27	34975.21
805.45	34889.20
805.63	34850.28
805.81	34840.04
805.99	34532.85
806.17	34751.98
806.35	34737.65
806.53	34463.22
806.71	34778.61
806.89	34700.78
807.07	34362.87
807.25	34143.74
807.43	34057.72
807.61	34276.85
807.79	33914.36
807.97	33445.38
808.15	33631.74
808.33	33412.61
808.51	33584.64
808.69	33080.84
808.87	33584.64
809.05	33250.82
809.23	33222.15
809.41	33029.64
809.59	32894.47
809.77	33244.68
809.95	33097.22
810.13	33400.32
810.31	33117.70
810.49	32744.97
810.67	32828.94
810.84	32583.18
811.02	32603.66
811.20	32456.21
811.38	32661.01
811.56	32185.88
811.74	32579.09
811.92	32331.28
812.10	32124.44
812.28	32581.13
812.46	32413.20
812.64	31753.76
812.82	31835.67
813.00	32267.80
813.18	31872.54
813.36	31751.71
813.53	31585.82
813.71	32194.07
813.89	31448.61
814.07	31979.03
814.25	31727.13
814.43	31456.80
814.61	31215.14
814.79	31137.32
814.97	31075.88
815.15	31315.49
815.33	30823.98
815.50	30862.89
815.68	31122.98
815.86	31182.37
816.04	30819.88
816.22	30901.80
816.40	30699.05
816.58	30905.90
816.76	30783.02
816.94	30463.54
817.11	30893.61
817.29	30713.39
817.47	30582.32
817.65	30287.41
817.83	30510.64
818.01	30201.40
818.19	30240.31
818.37	30228.02
818.54	29521.47
818.72	30039.61
818.90	30322.23
819.08	30199.35
819.26	29955.64
819.44	29773.37
819.62	30041.65
819.80	29959.73
819.97	29961.78
820.15	29740.60
820.33	29687.36
820.51	29724.22
820.69	29136.45
820.87	29783.61
821.05	29644.35
821.22	29609.53
821.40	29472.32
821.58	29371.97
821.76	29296.19
821.94	29224.51
822.12	29494.85
822.29	29500.99
822.47	29081.16
822.65	29521.47
822.83	29220.42
823.01	29273.67
823.19	28755.53
823.36	28954.18
823.54	29029.96
823.72	28763.72
823.90	28667.47
824.08	28689.99
824.25	28386.89
824.43	28425.81
824.61	28008.02
824.79	28687.95
824.97	28390.99
825.15	28563.02
825.32	28331.60
825.50	28089.94
825.68	28073.56
825.86	28485.20
826.04	28085.84
826.21	28075.60
826.39	28106.32
826.57	28225.11
826.75	27655.77
826.93	27414.11
827.10	27956.82
827.28	27950.68
827.46	27911.77
827.64	28081.75
827.81	27612.76
827.99	27727.45
828.17	27467.36
828.35	27493.98
828.53	27584.09
828.70	27606.62
828.88	27457.12
829.06	27770.46
829.24	27573.85
829.41	27307.62
829.59	27696.73
829.77	27330.14
829.95	27391.58
830.12	27123.30
830.30	27104.87
830.48	27149.92
830.66	27287.14
830.84	27367.01
831.01	27012.71
831.19	26791.53
831.37	26938.98
831.55	26867.30
831.72	26975.84
831.90	27043.43
832.08	26879.59
832.25	26775.14
832.43	26537.58
832.61	26564.20
832.79	26402.41
832.96	26625.64
833.14	26635.88
833.32	26687.08
833.50	26623.59
833.67	26639.98
833.85	26508.91
834.03	26205.81
834.20	26371.69
834.38	26492.52
834.56	26175.09
834.74	26138.23
834.91	26316.40
835.09	26322.54
835.27	25880.18
835.44	26089.07
835.62	25910.90
835.80	26103.41
835.98	25982.58
836.15	25806.45
836.33	25861.75
836.51	25904.76
836.68	25751.16
836.86	25802.36
837.04	25792.12
837.21	25687.67
837.39	25669.24
837.57	25505.40
837.75	25620.09
837.92	25464.44
838.10	25757.30
838.28	25230.98
838.45	25464.44
838.63	25312.89
838.81	25411.20
838.98	25163.39
839.16	25060.99
839.34	25003.65
839.51	25220.74
839.69	24907.40
839.87	24909.44
840.04	24946.31
840.22	25032.32
840.40	25128.58
840.57	24792.71
840.75	24686.22
840.93	24598.15
841.10	24942.21
841.28	25202.30
841.46	24843.91
841.63	24860.29
841.81	24884.87
841.98	24528.52
842.16	24725.13
842.34	24477.32
842.51	24551.05
842.69	24786.57
842.87	24456.84
843.04	24524.43
843.22	24452.75
843.40	24303.25
843.57	24313.48
843.75	24350.35
843.92	24614.54
844.10	24290.96
844.28	24575.62
844.45	24239.76
844.63	24254.09
844.81	24084.11
844.98	24315.53
845.16	24102.54
845.33	24098.45
845.51	24092.30
845.69	23817.88
845.86	23862.93
846.04	23885.46
846.21	23838.36
846.39	24080.02
846.57	23522.97
846.74	23643.80
846.92	23862.93
847.09	23969.43
847.27	23441.05
847.45	23799.44
847.62	23787.16
847.80	23750.29
847.97	23772.82
848.15	23488.15
848.32	23326.36
848.50	23459.48
848.68	23375.52
848.85	23420.57
849.03	23303.84
849.20	23565.98
849.38	23404.19
849.56	23447.19
849.73	23019.17
849.91	23088.80
850.08	23389.85
850.26	22859.43
850.43	22830.76
850.61	23199.39
850.78	23029.41
850.96	22927.01
851.14	23043.74
851.31	23060.13
851.49	22900.39
851.66	22955.68
851.84	23029.41
852.01	22920.87
852.19	22714.02
852.36	22345.39
852.54	22918.82
852.71	22771.36
852.89	22730.41
853.07	22671.01
853.24	22511.27
853.42	22716.07
853.59	22664.87
853.77	22623.91
853.94	22517.42
854.12	22695.59
854.29	22470.31
854.47	22427.31
854.64	22406.83
854.82	22308.52
854.99	22718.12
855.17	22113.97
855.34	22064.82
855.52	22146.73
855.69	22556.33
855.87	22187.69
856.04	21995.18
856.22	22113.97
856.39	22007.47
856.57	21774.00
856.74	21853.87
856.92	21890.74
857.09	21962.42
857.27	21886.64
857.44	21886.64
857.62	21855.92
857.79	21872.31
857.97	21782.20
858.14	21919.41
858.32	21798.58
858.49	21661.37
858.67	21638.84
858.84	21456.57
859.02	21591.73
859.19	21456.57
859.37	21462.71
859.54	21442.23
859.72	21683.89
859.89	21558.97
860.06	21591.73
860.24	21341.88
860.41	21786.29
860.59	21370.55
860.76	21292.73
860.94	21403.32
861.11	21550.78
861.29	21022.40
861.46	20977.34
861.64	20862.66
861.81	20920.00
861.98	20983.49
862.16	20793.03
862.33	20496.07
862.51	20840.13
862.68	21079.74
862.86	20885.19
863.03	20864.71
863.21	20668.10
863.38	20731.59
863.55	20491.98
863.73	20778.69
863.90	20586.18
864.08	20727.49
864.25	20471.50
864.43	20655.81
864.60	20471.50
864.77	20385.48
864.95	20332.23
865.12	20166.35
865.30	20545.22
865.47	20172.49
865.64	20385.48
865.82	20639.43
865.99	20348.62
866.17	20405.96
866.34	20416.20
866.51	20031.18
866.69	20479.69
866.86	20371.15
867.04	20221.64
867.21	20211.40
867.38	20098.77
867.56	20008.65
867.73	19896.02
867.91	19832.53
868.08	19984.08
868.25	19939.02
868.43	19631.83
868.60	19697.36
868.78	19730.13
868.95	20025.04
869.12	19930.83
869.30	19777.23
869.47	19695.32
869.64	19615.44
869.82	19353.30
869.99	19545.81
870.16	19537.62
870.34	19355.35
870.51	19574.49
870.69	19177.18
870.86	19273.43
871.03	19398.36
871.21	19427.03
871.38	19453.66
871.55	18974.43
871.73	19158.75
871.90	19259.10
872.07	19336.92
872.25	18781.92
872.42	18962.14
872.59	18992.86
872.77	19087.07
872.94	19054.30
873.11	18638.56
873.29	19117.79
873.46	19101.40
873.63	18740.96
873.81	18878.18
873.98	18773.73
874.15	18620.13
874.33	18398.95
874.50	18286.31
874.67	18675.43
874.85	18550.50
875.02	18468.58
875.19	18128.62
875.37	18401.00
875.54	18177.77
875.71	18161.39
875.88	18278.12
876.06	18312.94
876.23	18112.24
876.40	17956.59
876.58	18147.05
876.75	17956.59
876.92	18112.24
877.10	18081.52
877.27	17839.86
877.44	18134.76
877.61	17778.42
877.79	17790.70
877.96	17809.14
878.13	17983.21
878.31	17893.10
878.48	17770.22
878.65	17610.48
878.82	17362.68
879.00	17723.12
879.17	17471.22
879.34	17630.96
879.51	17483.51
879.69	17350.39
879.86	17477.37
880.03	17301.24
880.21	17303.29
880.38	17680.11
880.55	17276.66
880.72	17166.07
880.90	17520.37
881.07	17247.99
881.24	17272.57
881.41	17342.20
881.59	17372.92
881.76	17039.10
881.93	16828.16
882.10	16895.74
882.28	16867.07
882.45	17104.64
882.62	16932.61
882.79	17217.27
882.96	16717.57
883.14	16959.23
883.31	17188.60
883.48	16805.63
883.65	16756.48
883.83	17297.14
884.00	16901.89
884.17	16934.65
884.34	17082.11
884.51	16654.08
884.69	16756.48
884.86	16768.77
885.03	16588.55
885.20	16584.45
885.38	16758.53
885.55	16627.46
885.72	16627.46
885.89	16432.90
886.06	16457.48
886.24	16525.06
886.41	16379.65
886.58	16482.05
886.75	16578.31
886.92	16205.58
887.10	16389.89
887.27	16207.62
887.44	16635.65
887.61	16572.16
887.78	16393.99
887.95	16486.15
888.13	16232.20
888.30	16314.12
888.47	16174.86
888.64	16236.30
888.81	16260.87
888.99	16238.34
889.16	15902.48
889.33	15867.66
889.50	16000.78
889.67	16219.91
889.84	15898.38
890.01	15914.77
890.19	16021.26
890.36	15855.37
890.53	15951.63
890.70	15738.64
890.87	15769.36
891.04	15843.09
891.22	15601.43
891.39	15740.69
891.56	15638.29
891.73	15499.03
891.90	15513.36
892.07	15560.47
892.24	15709.97
892.42	15499.03
892.59	15517.46
892.76	15339.29
892.93	15144.73
893.10	15269.66
893.27	15163.16
893.44	15114.01
893.61	15267.61
893.79	15464.21
893.96	15445.78
894.13	15318.81
894.30	15398.68
894.47	15240.98
894.64	15542.03
894.81	15122.20
894.98	15288.09
895.15	15386.39
895.33	15183.64
895.50	15118.11
895.67	15298.33
895.84	15071.00
896.01	15206.17
896.18	15124.25
896.35	15339.29
896.52	15261.46
896.69	15066.91
896.86	15421.20
897.04	14993.18
897.21	15122.20
897.38	14972.70
897.55	14997.28
897.72	15251.22
897.89	15273.75
898.06	15175.45
898.23	14915.36
898.40	15206.17
898.57	15183.64
898.74	15232.79
898.91	14993.18
899.08	15173.40
899.26	15101.72
899.43	15144.73
899.60	14884.64
899.77	15173.40
899.94	15187.74
900.11	15220.50
900.28	15073.05
900.45	15003.42
900.62	14960.41
900.79	15005.47
900.96	14974.75
901.13	15142.68
901.30	15079.19
901.47	14741.28
901.64	15197.98
901.81	14847.77
901.98	14843.68
902.15	15243.03
902.32	14782.24
902.49	15329.05
902.66	14855.97
902.83	15122.20
903.01	14905.12
903.18	14913.31
903.35	15099.67
903.52	15114.01
903.69	15001.37
903.86	15124.25
904.03	15017.75
904.20	15146.78
904.37	15138.58
904.54	15005.47
904.71	14917.40
904.88	15163.16
905.05	14989.08
905.22	15044.38
905.39	15058.71
905.56	14997.28
905.73	15048.47
905.90	14794.53
906.07	15017.75
906.24	15159.06
906.41	14855.97
906.58	14929.69
906.75	14917.40
906.92	14798.62
907.09	14819.10
907.26	14755.61
907.43	15118.11
907.60	14898.97
907.77	14798.62
907.93	14892.83
908.10	14991.13
908.27	14952.22
908.44	14720.80
908.61	14720.80
908.78	14864.16
908.95	14858.01
909.12	14767.90
909.29	14831.39
909.46	14669.60
909.63	14972.70
909.80	14710.56
909.97	14552.87
910.14	14733.09
910.31	14550.82
910.48	14778.14
910.65	14923.55
910.82	14516.00
910.99	14698.27
911.16	14567.20
911.33	14663.46
911.50	14632.74
911.66	14389.03
911.83	14505.76
912.00	14655.26
912.17	14507.81
912.34	14436.13
912.51	14376.74
912.68	14417.70
912.85	14542.63
913.02	14356.26
913.19	14069.55
913.36	14241.57
913.53	14446.37
913.70	14448.42
913.86	14356.26
914.03	14239.53
914.20	14075.69
914.37	14280.49
914.54	14090.02
914.71	14399.27
914.88	13934.38
915.05	14077.74
915.22	13823.79
915.39	14233.38
915.55	14010.15
915.72	14151.46
915.89	13846.32
916.06	13893.42
916.23	13911.85
916.40	13752.11
916.57	13692.72
916.74	13621.04
916.91	13772.59
917.07	13629.23
917.24	13616.94
917.41	13623.09
917.58	13504.31
917.75	13721.39
917.92	13426.48
918.09	13416.24
918.26	13240.12
918.42	13324.08
918.59	13393.72
918.76	13328.18
918.93	13385.52
919.10	13080.38
919.27	13090.62
919.44	13340.47
919.60	13174.58
919.77	13102.90
919.94	13125.43
920.11	12943.16
920.28	13211.45
920.45	12898.11
920.61	12840.76
920.78	12855.10
920.95	13113.14
921.12	12945.21
921.29	12973.88
921.46	12533.57
921.62	12738.37
921.79	12881.72
921.96	12328.77
922.13	12595.01
922.30	12400.45
922.47	12240.71
922.63	12375.88
922.80	12336.96
922.97	12312.39
923.14	12107.59
923.31	12349.25
923.47	12101.45
923.64	12601.15
923.81	12035.91
923.98	12062.54
924.15	11990.86
924.32	12021.58
924.48	11968.33
924.65	12001.10
924.82	11714.38
924.99	11857.74
925.15	11767.63
925.32	11771.72
925.49	11566.93
925.66	11812.68
925.83	11523.92
925.99	11589.46
926.16	11616.08
926.33	11669.33
926.50	11528.02
926.67	11501.39
926.83	11372.37
927.00	11444.05
927.17	11224.92
927.34	11188.05
927.50	11118.42
927.67	11302.74
927.84	11151.19
928.01	11198.29
928.17	10915.67
928.34	11050.84
928.51	11138.90
928.68	10905.43
928.84	10696.54
929.01	10784.60
929.18	10592.09
929.35	10694.49
929.51	10702.68
929.68	10596.19
929.85	10510.18
930.02	10616.67
930.18	10293.09
930.35	10432.35
930.52	10262.37
930.69	10407.78
930.85	10311.52
931.02	10041.19
931.19	10307.43
931.36	10180.45
931.52	10125.16
931.69	10116.97
931.86	10016.62
932.02	10094.44
932.19	9951.08
932.36	10086.25
932.53	9758.57
932.69	9717.61
932.86	9897.83
933.03	9690.99
933.19	9731.95
933.36	9697.13
933.53	9807.72
933.70	9561.97
933.86	9574.25
934.03	9437.04
934.20	9478.00
934.36	9351.03
934.53	9312.11
934.70	9064.31
934.86	9195.38
935.03	9029.49
935.20	9000.82
935.36	8972.15
935.53	9099.13
935.70	8886.14
935.86	8882.04
936.03	8595.32
936.20	8486.78
936.36	8568.70
936.53	8497.02
936.70	8490.88
936.86	8468.35
937.03	8363.90
937.20	8216.45
937.36	8191.88
937.53	7987.08
937.70	7974.79
937.86	7927.69
938.03	7790.47
938.20	7769.99
938.36	7653.26
938.53	7747.47
938.70	7423.89
938.86	7462.80
939.03	7497.61
939.20	7221.14
939.36	7174.03
939.53	7014.29
939.70	7106.45
939.86	6733.72
940.03	6885.27
940.19	6887.32
940.36	6780.82
940.53	6713.24
940.69	6672.28
940.86	6680.47
941.03	6401.95
941.19	6352.80
941.36	6379.42
941.52	6348.70
941.69	6346.66
941.86	6199.20
942.02	6074.28
942.19	5992.36
942.35	6111.14
942.52	6102.95
942.69	5965.73
942.85	5842.85
943.02	5836.71
943.18	5885.86
943.35	5738.41
943.52	5760.94
943.68	5693.35
943.85	5756.84
944.01	5564.33
944.18	5613.48
944.35	5693.35
944.51	5531.56
944.68	5386.16
944.84	5300.14
945.01	5468.08
945.17	5556.14
945.34	5562.28
945.51	5420.97
945.67	5410.73
945.84	5455.79
946.00	5269.42
946.17	5517.23
946.33	5222.32
946.50	5302.19
946.67	5345.20
946.83	5363.63
947.00	5386.16
947.16	5386.16
947.33	5212.08
947.49	5314.48
947.66	5345.20
947.82	5349.29
947.99	5367.73
948.16	5300.14
948.32	5154.74
948.49	5285.81
948.65	5341.10
948.82	5269.42
948.98	5162.93
949.15	5130.16
949.31	5318.57
949.48	5285.81
949.64	5189.55
949.81	5345.20
949.97	5339.05
950.14	5400.49
950.30	5109.68
950.47	5474.22
950.63	5294.00
950.80	5404.59
950.96	5294.00
951.13	5500.84
951.30	5287.86
951.46	5400.49
951.63	5459.88
951.79	5400.49
951.96	5398.45
952.12	5281.71
952.29	5334.96
952.45	5197.74
952.62	5289.90
952.78	5380.01
952.94	5337.01
953.11	5304.24
953.27	5302.19
953.44	5451.69
953.60	5502.89
953.77	5343.15
953.93	5449.64
954.10	5488.56
954.26	5492.65
954.43	5418.93
954.59	5478.32
954.76	5613.48
954.92	5365.68
955.09	5445.55
955.25	5398.45
955.42	5443.50
955.58	5535.66
955.75	5420.97
955.91	5468.08
956.07	5451.69
956.24	5408.69
956.40	5320.62
956.57	5552.04
956.73	5461.93
956.90	5525.42
957.06	5443.50
957.23	5420.97
957.39	5388.21
957.56	5506.99
957.72	5468.08
957.88	5453.74
958.05	5519.28
958.21	5433.26
958.38	5406.64
958.54	5470.12
958.71	5582.76
958.87	5478.32
959.03	5556.14
959.20	5482.41
959.36	5275.57
959.53	5480.36
959.69	5390.25
959.85	5472.17
960.02	5373.87
960.18	5431.21
960.35	5439.40
960.51	5484.46
960.68	5412.78
960.84	5447.60
961.00	5285.81
961.17	5386.16
961.33	5492.65
961.50	5580.71
961.66	5470.12
961.82	5361.58
961.99	5402.54
962.15	5365.68
962.31	5498.80
962.48	5478.32
962.64	5457.84
962.81	5386.16
962.97	5443.50
963.13	5416.88
963.30	5420.97
963.46	5353.39
963.62	5427.12
963.79	5455.79
963.95	5466.03
964.12	5396.40
964.28	5457.84
964.44	5441.45
964.61	5398.45
964.77	5431.21
964.93	5480.36
965.10	5357.49
965.26	5230.51
965.42	5308.34
965.59	5320.62
965.75	5283.76
965.92	5386.16
966.08	5246.90
966.24	5300.14
966.41	5412.78
966.57	5328.81
966.73	5386.16
966.90	5519.28
967.06	5326.77
967.22	5167.03
967.39	5177.26
967.55	5064.63
967.71	5171.12
967.88	5214.13
968.04	5279.66
968.20	5183.41
968.37	5347.25
968.53	5285.81
968.69	5146.55
968.85	5345.20
969.02	5269.42
969.18	5214.13
969.34	5158.83
969.51	5140.40
969.67	5199.79
969.83	4927.41
970.00	5097.39
970.16	5066.67
970.32	5148.59
970.48	5328.81
970.65	5179.31
970.81	5042.10
970.97	5132.21
971.14	5052.34
971.30	5169.07
971.46	4982.71
971.63	5062.58
971.79	5033.91
971.95	5040.05
972.11	4972.47
972.28	5007.28
972.44	5007.28
972.60	4894.65
972.76	5074.87
972.93	4874.17
973.09	4894.65
973.25	4958.13
973.42	4915.12
973.58	4980.66
973.74	5042.10
973.90	4943.80
974.07	4755.38
974.23	4829.11
974.39	5029.81
974.55	4976.56
974.72	4919.22
974.88	4657.08
975.04	4798.39
975.20	4771.77
975.37	4845.49
975.53	4722.62
975.69	4759.48
975.85	4849.59
976.01	4890.55
976.18	4665.27
976.34	4800.44
976.50	4878.26
976.66	4714.42
976.83	4712.38
976.99	4671.42
977.15	4763.58
977.31	4634.55
977.47	4734.90
977.64	4648.89
977.80	4681.66
977.96	4683.70
978.12	4691.90
978.29	4517.82
978.45	4579.26
978.61	4489.15
978.77	4675.51
978.93	4624.31
979.10	4556.73
979.26	4622.27
979.42	4511.68
979.58	4401.08
979.74	4505.53
979.91	4603.83
980.07	4374.46
980.23	4362.17
980.39	4321.21
980.55	4294.59
980.71	4403.13
980.88	4425.66
981.04	4435.90
981.20	4435.90
981.36	4462.52
981.52	4399.04
981.68	4374.46
981.85	4313.02
982.01	4364.22
982.17	4259.78
982.33	4390.84
982.49	4415.42
982.65	4376.51
982.82	4435.90
982.98	4405.18
983.14	4296.64
983.30	4229.06
983.46	4300.73
983.62	4329.41
983.79	4431.80
983.95	4163.52
984.11	4216.77
984.27	4231.10
984.43	4229.06
984.59	4235.20
984.75	4214.72
984.91	4091.84
985.08	4280.25
985.24	3968.96
985.40	4220.86
985.56	4200.38
985.72	4247.49
985.88	4204.48
986.04	4163.52
986.20	4022.21
986.37	4249.54
986.53	4052.93
986.69	4038.59
986.85	4089.79
987.01	4040.64
987.17	4095.94
987.33	4059.07
987.49	3989.44
987.65	4038.59
987.82	3995.59
987.98	3831.75
988.14	4001.73
988.30	4073.41
988.46	4003.78
988.62	3964.87
988.78	3966.92
988.94	3903.43
989.10	3854.28
989.26	3915.72
989.42	3889.09
989.59	3862.47
989.75	3903.43
989.91	3979.20
990.07	3819.46
990.23	3798.98
990.39	3809.22
990.55	3825.61
990.71	3919.81
990.87	3846.09
991.03	3852.23
991.19	3860.42
991.35	3786.69
991.51	3667.91
991.67	3774.41
991.83	3829.70
992.00	3864.52
992.16	3727.30
992.32	3932.10
992.48	3858.37
992.64	3735.50
992.80	3772.36
992.96	3663.82
993.12	3688.39
993.28	3755.97
993.44	3710.92
993.60	3674.06
993.76	3762.12
993.92	3629.00
994.08	3700.68
994.24	3604.42
994.40	3672.01
994.56	3590.09
994.72	3571.66
994.88	3577.80
995.04	3637.19
995.20	3502.03
995.36	3645.38
995.52	3567.56
995.68	3579.85
995.84	3432.40
996.00	3696.58
996.16	3512.27
996.32	3401.68
996.48	3473.36
996.64	3526.60
996.80	3454.92
996.96	3540.94
997.12	3540.94
997.28	3385.29
997.44	3358.67
997.60	3479.50
997.76	3393.48
997.92	3452.88
998.08	3434.44
998.24	3270.61
998.40	3463.12
998.56	3399.63
998.72	3332.05
998.88	3352.52
999.04	3373.00
999.20	3385.29
999.36	3301.33
999.52	3428.30
999.68	3346.38
999.84	3309.52
1000.00	3295.18
1000.16	3420.11
1000.32	3368.91
1000.48	3373.00
1000.64	3235.79
1000.80	3200.98
1000.95	3166.16
1001.11	3342.28
1001.27	3145.68
1001.43	3299.28
1001.59	3194.83
1001.75	3123.15
1001.91	3192.78
1002.07	3147.73
1002.23	3223.50
1002.39	3121.10
1002.55	3141.58
1002.71	3067.86
1002.87	3055.57
1003.03	3112.91
1003.19	3168.21
1003.34	3215.31
1003.50	3157.97
1003.66	3270.61
1003.82	3166.16
1003.98	3022.80
1004.14	3106.77
1004.30	3067.86
1004.46	3012.56
1004.62	3127.25
1004.78	3030.99
1004.94	3076.05
1005.09	3082.19
1005.25	3053.52
1005.41	2996.18
1005.57	2965.46
1005.73	2971.60
1005.89	2979.79
1006.05	3026.90
1006.21	3084.24
1006.37	2930.64
1006.52	2858.96
1006.68	2895.83
1006.84	3033.04
1007.00	2889.68
1007.16	3024.85
1007.32	2897.88
1007.48	2863.06
1007.64	2930.64
1007.79	2856.92
1007.95	2852.82
1008.11	2895.83
1008.27	2756.57
1008.43	2887.64
1008.59	2867.16
1008.75	2895.83
1008.91	2877.40
1009.06	2809.81
1009.22	2865.11
1009.38	2826.20
1009.54	2797.53
1009.70	2791.38
1009.86	2803.67
1010.01	2809.81
1010.17	2762.71
1010.33	2803.67
1010.49	2830.29
1010.65	2856.92
1010.81	2850.77
1010.96	2725.85
1011.12	2666.46
1011.28	2707.41
1011.44	2781.14
1011.60	2719.70
1011.76	2709.46
1011.91	2764.76
1012.07	2695.13
1012.23	2602.97
1012.39	2727.89
1012.55	2719.70
1012.71	2740.18
1012.86	2666.46
1013.02	2672.60
1013.18	2572.25
1013.34	2562.01
1013.50	2701.27
1013.65	2684.89
1013.81	2590.68
1013.97	2547.67
1014.13	2664.41
1014.29	2588.63
1014.44	2652.12
1014.60	2568.15
1014.76	2658.26
1014.92	2545.63
1015.07	2549.72
1015.23	2652.12
1015.39	2553.82
1015.55	2557.91
1015.71	2547.67
1015.86	2480.09
1016.02	2578.39
1016.18	2394.08
1016.34	2559.96
1016.49	2582.49
1016.65	2652.12
1016.81	2594.78
1016.97	2428.89
1017.12	2492.38
1017.28	2387.93
1017.44	2428.89
1017.60	2432.99
1017.75	2453.47
1017.91	2453.47
1018.07	2410.46
1018.23	2428.89
1018.38	2449.37
1018.54	2342.88
1018.70	2437.08
1018.86	2379.74
1019.01	2377.69
1019.17	2398.17
1019.33	2500.57
1019.49	2482.14
1019.64	2533.34
1019.80	2357.21
1019.96	2469.85
1020.12	2392.03
1020.27	2326.49
1020.43	2424.80
1020.59	2371.55
1020.74	2367.45
1020.90	2412.51
1021.06	2346.97
1021.22	2357.21
1021.37	2322.40
1021.53	2263.01
1021.69	2371.55
1021.84	2271.20
1022.00	2371.55
1022.16	2314.20
1022.31	2426.84
1022.47	2459.61
1022.63	2308.06
1022.79	2254.81
1022.94	2320.35
1023.10	2439.13
1023.26	2322.40
1023.41	2306.01
1023.57	2308.06
1023.73	2260.96
1023.88	2252.77
1024.04	2293.72
1024.20	2248.67
1024.35	2244.57
1024.51	2248.67
1024.67	2246.62
1024.82	2215.90
1024.98	2224.09
1025.14	2238.43
1025.29	2242.53
1025.45	2281.44
1025.61	2160.61
1025.76	2144.22
1025.92	2314.20
1026.08	2254.81
1026.23	2185.18
1026.39	2361.31
1026.55	2179.04
1026.70	2166.75
1026.86	2211.81
1027.02	2209.76
1027.17	2158.56
1027.33	2181.09
1027.48	2144.22
1027.64	2189.28
1027.80	2205.66
1027.95	2146.27
1028.11	2101.22
1028.27	2152.42
1028.42	2205.66
1028.58	2154.46
1028.73	2078.69
1028.89	2041.82
1029.05	2170.85
1029.20	2230.24
>>>>>End Processed Spectral Data<<<<<
