SpectraSuite Data File
++++++++++++++++++++++++++++++++++++
Date: Fri Jun 02 14:57:22 CEST 2017
User: INFO_000
Dark Spectrum Present: No
Reference Spectrum Present: No
Number of Sampled Component Spectra: 1
Spectrometers: USB4H00879
Integration Time (usec): 80000 (USB4H00879)
Spectra Averaged: 1 (USB4H00879)
Boxcar Smoothing: 0 (USB4H00879)
Correct for Electrical Dark: No (USB4H00879)
Strobe/Lamp Enabled: No (USB4H00879)
Correct for Detector Non-linearity: No (USB4H00879)
Correct for Stray Light: No (USB4H00879)
Number of Pixels in Processed Spectrum: 3648
>>>>>Begin Processed Spectral Data<<<<<
345.13	1265.64
345.34	1265.64
345.56	1265.64
345.78	1286.12
345.99	1247.21
346.21	1773.54
346.42	1710.05
346.64	1603.56
346.86	1746.92
347.07	1605.61
347.29	1693.67
347.50	1605.61
347.72	1710.05
347.94	1703.91
348.15	1632.23
348.37	1527.78
348.59	1695.72
348.80	1677.29
349.02	1787.88
349.23	1808.36
349.45	1865.70
349.67	1937.38
349.88	1816.55
350.10	1892.32
350.31	1822.69
350.53	1826.79
350.75	1875.94
350.96	1837.03
351.18	1830.88
351.39	1857.51
351.61	1808.36
351.82	1818.60
352.04	1869.80
352.26	1820.64
352.47	1865.70
352.69	1869.80
352.90	1810.40
353.12	1808.36
353.34	1839.08
353.55	1931.23
353.77	1953.76
353.98	1861.60
354.20	1875.94
354.41	1957.86
354.63	1820.64
354.85	2019.30
355.06	1914.85
355.28	1841.12
355.49	1953.76
355.71	1912.80
355.92	1830.88
356.14	1923.04
356.35	1814.50
356.57	1779.68
356.79	1998.82
357.00	1904.61
357.22	1927.14
357.43	1859.56
357.65	2047.97
357.86	1865.70
358.08	1947.62
358.29	1918.95
358.51	1929.19
358.72	1978.34
358.94	1906.66
359.16	1955.81
359.37	1959.91
359.59	1964.00
359.80	1935.33
360.02	1935.33
360.23	1945.57
360.45	2047.97
360.66	1990.63
360.88	1929.19
361.09	1904.61
361.31	1945.57
361.52	1906.66
361.74	2129.89
361.95	2142.18
362.17	1906.66
362.38	2093.02
362.60	2002.91
362.81	1968.10
363.03	1986.53
363.24	1980.39
363.46	2027.49
363.67	2027.49
363.89	1990.63
364.10	1990.63
364.32	2019.30
364.53	2097.12
364.75	1959.91
364.96	2023.39
365.18	2050.02
365.39	1986.53
365.61	2033.63
365.82	2084.83
366.04	2023.39
366.25	1968.10
366.47	2099.17
366.68	1968.10
366.90	1986.53
367.11	2105.31
367.33	2072.54
367.54	2023.39
367.76	2050.02
367.97	2125.79
368.19	2025.44
368.40	2082.78
368.62	1949.67
368.83	2045.92
369.05	2033.63
369.26	1998.82
369.48	1986.53
369.69	2007.01
369.91	2084.83
370.12	2035.68
370.33	2099.17
370.55	2015.20
370.76	2021.35
370.98	2172.89
371.19	2072.54
371.41	2019.30
371.62	2056.16
371.84	2072.54
372.05	2240.48
372.27	2101.22
372.48	2144.22
372.69	2062.30
372.91	2111.46
373.12	2236.38
373.34	2146.27
373.55	2066.40
373.77	2148.32
373.98	2154.46
374.20	2162.66
374.41	2236.38
374.62	2170.85
374.84	2201.57
375.05	2066.40
375.27	2181.09
375.48	2191.33
375.70	2187.23
375.91	2254.81
376.12	2353.12
376.34	2183.13
376.55	2189.28
376.77	2189.28
376.98	2144.22
377.19	2103.26
377.41	2158.56
377.62	2181.09
377.84	2136.03
378.05	2269.15
378.27	2222.05
378.48	2291.68
378.69	2318.30
378.91	2387.93
379.12	2346.97
379.34	2203.61
379.55	2312.16
379.76	2287.58
379.98	2129.89
380.19	2256.86
380.41	2228.19
380.62	2263.01
380.83	2240.48
381.05	2189.28
381.26	2412.51
381.47	2187.23
381.69	2238.43
381.90	2410.46
382.12	2287.58
382.33	2289.63
382.54	2240.48
382.76	2334.68
382.97	2320.35
383.19	2263.01
383.40	2355.16
383.61	2314.20
383.83	2353.12
384.04	2297.82
384.25	2412.51
384.47	2410.46
384.68	2334.68
384.89	2273.25
385.11	2306.01
385.32	2318.30
385.54	2377.69
385.75	2332.64
385.96	2353.12
386.18	2410.46
386.39	2394.08
386.60	2389.98
386.82	2410.46
387.03	2463.71
387.24	2562.01
387.46	2519.00
387.67	2537.43
387.88	2527.19
388.10	2451.42
388.31	2449.37
388.52	2564.06
388.74	2531.29
388.95	2439.13
389.16	2506.71
389.38	2537.43
389.59	2607.06
389.80	2631.64
390.02	2549.72
390.23	2615.26
390.44	2609.11
390.66	2494.43
390.87	2508.76
391.08	2650.07
391.30	2729.94
391.51	2662.36
391.72	2605.02
391.94	2731.99
392.15	2629.59
392.36	2600.92
392.58	2621.40
392.79	2629.59
393.00	2707.41
393.22	2727.89
393.43	2805.72
393.64	2854.87
393.85	2713.56
394.07	2682.84
394.28	2699.22
394.49	2709.46
394.71	2811.86
394.92	2893.78
395.13	2658.26
395.35	2779.09
395.56	2736.09
395.77	2850.77
395.98	2852.82
396.20	2799.57
396.41	2832.34
396.62	2885.59
396.84	2908.12
397.05	2801.62
397.26	2869.20
397.47	2953.17
397.69	2772.95
397.90	3051.47
398.11	2932.69
398.32	2867.16
398.54	2854.87
398.75	2861.01
398.96	2904.02
399.18	3129.30
399.39	2953.17
399.60	3033.04
399.81	2981.84
400.03	2955.22
400.24	3110.86
400.45	3002.32
400.66	3035.09
400.88	2961.36
401.09	3174.35
401.30	3055.57
401.51	3135.44
401.73	3153.87
401.94	3117.01
402.15	3088.34
402.36	3102.67
402.58	3182.54
402.79	3194.83
403.00	3200.98
403.21	3184.59
403.43	3338.19
403.64	3284.94
403.85	3049.43
404.06	3291.09
404.27	3137.49
404.49	3186.64
404.70	3047.38
404.91	3254.22
405.12	3205.07
405.34	3180.50
405.55	3454.92
405.76	3252.17
405.97	3235.79
406.19	3360.72
406.40	3225.55
406.61	3313.61
406.82	3289.04
407.03	3338.19
407.25	3239.89
407.46	3317.71
407.67	3383.24
407.88	3289.04
408.09	3330.00
408.31	3338.19
408.52	3307.47
408.73	3370.96
408.94	3272.65
409.15	3448.78
409.37	3524.55
409.58	3502.03
409.79	3434.44
410.00	3516.36
410.21	3434.44
410.43	3446.73
410.64	3467.21
410.85	3518.41
411.06	3475.40
411.27	3559.37
411.48	3547.08
411.70	3526.60
411.91	3479.50
412.12	3551.18
412.33	3631.05
412.54	3536.84
412.76	3764.17
412.97	3688.39
413.18	3485.64
413.39	3655.62
413.60	3827.65
413.81	3700.68
414.03	3631.05
414.24	3583.95
414.45	3798.98
414.66	3561.42
414.87	3823.56
415.08	3710.92
415.30	3653.58
415.51	3776.45
415.72	3762.12
415.93	3692.49
416.14	3811.27
416.35	3889.09
416.56	3733.45
416.78	3772.36
416.99	3753.93
417.20	3878.85
417.41	3938.24
417.62	3901.38
417.83	3999.68
418.04	3856.33
418.26	3882.95
418.47	3985.35
418.68	4020.16
418.89	4034.50
419.10	4128.70
419.31	3887.04
419.52	4050.88
419.73	4034.50
419.95	4093.89
420.16	3999.68
420.37	4120.51
420.58	4163.52
420.79	3936.20
421.00	4034.50
421.21	4149.18
421.42	4040.64
421.63	4048.83
421.85	4165.57
422.06	4157.38
422.27	4120.51
422.48	4196.29
422.69	4177.86
422.90	4216.77
423.11	4247.49
423.32	4198.34
423.53	4515.77
423.75	4403.13
423.96	4468.67
424.17	4462.52
424.38	4483.00
424.59	4333.50
424.80	4624.31
425.01	4421.56
425.22	4538.30
425.43	4427.71
425.64	4583.35
425.85	4695.99
426.06	4630.46
426.28	4493.24
426.49	4382.65
426.70	4562.87
426.91	4571.07
427.12	4659.13
427.33	4640.70
427.54	4597.69
427.75	4812.73
427.96	4876.21
428.17	4812.73
428.38	4806.58
428.59	4964.28
428.80	4777.91
429.01	4792.25
429.23	4878.26
429.44	4972.47
429.65	4999.09
429.86	5042.10
430.07	4802.49
430.28	4976.56
430.49	4958.13
430.70	5085.11
430.91	5056.43
431.12	5070.77
431.33	5177.26
431.54	5158.83
431.75	5081.01
431.96	5097.39
432.17	5148.59
432.38	5040.05
432.59	5357.49
432.80	5160.88
433.01	5314.48
433.22	5482.41
433.43	5318.57
433.64	5296.05
433.85	5322.67
434.06	5285.81
434.27	5242.80
434.49	5289.90
434.70	5521.32
434.91	5318.57
435.12	5474.22
435.33	5474.22
435.54	5392.30
435.75	5334.96
435.96	5459.88
436.17	5496.75
436.38	5547.95
436.59	5730.22
436.80	5390.25
437.01	5758.89
437.22	5685.16
437.43	5568.43
437.64	5453.74
437.85	5679.02
438.06	5719.98
438.27	5578.67
438.48	5636.01
438.69	5830.57
438.90	5640.11
439.11	5722.02
439.32	5795.75
439.53	5713.83
439.74	5871.53
439.95	5689.26
440.16	5752.74
440.37	5816.23
440.57	5672.87
440.78	5961.64
440.99	5957.54
441.20	6029.22
441.41	5857.19
441.62	5851.05
441.83	5894.05
442.04	6113.19
442.25	5980.07
442.46	5949.35
442.67	6012.84
442.88	6408.09
443.09	5838.76
443.30	5889.96
443.51	6076.32
443.72	6428.57
443.93	6141.86
444.14	6348.70
444.35	6012.84
444.56	6209.44
444.77	6195.11
444.98	6207.39
445.19	6303.65
445.40	6274.98
445.61	6195.11
445.81	6430.62
446.02	6496.16
446.23	6352.80
446.44	6266.78
446.65	6412.19
446.86	6334.37
447.07	6510.49
447.28	6508.44
447.49	6635.42
447.70	6475.68
447.91	6596.51
448.12	6530.97
448.33	6672.28
448.54	6727.58
448.74	6608.80
448.95	6631.32
449.16	6557.60
449.37	6956.95
449.58	6616.99
449.79	7004.05
450.00	6528.92
450.21	7008.15
450.42	6926.23
450.63	6881.18
450.84	6832.02
451.05	6864.79
451.25	6909.85
451.46	6834.07
451.67	6991.77
451.88	7143.32
452.09	7145.36
452.30	7047.06
452.51	6909.85
452.72	7309.20
452.93	7368.59
453.13	6999.96
453.34	7196.56
453.55	7284.62
453.76	6999.96
453.97	7497.61
454.18	7331.73
454.39	7362.45
454.60	7368.59
454.81	7362.45
455.01	7444.37
455.22	7292.82
455.43	7565.20
455.64	7624.59
455.85	7915.40
456.06	7872.39
456.27	7761.80
456.48	7655.31
456.68	7694.22
456.89	7710.60
457.10	7813.00
457.31	7864.20
457.52	7763.85
457.73	7991.17
457.94	8128.39
458.14	7901.06
458.35	8363.90
458.56	8267.65
458.77	8048.52
458.98	8263.55
459.19	8234.88
459.39	8355.71
459.60	8337.28
459.81	8322.94
460.02	8433.54
460.23	8408.96
460.44	8667.00
460.65	8621.95
460.85	8716.16
461.06	8675.20
461.27	8523.65
461.48	8849.27
461.69	9052.02
461.89	8597.37
462.10	8961.91
462.31	8583.04
462.52	8818.55
462.73	8855.42
462.94	9222.00
463.14	8998.77
463.35	9119.60
463.56	9609.07
463.77	9310.07
463.98	9391.98
464.18	9394.03
464.39	9314.16
464.60	9445.23
464.81	9703.28
465.02	9412.46
465.23	9740.14
465.43	9654.12
465.64	9889.64
465.85	9623.41
466.06	9650.03
466.27	9973.61
466.47	10172.26
466.68	10106.73
466.89	10065.77
467.10	10159.97
467.30	9998.18
467.51	10217.32
467.72	10344.29
467.93	10196.84
468.14	10313.57
468.34	10522.46
468.55	10547.04
468.76	10596.19
468.97	10678.11
469.17	10678.11
469.38	10823.51
469.59	10946.39
469.80	10757.98
470.01	10934.11
470.21	10958.68
470.42	11276.12
470.63	11339.60
470.84	11186.01
471.04	11181.91
471.25	11472.72
471.46	11243.35
471.67	11601.74
471.87	11657.04
472.08	11480.91
472.29	11972.43
472.50	11489.10
472.70	11771.72
472.91	11624.27
473.12	12152.65
473.33	12046.15
473.53	12005.19
473.74	12123.98
473.95	12754.75
474.16	12607.30
474.36	12328.77
474.57	12459.84
474.78	12822.33
474.99	12558.14
475.19	12562.24
475.40	12787.52
475.61	13066.04
475.81	13025.08
476.02	13246.26
476.23	13242.17
476.44	13287.22
476.64	13541.17
476.85	13629.23
477.06	13461.30
477.27	13846.32
477.47	14030.63
477.68	14016.30
477.89	14245.67
478.09	14106.41
478.30	13950.76
478.51	14016.30
478.71	14260.01
478.92	14384.93
479.13	14417.70
479.34	14638.88
479.54	14722.85
479.75	14657.31
479.96	14753.57
480.16	14919.45
480.37	14862.11
480.58	14911.26
480.78	15402.77
480.99	15290.13
481.20	15429.40
481.41	15515.41
481.61	15902.48
481.82	15726.35
482.03	15535.89
482.23	15527.70
482.44	15972.11
482.65	16264.97
482.85	15927.05
483.06	16008.97
483.27	16271.11
483.47	16119.56
483.68	16469.76
483.89	16619.27
484.09	16471.81
484.30	16701.19
484.51	16877.31
484.71	17012.48
484.92	17161.98
485.13	17006.33
485.33	17020.67
485.54	17094.40
485.75	17360.63
485.95	17338.10
486.16	17510.13
486.37	17628.92
486.57	17399.54
486.78	17835.76
486.98	17944.30
487.19	17813.23
487.40	17966.83
487.60	17966.83
487.81	18353.90
488.02	18194.15
488.22	18065.13
488.43	18353.90
488.64	18194.15
488.84	18415.34
489.05	18581.22
489.25	18548.45
489.46	19228.38
489.67	18464.49
489.87	19138.27
490.08	18718.43
490.29	19132.12
490.49	19449.56
490.70	19257.05
490.90	19437.27
491.11	19404.50
491.32	19564.25
491.52	19429.08
491.73	19791.57
491.94	19658.45
492.14	19822.29
492.35	19701.46
492.55	20147.92
492.76	20278.99
492.97	20299.47
493.17	20160.20
493.38	20457.16
493.58	20393.67
493.79	20379.34
494.00	20426.44
494.20	20293.32
494.41	20725.44
494.61	20641.48
494.82	20672.20
495.02	21094.08
495.23	21038.78
495.44	21190.33
495.64	21147.33
495.85	20815.55
496.05	21511.86
496.26	21370.55
496.47	21407.42
496.67	21507.77
496.88	21786.29
497.08	21546.68
497.29	21722.80
497.49	21841.59
497.70	22118.06
497.91	21948.08
498.11	22005.42
498.32	22169.26
498.52	22283.95
498.73	22335.15
498.93	22251.18
499.14	22191.79
499.34	22480.55
499.55	22619.81
499.76	22345.39
499.96	22841.00
500.17	22869.67
500.37	22640.29
500.58	22777.51
500.78	23074.46
500.99	23103.14
501.19	23131.81
501.40	23303.84
501.60	22804.13
501.81	23086.75
502.02	23418.52
502.22	23379.61
502.43	23244.45
502.63	23584.41
502.84	23783.06
503.04	23336.60
503.25	23494.30
503.45	23688.85
503.66	23916.18
503.86	23692.95
504.07	24018.58
504.27	23654.04
504.48	24151.70
504.68	24092.30
504.89	24272.53
505.09	24131.22
505.30	24399.50
505.50	24356.49
505.71	24598.15
505.91	24520.33
506.12	24401.55
506.32	24809.09
506.53	24522.38
506.73	24514.19
506.94	24831.62
507.14	24417.93
507.35	24927.88
507.55	24831.62
507.76	24761.99
507.96	24833.67
508.17	24931.97
508.37	24962.69
508.58	25173.63
508.78	25163.39
508.99	25439.87
509.19	25374.33
509.40	25349.76
509.60	25665.14
509.81	25396.86
510.01	25558.65
510.22	25734.78
510.42	25542.27
510.63	25865.85
510.83	25540.22
511.04	25970.29
511.24	26017.40
511.44	25659.00
511.65	26072.69
511.85	26099.31
512.06	26431.08
512.26	26381.93
512.47	26306.16
512.67	26429.04
512.88	26617.45
513.08	26302.06
513.29	26504.81
513.49	26779.24
513.69	26687.08
513.90	26656.36
514.10	26857.06
514.31	26852.97
514.51	26822.25
514.72	26779.24
514.92	26975.84
515.13	26756.71
515.33	27158.11
515.53	27131.49
515.74	27252.32
515.94	27647.58
516.15	27426.40
516.35	27352.67
516.56	27502.17
516.76	27528.80
516.96	27526.75
517.17	27817.56
517.37	27598.43
517.58	27645.53
517.78	27999.83
517.99	28067.41
518.19	27956.82
518.39	28091.99
518.60	28206.67
518.80	28141.14
519.01	28491.34
519.21	28460.62
519.41	28616.27
519.62	28565.07
519.82	28681.80
520.03	28659.27
520.23	28935.75
520.43	28792.39
520.64	29013.57
520.84	29214.27
521.05	28804.68
521.25	29658.68
521.45	29404.74
521.66	29386.30
521.86	29423.17
522.07	29652.54
522.27	29173.31
522.47	29425.22
522.68	29744.70
522.88	29662.78
523.08	30027.32
523.29	29986.36
523.49	29822.52
523.70	30127.67
523.90	30316.08
524.10	30273.07
524.31	30709.29
524.51	30072.37
524.71	30709.29
524.92	30670.38
525.12	30678.57
525.33	30873.13
525.53	30928.42
525.73	31186.47
525.94	30963.24
526.14	30940.71
526.34	30893.61
526.55	31432.22
526.75	31370.79
526.95	31548.96
527.16	31372.83
527.36	31759.90
527.56	31981.08
527.77	31839.77
527.97	32167.45
528.17	32052.76
528.38	32542.22
528.58	32108.05
528.78	32343.57
528.99	32106.01
529.19	32863.75
529.39	32448.02
529.60	32841.23
529.80	32984.58
530.00	32939.53
530.21	33586.69
530.41	33345.03
530.61	33304.07
530.82	33177.09
531.02	33125.89
531.22	33230.34
531.43	33152.52
531.63	33725.95
531.83	33732.09
532.04	34207.22
532.24	33721.85
532.44	34072.06
532.64	34446.83
532.85	34326.00
533.05	34207.22
533.25	34487.79
533.46	34475.51
533.66	34989.55
533.86	34655.73
534.07	35182.06
534.27	34545.14
534.47	35220.97
534.67	35108.33
534.88	34604.53
535.08	35423.72
535.28	35548.64
535.49	35841.50
535.69	35751.39
535.89	35696.10
536.09	35839.45
536.30	36242.90
536.50	36105.69
536.70	36443.60
536.91	36193.75
537.11	36373.97
537.31	36470.23
537.51	36486.61
537.72	36609.49
537.92	36748.75
538.12	36955.60
538.32	36720.08
538.53	37369.29
538.73	36953.55
538.93	36900.30
539.13	36953.55
539.34	37217.74
539.54	37209.54
539.74	37103.05
539.94	37414.34
540.15	37400.01
540.35	37651.91
540.55	37645.76
540.75	37604.80
540.96	37959.10
541.16	38079.93
541.36	37600.71
541.56	38184.38
541.77	38450.61
541.97	38354.36
542.17	38249.91
542.37	38688.18
542.58	38720.95
542.78	38227.38
542.98	38604.21
543.18	38741.42
543.38	38899.12
543.59	38999.47
543.79	39388.58
543.99	38688.18
544.19	39124.40
544.40	39169.45
544.60	39777.70
544.80	39390.63
545.00	39517.60
545.20	39722.40
545.41	39077.29
545.61	39331.24
545.81	39665.06
546.01	39595.43
546.21	40015.26
546.42	39611.81
546.62	40320.41
546.82	39441.83
547.02	39847.33
547.22	39894.43
547.43	39660.96
547.63	40201.63
547.83	40271.26
548.03	40023.45
548.23	40502.68
548.44	40496.53
548.64	40656.28
548.84	40371.61
549.04	40342.94
549.24	40764.82
549.45	40844.69
549.65	40449.43
549.85	40809.87
550.05	40641.94
550.25	40594.84
550.45	41319.82
550.66	41215.37
550.86	40986.00
551.06	41328.01
551.26	41119.12
551.46	41006.48
551.66	41096.59
551.87	41131.40
552.07	41168.27
552.27	41239.95
552.47	40996.24
552.67	41686.40
552.87	41309.58
553.07	41782.66
553.28	41469.32
553.48	41606.53
553.68	41561.48
553.88	41772.42
554.08	41670.02
554.28	41893.25
554.48	41563.53
554.69	41747.84
554.89	41948.54
555.09	41774.47
555.29	41786.75
555.49	41743.75
555.69	42014.08
555.89	41872.77
556.10	41966.98
556.30	41825.67
556.50	42235.26
556.70	42118.53
556.90	42376.57
557.10	42481.02
557.30	42278.27
557.50	42263.93
557.70	42280.31
557.91	42450.30
558.11	42098.05
558.31	42235.26
558.51	42216.83
558.71	42395.00
558.91	42550.65
559.11	42089.85
559.31	42202.49
559.51	42335.61
559.72	42534.26
559.92	42812.79
560.12	42141.05
560.32	42771.83
560.52	42487.16
560.72	42978.67
560.92	42311.03
561.12	42657.14
561.32	42866.03
561.52	42927.47
561.72	42986.86
561.93	42571.13
562.13	42743.16
562.33	42575.22
562.53	43224.43
562.73	42595.70
562.93	42671.48
563.13	42980.72
563.33	42683.76
563.53	43156.85
563.73	42980.72
563.93	42677.62
564.13	43322.73
564.33	43152.75
564.53	43191.66
564.74	43461.99
564.94	43095.41
565.14	43271.53
565.34	42894.71
565.54	43418.99
565.74	43779.43
565.94	43576.68
566.14	43466.09
566.34	43175.28
566.54	43711.84
566.74	43206.00
566.94	43472.23
567.14	43683.17
567.34	43212.14
567.54	43822.44
567.74	43619.69
567.94	43529.58
568.14	43801.96
568.34	44004.70
568.54	43527.53
568.74	43601.25
568.94	43980.13
569.14	44025.18
569.34	43613.54
569.54	43847.01
569.75	43664.74
569.95	44031.33
570.15	44479.83
570.35	44223.84
570.55	43754.85
570.75	43816.29
570.95	44094.82
571.15	43867.49
571.35	43787.62
571.55	44629.34
571.75	43879.78
571.95	44264.80
572.15	44090.72
572.35	44324.19
572.55	44098.91
572.75	44311.90
572.95	44008.80
573.15	44676.44
573.35	44295.52
573.55	44348.76
573.75	43963.75
573.95	44899.67
574.15	44262.75
574.35	44830.04
574.55	44424.54
574.75	44375.39
574.95	44348.76
575.15	44615.00
575.34	44731.73
575.54	44723.54
575.74	45303.12
575.94	44854.61
576.14	44760.40
576.34	45235.53
576.54	45292.88
576.74	45067.60
576.94	44600.66
577.14	45559.11
577.34	45548.87
577.54	44770.64
577.74	45022.54
577.94	45753.67
578.14	45698.37
578.34	45323.60
578.54	45331.79
578.74	45223.25
578.94	45454.67
579.14	45391.18
579.34	45305.16
579.54	45579.59
579.74	45989.19
579.94	45618.50
580.13	46056.77
580.33	45630.79
580.53	46236.99
580.73	46355.77
580.93	45540.68
581.13	45688.13
581.33	46075.20
581.53	46294.33
581.73	46169.41
581.93	46437.69
582.13	46732.60
582.33	46646.58
582.53	46011.71
582.73	46449.98
582.92	46454.08
583.12	46667.06
583.32	46742.84
583.52	46425.40
583.72	47205.68
583.92	46843.19
584.12	46875.96
584.32	47177.01
584.52	46703.93
584.72	46896.44
584.92	46746.93
585.11	47615.27
585.31	46886.20
585.51	47379.76
585.71	47154.48
585.91	47207.73
586.11	47078.71
586.31	47222.06
586.51	47433.00
586.71	47484.20
586.91	47838.50
587.10	47910.18
587.30	47775.02
587.50	47824.17
587.70	47887.65
587.90	47836.45
588.10	47850.79
588.30	48078.11
588.50	47785.25
588.69	47998.24
588.89	47887.65
589.09	48147.75
589.29	47961.38
589.49	48598.30
589.69	48004.39
589.89	48500.00
590.08	48031.01
590.28	48524.57
590.48	48188.70
590.68	48325.92
590.88	48708.89
591.08	48719.13
591.28	48200.99
591.47	48979.22
591.67	48780.57
591.87	49143.06
592.07	48500.00
592.27	48958.74
592.47	48690.46
592.67	48923.93
592.86	48399.65
593.06	49214.74
593.26	49636.62
593.46	49079.57
593.66	48983.32
593.86	49259.79
594.05	49356.05
594.25	49364.24
594.45	49251.60
594.65	49210.64
594.85	49319.18
595.05	49476.88
595.24	49538.32
595.44	49566.99
595.64	49497.36
595.84	49941.77
596.04	49417.49
596.23	49669.39
596.43	50005.25
596.63	49591.56
596.83	49786.12
597.03	50386.18
597.22	50717.95
597.42	49745.16
597.62	50590.97
597.82	49982.73
598.02	50285.82
598.21	50582.78
598.41	50279.68
598.61	50306.30
598.81	50808.06
599.01	50855.16
599.20	50812.15
599.40	50584.83
599.60	51168.50
599.80	51014.90
600.00	51191.03
600.19	51049.72
600.39	50427.13
600.59	51557.61
600.79	51231.99
600.98	51295.47
601.18	51143.92
601.38	51426.54
601.58	51561.71
601.78	51807.47
601.97	52071.65
602.17	51877.10
602.37	51731.69
602.57	51492.08
602.76	52149.48
602.96	51817.71
603.16	52038.89
603.36	51700.97
603.55	52677.85
603.75	52139.24
603.95	52188.39
604.15	52569.31
604.34	52126.95
604.54	52077.80
604.74	51975.40
604.94	52419.81
605.13	52686.04
605.33	52851.93
605.53	52749.53
605.73	52835.55
605.92	52690.14
606.12	52761.82
606.32	53447.89
606.52	52366.56
606.71	52704.48
606.91	53249.24
607.11	52716.76
607.30	53388.50
607.50	52917.46
607.70	53163.22
607.90	53126.36
608.09	53427.41
608.29	53415.12
608.49	53847.24
608.68	53331.15
608.88	53417.17
609.08	53783.76
609.28	53963.98
609.47	53384.40
609.67	54088.90
609.87	53689.55
610.06	54021.32
610.26	53898.44
610.46	53617.87
610.66	53689.55
610.85	54086.85
611.05	54133.96
611.25	54072.52
611.44	53984.46
611.64	54285.51
611.84	53693.64
612.03	53920.97
612.23	54262.98
612.43	54772.92
612.62	54351.04
612.82	54453.44
613.02	54412.48
613.21	54074.57
613.41	54346.95
613.61	54613.18
613.80	53869.77
614.00	54484.16
614.20	54154.44
614.39	54531.26
614.59	54545.60
614.79	54435.01
614.98	54748.35
615.18	54482.11
615.38	54516.93
615.57	54639.81
615.77	54822.08
615.97	54736.06
616.16	54695.10
616.36	54392.00
616.56	54439.11
616.75	54908.09
616.95	54473.92
617.15	54777.02
617.34	54406.34
617.54	54580.42
617.74	55096.50
617.93	54748.35
618.13	54527.17
618.32	54656.19
618.52	54756.54
618.72	54891.71
618.91	54985.91
619.11	54664.38
619.31	54990.01
619.50	54643.90
619.70	54742.20
619.90	54719.68
620.09	54813.88
620.29	55000.25
620.48	55237.81
620.68	55413.94
620.88	54516.93
621.07	55063.74
621.27	54957.24
621.46	54621.37
621.66	54467.78
621.86	54899.90
622.05	54449.35
622.25	55278.77
622.44	54969.53
622.64	55102.65
622.84	55243.96
623.03	54785.21
623.23	55268.53
623.42	54863.03
623.62	54908.09
623.82	55524.53
624.01	55096.50
624.21	55321.78
624.40	54705.34
624.60	55092.41
624.80	54998.20
624.99	54934.71
625.19	54744.25
625.38	55270.58
625.58	55184.57
625.77	55098.55
625.97	54895.80
626.17	55125.17
626.36	55291.06
626.56	54990.01
626.75	54518.98
626.95	55243.96
627.14	55096.50
627.34	55430.32
627.54	54981.82
627.73	54725.82
627.93	55186.61
628.12	54768.83
628.32	55100.60
628.51	54994.10
628.71	55250.10
628.90	55221.43
629.10	55168.18
629.30	55043.26
629.49	55227.57
629.69	55172.28
629.88	54635.71
630.08	55448.75
630.27	55719.09
630.47	55428.27
630.66	55203.00
630.86	55645.36
631.05	54752.44
631.25	55604.40
631.44	55311.54
631.64	54944.95
631.84	55098.55
632.03	55710.89
632.23	55571.63
632.42	55448.75
632.62	55422.13
632.81	55061.69
633.01	55411.89
633.20	55377.08
633.40	55669.93
633.59	55884.97
633.79	55162.04
633.98	54985.91
634.18	55479.47
634.37	55571.63
634.57	55176.37
634.76	55602.35
634.96	55391.41
635.15	55424.18
635.35	55334.07
635.54	55559.34
635.74	55717.04
635.93	55399.60
636.13	55825.58
636.32	55870.64
636.52	55399.60
636.71	55262.39
636.91	55841.96
637.10	55669.93
637.30	55428.27
637.49	55633.07
637.69	55567.54
637.88	55661.74
638.08	55612.59
638.27	55520.43
638.46	55489.71
638.66	55354.55
638.85	55387.31
639.05	55741.61
639.24	55846.06
639.44	55162.04
639.63	55545.01
639.83	55602.35
640.02	56145.06
640.22	55645.36
640.41	56259.75
640.61	55235.77
640.80	55952.55
640.99	55559.34
641.19	55751.85
641.38	55583.92
641.58	55948.46
641.77	55815.34
641.97	55710.89
642.16	55723.18
642.36	55887.02
642.55	56077.48
642.74	55526.58
642.94	56057.00
643.13	55829.68
643.33	56515.75
643.52	56005.80
643.72	56091.82
643.91	55774.38
644.10	55874.73
644.30	55848.11
644.49	55764.14
644.69	55934.12
644.88	55780.52
645.08	55278.77
645.27	55817.39
645.46	55792.81
645.66	56149.16
645.85	56259.75
646.05	56358.05
646.24	56124.58
646.43	56116.39
646.63	56136.87
646.82	56341.67
647.02	56177.83
647.21	56335.52
647.40	56009.90
647.60	56247.46
647.79	56378.53
647.99	56136.87
648.18	56315.04
648.37	57001.11
648.57	56521.89
648.76	56114.34
648.96	56173.73
649.15	56226.98
649.34	56421.54
649.54	56390.82
649.73	55903.40
649.92	56820.89
650.12	56372.39
650.31	56253.61
650.51	56163.50
650.70	56493.22
650.89	56235.17
651.09	57132.18
651.28	56638.62
651.47	56202.41
651.67	56591.52
651.86	56659.10
652.06	55889.07
652.25	55991.47
652.44	56554.66
652.64	56130.73
652.83	56464.55
653.02	55831.72
653.22	56181.93
653.41	55923.88
653.60	56442.02
653.80	56202.41
653.99	56691.87
654.18	56337.57
654.38	56075.43
654.57	56415.40
654.76	56206.50
654.96	56159.40
655.15	56319.14
655.34	56480.93
655.54	56280.23
655.73	56130.73
655.92	56542.37
656.12	56235.17
656.31	56771.74
656.50	56482.98
656.70	56374.44
656.89	56274.09
657.08	56274.09
657.28	56155.30
657.47	56190.12
657.66	56431.78
657.86	56493.22
658.05	56202.41
658.24	56335.52
658.43	56439.97
658.63	56444.07
658.82	56409.25
659.01	56392.87
659.21	56673.44
659.40	56226.98
659.59	56231.08
659.79	56542.37
659.98	56800.41
660.17	56231.08
660.36	56188.07
660.56	56579.23
660.75	56601.76
660.94	56288.42
661.14	56380.58
661.33	56167.59
661.52	56349.86
661.71	56489.12
661.91	55907.50
662.10	55975.08
662.29	56327.33
662.49	56353.96
662.68	56429.73
662.87	56657.06
663.06	56554.66
663.26	56196.26
663.45	56728.73
663.64	56564.90
663.83	56679.58
664.03	56581.28
664.22	56720.54
664.41	56665.25
664.60	55989.42
664.80	56460.45
664.99	56458.40
665.18	56321.19
665.37	56497.31
665.57	56349.86
665.76	56116.39
665.95	56532.13
666.14	55798.96
666.34	56075.43
666.53	56100.01
666.72	55776.43
666.91	55776.43
667.11	56106.15
667.30	56585.38
667.49	56298.66
667.68	55770.28
667.87	55981.23
668.07	56091.82
668.26	56124.58
668.45	56439.97
668.64	56050.86
668.84	56816.80
669.03	56401.06
669.22	55878.83
669.41	55899.31
669.60	56077.48
669.80	55780.52
669.99	55977.13
670.18	56143.02
670.37	56487.07
670.57	56757.41
670.76	56005.80
670.95	56235.17
671.14	55966.89
671.33	56071.34
671.53	56151.21
671.72	55907.50
671.91	55944.36
672.10	55778.48
672.29	56028.33
672.48	55817.39
672.68	56204.45
672.87	55522.48
673.06	55784.62
673.25	55958.70
673.44	55827.63
673.64	55932.07
673.83	55585.97
674.02	55858.35
674.21	55915.69
674.40	55948.46
674.59	55743.66
674.79	55903.40
674.98	55325.88
675.17	55770.28
675.36	55493.81
675.55	55821.48
675.74	55733.42
675.94	55628.98
676.13	55678.13
676.32	55753.90
676.51	56104.10
676.70	55559.34
676.89	55514.29
677.08	55669.93
677.28	55559.34
677.47	55334.07
677.66	55688.37
677.85	55669.93
678.04	55796.91
678.23	55919.79
678.42	55342.26
678.62	55438.51
678.81	55801.00
679.00	55555.25
679.19	56188.07
679.38	55469.23
679.57	55372.98
679.76	55536.82
679.96	55604.40
680.15	55383.22
680.34	55291.06
680.53	55602.35
680.72	55243.96
680.91	55682.22
681.10	55147.70
681.29	55278.77
681.48	55516.34
681.68	55250.10
681.87	55125.17
682.06	55510.19
682.25	54793.40
682.44	54985.91
682.63	55159.99
682.82	54662.33
683.01	55067.83
683.20	54344.90
683.39	55153.85
683.59	54893.75
683.78	54922.43
683.97	54736.06
684.16	54977.72
684.35	54768.83
684.54	54668.48
684.73	54791.36
684.92	54832.32
685.11	54707.39
685.30	54672.57
685.49	54916.28
685.69	54936.76
685.88	55008.44
686.07	54525.12
686.26	54531.26
686.45	54727.87
686.64	54514.88
686.83	54672.57
687.02	54553.79
687.21	55026.87
687.40	54664.38
687.59	54582.46
687.78	54734.01
687.97	54418.63
688.16	54574.27
688.35	54418.63
688.54	54418.63
688.74	54314.18
688.93	54469.82
689.12	54240.45
689.31	54641.85
689.50	54502.59
689.69	54113.48
689.88	54158.53
690.07	54506.69
690.26	54183.11
690.45	54664.38
690.64	54174.92
690.83	54179.01
691.02	53980.36
691.21	53830.86
691.40	53902.54
691.59	54037.70
691.78	53869.77
691.97	54484.16
692.16	54195.40
692.35	54252.74
692.54	54353.09
692.73	54072.52
692.92	53986.50
693.11	53880.01
693.30	54056.14
693.49	54217.92
693.68	53853.39
693.87	54222.02
694.06	53468.37
694.25	53697.74
694.44	53595.34
694.63	53923.02
694.82	54199.49
695.01	54019.27
695.20	53562.57
695.39	53126.36
695.58	53828.81
695.77	53673.16
695.96	53376.21
696.15	53982.41
696.34	53544.14
696.53	53224.66
696.72	53720.27
696.91	53263.57
697.10	53617.87
697.29	53050.58
697.48	53761.23
697.67	53505.23
697.86	53406.93
698.05	53351.63
698.24	53517.52
698.43	52962.52
698.62	53589.20
698.81	52776.15
699.00	53693.64
699.19	52845.79
699.38	53482.70
699.57	52475.10
699.76	53787.85
699.95	53359.83
700.14	52882.65
700.32	53077.21
700.51	53114.07
700.70	53382.35
700.89	53658.83
701.08	53167.32
701.27	53466.32
701.46	53435.60
701.65	52636.89
701.84	52972.76
702.03	53345.49
702.22	52739.29
702.41	53015.77
702.60	52755.68
702.79	52487.39
702.98	52393.18
703.17	53097.69
703.35	52901.08
703.54	52868.31
703.73	53001.43
703.92	52835.55
704.11	52544.73
704.30	52604.13
704.49	52557.02
704.68	52581.60
704.87	52815.07
705.06	52233.44
705.25	52217.06
705.43	52155.62
705.62	52364.51
705.81	52772.06
706.00	52172.00
706.19	52124.90
706.38	52391.14
706.57	52079.85
706.76	51893.48
706.95	52477.15
707.14	52024.55
707.32	51768.55
707.51	51924.20
707.70	52153.57
707.89	52434.14
708.08	52057.32
708.27	52114.66
708.46	52397.28
708.65	51926.25
708.84	52016.36
709.02	51959.02
709.21	51754.22
709.40	51844.33
709.59	51995.88
709.78	51619.05
709.97	51731.69
710.16	51750.12
710.34	52010.21
710.53	51590.38
710.72	51619.05
710.91	51801.32
711.10	51977.45
711.29	51537.13
711.48	51754.22
711.66	51574.00
711.85	51494.13
712.04	51426.54
712.23	51514.61
712.42	51545.33
712.61	51526.89
712.80	51338.48
712.98	51508.46
713.17	51315.95
713.36	50826.49
713.55	51303.67
713.74	51270.90
713.93	51010.81
714.11	51455.21
714.30	51094.77
714.49	50765.05
714.68	51113.20
714.87	51041.53
715.06	51277.04
715.24	51115.25
715.43	51180.79
715.62	51283.19
715.81	51115.25
716.00	51229.94
716.18	51066.10
716.37	50658.56
716.56	50539.77
716.75	51686.64
716.94	50701.56
717.12	50445.57
717.31	51119.35
717.50	50975.99
717.69	50705.66
717.88	50910.46
718.06	50595.07
718.25	51029.24
718.44	50572.54
718.63	50453.76
718.82	50529.53
719.00	50418.94
719.19	50343.17
719.38	50765.05
719.57	49870.09
719.76	49747.21
719.94	49898.76
720.13	50377.98
720.32	50046.21
720.51	49685.77
720.69	49853.70
720.88	49870.09
721.07	49980.68
721.26	49480.97
721.44	49657.10
721.63	49620.23
721.82	49216.78
722.01	49493.26
722.20	49718.54
722.38	49247.50
722.57	49022.23
722.76	49343.76
722.95	49239.31
723.13	49114.39
723.32	49161.49
723.51	49229.07
723.70	48833.81
723.88	49095.95
724.07	49038.61
724.26	49022.23
724.44	48319.77
724.63	48911.64
724.82	49028.37
725.01	48917.78
725.19	48801.05
725.38	48782.62
725.57	48514.33
725.76	49003.80
725.94	48760.09
726.13	48794.90
726.32	48690.46
726.51	48661.79
726.69	48981.27
726.88	48561.44
727.07	48809.24
727.25	48475.42
727.44	48708.89
727.63	48176.42
727.82	48577.82
728.00	48731.42
728.19	48256.29
728.38	48755.99
728.56	48260.38
728.75	48487.71
728.94	48313.63
729.12	48768.28
729.31	48725.27
729.50	48434.46
729.69	48608.54
729.87	48682.27
730.06	48471.32
730.25	48110.88
730.43	49114.39
730.62	48352.54
730.81	48825.62
730.99	48567.58
731.18	48084.26
731.37	48649.50
731.55	48438.56
731.74	48665.88
731.93	48680.22
732.11	48549.15
732.30	48280.86
732.49	48239.90
732.67	48231.71
732.86	48356.64
733.05	48264.48
733.23	47695.14
733.42	48065.83
733.61	48311.58
733.79	48391.45
733.98	47957.28
734.17	48125.22
734.35	48008.48
734.54	48479.52
734.73	48770.33
734.91	48174.37
735.10	48274.72
735.29	48321.82
735.47	48108.83
735.66	48325.92
735.84	47936.80
736.03	47955.24
736.22	48545.05
736.40	47807.78
736.59	48252.19
736.78	48106.79
736.96	48014.63
737.15	47605.03
737.33	47707.43
737.52	47572.27
737.71	47666.47
737.89	47541.55
738.08	47514.92
738.27	47519.02
738.45	48061.73
738.64	48182.56
738.82	47539.50
739.01	47848.74
739.20	47705.38
739.38	47633.71
739.57	48117.03
739.75	47371.57
739.94	47676.71
740.13	47611.18
740.31	47580.46
740.50	47564.07
740.68	47553.83
740.87	47824.17
741.06	47809.83
741.24	47480.11
741.43	47256.88
741.61	47170.86
741.80	46839.09
741.99	47416.62
742.17	47127.86
742.36	47369.52
742.54	47357.23
742.73	47383.85
742.91	47203.63
743.10	47238.45
743.29	47336.75
743.47	47310.13
743.66	47174.96
743.84	47414.57
744.03	46929.20
744.21	47185.20
744.40	47203.63
744.59	47150.38
744.77	46894.39
744.96	47039.79
745.14	46988.60
745.33	47211.82
745.51	46697.78
745.70	47086.90
745.88	47205.68
746.07	46904.63
746.26	46548.28
746.44	46855.48
746.63	46529.85
746.81	47072.56
747.00	46189.89
747.18	46810.42
747.37	46384.44
747.55	46445.88
747.74	47037.75
747.92	46449.98
748.11	46419.26
748.29	46636.34
748.48	46652.73
748.66	46499.13
748.85	46331.20
749.03	46308.67
749.22	46146.88
749.41	45786.44
749.59	46300.48
749.78	46255.42
749.96	45620.55
750.15	46112.06
750.33	46419.26
750.52	46198.08
750.70	46165.31
750.89	46259.52
751.07	45552.97
751.26	46044.48
751.44	46007.62
751.63	46089.54
751.81	45868.36
752.00	45782.34
752.18	45974.85
752.37	45921.60
752.55	45692.23
752.74	45159.76
752.92	45464.91
753.10	45342.03
753.29	45856.07
753.47	45471.05
753.66	45213.01
753.84	45708.61
754.03	45358.41
754.21	45268.30
754.40	45628.74
754.58	45544.78
754.77	45282.64
754.95	45253.97
755.14	45063.50
755.32	45073.74
755.51	44526.94
755.69	44672.34
755.88	45233.49
756.06	45364.56
756.24	44561.75
756.43	44799.32
756.61	45008.21
756.80	44512.60
756.98	44553.56
757.17	44600.66
757.35	44733.78
757.54	44684.63
757.72	44836.18
757.90	44623.19
758.09	44332.38
758.27	44449.11
758.46	44053.86
758.64	44397.91
758.83	44258.65
759.01	44459.35
759.19	44578.14
759.38	44565.85
759.56	44559.70
759.75	44594.52
759.93	44512.60
760.12	44236.12
760.30	44275.04
760.48	44098.91
760.67	44146.01
760.85	44250.46
761.04	43935.07
761.22	44051.81
761.40	43957.60
761.59	43644.26
761.77	43746.66
761.96	43478.38
762.14	43570.54
762.32	43787.62
762.51	43558.25
762.69	43887.97
762.88	43668.84
763.06	43580.78
763.24	43580.78
763.43	43875.68
763.61	43003.25
763.80	43418.99
763.98	43019.63
764.16	43285.87
764.35	42970.48
764.53	42952.05
764.72	43058.54
764.90	43326.83
765.08	43091.31
765.27	42911.09
765.45	42947.95
765.63	42982.77
765.82	42802.55
766.00	42429.82
766.18	42902.90
766.37	43304.30
766.55	42980.72
766.74	42798.45
766.92	42583.41
767.10	42548.60
767.29	42790.26
767.47	42304.89
767.65	42442.10
767.84	42288.51
768.02	42423.67
768.20	42333.56
768.39	42255.74
768.57	42685.81
768.75	42624.37
768.94	42511.74
769.12	42206.59
769.30	42390.91
769.49	42220.92
769.67	41698.69
769.85	41403.78
770.04	42038.65
770.22	41725.32
770.40	41610.63
770.59	41571.72
770.77	41756.03
770.95	41657.73
771.14	41143.69
771.32	41522.57
771.50	41530.76
771.69	41303.43
771.87	41751.94
772.05	41407.88
772.24	41029.01
772.42	41309.58
772.60	41887.10
772.78	41342.35
772.97	41207.18
773.15	41270.67
773.33	41266.57
773.52	40934.80
773.70	41543.05
773.88	41000.33
774.07	40754.58
774.25	40940.94
774.43	41012.62
774.61	40783.25
774.80	41149.84
774.98	41407.88
775.16	40793.49
775.34	40957.33
775.53	40818.07
775.71	41418.12
775.89	40910.22
776.08	41065.87
776.26	41014.67
776.44	41262.47
776.62	40809.87
776.81	41108.88
776.99	41225.61
777.17	41035.15
777.35	40893.84
777.54	41336.20
777.72	41174.41
777.90	41067.92
778.08	41127.31
778.27	41239.95
778.45	41379.21
778.63	41440.65
778.81	40902.03
779.00	41588.10
779.18	41264.52
779.36	41735.56
779.54	41069.97
779.73	41276.81
779.91	41614.72
780.09	41485.70
780.27	41710.98
780.46	41731.46
780.64	42048.89
780.82	41387.40
781.00	41801.09
781.19	41760.13
781.37	41934.21
781.55	41721.22
781.73	42337.66
781.91	41893.25
782.10	41801.09
782.28	41624.96
782.46	41657.73
782.64	41934.21
782.82	41760.13
783.01	42276.22
783.19	42165.63
783.37	41889.15
783.55	41880.96
783.74	42042.75
783.92	41596.29
784.10	41872.77
784.28	42110.33
784.46	41747.84
784.64	41360.78
784.83	42128.77
785.01	41964.93
785.19	41868.67
785.37	42233.21
785.55	41936.26
785.74	41563.53
785.92	41205.13
786.10	42028.41
786.28	41676.16
786.46	41379.21
786.64	41350.54
786.83	41377.16
787.01	41481.61
787.19	41313.67
787.37	41377.16
787.55	41250.19
787.74	41334.15
787.92	41117.07
788.10	40891.79
788.28	41082.25
788.46	41137.55
788.64	40674.71
788.82	41055.63
789.01	40813.97
789.19	41328.01
789.37	41006.48
789.55	41016.72
789.73	40547.73
789.91	40453.53
790.09	40443.29
790.28	40261.02
790.46	40193.43
790.64	40592.79
790.82	40232.35
791.00	40205.72
791.18	40412.57
791.36	39939.49
791.55	40431.00
791.73	39892.38
791.91	39417.25
792.09	40025.50
792.27	39847.33
792.45	39884.19
792.63	39560.61
792.81	39656.87
793.00	39652.77
793.18	39529.89
793.36	39515.56
793.54	39067.05
793.72	38901.17
793.90	39089.58
794.08	38845.87
794.26	38931.89
794.44	38682.03
794.62	38280.63
794.81	38792.62
794.99	38682.03
795.17	38598.07
795.35	38634.93
795.53	38802.86
795.71	38682.03
795.89	38655.41
796.07	38024.64
796.25	37946.81
796.43	38098.36
796.61	37860.80
796.80	37518.79
796.98	37832.13
797.16	37387.72
797.34	37301.70
797.52	37653.95
797.70	37551.56
797.88	36988.36
798.06	37006.80
798.24	37266.89
798.42	37068.23
798.60	36619.73
798.78	36808.14
798.96	37078.47
799.14	36505.04
799.32	36548.05
799.51	36836.81
799.69	36883.92
799.87	36492.76
800.05	36224.47
800.23	36253.14
800.41	36595.15
800.59	36242.90
800.77	36224.47
800.95	36142.55
801.13	35892.70
801.31	35872.22
801.49	36144.60
801.67	35436.00
801.85	35728.86
802.03	35706.34
802.21	35229.16
802.39	35046.89
802.57	35503.59
802.75	35415.52
802.93	35167.72
803.11	35343.84
803.29	34831.85
803.47	34981.35
803.65	34934.25
803.83	34641.39
804.01	34708.97
804.19	34436.59
804.37	34373.11
804.55	34600.43
804.73	34530.80
804.91	34422.26
805.09	34674.16
805.27	34409.97
805.45	34067.96
805.63	34272.76
805.81	34223.61
805.99	34260.47
806.17	34188.79
806.35	34002.43
806.53	33877.50
806.71	33906.17
806.89	34029.05
807.07	33570.30
807.25	33259.01
807.43	33336.84
807.61	33594.88
807.79	33197.57
807.97	32796.17
808.15	33236.48
808.33	32906.76
808.51	32945.67
808.69	32630.29
808.87	32810.51
809.05	32693.77
809.23	32478.74
809.41	32312.85
809.59	32208.40
809.77	32470.54
809.95	32318.99
810.13	32656.91
810.31	32394.77
810.49	32198.16
810.67	32089.62
810.84	32177.68
811.02	32304.66
811.20	31913.50
811.38	32140.82
811.56	31868.44
811.74	31827.48
811.92	31452.70
812.10	31739.42
812.28	31819.29
812.46	31720.99
812.64	31479.33
812.82	31245.86
813.00	31505.95
813.18	31512.10
813.36	31237.67
813.53	31200.80
813.71	31278.63
813.89	31098.41
814.07	30858.79
814.25	30848.55
814.43	30953.00
814.61	30746.15
814.79	30873.13
814.97	30783.02
815.15	30893.61
815.33	30582.32
815.50	30490.16
815.68	30608.94
815.86	30635.56
816.04	30180.92
816.22	30430.77
816.40	30156.34
816.58	30119.48
816.76	29986.36
816.94	30076.47
817.11	29933.11
817.29	30037.56
817.47	30135.86
817.65	30074.42
817.83	30092.85
818.01	29531.71
818.19	29662.78
818.37	29795.90
818.54	29544.00
818.72	29570.62
818.90	29922.87
819.08	29253.19
819.26	29394.50
819.44	29685.31
819.62	29566.52
819.80	29468.22
819.97	29466.17
820.15	29191.75
820.33	28534.35
820.51	29230.66
820.69	28931.65
820.87	29044.29
821.05	29519.42
821.22	29040.20
821.40	29087.30
821.58	29091.40
821.76	28522.06
821.94	28931.65
822.12	28784.20
822.29	28808.78
822.47	28747.34
822.65	29169.22
822.83	28786.25
823.01	28872.26
823.19	28374.61
823.36	28259.92
823.54	28427.85
823.72	27952.73
823.90	28223.06
824.08	27928.15
824.25	28380.75
824.43	27762.26
824.61	28304.98
824.79	28091.99
824.97	27956.82
825.15	27987.54
825.32	28008.02
825.50	27891.29
825.68	27659.87
825.86	27934.29
826.04	27922.01
826.21	27575.90
826.39	27629.15
826.57	27352.67
826.75	27518.56
826.93	27455.07
827.10	27272.80
827.28	27276.90
827.46	27790.94
827.64	27645.53
827.81	27123.30
827.99	27233.89
828.17	27119.20
828.35	27082.34
828.53	26709.61
828.70	26951.27
828.88	27008.61
829.06	26994.28
829.24	26877.54
829.41	27092.58
829.59	27274.85
829.77	26955.36
829.95	26748.52
830.12	26312.30
830.30	27194.98
830.48	26785.38
830.66	26687.08
830.84	26902.12
831.01	26482.28
831.19	26576.49
831.37	26732.14
831.55	26525.29
831.72	26381.93
831.90	26556.01
832.08	26637.93
832.25	26197.62
832.43	26121.84
832.61	26166.90
832.79	25980.53
832.96	26214.00
833.14	26191.47
833.32	26322.54
833.50	26316.40
833.67	26467.95
833.85	26281.58
834.03	25867.89
834.20	26164.85
834.38	26066.55
834.56	25929.33
834.74	26070.64
834.91	25792.12
835.09	26027.63
835.27	25429.63
835.44	25599.61
835.62	25382.52
835.80	25562.75
835.98	25413.24
836.15	25642.62
836.33	25577.08
836.51	25595.51
836.68	25251.45
836.86	25452.16
837.04	25609.85
837.21	25392.76
837.39	25544.31
837.57	25689.72
837.75	25437.82
837.92	25177.73
838.10	25099.90
838.28	24718.98
838.45	25183.87
838.63	24958.60
838.81	24829.57
838.98	24983.17
839.16	24843.91
839.34	24702.60
839.51	24837.76
839.69	24899.20
839.87	24612.49
840.04	24696.46
840.22	24727.17
840.40	24938.12
840.57	24727.17
840.75	24872.58
840.93	24516.23
841.10	24725.13
841.28	24921.73
841.46	24735.37
841.63	24620.68
841.81	24561.29
841.98	24604.30
842.16	24532.62
842.34	24577.67
842.51	24417.93
842.69	24452.75
842.87	24385.16
843.04	24387.21
843.22	24387.21
843.40	24247.95
843.57	24172.18
843.75	24014.48
843.92	24243.85
844.10	24139.41
844.28	24460.94
844.45	24473.23
844.63	24131.22
844.81	23805.59
844.98	23998.10
845.16	23955.09
845.33	24123.02
845.51	24004.24
845.69	23785.11
845.86	23928.47
846.04	23697.05
846.21	23568.02
846.39	23809.68
846.57	23576.22
846.74	23584.41
846.92	23582.36
847.09	23645.85
847.27	23572.12
847.45	23545.50
847.62	23750.29
847.80	23697.05
847.97	23346.84
848.15	23465.63
848.32	23318.17
848.50	23381.66
848.68	23326.36
848.85	23344.80
849.03	22996.64
849.20	23381.66
849.38	23303.84
849.56	23441.05
849.73	23045.79
849.91	22998.69
850.08	23281.31
850.26	22730.41
850.43	22894.24
850.61	23076.51
850.78	22601.38
850.96	22869.67
851.14	22476.46
851.31	22980.26
851.49	22841.00
851.66	22931.11
851.84	22697.64
852.01	22812.32
852.19	22789.80
852.36	22802.08
852.54	22580.90
852.71	22527.66
852.89	22744.74
853.07	22585.00
853.24	22914.72
853.42	22511.27
853.59	22519.46
853.77	22271.66
853.94	22857.38
854.12	22390.44
854.29	21939.89
854.47	22392.49
854.64	22560.42
854.82	22279.85
854.99	22251.18
855.17	22343.34
855.34	22335.15
855.52	22541.99
855.69	22521.51
855.87	22220.46
856.04	21769.91
856.22	22261.42
856.39	21880.50
856.57	22269.61
856.74	21956.27
856.92	21974.70
857.09	21741.24
857.27	21958.32
857.44	21939.89
857.62	22232.75
857.79	21935.79
857.97	21685.94
858.14	22152.88
858.32	21712.56
858.49	21958.32
858.67	21894.83
858.84	21792.44
859.02	21702.32
859.19	21415.61
859.37	21438.14
859.54	21413.56
859.72	21671.61
859.89	21388.99
860.06	21614.26
860.24	21577.40
860.41	21866.16
860.59	21362.36
860.76	21315.26
860.94	21235.39
861.11	21268.16
861.29	21229.24
861.46	21145.28
861.64	21001.92
861.81	21325.50
861.98	21186.24
862.16	21022.40
862.33	20766.40
862.51	20903.62
862.68	21036.74
862.86	21110.46
863.03	20891.33
863.21	20983.49
863.38	20905.66
863.55	20975.30
863.73	21038.78
863.90	20967.10
864.08	20567.75
864.25	20981.44
864.43	20793.03
864.60	20770.50
864.77	20571.85
864.95	20725.44
865.12	20410.06
865.30	20672.20
865.47	20645.57
865.64	20549.32
865.82	20399.82
865.99	20586.18
866.17	20293.32
866.34	20557.51
866.51	20365.00
866.69	20524.74
866.86	20442.82
867.04	20297.42
867.21	20190.92
867.38	20172.49
867.56	20256.46
867.73	20014.80
867.91	19930.83
868.08	19992.27
868.25	19920.59
868.43	20149.96
868.60	20068.05
868.78	19943.12
868.95	20244.17
869.12	19771.09
869.30	19834.58
869.47	19904.21
869.64	19941.07
869.82	19590.87
869.99	19672.79
870.16	19885.78
870.34	19975.89
870.51	19910.35
870.69	19554.01
870.86	19689.17
871.03	19554.01
871.21	19449.56
871.38	19834.58
871.55	19414.74
871.73	19388.12
871.90	19320.54
872.07	19453.66
872.25	19019.49
872.42	18861.79
872.59	19123.93
872.77	19310.30
872.94	19068.64
873.11	19015.39
873.29	19148.51
873.46	19031.77
873.63	19119.84
873.81	19062.49
873.98	18738.91
874.15	18933.47
874.33	18706.15
874.50	18521.83
874.67	18708.19
874.85	18491.11
875.02	18640.61
875.19	18484.97
875.37	18732.77
875.54	18431.72
875.71	18745.06
875.88	18247.40
876.06	18550.50
876.23	18351.85
876.40	18374.38
876.58	18401.00
876.75	18181.87
876.92	18314.98
877.10	18212.59
877.27	18286.31
877.44	18208.49
877.61	18214.63
877.79	18392.81
877.96	18167.53
878.13	17942.25
878.31	17942.25
878.48	18142.96
878.65	18065.13
878.82	17921.77
879.00	17862.38
879.17	17774.32
879.34	17737.46
879.51	17409.78
879.69	17575.67
879.86	17725.17
880.03	17557.24
880.21	17723.12
880.38	17409.78
880.55	17854.19
880.72	17706.74
880.90	17759.98
881.07	17282.81
881.24	17573.62
881.41	17618.68
881.59	17645.30
881.76	17321.72
881.93	17411.83
882.10	17174.27
882.28	17196.79
882.45	17389.30
882.62	17518.32
882.79	17321.72
882.96	16879.36
883.14	17303.29
883.31	17237.75
883.48	17006.33
883.65	17080.06
883.83	17344.25
884.00	17188.60
884.17	17286.90
884.34	17235.70
884.51	17098.49
884.69	17159.93
884.86	16967.42
885.03	16887.55
885.20	16549.64
885.38	17116.92
885.55	16994.04
885.72	16600.83
885.89	16795.39
886.06	16828.16
886.24	16717.57
886.41	16672.51
886.58	16797.44
886.75	16867.07
886.92	16635.65
887.10	16879.36
887.27	16531.20
887.44	16897.79
887.61	16795.39
887.78	16588.55
887.95	16819.97
888.13	16389.89
888.30	16637.70
888.47	16566.02
888.64	16639.75
888.81	16717.57
888.99	16566.02
889.16	16377.61
889.33	16260.87
889.50	16215.82
889.67	16029.45
889.84	16287.50
890.01	16289.54
890.19	16023.31
890.36	16385.80
890.53	16254.73
890.70	15916.81
890.87	16256.78
891.04	15976.20
891.22	16031.50
891.39	16097.03
891.56	16148.23
891.73	15767.31
891.90	15920.91
892.07	15779.60
892.24	15943.44
892.42	15683.34
892.59	15886.09
892.76	15695.63
892.93	15644.43
893.10	15810.32
893.27	15623.95
893.44	15572.75
893.61	15726.35
893.79	15675.15
893.96	15699.73
894.13	15572.75
894.30	15726.35
894.47	15675.15
894.64	15740.69
894.81	15783.70
894.98	15685.39
895.15	15707.92
895.33	15664.91
895.50	15644.43
895.67	15662.86
895.84	15470.36
896.01	15443.73
896.18	15349.53
896.35	15658.77
896.52	15623.95
896.69	15687.44
896.86	15478.55
897.04	15394.58
897.21	15388.44
897.38	15298.33
897.55	15570.71
897.72	15486.74
897.89	15642.39
898.06	15322.90
898.23	15257.37
898.40	15707.92
898.57	15419.16
898.74	15550.23
898.91	15275.80
899.08	15433.49
899.26	15476.50
899.43	15423.25
899.60	15404.82
899.77	15490.84
899.94	15410.96
900.11	15251.22
900.28	15517.46
900.45	15576.85
900.62	15345.43
900.79	15404.82
900.96	15372.05
901.13	15539.99
901.30	15136.54
901.47	15322.90
901.64	15298.33
901.81	15423.25
901.98	15413.01
902.15	15623.95
902.32	15419.16
902.49	15226.65
902.66	15603.47
902.83	15406.87
903.01	15361.81
903.18	15120.15
903.35	15333.14
903.52	15228.70
903.69	15413.01
903.86	15443.73
904.03	15118.11
904.20	15419.16
904.37	15357.72
904.54	15314.71
904.71	15388.44
904.88	15333.14
905.05	15157.02
905.22	15302.42
905.39	15359.77
905.56	15173.40
905.73	15494.93
905.90	15206.17
906.07	15154.97
906.24	15273.75
906.41	15281.94
906.58	15054.62
906.75	15300.37
906.92	15118.11
907.09	15273.75
907.26	14964.51
907.43	14962.46
907.60	15120.15
907.77	15501.08
907.93	15427.35
908.10	15191.83
908.27	15281.94
908.44	14950.17
908.61	15208.22
908.78	15105.82
908.95	15290.13
909.12	15161.11
909.29	14978.84
909.46	15015.71
909.63	15193.88
909.80	15142.68
909.97	15173.40
910.14	15056.67
910.31	15202.07
910.48	15052.57
910.65	15087.39
910.82	14880.54
910.99	15023.90
911.16	14810.91
911.33	14999.32
911.50	14780.19
911.66	14622.50
911.83	14882.59
912.00	14786.33
912.17	14845.73
912.34	14550.82
912.51	14997.28
912.68	14786.33
912.85	14968.60
913.02	14667.55
913.19	14649.12
913.36	14700.32
913.53	14823.20
913.70	14485.28
913.86	14774.05
914.03	14591.78
914.20	14774.05
914.37	14663.46
914.54	14589.73
914.71	14468.90
914.88	14499.62
915.05	14569.25
915.22	14427.94
915.39	14624.54
915.55	14182.18
915.72	14243.62
915.89	14180.14
916.06	14171.94
916.23	14251.81
916.40	13969.19
916.57	14032.68
916.74	13965.10
916.91	13997.87
917.07	13895.47
917.24	13936.43
917.41	14044.97
917.58	13971.24
917.75	13762.35
917.92	13725.49
918.09	13766.45
918.26	13838.12
918.42	14012.20
918.59	13836.08
918.76	13623.09
918.93	13385.52
919.10	13567.79
919.27	13537.07
919.44	13627.18
919.60	13623.09
919.77	13377.33
919.94	13258.55
920.11	13422.39
920.28	13326.13
920.45	13424.44
920.61	13119.29
920.78	13016.89
920.95	13094.71
921.12	12977.98
921.29	13057.85
921.46	13066.04
921.62	12873.53
921.79	13193.01
921.96	13057.85
922.13	12971.83
922.30	12650.30
922.47	12736.32
922.63	12656.45
922.80	12592.96
922.97	12724.03
923.14	12279.62
923.31	12408.64
923.47	12519.23
923.64	12541.76
923.81	12324.68
923.98	12603.20
924.15	12296.00
924.32	12304.20
924.48	12410.69
924.65	12357.44
924.82	12107.59
924.99	12037.96
925.15	11861.84
925.32	12078.92
925.49	11872.07
925.66	12087.11
925.83	11759.44
925.99	11788.11
926.16	11839.31
926.33	11849.55
926.50	11499.34
926.67	11796.30
926.83	11784.01
927.00	11644.75
927.17	11540.30
927.34	11362.13
927.50	11515.73
927.67	11495.25
927.84	11337.56
928.01	11503.44
928.17	11368.27
928.34	11403.09
928.51	11222.87
928.68	11013.98
928.84	11042.65
929.01	10903.39
929.18	10825.56
929.35	10831.71
929.51	10938.20
929.68	10733.40
929.85	10585.95
930.02	10794.84
930.18	10729.31
930.35	10641.25
930.52	10626.91
930.69	10424.16
930.85	10565.47
931.02	10604.38
931.19	10514.27
931.36	10358.63
931.52	10514.27
931.69	10440.54
931.86	10239.84
932.02	10135.40
932.19	10096.49
932.36	10141.54
932.53	10229.60
932.69	10033.00
932.86	9985.90
933.03	9891.69
933.19	9652.08
933.36	9836.39
933.53	9987.94
933.70	9811.82
933.86	9725.80
934.03	9832.30
934.20	9578.35
934.36	9822.06
934.53	9318.26
934.70	9226.10
934.86	9316.21
935.03	9305.97
935.20	9183.09
935.36	9297.78
935.53	9015.16
935.70	9064.31
935.86	8966.01
936.03	8945.53
936.20	8744.83
936.36	8537.98
936.53	8787.83
936.70	8472.45
936.86	8603.52
937.03	8566.65
937.20	8384.38
937.36	8292.23
937.53	8083.33
937.70	8077.19
937.86	8038.28
938.03	7958.41
938.20	8042.37
938.36	7776.14
938.53	7776.14
938.70	7597.96
938.86	7464.85
939.03	7382.93
939.20	7303.06
939.36	7360.40
939.53	7253.91
939.70	7524.24
939.86	6975.38
940.03	7016.34
940.19	6862.74
940.36	6817.69
940.53	6891.41
940.69	6803.35
940.86	6559.64
941.03	6612.89
941.19	6414.24
941.36	6377.37
941.52	6313.89
941.69	6225.82
941.86	6211.49
942.02	6254.50
942.19	6090.66
942.35	6217.63
942.52	6174.63
942.69	6035.36
942.85	5822.38
943.02	5939.11
943.18	6059.94
943.35	5926.82
943.52	5801.90
943.68	5824.42
943.85	5709.74
944.01	5672.87
944.18	5584.81
944.35	5668.78
944.51	5558.19
944.68	5408.69
944.84	5410.73
945.01	5498.80
945.17	5541.80
945.34	5441.45
945.51	5513.13
945.67	5332.91
945.84	5412.78
946.00	5474.22
946.17	5394.35
946.33	5253.04
946.50	5683.11
946.67	5359.53
946.83	5359.53
947.00	5427.12
947.16	5412.78
947.33	5228.46
947.49	5339.05
947.66	5171.12
947.82	5287.86
947.99	5384.11
948.16	5316.53
948.32	5324.72
948.49	5210.03
948.65	5308.34
948.82	5324.72
948.98	5361.58
949.15	5246.90
949.31	5300.14
949.48	5253.04
949.64	5287.86
949.81	5316.53
949.97	5316.53
950.14	5431.21
950.30	5259.18
950.47	5375.92
950.63	5304.24
950.80	5343.15
950.96	5304.24
951.13	5380.01
951.30	5380.01
951.46	5349.29
951.63	5377.97
951.79	5371.82
951.96	5400.49
952.12	5275.57
952.29	5441.45
952.45	5386.16
952.62	5357.49
952.78	5441.45
952.94	5394.35
953.11	5375.92
953.27	5455.79
953.44	5506.99
953.60	5496.75
953.77	5574.57
953.93	5414.83
954.10	5427.12
954.26	5484.46
954.43	5441.45
954.59	5574.57
954.76	5603.24
954.92	5400.49
955.09	5588.91
955.25	5517.23
955.42	5441.45
955.58	5672.87
955.75	5468.08
955.91	5429.17
956.07	5410.73
956.24	5463.98
956.40	5556.14
956.57	5521.32
956.73	5392.30
956.90	5402.54
957.06	5433.26
957.23	5482.41
957.39	5433.26
957.56	5375.92
957.72	5498.80
957.88	5369.77
958.05	5533.61
958.21	5529.52
958.38	5466.03
958.54	5414.83
958.71	5597.10
958.87	5416.88
959.03	5668.78
959.20	5513.13
959.36	5406.64
959.53	5466.03
959.69	5349.29
959.85	5398.45
960.02	5588.91
960.18	5398.45
960.35	5355.44
960.51	5607.34
960.68	5353.39
960.84	5482.41
961.00	5414.83
961.17	5451.69
961.33	5527.47
961.50	5513.13
961.66	5613.48
961.82	5474.22
961.99	5515.18
962.15	5420.97
962.31	5431.21
962.48	5500.84
962.64	5488.56
962.81	5367.73
962.97	5523.37
963.13	5404.59
963.30	5488.56
963.46	5281.71
963.62	5193.65
963.79	5447.60
963.95	5263.28
964.12	5343.15
964.28	5556.14
964.44	5392.30
964.61	5439.40
964.77	5324.72
964.93	5439.40
965.10	5400.49
965.26	5253.04
965.42	5265.33
965.59	5386.16
965.75	5359.53
965.92	5328.81
966.08	5281.71
966.24	5230.51
966.41	5279.66
966.57	5246.90
966.73	5300.14
966.90	5314.48
967.06	5386.16
967.22	5195.70
967.39	5230.51
967.55	5197.74
967.71	5267.38
967.88	5263.28
968.04	5226.42
968.20	5124.02
968.37	5205.94
968.53	4995.00
968.69	5193.65
968.85	5353.39
969.02	5115.83
969.18	5171.12
969.34	5179.31
969.51	5109.68
969.67	5062.58
969.83	5083.06
970.00	5277.62
970.16	5148.59
970.32	5066.67
970.48	5228.46
970.65	5117.87
970.81	5105.59
970.97	5066.67
971.14	4997.04
971.30	5021.62
971.46	4960.18
971.63	5015.48
971.79	5048.24
971.95	4917.17
972.11	4966.32
972.28	5013.43
972.44	5124.02
972.60	4939.70
972.76	4988.85
972.93	5021.62
973.09	5029.81
973.25	5017.52
973.42	4861.88
973.58	5035.96
973.74	4874.17
973.90	4902.84
974.07	4868.02
974.23	4872.12
974.39	4773.82
974.55	4853.69
974.72	4642.75
974.88	4638.65
975.04	4814.77
975.20	4747.19
975.37	4734.90
975.53	4569.02
975.69	4745.14
975.85	4757.43
976.01	4820.92
976.18	4728.76
976.34	4843.45
976.50	4814.77
976.66	4847.54
976.83	4849.59
976.99	4601.79
977.15	4652.98
977.31	4624.31
977.47	4841.40
977.64	4767.67
977.80	4675.51
977.96	4763.58
978.12	4734.90
978.29	4681.66
978.45	4632.51
978.61	4566.97
978.77	4628.41
978.93	4573.11
979.10	4624.31
979.26	4564.92
979.42	4648.89
979.58	4507.58
979.74	4505.53
979.91	4612.03
980.07	4437.95
980.23	4528.06
980.39	4493.24
980.55	4552.63
980.71	4380.61
980.88	4366.27
981.04	4458.43
981.20	4270.01
981.36	4466.62
981.52	4376.51
981.68	4399.04
981.85	4458.43
982.01	4353.98
982.17	4370.37
982.33	4376.51
982.49	4446.14
982.65	4319.17
982.82	4353.98
982.98	4261.82
983.14	4259.78
983.30	4399.04
983.46	4437.95
983.62	4421.56
983.79	4296.64
983.95	4171.71
984.11	4091.84
984.27	4229.06
984.43	4351.93
984.59	4227.01
984.75	4173.76
984.91	4097.99
985.08	4263.87
985.24	4026.31
985.40	4145.09
985.56	4108.23
985.72	4140.99
985.88	4120.51
986.04	3958.72
986.20	4061.12
986.37	4097.99
986.53	4044.74
986.69	4069.31
986.85	4005.83
987.01	3991.49
987.17	4110.27
987.33	4059.07
987.49	4026.31
987.65	4026.31
987.82	3893.19
987.98	3862.47
988.14	3944.39
988.30	4071.36
988.46	3956.68
988.62	3903.43
988.78	3866.56
988.94	3983.30
989.10	3790.79
989.26	3837.89
989.42	3778.50
989.59	3821.51
989.75	3733.45
989.91	3882.95
990.07	3698.63
990.23	3874.76
990.39	3825.61
990.55	3921.86
990.71	3792.84
990.87	3760.07
991.03	3846.09
991.19	3721.16
991.35	3776.45
991.51	3801.03
991.67	3708.87
991.83	3715.02
992.00	3721.16
992.16	3809.22
992.32	3682.25
992.48	3764.17
992.64	3567.56
992.80	3606.47
992.96	3723.21
993.12	3608.52
993.28	3610.57
993.44	3649.48
993.60	3663.82
993.76	3688.39
993.92	3639.24
994.08	3571.66
994.24	3626.95
994.40	3551.18
994.56	3653.58
994.72	3499.98
994.88	3506.12
995.04	3549.13
995.20	3512.27
995.36	3477.45
995.52	3653.58
995.68	3518.41
995.84	3420.11
996.00	3618.76
996.16	3467.21
996.32	3442.64
996.48	3383.24
996.64	3614.66
996.80	3360.72
996.96	3512.27
997.12	3469.26
997.28	3383.24
997.44	3391.44
997.60	3495.88
997.76	3440.59
997.92	3446.73
998.08	3424.20
998.24	3344.33
998.40	3375.05
998.56	3358.67
998.72	3215.31
998.88	3344.33
999.04	3330.00
999.20	3452.88
999.36	3227.60
999.52	3264.46
999.68	3286.99
999.84	3413.96
1000.00	3254.22
1000.16	3383.24
1000.32	3295.18
1000.48	3325.90
1000.64	3243.98
1000.80	3141.58
1000.95	3100.62
1001.11	3237.84
1001.27	3119.06
1001.43	3188.69
1001.59	3178.45
1001.75	3084.24
1001.91	3221.45
1002.07	3088.34
1002.23	3137.49
1002.39	3106.77
1002.55	3170.26
1002.71	3151.82
1002.87	3192.78
1003.03	3006.42
1003.19	3092.43
1003.34	3174.35
1003.50	3047.38
1003.66	3188.69
1003.82	3008.47
1003.98	3016.66
1004.14	2920.40
1004.30	3018.71
1004.46	2961.36
1004.62	3049.43
1004.78	3049.43
1004.94	3055.57
1005.09	3033.04
1005.25	3112.91
1005.41	2971.60
1005.57	2867.16
1005.73	2961.36
1005.89	2938.84
1006.05	2953.17
1006.21	2957.27
1006.37	2918.36
1006.52	2947.03
1006.68	2885.59
1006.84	3026.90
1007.00	2840.53
1007.16	2990.03
1007.32	2834.39
1007.48	2834.39
1007.64	2879.44
1007.79	2893.78
1007.95	2824.15
1008.11	2861.01
1008.27	2875.35
1008.43	2953.17
1008.59	2775.00
1008.75	2850.77
1008.91	2828.24
1009.06	2781.14
1009.22	2738.13
1009.38	2854.87
1009.54	2852.82
1009.70	2785.24
1009.86	2721.75
1010.01	2889.68
1010.17	2705.37
1010.33	2813.91
1010.49	2752.47
1010.65	2783.19
1010.81	2703.32
1010.96	2762.71
1011.12	2701.27
1011.28	2703.32
1011.44	2734.04
1011.60	2674.65
1011.76	2680.79
1011.91	2748.37
1012.07	2641.88
1012.23	2611.16
1012.39	2576.34
1012.55	2762.71
1012.71	2564.06
1012.86	2650.07
1013.02	2670.55
1013.18	2652.12
1013.34	2570.20
1013.50	2652.12
1013.65	2590.68
1013.81	2572.25
1013.97	2613.21
1014.13	2666.46
1014.29	2537.43
1014.44	2746.33
1014.60	2529.24
1014.76	2527.19
1014.92	2600.92
1015.07	2613.21
1015.23	2463.71
1015.39	2490.33
1015.55	2484.19
1015.71	2543.58
1015.86	2564.06
1016.02	2478.04
1016.18	2467.80
1016.34	2578.39
1016.49	2461.66
1016.65	2465.75
1016.81	2527.19
1016.97	2527.19
1017.12	2576.34
1017.28	2449.37
1017.44	2381.79
1017.60	2537.43
1017.75	2453.47
1017.91	2529.24
1018.07	2506.71
1018.23	2463.71
1018.38	2414.56
1018.54	2461.66
1018.70	2471.90
1018.86	2363.36
1019.01	2371.55
1019.17	2367.45
1019.33	2467.80
1019.49	2451.42
1019.64	2463.71
1019.80	2367.45
1019.96	2365.40
1020.12	2367.45
1020.27	2289.63
1020.43	2426.84
1020.59	2283.49
1020.74	2408.41
1020.90	2410.46
1021.06	2310.11
1021.22	2385.88
1021.37	2385.88
1021.53	2369.50
1021.69	2359.26
1021.84	2191.33
1022.00	2265.05
1022.16	2359.26
1022.31	2254.81
1022.47	2379.74
1022.63	2312.16
1022.79	2205.66
1022.94	2263.01
1023.10	2367.45
1023.26	2289.63
1023.41	2240.48
1023.57	2389.98
1023.73	2269.15
1023.88	2269.15
1024.04	2201.57
1024.20	2142.18
1024.35	2254.81
1024.51	2254.81
1024.67	2322.40
1024.82	2295.77
1024.98	2154.46
1025.14	2170.85
1025.29	2193.37
1025.45	2312.16
1025.61	2181.09
1025.76	2232.29
1025.92	2258.91
1026.08	2222.05
1026.23	2291.68
1026.39	2222.05
1026.55	2183.13
1026.70	2133.98
1026.86	2146.27
1027.02	2234.33
1027.17	2240.48
1027.33	2213.85
1027.48	2164.70
1027.64	2160.61
1027.80	2144.22
1027.95	2191.33
1028.11	2113.50
1028.27	2189.28
1028.42	2168.80
1028.58	2152.42
1028.73	2064.35
1028.89	2109.41
1029.05	2201.57
1029.20	2142.18
>>>>>End Processed Spectral Data<<<<<
