SpectraSuite Data File
++++++++++++++++++++++++++++++++++++
Date: Fri Jun 02 14:57:21 CEST 2017
User: INFO_000
Dark Spectrum Present: No
Reference Spectrum Present: No
Number of Sampled Component Spectra: 1
Spectrometers: USB4H00879
Integration Time (usec): 80000 (USB4H00879)
Spectra Averaged: 1 (USB4H00879)
Boxcar Smoothing: 0 (USB4H00879)
Correct for Electrical Dark: No (USB4H00879)
Strobe/Lamp Enabled: No (USB4H00879)
Correct for Detector Non-linearity: No (USB4H00879)
Correct for Stray Light: No (USB4H00879)
Number of Pixels in Processed Spectrum: 3648
>>>>>Begin Processed Spectral Data<<<<<
345.13	1300.46
345.34	1300.46
345.56	1300.46
345.78	1253.36
345.99	1331.18
346.21	1705.96
346.42	1804.26
346.64	1634.28
346.86	1787.88
347.07	1699.81
347.29	1697.77
347.50	1652.71
347.72	1644.52
347.94	1794.02
348.15	1591.27
348.37	1650.66
348.59	1617.90
348.80	1708.01
349.02	1869.80
349.23	1892.32
349.45	1894.37
349.67	1976.29
349.88	1873.89
350.10	1957.86
350.31	1908.71
350.53	1773.54
350.75	1933.28
350.96	1832.93
351.18	1890.28
351.39	1822.69
351.61	1753.06
351.82	1859.56
352.04	1937.38
352.26	1804.26
352.47	1855.46
352.69	1925.09
352.90	1742.82
353.12	1841.12
353.34	1800.16
353.55	1933.28
353.77	1834.98
353.98	1849.32
354.20	1841.12
354.41	1857.51
354.63	1966.05
354.85	2002.91
355.06	1912.80
355.28	1755.11
355.49	1904.61
355.71	1796.07
355.92	1826.79
356.14	1877.99
356.35	1822.69
356.57	1839.08
356.79	1902.56
357.00	1880.04
357.22	1912.80
357.43	1888.23
357.65	1964.00
357.86	1908.71
358.08	1902.56
358.29	1861.60
358.51	2027.49
358.72	1955.81
358.94	1941.47
359.16	1982.43
359.37	1945.57
359.59	1941.47
359.80	2011.11
360.02	1964.00
360.23	2039.78
360.45	2013.15
360.66	1939.43
360.88	1826.79
361.09	1892.32
361.31	2037.73
361.52	1974.24
361.74	2004.96
361.95	2099.17
362.17	2021.35
362.38	2086.88
362.60	1992.67
362.81	1998.82
363.03	2004.96
363.24	2041.82
363.46	2093.02
363.67	2052.06
363.89	1994.72
364.10	2015.20
364.32	1990.63
364.53	2086.88
364.75	1908.71
364.96	2037.73
365.18	1986.53
365.39	2045.92
365.61	1970.15
365.82	2168.80
366.04	2043.87
366.25	2045.92
366.47	2041.82
366.68	2064.35
366.90	2002.91
367.11	2047.97
367.33	2109.41
367.54	2060.26
367.76	1931.23
367.97	2080.74
368.19	2050.02
368.40	2000.87
368.62	2099.17
368.83	1970.15
369.05	2158.56
369.26	2043.87
369.48	1961.95
369.69	1949.67
369.91	2068.45
370.12	2052.06
370.33	2127.84
370.55	2043.87
370.76	2000.87
370.98	2127.84
371.19	2111.46
371.41	2058.21
371.62	2095.07
371.84	2023.39
372.05	2146.27
372.27	2021.35
372.48	2131.94
372.69	2174.94
372.91	2123.74
373.12	2209.76
373.34	2170.85
373.55	2097.12
373.77	2174.94
373.98	2072.54
374.20	2281.44
374.41	2293.72
374.62	2170.85
374.84	2117.60
375.05	2150.37
375.27	2181.09
375.48	2138.08
375.70	2109.41
375.91	2252.77
376.12	2301.92
376.34	2138.08
376.55	2248.67
376.77	2152.42
376.98	2084.83
377.19	2086.88
377.41	2142.18
377.62	2289.63
377.84	2340.83
378.05	2215.90
378.27	2185.18
378.48	2297.82
378.69	2404.32
378.91	2283.49
379.12	2310.11
379.34	2242.53
379.55	2334.68
379.76	2277.34
379.98	2166.75
380.19	2181.09
380.41	2244.57
380.62	2334.68
380.83	2254.81
381.05	2252.77
381.26	2371.55
381.47	2236.38
381.69	2303.96
381.90	2428.89
382.12	2297.82
382.33	2326.49
382.54	2228.19
382.76	2326.49
382.97	2344.92
383.19	2269.15
383.40	2410.46
383.61	2293.72
383.83	2322.40
384.04	2359.26
384.25	2285.53
384.47	2478.04
384.68	2400.22
384.89	2332.64
385.11	2338.78
385.32	2418.65
385.54	2330.59
385.75	2334.68
385.96	2430.94
386.18	2404.32
386.39	2416.60
386.60	2346.97
386.82	2432.99
387.03	2418.65
387.24	2459.61
387.46	2330.59
387.67	2478.04
387.88	2553.82
388.10	2467.80
388.31	2519.00
388.52	2602.97
388.74	2455.51
388.95	2521.05
389.16	2557.91
389.38	2496.47
389.59	2643.93
389.80	2670.55
390.02	2514.91
390.23	2613.21
390.44	2480.09
390.66	2598.87
390.87	2596.82
391.08	2731.99
391.30	2680.79
391.51	2635.74
391.72	2658.26
391.94	2715.61
392.15	2617.30
392.36	2615.26
392.58	2572.25
392.79	2613.21
393.00	2699.22
393.22	2748.37
393.43	2756.57
393.64	2912.21
393.85	2723.80
394.07	2709.46
394.28	2770.90
394.49	2791.38
394.71	2725.85
394.92	2846.68
395.13	2740.18
395.35	2811.86
395.56	2711.51
395.77	2852.82
395.98	2711.51
396.20	2842.58
396.41	2863.06
396.62	2930.64
396.84	2871.25
397.05	2801.62
397.26	2932.69
397.47	2975.70
397.69	2899.92
397.90	2951.12
398.11	2914.26
398.32	2785.24
398.54	2944.98
398.75	2916.31
398.96	2994.13
399.18	3125.20
399.39	2992.08
399.60	3076.05
399.81	2920.40
400.03	3059.67
400.24	3211.22
400.45	3049.43
400.66	3082.19
400.88	3039.19
401.09	3145.68
401.30	3133.39
401.51	3121.10
401.73	3237.84
401.94	3137.49
402.15	3119.06
402.36	3049.43
402.58	3155.92
402.79	3065.81
403.00	3176.40
403.21	3168.21
403.43	3252.17
403.64	3254.22
403.85	3088.34
404.06	3319.76
404.27	3061.71
404.49	3114.96
404.70	3119.06
404.91	3368.91
405.12	3280.85
405.34	3254.22
405.55	3395.53
405.76	3225.55
405.97	3235.79
406.19	3383.24
406.40	3256.27
406.61	3334.09
406.82	3354.57
407.03	3262.41
407.25	3317.71
407.46	3340.24
407.67	3342.28
407.88	3366.86
408.09	3368.91
408.31	3301.33
408.52	3422.16
408.73	3444.68
408.94	3313.61
409.15	3354.57
409.37	3325.90
409.58	3481.55
409.79	3411.92
410.00	3624.90
410.21	3485.64
410.43	3504.07
410.64	3330.00
410.85	3542.99
411.06	3467.21
411.27	3518.41
411.48	3678.15
411.70	3588.04
411.91	3622.86
412.12	3649.48
412.33	3495.88
412.54	3526.60
412.76	3743.69
412.97	3592.14
413.18	3411.92
413.39	3579.85
413.60	3694.54
413.81	3557.32
414.03	3551.18
414.24	3655.62
414.45	3764.17
414.66	3547.08
414.87	3672.01
415.08	3694.54
415.30	3682.25
415.51	3743.69
415.72	3747.78
415.93	3743.69
416.14	3639.24
416.35	3760.07
416.56	3743.69
416.78	3866.56
416.99	3860.42
417.20	3770.31
417.41	3780.55
417.62	3858.37
417.83	3905.48
418.04	3887.04
418.26	3942.34
418.47	3860.42
418.68	3913.67
418.89	3913.67
419.10	4089.79
419.31	3964.87
419.52	3954.63
419.73	3882.95
419.95	4034.50
420.16	3940.29
420.37	4061.12
420.58	3966.92
420.79	3870.66
421.00	3952.58
421.21	4118.47
421.42	3948.48
421.63	4175.81
421.85	4030.40
422.06	4065.22
422.27	4149.18
422.48	4202.43
422.69	4177.86
422.90	4167.62
423.11	4222.91
423.32	4186.05
423.53	4270.01
423.75	4237.25
423.96	4483.00
424.17	4296.64
424.38	4509.63
424.59	4411.32
424.80	4489.15
425.01	4372.41
425.22	4384.70
425.43	4446.14
425.64	4640.70
425.85	4526.01
426.06	4517.82
426.28	4380.61
426.49	4425.66
426.70	4523.96
426.91	4575.16
427.12	4542.39
427.33	4616.12
427.54	4489.15
427.75	4749.24
427.96	4722.62
428.17	4642.75
428.38	4865.97
428.59	4831.16
428.80	4712.38
429.01	4911.03
429.23	4693.94
429.44	4861.88
429.65	5095.35
429.86	4968.37
430.07	4779.96
430.28	4917.17
430.49	5005.24
430.70	5044.15
430.91	5105.59
431.12	5081.01
431.33	5113.78
431.54	5160.88
431.75	4995.00
431.96	5054.39
432.17	4931.51
432.38	5124.02
432.59	5296.05
432.80	5300.14
433.01	5244.85
433.22	5296.05
433.43	5148.59
433.64	5248.94
433.85	5154.74
434.06	5394.35
434.27	5263.28
434.49	5457.84
434.70	5384.11
434.91	5539.76
435.12	5509.04
435.33	5533.61
435.54	5382.06
435.75	5492.65
435.96	5599.15
436.17	5455.79
436.38	5572.52
436.59	5672.87
436.80	5556.14
437.01	5789.61
437.22	5834.66
437.43	5615.53
437.64	5603.24
437.85	5648.30
438.06	5799.85
438.27	5570.48
438.48	5547.95
438.69	5744.55
438.90	5691.31
439.11	5771.18
439.32	5824.42
439.53	5779.37
439.74	5834.66
439.95	6068.13
440.16	5963.68
440.37	5912.49
440.57	5834.66
440.78	5894.05
440.99	6018.98
441.20	6049.70
441.41	5908.39
441.62	6033.32
441.83	5953.45
442.04	6182.82
442.25	6121.38
442.46	6094.76
442.67	6336.42
442.88	6647.71
443.09	6117.28
443.30	6252.45
443.51	6008.74
443.72	6571.93
443.93	6072.23
444.14	6389.66
444.35	6254.50
444.56	6410.14
444.77	6430.62
444.98	6399.90
445.19	6311.84
445.40	6356.90
445.61	6348.70
445.81	6598.56
446.02	6651.80
446.23	6555.55
446.44	6442.91
446.65	6514.59
446.86	6637.47
447.07	6698.91
447.28	6735.77
447.49	6625.18
447.70	6696.86
447.91	6725.53
448.12	6754.20
448.33	6885.27
448.54	6817.69
448.74	6815.64
448.95	6791.06
449.16	6899.61
449.37	7135.12
449.58	6786.97
449.79	7106.45
450.00	6823.83
450.21	7135.12
450.42	7137.17
450.63	7104.40
450.84	7022.48
451.05	7165.84
451.25	7092.12
451.46	7112.60
451.67	7315.34
451.88	7141.27
452.09	7221.14
452.30	7151.51
452.51	7163.79
452.72	7403.41
452.93	7528.33
453.13	7112.60
453.34	7180.18
453.55	7352.21
453.76	7337.87
453.97	7884.68
454.18	7454.61
454.39	7569.29
454.60	7503.76
454.81	7544.72
455.01	7708.55
455.22	7485.33
455.43	7901.06
455.64	7915.40
455.85	7966.60
456.06	8064.90
456.27	7872.39
456.48	7755.66
456.68	7786.38
456.89	7944.07
457.10	8028.04
457.31	7958.41
457.52	8017.80
457.73	8089.48
457.94	8312.71
458.14	7874.44
458.35	8546.17
458.56	8482.69
458.77	8138.63
458.98	8353.66
459.19	8236.93
459.39	8365.95
459.60	8523.65
459.81	8402.82
460.02	8568.70
460.23	8572.80
460.44	8765.31
460.65	8638.33
460.85	8781.69
461.06	8636.28
461.27	8533.89
461.48	9088.89
461.69	8976.25
461.89	8685.44
462.10	9031.54
462.31	8722.30
462.52	8867.70
462.73	8830.84
462.94	9213.81
463.14	8861.56
463.35	9017.21
463.56	9580.40
463.77	9389.94
463.98	9254.77
464.18	9215.86
464.39	9385.84
464.60	9674.60
464.81	9541.49
465.02	9396.08
465.23	9932.65
465.43	9482.10
465.64	9895.78
465.85	9734.00
466.06	9768.81
466.27	10135.40
466.47	9953.13
466.68	9860.97
466.89	10008.42
467.10	9918.31
467.30	10002.28
467.51	9936.74
467.72	10446.69
467.93	10311.52
468.14	10192.74
468.34	10305.38
468.55	10522.46
468.76	10317.67
468.97	10362.72
469.17	10624.86
469.38	10837.85
469.59	10903.39
469.80	10428.26
470.01	10635.10
470.21	10608.48
470.42	11028.31
470.63	11087.70
470.84	11065.18
471.04	10932.06
471.25	11261.78
471.46	11222.87
471.67	11474.77
471.87	11341.65
472.08	11439.95
472.29	11824.97
472.50	11306.84
472.70	11386.71
472.91	11497.30
473.12	11915.08
473.33	11845.45
473.53	12138.31
473.74	11765.58
473.95	12132.17
474.16	12451.65
474.36	12183.37
474.57	12580.67
474.78	12617.54
474.99	12418.88
475.19	12343.11
475.40	12713.79
475.61	12764.99
475.81	12797.76
476.02	12789.56
476.23	12545.86
476.44	13051.70
476.64	13020.99
476.85	13295.41
477.06	13266.74
477.27	13434.68
477.47	13485.87
477.68	13358.90
477.89	13580.08
478.09	13479.73
478.30	13668.14
478.51	13838.12
478.71	13930.28
478.92	13958.96
479.13	14135.08
479.34	14153.51
479.54	14315.30
479.75	14292.77
479.96	14298.92
480.16	14618.40
480.37	14532.39
480.58	14759.71
480.78	15095.58
480.99	14991.13
481.20	14991.13
481.41	15111.96
481.61	15218.46
481.82	15380.25
482.03	15370.01
482.23	15347.48
482.44	15775.50
482.65	15603.47
482.85	15785.74
483.06	15671.06
483.27	15812.37
483.47	15726.35
483.68	16056.08
483.89	16074.51
484.09	16017.16
484.30	16281.35
484.51	16381.70
484.71	16570.12
484.92	16658.18
485.13	16692.99
485.33	16889.60
485.54	16502.53
485.75	16953.09
485.95	16922.37
486.16	17108.73
486.37	17258.23
486.57	17379.06
486.78	17403.64
486.98	17245.94
487.19	17422.07
487.40	17784.56
487.60	17610.48
487.81	17936.11
488.02	18042.60
488.22	17917.68
488.43	18087.66
488.64	18071.28
488.84	18605.80
489.05	18591.46
489.25	18112.24
489.46	18706.15
489.67	18673.38
489.87	18984.67
490.08	18878.18
490.29	18591.46
490.49	19275.48
490.70	19128.03
490.90	19420.89
491.11	19240.67
491.32	19498.71
491.52	19394.26
491.73	19441.37
491.94	19597.01
492.14	19594.96
492.35	19867.34
492.55	19975.89
492.76	20160.20
492.97	20123.34
493.17	19861.20
493.38	20508.36
493.58	20522.69
493.79	20393.67
494.00	20418.25
494.20	20422.34
494.41	20891.33
494.61	20727.49
494.82	21028.54
495.02	20862.66
495.23	21210.81
495.44	20991.68
495.64	21317.31
495.85	21145.28
496.05	21198.52
496.26	21216.96
496.47	21708.47
496.67	21604.02
496.88	21931.70
497.08	21481.14
497.29	22169.26
497.49	21741.24
497.70	22030.00
497.91	22042.29
498.11	22146.73
498.32	22290.09
498.52	22290.09
498.73	22685.35
498.93	22759.08
499.14	22771.36
499.34	22861.48
499.55	22830.76
499.76	22716.07
499.96	23094.94
500.17	22763.17
500.37	23064.22
500.58	23375.52
500.78	23264.92
500.99	23283.36
501.19	23398.04
501.40	23557.78
501.60	23596.70
501.81	23795.35
502.02	23799.44
502.22	23656.09
502.43	23977.62
502.63	24374.92
502.84	24016.53
503.04	24215.18
503.25	24030.87
503.45	24059.54
503.66	24372.88
503.86	24325.77
504.07	24729.22
504.27	24608.39
504.48	24663.69
504.68	24827.53
504.89	24678.02
505.09	25110.14
505.30	24843.91
505.50	25089.67
505.71	25192.06
505.91	25376.38
506.12	24895.11
506.32	25609.85
506.53	25394.81
506.73	25259.65
506.94	25411.20
507.14	25411.20
507.35	25704.06
507.55	25728.63
507.76	25792.12
507.96	25794.17
508.17	25611.90
508.37	25685.62
508.58	25876.09
508.78	26322.54
508.99	26218.10
509.19	26318.45
509.40	26451.56
509.60	26322.54
509.81	26504.81
510.01	26379.89
510.22	26451.56
510.42	26599.02
510.63	26621.55
510.83	26865.25
511.04	26725.99
511.24	26807.91
511.44	26760.81
511.65	27111.01
511.85	26973.80
512.06	27242.08
512.26	26969.70
512.47	27444.83
512.67	27135.59
512.88	27276.90
513.08	27098.72
513.29	27491.93
513.49	27838.04
513.69	27534.94
513.90	27541.08
514.10	27606.62
514.31	27944.53
514.51	28157.52
514.72	27774.55
514.92	27754.07
515.13	28032.60
515.33	27760.22
515.53	28214.87
515.74	28272.21
515.94	28030.55
516.15	28321.36
516.35	27962.97
516.56	28474.96
516.76	28130.90
516.96	28444.24
517.17	28618.32
517.37	28434.00
517.58	28657.23
517.78	28974.66
517.99	28868.17
518.19	28929.61
518.39	28816.97
518.60	28902.98
518.80	28493.39
519.01	29109.83
519.21	29036.10
519.41	29109.83
519.62	29255.23
519.82	29417.02
520.03	29529.66
520.23	29560.38
520.43	29507.13
520.64	29787.71
520.84	29994.55
521.05	29648.44
521.25	30139.96
521.45	30068.28
521.66	30363.18
521.86	30242.35
522.07	30012.98
522.27	30236.21
522.47	30074.42
522.68	30584.37
522.88	30377.52
523.08	30574.13
523.29	30588.46
523.49	30584.37
523.70	30658.09
523.90	31122.98
524.10	30787.11
524.31	30987.82
524.51	30885.42
524.71	30936.62
524.92	31254.05
525.12	31383.07
525.33	31417.89
525.53	31364.64
525.73	31669.79
525.94	31723.04
526.14	31581.73
526.34	31956.50
526.55	31845.91
526.75	31854.11
526.95	32249.36
527.16	32251.41
527.36	32132.63
527.56	32052.76
527.77	32275.99
527.97	32609.81
528.17	32382.48
528.38	32534.03
528.58	32583.18
528.78	32359.95
528.99	32720.40
529.19	32908.81
529.39	32564.75
529.60	33007.11
529.80	32941.58
530.00	33107.46
530.21	33439.23
530.41	33447.43
530.61	33236.48
530.82	33474.05
531.02	33560.06
531.22	33443.33
531.43	33687.04
531.63	33492.48
531.83	34139.64
532.04	34168.31
532.24	33666.56
532.44	34309.62
532.64	34321.91
532.85	34262.52
533.05	34608.62
533.25	34801.13
533.46	34571.76
533.66	34838.00
533.86	34575.86
534.07	34932.20
534.27	34885.10
534.47	35208.68
534.67	34940.39
534.88	34977.26
535.08	35141.10
535.28	35399.14
535.49	35255.78
535.69	35737.05
535.89	35579.36
536.09	35505.63
536.30	35816.93
536.50	35927.52
536.70	36232.66
536.91	35798.49
537.11	35945.95
537.31	36593.11
537.51	36546.00
537.72	36378.07
537.92	36824.53
538.12	36490.71
538.32	36312.53
538.53	36713.94
538.73	36472.28
538.93	36666.83
539.13	37037.51
539.34	36695.50
539.54	36558.29
539.74	37307.85
539.94	37037.51
540.15	36943.31
540.35	37166.54
540.55	37203.40
540.75	37057.99
540.96	37492.16
541.16	37512.64
541.36	37514.69
541.56	37465.54
541.77	37895.61
541.97	37643.71
542.17	37731.78
542.37	37983.68
542.58	37848.51
542.78	37615.04
542.98	37854.65
543.18	38088.12
543.38	38497.72
543.59	38374.84
543.79	38067.64
543.99	37991.87
544.19	38141.37
544.40	38450.61
544.60	38690.23
544.80	38538.68
545.00	38688.18
545.20	38796.72
545.41	38745.52
545.61	38675.89
545.81	38870.45
546.01	38657.46
546.21	39058.86
546.42	38712.75
546.62	39321.00
546.82	38786.48
547.02	39343.53
547.22	39210.41
547.43	38782.38
547.63	38903.21
547.83	39458.21
548.03	39144.87
548.23	39351.72
548.44	39462.31
548.64	39372.20
548.84	39767.46
549.04	39275.94
549.24	39726.50
549.45	39818.66
549.65	39777.70
549.85	39898.53
550.05	40285.59
550.25	39343.53
550.45	40324.50
550.66	39843.23
550.86	39693.73
551.06	39976.35
551.26	40293.79
551.46	40471.96
551.66	40545.69
551.87	39941.53
552.07	40519.06
552.27	40199.58
552.47	40314.26
552.67	40334.74
552.87	40211.87
553.07	40854.93
553.28	40533.40
553.48	40562.07
553.68	40762.77
553.88	41201.04
554.08	41022.86
554.28	40711.57
554.48	40447.38
554.69	40766.87
554.89	40738.19
555.09	40611.22
555.29	41039.25
555.49	41389.45
555.69	41164.17
555.89	41131.40
556.10	41483.66
556.30	41186.70
556.50	40988.05
556.70	41379.21
556.90	41287.05
557.10	41516.42
557.30	41311.63
557.50	41518.47
557.70	41872.77
557.91	41792.90
558.11	41444.74
558.31	41510.28
558.51	41246.09
558.71	41596.29
558.91	41620.87
559.11	41672.07
559.31	41735.56
559.51	41258.38
559.72	41475.46
559.92	41868.67
560.12	41440.65
560.32	41524.61
560.52	42020.22
560.72	42038.65
560.92	41538.95
561.12	42196.35
561.32	42122.62
561.52	41891.20
561.72	42300.79
561.93	41842.05
562.13	42220.92
562.33	41893.25
562.53	42356.09
562.73	41936.26
562.93	42044.80
563.13	42626.42
563.33	42306.94
563.53	42974.58
563.73	42124.67
563.93	42308.99
564.13	43009.39
564.33	42737.01
564.53	42573.17
564.74	42642.81
564.94	42622.33
565.14	42814.83
565.34	42476.92
565.54	42976.62
565.74	42859.89
565.94	43220.33
566.14	42861.94
566.34	42804.59
566.54	43201.90
566.74	43009.39
566.94	43050.35
567.14	43029.87
567.34	42839.41
567.54	43533.67
567.74	42773.88
567.94	42999.15
568.14	43517.29
568.34	43443.56
568.54	43277.68
568.74	43304.30
568.94	43324.78
569.14	43947.36
569.34	43507.05
569.54	43656.55
569.75	43326.83
569.95	43431.27
570.15	43388.27
570.35	43709.80
570.55	43314.54
570.75	43713.89
570.95	43804.00
571.15	44199.26
571.35	43664.74
571.55	43967.84
571.75	44076.38
571.95	43883.87
572.15	43959.65
572.35	44049.76
572.55	44336.48
572.75	44424.54
572.95	44320.09
573.15	44301.66
573.35	44453.21
573.55	44277.08
573.75	44399.96
573.95	44795.22
574.15	44199.26
574.35	44680.53
574.55	44547.42
574.75	44432.73
574.95	44830.04
575.15	44348.76
575.34	44856.66
575.54	44680.53
575.74	45196.62
575.94	44756.31
576.14	44723.54
576.34	45016.40
576.54	45514.06
576.74	45149.52
576.94	45020.50
577.14	45464.91
577.34	45696.33
577.54	44924.24
577.74	45776.20
577.94	45124.94
578.14	45831.49
578.34	45751.62
578.54	45006.16
578.74	45733.19
578.94	45780.29
579.14	45702.47
579.34	45958.47
579.54	45768.01
579.74	46499.13
579.94	46329.15
580.13	46251.33
580.33	46415.16
580.53	46583.10
580.73	46273.85
580.93	46241.09
581.13	46247.23
581.33	46798.13
581.53	46888.24
581.73	46816.57
581.93	47283.50
582.13	47009.07
582.33	47064.37
582.53	47043.89
582.73	46857.52
582.92	47045.94
583.12	47365.42
583.32	47033.65
583.52	47054.13
583.72	47478.06
583.92	47019.31
584.12	47387.95
584.32	47879.46
584.52	47551.79
584.72	47725.86
584.92	47715.62
585.11	48041.25
585.31	47867.17
585.51	47596.84
585.71	48076.07
585.91	48291.10
586.11	47559.98
586.31	47754.54
586.51	48024.87
586.71	48004.39
586.91	48471.32
587.10	48774.42
587.30	48563.48
587.50	48452.89
587.70	48956.69
587.90	48573.72
588.10	48719.13
588.30	48395.55
588.50	49190.16
588.69	48510.24
588.89	48416.03
589.09	49286.42
589.29	49380.62
589.49	49194.26
589.69	48844.05
589.89	49761.54
590.08	48977.17
590.28	48809.24
590.48	49009.94
590.68	48839.96
590.88	49284.37
591.08	49263.89
591.28	49364.24
591.47	49605.90
591.67	49968.39
591.87	49403.15
592.07	49747.21
592.27	49874.18
592.47	49976.58
592.67	50111.75
592.86	49747.21
593.06	49861.90
593.26	50193.67
593.46	50148.61
593.66	50013.44
593.86	50263.30
594.05	50599.16
594.25	50975.99
594.45	50144.51
594.65	49933.57
594.85	50029.83
595.05	50943.22
595.24	50859.26
595.44	50734.33
595.64	50605.31
595.84	50869.50
596.04	50752.76
596.23	51156.21
596.43	51078.39
596.63	50621.69
596.83	50652.41
597.03	51272.95
597.22	51356.91
597.42	50789.62
597.62	51143.92
597.82	51371.25
598.02	51549.42
598.21	51668.20
598.41	51287.28
598.61	52114.66
598.81	51703.02
599.01	51848.42
599.20	51887.34
599.40	51735.79
599.60	52061.41
599.80	52065.51
600.00	52016.36
600.19	52483.30
600.39	51541.23
600.59	52133.09
600.79	52327.65
600.98	52221.16
601.18	52094.18
601.38	52790.49
601.58	52878.55
601.78	52657.37
601.97	52450.53
602.17	53163.22
602.37	52573.41
602.57	52841.69
602.76	53327.06
602.96	53200.08
603.16	53152.98
603.36	53132.50
603.55	53228.76
603.75	52684.00
603.95	52813.02
604.15	53538.00
604.34	53263.57
604.54	53460.18
604.74	53624.01
604.94	53585.10
605.13	53476.56
605.33	53966.02
605.53	53419.22
605.73	53695.69
605.92	53707.98
606.12	53945.54
606.32	54156.49
606.52	53794.00
606.71	53552.33
606.91	54254.79
607.11	54236.36
607.30	54371.52
607.50	53963.98
607.70	54490.30
607.90	54156.49
608.09	54293.70
608.29	54711.49
608.49	54168.77
608.68	54260.93
608.88	54478.02
609.08	54686.91
609.28	54475.97
609.47	54199.49
609.67	55194.81
609.87	54277.32
610.06	55108.79
610.26	54719.68
610.46	55065.78
610.66	54975.67
610.85	54891.71
611.05	54953.15
611.25	55239.86
611.44	54910.14
611.64	55217.33
611.84	55239.86
612.03	54899.90
612.23	55262.39
612.43	55002.30
612.62	54981.82
612.82	55370.93
613.02	55180.47
613.21	54973.63
613.41	54805.69
613.61	55383.22
613.80	54740.16
614.00	54944.95
614.20	55227.57
614.39	55358.64
614.59	55604.40
614.79	55676.08
614.98	55547.06
615.18	55448.75
615.38	55424.18
615.57	55563.44
615.77	55432.37
615.97	55811.24
616.16	55628.98
616.36	55428.27
616.56	55870.64
616.75	55731.37
616.95	55643.31
617.15	55319.73
617.34	55645.36
617.54	55444.66
617.74	56118.44
617.93	55887.02
618.13	55407.79
618.32	55764.14
618.52	55096.50
618.72	55397.55
618.91	55528.62
619.11	55436.47
619.31	55581.87
619.50	55534.77
619.70	55172.28
619.90	55436.47
620.09	55690.41
620.29	55893.16
620.48	55291.06
620.68	55659.69
620.88	55129.27
621.07	55614.64
621.27	55293.11
621.46	55311.54
621.66	55313.59
621.86	55690.41
622.05	55196.85
622.25	55776.43
622.44	55559.34
622.64	55411.89
622.84	55567.54
623.03	55317.68
623.23	55194.81
623.42	55178.42
623.62	55518.38
623.82	55905.45
624.01	55432.37
624.21	55549.10
624.40	55119.03
624.60	55291.06
624.80	55452.85
624.99	55571.63
625.19	55024.82
625.38	55579.82
625.58	55243.96
625.77	55196.85
625.97	55358.64
626.17	55319.73
626.36	55747.76
626.56	55334.07
626.75	54865.08
626.95	55334.07
627.14	55391.41
627.34	55956.65
627.54	55076.02
627.73	55319.73
627.93	55532.72
628.12	55446.71
628.32	55463.09
628.51	55432.37
628.71	55702.70
628.90	55579.82
629.10	55442.61
629.30	55121.08
629.49	55434.42
629.69	55186.61
629.88	55274.68
630.08	55876.78
630.27	55743.66
630.47	55473.33
630.66	55415.99
630.86	55426.23
631.05	55262.39
631.25	56353.96
631.44	55385.27
631.64	55436.47
631.84	55919.79
632.03	55825.58
632.23	55297.20
632.42	55811.24
632.62	55499.95
632.81	55291.06
633.01	55430.32
633.20	55737.52
633.40	55604.40
633.59	55647.41
633.79	55678.13
633.98	55647.41
634.18	55684.27
634.37	55858.35
634.57	55284.92
634.76	55409.84
634.96	55516.34
635.15	55481.52
635.35	55022.78
635.54	55172.28
635.74	55497.91
635.93	55379.12
636.13	55911.59
636.32	55600.30
636.52	55510.19
636.71	55698.61
636.91	55483.57
637.10	55538.86
637.30	55739.57
637.49	55473.33
637.69	55489.71
637.88	55930.03
638.08	55450.80
638.27	55751.85
638.46	55489.71
638.66	55116.98
638.85	55649.45
639.05	55467.19
639.24	55764.14
639.44	55461.04
639.63	55534.77
639.83	55893.16
640.02	55678.13
640.22	55692.46
640.41	55671.98
640.61	55731.37
640.80	55829.68
640.99	55661.74
641.19	56108.20
641.38	55563.44
641.58	55563.44
641.77	55606.45
641.97	55444.66
642.16	55671.98
642.36	55770.28
642.55	56235.17
642.74	55409.84
642.94	56239.27
643.13	55669.93
643.33	56095.91
643.52	56016.04
643.72	55577.78
643.91	55426.23
644.10	55622.83
644.30	55944.36
644.49	56208.55
644.69	56054.95
644.88	55608.50
645.08	55276.72
645.27	55841.96
645.46	55422.13
645.66	55784.62
645.85	55579.82
646.05	56149.16
646.24	55794.86
646.43	56276.13
646.63	55999.66
646.82	56296.61
647.02	55901.36
647.21	56122.54
647.40	55870.64
647.60	56122.54
647.79	56001.71
647.99	56026.28
648.18	55962.79
648.37	56286.37
648.57	56372.39
648.76	56247.46
648.96	55614.64
649.15	55854.25
649.34	56032.42
649.54	56218.79
649.73	55690.41
649.92	55899.31
650.12	55837.87
650.31	56057.00
650.51	56018.09
650.70	56528.03
650.89	55839.92
651.09	56847.52
651.28	56329.38
651.47	56313.00
651.67	55936.17
651.86	56616.10
652.06	55772.33
652.25	55938.22
652.44	56233.13
652.64	56028.33
652.83	56235.17
653.02	55923.88
653.22	55950.51
653.41	55735.47
653.60	55600.30
653.80	55866.54
653.99	55948.46
654.18	55624.88
654.38	56206.50
654.57	56204.45
654.76	56167.59
654.96	55813.29
655.15	55880.88
655.34	55620.78
655.54	55719.09
655.73	56106.15
655.92	55661.74
656.12	56001.71
656.31	56009.90
656.50	56474.79
656.70	56149.16
656.89	55626.93
657.08	56153.26
657.28	55923.88
657.47	56118.44
657.66	56077.48
657.86	56001.71
658.05	56284.33
658.24	56208.55
658.43	55628.98
658.63	55909.55
658.82	56097.96
659.01	56052.90
659.21	56149.16
659.40	55934.12
659.59	55680.17
659.79	55721.13
659.98	56028.33
660.17	55989.42
660.36	56063.14
660.56	56143.02
660.75	56300.71
660.94	55866.54
661.14	56005.80
661.33	55893.16
661.52	55530.67
661.71	56038.57
661.91	55598.26
662.10	55954.60
662.29	56145.06
662.49	55854.25
662.68	56026.28
662.87	56018.09
663.06	56411.30
663.26	55481.52
663.45	55958.70
663.64	55678.13
663.83	56417.44
664.03	56480.93
664.22	55825.58
664.41	55489.71
664.60	55608.50
664.80	56204.45
664.99	55485.62
665.18	56138.92
665.37	56097.96
665.57	55927.98
665.76	55434.42
665.95	56059.05
666.14	55760.05
666.34	55907.50
666.53	55665.84
666.72	55735.47
666.91	55723.18
667.11	56001.71
667.30	55796.91
667.49	55577.78
667.68	56067.24
667.87	55583.92
668.07	55876.78
668.26	55293.11
668.45	55641.26
668.64	55254.20
668.84	56544.42
669.03	55735.47
669.22	55727.28
669.41	56009.90
669.60	56013.99
669.80	55581.87
669.99	55858.35
670.18	56032.42
670.37	55547.06
670.57	55846.06
670.76	56003.75
670.95	55952.55
671.14	55927.98
671.33	55506.10
671.53	55932.07
671.72	55948.46
671.91	55596.21
672.10	55882.92
672.29	55731.37
672.48	55528.62
672.68	55821.48
672.87	55739.57
673.06	55323.83
673.25	55387.31
673.44	55303.35
673.64	55219.38
673.83	54910.14
674.02	55379.12
674.21	55098.55
674.40	55682.22
674.59	55256.24
674.79	55487.67
674.98	55358.64
675.17	55631.02
675.36	54912.19
675.55	55647.41
675.74	55495.86
675.94	55184.57
676.13	55325.88
676.32	55522.48
676.51	55884.97
676.70	55461.04
676.89	54967.48
677.08	55239.86
677.28	54994.10
677.47	55397.55
677.66	55651.50
677.85	55149.75
678.04	55506.10
678.23	55450.80
678.42	55608.50
678.62	55045.30
678.81	55825.58
679.00	55000.25
679.19	56145.06
679.38	55006.39
679.57	55010.49
679.76	55190.71
679.96	55444.66
680.15	55014.58
680.34	55139.51
680.53	54981.82
680.72	55293.11
680.91	54987.96
681.10	54854.84
681.29	55047.35
681.48	54957.24
681.68	55211.19
681.87	55016.63
682.06	55215.29
682.25	54801.60
682.44	54359.23
682.63	54848.70
682.82	53779.66
683.01	54801.60
683.20	54342.85
683.39	54426.82
683.59	54480.06
683.78	54707.39
683.97	54621.37
684.16	55024.82
684.35	54260.93
684.54	54930.62
684.73	54494.40
684.92	54625.47
685.11	54412.48
685.30	54570.18
685.49	54944.95
685.69	54025.42
685.88	54613.18
686.07	54539.46
686.26	54650.05
686.45	54729.92
686.64	54607.04
686.83	54353.09
687.02	54604.99
687.21	54510.78
687.40	54262.98
687.59	54224.07
687.78	54168.77
687.97	54635.71
688.16	54842.56
688.35	54179.01
688.54	53988.55
688.74	54420.67
688.93	54418.63
689.12	54105.29
689.31	54598.85
689.50	54090.95
689.69	54047.94
689.88	53454.03
690.07	54168.77
690.26	54099.14
690.45	54521.02
690.64	53834.95
690.83	54170.82
691.02	53968.07
691.21	54168.77
691.40	54156.49
691.59	53904.59
691.78	53720.27
691.97	53920.97
692.16	53845.19
692.35	54113.48
692.54	54189.25
692.73	53925.07
692.92	53941.45
693.11	53787.85
693.30	53720.27
693.49	53855.43
693.68	53497.04
693.87	53873.87
694.06	53820.62
694.25	53425.36
694.44	53519.57
694.63	53738.70
694.82	53662.93
695.01	53714.12
695.20	53312.72
695.39	53470.42
695.58	53875.91
695.77	53511.38
695.96	53140.69
696.15	53204.18
696.34	53529.81
696.53	53349.59
696.72	53701.84
696.91	53318.87
697.10	53599.44
697.29	53241.04
697.48	53470.42
697.67	53009.62
697.86	53109.97
698.05	53101.78
698.24	53662.93
698.43	52913.37
698.62	53363.92
698.81	52950.23
699.00	53597.39
699.19	52784.35
699.38	53064.92
699.57	52886.74
699.76	53363.92
699.95	52788.44
700.14	52808.92
700.32	53318.87
700.51	53064.92
700.70	53386.45
700.89	52995.29
701.08	52993.24
701.27	52931.80
701.46	53122.26
701.65	52499.68
701.84	52765.91
702.03	52886.74
702.22	52700.38
702.41	52557.02
702.60	52733.15
702.79	52372.70
702.98	52528.35
703.17	52645.08
703.35	52487.39
703.54	52425.95
703.73	52591.84
703.92	52827.35
704.11	52491.49
704.30	51944.68
704.49	52309.22
704.68	52124.90
704.87	52278.50
705.06	52065.51
705.25	52143.33
705.43	52505.82
705.62	52296.93
705.81	51893.48
706.00	52260.07
706.19	51711.21
706.38	52364.51
706.57	52053.22
706.76	51852.52
706.95	52278.50
707.14	51676.40
707.32	51553.52
707.51	51721.45
707.70	51981.54
707.89	52042.98
708.08	51991.78
708.27	52071.65
708.46	51903.72
708.65	51930.34
708.84	51916.01
709.02	51911.91
709.21	51799.27
709.40	51897.58
709.59	51721.45
709.78	51328.24
709.97	51590.38
710.16	51455.21
710.34	51490.03
710.53	51231.99
710.72	51600.62
710.91	51713.26
711.10	51625.20
711.29	51524.85
711.48	51641.58
711.66	51412.21
711.85	51031.29
712.04	51721.45
712.23	51483.89
712.42	51502.32
712.61	51522.80
712.80	51391.73
712.98	51627.24
713.17	51588.33
713.36	51244.27
713.55	51496.17
713.74	51176.69
713.93	51459.31
714.11	51025.14
714.30	50943.22
714.49	50883.83
714.68	51234.03
714.87	51133.68
715.06	51213.55
715.24	50832.63
715.43	51121.40
715.62	51090.68
715.81	51129.59
716.00	51303.67
716.18	51209.46
716.37	50883.83
716.56	50769.15
716.75	51080.44
716.94	50920.70
717.12	50631.93
717.31	50648.32
717.50	50582.78
717.69	50582.78
717.88	50459.90
718.06	50871.54
718.25	50752.76
718.44	49972.49
718.63	50953.46
718.82	50253.06
719.00	50310.40
719.19	50377.98
719.38	50177.28
719.57	49829.13
719.76	49960.20
719.94	50058.50
720.13	50134.28
720.32	50066.69
720.51	49982.73
720.69	49874.18
720.88	49943.81
721.07	50238.72
721.26	49411.34
721.44	49923.33
721.63	49716.49
721.82	49450.25
722.01	49351.95
722.20	49790.22
722.38	49161.49
722.57	49075.48
722.76	49364.24
722.95	49216.78
723.13	49190.16
723.32	49124.63
723.51	48987.41
723.70	48932.12
723.88	49394.96
724.07	48903.45
724.26	49313.04
724.44	48674.07
724.63	49343.76
724.82	48833.81
725.01	48747.80
725.19	49278.22
725.38	48842.01
725.57	48459.04
725.76	48917.78
725.94	48205.09
726.13	48700.70
726.32	48493.85
726.51	48600.35
726.69	48493.85
726.88	48811.29
727.07	48663.83
727.25	48555.29
727.44	48751.90
727.63	48612.63
727.82	48422.17
728.00	48645.40
728.19	48506.14
728.38	49009.94
728.56	47865.13
728.75	48876.82
728.94	48712.98
729.12	48565.53
729.31	48848.15
729.50	48690.46
729.69	48796.95
729.87	48921.88
730.06	48723.22
730.25	48557.34
730.43	49009.94
730.62	48473.37
730.81	48469.28
730.99	48358.69
731.18	48450.84
731.37	48735.51
731.55	48778.52
731.74	48516.38
731.93	48862.49
732.11	48563.48
732.30	48887.06
732.49	48407.84
732.67	48682.27
732.86	48487.71
733.05	48182.56
733.23	48626.97
733.42	48917.78
733.61	48569.63
733.79	48725.27
733.98	48508.19
734.17	48346.40
734.35	48117.03
734.54	47904.04
734.73	48760.09
734.91	48583.96
735.10	48289.06
735.29	48637.21
735.47	48096.55
735.66	48381.21
735.84	48264.48
736.03	48018.72
736.22	48473.37
736.40	48409.89
736.59	48563.48
736.78	48346.40
736.96	48272.67
737.15	48647.45
737.33	48117.03
737.52	48164.13
737.71	48385.31
737.89	47635.75
738.08	47846.69
738.27	47729.96
738.45	48411.93
738.64	47881.51
738.82	48026.92
739.01	48135.46
739.20	47891.75
739.38	47924.52
739.57	47932.71
739.75	47854.89
739.94	47879.46
740.13	47828.26
740.31	47670.57
740.50	47574.31
740.68	47932.71
740.87	47875.37
741.06	47750.44
741.24	47990.05
741.43	47891.75
741.61	47844.65
741.80	47709.48
741.99	47428.91
742.17	47465.77
742.36	47805.73
742.54	47531.31
742.73	47453.48
742.91	48012.58
743.10	47928.61
743.29	47873.32
743.47	47494.44
743.66	47232.30
743.84	47658.28
744.03	47252.78
744.21	47379.76
744.40	47424.81
744.59	47408.43
744.77	47179.06
744.96	47406.38
745.14	47136.05
745.33	47289.65
745.51	47088.95
745.70	47283.50
745.88	47267.12
746.07	47359.28
746.26	47299.89
746.44	47181.10
746.63	47379.76
746.81	47240.50
747.00	46951.73
747.18	47254.83
747.37	47025.46
747.55	47056.18
747.74	47140.14
747.92	47078.71
748.11	46777.65
748.29	46849.33
748.48	47070.51
748.66	46787.89
748.85	46871.86
749.03	46464.32
749.22	46828.85
749.41	47025.46
749.59	46964.02
749.78	46953.78
749.96	46290.24
750.15	46638.39
750.33	46347.58
750.52	47027.51
750.70	46730.55
750.89	46370.11
751.07	45817.16
751.26	46480.70
751.44	46585.15
751.63	46703.93
751.81	46216.51
752.00	46226.75
752.18	46431.55
752.37	45970.75
752.55	45927.75
752.74	46105.92
752.92	45944.13
753.10	46187.84
753.29	45937.99
753.47	45786.44
753.66	45688.13
753.84	46191.94
754.03	46120.26
754.21	45514.06
754.40	45776.20
754.58	46005.57
754.77	46015.81
754.95	45247.82
755.14	45634.89
755.32	45796.68
755.51	45256.01
755.69	45577.54
755.88	45305.16
756.06	45600.07
756.24	45323.60
756.43	45358.41
756.61	45608.26
756.80	45098.32
756.98	44914.00
757.17	44985.68
757.35	45524.30
757.54	45086.03
757.72	45440.33
757.90	45174.09
758.09	45018.45
758.27	45331.79
758.46	44633.43
758.64	45307.21
758.83	45462.86
759.01	45018.45
759.19	44541.27
759.38	45178.19
759.56	45184.33
759.75	44696.92
759.93	45096.27
760.12	44479.83
760.30	44316.00
760.48	44518.74
760.67	44485.98
760.85	44381.53
761.04	44680.53
761.22	44750.17
761.40	44842.32
761.59	44537.18
761.77	44422.49
761.96	44186.97
762.14	44637.53
762.32	44008.80
762.51	44189.02
762.69	44303.71
762.88	44262.75
763.06	43947.36
763.24	44225.89
763.43	44264.80
763.61	43857.25
763.80	43779.43
763.98	43783.52
764.16	43502.95
764.35	43816.29
764.53	43623.78
764.72	43617.64
764.90	43930.98
765.08	43746.66
765.27	43631.97
765.45	43615.59
765.63	43697.51
765.82	43525.48
766.00	43629.93
766.18	43660.65
766.37	43537.77
766.55	43224.43
766.74	43267.44
766.92	43390.31
767.10	43308.40
767.29	43076.97
767.47	43275.63
767.65	43584.87
767.84	42710.39
768.02	43242.86
768.20	42792.31
768.39	42589.56
768.57	43117.93
768.75	42837.36
768.94	43083.12
769.12	43160.94
769.30	42906.99
769.49	42737.01
769.67	42505.59
769.85	42331.51
770.04	42509.69
770.22	41969.02
770.40	42136.96
770.59	42145.15
770.77	42446.20
770.95	42782.07
771.14	42222.97
771.32	41913.73
771.50	41946.50
771.69	42235.26
771.87	42038.65
772.05	41760.13
772.24	41774.47
772.42	42120.57
772.60	41641.35
772.78	41829.76
772.97	41719.17
773.15	42030.46
773.33	41338.25
773.52	41672.07
773.70	41663.88
773.88	41850.24
774.07	41203.08
774.25	41627.01
774.43	41921.92
774.61	41690.50
774.80	41491.85
774.98	41497.99
775.16	41665.92
775.34	41854.34
775.53	41573.77
775.71	42104.19
775.89	41741.70
776.08	41743.75
776.26	42065.28
776.44	41858.43
776.62	41588.10
776.81	41508.23
776.99	41907.58
777.17	41629.06
777.35	41788.80
777.54	41825.67
777.72	41350.54
777.90	41983.36
778.08	41872.77
778.27	41923.97
778.45	41846.15
778.63	42282.36
778.81	41616.77
779.00	42517.88
779.18	42188.16
779.36	42718.58
779.54	41758.08
779.73	41895.30
779.91	42382.71
780.09	41833.86
780.27	42476.92
780.46	42360.19
780.64	42591.61
780.82	42431.86
781.00	42395.00
781.19	42524.02
781.37	42337.66
781.55	42618.23
781.73	42712.44
781.91	41944.45
782.10	42200.44
782.28	42182.01
782.46	42902.90
782.64	42599.80
782.82	42192.25
783.01	42335.61
783.19	42610.04
783.37	42472.82
783.55	42452.34
783.74	43070.83
783.92	42444.15
784.10	43019.63
784.28	42585.46
784.46	42245.50
784.64	42515.83
784.83	42599.80
785.01	42702.20
785.19	42407.29
785.37	42616.18
785.55	42534.26
785.74	42409.34
785.92	42360.19
786.10	42734.96
786.28	42499.45
786.46	42208.64
786.64	41915.78
786.83	42003.84
787.01	42059.13
787.19	42595.70
787.37	42247.55
787.55	41833.86
787.74	41717.12
787.92	42548.60
788.10	41764.23
788.28	41473.42
788.46	41903.49
788.64	41889.15
788.82	41874.82
789.01	41584.01
789.19	41680.26
789.37	41573.77
789.55	41663.88
789.73	41100.68
789.91	41366.92
790.09	41334.15
790.28	40820.11
790.46	40879.50
790.64	40967.57
790.82	40760.72
791.00	40639.89
791.18	41084.30
791.36	40975.76
791.55	41024.91
791.73	40803.73
791.91	40603.03
792.09	40746.39
792.27	40768.91
792.45	40480.15
792.63	40230.30
792.81	40203.67
793.00	40091.04
793.18	40273.31
793.36	40107.42
793.54	39951.77
793.72	39800.22
793.90	40088.99
794.08	39501.22
794.26	39654.82
794.44	39269.80
794.62	39488.93
794.81	39675.30
794.99	39364.01
795.17	39273.90
795.35	39200.17
795.53	39243.18
795.71	39271.85
795.89	38876.59
796.07	38557.11
796.25	38720.95
796.43	38456.76
796.61	38184.38
796.80	38079.93
796.98	38411.70
797.16	38034.88
797.34	38204.86
797.52	38280.63
797.70	38440.37
797.88	38165.95
798.06	38096.31
798.24	38034.88
798.42	37715.39
798.60	37754.30
798.78	37610.95
798.96	37838.27
799.14	37518.79
799.32	37619.14
799.51	37049.80
799.69	37832.13
799.87	37006.80
800.05	36924.88
800.23	37072.33
800.41	37101.00
800.59	36494.80
800.77	36642.26
800.95	36459.99
801.13	36459.99
801.31	36228.57
801.49	36570.58
801.67	36320.73
801.85	36341.21
802.03	36079.07
802.21	35894.75
802.39	35818.97
802.57	36066.78
802.75	35618.27
802.93	35616.22
803.11	35829.21
803.29	35458.53
803.47	35272.17
803.65	35259.88
803.83	35372.52
804.01	35194.34
804.19	34686.45
804.37	34852.33
804.55	34956.78
804.73	34760.17
804.91	35214.82
805.09	34952.68
805.27	34504.18
805.45	34747.89
805.63	34846.19
805.81	34246.13
805.99	34487.79
806.17	34102.78
806.35	34520.56
806.53	33998.33
806.71	34141.69
806.89	34115.06
807.07	34188.79
807.25	34045.43
807.43	33844.73
807.61	34299.38
807.79	33824.25
807.97	33426.95
808.15	33625.60
808.33	33291.78
808.51	33633.79
808.69	33687.04
808.87	32878.09
809.05	33138.18
809.23	33031.69
809.41	32953.87
809.59	32859.66
809.77	33410.56
809.95	33009.16
810.13	32845.32
810.31	32785.93
810.49	32851.47
810.67	32749.07
810.84	32808.46
811.02	32890.38
811.20	32486.93
811.38	32468.50
811.56	32097.81
811.74	32079.38
811.92	31804.95
812.10	32345.62
812.28	32292.37
812.46	32036.38
812.64	32028.18
812.82	31747.61
813.00	31895.07
813.18	31657.50
813.36	31499.81
813.53	31565.34
813.71	31778.33
813.89	31471.14
814.07	31759.90
814.25	31360.55
814.43	31430.18
814.61	31407.65
814.79	31333.92
814.97	31104.55
815.15	31364.64
815.33	30936.62
815.50	30774.83
815.68	30717.48
815.86	30942.76
816.04	30567.98
816.22	30746.15
816.40	30514.73
816.58	30688.81
816.76	30363.18
816.94	30381.62
817.11	30357.04
817.29	30293.55
817.47	30381.62
817.65	30203.44
817.83	30205.49
818.01	29728.31
818.19	30211.64
818.37	30025.27
818.54	29503.04
818.72	29810.23
818.90	30256.69
819.08	30062.13
819.26	29824.57
819.44	29544.00
819.62	29591.10
819.80	29609.53
819.97	29808.19
820.15	29711.93
820.33	29335.10
820.51	29720.12
820.69	29011.53
820.87	29480.51
821.05	29881.91
821.22	29167.17
821.40	29220.42
821.58	29167.17
821.76	29374.02
821.94	28804.68
822.12	28929.61
822.29	29339.20
822.47	28788.30
822.65	29109.83
822.83	29023.81
823.01	28704.33
823.19	28982.85
823.36	28470.86
823.54	28495.44
823.72	28501.58
823.90	28642.89
824.08	28470.86
824.25	28253.78
824.43	27954.77
824.61	28413.52
824.79	28333.65
824.97	27936.34
825.15	28347.98
825.32	28489.29
825.50	28210.77
825.68	27739.74
825.86	28012.12
826.04	27999.83
826.21	27848.28
826.39	28008.02
826.57	27571.80
826.75	27991.64
826.93	27739.74
827.10	27743.83
827.28	27643.48
827.46	27594.33
827.64	27864.66
827.81	27698.78
827.99	27772.50
828.17	27403.87
828.35	27018.85
828.53	27221.60
828.70	27303.52
828.88	27317.86
829.06	27080.29
829.24	27350.62
829.41	27311.71
829.59	27317.86
829.77	26967.65
829.95	27248.22
830.12	27022.95
830.30	26938.98
830.48	26945.12
830.66	26803.82
830.84	27090.53
831.01	26793.58
831.19	26779.24
831.37	26515.05
831.55	26496.62
831.72	26685.03
831.90	26621.55
832.08	26676.84
832.25	26570.35
832.43	26494.57
832.61	26226.29
832.79	26418.80
832.96	26355.31
833.14	26347.12
833.32	26326.64
833.50	26451.56
833.67	26523.24
833.85	26179.18
834.03	26019.44
834.20	26121.84
834.38	26050.16
834.56	26087.03
834.74	26003.06
834.91	26156.66
835.09	25679.48
835.27	25687.67
835.44	25818.74
835.62	25642.62
835.80	25575.03
835.98	25847.41
836.15	25448.06
836.33	25564.79
836.51	25896.56
836.68	25527.93
836.86	25687.67
837.04	25325.18
837.21	25314.94
837.39	25501.31
837.57	25486.97
837.75	25534.07
837.92	24979.07
838.10	25327.23
838.28	25095.81
838.45	25165.44
838.63	24895.11
838.81	25278.08
838.98	25169.54
839.16	24989.31
839.34	25044.61
839.51	24901.25
839.69	24501.90
839.87	24467.08
840.04	24766.09
840.22	24802.95
840.40	25003.65
840.57	24505.99
840.75	24665.74
840.93	24618.63
841.10	24745.61
841.28	25046.66
841.46	24694.41
841.63	24419.98
841.81	24577.67
841.98	24626.82
842.16	24538.76
842.34	24491.66
842.51	24221.33
842.69	24245.90
842.87	24245.90
843.04	24356.49
843.22	24252.05
843.40	24284.81
843.57	23983.76
843.75	24303.25
843.92	24202.89
844.10	23946.90
844.28	24118.93
844.45	24229.52
844.63	24073.87
844.81	24002.19
844.98	24135.31
845.16	23772.82
845.33	23969.43
845.51	23895.70
845.69	23832.21
845.86	23615.13
846.04	23803.54
846.21	23695.00
846.39	23627.42
846.57	23707.29
846.74	23752.34
846.92	23539.35
847.09	23174.81
847.27	23355.04
847.45	23367.32
847.62	23621.27
847.80	23596.70
847.97	23740.05
848.15	23232.16
848.32	23135.90
848.50	23469.72
848.68	23082.66
848.85	23039.65
849.03	23197.34
849.20	22955.68
849.38	23332.51
849.56	22910.63
849.73	22761.12
849.91	23070.37
850.08	23008.93
850.26	22597.29
850.43	23010.98
850.61	22849.19
850.78	22722.21
850.96	22933.15
851.14	22668.97
851.31	22836.90
851.49	22734.50
851.66	22638.25
851.84	22615.72
852.01	22720.17
852.19	22896.29
852.36	22490.79
852.54	22470.31
852.71	22599.34
852.89	22458.03
853.07	22558.38
853.24	22396.59
853.42	22187.69
853.59	22412.97
853.77	22318.76
853.94	22476.46
854.12	22376.11
854.29	22095.53
854.47	22257.32
854.64	22253.23
854.82	22085.30
854.99	22159.02
855.17	22290.09
855.34	21978.80
855.52	22068.91
855.69	22156.97
855.87	22206.13
856.04	22087.34
856.22	21800.63
856.39	21366.46
856.57	21687.99
856.74	21649.08
856.92	22015.66
857.09	21710.52
857.27	21745.33
857.44	21978.80
857.62	21757.62
857.79	21544.63
857.97	21544.63
858.14	21597.88
858.32	21493.43
858.49	21765.81
858.67	21429.94
858.84	21446.33
859.02	21495.48
859.19	21444.28
859.37	21321.40
859.54	21391.03
859.72	21479.10
859.89	21376.70
860.06	21327.55
860.24	21401.27
860.41	21235.39
860.59	20971.20
860.76	21378.75
860.94	20715.20
861.11	20960.96
861.29	21319.35
861.46	20799.17
861.64	20768.45
861.81	20782.79
861.98	21081.79
862.16	20483.78
862.33	20432.58
862.51	20641.48
862.68	20549.32
862.86	20887.23
863.03	20696.77
863.21	20762.31
863.38	20963.01
863.55	20752.07
863.73	20604.61
863.90	20416.20
864.08	20651.72
864.25	20285.13
864.43	20287.18
864.60	20467.40
864.77	19973.84
864.95	20299.47
865.12	20102.86
865.30	20616.90
865.47	20326.09
865.64	20483.78
865.82	20508.36
865.99	20403.91
866.17	20139.72
866.34	20209.36
866.51	19992.27
866.69	20129.48
866.86	20049.61
867.04	19973.84
867.21	20106.96
867.38	19853.01
867.56	20299.47
867.73	19650.26
867.91	19887.82
868.08	19840.72
868.25	19801.81
868.43	19824.34
868.60	19760.85
868.78	19564.25
868.95	19793.62
869.12	19609.30
869.30	19457.75
869.47	19785.43
869.64	19433.18
869.82	19660.50
869.99	19388.12
870.16	19439.32
870.34	19394.26
870.51	19422.94
870.69	19302.11
870.86	19447.51
871.03	19220.19
871.21	19238.62
871.38	19064.54
871.55	19107.55
871.73	19017.44
871.90	19158.75
872.07	18937.57
872.25	18743.01
872.42	18601.70
872.59	18679.52
872.77	18783.97
872.94	18872.03
873.11	18884.32
873.29	18943.71
873.46	18779.87
873.63	18677.48
873.81	18980.57
873.98	18575.08
874.15	18679.52
874.33	18540.26
874.50	18378.47
874.67	18509.54
874.85	18540.26
875.02	18280.17
875.19	18355.94
875.37	18292.46
875.54	18259.69
875.71	18142.96
875.88	17917.68
876.06	18208.49
876.23	17680.11
876.40	18042.60
876.58	18020.08
876.75	18145.00
876.92	17907.44
877.10	17897.20
877.27	17825.52
877.44	17635.06
877.61	17856.24
877.79	17993.45
877.96	17743.60
878.13	17567.48
878.31	17458.93
878.48	17850.10
878.65	17544.95
878.82	17297.14
879.00	17532.66
879.17	17413.88
879.34	17585.91
879.51	17334.01
879.69	17288.95
879.86	17100.54
880.03	17053.44
880.21	17321.72
880.38	17186.55
880.55	17526.52
880.72	17157.88
880.90	17284.86
881.07	17022.72
881.24	17000.19
881.41	17024.76
881.59	17114.87
881.76	17299.19
881.93	17043.20
882.10	16785.15
882.28	16725.76
882.45	17024.76
882.62	16828.16
882.79	16930.56
882.96	16596.74
883.14	16824.06
883.31	16869.12
883.48	16787.20
883.65	16815.87
883.83	16639.75
884.00	16701.19
884.17	17024.76
884.34	16795.39
884.51	16838.40
884.69	16703.23
884.86	16649.99
885.03	16686.85
885.20	16602.88
885.38	16566.02
885.55	16500.48
885.72	16561.92
885.89	16338.69
886.06	16576.26
886.24	16529.16
886.41	16477.96
886.58	16695.04
886.75	16654.08
886.92	16211.72
887.10	16754.43
887.27	16232.20
887.44	16346.89
887.61	16635.65
887.78	16400.13
887.95	16488.20
888.13	16209.67
888.30	16045.84
888.47	16248.58
888.64	16119.56
888.81	16107.27
888.99	16062.22
889.16	15830.80
889.33	15826.70
889.50	15900.43
889.67	15963.92
889.84	16039.69
890.01	15943.44
890.19	15822.61
890.36	15738.64
890.53	15531.80
890.70	15564.56
890.87	15871.76
891.04	15492.88
891.22	15591.19
891.39	15652.63
891.56	15650.58
891.73	15652.63
891.90	15689.49
892.07	15400.72
892.24	15630.10
892.42	15527.70
892.59	15437.59
892.76	15374.10
892.93	15548.18
893.10	15351.57
893.27	15324.95
893.44	15349.53
893.61	15116.06
893.79	15640.34
893.96	15238.94
894.13	15232.79
894.30	15327.00
894.47	15367.96
894.64	15531.80
894.81	15398.68
894.98	15271.70
895.15	15236.89
895.33	15073.05
895.50	15265.56
895.67	15365.91
895.84	15351.57
896.01	15167.26
896.18	14925.60
896.35	15396.63
896.52	15245.08
896.69	14946.08
896.86	15200.02
897.04	15193.88
897.21	15437.59
897.38	15081.24
897.55	15251.22
897.72	15042.33
897.89	15177.50
898.06	15216.41
898.23	15136.54
898.40	15177.50
898.57	15261.46
898.74	15243.03
898.91	14976.80
899.08	15075.10
899.26	15165.21
899.43	15222.55
899.60	14911.26
899.77	15005.47
899.94	14911.26
900.11	15068.95
900.28	14993.18
900.45	14866.21
900.62	15060.76
900.79	15253.27
900.96	15228.70
901.13	15093.53
901.30	14937.88
901.47	14950.17
901.64	15032.09
901.81	15087.39
901.98	14939.93
902.15	15124.25
902.32	14915.36
902.49	14991.13
902.66	14980.89
902.83	15032.09
903.01	14950.17
903.18	15197.98
903.35	15027.99
903.52	15077.15
903.69	15247.13
903.86	15191.83
904.03	14884.64
904.20	15032.09
904.37	15216.41
904.54	15085.34
904.71	14946.08
904.88	14968.60
905.05	14774.05
905.22	15021.85
905.39	14714.66
905.56	14886.68
905.73	14909.21
905.90	14919.45
906.07	15101.72
906.24	14739.23
906.41	14827.29
906.58	15175.45
906.75	15034.14
906.92	14681.89
907.09	14827.29
907.26	14941.98
907.43	14718.75
907.60	14933.79
907.77	14761.76
907.93	14950.17
908.10	14948.12
908.27	14815.01
908.44	14827.29
908.61	14874.40
908.78	15013.66
908.95	14903.07
909.12	14831.39
909.29	14835.49
909.46	14665.50
909.63	14980.89
909.80	14667.55
909.97	14661.41
910.14	14796.57
910.31	14839.58
910.48	14753.57
910.65	14683.94
910.82	14720.80
910.99	14599.97
911.16	14708.51
911.33	14692.13
911.50	14634.78
911.66	14425.89
911.83	14614.30
912.00	14602.02
912.17	14335.78
912.34	14532.39
912.51	14614.30
912.68	14450.47
912.85	14516.00
913.02	14456.61
913.19	14141.22
913.36	14544.67
913.53	14470.95
913.70	14520.10
913.86	14446.37
914.03	14282.53
914.20	14413.60
914.37	14235.43
914.54	14161.70
914.71	14120.74
914.88	14458.66
915.05	14073.64
915.22	14049.07
915.39	14413.60
915.55	13995.82
915.72	13823.79
915.89	13930.28
916.06	13877.04
916.23	13788.97
916.40	13813.55
916.57	13965.10
916.74	13766.45
916.91	13705.01
917.07	13623.09
917.24	13614.90
917.41	13467.44
917.58	13827.88
917.75	13768.49
917.92	13422.39
918.09	13645.62
918.26	13639.47
918.42	13432.63
918.59	13422.39
918.76	13430.58
918.93	13453.11
919.10	13170.49
919.27	13297.46
919.44	13324.08
919.60	13352.76
919.77	13223.73
919.94	13039.42
920.11	13209.40
920.28	13152.06
920.45	13180.73
920.61	12838.72
920.78	13092.66
920.95	12898.11
921.12	12955.45
921.29	12797.76
921.46	12562.24
921.62	12685.12
921.79	12855.10
921.96	12805.95
922.13	12689.21
922.30	12572.48
922.47	12578.62
922.63	12398.40
922.80	12441.41
922.97	12334.92
923.14	12191.56
923.31	12492.61
923.47	12123.98
923.64	12564.29
923.81	12222.28
923.98	12066.63
924.15	11853.64
924.32	12027.72
924.48	12164.93
924.65	12269.38
924.82	11929.42
924.99	11698.00
925.15	11947.85
925.32	11988.81
925.49	11665.23
925.66	11616.08
925.83	11650.89
925.99	11648.85
926.16	11501.39
926.33	11476.82
926.50	11489.10
926.67	11523.92
926.83	11388.75
927.00	11394.90
927.17	11317.08
927.34	11267.92
927.50	11265.88
927.67	11216.72
927.84	11239.25
928.01	11099.99
928.17	11102.04
928.34	11112.28
928.51	11026.26
928.68	10854.23
928.84	10915.67
929.01	10925.91
929.18	10661.73
929.35	10778.46
929.51	10854.23
929.68	10790.75
929.85	10467.17
930.02	10485.60
930.18	10641.25
930.35	10495.84
930.52	10327.91
930.69	10461.02
930.85	10327.91
931.02	10301.28
931.19	10317.67
931.36	10276.71
931.52	10266.47
931.69	10184.55
931.86	10172.26
932.02	10076.01
932.19	9858.92
932.36	10035.05
932.53	9914.22
932.69	9805.67
932.86	10014.57
933.03	9627.50
933.19	9580.40
933.36	9813.87
933.53	9707.37
933.70	9447.28
933.86	9650.03
934.03	9543.53
934.20	9420.66
934.36	9254.77
934.53	9148.28
934.70	9140.08
934.86	9064.31
935.03	9246.58
935.20	9025.40
935.36	9097.08
935.53	8834.94
935.70	9041.78
935.86	8798.07
936.03	8830.84
936.20	8681.34
936.36	8816.51
936.53	8529.79
936.70	8556.41
936.86	8486.78
937.03	8347.52
937.20	8220.55
937.36	8298.37
937.53	7796.62
937.70	8058.76
937.86	7925.64
938.03	7849.86
938.20	7950.21
938.36	7714.70
938.53	7593.87
938.70	7464.85
938.86	7470.99
939.03	7356.30
939.20	7372.69
939.36	7313.30
939.53	7229.33
939.70	7247.76
939.86	6971.29
940.03	6815.64
940.19	6907.80
940.36	6682.52
940.53	6625.18
940.69	6547.36
940.86	6496.16
941.03	6674.33
941.19	6434.72
941.36	6291.36
941.52	6297.50
941.69	6285.22
941.86	6188.96
942.02	6178.72
942.19	6100.90
942.35	6076.32
942.52	6162.34
942.69	5982.12
942.85	5803.94
943.02	5869.48
943.18	5826.47
943.35	6037.41
943.52	5746.60
943.68	5621.67
943.85	5638.06
944.01	5846.95
944.18	5590.95
944.35	5752.74
944.51	5545.90
944.68	5457.84
944.84	5502.89
945.01	5474.22
945.17	5541.80
945.34	5367.73
945.51	5496.75
945.67	5435.31
945.84	5330.86
946.00	5306.29
946.17	5357.49
946.33	5375.92
946.50	5427.12
946.67	5429.17
946.83	5279.66
947.00	5402.54
947.16	5400.49
947.33	5355.44
947.49	5244.85
947.66	5384.11
947.82	5345.20
947.99	5326.77
948.16	5347.25
948.32	5250.99
948.49	5357.49
948.65	5390.25
948.82	5339.05
948.98	5310.38
949.15	5283.76
949.31	5279.66
949.48	5347.25
949.64	5224.37
949.81	5355.44
949.97	5318.57
950.14	5291.95
950.30	5230.51
950.47	5355.44
950.63	5248.94
950.80	5291.95
950.96	5246.90
951.13	5386.16
951.30	5373.87
951.46	5320.62
951.63	5441.45
951.79	5449.64
951.96	5586.86
952.12	5314.48
952.29	5337.01
952.45	5275.57
952.62	5470.12
952.78	5410.73
952.94	5400.49
953.11	5371.82
953.27	5269.42
953.44	5443.50
953.60	5427.12
953.77	5492.65
953.93	5478.32
954.10	5445.55
954.26	5474.22
954.43	5525.42
954.59	5480.36
954.76	5558.19
954.92	5595.05
955.09	5435.31
955.25	5468.08
955.42	5597.10
955.58	5623.72
955.75	5435.31
955.91	5459.88
956.07	5550.00
956.24	5500.84
956.40	5529.52
956.57	5558.19
956.73	5283.76
956.90	5539.76
957.06	5367.73
957.23	5525.42
957.39	5355.44
957.56	5535.66
957.72	5285.81
957.88	5550.00
958.05	5474.22
958.21	5584.81
958.38	5410.73
958.54	5541.80
958.71	5615.53
958.87	5578.67
959.03	5515.18
959.20	5601.19
959.36	5463.98
959.53	5572.52
959.69	5447.60
959.85	5513.13
960.02	5562.28
960.18	5552.04
960.35	5361.58
960.51	5615.53
960.68	5367.73
960.84	5449.64
961.00	5298.10
961.17	5511.08
961.33	5504.94
961.50	5629.87
961.66	5375.92
961.82	5447.60
961.99	5486.51
962.15	5425.07
962.31	5599.15
962.48	5418.93
962.64	5500.84
962.81	5496.75
962.97	5408.69
963.13	5463.98
963.30	5412.78
963.46	5453.74
963.62	5351.34
963.79	5461.93
963.95	5326.77
964.12	5445.55
964.28	5394.35
964.44	5322.67
964.61	5386.16
964.77	5498.80
964.93	5568.43
965.10	5441.45
965.26	5240.75
965.42	5349.29
965.59	5214.13
965.75	5400.49
965.92	5412.78
966.08	5490.60
966.24	5390.25
966.41	5361.58
966.57	5351.34
966.73	5197.74
966.90	5377.97
967.06	5283.76
967.22	5349.29
967.39	5324.72
967.55	5291.95
967.71	5179.31
967.88	5242.80
968.04	5312.43
968.20	5156.79
968.37	5273.52
968.53	5185.46
968.69	5068.72
968.85	5154.74
969.02	5279.66
969.18	5320.62
969.34	5261.23
969.51	5316.53
969.67	5156.79
969.83	5046.20
970.00	5197.74
970.16	5138.35
970.32	5205.94
970.48	5179.31
970.65	5060.53
970.81	5101.49
970.97	5048.24
971.14	5160.88
971.30	5119.92
971.46	5062.58
971.63	5040.05
971.79	5087.15
971.95	5005.24
972.11	4904.89
972.28	4982.71
972.44	5056.43
972.60	4847.54
972.76	4882.36
972.93	4999.09
973.09	5005.24
973.25	5111.73
973.42	4898.74
973.58	4992.95
973.74	4974.52
973.90	5011.38
974.07	4843.45
974.23	4863.93
974.39	4941.75
974.55	4845.49
974.72	4835.25
974.88	4771.77
975.04	4995.00
975.20	4859.83
975.37	4816.82
975.53	4831.16
975.69	4849.59
975.85	4792.25
976.01	4695.99
976.18	4749.24
976.34	4820.92
976.50	4773.82
976.66	4845.49
976.83	4718.52
976.99	4816.82
977.15	4739.00
977.31	4636.60
977.47	4847.54
977.64	4829.11
977.80	4636.60
977.96	4720.57
978.12	4667.32
978.29	4720.57
978.45	4603.83
978.61	4650.94
978.77	4743.10
978.93	4620.22
979.10	4560.83
979.26	4634.55
979.42	4534.20
979.58	4448.19
979.74	4507.58
979.91	4554.68
980.07	4392.89
980.23	4689.85
980.39	4472.76
980.55	4491.20
980.71	4337.60
980.88	4353.98
981.04	4491.20
981.20	4386.75
981.36	4390.84
981.52	4593.59
981.68	4280.25
981.85	4440.00
982.01	4394.94
982.17	4339.65
982.33	4460.48
982.49	4456.38
982.65	4444.09
982.82	4308.93
982.98	4366.27
983.14	4337.60
983.30	4274.11
983.46	4450.24
983.62	4392.89
983.79	4302.78
983.95	4390.84
984.11	4136.90
984.27	4270.01
984.43	4173.76
984.59	4347.84
984.75	4278.21
984.91	4216.77
985.08	4345.79
985.24	4114.37
985.40	4067.27
985.56	4173.76
985.72	4296.64
985.88	4263.87
986.04	4057.03
986.20	4057.03
986.37	4110.27
986.53	4085.70
986.69	4126.66
986.85	4122.56
987.01	4171.71
987.17	4032.45
987.33	4009.92
987.49	4134.85
987.65	4143.04
987.82	4136.90
987.98	4020.16
988.14	3977.16
988.30	4065.22
988.46	4143.04
988.62	4018.11
988.78	4024.26
988.94	4061.12
989.10	3878.85
989.26	3854.28
989.42	3973.06
989.59	3786.69
989.75	3913.67
989.91	3903.43
990.07	3796.93
990.23	3909.57
990.39	3819.46
990.55	3960.77
990.71	3745.73
990.87	3968.96
991.03	3839.94
991.19	3864.52
991.35	3882.95
991.51	3755.97
991.67	3913.67
991.83	3651.53
992.00	3837.89
992.16	3741.64
992.32	3831.75
992.48	3747.78
992.64	3637.19
992.80	3659.72
992.96	3690.44
993.12	3747.78
993.28	3639.24
993.44	3690.44
993.60	3678.15
993.76	3631.05
993.92	3631.05
994.08	3723.21
994.24	3665.86
994.40	3637.19
994.56	3680.20
994.72	3614.66
994.88	3706.82
995.04	3508.17
995.20	3532.75
995.36	3487.69
995.52	3665.86
995.68	3565.51
995.84	3553.23
996.00	3616.71
996.16	3581.90
996.32	3465.16
996.48	3340.24
996.64	3686.34
996.80	3485.64
996.96	3489.74
997.12	3475.40
997.28	3495.88
997.44	3461.07
997.60	3545.03
997.76	3436.49
997.92	3454.92
998.08	3399.63
998.24	3227.60
998.40	3452.88
998.56	3526.60
998.72	3319.76
998.88	3420.11
999.04	3370.96
999.20	3450.83
999.36	3305.42
999.52	3391.44
999.68	3401.68
999.84	3366.86
1000.00	3272.65
1000.16	3377.10
1000.32	3182.54
1000.48	3393.48
1000.64	3200.98
1000.80	3213.26
1000.95	3252.17
1001.11	3248.08
1001.27	3178.45
1001.43	3264.46
1001.59	3190.74
1001.75	3147.73
1001.91	3256.27
1002.07	3252.17
1002.23	3211.22
1002.39	3264.46
1002.55	3110.86
1002.71	3137.49
1002.87	3166.16
1003.03	3057.62
1003.19	3069.91
1003.34	3125.20
1003.50	3080.14
1003.66	3182.54
1003.82	3166.16
1003.98	3102.67
1004.14	3030.99
1004.30	3082.19
1004.46	3098.58
1004.62	3035.09
1004.78	3026.90
1004.94	3030.99
1005.09	3010.51
1005.25	3082.19
1005.41	3092.43
1005.57	2951.12
1005.73	3051.47
1005.89	3026.90
1006.05	2977.75
1006.21	3080.14
1006.37	2979.79
1006.52	2967.51
1006.68	2977.75
1006.84	3129.30
1007.00	2836.44
1007.16	3053.52
1007.32	2910.16
1007.48	2887.64
1007.64	2834.39
1007.79	2875.35
1007.95	2910.16
1008.11	3004.37
1008.27	2965.46
1008.43	2998.23
1008.59	2842.58
1008.75	2904.02
1008.91	2930.64
1009.06	2822.10
1009.22	2811.86
1009.38	2750.42
1009.54	2858.96
1009.70	2803.67
1009.86	2893.78
1010.01	2858.96
1010.17	2742.23
1010.33	2922.45
1010.49	2871.25
1010.65	2793.43
1010.81	2809.81
1010.96	2922.45
1011.12	2777.05
1011.28	2693.08
1011.44	2856.92
1011.60	2641.88
1011.76	2709.46
1011.91	2772.95
1012.07	2723.80
1012.23	2684.89
1012.39	2676.70
1012.55	2752.47
1012.71	2617.30
1012.86	2600.92
1013.02	2572.25
1013.18	2637.78
1013.34	2590.68
1013.50	2633.69
1013.65	2654.17
1013.81	2592.73
1013.97	2648.02
1014.13	2654.17
1014.29	2566.10
1014.44	2777.05
1014.60	2650.07
1014.76	2650.07
1014.92	2570.20
1015.07	2678.74
1015.23	2609.11
1015.39	2580.44
1015.55	2529.24
1015.71	2584.54
1015.86	2516.95
1016.02	2549.72
1016.18	2465.75
1016.34	2449.37
1016.49	2432.99
1016.65	2547.67
1016.81	2551.77
1016.97	2480.09
1017.12	2459.61
1017.28	2424.80
1017.44	2353.12
1017.60	2428.89
1017.75	2531.29
1017.91	2514.91
1018.07	2516.95
1018.23	2590.68
1018.38	2445.27
1018.54	2480.09
1018.70	2469.85
1018.86	2451.42
1019.01	2432.99
1019.17	2404.32
1019.33	2465.75
1019.49	2500.57
1019.64	2408.41
1019.80	2359.26
1019.96	2369.50
1020.12	2375.64
1020.27	2314.20
1020.43	2357.21
1020.59	2349.02
1020.74	2357.21
1020.90	2449.37
1021.06	2303.96
1021.22	2371.55
1021.37	2389.98
1021.53	2353.12
1021.69	2326.49
1021.84	2256.86
1022.00	2287.58
1022.16	2314.20
1022.31	2379.74
1022.47	2365.40
1022.63	2369.50
1022.79	2299.87
1022.94	2306.01
1023.10	2387.93
1023.26	2283.49
1023.41	2295.77
1023.57	2338.78
1023.73	2349.02
1023.88	2322.40
1024.04	2195.42
1024.20	2295.77
1024.35	2303.96
1024.51	2256.86
1024.67	2258.91
1024.82	2318.30
1024.98	2224.09
1025.14	2234.33
1025.29	2252.77
1025.45	2293.72
1025.61	2164.70
1025.76	2220.00
1025.92	2195.42
1026.08	2199.52
1026.23	2240.48
1026.39	2220.00
1026.55	2217.95
1026.70	2195.42
1026.86	2273.25
1027.02	2283.49
1027.17	2197.47
1027.33	2142.18
1027.48	2213.85
1027.64	2136.03
1027.80	2088.93
1027.95	2152.42
1028.11	2131.94
1028.27	2287.58
1028.42	2213.85
1028.58	2160.61
1028.73	2199.52
1028.89	2181.09
1029.05	2207.71
1029.20	2140.13
>>>>>End Processed Spectral Data<<<<<
