SpectraSuite Data File
++++++++++++++++++++++++++++++++++++
Date: Fri Jun 02 14:57:19 CEST 2017
User: INFO_000
Dark Spectrum Present: No
Reference Spectrum Present: No
Number of Sampled Component Spectra: 1
Spectrometers: USB4H00879
Integration Time (usec): 80000 (USB4H00879)
Spectra Averaged: 1 (USB4H00879)
Boxcar Smoothing: 0 (USB4H00879)
Correct for Electrical Dark: No (USB4H00879)
Strobe/Lamp Enabled: No (USB4H00879)
Correct for Detector Non-linearity: No (USB4H00879)
Correct for Stray Light: No (USB4H00879)
Number of Pixels in Processed Spectrum: 3648
>>>>>Begin Processed Spectral Data<<<<<
345.13	1343.47
345.34	1343.47
345.56	1343.47
345.78	1267.69
345.99	1265.64
346.21	1798.12
346.42	1732.58
346.64	1722.34
346.86	1712.10
347.07	1642.47
347.29	1767.40
347.50	1619.94
347.72	1658.85
347.94	1779.68
348.15	1609.70
348.37	1652.71
348.59	1695.72
348.80	1632.23
349.02	1744.87
349.23	1925.09
349.45	1841.12
349.67	1912.80
349.88	1802.21
350.10	1964.00
350.31	1808.36
350.53	1843.17
350.75	2035.68
350.96	1734.63
351.18	1873.89
351.39	1869.80
351.61	1779.68
351.82	1953.76
352.04	1908.71
352.26	1834.98
352.47	1882.08
352.69	1906.66
352.90	1726.44
353.12	1837.03
353.34	1800.16
353.55	1972.19
353.77	1871.84
353.98	1798.12
354.20	1824.74
354.41	1857.51
354.63	1925.09
354.85	2058.21
355.06	1966.05
355.28	1789.92
355.49	1896.42
355.71	1947.62
355.92	1773.54
356.14	1976.29
356.35	1847.27
356.57	1884.13
356.79	1929.19
357.00	1798.12
357.22	2017.25
357.43	1839.08
357.65	1947.62
357.86	1769.44
358.08	1888.23
358.29	1892.32
358.51	2056.16
358.72	2039.78
358.94	1914.85
359.16	1920.99
359.37	1912.80
359.59	1933.28
359.80	1974.24
360.02	1990.63
360.23	2004.96
360.45	1974.24
360.66	1953.76
360.88	1906.66
361.09	1859.56
361.31	2015.20
361.52	1992.67
361.74	2105.31
361.95	2072.54
362.17	2019.30
362.38	2113.50
362.60	2050.02
362.81	2002.91
363.03	1978.34
363.24	1992.67
363.46	2004.96
363.67	2097.12
363.89	1943.52
364.10	1988.58
364.32	1984.48
364.53	2021.35
364.75	1933.28
364.96	2062.30
365.18	1964.00
365.39	2013.15
365.61	1955.81
365.82	2109.41
366.04	2062.30
366.25	1935.33
366.47	1992.67
366.68	2007.01
366.90	2011.11
367.11	2097.12
367.33	2095.07
367.54	2064.35
367.76	2035.68
367.97	2064.35
368.19	2029.54
368.40	2037.73
368.62	2029.54
368.83	1943.52
369.05	2113.50
369.26	1974.24
369.48	2007.01
369.69	2021.35
369.91	2033.63
370.12	2002.91
370.33	2170.85
370.55	2007.01
370.76	2037.73
370.98	2158.56
371.19	1988.58
371.41	1968.10
371.62	2070.50
371.84	2047.97
372.05	2166.75
372.27	2066.40
372.48	2039.78
372.69	2107.36
372.91	2162.66
373.12	2119.65
373.34	2019.30
373.55	2050.02
373.77	2176.99
373.98	2082.78
374.20	2131.94
374.41	2230.24
374.62	2140.13
374.84	2144.22
375.05	2205.66
375.27	2133.98
375.48	2197.47
375.70	2125.79
375.91	2191.33
376.12	2287.58
376.34	2179.04
376.55	2183.13
376.77	2215.90
376.98	2095.07
377.19	2117.60
377.41	2146.27
377.62	2191.33
377.84	2293.72
378.05	2289.63
378.27	2181.09
378.48	2285.53
378.69	2430.94
378.91	2320.35
379.12	2236.38
379.34	2240.48
379.55	2303.96
379.76	2236.38
379.98	2277.34
380.19	2238.43
380.41	2217.95
380.62	2310.11
380.83	2303.96
381.05	2138.08
381.26	2451.42
381.47	2269.15
381.69	2258.91
381.90	2328.54
382.12	2287.58
382.33	2236.38
382.54	2308.06
382.76	2299.87
382.97	2269.15
383.19	2297.82
383.40	2422.75
383.61	2306.01
383.83	2164.70
384.04	2326.49
384.25	2320.35
384.47	2357.21
384.68	2365.40
384.89	2222.05
385.11	2299.87
385.32	2353.12
385.54	2375.64
385.75	2351.07
385.96	2373.60
386.18	2424.80
386.39	2394.08
386.60	2330.59
386.82	2467.80
387.03	2453.47
387.24	2424.80
387.46	2443.23
387.67	2488.28
387.88	2617.30
388.10	2502.62
388.31	2478.04
388.52	2516.95
388.74	2555.86
388.95	2541.53
389.16	2590.68
389.38	2469.85
389.59	2594.78
389.80	2625.50
390.02	2459.61
390.23	2707.41
390.44	2586.58
390.66	2580.44
390.87	2416.60
391.08	2594.78
391.30	2768.85
391.51	2605.02
391.72	2660.31
391.94	2762.71
392.15	2592.73
392.36	2607.06
392.58	2617.30
392.79	2719.70
393.00	2639.83
393.22	2699.22
393.43	2721.75
393.64	2764.76
393.85	2711.51
394.07	2709.46
394.28	2781.14
394.49	2725.85
394.71	2752.47
394.92	2781.14
395.13	2699.22
395.35	2711.51
395.56	2656.22
395.77	2803.67
395.98	2832.34
396.20	2842.58
396.41	2770.90
396.62	2844.63
396.84	2723.80
397.05	2805.72
397.26	2930.64
397.47	2924.50
397.69	2787.29
397.90	3117.01
398.11	2936.79
398.32	2914.26
398.54	2987.99
398.75	2818.00
398.96	2977.75
399.18	3106.77
399.39	2963.41
399.60	3002.32
399.81	2961.36
400.03	3061.71
400.24	3317.71
400.45	3006.42
400.66	3053.52
400.88	3016.66
401.09	3192.78
401.30	3061.71
401.51	3174.35
401.73	3213.26
401.94	3135.44
402.15	3229.65
402.36	3151.82
402.58	3092.43
402.79	3157.97
403.00	3133.39
403.21	3248.08
403.43	3184.59
403.64	3321.81
403.85	3184.59
404.06	3221.45
404.27	3096.53
404.49	3157.97
404.70	3248.08
404.91	3360.72
405.12	3256.27
405.34	3213.26
405.55	3340.24
405.76	3276.75
405.97	3250.13
406.19	3387.34
406.40	3211.22
406.61	3362.76
406.82	3389.39
407.03	3268.56
407.25	3303.37
407.46	3426.25
407.67	3426.25
407.88	3469.26
408.09	3362.76
408.31	3493.83
408.52	3381.20
408.73	3434.44
408.94	3289.04
409.15	3403.72
409.37	3461.07
409.58	3430.35
409.79	3631.05
410.00	3633.10
410.21	3403.72
410.43	3481.55
410.64	3444.68
410.85	3534.79
411.06	3479.50
411.27	3596.23
411.48	3749.83
411.70	3522.51
411.91	3649.48
412.12	3692.49
412.33	3598.28
412.54	3461.07
412.76	3663.82
412.97	3694.54
413.18	3516.36
413.39	3641.29
413.60	3790.79
413.81	3639.24
414.03	3665.86
414.24	3590.09
414.45	3905.48
414.66	3602.38
414.87	3770.31
415.08	3727.30
415.30	3706.82
415.51	3776.45
415.72	3801.03
415.93	3819.46
416.14	3823.56
416.35	3839.94
416.56	3827.65
416.78	3889.09
416.99	3833.80
417.20	3819.46
417.41	3872.71
417.62	3862.47
417.83	4032.45
418.04	3975.11
418.26	4038.59
418.47	3919.81
418.68	3942.34
418.89	3940.29
419.10	4163.52
419.31	3948.48
419.52	4020.16
419.73	4018.11
419.95	4028.35
420.16	4009.92
420.37	4054.98
420.58	4054.98
420.79	4011.97
421.00	4071.36
421.21	4085.70
421.42	3954.63
421.63	4104.13
421.85	4081.60
422.06	4124.61
422.27	4155.33
422.48	4081.60
422.69	4188.10
422.90	4159.42
423.11	4259.78
423.32	4249.54
423.53	4327.36
423.75	4214.72
423.96	4388.80
424.17	4415.42
424.38	4466.62
424.59	4390.84
424.80	4632.51
425.01	4362.17
425.22	4315.07
425.43	4392.89
425.64	4597.69
425.85	4632.51
426.06	4388.80
426.28	4622.27
426.49	4464.57
426.70	4562.87
426.91	4564.92
427.12	4702.14
427.33	4622.27
427.54	4630.46
427.75	4689.85
427.96	4853.69
428.17	4659.13
428.38	4755.38
428.59	4765.62
428.80	4704.18
429.01	4747.19
429.23	4898.74
429.44	4915.12
429.65	4835.25
429.86	4804.53
430.07	4882.36
430.28	4734.90
430.49	4906.93
430.70	5105.59
430.91	5003.19
431.12	4771.77
431.33	4947.89
431.54	5228.46
431.75	4992.95
431.96	4927.41
432.17	5115.83
432.38	5179.31
432.59	5416.88
432.80	5314.48
433.01	5171.12
433.22	5271.47
433.43	5207.98
433.64	5201.84
433.85	5210.03
434.06	5429.17
434.27	5396.40
434.49	5275.57
434.70	5392.30
434.91	5275.57
435.12	5439.40
435.33	5400.49
435.54	5447.60
435.75	5332.91
435.96	5566.38
436.17	5443.50
436.38	5537.71
436.59	5554.09
436.80	5500.84
437.01	5662.63
437.22	5640.11
437.43	5529.52
437.64	5277.62
437.85	5740.46
438.06	5689.26
438.27	5574.57
438.48	5728.17
438.69	5615.53
438.90	5730.22
439.11	5552.04
439.32	5765.03
439.53	5777.32
439.74	5924.77
439.95	5859.24
440.16	5951.40
440.37	5736.36
440.57	5683.11
440.78	5957.54
440.99	6008.74
441.20	5889.96
441.41	5865.38
441.62	5869.48
441.83	5775.27
442.04	6033.32
442.25	5947.30
442.46	6104.99
442.67	6070.18
442.88	6461.34
443.09	6027.17
443.30	6174.63
443.51	6137.76
443.72	6385.57
443.93	6115.23
444.14	6440.86
444.35	6059.94
444.56	6289.31
444.77	6332.32
444.98	6285.22
445.19	6389.66
445.40	6227.87
445.61	6481.82
445.81	6363.04
446.02	6469.53
446.23	6422.43
446.44	6332.32
446.65	6530.97
446.86	6492.06
447.07	6565.79
447.28	6713.24
447.49	6659.99
447.70	6576.03
447.91	6551.45
448.12	6627.23
448.33	6705.05
448.54	6592.41
448.74	6641.56
448.95	6653.85
449.16	6522.78
449.37	7038.87
449.58	6752.15
449.79	7061.40
450.00	6487.96
450.21	6909.85
450.42	7081.88
450.63	6924.18
450.84	7022.48
451.05	7014.29
451.25	7024.53
451.46	6901.65
451.67	7065.49
451.88	7151.51
452.09	6991.77
452.30	7038.87
452.51	7139.22
452.72	7401.36
452.93	7624.59
453.13	7180.18
453.34	7106.45
453.55	7415.69
453.76	7329.68
453.97	7597.96
454.18	7423.89
454.39	7677.83
454.60	7569.29
454.81	7565.20
455.01	7677.83
455.22	7356.30
455.43	7706.51
455.64	7739.27
455.85	7808.90
456.06	8011.65
456.27	7837.58
456.48	7772.04
456.68	7978.89
456.89	7948.17
457.10	8040.33
457.31	7868.30
457.52	7978.89
457.73	8134.53
457.94	8337.28
458.14	8071.04
458.35	8388.48
458.56	8353.66
458.77	8142.72
458.98	8318.85
459.19	8302.47
459.39	8597.37
459.60	8533.89
459.81	8466.30
460.02	8654.72
460.23	8529.79
460.44	8591.23
460.65	8873.85
460.85	8714.11
461.06	8777.59
461.27	8636.28
461.48	8978.30
461.69	8945.53
461.89	8742.78
462.10	8869.75
462.31	8812.41
462.52	9047.93
462.73	8961.91
462.94	9195.38
463.14	9078.65
463.35	9011.06
463.56	9590.64
463.77	9455.47
463.98	9156.47
464.18	9129.84
464.39	9635.69
464.60	9672.56
464.81	9709.42
465.02	9547.63
465.23	9791.34
465.43	9576.30
465.64	9998.18
465.85	9797.48
466.06	9568.11
466.27	10121.06
466.47	10078.05
466.68	10033.00
466.89	10047.33
467.10	10207.08
467.30	9932.65
467.51	10424.16
467.72	10497.89
467.93	10016.62
468.14	10260.32
468.34	10649.44
468.55	10452.83
468.76	10360.67
468.97	10633.05
469.17	10788.70
469.38	10829.66
469.59	10882.91
469.80	10841.95
470.01	10712.92
470.21	10788.70
470.42	11177.81
470.63	11353.94
470.84	11001.69
471.04	11329.36
471.25	11308.88
471.46	11251.54
471.67	11786.06
471.87	11650.89
472.08	11454.29
472.29	11888.46
472.50	11462.48
472.70	11849.55
472.91	11923.27
473.12	11855.69
473.33	12199.75
473.53	12205.89
473.74	12009.29
473.95	12414.79
474.16	12412.74
474.36	12527.42
474.57	12633.92
474.78	12808.00
474.99	12771.13
475.19	12601.15
475.40	12932.92
475.61	12971.83
475.81	12998.46
476.02	13152.06
476.23	13160.25
476.44	13115.19
476.64	13545.27
476.85	13526.83
477.06	13688.62
477.27	13688.62
477.47	13823.79
477.68	13676.34
477.89	14016.30
478.09	13950.76
478.30	14047.02
478.51	13985.58
478.71	14282.53
478.92	14196.52
479.13	14602.02
479.34	14780.19
479.54	14348.07
479.75	14806.81
479.96	14698.27
480.16	14714.66
480.37	14812.96
480.58	15013.66
480.78	15273.75
480.99	15365.91
481.20	15345.43
481.41	15591.19
481.61	15470.36
481.82	15589.14
482.03	15714.06
482.23	15552.27
482.44	15986.44
482.65	16146.19
482.85	16011.02
483.06	15949.58
483.27	16273.16
483.47	16193.29
483.68	16254.73
483.89	16555.78
484.09	16455.43
484.30	16631.55
484.51	16752.38
484.71	16846.59
484.92	16750.34
485.13	16944.89
485.33	17041.15
485.54	16998.14
485.75	17227.51
485.95	17082.11
486.16	17626.87
486.37	17395.45
486.57	17698.55
486.78	17479.41
486.98	17626.87
487.19	17880.82
487.40	17841.90
487.60	17854.19
487.81	18136.81
488.02	17852.14
488.22	17964.78
488.43	18274.03
488.64	18599.65
488.84	18499.30
489.05	18865.89
489.25	18581.22
489.46	18654.95
489.67	18700.00
489.87	18994.91
490.08	19107.55
490.29	19052.25
490.49	19609.30
490.70	19269.34
490.90	19250.91
491.11	19291.87
491.32	19523.29
491.52	19572.44
491.73	19773.14
491.94	19848.91
492.14	19648.21
492.35	19961.55
492.55	20381.38
492.76	19977.94
492.97	20483.78
493.17	20129.48
493.38	20418.25
493.58	20524.74
493.79	20825.79
494.00	20655.81
494.20	20782.79
494.41	20854.47
494.61	21051.07
494.82	20891.33
495.02	20975.30
495.23	20985.54
495.44	21108.41
495.64	21401.27
495.85	21477.05
496.05	21372.60
496.26	21321.40
496.47	21876.40
496.67	21362.36
496.88	22101.68
497.08	21681.85
497.29	21997.23
497.49	22130.35
497.70	21995.18
497.91	22085.30
498.11	22267.56
498.32	22058.67
498.52	22560.42
498.73	22728.36
498.93	22361.77
499.14	22591.14
499.34	22693.54
499.55	22953.63
499.76	23031.46
499.96	22628.01
500.17	22990.50
500.37	23033.50
500.58	23000.74
500.78	23131.81
500.99	22888.10
501.19	23441.05
501.40	23828.12
501.60	23158.43
501.81	23492.25
502.02	23469.72
502.22	23490.20
502.43	23705.24
502.63	23955.09
502.84	23928.47
503.04	23832.21
503.25	24014.48
503.45	24260.24
503.66	24012.43
503.86	24000.15
504.07	24286.86
504.27	24485.51
504.48	24528.52
504.68	24594.06
504.89	24802.95
505.09	24606.34
505.30	24555.15
505.50	24809.09
505.71	24680.07
505.91	24954.50
506.12	24874.63
506.32	24852.10
506.53	25091.71
506.73	25142.91
506.94	25306.75
507.14	25036.42
507.35	25306.75
507.55	25194.11
507.76	25271.93
507.96	25372.28
508.17	25507.45
508.37	25403.00
508.58	25390.72
508.78	25740.92
508.99	25755.26
509.19	25867.89
509.40	25501.31
509.60	26035.83
509.81	26218.10
510.01	25941.62
510.22	26105.46
510.42	26039.92
510.63	26140.27
510.83	26150.51
511.04	26412.65
511.24	26340.97
511.44	26205.81
511.65	26238.58
511.85	26500.72
512.06	26320.49
512.26	26523.24
512.47	26510.96
512.67	26654.31
512.88	26664.55
513.08	26451.56
513.29	26879.59
513.49	26938.98
513.69	26959.46
513.90	27049.57
514.10	26816.10
514.31	27090.53
514.51	26986.08
514.72	27154.02
514.92	27477.60
515.13	27113.06
515.33	27151.97
515.53	27250.27
515.74	27250.27
515.94	27831.90
516.15	27528.80
516.35	27422.30
516.56	27782.74
516.76	27772.50
516.96	27559.52
517.17	27922.01
517.37	27809.37
517.58	27956.82
517.78	28028.50
517.99	28081.75
518.19	28444.24
518.39	28221.01
518.60	28376.66
518.80	28405.33
519.01	29058.63
519.21	28503.63
519.41	28368.46
519.62	28769.86
519.82	28812.87
520.03	28681.80
520.23	28632.65
520.43	28671.56
520.64	28874.31
520.84	28851.78
521.05	28876.36
521.25	29204.03
521.45	29310.53
521.66	29326.91
521.86	29288.00
522.07	29326.91
522.27	29482.56
522.47	29412.93
522.68	29613.63
522.88	29437.50
523.08	29771.32
523.29	29740.60
523.49	29707.83
523.70	30252.59
523.90	30092.85
524.10	30185.01
524.31	30342.70
524.51	30248.50
524.71	30520.88
524.92	30500.40
525.12	30393.90
525.33	30946.86
525.53	30903.85
525.73	31006.25
525.94	30944.81
526.14	30864.94
526.34	31059.49
526.55	31174.18
526.75	31206.95
526.95	31292.96
527.16	31243.81
527.36	31307.30
527.56	31399.46
527.77	31927.83
527.97	31659.55
528.17	31792.67
528.38	31956.50
528.58	31796.76
528.78	32476.69
528.99	32132.63
529.19	32300.56
529.39	31755.80
529.60	32439.82
529.80	32288.28
530.00	32402.96
530.21	32683.53
530.41	32642.57
530.61	32689.68
530.82	32880.14
531.02	33064.46
531.22	32880.14
531.43	33222.15
531.63	33177.09
531.83	33330.69
532.04	33758.72
532.24	33478.15
532.44	33648.13
532.64	33877.50
532.85	34108.92
533.05	33971.71
533.25	34332.15
533.46	33820.16
533.66	34393.59
533.86	34389.49
534.07	34741.74
534.27	34239.99
534.47	34600.43
534.67	34907.63
534.88	34653.68
535.08	34764.27
535.28	35218.92
535.49	34985.45
535.69	35306.98
535.89	35270.12
536.09	35204.58
536.30	35673.57
536.50	35796.45
536.70	35841.50
536.91	35696.10
537.11	36066.78
537.31	36113.88
537.51	36136.41
537.72	36048.35
537.92	36160.98
538.12	36503.00
538.32	36136.41
538.53	36486.61
538.73	36244.95
538.93	36529.62
539.13	36369.88
539.34	36613.59
539.54	36648.40
539.74	37033.42
539.94	36877.77
540.15	36720.08
540.35	37199.30
540.55	36851.15
540.75	36988.36
540.96	37217.74
541.16	37359.05
541.36	37285.32
541.56	37539.27
541.77	38073.79
541.97	37946.81
542.17	37774.78
542.37	37866.94
542.58	37760.45
542.78	38323.64
542.98	37963.20
543.18	38270.39
543.38	38282.68
543.59	38460.85
543.79	38399.41
543.99	38360.50
544.19	38731.18
544.40	38501.81
544.60	38557.11
544.80	38792.62
545.00	38866.35
545.20	38927.79
545.41	38778.29
545.61	38643.12
545.81	39298.47
546.01	39275.94
546.21	39132.59
546.42	39234.99
546.62	39083.44
546.82	39337.38
547.02	39593.38
547.22	39720.35
547.43	39470.50
547.63	39804.32
547.83	39890.34
548.03	39765.41
548.23	39744.93
548.44	40045.98
548.64	39878.05
548.84	39925.15
549.04	40127.90
549.24	40574.36
549.45	40525.21
549.65	40412.57
549.85	40361.37
550.05	40355.22
550.25	40418.71
550.45	41051.53
550.66	40748.43
550.86	40639.89
551.06	40744.34
551.26	40844.69
551.46	40777.11
551.66	40801.68
551.87	40904.08
552.07	41563.53
552.27	41264.52
552.47	41162.12
552.67	41072.01
552.87	41104.78
553.07	41360.78
553.28	41614.72
553.48	41682.31
553.68	40979.85
553.88	41727.36
554.08	41375.11
554.28	41600.39
554.48	41559.43
554.69	41786.75
554.89	41854.34
555.09	42034.56
555.29	41180.56
555.49	42194.30
555.69	42069.37
555.89	41844.10
556.10	42116.48
556.30	41727.36
556.50	42300.79
556.70	41598.34
556.90	42374.52
557.10	42386.81
557.30	41844.10
557.50	42429.82
557.70	42407.29
557.91	42618.23
558.11	42374.52
558.31	42677.62
558.51	42227.07
558.71	42519.93
558.91	43212.14
559.11	42603.89
559.31	42624.37
559.51	42722.68
559.72	42481.02
559.92	42753.40
560.12	42440.06
560.32	43095.41
560.52	42595.70
560.72	42827.12
560.92	42767.73
561.12	42730.87
561.32	43343.21
561.52	42814.83
561.72	43392.36
561.93	43119.98
562.13	43332.97
562.33	42978.67
562.53	43439.47
562.73	42956.14
562.93	43281.77
563.13	43443.56
563.33	43238.76
563.53	43746.66
563.73	43324.78
563.93	43865.44
564.13	43967.84
564.33	43398.51
564.53	43730.28
564.74	43775.33
564.94	43629.93
565.14	43715.94
565.34	43472.23
565.54	43801.96
565.74	43722.08
565.94	44158.30
566.14	44004.70
566.34	43978.08
566.54	44258.65
566.74	43771.24
566.94	43867.49
567.14	44084.58
567.34	44361.05
567.54	44352.86
567.74	44119.39
567.94	44361.05
568.14	44424.54
568.34	44596.57
568.54	44002.66
568.74	44506.46
568.94	44395.87
569.14	44932.43
569.34	44633.43
569.54	44744.02
569.75	44612.95
569.95	44885.33
570.15	45098.32
570.35	44643.67
570.55	44774.74
570.75	44985.68
570.95	44739.93
571.15	45055.31
571.35	44729.69
571.55	45055.31
571.75	45303.12
571.95	44934.48
572.15	45778.25
572.35	45094.22
572.55	44610.90
572.75	45043.02
572.95	44787.03
573.15	45352.27
573.35	45274.45
573.55	44973.39
573.75	45342.03
573.95	45813.06
574.15	45409.61
574.35	45591.88
574.55	45544.78
574.75	45430.09
574.95	45788.49
575.15	45374.80
575.34	46067.01
575.54	46193.98
575.74	46376.25
575.94	46400.83
576.14	45790.53
576.34	45868.36
576.54	46114.11
576.74	46400.83
576.94	46062.91
577.14	46589.24
577.34	46748.98
577.54	46220.61
577.74	46294.33
577.94	46441.79
578.14	46349.63
578.34	46486.84
578.54	45997.38
578.74	46484.79
578.94	47060.27
579.14	46622.01
579.34	46814.52
579.54	46787.89
579.74	46808.37
579.94	46605.62
580.13	47174.96
580.33	46701.88
580.53	47062.32
580.73	47045.94
580.93	47068.47
581.13	47168.82
581.33	47258.93
581.53	47121.71
581.73	47301.93
581.93	47766.82
582.13	47637.80
582.33	47813.93
582.53	47418.67
582.73	47381.80
582.92	47867.17
583.12	48108.83
583.32	47854.89
583.52	47689.00
583.72	48200.99
583.92	48055.59
584.12	47985.96
584.32	48356.64
584.52	48100.64
584.72	48153.89
584.92	48178.46
585.11	48586.01
585.31	48272.67
585.51	48456.99
585.71	48309.53
585.91	48657.69
586.11	48370.97
586.31	48207.14
586.51	48395.55
586.71	48366.88
586.91	48764.18
587.10	48624.92
587.30	48594.20
587.50	48768.28
587.70	49034.52
587.90	48928.02
588.10	48977.17
588.30	48985.36
588.50	49276.18
588.69	48905.49
588.89	49128.72
589.09	48911.64
589.29	48956.69
589.49	49642.76
589.69	48876.82
589.89	49501.45
590.08	49546.51
590.28	49622.28
590.48	49038.61
590.68	49530.12
590.88	49622.28
591.08	49384.72
591.28	49485.07
591.47	50386.18
591.67	49216.78
591.87	49929.48
592.07	49747.21
592.27	50007.30
592.47	49999.11
592.67	49689.87
592.86	49847.56
593.06	49693.96
593.26	49997.06
593.46	50138.37
593.66	50040.07
593.86	50017.54
594.05	50347.26
594.25	50402.56
594.45	50054.40
594.65	50134.28
594.85	49816.84
595.05	49878.28
595.24	50269.44
595.44	50343.17
595.64	50447.61
595.84	50210.05
596.04	50750.71
596.23	50685.18
596.43	50963.70
596.63	50668.79
596.83	50750.71
597.03	50767.10
597.22	50963.70
597.42	50656.51
597.62	51373.30
597.82	50955.51
598.02	51035.38
598.21	51281.14
598.41	50674.94
598.61	50975.99
598.81	51369.20
599.01	51225.84
599.20	50939.13
599.40	51127.54
599.60	51537.13
599.80	51410.16
600.00	51496.17
600.19	51832.04
600.39	51367.15
600.59	51719.40
600.79	51823.85
600.98	51567.85
601.18	51766.51
601.38	51928.30
601.58	51983.59
601.78	52237.54
601.97	52292.83
602.17	52571.36
602.37	52004.07
602.57	51924.20
602.76	52188.39
602.96	51754.22
603.16	52489.44
603.36	52843.74
603.55	52569.31
603.75	52229.35
603.95	52714.72
604.15	52577.50
604.34	52573.41
604.54	52597.98
604.74	52696.28
604.94	52550.88
605.13	52581.60
605.33	52903.13
605.53	52616.41
605.73	53161.17
605.92	52790.49
606.12	53114.07
606.32	52968.66
606.52	52851.93
606.71	53013.72
606.91	53439.70
607.11	52827.35
607.30	53630.16
607.50	53499.09
607.70	53662.93
607.90	52952.28
608.09	53583.05
608.29	53822.67
608.49	53558.48
608.68	53818.57
608.88	53984.46
609.08	53415.12
609.28	53851.34
609.47	53621.97
609.67	54074.57
609.87	53476.56
610.06	53750.99
610.26	53566.67
610.46	54275.27
610.66	53482.70
610.85	53695.69
611.05	53597.39
611.25	53867.72
611.44	53591.25
611.64	53859.53
611.84	53841.10
612.03	53607.63
612.23	54205.64
612.43	54203.59
612.62	53771.47
612.82	53880.01
613.02	54219.97
613.21	54279.36
613.41	53589.20
613.61	54314.18
613.80	53509.33
614.00	53886.15
614.20	54211.78
614.39	53941.45
614.59	54240.45
614.79	54252.74
614.98	54334.66
615.18	54322.37
615.38	54256.84
615.57	54179.01
615.77	54514.88
615.97	54193.35
616.16	53972.17
616.36	54217.92
616.56	54191.30
616.75	54414.53
616.95	53896.39
617.15	54348.99
617.34	54009.03
617.54	54078.66
617.74	54449.35
617.93	53970.12
618.13	54058.18
618.32	54545.60
618.52	53800.14
618.72	54207.68
618.91	54482.11
619.11	53998.79
619.31	53966.02
619.50	53927.11
619.70	54619.33
619.90	54084.81
620.09	54203.59
620.29	54252.74
620.48	54138.05
620.68	54600.89
620.88	53761.23
621.07	54289.60
621.27	54248.64
621.46	53771.47
621.66	53800.14
621.86	54181.06
622.05	53462.22
622.25	54478.02
622.44	54047.94
622.64	54131.91
622.84	54521.02
623.03	54105.29
623.23	54318.28
623.42	54252.74
623.62	54043.85
623.82	54772.92
624.01	54086.85
624.21	54351.04
624.40	54058.18
624.60	53808.33
624.80	53953.74
624.99	53689.55
625.19	53697.74
625.38	53992.65
625.58	54113.48
625.77	54097.09
625.97	54080.71
626.17	53808.33
626.36	53851.34
626.56	54594.75
626.75	53587.15
626.95	54129.86
627.14	53527.76
627.34	54414.53
627.54	53963.98
627.73	53976.26
627.93	53775.56
628.12	53458.13
628.32	53912.78
628.51	53730.51
628.71	53892.30
628.90	53957.83
629.10	53812.43
629.30	53794.00
629.49	54113.48
629.69	53945.54
629.88	54279.36
630.08	54627.52
630.27	54600.89
630.47	53957.83
630.66	53736.65
630.86	54351.04
631.05	53941.45
631.25	54781.12
631.44	53968.07
631.64	54148.29
631.84	54645.95
632.03	54361.28
632.23	54105.29
632.42	54623.42
632.62	54387.91
632.81	53867.72
633.01	54510.78
633.20	54834.36
633.40	54371.52
633.59	54566.08
633.79	54252.74
633.98	54211.78
634.18	54547.65
634.37	54498.50
634.57	54645.95
634.76	54893.75
634.96	54293.70
635.15	54428.87
635.35	53863.63
635.54	54322.37
635.74	54627.52
635.93	54305.99
636.13	54596.80
636.32	54764.73
636.52	54181.06
636.71	54676.67
636.91	54363.33
637.10	54541.50
637.30	54303.94
637.49	54473.92
637.69	54547.65
637.88	55248.05
638.08	54432.96
638.27	54541.50
638.46	54338.75
638.66	54305.99
638.85	54277.32
639.05	54426.82
639.24	54926.52
639.44	54441.15
639.63	54811.84
639.83	55090.36
640.02	54686.91
640.22	54604.99
640.41	55076.02
640.61	54334.66
640.80	54836.41
640.99	54820.03
641.19	55311.54
641.38	54940.86
641.58	54994.10
641.77	54787.26
641.97	54840.51
642.16	54938.81
642.36	55295.16
642.55	55375.03
642.74	54613.18
642.94	55835.82
643.13	54742.20
643.33	55336.12
643.52	55309.49
643.72	54893.75
643.91	54682.81
644.10	55110.84
644.30	55362.74
644.49	55119.03
644.69	55235.77
644.88	54985.91
645.08	54731.96
645.27	55475.38
645.46	54797.50
645.66	55321.78
645.85	55162.04
646.05	55504.05
646.24	55131.32
646.43	55219.38
646.63	55549.10
646.82	55395.51
647.02	55436.47
647.21	55456.95
647.40	55321.78
647.60	55506.10
647.79	55585.97
647.99	55616.69
648.18	55534.77
648.37	56239.27
648.57	55850.16
648.76	55663.79
648.96	55559.34
649.15	55721.13
649.34	55887.02
649.54	55557.30
649.73	55690.41
649.92	55753.90
650.12	55491.76
650.31	55762.09
650.51	55667.89
650.70	55876.78
650.89	55383.22
651.09	56224.93
651.28	56036.52
651.47	55817.39
651.67	55735.47
651.86	56407.20
652.06	55721.13
652.25	56067.24
652.44	56050.86
652.64	55817.39
652.83	55979.18
653.02	55899.31
653.22	56206.50
653.41	56007.85
653.60	55344.31
653.80	55927.98
653.99	55702.70
654.18	55768.24
654.38	56001.71
654.57	56157.35
654.76	55868.59
654.96	55714.99
655.15	55874.73
655.34	55639.22
655.54	55774.38
655.73	55919.79
655.92	55905.45
656.12	56196.26
656.31	56124.58
656.50	56079.53
656.70	56237.22
656.89	55882.92
657.08	56366.24
657.28	56274.09
657.47	55770.28
657.66	56231.08
657.86	55796.91
658.05	56179.88
658.24	56310.95
658.43	55620.78
658.63	56310.95
658.82	56245.41
659.01	55958.70
659.21	56403.11
659.40	56239.27
659.59	56249.51
659.79	56102.06
659.98	56585.38
660.17	56269.99
660.36	56253.61
660.56	56620.19
660.75	56218.79
660.94	56562.85
661.14	56237.22
661.33	56009.90
661.52	56151.21
661.71	56571.04
661.91	56259.75
662.10	56181.93
662.29	56603.81
662.49	56499.36
662.68	56548.51
662.87	56655.01
663.06	57304.21
663.26	56564.90
663.45	56849.56
663.64	56433.83
663.83	56931.48
664.03	56495.27
664.22	56597.66
664.41	56691.87
664.60	56456.35
664.80	56345.76
664.99	56822.94
665.18	56284.33
665.37	56636.58
665.57	56853.66
665.76	56427.68
665.95	56272.04
666.14	56472.74
666.34	56882.33
666.53	56427.68
666.72	56198.31
666.91	56177.83
667.11	56700.06
667.30	56794.27
667.49	56450.21
667.68	56198.31
667.87	56366.24
668.07	56655.01
668.26	56702.11
668.45	56802.46
668.64	56067.24
668.84	57103.51
669.03	56751.26
669.22	56589.47
669.41	56431.78
669.60	56792.22
669.80	56200.36
669.99	56624.29
670.18	56571.04
670.37	56425.64
670.57	57113.75
670.76	56501.41
670.95	56773.79
671.14	56945.82
671.33	56106.15
671.53	57003.16
671.72	56714.40
671.91	56562.85
672.10	56673.44
672.29	56317.09
672.48	56333.48
672.68	56612.00
672.87	56515.75
673.06	56286.37
673.25	56194.21
673.44	56562.85
673.64	56515.75
673.83	56149.16
674.02	56505.51
674.21	56458.40
674.40	56655.01
674.59	56515.75
674.79	56532.13
674.98	55952.55
675.17	56939.68
675.36	56730.78
675.55	56630.43
675.74	56681.63
675.94	56439.97
676.13	57091.22
676.32	56480.93
676.51	56964.25
676.70	56370.34
676.89	56599.71
677.08	56761.50
677.28	56140.97
677.47	56652.96
677.66	56380.58
677.85	56403.11
678.04	56317.09
678.23	57074.84
678.42	56687.78
678.62	56661.15
678.81	56775.84
679.00	56212.65
679.19	56986.78
679.38	56698.01
679.57	56235.17
679.76	56374.44
679.96	56890.52
680.15	56194.21
680.34	56405.16
680.53	56444.07
680.72	56257.70
680.91	56413.35
681.10	55698.61
681.29	56390.82
681.48	56237.22
681.68	56587.42
681.87	55989.42
682.06	56220.84
682.25	55940.27
682.44	56157.35
682.63	55829.68
682.82	55860.40
683.01	55884.97
683.20	56001.71
683.39	56089.77
683.59	55858.35
683.78	55674.03
683.97	55932.07
684.16	56335.52
684.35	55487.67
684.54	55932.07
684.73	55727.28
684.92	55788.72
685.11	55588.02
685.30	55628.98
685.49	56155.30
685.69	55880.88
685.88	55837.87
686.07	55772.33
686.26	55833.77
686.45	55821.48
686.64	56112.30
686.83	55796.91
687.02	56009.90
687.21	55801.00
687.40	55319.73
687.59	55336.12
687.78	55696.56
687.97	56009.90
688.16	56124.58
688.35	55858.35
688.54	55821.48
688.74	55137.46
688.93	55694.51
689.12	55258.29
689.31	55491.76
689.50	55495.86
689.69	55377.08
689.88	55211.19
690.07	55633.07
690.26	55583.92
690.45	55567.54
690.64	55256.24
690.83	55080.12
691.02	55198.90
691.21	55657.65
691.40	55397.55
691.59	55450.80
691.78	55317.68
691.97	55520.43
692.16	54879.42
692.35	55235.77
692.54	55461.04
692.73	55303.35
692.92	55174.33
693.11	54975.67
693.30	55174.33
693.49	54668.48
693.68	55223.48
693.87	54977.72
694.06	54936.76
694.25	54709.44
694.44	54856.89
694.63	55116.98
694.82	55059.64
695.01	54764.73
695.20	54867.13
695.39	55039.16
695.58	54512.83
695.77	54729.92
695.96	54924.47
696.15	54637.76
696.34	54682.81
696.53	54713.53
696.72	54512.83
696.91	54367.43
697.10	54645.95
697.29	54273.22
697.48	54643.90
697.67	54828.22
697.86	54211.78
698.05	54238.40
698.24	54758.59
698.43	53642.45
698.62	54635.71
698.81	54201.54
699.00	54521.02
699.19	53605.58
699.38	54367.43
699.57	53187.80
699.76	54678.72
699.95	53990.60
700.14	54109.38
700.32	53947.59
700.51	54256.84
700.70	54645.95
700.89	54602.94
701.08	53941.45
701.27	54088.90
701.46	54439.11
701.65	53716.17
701.84	53757.13
702.03	54133.96
702.22	53910.73
702.41	54095.05
702.60	54138.05
702.79	53894.35
702.98	54068.42
703.17	53789.90
703.35	53322.96
703.54	53843.15
703.73	53918.92
703.92	53441.74
704.11	53587.15
704.30	53458.13
704.49	53728.46
704.68	53327.06
704.87	53425.36
705.06	53028.05
705.25	53298.39
705.43	53380.31
705.62	53394.64
705.81	53867.72
706.00	53593.29
706.19	52724.96
706.38	53189.84
706.57	53030.10
706.76	52800.73
706.95	53486.80
707.14	53097.69
707.32	53083.35
707.51	52905.18
707.70	52765.91
707.89	52886.74
708.08	53069.01
708.27	52978.90
708.46	53132.50
708.65	52788.44
708.84	52782.30
709.02	52919.51
709.21	53097.69
709.40	52823.26
709.59	52684.00
709.78	52172.00
709.97	52489.44
710.16	52262.11
710.34	52540.64
710.53	52921.56
710.72	52653.28
710.91	52634.84
711.10	52425.95
711.29	52858.07
711.48	52479.20
711.66	52579.55
711.85	52415.71
712.04	52823.26
712.23	52483.30
712.42	52583.65
712.61	51897.58
712.80	51991.78
712.98	52530.40
713.17	52262.11
713.36	52098.28
713.55	52481.25
713.74	52344.03
713.93	51879.14
714.11	52272.35
714.30	51743.98
714.49	52077.80
714.68	52264.16
714.87	51776.75
715.06	52014.31
715.24	51666.16
715.43	51868.90
715.62	51633.39
715.81	51285.23
716.00	51887.34
716.18	51725.55
716.37	51129.59
716.56	51522.80
716.75	51438.83
716.94	51150.07
717.12	51346.67
717.31	51764.46
717.50	51590.38
717.69	51170.55
717.88	51105.01
718.06	51444.98
718.25	51336.43
718.44	51152.12
718.63	51021.05
718.82	50832.63
719.00	51172.60
719.19	51094.77
719.38	50730.23
719.57	50599.16
719.76	50437.37
719.94	50652.41
720.13	50601.21
720.32	50435.33
720.51	50509.05
720.69	50654.46
720.88	50304.26
721.07	50251.01
721.26	50087.17
721.44	50232.58
721.63	49538.32
721.82	49804.55
722.01	49575.18
722.20	50431.23
722.38	49462.54
722.57	49571.08
722.76	49853.70
722.95	49540.36
723.13	49507.60
723.32	49442.06
723.51	49526.03
723.70	49370.38
723.88	49558.80
724.07	49419.53
724.26	49450.25
724.44	48727.32
724.63	49569.04
724.82	49653.00
725.01	49141.01
725.19	49046.80
725.38	48856.34
725.57	48860.44
725.76	48745.75
725.94	49167.63
726.13	49083.67
726.32	48864.53
726.51	49026.32
726.69	49468.69
726.88	48991.51
727.07	48977.17
727.25	49067.28
727.44	48997.65
727.63	48467.23
727.82	48715.03
728.00	49116.43
728.19	48442.65
728.38	48819.48
728.56	48121.12
728.75	48891.16
728.94	48624.92
729.12	48858.39
729.31	48989.46
729.50	48356.64
729.69	48737.56
729.87	48338.21
730.06	48346.40
730.25	48502.04
730.43	49341.71
730.62	48313.63
730.81	48497.95
730.99	48878.87
731.18	48624.92
731.37	48665.88
731.55	48604.44
731.74	48948.50
731.93	48258.34
732.11	48993.56
732.30	48272.67
732.49	48452.89
732.67	48579.87
732.86	48297.25
733.05	48610.59
733.23	47674.66
733.42	48418.08
733.61	48112.93
733.79	48440.60
733.98	48579.87
734.17	48588.06
734.35	48221.47
734.54	47762.73
734.73	48661.79
734.91	48579.87
735.10	47699.24
735.29	48633.11
735.47	48002.34
735.66	48373.02
735.84	48239.90
736.03	47963.43
736.22	48209.18
736.40	48022.82
736.59	47895.85
736.78	47828.26
736.96	47916.32
737.15	47867.17
737.33	47736.10
737.52	47815.97
737.71	47875.37
737.89	47652.14
738.08	47592.75
738.27	47414.57
738.45	48420.13
738.64	47834.41
738.82	47777.06
739.01	47858.98
739.20	47693.10
739.38	47543.59
739.57	47897.89
739.75	47678.76
739.94	47361.33
740.13	47445.29
740.31	47220.02
740.50	47674.66
740.68	47338.80
740.87	47476.01
741.06	47289.65
741.24	47334.70
741.43	46855.48
741.61	47273.26
741.80	46949.68
741.99	47217.97
742.17	47387.95
742.36	47039.79
742.54	47060.27
742.73	46982.45
742.91	47377.71
743.10	46929.20
743.29	47387.95
743.47	47105.33
743.66	47033.65
743.84	46753.08
744.03	47035.70
744.21	46908.72
744.40	47084.85
744.59	46658.87
744.77	46736.69
744.96	46896.44
745.14	46822.71
745.33	46835.00
745.51	46716.22
745.70	46441.79
745.88	46288.19
746.07	46687.54
746.26	46228.80
746.44	46851.38
746.63	46327.10
746.81	46708.02
747.00	46327.10
747.18	46230.85
747.37	46200.13
747.55	46042.43
747.74	46464.32
747.92	45997.38
748.11	46345.53
748.29	46112.06
748.48	46212.41
748.66	45860.16
748.85	46118.21
749.03	45837.64
749.22	46138.69
749.41	46202.18
749.59	46093.63
749.78	45919.56
749.96	45327.69
750.15	45741.38
750.33	45794.63
750.52	45567.30
750.70	46015.81
750.89	45593.93
751.07	45481.29
751.26	45870.40
751.44	45272.40
751.63	45634.89
751.81	45032.78
752.00	45253.97
752.18	45339.98
752.37	45331.79
752.55	44961.11
752.74	45098.32
752.92	45278.54
753.10	44993.87
753.29	45477.19
753.47	45217.10
753.66	44832.08
753.84	45536.59
754.03	44932.43
754.21	44512.60
754.40	45083.98
754.58	45032.78
754.77	45403.47
754.95	44805.46
755.14	44776.79
755.32	44979.54
755.51	44576.09
755.69	44461.40
755.88	44668.25
756.06	45124.94
756.24	44266.84
756.43	44651.86
756.61	44117.34
756.80	44123.49
756.98	44021.09
757.17	44281.18
757.35	44649.81
757.54	44170.59
757.72	44275.04
757.90	44256.60
758.09	43969.89
758.27	44426.59
758.46	44086.62
758.64	44582.23
758.83	44062.05
759.01	44338.52
759.19	43965.79
759.38	43642.21
759.56	44307.80
759.75	43951.46
759.93	43871.59
760.12	43396.46
760.30	43853.15
760.48	43650.41
760.67	43335.02
760.85	43652.45
761.04	43873.63
761.22	43703.65
761.40	43867.49
761.59	43302.25
761.77	43150.70
761.96	43566.44
762.14	43740.52
762.32	43146.61
762.51	43242.86
762.69	43361.64
762.88	43339.11
763.06	42972.53
763.24	42943.86
763.43	43332.97
763.61	42888.56
763.80	43117.93
763.98	42859.89
764.16	43007.34
764.35	42696.05
764.53	42247.55
764.72	42827.12
764.90	42542.45
765.08	42661.24
765.27	42685.81
765.45	42243.45
765.63	42319.23
765.82	42706.29
766.00	42333.56
766.18	42304.89
766.37	42798.45
766.55	42386.81
766.74	42415.48
766.92	42161.53
767.10	42114.43
767.29	42272.12
767.47	41774.47
767.65	42333.56
767.84	42145.15
768.02	42302.84
768.20	41848.19
768.39	41885.06
768.57	42534.26
768.75	41938.30
768.94	42067.33
769.12	41778.56
769.30	41735.56
769.49	41602.44
769.67	41301.39
769.85	41158.03
770.04	41786.75
770.22	41366.92
770.40	41309.58
770.59	41213.32
770.77	41416.07
770.95	41328.01
771.14	40646.04
771.32	40848.78
771.50	41268.62
771.69	40705.43
771.87	40934.80
772.05	40838.54
772.24	40725.91
772.42	40973.71
772.60	40469.91
772.78	40600.98
772.97	40580.50
773.15	40838.54
773.33	40637.84
773.52	40582.55
773.70	40836.50
773.88	41084.30
774.07	40406.42
774.25	40498.58
774.43	40926.61
774.61	40916.37
774.80	40723.86
774.98	40580.50
775.16	40902.03
775.34	40824.21
775.53	40557.97
775.71	41135.50
775.89	41055.63
776.08	40680.85
776.26	40801.68
776.44	41137.55
776.62	40238.49
776.81	40902.03
776.99	40672.66
777.17	40605.08
777.35	40494.49
777.54	40891.79
777.72	40523.16
777.90	40961.42
778.08	40875.41
778.27	41002.38
778.45	41123.21
778.63	41072.01
778.81	40631.70
779.00	41637.25
779.18	41133.45
779.36	41530.76
779.54	40912.27
779.73	41031.05
779.91	40865.17
780.09	41123.21
780.27	41487.75
780.46	41289.10
780.64	41870.72
780.82	41268.62
781.00	41084.30
781.19	41549.19
781.37	41952.64
781.55	41520.52
781.73	41805.19
781.91	41280.91
782.10	41403.78
782.28	41747.84
782.46	41657.73
782.64	41799.04
782.82	41866.63
783.01	41678.21
783.19	41616.77
783.37	41768.32
783.55	41514.37
783.74	41528.71
783.92	41295.24
784.10	41850.24
784.28	42087.81
784.46	41043.34
784.64	41166.22
784.83	41514.37
785.01	41721.22
785.19	41487.75
785.37	41620.87
785.55	41500.04
785.74	41174.41
785.92	41129.36
786.10	41350.54
786.28	41555.33
786.46	41039.25
786.64	41168.27
786.83	41231.75
787.01	41383.30
787.19	41178.51
787.37	41137.55
787.55	40920.46
787.74	40967.57
787.92	41307.53
788.10	40893.84
788.28	40564.12
788.46	40920.46
788.64	40793.49
788.82	41141.64
789.01	40668.56
789.19	40924.56
789.37	40977.81
789.55	40752.53
789.73	40318.36
789.91	40189.34
790.09	40443.29
790.28	40144.28
790.46	40199.58
790.64	40588.69
790.82	40287.64
791.00	39859.62
791.18	39800.22
791.36	40424.86
791.55	39630.24
791.73	40127.90
791.91	39638.44
792.09	40062.36
792.27	39665.06
792.45	39650.72
792.63	39421.35
792.81	39802.27
793.00	39263.66
793.18	39167.40
793.36	39167.40
793.54	38903.21
793.72	38679.99
793.90	38841.78
794.08	38933.93
794.26	38671.79
794.44	38790.58
794.62	38524.34
794.81	38702.51
794.99	38714.80
795.17	38714.80
795.35	38403.51
795.53	38686.13
795.71	38505.91
795.89	38018.49
796.07	38092.22
796.25	37752.26
796.43	37785.02
796.61	37707.20
796.80	37795.26
796.98	37803.46
797.16	37084.62
797.34	37619.14
797.52	37270.98
797.70	37742.02
797.88	37227.98
798.06	36787.66
798.24	37008.84
798.42	37189.06
798.60	37010.89
798.78	36466.13
798.96	36707.79
799.14	36625.87
799.32	36769.23
799.51	36529.62
799.69	36468.18
799.87	36941.26
800.05	36201.94
800.23	36380.12
800.41	36025.82
800.59	36197.85
800.77	36404.69
800.95	35904.99
801.13	35886.56
801.31	35681.76
801.49	35933.66
801.67	36013.53
801.85	35855.84
802.03	35243.49
802.21	34887.15
802.39	35053.03
802.57	35468.77
802.75	35286.50
802.93	35352.04
803.11	35081.70
803.29	34881.00
803.47	34805.23
803.65	34903.53
803.83	34840.04
804.01	34635.25
804.19	34409.97
804.37	34602.48
804.55	34670.06
804.73	34645.49
804.91	34504.18
805.09	33934.84
805.27	34336.24
805.45	34414.07
805.63	34172.41
805.81	34188.79
805.99	34328.05
806.17	33744.38
806.35	33797.63
806.53	33928.70
806.71	33859.07
806.89	33867.26
807.07	33646.08
807.25	33545.73
807.43	33232.39
807.61	33691.13
807.79	33422.85
807.97	32986.63
808.15	33095.18
808.33	33322.50
808.51	33127.94
808.69	32822.80
808.87	32814.60
809.05	32761.36
809.23	32693.77
809.41	32851.47
809.59	32714.25
809.77	32777.74
809.95	32599.57
810.13	32306.71
810.31	32388.63
810.49	32345.62
810.67	32232.98
810.84	32466.45
811.02	32501.26
811.20	32054.81
811.38	32378.39
811.56	32050.71
811.74	32101.91
811.92	31462.94
812.10	31755.80
812.28	31766.04
812.46	31720.99
812.64	31680.03
812.82	31720.99
813.00	31409.70
813.18	31620.64
813.36	31401.50
813.53	31268.39
813.71	31419.94
813.89	31532.57
814.07	30989.86
814.25	31186.47
814.43	30885.42
814.61	31018.53
814.79	30647.85
814.97	30895.66
815.15	30909.99
815.33	30543.41
815.50	30629.42
815.68	30914.09
815.86	30733.87
816.04	30658.09
816.22	30244.40
816.40	30541.36
816.58	30205.49
816.76	30385.71
816.94	30395.95
817.11	29972.02
817.29	29937.21
817.47	30017.08
817.65	30062.13
817.83	30103.09
818.01	29673.02
818.19	29947.45
818.37	29900.34
818.54	29726.27
818.72	29584.96
818.90	30072.37
819.08	29535.81
819.26	29597.24
819.44	29609.53
819.62	29390.40
819.80	29533.76
819.97	29822.52
820.15	29255.23
820.33	29384.26
820.51	29480.51
820.69	29066.82
820.87	29118.02
821.05	29498.94
821.22	29457.98
821.40	28886.60
821.58	29077.06
821.76	28950.09
821.94	28939.85
822.12	29052.48
822.29	28790.34
822.47	29111.88
822.65	28857.93
822.83	28980.81
823.01	29021.77
823.19	28563.02
823.36	28671.56
823.54	28618.32
823.72	28237.39
823.90	28462.67
824.08	28278.35
824.25	28622.41
824.43	28309.07
824.61	28282.45
824.79	28272.21
824.97	28161.62
825.15	28028.50
825.32	27956.82
825.50	28218.96
825.68	27659.87
825.86	28094.04
826.04	28184.15
826.21	27743.83
826.39	28003.92
826.57	27924.05
826.75	27852.38
826.93	27539.04
827.10	27545.18
827.28	27465.31
827.46	27805.27
827.64	27780.70
827.81	27541.08
827.99	27364.96
828.17	27147.87
828.35	27223.65
828.53	27420.25
828.70	27211.36
828.88	27442.78
829.06	27235.94
829.24	27491.93
829.41	27348.57
829.59	27158.11
829.77	27174.50
829.95	27025.00
830.12	26891.88
830.30	26875.49
830.48	27027.04
830.66	27209.31
830.84	27031.14
831.01	27033.19
831.19	26977.89
831.37	26742.38
831.55	26797.67
831.72	26594.92
831.90	26852.97
832.08	26664.55
832.25	26855.01
832.43	26394.22
832.61	26672.74
832.79	25984.63
832.96	26685.03
833.14	26605.16
833.32	26472.04
833.50	26338.93
833.67	26318.45
833.85	26343.02
834.03	25794.17
834.20	26269.30
834.38	26289.77
834.56	26338.93
834.74	25941.62
834.91	26168.94
835.09	26091.12
835.27	25939.57
835.44	25882.23
835.62	25372.28
835.80	25626.23
835.98	25964.15
836.15	25880.18
836.33	25753.21
836.51	25984.63
836.68	25636.47
836.86	25595.51
837.04	25706.10
837.21	25769.59
837.39	25863.80
837.57	25753.21
837.75	25478.78
837.92	25243.26
838.10	25403.00
838.28	25396.86
838.45	25329.28
838.63	25411.20
838.81	25480.83
838.98	24972.93
839.16	25071.23
839.34	24899.20
839.51	24991.36
839.69	24899.20
839.87	24946.31
840.04	24868.48
840.22	24931.97
840.40	24895.11
840.57	24522.38
840.75	24692.36
840.93	24528.52
841.10	24579.72
841.28	25040.51
841.46	24899.20
841.63	24911.49
841.81	24895.11
841.98	24733.32
842.16	24895.11
842.34	24735.37
842.51	24565.39
842.69	24850.05
842.87	24311.44
843.04	24567.43
843.22	24536.71
843.40	24151.70
843.57	24032.91
843.75	24354.44
843.92	24444.56
844.10	24542.86
844.28	24549.00
844.45	24696.46
844.63	24387.21
844.81	24102.54
844.98	24325.77
845.16	24272.53
845.33	24381.07
845.51	24168.08
845.69	23973.52
845.86	24020.63
846.04	23883.41
846.21	24077.97
846.39	23735.96
846.57	23801.49
846.74	23801.49
846.92	23750.29
847.09	23926.42
847.27	23695.00
847.45	23811.73
847.62	23819.92
847.80	23905.94
847.97	23742.10
848.15	23545.50
848.32	23228.06
848.50	23496.35
848.68	23393.95
848.85	23553.69
849.03	23209.63
849.20	23297.69
849.38	23484.06
849.56	23529.11
849.73	23140.00
849.91	23334.56
850.08	23443.10
850.26	23037.60
850.43	23060.13
850.61	23197.34
850.78	22656.68
850.96	22789.80
851.14	22869.67
851.31	23015.07
851.49	23131.81
851.66	22996.64
851.84	22972.07
852.01	22986.40
852.19	22779.56
852.36	22685.35
852.54	22810.28
852.71	22806.18
852.89	23008.93
853.07	22947.49
853.24	22916.77
853.42	22668.97
853.59	22527.66
853.77	22765.22
853.94	22834.85
854.12	22611.62
854.29	22331.05
854.47	22636.20
854.64	22679.21
854.82	22709.93
854.99	22785.70
855.17	22673.06
855.34	22339.24
855.52	22580.90
855.69	22716.07
855.87	22333.10
856.04	22363.82
856.22	22398.63
856.39	22021.81
856.57	22232.75
856.74	22290.09
856.92	21964.46
857.09	21976.75
857.27	21974.70
857.44	22363.82
857.62	22116.01
857.79	22044.34
857.97	22150.83
858.14	21728.95
858.32	21986.99
858.49	21913.27
858.67	21769.91
858.84	21958.32
859.02	21896.88
859.19	21673.65
859.37	21554.87
859.54	21706.42
859.72	21706.42
859.89	21700.28
860.06	21448.38
860.24	21552.82
860.41	21597.88
860.59	21354.17
860.76	21561.02
860.94	21280.44
861.11	21319.35
861.29	21329.59
861.46	21579.45
861.64	21159.61
861.81	21026.50
861.98	20997.82
862.16	21126.85
862.33	20889.28
862.51	21094.08
862.68	21245.63
862.86	21231.29
863.03	21049.02
863.21	20786.88
863.38	20920.00
863.55	20932.29
863.73	20973.25
863.90	20983.49
864.08	20915.90
864.25	20700.87
864.43	20737.73
864.60	20897.47
864.77	20534.98
864.95	20754.12
865.12	20430.54
865.30	20647.62
865.47	20592.33
865.64	20526.79
865.82	20477.64
865.99	20711.11
866.17	20238.03
866.34	20436.68
866.51	20256.46
866.69	20682.44
866.86	20594.37
867.04	20371.15
867.21	20321.99
867.38	20217.55
867.56	20100.81
867.73	20119.24
867.91	20033.23
868.08	20049.61
868.25	20260.55
868.43	20111.05
868.60	19967.70
868.78	19855.06
868.95	20340.43
869.12	20025.04
869.30	19850.96
869.47	19930.83
869.64	19908.30
869.82	20158.16
869.99	19541.72
870.16	19984.08
870.34	19736.27
870.51	19629.78
870.69	19525.33
870.86	19640.02
871.03	19275.48
871.21	19295.96
871.38	19822.29
871.55	19449.56
871.73	19721.94
871.90	19191.52
872.07	19250.91
872.25	19201.76
872.42	19267.29
872.59	19203.80
872.77	19248.86
872.94	19318.49
873.11	19150.56
873.29	19115.74
873.46	19035.87
873.63	19175.13
873.81	19056.35
873.98	18573.03
874.15	18921.18
874.33	18804.45
874.50	18781.92
874.67	18792.16
874.85	18755.30
875.02	18923.23
875.19	18652.90
875.37	18464.49
875.54	18693.86
875.71	18710.24
875.88	18573.03
876.06	18452.20
876.23	18669.28
876.40	18425.57
876.58	18243.31
876.75	18263.79
876.92	18185.96
877.10	18347.75
877.27	18292.46
877.44	18233.07
877.61	18239.21
877.79	18005.74
877.96	18067.18
878.13	17993.45
878.31	17962.73
878.48	17944.30
878.65	17999.60
878.82	17762.03
879.00	17970.93
879.17	17788.66
879.34	17876.72
879.51	17731.31
879.69	17665.78
879.86	17438.45
880.03	17471.22
880.21	17739.51
880.38	17485.56
880.55	17880.82
880.72	17501.94
880.90	17547.00
881.07	17389.30
881.24	17757.94
881.41	17737.46
881.59	17315.58
881.76	17516.28
881.93	17309.43
882.10	17010.43
882.28	17233.66
882.45	17284.86
882.62	17327.86
882.79	17372.92
882.96	17049.34
883.14	17284.86
883.31	17106.68
883.48	16969.47
883.65	17096.44
883.83	17135.35
884.00	16992.00
884.17	17227.51
884.34	17112.83
884.51	17299.19
884.69	16967.42
884.86	16938.75
885.03	16983.80
885.20	16586.50
885.38	17174.27
885.55	16787.20
885.72	16885.50
885.89	16781.06
886.06	16678.66
886.24	16709.38
886.41	16602.88
886.58	17084.16
886.75	16908.03
886.92	16692.99
887.10	17028.86
887.27	16477.96
887.44	16523.01
887.61	16768.77
887.78	16946.94
887.95	16719.62
888.13	16641.79
888.30	16563.97
888.47	16293.64
888.64	16563.97
888.81	16457.48
888.99	16490.24
889.16	16504.58
889.33	16084.75
889.50	16221.96
889.67	16373.51
889.84	16035.60
890.01	16033.55
890.19	15927.05
890.36	16211.72
890.53	16058.12
890.70	15832.85
890.87	15849.23
891.04	16092.94
891.22	15970.06
891.39	16148.23
891.56	16066.31
891.73	15965.96
891.90	15773.46
892.07	15802.13
892.24	15800.08
892.42	15943.44
892.59	15548.18
892.76	15716.11
892.93	15640.34
893.10	15697.68
893.27	15679.25
893.44	15826.70
893.61	15699.73
893.79	15718.16
893.96	15724.30
894.13	15572.75
894.30	15509.27
894.47	15501.08
894.64	15734.54
894.81	15593.23
894.98	15474.45
895.15	15683.34
895.33	15599.38
895.50	15353.62
895.67	15578.90
895.84	15429.40
896.01	15376.15
896.18	15660.82
896.35	15630.10
896.52	15533.84
896.69	15361.81
896.86	15548.18
897.04	15642.39
897.21	15560.47
897.38	15257.37
897.55	15320.85
897.72	15472.40
897.89	15263.51
898.06	15603.47
898.23	15501.08
898.40	15312.66
898.57	15343.38
898.74	15531.80
898.91	15302.42
899.08	15458.07
899.26	15247.13
899.43	15458.07
899.60	15300.37
899.77	15353.62
899.94	15474.45
900.11	15077.15
900.28	15429.40
900.45	15224.60
900.62	15136.54
900.79	15435.54
900.96	15380.25
901.13	15392.53
901.30	15327.00
901.47	15277.85
901.64	15224.60
901.81	15304.47
901.98	15259.42
902.15	15228.70
902.32	15114.01
902.49	15206.17
902.66	15367.96
902.83	15249.18
903.01	15009.56
903.18	15279.89
903.35	15128.35
903.52	15247.13
903.69	15445.78
903.86	15460.12
904.03	15052.57
904.20	15083.29
904.37	15367.96
904.54	15314.71
904.71	15161.11
904.88	15367.96
905.05	15064.86
905.22	15220.50
905.39	15157.02
905.56	15128.35
905.73	15236.89
905.90	15296.28
906.07	15384.34
906.24	15277.85
906.41	15421.20
906.58	15378.20
906.75	15101.72
906.92	15048.47
907.09	15206.17
907.26	15380.25
907.43	15109.91
907.60	15120.15
907.77	15347.48
907.93	15138.58
908.10	14833.44
908.27	15408.92
908.44	15015.71
908.61	15163.16
908.78	15118.11
908.95	15181.59
909.12	15071.00
909.29	15109.91
909.46	14968.60
909.63	15128.35
909.80	15234.84
909.97	14974.75
910.14	14978.84
910.31	14890.78
910.48	14817.05
910.65	15054.62
910.82	14847.77
910.99	14993.18
911.16	14939.93
911.33	14937.88
911.50	14841.63
911.66	14751.52
911.83	14876.44
912.00	14772.00
912.17	14825.25
912.34	14653.22
912.51	14835.49
912.68	14534.43
912.85	14726.94
913.02	14993.18
913.19	14511.91
913.36	14552.87
913.53	14485.28
913.70	14333.73
913.86	14563.11
914.03	14534.43
914.20	14303.01
914.37	14417.70
914.54	14462.76
914.71	14616.35
914.88	14366.50
915.05	14393.12
915.22	14411.56
915.39	14079.79
915.55	14270.25
915.72	14090.02
915.89	14096.17
916.06	13866.80
916.23	14311.21
916.40	13965.10
916.57	13971.24
916.74	13819.69
916.91	13938.48
917.07	13725.49
917.24	13938.48
917.41	13946.67
917.58	13797.17
917.75	13600.56
917.92	13729.58
918.09	13690.67
918.26	13786.93
918.42	13655.86
918.59	13467.44
918.76	13627.18
918.93	13489.97
919.10	13397.81
919.27	13309.75
919.44	13506.35
919.60	13461.30
919.77	13387.57
919.94	13209.40
920.11	13201.21
920.28	13397.81
920.45	13207.35
920.61	13195.06
920.78	13293.37
920.95	13037.37
921.12	13195.06
921.29	12908.35
921.46	12937.02
921.62	12777.28
921.79	12988.22
921.96	12832.57
922.13	12965.69
922.30	12859.20
922.47	12734.27
922.63	12523.33
922.80	12519.23
922.97	12693.31
923.14	12250.95
923.31	12715.84
923.47	12218.18
923.64	12713.79
923.81	12388.16
923.98	12173.13
924.15	12027.72
924.32	12390.21
924.48	12144.45
924.65	12203.85
924.82	11913.03
924.99	12076.87
925.15	11757.39
925.32	12142.41
925.49	11761.48
925.66	12023.62
925.83	11968.33
925.99	11597.65
926.16	11822.92
926.33	11568.98
926.50	11460.43
926.67	11519.82
926.83	11650.89
927.00	11560.78
927.17	11409.23
927.34	11386.71
927.50	11384.66
927.67	11571.02
927.84	11298.64
928.01	11130.71
928.17	11364.18
928.34	11147.09
928.51	11124.57
928.68	11073.37
928.84	11188.05
929.01	10940.25
929.18	10819.42
929.35	10655.58
929.51	10958.68
929.68	10616.67
929.85	10700.64
930.02	10862.43
930.18	10555.23
930.35	10594.14
930.52	10684.25
930.69	10551.14
930.85	10411.87
931.02	10450.78
931.19	10458.98
931.36	10336.10
931.52	10256.23
931.69	10356.58
931.86	10116.97
932.02	10172.26
932.19	10178.40
932.36	10076.01
932.53	10076.01
932.69	9856.87
932.86	10039.14
933.03	9899.88
933.19	9875.31
933.36	9719.66
933.53	9912.17
933.70	9656.17
933.86	9736.04
934.03	9602.93
934.20	9424.75
934.36	9523.05
934.53	9330.55
934.70	9211.76
934.86	9316.21
935.03	9275.25
935.20	9187.19
935.36	9230.20
935.53	9138.04
935.70	8984.44
935.86	8945.53
936.03	8933.24
936.20	8703.87
936.36	8652.67
936.53	8494.97
936.70	8679.29
936.86	8652.67
937.03	8279.94
937.20	8281.99
937.36	8339.33
937.53	8109.96
937.70	8011.65
937.86	7813.00
938.03	7839.62
938.20	8032.13
938.36	7741.32
938.53	7813.00
938.70	7673.74
938.86	7507.85
939.03	7323.54
939.20	7214.99
939.36	7405.46
939.53	7176.08
939.70	7417.74
939.86	7069.59
940.03	7018.39
940.19	6807.45
940.36	6846.36
940.53	6688.67
940.69	6647.71
940.86	6606.75
941.03	6668.19
941.19	6483.87
941.36	6379.42
941.52	6512.54
941.69	6262.69
941.86	6320.03
942.02	6266.78
942.19	6301.60
942.35	6207.39
942.52	6031.27
942.69	6049.70
942.85	5889.96
943.02	5885.86
943.18	5932.97
943.35	5836.71
943.52	5795.75
943.68	5889.96
943.85	5762.98
944.01	5627.82
944.18	5631.91
944.35	5638.06
944.51	5527.47
944.68	5455.79
944.84	5500.84
945.01	5478.32
945.17	5623.72
945.34	5449.64
945.51	5429.17
945.67	5423.02
945.84	5521.32
946.00	5318.57
946.17	5523.37
946.33	5314.48
946.50	5470.12
946.67	5316.53
946.83	5296.05
947.00	5541.80
947.16	5328.81
947.33	5423.02
947.49	5349.29
947.66	5341.10
947.82	5390.25
947.99	5306.29
948.16	5355.44
948.32	5294.00
948.49	5341.10
948.65	5365.68
948.82	5253.04
948.98	5214.13
949.15	5316.53
949.31	5359.53
949.48	5279.66
949.64	5191.60
949.81	5250.99
949.97	5388.21
950.14	5353.39
950.30	5287.86
950.47	5382.06
950.63	5314.48
950.80	5312.43
950.96	5316.53
951.13	5349.29
951.30	5367.73
951.46	5386.16
951.63	5425.07
951.79	5447.60
951.96	5533.61
952.12	5425.07
952.29	5437.36
952.45	5382.06
952.62	5418.93
952.78	5590.95
952.94	5347.25
953.11	5330.86
953.27	5400.49
953.44	5607.34
953.60	5527.47
953.77	5599.15
953.93	5515.18
954.10	5482.41
954.26	5433.26
954.43	5420.97
954.59	5611.43
954.76	5623.72
954.92	5269.42
955.09	5578.67
955.25	5439.40
955.42	5484.46
955.58	5656.49
955.75	5509.04
955.91	5500.84
956.07	5468.08
956.24	5564.33
956.40	5420.97
956.57	5461.93
956.73	5429.17
956.90	5517.23
957.06	5420.97
957.23	5453.74
957.39	5285.81
957.56	5316.53
957.72	5420.97
957.88	5287.86
958.05	5408.69
958.21	5670.83
958.38	5558.19
958.54	5398.45
958.71	5584.81
958.87	5373.87
959.03	5486.51
959.20	5445.55
959.36	5441.45
959.53	5576.62
959.69	5384.11
959.85	5443.50
960.02	5431.21
960.18	5316.53
960.35	5404.59
960.51	5621.67
960.68	5369.77
960.84	5439.40
961.00	5369.77
961.17	5488.56
961.33	5410.73
961.50	5437.36
961.66	5525.42
961.82	5418.93
961.99	5361.58
962.15	5631.91
962.31	5457.84
962.48	5443.50
962.64	5525.42
962.81	5504.94
962.97	5439.40
963.13	5500.84
963.30	5463.98
963.46	5418.93
963.62	5244.85
963.79	5345.20
963.95	5402.54
964.12	5357.49
964.28	5316.53
964.44	5392.30
964.61	5437.36
964.77	5236.66
964.93	5570.48
965.10	5246.90
965.26	5281.71
965.42	5337.01
965.59	5334.96
965.75	5355.44
965.92	5283.76
966.08	5435.31
966.24	5412.78
966.41	5298.10
966.57	5285.81
966.73	5291.95
966.90	5361.58
967.06	5291.95
967.22	5167.03
967.39	5197.74
967.55	5205.94
967.71	5279.66
967.88	5142.45
968.04	5132.21
968.20	5197.74
968.37	5216.18
968.53	5167.03
968.69	5220.27
968.85	5056.43
969.02	5263.28
969.18	5140.40
969.34	5169.07
969.51	5140.40
969.67	5207.98
969.83	5167.03
970.00	5300.14
970.16	5162.93
970.32	5124.02
970.48	5300.14
970.65	5083.06
970.81	5158.83
970.97	5134.26
971.14	4915.12
971.30	5179.31
971.46	5023.67
971.63	5001.14
971.79	5205.94
971.95	4939.70
972.11	5031.86
972.28	4902.84
972.44	5029.81
972.60	4956.08
972.76	5085.11
972.93	4890.55
973.09	4923.32
973.25	5058.48
973.42	4915.12
973.58	5027.76
973.74	4984.76
973.90	4935.60
974.07	4894.65
974.23	4949.94
974.39	4908.98
974.55	4902.84
974.72	4794.29
974.88	4845.49
975.04	4839.35
975.20	4779.96
975.37	4775.86
975.53	4790.20
975.69	4911.03
975.85	4810.68
976.01	4681.66
976.18	4724.66
976.34	4767.67
976.50	4876.21
976.66	4775.86
976.83	4837.30
976.99	4601.79
977.15	4593.59
977.31	4626.36
977.47	4736.95
977.64	4726.71
977.80	4685.75
977.96	4673.46
978.12	4695.99
978.29	4573.11
978.45	4632.51
978.61	4591.55
978.77	4562.87
978.93	4515.77
979.10	4605.88
979.26	4612.03
979.42	4607.93
979.58	4460.48
979.74	4607.93
979.91	4554.68
980.07	4440.00
980.23	4534.20
980.39	4390.84
980.55	4464.57
980.71	4399.04
980.88	4411.32
981.04	4495.29
981.20	4511.68
981.36	4462.52
981.52	4308.93
981.68	4358.08
981.85	4407.23
982.01	4411.32
982.17	4333.50
982.33	4280.25
982.49	4349.89
982.65	4356.03
982.82	4351.93
982.98	4255.68
983.14	4261.82
983.30	4272.06
983.46	4349.89
983.62	4251.58
983.79	4149.18
983.95	4274.11
984.11	4140.99
984.27	4317.12
984.43	4132.80
984.59	4194.24
984.75	4325.31
984.91	4192.19
985.08	4321.21
985.24	4159.42
985.40	4159.42
985.56	4175.81
985.72	4014.02
985.88	4257.73
986.04	4077.51
986.20	4046.79
986.37	4190.14
986.53	4007.87
986.69	4100.03
986.85	3981.25
987.01	4050.88
987.17	4036.55
987.33	4071.36
987.49	4057.03
987.65	4120.51
987.82	4034.50
987.98	3960.77
988.14	4038.59
988.30	4003.78
988.46	4026.31
988.62	3936.20
988.78	3837.89
988.94	3850.18
989.10	3833.80
989.26	3874.76
989.42	3858.37
989.59	3870.66
989.75	3657.67
989.91	3866.56
990.07	3749.83
990.23	3872.71
990.39	3743.69
990.55	3905.48
990.71	3727.30
990.87	3841.99
991.03	3780.55
991.19	3715.02
991.35	3780.55
991.51	3878.85
991.67	3971.01
991.83	3721.16
992.00	3717.06
992.16	3719.11
992.32	3778.50
992.48	3809.22
992.64	3655.62
992.80	3768.26
992.96	3690.44
993.12	3618.76
993.28	3813.32
993.44	3715.02
993.60	3596.23
993.76	3549.13
993.92	3606.47
994.08	3702.73
994.24	3520.46
994.40	3596.23
994.56	3637.19
994.72	3567.56
994.88	3577.80
995.04	3547.08
995.20	3590.09
995.36	3555.27
995.52	3633.10
995.68	3516.36
995.84	3592.14
996.00	3702.73
996.16	3733.45
996.32	3469.26
996.48	3448.78
996.64	3524.55
996.80	3491.79
996.96	3428.30
997.12	3465.16
997.28	3397.58
997.44	3512.27
997.60	3444.68
997.76	3321.81
997.92	3528.65
998.08	3475.40
998.24	3174.35
998.40	3352.52
998.56	3450.83
998.72	3352.52
998.88	3336.14
999.04	3313.61
999.20	3424.20
999.36	3327.95
999.52	3434.44
999.68	3323.85
999.84	3461.07
1000.00	3254.22
1000.16	3448.78
1000.32	3227.60
1000.48	3368.91
1000.64	3272.65
1000.80	3190.74
1000.95	3256.27
1001.11	3098.58
1001.27	3133.39
1001.43	3272.65
1001.59	3137.49
1001.75	3174.35
1001.91	3182.54
1002.07	3186.64
1002.23	3123.15
1002.39	3141.58
1002.55	3080.14
1002.71	3137.49
1002.87	3164.11
1003.03	3114.96
1003.19	3106.77
1003.34	3233.74
1003.50	3207.12
1003.66	3110.86
1003.82	3243.98
1003.98	3061.71
1004.14	3041.23
1004.30	3018.71
1004.46	3125.20
1004.62	3000.27
1004.78	3078.10
1004.94	3043.28
1005.09	3028.95
1005.25	3207.12
1005.41	3014.61
1005.57	2897.88
1005.73	2973.65
1005.89	3022.80
1006.05	3039.19
1006.21	2953.17
1006.37	2930.64
1006.52	2875.35
1006.68	2893.78
1006.84	2944.98
1007.00	2932.69
1007.16	2961.36
1007.32	2736.09
1007.48	2936.79
1007.64	2879.44
1007.79	2844.63
1007.95	2873.30
1008.11	2977.75
1008.27	2885.59
1008.43	2758.61
1008.59	2891.73
1008.75	2879.44
1008.91	2846.68
1009.06	2813.91
1009.22	2922.45
1009.38	2846.68
1009.54	2863.06
1009.70	2801.62
1009.86	2826.20
1010.01	2854.87
1010.17	2838.48
1010.33	2869.20
1010.49	2768.85
1010.65	2912.21
1010.81	2664.41
1010.96	2770.90
1011.12	2693.08
1011.28	2699.22
1011.44	2789.33
1011.60	2723.80
1011.76	2815.96
1011.91	2752.47
1012.07	2752.47
1012.23	2600.92
1012.39	2652.12
1012.55	2719.70
1012.71	2555.86
1012.86	2562.01
1013.02	2664.41
1013.18	2539.48
1013.34	2662.36
1013.50	2738.13
1013.65	2660.31
1013.81	2586.58
1013.97	2584.54
1014.13	2719.70
1014.29	2645.98
1014.44	2770.90
1014.60	2598.87
1014.76	2580.44
1014.92	2578.39
1015.07	2602.97
1015.23	2570.20
1015.39	2559.96
1015.55	2529.24
1015.71	2549.72
1015.86	2535.39
1016.02	2523.10
1016.18	2478.04
1016.34	2506.71
1016.49	2545.63
1016.65	2543.58
1016.81	2465.75
1016.97	2525.15
1017.12	2539.48
1017.28	2457.56
1017.44	2498.52
1017.60	2400.22
1017.75	2396.12
1017.91	2480.09
1018.07	2480.09
1018.23	2463.71
1018.38	2367.45
1018.54	2410.46
1018.70	2449.37
1018.86	2316.25
1019.01	2392.03
1019.17	2422.75
1019.33	2508.76
1019.49	2504.67
1019.64	2365.40
1019.80	2346.97
1019.96	2439.13
1020.12	2437.08
1020.27	2248.67
1020.43	2371.55
1020.59	2410.46
1020.74	2402.27
1020.90	2443.23
1021.06	2336.73
1021.22	2306.01
1021.37	2437.08
1021.53	2324.44
1021.69	2361.31
1021.84	2271.20
1022.00	2320.35
1022.16	2426.84
1022.31	2357.21
1022.47	2396.12
1022.63	2324.44
1022.79	2265.05
1022.94	2263.01
1023.10	2383.84
1023.26	2232.29
1023.41	2209.76
1023.57	2230.24
1023.73	2316.25
1023.88	2314.20
1024.04	2269.15
1024.20	2131.94
1024.35	2256.86
1024.51	2152.42
1024.67	2234.33
1024.82	2326.49
1024.98	2146.27
1025.14	2236.38
1025.29	2263.01
1025.45	2283.49
1025.61	2236.38
1025.76	2232.29
1025.92	2211.81
1026.08	2291.68
1026.23	2242.53
1026.39	2287.58
1026.55	2162.66
1026.70	2166.75
1026.86	2193.37
1027.02	2185.18
1027.17	2150.37
1027.33	2179.04
1027.48	2148.32
1027.64	2168.80
1027.80	2088.93
1027.95	2201.57
1028.11	2107.36
1028.27	2207.71
1028.42	2209.76
1028.58	2127.84
1028.73	2097.12
1028.89	2068.45
1029.05	2250.72
1029.20	2256.86
>>>>>End Processed Spectral Data<<<<<
