SpectraSuite Data File
++++++++++++++++++++++++++++++++++++
Date: Fri Jun 02 14:57:17 CEST 2017
User: INFO_000
Dark Spectrum Present: No
Reference Spectrum Present: No
Number of Sampled Component Spectra: 1
Spectrometers: USB4H00879
Integration Time (usec): 80000 (USB4H00879)
Spectra Averaged: 1 (USB4H00879)
Boxcar Smoothing: 0 (USB4H00879)
Correct for Electrical Dark: No (USB4H00879)
Strobe/Lamp Enabled: No (USB4H00879)
Correct for Detector Non-linearity: No (USB4H00879)
Correct for Stray Light: No (USB4H00879)
Number of Pixels in Processed Spectrum: 3648
>>>>>Begin Processed Spectral Data<<<<<
345.13	1202.16
345.34	1202.16
345.56	1202.16
345.78	1290.22
345.99	1341.42
346.21	1730.53
346.42	1753.06
346.64	1654.76
346.86	1796.07
347.07	1589.22
347.29	1644.52
347.50	1662.95
347.72	1634.28
347.94	1667.05
348.15	1544.17
348.37	1574.89
348.59	1693.67
348.80	1650.66
349.02	1781.73
349.23	1769.44
349.45	1806.31
349.67	1832.93
349.88	1712.10
350.10	1982.43
350.31	1701.86
350.53	1675.24
350.75	1884.13
350.96	1671.14
351.18	1812.45
351.39	1791.97
351.61	1765.35
351.82	1847.27
352.04	1740.77
352.26	1781.73
352.47	1785.83
352.69	1804.26
352.90	1703.91
353.12	1767.40
353.34	1724.39
353.55	1824.74
353.77	1771.49
353.98	1791.97
354.20	1740.77
354.41	1802.21
354.63	1804.26
354.85	1968.10
355.06	1791.97
355.28	1705.96
355.49	1826.79
355.71	1763.30
355.92	1734.63
356.14	1740.77
356.35	1685.48
356.57	1773.54
356.79	1841.12
357.00	1787.88
357.22	1857.51
357.43	1753.06
357.65	1796.07
357.86	1714.15
358.08	1798.12
358.29	1796.07
358.51	1900.52
358.72	1828.84
358.94	1890.28
359.16	1810.40
359.37	1802.21
359.59	1832.93
359.80	1914.85
360.02	1732.58
360.23	1869.80
360.45	1949.67
360.66	1851.36
360.88	1691.62
361.09	1767.40
361.31	1812.45
361.52	1802.21
361.74	1855.46
361.95	1947.62
362.17	1800.16
362.38	1906.66
362.60	1937.38
362.81	1812.45
363.03	1843.17
363.24	1812.45
363.46	1945.57
363.67	1810.40
363.89	1822.69
364.10	1814.50
364.32	1763.30
364.53	1884.13
364.75	1767.40
364.96	1744.87
365.18	1949.67
365.39	1828.84
365.61	1810.40
365.82	1998.82
366.04	1875.94
366.25	1744.87
366.47	1937.38
366.68	1869.80
366.90	1767.40
367.11	1783.78
367.33	1902.56
367.54	1935.33
367.76	1916.90
367.97	1912.80
368.19	1849.32
368.40	1900.52
368.62	1816.55
368.83	1834.98
369.05	1757.16
369.26	1781.73
369.48	1783.78
369.69	1783.78
369.91	1839.08
370.12	1828.84
370.33	1974.24
370.55	1800.16
370.76	1828.84
370.98	1918.95
371.19	1941.47
371.41	1847.27
371.62	1894.37
371.84	1927.14
372.05	1953.76
372.27	1841.12
372.48	1896.42
372.69	1920.99
372.91	2068.45
373.12	1994.72
373.34	1877.99
373.55	1966.05
373.77	1986.53
373.98	1953.76
374.20	1966.05
374.41	2103.26
374.62	1949.67
374.84	2072.54
375.05	1908.71
375.27	1929.19
375.48	1994.72
375.70	1996.77
375.91	2076.64
376.12	2156.51
376.34	1867.75
376.55	1912.80
376.77	2035.68
376.98	1990.63
377.19	1931.23
377.41	2025.44
377.62	2027.49
377.84	2113.50
378.05	2209.76
378.27	2064.35
378.48	2019.30
378.69	2203.61
378.91	2125.79
379.12	2154.46
379.34	2052.06
379.55	2068.45
379.76	2090.98
379.98	2033.63
380.19	2123.74
380.41	2093.02
380.62	2119.65
380.83	2109.41
381.05	2052.06
381.26	2189.28
381.47	2064.35
381.69	2076.64
381.90	2289.63
382.12	2015.20
382.33	2088.93
382.54	2090.98
382.76	2183.13
382.97	2179.04
383.19	1927.14
383.40	2199.52
383.61	2181.09
383.83	2170.85
384.04	2195.42
384.25	2043.87
384.47	2252.77
384.68	2146.27
384.89	2232.29
385.11	2187.23
385.32	2222.05
385.54	2228.19
385.75	2211.81
385.96	2162.66
386.18	2224.09
386.39	2252.77
386.60	2222.05
386.82	2248.67
387.03	2351.07
387.24	2383.84
387.46	2338.78
387.67	2377.69
387.88	2482.14
388.10	2322.40
388.31	2365.40
388.52	2447.32
388.74	2402.27
388.95	2361.31
389.16	2275.29
389.38	2408.41
389.59	2490.33
389.80	2437.08
390.02	2469.85
390.23	2508.76
390.44	2422.75
390.66	2428.89
390.87	2420.70
391.08	2473.95
391.30	2641.88
391.51	2592.73
391.72	2596.82
391.94	2564.06
392.15	2598.87
392.36	2523.10
392.58	2473.95
392.79	2586.58
393.00	2586.58
393.22	2670.55
393.43	2641.88
393.64	2760.66
393.85	2615.26
394.07	2676.70
394.28	2707.41
394.49	2723.80
394.71	2701.27
394.92	2785.24
395.13	2678.74
395.35	2705.37
395.56	2656.22
395.77	2705.37
395.98	2674.65
396.20	2858.96
396.41	2803.67
396.62	2883.54
396.84	2688.98
397.05	2877.40
397.26	2731.99
397.47	2912.21
397.69	2777.05
397.90	3016.66
398.11	2842.58
398.32	2914.26
398.54	2815.96
398.75	2908.12
398.96	3012.56
399.18	2953.17
399.39	2940.88
399.60	3004.37
399.81	2805.72
400.03	2908.12
400.24	3264.46
400.45	2959.31
400.66	3039.19
400.88	2969.55
401.09	3096.53
401.30	3104.72
401.51	3157.97
401.73	3123.15
401.94	3127.25
402.15	3043.28
402.36	3117.01
402.58	3194.83
402.79	3176.40
403.00	3166.16
403.21	3180.50
403.43	3289.04
403.64	3276.75
403.85	3137.49
404.06	3221.45
404.27	3125.20
404.49	3088.34
404.70	3176.40
404.91	3270.61
405.12	3342.28
405.34	3233.74
405.55	3399.63
405.76	3166.16
405.97	3192.78
406.19	3360.72
406.40	3200.98
406.61	3321.81
406.82	3391.44
407.03	3266.51
407.25	3286.99
407.46	3379.15
407.67	3399.63
407.88	3444.68
408.09	3426.25
408.31	3424.20
408.52	3477.45
408.73	3289.04
408.94	3332.05
409.15	3422.16
409.37	3565.51
409.58	3477.45
409.79	3493.83
410.00	3573.71
410.21	3512.27
410.43	3559.37
410.64	3463.12
410.85	3454.92
411.06	3522.51
411.27	3602.38
411.48	3489.74
411.70	3579.85
411.91	3579.85
412.12	3624.90
412.33	3641.29
412.54	3571.66
412.76	3643.34
412.97	3674.06
413.18	3542.99
413.39	3743.69
413.60	3622.86
413.81	3657.67
414.03	3516.36
414.24	3581.90
414.45	3901.38
414.66	3510.22
414.87	3721.16
415.08	3674.06
415.30	3741.64
415.51	3706.82
415.72	3794.89
415.93	3702.73
416.14	3844.04
416.35	3841.99
416.56	3774.41
416.78	3794.89
416.99	3907.52
417.20	3895.24
417.41	3928.00
417.62	3848.13
417.83	4038.59
418.04	3989.44
418.26	3899.33
418.47	3903.43
418.68	3940.29
418.89	3827.65
419.10	4167.62
419.31	3968.96
419.52	4157.38
419.73	4007.87
419.95	4097.99
420.16	3989.44
420.37	4083.65
420.58	4048.83
420.79	4042.69
421.00	4112.32
421.21	4093.89
421.42	4026.31
421.63	4145.09
421.85	4118.47
422.06	4247.49
422.27	4159.42
422.48	4227.01
422.69	4280.25
422.90	4290.49
423.11	4294.59
423.32	4425.66
423.53	4417.47
423.75	4341.69
423.96	4409.28
424.17	4392.89
424.38	4396.99
424.59	4480.96
424.80	4622.27
425.01	4464.57
425.22	4380.61
425.43	4421.56
425.64	4671.42
425.85	4794.29
426.06	4560.83
426.28	4640.70
426.49	4534.20
426.70	4421.56
426.91	4540.35
427.12	4671.42
427.33	4652.98
427.54	4597.69
427.75	4765.62
427.96	4741.05
428.17	4974.52
428.38	4726.71
428.59	4960.18
428.80	4757.43
429.01	4761.53
429.23	4796.34
429.44	4927.41
429.65	5097.39
429.86	5011.38
430.07	4915.12
430.28	4870.07
430.49	5052.34
430.70	5222.32
430.91	5152.69
431.12	5001.14
431.33	5156.79
431.54	5081.01
431.75	5154.74
431.96	5226.42
432.17	5081.01
432.38	5066.67
432.59	5207.98
432.80	5279.66
433.01	5377.97
433.22	5349.29
433.43	5294.00
433.64	5308.34
433.85	5111.73
434.06	5353.39
434.27	5277.62
434.49	5369.77
434.70	5414.83
434.91	5531.56
435.12	5480.36
435.33	5506.99
435.54	5463.98
435.75	5304.24
435.96	5410.73
436.17	5271.47
436.38	5705.64
436.59	5687.21
436.80	5461.93
437.01	5795.75
437.22	5773.22
437.43	5611.43
437.64	5515.18
437.85	5748.65
438.06	5797.80
438.27	5709.74
438.48	5717.93
438.69	5842.85
438.90	5797.80
439.11	5765.03
439.32	5910.44
439.53	5851.05
439.74	5846.95
439.95	5990.31
440.16	5783.46
440.37	5840.81
440.57	5754.79
440.78	5914.53
440.99	6014.88
441.20	5898.15
441.41	5900.20
441.62	5994.40
441.83	5980.07
442.04	6160.29
442.25	5990.31
442.46	6053.80
442.67	6217.63
442.88	6551.45
443.09	5937.06
443.30	6270.88
443.51	6064.04
443.72	6373.28
443.93	6213.54
444.14	6315.94
444.35	6215.59
444.56	6401.95
444.77	6252.45
444.98	6307.74
445.19	6303.65
445.40	6397.85
445.61	6320.03
445.81	6664.09
446.02	6412.19
446.23	6563.74
446.44	6383.52
446.65	6451.10
446.86	6637.47
447.07	6481.82
447.28	6522.78
447.49	6641.56
447.70	6651.80
447.91	6557.60
448.12	6696.86
448.33	6678.43
448.54	6569.88
448.74	6647.71
448.95	6690.71
449.16	6780.82
449.37	7073.68
449.58	6778.78
449.79	6997.91
450.00	6756.25
450.21	6909.85
450.42	7022.48
450.63	7131.03
450.84	6940.57
451.05	7061.40
451.25	7020.44
451.46	6915.99
451.67	7192.47
451.88	7073.68
452.09	7272.34
452.30	7122.84
452.51	7149.46
452.72	7296.91
452.93	7458.70
453.13	7141.27
453.34	7243.67
453.55	7311.25
453.76	7313.30
453.97	7640.97
454.18	7333.78
454.39	7694.22
454.60	7368.59
454.81	7520.14
455.01	7802.76
455.22	7475.09
455.43	7624.59
455.64	7790.47
455.85	7876.49
456.06	7933.83
456.27	7827.34
456.48	7862.15
456.68	7798.66
456.89	8034.18
457.10	7899.02
457.31	8099.72
457.52	7931.78
457.73	7991.17
457.94	8298.37
458.14	7919.50
458.35	8447.87
458.56	8202.11
458.77	8171.40
458.98	8437.63
459.19	8281.99
459.39	8458.11
459.60	8642.43
459.81	8236.93
460.02	8441.73
460.23	8449.92
460.44	8728.44
460.65	8521.60
460.85	8908.66
461.06	8884.09
461.27	8634.24
461.48	8871.80
461.69	8802.17
461.89	8619.90
462.10	9105.27
462.31	8640.38
462.52	8884.09
462.73	8984.44
462.94	9357.17
463.14	9222.00
463.35	9092.98
463.56	9389.94
463.77	9301.87
463.98	9158.52
464.18	9391.98
464.39	9557.87
464.60	9549.68
464.81	9580.40
465.02	9482.10
465.23	9891.69
465.43	9660.27
465.64	9916.26
465.85	9746.28
466.06	9621.36
466.27	10227.56
466.47	9944.94
466.68	9994.09
466.89	10026.86
467.10	10252.13
467.30	9930.60
467.51	10391.39
467.72	10506.08
467.93	10229.60
468.14	10436.45
468.34	10635.10
468.55	10454.88
468.76	10547.04
468.97	10469.22
469.17	10688.35
469.38	11028.31
469.59	10864.47
469.80	10813.28
470.01	10985.30
470.21	10872.67
470.42	11089.75
470.63	11077.46
470.84	11181.91
471.04	11310.93
471.25	11433.81
471.46	11382.61
471.67	11532.11
471.87	11581.26
472.08	11816.78
472.29	11960.14
472.50	11417.43
472.70	11571.02
472.91	11765.58
473.12	12060.49
473.33	11904.84
473.53	12226.37
473.74	12224.33
473.95	12257.09
474.16	12511.04
474.36	12257.09
474.57	12697.41
474.78	12848.96
474.99	12801.85
475.19	12519.23
475.40	13047.61
475.61	12846.91
475.81	13002.55
476.02	13215.54
476.23	13086.52
476.44	13084.47
476.64	13399.86
476.85	13666.10
477.06	13545.27
477.27	13795.12
477.47	13756.21
477.68	13913.90
477.89	13844.27
478.09	13881.13
478.30	13801.26
478.51	14163.75
478.71	14204.71
478.92	14294.82
479.13	14321.45
479.34	14610.21
479.54	14628.64
479.75	14534.43
479.96	14604.07
480.16	15019.80
480.37	15003.42
480.58	15101.72
480.78	15505.17
480.99	14935.84
481.20	15091.48
481.41	15240.98
481.61	15529.75
481.82	15617.81
482.03	15476.50
482.23	15703.82
482.44	15826.70
482.65	15871.76
482.85	16158.47
483.06	16160.52
483.27	16191.24
483.47	16166.67
483.68	16375.56
483.89	16377.61
484.09	16512.77
484.30	16635.65
484.51	16867.07
484.71	16826.11
484.92	16965.37
485.13	16989.95
485.33	17063.68
485.54	17153.79
485.75	17106.68
485.95	17499.89
486.16	17301.24
486.37	17628.92
486.57	17698.55
486.78	17522.42
486.98	17663.73
487.19	18091.76
487.40	18224.87
487.60	18073.32
487.81	18196.20
488.02	18204.39
488.22	18259.69
488.43	18413.29
488.64	18503.40
488.84	18364.14
489.05	18783.97
489.25	18728.67
489.46	18888.42
489.67	18722.53
489.87	19232.47
490.08	19123.93
490.29	19121.88
490.49	19375.83
490.70	19459.80
490.90	19713.75
491.11	19551.96
491.32	19814.10
491.52	19756.75
491.73	19803.86
491.94	19975.89
492.14	20031.18
492.35	20281.03
492.55	20037.33
492.76	20356.81
492.97	20461.26
493.17	20321.99
493.38	20686.53
493.58	20870.85
493.79	20776.64
494.00	20635.33
494.20	20928.19
494.41	21061.31
494.61	21192.38
494.82	21061.31
495.02	21042.88
495.23	21653.17
495.44	21368.51
495.64	21606.07
495.85	21663.41
496.05	21507.77
496.26	21663.41
496.47	22023.86
496.67	21765.81
496.88	22087.34
497.08	21898.93
497.29	22394.54
497.49	22232.75
497.70	22365.87
497.91	22476.46
498.11	22357.67
498.32	22263.47
498.52	22484.65
498.73	22564.52
498.93	22769.32
499.14	22867.62
499.34	22898.34
499.55	23002.78
499.76	23092.90
499.96	23119.52
500.17	23131.81
500.37	23199.39
500.58	23420.57
500.78	23631.51
500.99	23785.11
501.19	24030.87
501.40	23703.19
501.60	23490.20
501.81	23877.27
502.02	23826.07
502.22	23725.72
502.43	24241.81
502.63	24471.18
502.84	23940.75
503.04	24190.61
503.25	24030.87
503.45	24159.89
503.66	24645.26
503.86	24252.05
504.07	24688.26
504.27	24497.80
504.48	24852.10
504.68	24544.91
504.89	24921.73
505.09	24802.95
505.30	25026.18
505.50	24948.36
505.71	25192.06
505.91	25298.56
506.12	25366.14
506.32	25161.34
506.53	25278.08
506.73	25659.00
506.94	25478.78
507.14	25757.30
507.35	25413.24
507.55	25808.50
507.76	25554.55
507.96	25595.51
508.17	25714.30
508.37	25646.71
508.58	25814.65
508.78	25912.95
508.99	26136.18
509.19	26156.66
509.40	26390.13
509.60	26156.66
509.81	26314.35
510.01	26226.29
510.22	26170.99
510.42	26140.27
510.63	26551.91
510.83	26908.26
511.04	26576.49
511.24	26883.69
511.44	26656.36
511.65	26918.50
511.85	26488.43
512.06	27070.05
512.26	26996.32
512.47	27262.56
512.67	27068.00
512.88	26895.97
513.08	26801.77
513.29	27125.35
513.49	27221.60
513.69	26963.56
513.90	27395.68
514.10	27588.19
514.31	27350.62
514.51	27379.29
514.72	27418.21
514.92	27645.53
515.13	27352.67
515.33	27192.93
515.53	27942.49
515.74	27881.05
515.94	28059.22
516.15	27760.22
516.35	27668.06
516.56	28225.11
516.76	28120.66
516.96	27815.51
517.17	28024.40
517.37	28165.71
517.58	28118.61
517.78	28472.91
517.99	28477.01
518.19	28710.47
518.39	28894.79
518.60	28796.49
518.80	28546.64
519.01	28939.85
519.21	28616.27
519.41	28712.52
519.62	29054.53
519.82	29085.25
520.03	29021.77
520.23	29120.07
520.43	28827.21
520.64	29320.77
520.84	29146.69
521.05	29310.53
521.25	29562.43
521.45	29460.03
521.66	29498.94
521.86	29660.73
522.07	29886.01
522.27	29816.38
522.47	29640.25
522.68	30000.69
522.88	30008.89
523.08	30174.77
523.29	30062.13
523.49	30099.00
523.70	29978.17
523.90	30463.54
524.10	30527.02
524.31	30631.47
524.51	30416.43
524.71	30848.55
524.92	30617.13
525.12	30610.99
525.33	30764.59
525.53	31057.45
525.73	31319.59
525.94	31313.44
526.14	31196.71
526.34	31266.34
526.55	31417.89
526.75	31360.55
526.95	31536.67
527.16	31622.69
527.36	31907.35
527.56	31987.22
527.77	32026.14
527.97	31942.17
528.17	32310.80
528.38	32052.76
528.58	32384.53
528.78	32280.08
528.99	32339.47
529.19	32763.40
529.39	32304.66
529.60	33005.06
529.80	33091.08
530.00	32646.67
530.21	32912.91
530.41	33361.41
530.61	32908.81
530.82	33105.41
531.02	33209.86
531.22	33490.43
531.43	33259.01
531.63	33512.96
531.83	34022.90
532.04	34067.96
532.24	33940.99
532.44	34135.54
532.64	34131.45
532.85	34092.54
533.05	33887.74
533.25	34283.00
533.46	34270.71
533.66	34711.02
533.86	34158.07
534.07	34616.82
534.27	34629.10
534.47	34907.63
534.67	34788.85
534.88	34745.84
535.08	34969.07
535.28	35321.32
535.49	35546.59
535.69	35579.36
535.89	35442.15
536.09	35632.61
536.30	35804.64
536.50	36048.35
536.70	36148.70
536.91	35757.53
537.11	36087.26
537.31	36140.50
537.51	36505.04
537.72	37115.34
537.92	36599.25
538.12	36908.49
538.32	36660.69
538.53	36828.62
538.73	36734.42
538.93	36691.41
539.13	36693.46
539.34	36881.87
539.54	36898.25
539.74	37381.57
539.94	37184.97
540.15	36922.83
540.35	37475.78
540.55	37109.19
540.75	37352.90
540.96	37823.93
541.16	37637.57
541.36	37459.40
541.56	37756.35
541.77	38053.31
541.97	38081.98
542.17	38366.65
542.37	38020.54
542.58	38278.58
542.78	38176.19
542.98	38448.57
543.18	38413.75
543.38	38841.78
543.59	38530.48
543.79	38307.26
543.99	38469.04
544.19	38935.98
544.40	38821.30
544.60	39378.34
544.80	39050.67
545.00	39003.56
545.20	39269.80
545.41	39169.45
545.61	38989.23
545.81	39267.75
546.01	39533.99
546.21	39323.05
546.42	39212.46
546.62	39515.56
546.82	39493.03
547.02	39368.10
547.22	39554.47
547.43	39527.84
547.63	39728.55
547.83	39691.68
548.03	39630.24
548.23	40183.19
548.44	39990.69
548.64	40369.56
548.84	40082.84
549.04	40564.12
549.24	40486.29
549.45	40717.71
549.65	40340.89
549.85	40326.55
550.05	40641.94
550.25	40420.76
550.45	40994.19
550.66	40902.03
550.86	40531.35
551.06	41276.81
551.26	40744.34
551.46	40922.51
551.66	40947.09
551.87	41072.01
552.07	41299.34
552.27	41151.88
552.47	41452.94
552.67	41047.44
552.87	41698.69
553.07	41033.10
553.28	41133.45
553.48	41481.61
553.68	41268.62
553.88	41749.89
554.08	41409.93
554.28	41473.42
554.48	41368.97
554.69	41684.36
554.89	41461.13
555.09	41813.38
555.29	41799.04
555.49	41835.91
555.69	41557.38
555.89	42354.04
556.10	41989.50
556.30	42046.85
556.50	41960.83
556.70	42214.78
556.90	42370.43
557.10	42306.94
557.30	42286.46
557.50	42335.61
557.70	42192.25
557.91	42513.78
558.11	42302.84
558.31	42417.53
558.51	42491.26
558.71	42190.20
558.91	42511.74
559.11	42315.13
559.31	42526.07
559.51	42243.45
559.72	42655.09
559.92	42354.04
560.12	42509.69
560.32	42734.96
560.52	42532.22
560.72	42823.03
560.92	43240.81
561.12	42861.94
561.32	43152.75
561.52	43144.56
561.72	43382.12
561.93	43070.83
562.13	43044.21
562.33	42753.40
562.53	43505.00
562.73	42888.56
562.93	42997.10
563.13	43515.24
563.33	42913.14
563.53	43298.16
563.73	43160.94
563.93	43152.75
564.13	43459.94
564.33	43171.18
564.53	43255.15
564.74	43978.08
564.94	43095.41
565.14	43855.20
565.34	43695.46
565.54	43705.70
565.74	43531.62
565.94	43873.63
566.14	43806.05
566.34	43617.64
566.54	44055.90
566.74	43652.45
566.94	44105.06
567.14	44191.07
567.34	43967.84
567.54	44299.61
567.74	44137.82
567.94	43771.24
568.14	44537.18
568.34	44299.61
568.54	44381.53
568.74	44496.22
568.94	44014.94
569.14	44848.47
569.34	44160.35
569.54	44664.15
569.75	44385.63
569.95	44008.80
570.15	44592.47
570.35	44516.70
570.55	44414.30
570.75	44606.81
570.95	44799.32
571.15	44547.42
571.35	44819.80
571.55	44987.73
571.75	44950.87
571.95	45016.40
572.15	44858.71
572.35	45294.92
572.55	45053.26
572.75	45153.62
572.95	45167.95
573.15	45165.90
573.35	45145.42
573.55	45229.39
573.75	45206.86
573.95	45485.39
574.15	45305.16
574.35	45428.04
574.55	45262.16
574.75	45430.09
574.95	45784.39
575.15	45276.49
575.34	45380.94
575.54	45782.34
575.74	45749.57
575.94	46312.77
576.14	45845.83
576.34	46265.66
576.54	46165.31
576.74	45892.93
576.94	45858.12
577.14	46202.18
577.34	46558.52
577.54	45739.33
577.74	46241.09
577.94	46357.82
578.14	46523.71
578.34	46863.67
578.54	45946.18
578.74	46335.29
578.94	46658.87
579.14	46218.56
579.34	46468.41
579.54	46705.98
579.74	46775.61
579.94	46701.88
580.13	47060.27
580.33	46898.48
580.53	46961.97
580.73	47131.95
580.93	47222.06
581.13	46806.33
581.33	47713.58
581.53	47293.74
581.73	47516.97
581.93	47809.83
582.13	47494.44
582.33	47568.17
582.53	47527.21
582.73	47457.58
582.92	47529.26
583.12	48088.35
583.32	47897.89
583.52	47416.62
583.72	48403.74
583.92	47668.52
584.12	47873.32
584.32	48475.42
584.52	48256.29
584.72	48424.22
584.92	48106.79
585.11	48514.33
585.31	48180.51
585.51	48284.96
585.71	48297.25
585.91	48977.17
586.11	48575.77
586.31	48434.46
586.51	48600.35
586.71	48456.99
586.91	48706.84
587.10	48692.50
587.30	48704.79
587.50	48833.81
587.70	48966.93
587.90	48993.56
588.10	49573.13
588.30	49116.43
588.50	49237.26
588.69	49190.16
588.89	49087.76
589.09	49048.85
589.29	49392.91
589.49	49888.52
589.69	49306.90
589.89	49431.82
590.08	49878.28
590.28	49175.83
590.48	49691.91
590.68	49294.61
590.88	49657.10
591.08	49958.15
591.28	49650.95
591.47	49757.45
591.67	49964.29
591.87	49720.59
592.07	49820.94
592.27	49886.47
592.47	50281.73
592.67	50586.88
592.86	50011.40
593.06	50533.63
593.26	50162.95
593.46	50091.27
593.66	50435.33
593.86	50164.99
594.05	50388.22
594.25	50347.26
594.45	50498.81
594.65	50408.70
594.85	50066.69
595.05	50722.04
595.24	50724.09
595.44	50988.28
595.64	50947.32
595.84	50822.39
596.04	50949.37
596.23	51176.69
596.43	51129.59
596.63	50918.65
596.83	50625.79
597.03	51174.64
597.22	51485.93
597.42	51193.07
597.62	51614.96
597.82	51705.07
598.02	51182.84
598.21	51764.46
598.41	51617.00
598.61	51811.56
598.81	51715.31
599.01	51682.54
599.20	51936.49
599.40	51399.92
599.60	51782.89
599.80	52258.02
600.00	51447.02
600.19	52411.62
600.39	51229.94
600.59	51852.52
600.79	51844.33
600.98	52112.61
601.18	52290.79
601.38	52296.93
601.58	52761.82
601.78	52546.78
601.97	52354.27
602.17	52602.08
602.37	52554.97
602.57	52976.86
602.76	53380.31
602.96	52391.14
603.16	52708.57
603.36	52929.75
603.55	53470.42
603.75	52884.70
603.95	52661.47
604.15	52755.68
604.34	52909.27
604.54	52985.05
604.74	53327.06
604.94	52978.90
605.13	53183.70
605.33	53163.22
605.53	53200.08
605.73	53818.57
605.92	53376.21
606.12	53961.93
606.32	53468.37
606.52	53261.52
606.71	53628.11
606.91	53738.70
607.11	53327.06
607.30	53628.11
607.50	53966.02
607.70	53908.68
607.90	54056.14
608.09	54084.81
608.29	53492.94
608.49	54015.18
608.68	53671.12
608.88	54017.22
609.08	53920.97
609.28	54039.75
609.47	53990.60
609.67	54066.38
609.87	54348.99
610.06	54412.48
610.26	53978.31
610.46	54551.74
610.66	54138.05
610.85	54547.65
611.05	54604.99
611.25	54271.17
611.44	54004.94
611.64	54602.94
611.84	54680.77
612.03	54138.05
612.23	54736.06
612.43	54252.74
612.62	54320.32
612.82	54342.85
613.02	54113.48
613.21	54551.74
613.41	54488.26
613.61	54518.98
613.80	53923.02
614.00	54236.36
614.20	54547.65
614.39	54623.42
614.59	55155.89
614.79	54543.55
614.98	54734.01
615.18	54940.86
615.38	54727.87
615.57	54443.20
615.77	54310.08
615.97	54787.26
616.16	54654.14
616.36	54369.47
616.56	54670.53
616.75	54703.29
616.95	54432.96
617.15	54598.85
617.34	54482.11
617.54	54877.37
617.74	54889.66
617.93	55235.77
618.13	54215.88
618.32	54844.60
618.52	54910.14
618.72	55057.59
618.91	54783.16
619.11	54004.94
619.31	54875.32
619.50	54949.05
619.70	54752.44
619.90	54494.40
620.09	54547.65
620.29	54424.77
620.48	54977.72
620.68	54924.47
620.88	54248.64
621.07	54367.43
621.27	54793.40
621.46	54363.33
621.66	54428.87
621.86	54291.65
622.05	54011.08
622.25	54916.28
622.44	54080.71
622.64	54346.95
622.84	54873.27
623.03	54047.94
623.23	54361.28
623.42	54580.42
623.62	54852.80
623.82	54590.66
624.01	54564.03
624.21	54906.04
624.40	54230.21
624.60	54037.70
624.80	54383.81
624.99	54342.85
625.19	54277.32
625.38	54650.05
625.58	54488.26
625.77	54426.82
625.97	54424.77
626.17	54156.49
626.36	54791.36
626.56	54469.82
626.75	54305.99
626.95	54934.71
627.14	54340.80
627.34	54981.82
627.54	54138.05
627.73	54688.96
627.93	54723.77
628.12	54289.60
628.32	54318.28
628.51	54543.55
628.71	54559.94
628.90	54494.40
629.10	54568.13
629.30	54357.19
629.49	54879.42
629.69	54443.20
629.88	54414.53
630.08	54523.07
630.27	55248.05
630.47	54979.77
630.66	54652.09
630.86	55069.88
631.05	54101.19
631.25	54693.05
631.44	54406.34
631.64	54365.38
631.84	54584.51
632.03	55088.31
632.23	54875.32
632.42	55289.01
632.62	54617.28
632.81	54422.72
633.01	54535.36
633.20	54981.82
633.40	54629.57
633.59	54699.20
633.79	54625.47
633.98	54555.84
634.18	54838.46
634.37	54871.23
634.57	54891.71
634.76	54697.15
634.96	55043.26
635.15	54805.69
635.35	54736.06
635.54	54457.54
635.74	54926.52
635.93	54846.65
636.13	55059.64
636.32	55116.98
636.52	54336.71
636.71	54701.25
636.91	55481.52
637.10	55196.85
637.30	54809.79
637.49	54617.28
637.69	55174.33
637.88	55133.37
638.08	54742.20
638.27	55280.82
638.46	55080.12
638.66	55051.45
638.85	55108.79
639.05	55313.59
639.24	55327.92
639.44	55080.12
639.63	55129.27
639.83	55073.98
640.02	55309.49
640.22	55415.99
640.41	55246.00
640.61	54420.67
640.80	55274.68
640.99	55432.37
641.19	55925.93
641.38	55174.33
641.58	55317.68
641.77	55088.31
641.97	55223.48
642.16	55213.24
642.36	55571.63
642.55	56013.99
642.74	55438.51
642.94	55878.83
643.13	55719.09
643.33	55336.12
643.52	55413.94
643.72	55530.67
643.91	55260.34
644.10	55559.34
644.30	55575.73
644.49	55893.16
644.69	55256.24
644.88	55262.39
645.08	55250.10
645.27	55733.42
645.46	55252.15
645.66	56116.39
645.85	55411.89
646.05	55915.69
646.24	56061.10
646.43	55524.53
646.63	56237.22
646.82	56034.47
647.02	55942.31
647.21	55966.89
647.40	55989.42
647.60	56380.58
647.79	55694.51
647.99	56038.57
648.18	55956.65
648.37	56886.43
648.57	56126.63
648.76	56249.51
648.96	55964.84
649.15	55856.30
649.34	56259.75
649.54	56308.90
649.73	55899.31
649.92	56804.51
650.12	56224.93
650.31	56960.15
650.51	56624.29
650.70	56294.56
650.89	55878.83
651.09	56857.76
651.28	56683.68
651.47	56382.63
651.67	56513.70
651.86	56786.08
652.06	55872.68
652.25	56450.21
652.44	56579.23
652.64	56167.59
652.83	56374.44
653.02	56276.13
653.22	56403.11
653.41	56450.21
653.60	56206.50
653.80	56513.70
653.99	56761.50
654.18	56609.95
654.38	56341.67
654.57	56472.74
654.76	56335.52
654.96	56458.40
655.15	56235.17
655.34	56540.32
655.54	56237.22
655.73	56759.45
655.92	56568.99
656.12	56720.54
656.31	56747.17
656.50	56681.63
656.70	56691.87
656.89	56683.68
657.08	56478.88
657.28	56775.84
657.47	56677.54
657.66	56659.10
657.86	56710.30
658.05	56726.69
658.24	56896.67
658.43	56876.19
658.63	57115.80
658.82	57148.57
659.01	57240.73
659.21	57197.72
659.40	56974.49
659.59	56525.99
659.79	56827.04
659.98	57074.84
660.17	57359.51
660.36	57048.22
660.56	57246.87
660.75	56929.44
660.94	57001.11
661.14	57101.46
661.33	57230.49
661.52	56566.94
661.71	57410.71
661.91	56618.14
662.10	57060.51
662.29	57257.11
662.49	57076.89
662.68	57361.56
662.87	57058.46
663.06	56890.52
663.26	57005.21
663.45	57367.70
663.64	57273.49
663.83	56968.35
664.03	57382.04
664.22	57052.31
664.41	57228.44
664.60	56839.32
664.80	56648.86
664.99	57324.69
665.18	57185.43
665.37	57054.36
665.57	57009.31
665.76	56788.13
665.95	56779.93
666.14	57031.83
666.34	57164.95
666.53	56616.10
666.72	57044.12
666.91	56401.06
667.11	56702.11
667.30	57207.96
667.49	57103.51
667.68	56919.20
667.87	56695.97
668.07	57123.99
668.26	56966.30
668.45	56900.76
668.64	56589.47
668.84	57324.69
669.03	57205.91
669.22	57046.17
669.41	56902.81
669.60	57095.32
669.80	56859.80
669.99	57132.18
670.18	57253.01
670.37	56804.51
670.57	57197.72
670.76	56775.84
670.95	57287.83
671.14	57136.28
671.33	57037.98
671.53	57107.61
671.72	57218.20
671.91	56837.28
672.10	56882.33
672.29	56755.36
672.48	56933.53
672.68	57201.82
672.87	56673.44
673.06	56927.39
673.25	56700.06
673.44	56640.67
673.64	56571.04
673.83	56384.68
674.02	56650.91
674.21	57040.03
674.40	57513.11
674.59	56501.41
674.79	56994.97
674.98	56313.00
675.17	56902.81
675.36	56458.40
675.55	56816.80
675.74	56501.41
675.94	56718.49
676.13	56892.57
676.32	57371.80
676.51	56575.14
676.70	56681.63
676.89	56724.64
677.08	56845.47
677.28	56222.89
677.47	56534.18
677.66	56706.21
677.85	56482.98
678.04	56816.80
678.23	56749.21
678.42	56814.75
678.62	56550.56
678.81	56302.76
679.00	56458.40
679.19	57238.68
679.38	56325.28
679.57	56833.18
679.76	56818.84
679.96	56972.44
680.15	56448.16
680.34	56190.12
680.53	56009.90
680.72	56724.64
680.91	56132.78
681.10	56169.64
681.29	56568.99
681.48	55932.07
681.68	56341.67
681.87	55966.89
682.06	56028.33
682.25	55913.64
682.44	55970.99
682.63	56175.78
682.82	56128.68
683.01	55975.08
683.20	56081.58
683.39	55889.07
683.59	56159.40
683.78	55805.10
683.97	55958.70
684.16	56173.73
684.35	55915.69
684.54	55712.94
684.73	56016.04
684.92	55805.10
685.11	55559.34
685.30	55803.05
685.49	56198.31
685.69	55821.48
685.88	55762.09
686.07	55669.93
686.26	55506.10
686.45	55780.52
686.64	55463.09
686.83	55678.13
687.02	55870.64
687.21	55614.64
687.40	55602.35
687.59	55557.30
687.78	55076.02
687.97	55751.85
688.16	55604.40
688.35	55194.81
688.54	55325.88
688.74	55215.29
688.93	55256.24
689.12	55106.74
689.31	55276.72
689.50	55598.26
689.69	55076.02
689.88	54914.23
690.07	54961.34
690.26	55297.20
690.45	55413.94
690.64	55235.77
690.83	54885.56
691.02	55030.97
691.21	55071.93
691.40	55104.70
691.59	55219.38
691.78	54805.69
691.97	55159.99
692.16	54906.04
692.35	54832.32
692.54	54660.29
692.73	55008.44
692.92	54662.33
693.11	54758.59
693.30	55037.11
693.49	54682.81
693.68	54885.56
693.87	54383.81
694.06	54445.25
694.25	54469.82
694.44	54858.94
694.63	54660.29
694.82	54641.85
695.01	54297.80
695.20	54506.69
695.39	53896.39
695.58	54351.04
695.77	54072.52
695.96	53458.13
696.15	54639.81
696.34	54265.03
696.53	54211.78
696.72	54465.73
696.91	54281.41
697.10	54451.39
697.29	54037.70
697.48	54703.29
697.67	54047.94
697.86	53935.30
698.05	53910.73
698.24	54219.97
698.43	53753.04
698.62	54078.66
698.81	53943.50
699.00	54015.18
699.19	53562.57
699.38	54236.36
699.57	53658.83
699.76	54150.34
699.95	53515.47
700.14	53802.19
700.32	54103.24
700.51	53744.84
700.70	53925.07
700.89	53923.02
701.08	53789.90
701.27	53617.87
701.46	53847.24
701.65	52905.18
701.84	54297.80
702.03	53429.46
702.22	53634.25
702.41	53671.12
702.60	53368.02
702.79	53435.60
702.98	53488.85
703.17	53609.68
703.35	53292.24
703.54	53451.98
703.73	53675.21
703.92	53216.47
704.11	53152.98
704.30	52839.64
704.49	52868.31
704.68	53105.88
704.87	53030.10
705.06	52927.70
705.25	52878.55
705.43	52868.31
705.62	53146.84
705.81	52993.24
706.00	53077.21
706.19	52804.83
706.38	52794.59
706.57	52628.70
706.76	52643.04
706.95	52655.32
707.14	52366.56
707.32	52319.46
707.51	52499.68
707.70	52837.59
707.89	52155.62
708.08	52225.25
708.27	52692.19
708.46	52640.99
708.65	52393.18
708.84	52622.56
709.02	52684.00
709.21	52995.29
709.40	52428.00
709.59	52538.59
709.78	52008.17
709.97	52770.01
710.16	52282.59
710.34	52729.05
710.53	52479.20
710.72	52120.80
710.91	52417.76
711.10	52190.44
711.29	52131.04
711.48	52350.18
711.66	52047.08
711.85	51965.16
712.04	51922.15
712.23	52544.73
712.42	51881.19
712.61	52092.13
712.80	51866.86
712.98	52024.55
713.17	51967.21
713.36	51764.46
713.55	51571.95
713.74	51885.29
713.93	51950.82
714.11	51635.44
714.30	51422.45
714.49	51567.85
714.68	51592.43
714.87	51467.50
715.06	51578.09
715.24	51504.37
715.43	51485.93
715.62	51293.43
715.81	51272.95
716.00	51318.00
716.18	51217.65
716.37	51193.07
716.56	51096.82
716.75	51287.28
716.94	51584.24
717.12	50838.78
717.31	50881.78
717.50	51246.32
717.69	51270.90
717.88	51340.53
718.06	51115.25
718.25	51256.56
718.44	51016.95
718.63	50728.19
718.82	50519.29
719.00	50830.58
719.19	50769.15
719.38	50810.10
719.57	49935.62
719.76	50285.82
719.94	50046.21
720.13	50435.33
720.32	50468.09
720.51	50584.83
720.69	50203.91
720.88	50146.56
721.07	50304.26
721.26	49491.21
721.44	49927.43
721.63	49980.68
721.82	49677.58
722.01	50175.23
722.20	49734.92
722.38	49587.47
722.57	49401.10
722.76	49751.30
722.95	49960.20
723.13	49558.80
723.32	49327.38
723.51	49126.67
723.70	49161.49
723.88	49620.23
724.07	49534.22
724.26	49276.18
724.44	48940.31
724.63	49544.46
724.82	49263.89
725.01	49349.90
725.19	48999.70
725.38	49243.41
725.57	49038.61
725.76	49329.42
725.94	49243.41
726.13	48874.77
726.32	48946.45
726.51	48977.17
726.69	49235.22
726.88	49218.83
727.07	48835.86
727.25	48823.58
727.44	48993.56
727.63	48665.88
727.82	48377.12
728.00	48516.38
728.19	48604.44
728.38	49126.67
728.56	47625.51
728.75	48774.42
728.94	48917.78
729.12	49077.52
729.31	48403.74
729.50	48981.27
729.69	48678.17
729.87	48850.20
730.06	48534.81
730.25	48731.42
730.43	48977.17
730.62	48504.09
730.81	48753.94
730.99	48958.74
731.18	48454.94
731.37	48590.11
731.55	49175.83
731.74	48977.17
731.93	48475.42
732.11	48829.72
732.30	48530.72
732.49	48520.48
732.67	48450.84
732.86	48706.84
733.05	48348.45
733.23	48438.56
733.42	48346.40
733.61	48534.81
733.79	48497.95
733.98	48997.65
734.17	48622.87
734.35	48944.41
734.54	48868.63
734.73	48700.70
734.91	48162.08
735.10	48278.82
735.29	48698.65
735.47	48080.16
735.66	48444.70
735.84	48229.66
736.03	48166.18
736.22	48764.18
736.40	47891.75
736.59	48631.07
736.78	48061.73
736.96	47924.52
737.15	48465.18
737.33	47760.68
737.52	47803.69
737.71	47924.52
737.89	48071.97
738.08	47584.55
738.27	47875.37
738.45	48463.13
738.64	48235.81
738.82	48002.34
739.01	47981.86
739.20	47568.17
739.38	47955.24
739.57	48080.16
739.75	48035.11
739.94	47559.98
740.13	47797.54
740.31	47654.18
740.50	47865.13
740.68	48014.63
740.87	47617.32
741.06	47856.93
741.24	47854.89
741.43	47164.72
741.61	47889.70
741.80	47443.24
741.99	47267.12
742.17	47453.48
742.36	47453.48
742.54	47258.93
742.73	47406.38
742.91	47633.71
743.10	47207.73
743.29	47594.79
743.47	47457.58
743.66	47295.79
743.84	47588.65
744.03	47299.89
744.21	47222.06
744.40	47600.94
744.59	47058.23
744.77	46839.09
744.96	46923.06
745.14	47295.79
745.33	46927.16
745.51	46912.82
745.70	46959.92
745.88	47011.12
746.07	46982.45
746.26	46685.50
746.44	46894.39
746.63	46759.22
746.81	46900.53
747.00	46484.79
747.18	46679.35
747.37	46701.88
747.55	46867.76
747.74	46961.97
747.92	46460.22
748.11	47007.03
748.29	46464.32
748.48	46773.56
748.66	46001.47
748.85	46638.39
749.03	46568.76
749.22	46421.31
749.41	45899.08
749.59	46705.98
749.78	46138.69
749.96	45958.47
750.15	46110.02
750.33	46472.51
750.52	46318.91
750.70	46392.64
750.89	46202.18
751.07	45948.23
751.26	46310.72
751.44	46077.25
751.63	45917.51
751.81	45411.66
752.00	46034.24
752.18	46378.30
752.37	45763.91
752.55	45307.21
752.74	45161.81
752.92	45567.30
753.10	45782.34
753.29	45352.27
753.47	45700.42
753.66	45563.21
753.84	45409.61
754.03	45256.01
754.21	45235.53
754.40	45202.77
754.58	45528.39
754.77	45081.94
754.95	44741.97
755.14	45088.08
755.32	45303.12
755.51	44600.66
755.69	44725.59
755.88	44762.45
756.06	44905.81
756.24	44522.84
756.43	44598.62
756.61	45161.81
756.80	44721.49
756.98	44713.30
757.17	44647.77
757.35	44653.91
757.54	44625.24
757.72	44825.94
757.90	44488.03
758.09	44397.91
758.27	44576.09
758.46	44477.79
758.64	44475.74
758.83	44653.91
759.01	44619.10
759.19	44287.32
759.38	44604.76
759.56	44365.15
759.75	44160.35
759.93	44283.23
760.12	44096.86
760.30	44262.75
760.48	44244.32
760.67	43994.46
760.85	43816.29
761.04	44125.53
761.22	44098.91
761.40	44166.49
761.59	43840.87
761.77	43617.64
761.96	43619.69
762.14	43783.52
762.32	43410.79
762.51	43335.02
762.69	43478.38
762.88	43548.01
763.06	43509.10
763.24	43593.06
763.43	43484.52
763.61	42993.01
763.80	43371.88
763.98	43017.58
764.16	43451.75
764.35	42702.20
764.53	42972.53
764.72	43093.36
764.90	42745.20
765.08	43066.73
765.27	43124.08
765.45	42450.30
765.63	42554.74
765.82	42790.26
766.00	42892.66
766.18	42894.71
766.37	42691.96
766.55	42694.00
766.74	42456.44
766.92	42388.86
767.10	42259.84
767.29	42497.40
767.47	42163.58
767.65	42292.60
767.84	41813.38
768.02	42509.69
768.20	41846.15
768.39	42319.23
768.57	42327.42
768.75	41995.65
768.94	41710.98
769.12	41917.82
769.30	41813.38
769.49	41993.60
769.67	41561.48
769.85	41545.09
770.04	41678.21
770.22	41444.74
770.40	41491.85
770.59	41088.40
770.77	41563.53
770.95	41461.13
771.14	41289.10
771.32	41061.77
771.50	41186.70
771.69	41450.89
771.87	41184.65
772.05	40961.42
772.24	40615.32
772.42	41059.73
772.60	40928.66
772.78	40609.17
772.97	40598.93
773.15	40758.67
773.33	40633.75
773.52	40619.41
773.70	40992.14
773.88	40668.56
774.07	40975.76
774.25	40150.43
774.43	40955.28
774.61	40861.07
774.80	41006.48
774.98	40664.47
775.16	40924.56
775.34	40445.33
775.53	40809.87
775.71	40912.27
775.89	40920.46
776.08	40600.98
776.26	40830.35
776.44	41012.62
776.62	40525.21
776.81	40629.65
776.99	40947.09
777.17	40578.45
777.35	40637.84
777.54	40885.65
777.72	40750.48
777.90	40818.07
778.08	41129.36
778.27	41080.21
778.45	41049.49
778.63	41215.37
778.81	41057.68
779.00	41448.84
779.18	41035.15
779.36	41457.03
779.54	40959.38
779.73	40891.79
779.91	41362.82
780.09	41241.99
780.27	41379.21
780.46	41334.15
780.64	41682.31
780.82	41137.55
781.00	41313.67
781.19	41403.78
781.37	41596.29
781.55	41506.18
781.73	41733.51
781.91	41581.96
782.10	40920.46
782.28	41323.91
782.46	41663.88
782.64	41627.01
782.82	41655.68
783.01	41510.28
783.19	41741.70
783.37	41590.15
783.55	41405.83
783.74	41928.06
783.92	41366.92
784.10	41952.64
784.28	41514.37
784.46	41055.63
784.64	41239.95
784.83	41362.82
785.01	41737.60
785.19	41473.42
785.37	41704.84
785.55	41346.44
785.74	41334.15
785.92	41293.19
786.10	41692.55
786.28	41352.58
786.46	40822.16
786.64	40850.83
786.83	41051.53
787.01	40768.91
787.19	41289.10
787.37	41366.92
787.55	41207.18
787.74	40867.22
787.92	40928.66
788.10	40646.04
788.28	40867.22
788.46	40994.19
788.64	40535.45
788.82	40949.14
789.01	40695.19
789.19	40818.07
789.37	40572.31
789.55	40500.63
789.73	40359.32
789.91	40502.68
790.09	40545.69
790.28	40367.51
790.46	39730.59
790.64	40009.12
790.82	40355.22
791.00	40103.32
791.18	39935.39
791.36	40134.04
791.55	39759.27
791.73	39458.21
791.91	39433.64
792.09	39687.59
792.27	39454.12
792.45	39423.40
792.63	39310.76
792.81	39323.05
793.00	39306.66
793.18	38866.35
793.36	38852.02
793.54	38878.64
793.72	38927.79
793.90	39067.05
794.08	38790.58
794.26	38804.91
794.44	38309.30
794.62	38362.55
794.81	38528.44
794.99	38675.89
795.17	38374.84
795.35	38497.72
795.53	38303.16
795.71	38170.04
795.89	37660.10
796.07	37692.86
796.25	37963.20
796.43	37795.26
796.61	37641.67
796.80	37506.50
796.98	37840.32
797.16	37537.22
797.34	37498.31
797.52	37301.70
797.70	37889.47
797.88	37291.46
798.06	37019.08
798.24	37221.83
798.42	36664.78
798.60	36971.98
798.78	36769.23
798.96	36840.91
799.14	36380.12
799.32	36701.65
799.51	36371.92
799.69	36861.39
799.87	36503.00
800.05	36300.25
800.23	36603.35
800.41	36351.45
800.59	36253.14
800.77	35943.90
800.95	36009.43
801.13	35878.36
801.31	35763.68
801.49	35522.02
801.67	35671.52
801.85	35866.08
802.03	35497.44
802.21	35552.74
802.39	35341.80
802.57	35233.25
802.75	35032.55
802.93	35319.27
803.11	34973.16
803.29	35163.62
803.47	35026.41
803.65	34854.38
803.83	34751.98
804.01	34670.06
804.19	34461.17
804.37	34067.96
804.55	34538.99
804.73	34768.37
804.91	34428.40
805.09	34633.20
805.27	34162.17
805.45	34493.94
805.63	34110.97
805.81	33762.81
805.99	34119.16
806.17	34039.29
806.35	33670.65
806.53	33992.19
806.71	33957.37
806.89	33619.46
807.07	33951.23
807.25	33953.27
807.43	33424.90
807.61	33506.82
807.79	33607.17
807.97	32992.78
808.15	33101.32
808.33	33187.33
808.51	32781.84
808.69	33146.37
808.87	32757.26
809.05	32744.97
809.23	32677.39
809.41	32415.25
809.59	32493.07
809.77	32890.38
809.95	32417.30
810.13	32900.62
810.31	32314.90
810.49	32902.67
810.67	32509.46
810.84	32693.77
811.02	32259.60
811.20	31907.35
811.38	32402.96
811.56	31979.03
811.74	32196.12
811.92	31911.45
812.10	32198.16
812.28	31972.89
812.46	31856.15
812.64	31661.60
812.82	31884.83
813.00	31249.96
813.18	31684.12
813.36	31440.42
813.53	31303.20
813.71	31370.79
813.89	31598.11
814.07	31209.00
814.25	31315.49
814.43	30942.76
814.61	31041.06
814.79	31223.33
814.97	31321.63
815.15	31098.41
815.33	30707.24
815.50	30676.52
815.68	30934.57
815.86	30899.75
816.04	30535.21
816.22	30619.18
816.40	30678.57
816.58	30604.84
816.76	30492.21
816.94	30221.87
817.11	30774.83
817.29	30260.79
817.47	30363.18
817.65	30070.33
817.83	30187.06
818.01	29847.10
818.19	30172.72
818.37	30072.37
818.54	29869.62
818.72	29943.35
818.90	29847.10
819.08	29748.79
819.26	29904.44
819.44	30039.61
819.62	29664.83
819.80	29537.85
819.97	29705.79
820.15	29513.28
820.33	29398.59
820.51	29763.13
820.69	29513.28
820.87	29675.07
821.05	29640.25
821.22	29414.98
821.40	29779.51
821.58	29482.56
821.76	29050.44
821.94	29324.86
822.12	29326.91
822.29	29505.09
822.47	28966.47
822.65	29197.89
822.83	29130.31
823.01	28773.96
823.19	29156.93
823.36	28984.90
823.54	29058.63
823.72	29054.53
823.90	28464.72
824.08	28554.83
824.25	28710.47
824.43	28372.56
824.61	28440.14
824.79	28614.22
824.97	28325.46
825.15	28640.84
825.32	28470.86
825.50	28110.42
825.68	28186.19
825.86	28386.89
826.04	28192.34
826.21	28442.19
826.39	28421.71
826.57	28169.81
826.75	28225.11
826.93	27969.11
827.10	27833.94
827.28	28147.28
827.46	28075.60
827.64	27893.33
827.81	27952.73
827.99	27958.87
828.17	27536.99
828.35	27567.71
828.53	27854.42
828.70	27592.28
828.88	27600.47
829.06	27516.51
829.24	27594.33
829.41	27727.45
829.59	27899.48
829.77	27332.19
829.95	27321.95
830.12	27328.10
830.30	27477.60
830.48	27719.26
830.66	27309.66
830.84	27330.14
831.01	27113.06
831.19	27256.42
831.37	27180.64
831.55	26914.41
831.72	27000.42
831.90	26979.94
832.08	26992.23
832.25	26668.65
832.43	27092.58
832.61	27037.28
832.79	26922.60
832.96	27016.80
833.14	27006.56
833.32	26812.01
833.50	26785.38
833.67	26875.49
833.85	26840.68
834.03	26474.09
834.20	26678.89
834.38	26730.09
834.56	26750.57
834.74	26343.02
834.91	26543.72
835.09	26424.94
835.27	26271.34
835.44	26394.22
835.62	26052.21
835.80	26115.70
835.98	26132.08
836.15	25898.61
836.33	26091.12
836.51	26136.18
836.68	26089.07
836.86	25792.12
837.04	25796.21
837.21	26019.44
837.39	25984.63
837.57	26103.41
837.75	26191.47
837.92	25689.72
838.10	25845.37
838.28	25706.10
838.45	25722.49
838.63	25400.96
838.81	25724.54
838.98	25718.39
839.16	25259.65
839.34	25360.00
839.51	25255.55
839.69	25433.72
839.87	25058.95
840.04	25273.98
840.22	25343.61
840.40	24997.51
840.57	25276.03
840.75	25368.19
840.93	24852.10
841.10	25259.65
841.28	25519.74
841.46	25099.90
841.63	25339.52
841.81	25157.25
841.98	25386.62
842.16	24880.77
842.34	24796.81
842.51	25257.60
842.69	25233.02
842.87	24944.26
843.04	24917.64
843.22	24745.61
843.40	24802.95
843.57	24956.55
843.75	24997.51
843.92	25073.28
844.10	24723.08
844.28	24833.67
844.45	24919.68
844.63	24600.20
844.81	24657.54
844.98	24809.09
845.16	24305.29
845.33	24499.85
845.51	24721.03
845.69	24362.64
845.86	24315.53
846.04	24366.73
846.21	24381.07
846.39	24366.73
846.57	23961.23
846.74	24551.05
846.92	24319.63
847.09	24487.56
847.27	24288.91
847.45	24364.68
847.62	24088.21
847.80	24184.46
847.97	24014.48
848.15	24139.41
848.32	24129.17
848.50	24055.44
848.68	23711.38
848.85	23864.98
849.03	23740.05
849.20	24018.58
849.38	23950.99
849.56	23596.70
849.73	23719.57
849.91	23905.94
850.08	23826.07
850.26	23553.69
850.43	23791.25
850.61	23735.96
850.78	23314.08
850.96	23332.51
851.14	23584.41
851.31	23594.65
851.49	23193.25
851.66	23455.39
851.84	23508.63
852.01	23461.53
852.19	23314.08
852.36	23088.80
852.54	23053.98
852.71	23117.47
852.89	23316.12
853.07	22927.01
853.24	22949.54
853.42	23078.56
853.59	23234.21
853.77	23129.76
853.94	23178.91
854.12	23326.36
854.29	22773.41
854.47	23123.62
854.64	22742.69
854.82	22892.19
854.99	22763.17
855.17	22933.15
855.34	22759.08
855.52	22929.06
855.69	23156.38
855.87	22464.17
856.04	22685.35
856.22	22582.95
856.39	22623.91
856.57	22711.97
856.74	22185.65
856.92	22537.90
857.09	22396.59
857.27	22181.55
857.44	22367.91
857.62	22539.94
857.79	22476.46
857.97	22531.75
858.14	22218.41
858.32	22210.22
858.49	22288.04
858.67	22027.95
858.84	22220.46
859.02	22406.83
859.19	22120.11
859.37	22197.93
859.54	21915.31
859.72	22193.84
859.89	22152.88
860.06	22210.22
860.24	21956.27
860.41	21972.66
860.59	21903.03
860.76	22042.29
860.94	21264.06
861.11	21933.75
861.29	21702.32
861.46	21427.90
861.64	21499.58
861.81	21604.02
861.98	21593.78
862.16	21399.23
862.33	21186.24
862.51	21477.05
862.68	21472.95
862.86	21241.53
863.03	21298.88
863.21	21520.06
863.38	21630.65
863.55	21063.36
863.73	21300.92
863.90	21192.38
864.08	21315.26
864.25	21194.43
864.43	21413.56
864.60	21057.21
864.77	20911.81
864.95	21102.27
865.12	20829.89
865.30	20883.14
865.47	20766.40
865.64	20907.71
865.82	20967.10
865.99	21001.92
866.17	20526.79
866.34	20780.74
866.51	20602.57
866.69	20930.24
866.86	20813.51
867.04	20860.61
867.21	20809.41
867.38	20645.57
867.56	20514.50
867.73	20524.74
867.91	20590.28
868.08	20621.00
868.25	20520.65
868.43	20391.62
868.60	20063.95
868.78	20592.33
868.95	20762.31
869.12	20203.21
869.30	20117.20
869.47	20072.14
869.64	19707.60
869.82	20057.81
869.99	19928.78
870.16	20145.87
870.34	20123.34
870.51	19926.74
870.69	19568.34
870.86	19828.43
871.03	19760.85
871.21	19883.73
871.38	20010.70
871.55	19603.16
871.73	19707.60
871.90	19752.66
872.07	19633.88
872.25	19543.77
872.42	19392.22
872.59	19676.88
872.77	19584.73
872.94	19185.37
873.11	19435.22
873.29	19398.36
873.46	19398.36
873.63	19123.93
873.81	19304.15
873.98	18851.55
874.15	19103.45
874.33	18816.74
874.50	18706.15
874.67	18941.66
874.85	18818.78
875.02	18878.18
875.19	18802.40
875.37	18669.28
875.54	18607.84
875.71	18530.02
875.88	18800.35
876.06	18814.69
876.23	18822.88
876.40	18552.55
876.58	18435.81
876.75	18304.74
876.92	18390.76
877.10	18374.38
877.27	18513.64
877.44	18216.68
877.61	18214.63
877.79	18247.40
877.96	18347.75
878.13	18421.48
878.31	18147.05
878.48	17796.85
878.65	18003.69
878.82	18046.70
879.00	18120.43
879.17	17833.71
879.34	17848.05
879.51	17780.46
879.69	17821.42
879.86	17637.11
880.03	17735.41
880.21	17882.86
880.38	17721.07
880.55	17848.05
880.72	17403.64
880.90	17751.79
881.07	17493.75
881.24	17686.26
881.41	17798.90
881.59	17401.59
881.76	17686.26
881.93	17434.36
882.10	17458.93
882.28	17256.18
882.45	17458.93
882.62	17221.37
882.79	17303.29
882.96	17078.01
883.14	17362.68
883.31	17303.29
883.48	17221.37
883.65	17239.80
883.83	17286.90
884.00	17172.22
884.17	17166.07
884.34	16938.75
884.51	16865.02
884.69	17096.44
884.86	16961.28
885.03	17123.07
885.20	16713.47
885.38	16969.47
885.55	16977.66
885.72	16936.70
885.89	16983.80
886.06	16676.61
886.24	16609.03
886.41	16844.54
886.58	16920.32
886.75	16930.56
886.92	16887.55
887.10	16932.61
887.27	16664.32
887.44	16736.00
887.61	16736.00
887.78	16781.06
887.95	16963.33
888.13	16252.68
888.30	16541.44
888.47	16512.77
888.64	16574.21
888.81	16531.20
888.99	16539.40
889.16	16320.26
889.33	16234.25
889.50	16289.54
889.67	16193.29
889.84	16185.10
890.01	16215.82
890.19	16084.75
890.36	16187.14
890.53	16156.43
890.70	16238.34
890.87	15963.92
891.04	15916.81
891.22	15912.72
891.39	15937.29
891.56	15873.81
891.73	15814.41
891.90	15687.44
892.07	15757.07
892.24	15814.41
892.42	15724.30
892.59	15664.91
892.76	15537.94
892.93	15568.66
893.10	15632.15
893.27	15556.37
893.44	15615.76
893.61	15634.19
893.79	15730.45
893.96	15331.09
894.13	15458.07
894.30	15730.45
894.47	15431.44
894.64	15642.39
894.81	15568.66
894.98	15591.19
895.15	15626.00
895.33	15677.20
895.50	15220.50
895.67	15566.61
895.84	15214.36
896.01	15445.78
896.18	15351.57
896.35	15691.54
896.52	15320.85
896.69	15159.06
896.86	15355.67
897.04	15599.38
897.21	15310.61
897.38	15499.03
897.55	15361.81
897.72	15593.23
897.89	15435.54
898.06	15216.41
898.23	15150.87
898.40	15314.71
898.57	15458.07
898.74	15421.20
898.91	15314.71
899.08	15128.35
899.26	15195.93
899.43	15341.33
899.60	15273.75
899.77	15378.20
899.94	15118.11
900.11	15148.82
900.28	15337.24
900.45	15165.21
900.62	15238.94
900.79	15421.20
900.96	15234.84
901.13	15509.27
901.30	15120.15
901.47	15042.33
901.64	15271.70
901.81	15351.57
901.98	15181.59
902.15	15259.42
902.32	15083.29
902.49	15222.55
902.66	15327.00
902.83	15290.13
903.01	15087.39
903.18	15320.85
903.35	15292.18
903.52	15025.95
903.69	15152.92
903.86	15146.78
904.03	15148.82
904.20	15343.38
904.37	15335.19
904.54	15003.42
904.71	14989.08
904.88	15210.26
905.05	14892.83
905.22	15152.92
905.39	15169.30
905.56	15165.21
905.73	15058.71
905.90	15071.00
906.07	15183.64
906.24	15200.02
906.41	15179.54
906.58	15114.01
906.75	15044.38
906.92	14974.75
907.09	14909.21
907.26	14853.92
907.43	14962.46
907.60	14888.73
907.77	15238.94
907.93	14958.36
908.10	14913.31
908.27	15333.14
908.44	15159.06
908.61	15032.09
908.78	14991.13
908.95	14919.45
909.12	15011.61
909.29	15077.15
909.46	14937.88
909.63	14976.80
909.80	14905.12
909.97	14868.25
910.14	14761.76
910.31	15023.90
910.48	14790.43
910.65	14743.33
910.82	14536.48
910.99	14604.07
911.16	14772.00
911.33	14636.83
911.50	14718.75
911.66	14659.36
911.83	14849.82
912.00	14536.48
912.17	14466.85
912.34	14356.26
912.51	14374.69
912.68	14575.39
912.85	14423.84
913.02	14491.43
913.19	14415.65
913.36	14354.21
913.53	14413.60
913.70	14329.64
913.86	14292.77
914.03	14266.15
914.20	14452.52
914.37	14339.88
914.54	14483.24
914.71	14415.65
914.88	14360.36
915.05	14110.50
915.22	14192.42
915.39	14108.46
915.55	14001.96
915.72	14180.14
915.89	13954.86
916.06	13926.19
916.23	14047.02
916.40	13893.42
916.57	13946.67
916.74	13727.53
916.91	14016.30
917.07	13694.77
917.24	13590.32
917.41	13690.67
917.58	13778.73
917.75	13604.66
917.92	13397.81
918.09	13563.70
918.26	13588.27
918.42	13459.25
918.59	13481.78
918.76	13371.19
918.93	13272.89
919.10	13098.81
919.27	13381.43
919.44	13356.85
919.60	13371.19
919.77	13150.01
919.94	13186.87
920.11	13199.16
920.28	13098.81
920.45	13211.45
920.61	12928.83
920.78	13086.52
920.95	13018.94
921.12	12916.54
921.29	12908.35
921.46	12769.09
921.62	12689.21
921.79	12717.89
921.96	12580.67
922.13	12683.07
922.30	12535.62
922.47	12521.28
922.63	12402.50
922.80	12502.85
922.97	12496.71
923.14	12279.62
923.31	12416.83
923.47	12257.09
923.64	12330.82
923.81	12187.46
923.98	12150.60
924.15	12074.82
924.32	12273.48
924.48	12105.54
924.65	12033.86
924.82	11917.13
924.99	11806.54
925.15	11915.08
925.32	11648.85
925.49	11599.70
925.66	11900.75
925.83	11769.68
925.99	11632.46
926.16	11667.28
926.33	11616.08
926.50	11452.24
926.67	11468.62
926.83	11460.43
927.00	11372.37
927.17	11323.22
927.34	11116.37
927.50	11458.39
927.67	11452.24
927.84	11306.84
928.01	11112.28
928.17	11030.36
928.34	11067.22
928.51	10827.61
928.68	10921.82
928.84	10800.99
929.01	10760.03
929.18	10588.00
929.35	10690.40
929.51	10774.36
929.68	10532.70
929.85	10667.87
930.02	10635.10
930.18	10555.23
930.35	10555.23
930.52	10559.33
930.69	10547.04
930.85	10520.42
931.02	10303.33
931.19	10305.38
931.36	10245.99
931.52	10456.93
931.69	10387.30
931.86	10243.94
932.02	10311.52
932.19	10018.66
932.36	10073.96
932.53	9895.78
932.69	9901.93
932.86	9996.14
933.03	9889.64
933.19	9764.72
933.36	9762.67
933.53	9875.31
933.70	9660.27
933.86	9639.79
934.03	9588.59
934.20	9156.47
934.36	9559.92
934.53	9457.52
934.70	9158.52
934.86	9279.35
935.03	9222.00
935.20	8990.58
935.36	8888.18
935.53	8865.66
935.70	8832.89
935.86	8879.99
936.03	8740.73
936.20	8384.38
936.36	8617.85
936.53	8611.71
936.70	8406.91
936.86	8505.21
937.03	8431.49
937.20	8085.38
937.36	8314.75
937.53	7882.63
937.70	8132.48
937.86	7853.96
938.03	7778.19
938.20	7960.45
938.36	7741.32
938.53	7690.12
938.70	7450.51
938.86	7735.18
939.03	7270.29
939.20	7190.42
939.36	7294.86
939.53	7186.32
939.70	7376.78
939.86	6940.57
940.03	6784.92
940.19	6889.37
940.36	6920.09
940.53	6848.41
940.69	6709.15
940.86	6524.83
941.03	6348.70
941.19	6492.06
941.36	6473.63
941.52	6426.53
941.69	6191.01
941.86	6387.61
942.02	6203.30
942.19	6186.91
942.35	6143.91
942.52	6016.93
942.69	5973.92
942.85	5971.88
943.02	5904.29
943.18	5935.01
943.35	5791.66
943.52	5795.75
943.68	5775.27
943.85	5810.09
944.01	5672.87
944.18	5582.76
944.35	5701.54
944.51	5484.46
944.68	5527.47
944.84	5525.42
945.01	5537.71
945.17	5492.65
945.34	5382.06
945.51	5443.50
945.67	5474.22
945.84	5511.08
946.00	5425.07
946.17	5429.17
946.33	5296.05
946.50	5363.63
946.67	5277.62
946.83	5359.53
947.00	5369.77
947.16	5318.57
947.33	5394.35
947.49	5412.78
947.66	5320.62
947.82	5408.69
947.99	5398.45
948.16	5349.29
948.32	5369.77
948.49	5228.46
948.65	5425.07
948.82	5308.34
948.98	5316.53
949.15	5171.12
949.31	5283.76
949.48	5443.50
949.64	5332.91
949.81	5316.53
949.97	5291.95
950.14	5310.38
950.30	5386.16
950.47	5357.49
950.63	5427.12
950.80	5474.22
950.96	5259.18
951.13	5416.88
951.30	5351.34
951.46	5398.45
951.63	5597.10
951.79	5482.41
951.96	5480.36
952.12	5277.62
952.29	5437.36
952.45	5361.58
952.62	5375.92
952.78	5427.12
952.94	5310.38
953.11	5425.07
953.27	5398.45
953.44	5574.57
953.60	5361.58
953.77	5588.91
953.93	5431.21
954.10	5394.35
954.26	5566.38
954.43	5466.03
954.59	5506.99
954.76	5517.23
954.92	5480.36
955.09	5556.14
955.25	5492.65
955.42	5445.55
955.58	5660.59
955.75	5394.35
955.91	5388.21
956.07	5564.33
956.24	5523.37
956.40	5484.46
956.57	5611.43
956.73	5494.70
956.90	5418.93
957.06	5423.02
957.23	5414.83
957.39	5443.50
957.56	5478.32
957.72	5521.32
957.88	5552.04
958.05	5660.59
958.21	5646.25
958.38	5517.23
958.54	5537.71
958.71	5457.84
958.87	5474.22
959.03	5459.88
959.20	5418.93
959.36	5466.03
959.53	5580.71
959.69	5463.98
959.85	5476.27
960.02	5453.74
960.18	5412.78
960.35	5439.40
960.51	5558.19
960.68	5367.73
960.84	5529.52
961.00	5402.54
961.17	5416.88
961.33	5607.34
961.50	5359.53
961.66	5396.40
961.82	5337.01
961.99	5545.90
962.15	5463.98
962.31	5521.32
962.48	5443.50
962.64	5707.69
962.81	5498.80
962.97	5369.77
963.13	5533.61
963.30	5451.69
963.46	5439.40
963.62	5480.36
963.79	5349.29
963.95	5392.30
964.12	5439.40
964.28	5480.36
964.44	5435.31
964.61	5562.28
964.77	5476.27
964.93	5451.69
965.10	5373.87
965.26	5406.64
965.42	5373.87
965.59	5283.76
965.75	5287.86
965.92	5302.19
966.08	5437.36
966.24	5418.93
966.41	5519.28
966.57	5285.81
966.73	5337.01
966.90	5427.12
967.06	5234.61
967.22	5402.54
967.39	5361.58
967.55	5265.33
967.71	5275.57
967.88	5259.18
968.04	5273.52
968.20	5197.74
968.37	5205.94
968.53	5193.65
968.69	5269.42
968.85	5361.58
969.02	5302.19
969.18	5269.42
969.34	5117.87
969.51	5140.40
969.67	5257.14
969.83	4962.23
970.00	5234.61
970.16	5177.26
970.32	5132.21
970.48	5248.94
970.65	5009.33
970.81	5072.82
970.97	5097.39
971.14	4849.59
971.30	5083.06
971.46	5099.44
971.63	5091.25
971.79	5203.89
971.95	5070.77
972.11	4999.09
972.28	5023.67
972.44	5113.78
972.60	4853.69
972.76	4902.84
972.93	4956.08
973.09	4960.18
973.25	5011.38
973.42	4949.94
973.58	4980.66
973.74	5001.14
973.90	4876.21
974.07	4941.75
974.23	4976.56
974.39	4933.56
974.55	4874.17
974.72	4911.03
974.88	4749.24
975.04	4929.46
975.20	4771.77
975.37	4868.02
975.53	4749.24
975.69	4773.82
975.85	4857.78
976.01	4831.16
976.18	4796.34
976.34	4847.54
976.50	4835.25
976.66	4788.15
976.83	4792.25
976.99	4767.67
977.15	4689.85
977.31	4677.56
977.47	4679.61
977.64	4736.95
977.80	4788.15
977.96	4790.20
978.12	4730.81
978.29	4739.00
978.45	4460.48
978.61	4642.75
978.77	4790.20
978.93	4687.80
979.10	4708.28
979.26	4689.85
979.42	4655.03
979.58	4515.77
979.74	4581.31
979.91	4640.70
980.07	4474.81
980.23	4540.35
980.39	4526.01
980.55	4456.38
980.71	4487.10
980.88	4442.04
981.04	4472.76
981.20	4550.59
981.36	4415.42
981.52	4358.08
981.68	4396.99
981.85	4493.24
982.01	4405.18
982.17	4386.75
982.33	4329.41
982.49	4536.25
982.65	4356.03
982.82	4394.94
982.98	4265.92
983.14	4280.25
983.30	4284.35
983.46	4362.17
983.62	4294.59
983.79	4386.75
983.95	4251.58
984.11	4155.33
984.27	4294.59
984.43	4227.01
984.59	4243.39
984.75	4337.60
984.91	4163.52
985.08	4122.56
985.24	4222.91
985.40	4159.42
985.56	4112.32
985.72	4310.97
985.88	4206.53
986.04	4018.11
986.20	4157.38
986.37	4112.32
986.53	3925.96
986.69	4095.94
986.85	4020.16
987.01	4061.12
987.17	4120.51
987.33	4106.18
987.49	4149.18
987.65	4061.12
987.82	4097.99
987.98	3960.77
988.14	4034.50
988.30	3915.72
988.46	4005.83
988.62	3962.82
988.78	3792.84
988.94	3989.44
989.10	3850.18
989.26	3958.72
989.42	3866.56
989.59	3749.83
989.75	3850.18
989.91	3897.28
990.07	3712.97
990.23	3833.80
990.39	3837.89
990.55	3751.88
990.71	3895.24
990.87	3815.37
991.03	3870.66
991.19	3784.65
991.35	3762.12
991.51	3768.26
991.67	3925.96
991.83	3878.85
992.00	3782.60
992.16	3788.74
992.32	3784.65
992.48	3758.02
992.64	3715.02
992.80	3751.88
992.96	3721.16
993.12	3743.69
993.28	3776.45
993.44	3698.63
993.60	3669.96
993.76	3635.14
993.92	3608.52
994.08	3755.97
994.24	3710.92
994.40	3641.29
994.56	3684.30
994.72	3493.83
994.88	3456.97
995.04	3606.47
995.20	3522.51
995.36	3481.55
995.52	3506.12
995.68	3557.32
995.84	3551.18
996.00	3698.63
996.16	3538.89
996.32	3493.83
996.48	3442.64
996.64	3641.29
996.80	3506.12
996.96	3502.03
997.12	3446.73
997.28	3461.07
997.44	3442.64
997.60	3530.70
997.76	3459.02
997.92	3395.53
998.08	3379.15
998.24	3368.91
998.40	3450.83
998.56	3499.98
998.72	3418.06
998.88	3358.67
999.04	3256.27
999.20	3395.53
999.36	3311.57
999.52	3465.16
999.68	3303.37
999.84	3330.00
1000.00	3291.09
1000.16	3416.01
1000.32	3284.94
1000.48	3364.81
1000.64	3213.26
1000.80	3182.54
1000.95	3170.26
1001.11	3229.65
1001.27	3184.59
1001.43	3221.45
1001.59	3108.82
1001.75	3076.05
1001.91	3227.60
1002.07	3162.06
1002.23	3102.67
1002.39	3219.41
1002.55	3141.58
1002.71	3137.49
1002.87	3170.26
1003.03	3076.05
1003.19	3149.78
1003.34	3114.96
1003.50	3129.30
1003.66	3147.73
1003.82	3127.25
1003.98	3024.85
1004.14	3078.10
1004.30	2904.02
1004.46	3002.32
1004.62	3002.32
1004.78	2965.46
1004.94	2967.51
1005.09	2992.08
1005.25	2977.75
1005.41	3069.91
1005.57	2994.13
1005.73	2914.26
1005.89	2959.31
1006.05	2990.03
1006.21	3008.47
1006.37	2897.88
1006.52	2842.58
1006.68	2918.36
1006.84	2969.55
1007.00	2918.36
1007.16	2973.65
1007.32	2826.20
1007.48	2918.36
1007.64	2922.45
1007.79	2846.68
1007.95	2793.43
1008.11	2959.31
1008.27	2758.61
1008.43	2807.77
1008.59	2791.38
1008.75	2926.55
1008.91	2717.65
1009.06	2762.71
1009.22	2828.24
1009.38	2691.03
1009.54	2731.99
1009.70	2701.27
1009.86	2719.70
1010.01	2754.52
1010.17	2652.12
1010.33	2754.52
1010.49	2736.09
1010.65	2826.20
1010.81	2648.02
1010.96	2584.54
1011.12	2686.94
1011.28	2533.34
1011.44	2803.67
1011.60	2621.40
1011.76	2611.16
1011.91	2717.65
1012.07	2605.02
1012.23	2551.77
1012.39	2570.20
1012.55	2680.79
1012.71	2533.34
1012.86	2645.98
1013.02	2551.77
1013.18	2484.19
1013.34	2609.11
1013.50	2676.70
1013.65	2615.26
1013.81	2541.53
1013.97	2486.23
1014.13	2451.42
1014.29	2564.06
1014.44	2596.82
1014.60	2471.90
1014.76	2576.34
1014.92	2453.47
1015.07	2437.08
1015.23	2420.70
1015.39	2400.22
1015.55	2510.81
1015.71	2396.12
1015.86	2410.46
1016.02	2408.41
1016.18	2287.58
1016.34	2408.41
1016.49	2373.60
1016.65	2428.89
1016.81	2324.44
1016.97	2295.77
1017.12	2457.56
1017.28	2265.05
1017.44	2271.20
1017.60	2379.74
1017.75	2273.25
1017.91	2322.40
1018.07	2310.11
1018.23	2351.07
1018.38	2297.82
1018.54	2269.15
1018.70	2314.20
1018.86	2256.86
1019.01	2209.76
1019.17	2299.87
1019.33	2334.68
1019.49	2189.28
1019.64	2320.35
1019.80	2258.91
1019.96	2226.14
1020.12	2285.53
1020.27	2142.18
1020.43	2146.27
1020.59	2086.88
1020.74	2314.20
1020.90	2242.53
1021.06	1966.05
1021.22	2232.29
1021.37	2123.74
1021.53	2125.79
1021.69	2168.80
1021.84	2068.45
1022.00	2131.94
1022.16	2123.74
1022.31	2066.40
1022.47	2156.51
1022.63	2101.22
1022.79	2078.69
1022.94	2021.35
1023.10	2260.96
1023.26	2183.13
1023.41	2148.32
1023.57	1918.95
1023.73	2107.36
1023.88	2162.66
1024.04	1920.99
1024.20	1945.57
1024.35	2123.74
1024.51	2101.22
1024.67	2035.68
1024.82	2068.45
1024.98	1935.33
1025.14	1955.81
1025.29	2009.06
1025.45	2074.59
1025.61	1951.71
1025.76	1949.67
1025.92	1966.05
1026.08	2060.26
1026.23	2035.68
1026.39	2060.26
1026.55	1972.19
1026.70	1918.95
1026.86	1927.14
1027.02	1984.48
1027.17	2037.73
1027.33	1988.58
1027.48	1894.37
1027.64	1957.86
1027.80	1859.56
1027.95	1988.58
1028.11	1834.98
1028.27	1877.99
1028.42	2084.83
1028.58	1855.46
1028.73	1937.38
1028.89	1880.04
1029.05	1959.91
1029.20	1865.70
>>>>>End Processed Spectral Data<<<<<
