SpectraSuite Data File
++++++++++++++++++++++++++++++++++++
Date: Fri Jun 02 14:57:21 CEST 2017
User: INFO_000
Dark Spectrum Present: No
Reference Spectrum Present: No
Number of Sampled Component Spectra: 1
Spectrometers: USB4H00879
Integration Time (usec): 80000 (USB4H00879)
Spectra Averaged: 1 (USB4H00879)
Boxcar Smoothing: 0 (USB4H00879)
Correct for Electrical Dark: No (USB4H00879)
Strobe/Lamp Enabled: No (USB4H00879)
Correct for Detector Non-linearity: No (USB4H00879)
Correct for Stray Light: No (USB4H00879)
Number of Pixels in Processed Spectrum: 3648
>>>>>Begin Processed Spectral Data<<<<<
345.13	1314.80
345.34	1314.80
345.56	1314.80
345.78	1277.93
345.99	1339.37
346.21	1746.92
346.42	1634.28
346.64	1669.09
346.86	1796.07
347.07	1607.66
347.29	1677.29
347.50	1648.61
347.72	1634.28
347.94	1804.26
348.15	1535.98
348.37	1583.08
348.59	1673.19
348.80	1683.43
349.02	1773.54
349.23	1871.84
349.45	1826.79
349.67	1902.56
349.88	1767.40
350.10	1904.61
350.31	1900.52
350.53	1804.26
350.75	2011.11
350.96	1783.78
351.18	1812.45
351.39	1800.16
351.61	1853.41
351.82	1830.88
352.04	1949.67
352.26	1804.26
352.47	1925.09
352.69	1914.85
352.90	1800.16
353.12	1843.17
353.34	1892.32
353.55	1873.89
353.77	1806.31
353.98	1869.80
354.20	1849.32
354.41	1910.75
354.63	1945.57
354.85	2045.92
355.06	1880.04
355.28	1845.22
355.49	1925.09
355.71	1834.98
355.92	1888.23
356.14	2004.96
356.35	1929.19
356.57	1892.32
356.79	1992.67
357.00	1869.80
357.22	1892.32
357.43	1869.80
357.65	1943.52
357.86	1816.55
358.08	1875.94
358.29	1914.85
358.51	1978.34
358.72	1961.95
358.94	1943.52
359.16	1933.28
359.37	1861.60
359.59	1964.00
359.80	2000.87
360.02	1916.90
360.23	1978.34
360.45	1916.90
360.66	1931.23
360.88	1873.89
361.09	1894.37
361.31	1978.34
361.52	1929.19
361.74	2062.30
361.95	2060.26
362.17	1994.72
362.38	2082.78
362.60	2113.50
362.81	1957.86
363.03	1884.13
363.24	1923.04
363.46	2093.02
363.67	2152.42
363.89	2035.68
364.10	2007.01
364.32	1994.72
364.53	2052.06
364.75	1892.32
364.96	1978.34
365.18	1998.82
365.39	2037.73
365.61	1982.43
365.82	2170.85
366.04	2027.49
366.25	2023.39
366.47	2074.59
366.68	2002.91
366.90	1951.71
367.11	2103.26
367.33	1990.63
367.54	2052.06
367.76	1984.48
367.97	2035.68
368.19	2113.50
368.40	2115.55
368.62	2043.87
368.83	1929.19
369.05	2109.41
369.26	2017.25
369.48	2090.98
369.69	1992.67
369.91	2029.54
370.12	1994.72
370.33	2097.12
370.55	2054.11
370.76	2045.92
370.98	2142.18
371.19	2054.11
371.41	2009.06
371.62	2035.68
371.84	2062.30
372.05	2170.85
372.27	2103.26
372.48	2205.66
372.69	2111.46
372.91	2154.46
373.12	2168.80
373.34	2101.22
373.55	2168.80
373.77	2172.89
373.98	2119.65
374.20	2109.41
374.41	2316.25
374.62	2082.78
374.84	2170.85
375.05	2265.05
375.27	2148.32
375.48	2187.23
375.70	2156.51
375.91	2260.96
376.12	2308.06
376.34	2127.84
376.55	2174.94
376.77	2240.48
376.98	2142.18
377.19	2078.69
377.41	2170.85
377.62	2236.38
377.84	2287.58
378.05	2359.26
378.27	2189.28
378.48	2428.89
378.69	2346.97
378.91	2265.05
379.12	2193.37
379.34	2230.24
379.55	2336.73
379.76	2303.96
379.98	2277.34
380.19	2289.63
380.41	2246.62
380.62	2314.20
380.83	2258.91
381.05	2148.32
381.26	2367.45
381.47	2310.11
381.69	2285.53
381.90	2353.12
382.12	2246.62
382.33	2291.68
382.54	2295.77
382.76	2392.03
382.97	2353.12
383.19	2254.81
383.40	2355.16
383.61	2359.26
383.83	2371.55
384.04	2324.44
384.25	2346.97
384.47	2402.27
384.68	2377.69
384.89	2295.77
385.11	2310.11
385.32	2359.26
385.54	2336.73
385.75	2322.40
385.96	2381.79
386.18	2453.47
386.39	2373.60
386.60	2375.64
386.82	2463.71
387.03	2463.71
387.24	2453.47
387.46	2484.19
387.67	2463.71
387.88	2543.58
388.10	2508.76
388.31	2457.56
388.52	2512.86
388.74	2506.71
388.95	2494.43
389.16	2498.52
389.38	2510.81
389.59	2625.50
389.80	2607.06
390.02	2527.19
390.23	2580.44
390.44	2559.96
390.66	2488.28
390.87	2480.09
391.08	2619.35
391.30	2678.74
391.51	2605.02
391.72	2650.07
391.94	2709.46
392.15	2662.36
392.36	2596.82
392.58	2639.83
392.79	2736.09
393.00	2658.26
393.22	2760.66
393.43	2795.48
393.64	2844.63
393.85	2848.72
394.07	2707.41
394.28	2734.04
394.49	2822.10
394.71	2781.14
394.92	2932.69
395.13	2588.63
395.35	2715.61
395.56	2801.62
395.77	2783.19
395.98	2891.73
396.20	2846.68
396.41	2822.10
396.62	2901.97
396.84	2791.38
397.05	2869.20
397.26	2959.31
397.47	2936.79
397.69	2877.40
397.90	3051.47
398.11	2877.40
398.32	2861.01
398.54	2846.68
398.75	2877.40
398.96	2891.73
399.18	3043.28
399.39	3041.23
399.60	2992.08
399.81	2977.75
400.03	2992.08
400.24	3248.08
400.45	2926.55
400.66	3174.35
400.88	3041.23
401.09	3196.88
401.30	3057.62
401.51	3194.83
401.73	3137.49
401.94	3100.62
402.15	3084.24
402.36	3114.96
402.58	3192.78
402.79	3139.54
403.00	3100.62
403.21	3233.74
403.43	3282.89
403.64	3258.32
403.85	3100.62
404.06	3231.69
404.27	3108.82
404.49	3270.61
404.70	3237.84
404.91	3229.65
405.12	3325.90
405.34	3262.41
405.55	3383.24
405.76	3289.04
405.97	3254.22
406.19	3411.92
406.40	3225.55
406.61	3362.76
406.82	3383.24
407.03	3278.80
407.25	3233.74
407.46	3393.48
407.67	3377.10
407.88	3467.21
408.09	3327.95
408.31	3391.44
408.52	3323.85
408.73	3395.53
408.94	3346.38
409.15	3354.57
409.37	3467.21
409.58	3397.58
409.79	3467.21
410.00	3528.65
410.21	3534.79
410.43	3276.75
410.64	3393.48
410.85	3528.65
411.06	3491.79
411.27	3461.07
411.48	3651.53
411.70	3516.36
411.91	3497.93
412.12	3682.25
412.33	3551.18
412.54	3604.42
412.76	3590.09
412.97	3618.76
413.18	3590.09
413.39	3633.10
413.60	3663.82
413.81	3661.77
414.03	3645.38
414.24	3643.34
414.45	3887.04
414.66	3549.13
414.87	3727.30
415.08	3624.90
415.30	3667.91
415.51	3727.30
415.72	3682.25
415.93	3743.69
416.14	3708.87
416.35	3796.93
416.56	3835.85
416.78	3749.83
416.99	3821.51
417.20	3755.97
417.41	3887.04
417.62	3919.81
417.83	3903.43
418.04	3841.99
418.26	3923.91
418.47	3829.70
418.68	3866.56
418.89	3901.38
419.10	4122.56
419.31	3962.82
419.52	3985.35
419.73	3977.16
419.95	3917.76
420.16	4016.07
420.37	3919.81
420.58	4075.46
420.79	3944.39
421.00	4128.70
421.21	4157.38
421.42	4120.51
421.63	4265.92
421.85	4046.79
422.06	4198.34
422.27	4210.62
422.48	4171.71
422.69	4325.31
422.90	4276.16
423.11	4128.70
423.32	4302.78
423.53	4440.00
423.75	4149.18
423.96	4597.69
424.17	4313.02
424.38	4489.15
424.59	4468.67
424.80	4390.84
425.01	4491.20
425.22	4306.88
425.43	4374.46
425.64	4722.62
425.85	4597.69
426.06	4593.59
426.28	4495.29
426.49	4358.08
426.70	4546.49
426.91	4642.75
427.12	4632.51
427.33	4564.92
427.54	4593.59
427.75	4718.52
427.96	4767.67
428.17	4820.92
428.38	4620.22
428.59	4792.25
428.80	4728.76
429.01	4816.82
429.23	4743.10
429.44	5009.33
429.65	4919.22
429.86	4984.76
430.07	4775.86
430.28	4902.84
430.49	4956.08
430.70	5068.72
430.91	5103.54
431.12	4882.36
431.33	5068.72
431.54	5136.31
431.75	5181.36
431.96	5244.85
432.17	5111.73
432.38	5097.39
432.59	5388.21
432.80	5326.77
433.01	5369.77
433.22	5318.57
433.43	5296.05
433.64	5355.44
433.85	5115.83
434.06	5408.69
434.27	5212.08
434.49	5367.73
434.70	5515.18
434.91	5289.90
435.12	5459.88
435.33	5556.14
435.54	5406.64
435.75	5281.71
435.96	5603.24
436.17	5388.21
436.38	5472.17
436.59	5687.21
436.80	5543.85
437.01	5697.45
437.22	5795.75
437.43	5586.86
437.64	5582.76
437.85	5844.90
438.06	5838.76
438.27	5623.72
438.48	5676.97
438.69	5865.38
438.90	5711.78
439.11	5719.98
439.32	5914.53
439.53	5861.29
439.74	5824.42
439.95	5777.32
440.16	5867.43
440.37	5867.43
440.57	5750.70
440.78	5992.36
440.99	5863.33
441.20	5941.16
441.41	5838.76
441.62	5949.35
441.83	5873.57
442.04	6186.91
442.25	6193.06
442.46	6064.04
442.67	6094.76
442.88	6522.78
443.09	6094.76
443.30	6268.83
443.51	6279.07
443.72	6516.64
443.93	6336.42
444.14	6494.11
444.35	6307.74
444.56	6352.80
444.77	6438.81
444.98	6270.88
445.19	6408.09
445.40	6586.27
445.61	6442.91
445.81	6557.60
446.02	6602.65
446.23	6465.44
446.44	6440.86
446.65	6416.29
446.86	6703.00
447.07	6619.04
447.28	6727.58
447.49	6651.80
447.70	6537.12
447.91	6662.04
448.12	6850.46
448.33	6827.93
448.54	6801.30
448.74	6696.86
448.95	6952.85
449.16	6809.50
449.37	7423.89
449.58	6926.23
449.79	6983.57
450.00	6950.81
450.21	6975.38
450.42	7069.59
450.63	6930.33
450.84	6924.18
451.05	7045.01
451.25	7141.27
451.46	7139.22
451.67	7245.71
451.88	7319.44
452.09	7139.22
452.30	7081.88
452.51	7163.79
452.72	7231.38
452.93	7415.69
453.13	7184.27
453.34	7313.30
453.55	7303.06
453.76	7303.06
453.97	7665.55
454.18	7399.31
454.39	7563.15
454.60	7458.70
454.81	7440.27
455.01	7759.75
455.22	7368.59
455.43	7634.83
455.64	7903.11
455.85	7808.90
456.06	7968.65
456.27	7751.56
456.48	7810.95
456.68	7974.79
456.89	7925.64
457.10	7921.54
457.31	7964.55
457.52	7880.58
457.73	8060.80
457.94	8281.99
458.14	8021.89
458.35	8388.48
458.56	8120.20
458.77	8081.28
458.98	8251.27
459.19	8306.56
459.39	8351.62
459.60	8494.97
459.81	8425.34
460.02	8527.74
460.23	8472.45
460.44	8804.22
460.65	8413.06
460.85	8605.56
461.06	8785.79
461.27	8669.05
461.48	8869.75
461.69	9047.93
461.89	8572.80
462.10	8861.56
462.31	8824.70
462.52	8867.70
462.73	8931.19
462.94	9222.00
463.14	9068.41
463.35	9027.45
463.56	9516.91
463.77	9426.80
463.98	9289.59
464.18	9131.89
464.39	9566.06
464.60	9713.52
464.81	9490.29
465.02	9525.10
465.23	9676.65
465.43	9662.32
465.64	9955.18
465.85	9774.95
466.06	9713.52
466.27	10004.33
466.47	9768.81
466.68	9985.90
466.89	9926.50
467.10	10133.35
467.30	10028.90
467.51	10256.23
467.72	10227.56
467.93	10112.87
468.14	10272.61
468.34	10391.39
468.55	10442.59
468.76	10569.57
468.97	10450.78
469.17	10684.25
469.38	10596.19
469.59	10827.61
469.80	10520.42
470.01	10706.78
470.21	10805.08
470.42	10919.77
470.63	11138.90
470.84	11003.74
471.04	11190.10
471.25	11341.65
471.46	11073.37
471.67	11540.30
471.87	11411.28
472.08	11595.60
472.29	11919.18
472.50	11333.46
472.70	11485.01
472.91	11519.82
473.12	11892.55
473.33	11923.27
473.53	11839.31
473.74	11999.05
473.95	12097.35
474.16	12394.31
474.36	12105.54
474.57	12422.98
474.78	12672.83
474.99	12562.24
475.19	12683.07
475.40	12670.78
475.61	12805.95
475.81	13000.51
476.02	12957.50
476.23	12818.24
476.44	13004.60
476.64	13213.49
476.85	13430.58
477.06	13260.60
477.27	13674.29
477.47	13594.42
477.68	13561.65
477.89	13754.16
478.09	13799.21
478.30	13721.39
478.51	13815.60
478.71	14159.66
478.92	14202.66
479.13	14288.68
479.34	14487.33
479.54	14036.78
479.75	14343.97
479.96	14481.19
480.16	14677.79
480.37	14552.87
480.58	14976.80
480.78	15146.78
480.99	15109.91
481.20	15152.92
481.41	15003.42
481.61	15200.02
481.82	15146.78
482.03	15449.88
482.23	15406.87
482.44	15802.13
482.65	15968.01
482.85	15791.89
483.06	15838.99
483.27	16109.32
483.47	16043.79
483.68	16158.47
483.89	16215.82
484.09	16189.19
484.30	16176.91
484.51	16543.49
484.71	16606.98
484.92	16457.48
485.13	16848.64
485.33	16699.14
485.54	16838.40
485.75	16944.89
485.95	17194.75
486.16	17430.26
486.37	17458.93
486.57	17264.38
486.78	17250.04
486.98	17686.26
487.19	17487.61
487.40	17829.62
487.60	17684.21
487.81	18130.67
488.02	18058.99
488.22	17979.12
488.43	18173.67
488.64	18159.34
488.84	18470.63
489.05	18730.72
489.25	18355.94
489.46	18575.08
489.67	18679.52
489.87	19095.26
490.08	18966.24
490.29	18912.99
490.49	19283.67
490.70	19222.23
490.90	19226.33
491.11	19285.72
491.32	19392.22
491.52	19861.20
491.73	19592.92
491.94	19558.10
492.14	19744.47
492.35	20262.60
492.55	19846.87
492.76	20115.15
492.97	20334.28
493.17	20131.53
493.38	20377.29
493.58	20584.13
493.79	20287.18
494.00	20631.24
494.20	20827.84
494.41	20584.13
494.61	20739.78
494.82	20989.63
495.02	20907.71
495.23	20797.12
495.44	21280.44
495.64	21565.11
495.85	21571.25
496.05	21460.66
496.26	21395.13
496.47	21657.27
496.67	21802.68
496.88	21876.40
497.08	21509.82
497.29	21821.11
497.49	22015.66
497.70	22341.29
497.91	22150.83
498.11	22372.01
498.32	22599.34
498.52	22417.07
498.73	22974.11
498.93	22480.55
499.14	22763.17
499.34	22791.84
499.55	23291.55
499.76	22505.13
499.96	23166.62
500.17	23035.55
500.37	23068.32
500.58	23170.72
500.78	23207.58
500.99	23373.47
501.19	23975.57
501.40	23535.26
501.60	23811.73
501.81	23590.55
502.02	23809.68
502.22	23647.90
502.43	23887.51
502.63	24258.19
502.84	24155.79
503.04	24102.54
503.25	24317.58
503.45	24133.26
503.66	24395.40
503.86	24376.97
504.07	24843.91
504.27	24293.01
504.48	24692.36
504.68	24827.53
504.89	25224.83
505.09	24802.95
505.30	25327.23
505.50	25288.32
505.71	24977.03
505.91	25304.70
506.12	25046.66
506.32	25263.74
506.53	25179.78
506.73	25495.16
506.94	25581.18
507.14	25699.96
507.35	25306.75
507.55	26097.27
507.76	26060.40
507.96	25788.02
508.17	26011.25
508.37	26054.26
508.58	25845.37
508.78	25857.65
508.99	26050.16
509.19	26111.60
509.40	26607.21
509.60	26308.21
509.81	26433.13
510.01	26398.32
510.22	26484.33
510.42	26715.75
510.63	26738.28
510.83	27074.15
511.04	26678.89
511.24	26900.07
511.44	26906.21
511.65	26838.63
511.85	27082.34
512.06	26938.98
512.26	27068.00
512.47	27129.44
512.67	27274.85
512.88	27137.63
513.08	27151.97
513.29	27438.69
513.49	27436.64
513.69	27358.81
513.90	27493.98
514.10	27553.37
514.31	27438.69
514.51	27967.06
514.72	27717.21
514.92	27932.25
515.13	27786.84
515.33	27887.19
515.53	27926.10
515.74	28214.87
515.94	28370.51
516.15	28216.91
516.35	28057.17
516.56	28423.76
516.76	28323.41
516.96	28173.91
517.17	28651.08
517.37	28438.09
517.58	28769.86
517.78	28651.08
517.99	28685.90
518.19	28945.99
518.39	29066.82
518.60	29187.65
518.80	29247.04
519.01	28972.61
519.21	29238.85
519.41	29212.23
519.62	29087.30
519.82	29482.56
520.03	29400.64
520.23	29496.89
520.43	29406.78
520.64	29687.36
520.84	29978.17
521.05	29666.88
521.25	29849.14
521.45	29955.64
521.66	29974.07
521.86	29832.76
522.07	30244.40
522.27	30058.04
522.47	30047.80
522.68	30371.38
522.88	30172.72
523.08	30498.35
523.29	30703.15
523.49	30565.93
523.70	30707.24
523.90	31086.12
524.10	30848.55
524.31	30625.32
524.51	30463.54
524.71	31266.34
524.92	31186.47
525.12	31333.92
525.33	31413.79
525.53	31319.59
525.73	31665.69
525.94	31598.11
526.14	31731.23
526.34	31807.00
526.55	31712.80
526.75	31604.25
526.95	32151.06
527.16	31897.11
527.36	32093.72
527.56	32241.17
527.77	32198.16
527.97	32060.95
528.17	32163.35
528.38	32263.70
528.58	32359.95
528.78	32634.38
528.99	32622.09
529.19	32654.86
529.39	32607.76
529.60	33099.27
529.80	32880.14
530.00	32837.13
530.21	33306.12
530.41	33609.22
530.61	33193.48
530.82	33242.63
531.02	33226.24
531.22	33758.72
531.43	33447.43
531.63	33629.69
531.83	33994.23
532.04	34018.81
532.24	33723.90
532.44	34000.38
532.64	33928.70
532.85	34459.12
533.05	34616.82
533.25	34553.33
533.46	34461.17
533.66	34866.67
533.86	34336.24
534.07	34977.26
534.27	34967.02
534.47	35466.72
534.67	34852.33
534.88	35157.48
535.08	35012.07
535.28	35573.22
535.49	35280.36
535.69	35857.88
535.89	35702.24
536.09	35565.03
536.30	35980.76
536.50	35982.81
536.70	35859.93
536.91	36259.29
537.11	35866.08
537.31	36300.25
537.51	36122.07
537.72	36304.34
537.92	36546.00
538.12	36888.01
538.32	36500.95
538.53	36769.23
538.73	36799.95
538.93	36273.62
539.13	36853.20
539.34	36978.12
539.54	36675.02
539.74	37060.04
539.94	36943.31
540.15	36982.22
540.35	37150.15
540.55	37236.17
540.75	37555.65
540.96	37258.70
541.16	37289.42
541.36	37410.25
541.56	37639.62
541.77	37850.56
541.97	37768.64
542.17	37977.53
542.37	37762.50
542.58	37938.62
542.78	38161.85
542.98	37981.63
543.18	38159.80
543.38	38159.80
543.59	38510.00
543.79	38172.09
543.99	38014.40
544.19	38350.26
544.40	38532.53
544.60	38964.65
544.80	38669.75
545.00	38753.71
545.20	38841.78
545.41	38417.85
545.61	38745.52
545.81	39099.82
546.01	38872.49
546.21	38778.29
546.42	38804.91
546.62	39261.61
546.82	39079.34
547.02	39163.31
547.22	39234.99
547.43	39030.19
547.63	39335.34
547.83	39304.62
548.03	39136.68
548.23	39347.62
548.44	39460.26
548.64	39503.27
548.84	39652.77
549.04	39523.75
549.24	39685.54
549.45	40125.85
549.65	39687.59
549.85	39931.29
550.05	40517.01
550.25	40236.44
550.45	40703.38
550.66	40799.63
550.86	39826.85
551.06	40263.07
551.26	40064.41
551.46	40607.12
551.66	40301.98
551.87	40232.35
552.07	40304.02
552.27	40482.20
552.47	40490.39
552.67	40539.54
552.87	40539.54
553.07	40840.59
553.28	40867.22
553.48	40836.50
553.68	40629.65
553.88	40965.52
554.08	41168.27
554.28	40873.36
554.48	41145.74
554.69	40873.36
554.89	41155.98
555.09	41129.36
555.29	40854.93
555.49	41321.87
555.69	41354.63
555.89	41246.09
556.10	41442.70
556.30	41045.39
556.50	41497.99
556.70	41262.47
556.90	41178.51
557.10	41782.66
557.30	41282.95
557.50	41479.56
557.70	41561.48
557.91	41604.49
558.11	41850.24
558.31	41475.46
558.51	41862.53
558.71	41792.90
558.91	41612.68
559.11	41872.77
559.31	41760.13
559.51	41641.35
559.72	41905.54
559.92	41895.30
560.12	42065.28
560.32	42014.08
560.52	41962.88
560.72	42268.03
560.92	42308.99
561.12	42349.95
561.32	42730.87
561.52	42112.38
561.72	42517.88
561.93	42333.56
562.13	42106.24
562.33	42173.82
562.53	42710.39
562.73	42126.72
562.93	42048.89
563.13	42730.87
563.33	42231.16
563.53	42818.93
563.73	42141.05
563.93	42331.51
564.13	42698.10
564.33	42704.24
564.53	43222.38
564.74	42972.53
564.94	42616.18
565.14	42950.00
565.34	42438.01
565.54	43308.40
565.74	42886.51
565.94	43447.66
566.14	42906.99
566.34	43064.69
566.54	43396.46
566.74	42866.03
566.94	43414.89
567.14	43466.09
567.34	42894.71
567.54	43525.48
567.74	43117.93
567.94	42988.91
568.14	43627.88
568.34	43511.14
568.54	43660.65
568.74	43986.27
568.94	43490.66
569.14	43763.04
569.34	43908.45
569.54	43939.17
569.75	43619.69
569.95	43857.25
570.15	44266.84
570.35	43717.99
570.55	43949.41
570.75	43785.57
570.95	43799.91
571.15	44152.16
571.35	44496.22
571.55	44393.82
571.75	44336.48
571.95	44205.41
572.15	44191.07
572.35	44477.79
572.55	44328.28
572.75	44297.56
572.95	44225.89
573.15	44440.92
573.35	44291.42
573.55	44653.91
573.75	44531.03
573.95	44653.91
574.15	44447.07
574.35	44770.64
574.55	44809.56
574.75	44385.63
574.95	45063.50
575.15	44873.04
575.34	44895.57
575.54	45178.19
575.74	45497.67
575.94	45096.27
576.14	45337.93
576.34	45339.98
576.54	45458.76
576.74	45385.04
576.94	45315.40
577.14	45598.02
577.34	46097.73
577.54	45417.80
577.74	45827.40
577.94	45323.60
578.14	45999.43
578.34	46005.57
578.54	45581.64
578.74	45804.87
578.94	46175.55
579.14	45847.88
579.34	46222.65
579.54	46347.58
579.74	46619.96
579.94	46622.01
580.13	46525.75
580.33	46146.88
580.53	46079.30
580.73	46413.12
580.93	46720.31
581.13	46773.56
581.33	46863.67
581.53	46867.76
581.73	46646.58
581.93	47220.02
582.13	47052.08
582.33	47078.71
582.53	46785.85
582.73	47373.61
582.92	46828.85
583.12	47645.99
583.32	47099.19
583.52	47260.97
583.72	47674.66
583.92	47045.94
584.12	47594.79
584.32	47932.71
584.52	47451.44
584.72	47678.76
584.92	47961.38
585.11	48297.25
585.31	48127.27
585.51	48026.92
585.71	47988.00
585.91	48735.51
586.11	48035.11
586.31	47895.85
586.51	48295.20
586.71	48325.92
586.91	48549.15
587.10	48588.06
587.30	48592.15
587.50	48885.01
587.70	48639.26
587.90	48600.35
588.10	49204.50
588.30	48968.98
588.50	49274.13
588.69	48737.56
588.89	48907.54
589.09	48768.28
589.29	49132.82
589.49	49581.32
589.69	48661.79
589.89	49300.75
590.08	49319.18
590.28	49409.29
590.48	49337.62
590.68	49282.32
590.88	49368.33
591.08	49667.34
591.28	49495.31
591.47	50046.21
591.67	49542.41
591.87	49702.15
592.07	49558.80
592.27	49837.32
592.47	49878.28
592.67	50236.67
592.86	50222.34
593.06	50492.67
593.26	50478.33
593.46	50179.33
593.66	49960.20
593.86	50435.33
594.05	50431.23
594.25	50896.12
594.45	50369.79
594.65	50367.74
594.85	50048.26
595.05	50906.36
595.24	50896.12
595.44	50683.13
595.64	50631.93
595.84	50640.12
596.04	50935.03
596.23	51229.94
596.43	51080.44
596.63	51262.71
596.83	51119.35
597.03	51590.38
597.22	51762.41
597.42	51516.65
597.62	51512.56
597.82	51500.27
598.02	51318.00
598.21	51336.43
598.41	51498.22
598.61	51854.57
598.81	51537.13
599.01	51786.99
599.20	51737.83
599.40	51551.47
599.60	51469.55
599.80	52118.76
600.00	51873.00
600.19	52362.46
600.39	52344.03
600.59	52374.75
600.79	52475.10
600.98	52217.06
601.18	52573.41
601.38	52425.95
601.58	52843.74
601.78	52755.68
601.97	52516.06
602.17	52735.20
602.37	53052.63
602.57	53081.30
602.76	52843.74
602.96	53026.01
603.16	53560.53
603.36	53208.28
603.55	53421.26
603.75	53152.98
603.95	53320.91
604.15	53292.24
604.34	53501.14
604.54	53286.10
604.74	53595.34
604.94	53607.63
605.13	53544.14
605.33	53566.67
605.53	53376.21
605.73	53834.95
605.92	53816.52
606.12	53994.70
606.32	53687.50
606.52	53888.20
606.71	53810.38
606.91	54121.67
607.11	54021.32
607.30	54807.74
607.50	54437.06
607.70	54482.11
607.90	54172.87
608.09	54469.82
608.29	54353.09
608.49	54205.64
608.68	54424.77
608.88	54588.61
609.08	54860.99
609.28	54650.05
609.47	54293.70
609.67	55350.45
609.87	54756.54
610.06	54973.63
610.26	54596.80
610.46	54879.42
610.66	54842.56
610.85	54879.42
611.05	54967.48
611.25	54854.84
611.44	54815.93
611.64	55297.20
611.84	55196.85
612.03	54754.49
612.23	55239.86
612.43	55469.23
612.62	54779.07
612.82	55213.24
613.02	55325.88
613.21	55303.35
613.41	54987.96
613.61	55565.49
613.80	55045.30
614.00	55008.44
614.20	54967.48
614.39	54912.19
614.59	55467.19
614.79	55317.68
614.98	55547.06
615.18	55534.77
615.38	55512.24
615.57	55446.71
615.77	55616.69
615.97	55489.71
616.16	55112.89
616.36	55641.26
616.56	55467.19
616.75	55536.82
616.95	55379.12
617.15	55798.96
617.34	55338.16
617.54	55602.35
617.74	55579.82
617.93	55391.41
618.13	54781.12
618.32	55395.51
618.52	55350.45
618.72	55325.88
618.91	55483.57
619.11	55307.44
619.31	55489.71
619.50	55794.86
619.70	55344.31
619.90	55667.89
620.09	55391.41
620.29	55688.37
620.48	55272.63
620.68	55790.76
620.88	54899.90
621.07	55696.56
621.27	55393.46
621.46	55125.17
621.66	55698.61
621.86	55536.82
622.05	55274.68
622.25	55465.14
622.44	55123.13
622.64	55702.70
622.84	55561.39
623.03	55596.21
623.23	55659.69
623.42	55567.54
623.62	55237.81
623.82	55737.52
624.01	55729.33
624.21	55710.89
624.40	54928.57
624.60	55250.10
624.80	55178.42
624.99	55485.62
625.19	55049.40
625.38	55925.93
625.58	55540.91
625.77	55159.99
625.97	55456.95
626.17	55291.06
626.36	55162.04
626.56	55624.88
626.75	55014.58
626.95	55813.29
627.14	54848.70
627.34	55532.72
627.54	55194.81
627.73	55153.85
627.93	55407.79
628.12	55305.40
628.32	55264.44
628.51	55663.79
628.71	55413.94
628.90	55276.72
629.10	55506.10
629.30	55366.84
629.49	55356.60
629.69	55415.99
629.88	55545.01
630.08	55690.41
630.27	55338.16
630.47	55411.89
630.66	55094.46
630.86	55514.29
631.05	55006.39
631.25	56067.24
631.44	55444.66
631.64	55358.64
631.84	55211.19
632.03	55975.08
632.23	55575.73
632.42	55762.09
632.62	55499.95
632.81	55248.05
633.01	55497.91
633.20	55520.43
633.40	55538.86
633.59	55448.75
633.79	55186.61
633.98	55719.09
634.18	55583.92
634.37	55940.27
634.57	55645.36
634.76	55878.83
634.96	55897.26
635.15	55927.98
635.35	55358.64
635.54	55477.43
635.74	55186.61
635.93	55325.88
636.13	55635.12
636.32	55293.11
636.52	54930.62
636.71	55569.58
636.91	55792.81
637.10	55714.99
637.30	55436.47
637.49	55532.72
637.69	55661.74
637.88	56030.38
638.08	55073.98
638.27	55776.43
638.46	55370.93
638.66	55047.35
638.85	55719.09
639.05	56063.14
639.24	55676.08
639.44	55612.59
639.63	55428.27
639.83	55555.25
640.02	55522.48
640.22	55547.06
640.41	56222.89
640.61	55596.21
640.80	55794.86
640.99	55790.76
641.19	56163.50
641.38	55303.35
641.58	55893.16
641.77	55592.11
641.97	55157.94
642.16	55694.51
642.36	55889.07
642.55	55956.65
642.74	55342.26
642.94	56257.70
643.13	55653.55
643.33	55956.65
643.52	55839.92
643.72	55704.75
643.91	55125.17
644.10	55948.46
644.30	55917.74
644.49	55637.17
644.69	55889.07
644.88	56024.23
645.08	55383.22
645.27	55829.68
645.46	55592.11
645.66	56173.73
645.85	55915.69
646.05	55706.80
646.24	55887.02
646.43	55899.31
646.63	55995.56
646.82	55866.54
647.02	55917.74
647.21	55819.44
647.40	55768.24
647.60	55839.92
647.79	56353.96
647.99	55932.07
648.18	56126.63
648.37	56306.85
648.57	56265.89
648.76	56161.45
648.96	55878.83
649.15	55788.72
649.34	56288.42
649.54	56091.82
649.73	56288.42
649.92	55932.07
650.12	56200.36
650.31	56120.49
650.51	56169.64
650.70	56433.83
650.89	55999.66
651.09	56896.67
651.28	56366.24
651.47	56204.45
651.67	55833.77
651.86	56497.31
652.06	55874.73
652.25	56474.79
652.44	56140.97
652.64	55753.90
652.83	55719.09
653.02	56261.80
653.22	56132.78
653.41	56067.24
653.60	56069.29
653.80	56384.68
653.99	55927.98
654.18	56267.94
654.38	56298.66
654.57	56071.34
654.76	56188.07
654.96	56482.98
655.15	55997.61
655.34	55977.13
655.54	55655.60
655.73	55854.25
655.92	56325.28
656.12	56050.86
656.31	56145.06
656.50	56276.13
656.70	56446.11
656.89	55743.66
657.08	56196.26
657.28	56083.62
657.47	55921.83
657.66	56272.04
657.86	56007.85
658.05	56128.68
658.24	56075.43
658.43	55725.23
658.63	56251.56
658.82	55991.47
659.01	56368.29
659.21	55868.59
659.40	56132.78
659.59	56052.90
659.79	55973.03
659.98	56327.33
660.17	56247.46
660.36	56079.53
660.56	55989.42
660.75	56214.69
660.94	56046.76
661.14	56501.41
661.33	56022.19
661.52	55778.48
661.71	55909.55
661.91	55889.07
662.10	55536.82
662.29	56290.47
662.49	55962.79
662.68	55811.24
662.87	56122.54
663.06	56194.21
663.26	56143.02
663.45	56272.04
663.64	56087.72
663.83	56437.92
664.03	56173.73
664.22	56233.13
664.41	56108.20
664.60	55739.57
664.80	55960.75
664.99	55936.17
665.18	55729.33
665.37	56024.23
665.57	56245.41
665.76	55653.55
665.95	56540.32
666.14	55989.42
666.34	55930.03
666.53	55655.60
666.72	55598.26
666.91	55364.79
667.11	55882.92
667.30	55686.32
667.49	55772.33
667.68	55932.07
667.87	55944.36
668.07	55833.77
668.26	55571.63
668.45	56300.71
668.64	55917.74
668.84	56360.10
669.03	55733.42
669.22	56013.99
669.41	56095.91
669.60	56102.06
669.80	55487.67
669.99	56220.84
670.18	56048.81
670.37	55858.35
670.57	56194.21
670.76	55835.82
670.95	56263.85
671.14	56038.57
671.33	55495.86
671.53	56249.51
671.72	55780.52
671.91	56057.00
672.10	55532.72
672.29	55878.83
672.48	55518.38
672.68	55835.82
672.87	55192.76
673.06	55424.18
673.25	55413.94
673.44	55270.58
673.64	55489.71
673.83	55755.95
674.02	55418.03
674.21	55413.94
674.40	55569.58
674.59	55284.92
674.79	55157.94
674.98	55577.78
675.17	55712.94
675.36	55450.80
675.55	55536.82
675.74	55166.13
675.94	55573.68
676.13	55680.17
676.32	55747.76
676.51	55489.71
676.70	55825.58
676.89	55628.98
677.08	55602.35
677.28	55645.36
677.47	55506.10
677.66	55598.26
677.85	55405.75
678.04	55358.64
678.23	55792.81
678.42	55919.79
678.62	55198.90
678.81	55581.87
679.00	55749.81
679.19	55940.27
679.38	55119.03
679.57	55155.89
679.76	55227.57
679.96	55424.18
680.15	55282.87
680.34	54953.15
680.53	54815.93
680.72	55168.18
680.91	55801.00
681.10	55481.52
681.29	55487.67
681.48	55076.02
681.68	55178.42
681.87	55192.76
682.06	55243.96
682.25	54727.87
682.44	54738.11
682.63	54850.75
682.82	54459.58
683.01	55022.78
683.20	54643.90
683.39	55540.91
683.59	54801.60
683.78	54799.55
683.97	54654.14
684.16	54697.15
684.35	54555.84
684.54	54983.86
684.73	54717.63
684.92	54799.55
685.11	54893.75
685.30	54760.64
685.49	54836.41
685.69	54877.37
685.88	54547.65
686.07	54488.26
686.26	54492.35
686.45	54787.26
686.64	54832.32
686.83	54650.05
687.02	54781.12
687.21	54897.85
687.40	54785.21
687.59	54318.28
687.78	54498.50
687.97	54697.15
688.16	54482.11
688.35	54469.82
688.54	54582.46
688.74	54604.99
688.93	54203.59
689.12	54451.39
689.31	54609.09
689.50	54793.40
689.69	53974.22
689.88	53945.54
690.07	54293.70
690.26	53996.74
690.45	54650.05
690.64	54342.85
690.83	54482.11
691.02	53968.07
691.21	54144.20
691.40	53990.60
691.59	54226.12
691.78	54052.04
691.97	54451.39
692.16	54299.84
692.35	54496.45
692.54	54330.56
692.73	54004.94
692.92	53923.02
693.11	54107.33
693.30	54045.90
693.49	54283.46
693.68	54090.95
693.87	53978.31
694.06	53308.63
694.25	53974.22
694.44	53728.46
694.63	53898.44
694.82	54150.34
695.01	53716.17
695.20	53570.77
695.39	53621.97
695.58	53581.01
695.77	53656.78
695.96	53671.12
696.15	54064.33
696.34	53271.76
696.53	53454.03
696.72	53886.15
696.91	53765.32
697.10	53624.01
697.29	53335.25
697.48	53861.58
697.67	53320.91
697.86	52946.14
698.05	53550.29
698.24	53525.71
698.43	53427.41
698.62	53351.63
698.81	52892.89
699.00	53617.87
699.19	53052.63
699.38	53470.42
699.57	52956.38
699.76	53255.38
699.95	53275.86
700.14	53365.97
700.32	53040.34
700.51	52978.90
700.70	53185.75
700.89	53351.63
701.08	53454.03
701.27	52925.66
701.46	53239.00
701.65	52526.30
701.84	52868.31
702.03	52952.28
702.22	52786.39
702.41	52933.85
702.60	53077.21
702.79	52741.34
702.98	52767.96
703.17	52995.29
703.35	52698.33
703.54	52544.73
703.73	53132.50
703.92	52819.16
704.11	52860.12
704.30	52417.76
704.49	52360.42
704.68	52393.18
704.87	52749.53
705.06	52401.38
705.25	52460.77
705.43	52518.11
705.62	52759.77
705.81	52647.13
706.00	52225.25
706.19	52298.98
706.38	51977.45
706.57	52352.23
706.76	52628.70
706.95	52622.56
707.14	52245.73
707.32	52114.66
707.51	52016.36
707.70	51979.49
707.89	52153.57
708.08	52098.28
708.27	52290.79
708.46	52178.15
708.65	51903.72
708.84	52169.96
709.02	51819.75
709.21	51893.48
709.40	51696.88
709.59	51590.38
709.78	51821.80
709.97	52221.16
710.16	51852.52
710.34	51574.00
710.53	52079.85
710.72	51819.75
710.91	51975.40
711.10	52008.17
711.29	51772.65
711.48	51512.56
711.66	51737.83
711.85	51612.91
712.04	51604.72
712.23	51399.92
712.42	52008.17
712.61	51907.82
712.80	51272.95
712.98	51567.85
713.17	51623.15
713.36	51541.23
713.55	51559.66
713.74	51193.07
713.93	51733.74
714.11	51381.49
714.30	51270.90
714.49	51191.03
714.68	51211.51
714.87	51234.03
715.06	51102.96
715.24	51332.34
715.43	51416.30
715.62	51195.12
715.81	51279.09
716.00	51188.98
716.18	50980.09
716.37	50969.85
716.56	51127.54
716.75	51090.68
716.94	51066.10
717.12	50322.69
717.31	50994.42
717.50	50648.32
717.69	50803.96
717.88	50920.70
718.06	50951.41
718.25	50855.16
718.44	50722.04
718.63	50656.51
718.82	50554.11
719.00	50289.92
719.19	50547.96
719.38	50461.95
719.57	50271.49
719.76	50314.50
719.94	49986.82
720.13	50232.58
720.32	49980.68
720.51	50330.88
720.69	49954.05
720.88	50271.49
721.07	50400.51
721.26	49911.05
721.44	49636.62
721.63	49614.09
721.82	49491.21
722.01	49640.71
722.20	50140.42
722.38	49653.00
722.57	48989.46
722.76	49632.52
722.95	49186.07
723.13	49116.43
723.32	49384.72
723.51	49450.25
723.70	48889.11
723.88	49589.52
724.07	49313.04
724.26	49370.38
724.44	48770.33
724.63	49184.02
724.82	49313.04
725.01	48919.83
725.19	49263.89
725.38	48788.76
725.57	49071.38
725.76	49085.72
725.94	48809.24
726.13	48880.92
726.32	48700.70
726.51	48669.98
726.69	49157.39
726.88	48948.50
727.07	48809.24
727.25	48968.98
727.44	48614.68
727.63	48690.46
727.82	48639.26
728.00	48325.92
728.19	49009.94
728.38	48555.29
728.56	47926.56
728.75	48993.56
728.94	48489.76
729.12	48821.53
729.31	48543.00
729.50	49018.13
729.69	48407.84
729.87	48463.13
730.06	48489.76
730.25	48629.02
730.43	49282.32
730.62	48469.28
730.81	48661.79
730.99	48858.39
731.18	48588.06
731.37	48733.46
731.55	48620.83
731.74	49085.72
731.93	48669.98
732.11	48596.25
732.30	48719.13
732.49	48059.68
732.67	48543.00
732.86	48119.07
733.05	48493.85
733.23	48295.20
733.42	48641.31
733.61	48467.23
733.79	48766.23
733.98	48923.93
734.17	48475.42
734.35	48592.15
734.54	48825.62
734.73	48805.14
734.91	48596.25
735.10	48364.83
735.29	48624.92
735.47	48104.74
735.66	48461.08
735.84	48330.01
736.03	47850.79
736.22	48479.52
736.40	48092.45
736.59	48321.82
736.78	48358.69
736.96	48364.83
737.15	48051.49
737.33	48207.14
737.52	48016.68
737.71	48117.03
737.89	47750.44
738.08	47908.13
738.27	47789.35
738.45	48586.01
738.64	47942.95
738.82	48123.17
739.01	48194.85
739.20	48418.08
739.38	48041.25
739.57	48284.96
739.75	47797.54
739.94	47693.10
740.13	48168.22
740.31	47619.37
740.50	48180.51
740.68	48110.88
740.87	47752.49
741.06	47547.69
741.24	47850.79
741.43	47715.62
741.61	47797.54
741.80	47609.13
741.99	47303.98
742.17	47279.41
742.36	47865.13
742.54	47498.54
742.73	47699.24
742.91	48039.20
743.10	47785.25
743.29	48076.07
743.47	47781.16
743.66	47496.49
743.84	47945.00
744.03	47643.94
744.21	47623.47
744.40	47543.59
744.59	47750.44
744.77	47140.14
744.96	47494.44
745.14	47250.74
745.33	47344.94
745.51	47263.02
745.70	47287.60
745.88	47455.53
746.07	47293.74
746.26	46855.48
746.44	46912.82
746.63	47093.04
746.81	47267.12
747.00	47195.44
747.18	47234.35
747.37	46964.02
747.55	47060.27
747.74	47349.04
747.92	46732.60
748.11	46632.25
748.29	46908.72
748.48	47285.55
748.66	46738.74
748.85	46669.11
749.03	47004.98
749.22	46722.36
749.41	46482.75
749.59	47045.94
749.78	46716.22
749.96	46441.79
750.15	46978.36
750.33	46490.94
750.52	46540.09
750.70	46658.87
750.89	46490.94
751.07	46329.15
751.26	46587.19
751.44	46232.89
751.63	46196.03
751.81	46277.95
752.00	46273.85
752.18	46822.71
752.37	46155.07
752.55	46165.31
752.74	46052.67
752.92	45966.66
753.10	45997.38
753.29	46067.01
753.47	45843.78
753.66	45499.72
753.84	45872.45
754.03	45849.92
754.21	45557.06
754.40	46120.26
754.58	45937.99
754.77	45915.46
754.95	45315.40
755.14	45557.06
755.32	45632.84
755.51	45221.20
755.69	45151.57
755.88	45376.84
756.06	45110.61
756.24	45151.57
756.43	45385.04
756.61	45258.06
756.80	45221.20
756.98	45266.25
757.17	45036.88
757.35	45641.03
757.54	44811.60
757.72	45194.57
757.90	44985.68
758.09	44737.88
758.27	45274.45
758.46	44750.17
758.64	45413.71
758.83	45178.19
759.01	45102.42
759.19	45075.79
759.38	45010.26
759.56	45303.12
759.75	45307.21
759.93	44543.32
760.12	44688.73
760.30	44479.83
760.48	44412.25
760.67	44649.81
760.85	44678.49
761.04	44713.30
761.22	44576.09
761.40	44524.89
761.59	44432.73
761.77	44467.55
761.96	44365.15
762.14	44234.08
762.32	44207.45
762.51	44111.20
762.69	44092.77
762.88	44193.12
763.06	44238.17
763.24	44174.69
763.43	44066.14
763.61	43881.83
763.80	44119.39
763.98	44037.47
764.16	43830.63
764.35	43941.22
764.53	43144.56
764.72	44043.62
764.90	43844.96
765.08	43572.58
765.27	43732.32
765.45	43666.79
765.63	43412.84
765.82	43758.95
766.00	43271.53
766.18	43253.10
766.37	43470.18
766.55	43228.52
766.74	43398.51
766.92	42933.62
767.10	42902.90
767.29	43277.68
767.47	43062.64
767.65	43300.20
767.84	43005.30
768.02	42802.55
768.20	42532.22
768.39	42900.85
768.57	42820.98
768.75	43152.75
768.94	42995.06
769.12	42851.70
769.30	42503.54
769.49	42966.38
769.67	42538.36
769.85	42657.14
770.04	42304.89
770.22	42351.99
770.40	42296.70
770.59	42136.96
770.77	42562.93
770.95	42487.16
771.14	41995.65
771.32	42057.09
771.50	41856.39
771.69	42048.89
771.87	41852.29
772.05	42093.95
772.24	41418.12
772.42	41997.70
772.60	41856.39
772.78	41817.47
772.97	41541.00
773.15	41842.05
773.33	41948.54
773.52	41876.86
773.70	41698.69
773.88	41977.22
774.07	41411.98
774.25	41538.95
774.43	41821.57
774.61	41905.54
774.80	41944.45
774.98	41756.03
775.16	41944.45
775.34	41706.88
775.53	41401.74
775.71	42032.51
775.89	41919.87
776.08	41923.97
776.26	41788.80
776.44	41874.82
776.62	41854.34
776.81	41309.58
776.99	41799.04
777.17	41811.33
777.35	41649.54
777.54	42065.28
777.72	41371.02
777.90	41868.67
778.08	42210.68
778.27	41840.00
778.45	41713.03
778.63	42153.34
778.81	41520.52
779.00	42683.76
779.18	42227.07
779.36	42112.38
779.54	41743.75
779.73	42083.71
779.91	42243.45
780.09	42034.56
780.27	42503.54
780.46	42390.91
780.64	42722.68
780.82	42548.60
781.00	42425.72
781.19	42280.31
781.37	42507.64
781.55	42284.41
781.73	42528.12
781.91	42444.15
782.10	42765.68
782.28	42372.47
782.46	42491.26
782.64	42835.31
782.82	42276.22
783.01	42919.28
783.19	42632.57
783.37	42548.60
783.55	42571.13
783.74	42661.24
783.92	42438.01
784.10	43036.02
784.28	42866.03
784.46	42458.49
784.64	42194.30
784.83	42505.59
785.01	42493.30
785.19	42376.57
785.37	42493.30
785.55	42775.92
785.74	42034.56
785.92	42186.11
786.10	42405.24
786.28	42499.45
786.46	42268.03
786.64	42272.12
786.83	42446.20
787.01	42390.91
787.19	41868.67
787.37	42112.38
787.55	42104.19
787.74	41993.60
787.92	42079.61
788.10	41643.40
788.28	41510.28
788.46	41653.64
788.64	41342.35
788.82	41852.29
789.01	41776.51
789.19	42032.51
789.37	41760.13
789.55	41766.27
789.73	41092.49
789.91	40994.19
790.09	41428.36
790.28	41448.84
790.46	40777.11
790.64	41379.21
790.82	41416.07
791.00	40986.00
791.18	40883.60
791.36	41018.77
791.55	40670.61
791.73	40271.26
791.91	40455.57
792.09	40351.13
792.27	40283.55
792.45	40846.74
792.63	40095.13
792.81	40091.04
793.00	40318.36
793.18	39945.63
793.36	39789.98
793.54	39603.62
793.72	39392.68
793.90	39753.12
794.08	39437.73
794.26	39804.32
794.44	39155.11
794.62	39165.35
794.81	39546.28
794.99	39404.97
795.17	39196.07
795.35	39179.69
795.53	39214.51
795.71	39429.54
795.89	38706.61
796.07	38409.65
796.25	38581.68
796.43	38454.71
796.61	38888.88
796.80	38133.18
796.98	38208.95
797.16	38190.52
797.34	38403.51
797.52	38286.78
797.70	38518.20
797.88	38374.84
798.06	37668.29
798.24	38053.31
798.42	38118.84
798.60	37912.00
798.78	37789.12
798.96	37754.30
799.14	37027.28
799.32	37715.39
799.51	37434.82
799.69	37346.76
799.87	37348.81
800.05	37031.37
800.23	36916.68
800.41	36873.68
800.59	36924.88
800.77	36806.09
800.95	36533.71
801.13	36650.45
801.31	36371.92
801.49	36548.05
801.67	36203.99
801.85	36287.96
802.03	36365.78
802.21	35988.95
802.39	35579.36
802.57	36185.56
802.75	35505.63
802.93	35849.69
803.11	35370.47
803.29	35427.81
803.47	35571.17
803.65	35415.52
803.83	35423.72
804.01	35419.62
804.19	34993.64
804.37	35040.75
804.55	35165.67
804.73	35036.65
804.91	34737.65
805.09	34885.10
805.27	34823.66
805.45	34792.94
805.63	35018.22
805.81	34377.20
805.99	34588.14
806.17	34594.29
806.35	34442.74
806.53	34350.58
806.71	34199.03
806.89	34221.56
807.07	34045.43
807.25	34037.24
807.43	34139.64
807.61	34031.10
807.79	34129.40
807.97	33254.92
808.15	33680.89
808.33	33306.12
808.51	33312.26
808.69	33568.26
808.87	33400.32
809.05	33283.59
809.23	33029.64
809.41	32824.84
809.59	33324.55
809.77	33267.20
809.95	33027.59
810.13	33261.06
810.31	32919.05
810.49	32742.92
810.67	32800.27
810.84	32732.68
811.02	32534.03
811.20	32093.72
811.38	32560.66
811.56	32525.84
811.74	32396.82
811.92	32237.08
812.10	32122.39
812.28	32048.66
812.46	32302.61
812.64	32177.68
812.82	31700.51
813.00	31505.95
813.18	31995.42
813.36	31628.83
813.53	31446.56
813.71	31440.42
813.89	31426.08
814.07	31673.88
814.25	31665.69
814.43	31553.05
814.61	31180.32
814.79	31172.13
814.97	31045.16
815.15	31249.96
815.33	30654.00
815.50	30551.60
815.68	30821.93
815.86	31026.73
816.04	30852.65
816.22	30754.35
816.40	30580.27
816.58	30922.28
816.76	30748.20
816.94	30621.23
817.11	30242.35
817.29	30522.93
817.47	30111.28
817.65	30164.53
817.83	30363.18
818.01	30279.22
818.19	30232.11
818.37	29691.45
818.54	29996.60
818.72	29892.15
818.90	30113.33
819.08	30035.51
819.26	29906.49
819.44	29996.60
819.62	29490.75
819.80	29541.95
819.97	29677.12
820.15	29572.67
820.33	29087.30
820.51	29736.51
820.69	29451.84
820.87	29476.41
821.05	29773.37
821.22	29380.16
821.40	29404.74
821.58	29277.76
821.76	29152.84
821.94	29197.89
822.12	29521.47
822.29	29249.09
822.47	28759.63
822.65	29066.82
822.83	29216.32
823.01	29017.67
823.19	28497.49
823.36	28603.98
823.54	28638.80
823.72	28751.43
823.90	28233.30
824.08	28591.69
824.25	28513.87
824.43	28403.28
824.61	28393.04
824.79	28462.67
824.97	28247.63
825.15	28341.84
825.32	28194.39
825.50	28096.08
825.68	27897.43
825.86	28137.04
826.04	28024.40
826.21	27965.01
826.39	27967.06
826.57	27897.43
826.75	27917.91
826.93	27666.01
827.10	27686.49
827.28	27768.41
827.46	27817.56
827.64	27954.77
827.81	27571.80
827.99	27582.04
828.17	27156.07
828.35	27160.16
828.53	27432.54
828.70	27086.43
828.88	27393.63
829.06	27352.67
829.24	27334.24
829.41	27297.38
829.59	27295.33
829.77	26998.37
829.95	27027.04
830.12	26594.92
830.30	26941.03
830.48	27010.66
830.66	26840.68
830.84	27053.67
831.01	26695.27
831.19	26695.27
831.37	27076.19
831.55	26590.83
831.72	26777.19
831.90	26586.73
832.08	26572.39
832.25	26537.58
832.43	26457.71
832.61	26383.98
832.79	26138.23
832.96	26353.26
833.14	26498.67
833.32	26879.59
833.50	26459.76
833.67	26320.49
833.85	26531.44
834.03	25904.76
834.20	26451.56
834.38	26340.97
834.56	26396.27
834.74	25998.96
834.91	25962.10
835.09	25892.47
835.27	25761.40
835.44	25841.27
835.62	25503.35
835.80	25880.18
835.98	25898.61
836.15	25867.89
836.33	25435.77
836.51	25679.48
836.68	25665.14
836.86	25581.18
837.04	25486.97
837.21	25360.00
837.39	25634.42
837.57	25409.15
837.75	25560.70
837.92	25206.40
838.10	24915.59
838.28	24766.09
838.45	25235.07
838.63	25042.56
838.81	25233.02
838.98	25054.85
839.16	24929.92
839.34	24825.48
839.51	24831.62
839.69	24925.83
839.87	24759.94
840.04	24874.63
840.22	24989.31
840.40	24698.50
840.57	24467.08
840.75	24723.08
840.93	24372.88
841.10	24661.64
841.28	25052.80
841.46	24848.00
841.63	24792.71
841.81	24647.30
841.98	24616.58
842.16	24710.79
842.34	24491.66
842.51	24524.43
842.69	24549.00
842.87	24553.10
843.04	24411.79
843.22	24184.46
843.40	24508.04
843.57	24327.82
843.75	24331.92
843.92	24524.43
844.10	24139.41
844.28	24303.25
844.45	24125.07
844.63	24190.61
844.81	24065.68
844.98	24221.33
845.16	23848.60
845.33	24086.16
845.51	24045.20
845.69	23770.77
845.86	23520.92
846.04	23598.74
846.21	23828.12
846.39	23746.20
846.57	23725.72
846.74	23484.06
846.92	23705.24
847.09	23742.10
847.27	23260.83
847.45	23742.10
847.62	23709.33
847.80	23303.84
847.97	23410.33
848.15	23416.47
848.32	23443.10
848.50	23391.90
848.68	23123.62
848.85	23148.19
849.03	22974.11
849.20	23381.66
849.38	23183.01
849.56	23002.78
849.73	23180.96
849.91	23146.14
850.08	23213.73
850.26	22853.28
850.43	23074.46
850.61	22820.52
850.78	22574.76
850.96	22867.62
851.14	22580.90
851.31	22703.78
851.49	22697.64
851.66	22812.32
851.84	22574.76
852.01	22750.88
852.19	22673.06
852.36	22558.38
852.54	22644.39
852.71	22795.94
852.89	22601.38
853.07	22492.84
853.24	22554.28
853.42	22824.61
853.59	22668.97
853.77	22400.68
853.94	22695.59
854.12	22492.84
854.29	22066.86
854.47	22421.16
854.64	22396.59
854.82	22267.56
854.99	22425.26
855.17	22273.71
855.34	22372.01
855.52	22171.31
855.69	22560.42
855.87	22144.69
856.04	21888.69
856.22	22185.65
856.39	21776.05
856.57	21804.72
856.74	21712.56
856.92	21874.35
857.09	21634.74
857.27	21382.84
857.44	21720.76
857.62	21622.45
857.79	21657.27
857.97	21522.10
858.14	21565.11
858.32	21571.25
858.49	21649.08
858.67	21589.69
858.84	21515.96
859.02	21610.17
859.19	21644.98
859.37	21501.62
859.54	21354.17
859.72	21388.99
859.89	21427.90
860.06	21401.27
860.24	21092.03
860.41	21520.06
860.59	21223.10
860.76	21221.05
860.94	21153.47
861.11	21378.75
861.29	20979.39
861.46	21130.94
861.64	20891.33
861.81	20803.27
861.98	20780.74
862.16	20883.14
862.33	20866.75
862.51	20643.52
862.68	20872.90
862.86	20838.08
863.03	20668.10
863.21	20762.31
863.38	21051.07
863.55	20557.51
863.73	20594.37
863.90	20645.57
864.08	20588.23
864.25	20565.70
864.43	20686.53
864.60	20717.25
864.77	20575.94
864.95	20422.34
865.12	20371.15
865.30	20584.13
865.47	20078.29
865.64	20305.61
865.82	20436.68
865.99	20477.64
866.17	20066.00
866.34	20377.29
866.51	20098.77
866.69	20344.52
866.86	20258.51
867.04	20397.77
867.21	20055.76
867.38	20102.86
867.56	19914.45
867.73	19818.19
867.91	19631.83
868.08	20147.92
868.25	19773.14
868.43	19900.11
868.60	19660.50
868.78	19379.93
868.95	20074.19
869.12	19607.25
869.30	19453.66
869.47	19979.98
869.64	19302.11
869.82	19656.40
869.99	19488.47
870.16	19670.74
870.34	19367.64
870.51	19551.96
870.69	19255.00
870.86	19461.85
871.03	19295.96
871.21	19328.73
871.38	19465.94
871.55	19115.74
871.73	19181.28
871.90	19275.48
872.07	19111.64
872.25	18904.80
872.42	19107.55
872.59	19158.75
872.77	18835.17
872.94	18826.98
873.11	19029.73
873.29	18837.22
873.46	18865.89
873.63	18788.07
873.81	18763.49
873.98	18484.97
874.15	18581.22
874.33	18435.81
874.50	18480.87
874.67	18622.18
874.85	18372.33
875.02	18327.27
875.19	18392.81
875.37	18484.97
875.54	18491.11
875.71	18476.77
875.88	18061.04
876.06	18183.91
876.23	18331.37
876.40	18202.35
876.58	18202.35
876.75	18179.82
876.92	18093.80
877.10	18149.10
877.27	18050.80
877.44	17880.82
877.61	17999.60
877.79	17880.82
877.96	17682.16
878.13	17950.45
878.31	17786.61
878.48	17686.26
878.65	17499.89
878.82	17585.91
879.00	17643.25
879.17	17813.23
879.34	17403.64
879.51	17413.88
879.69	17307.38
879.86	17082.11
880.03	17438.45
880.21	17344.25
880.38	17377.01
880.55	17430.26
880.72	17043.20
880.90	17497.84
881.07	17202.94
881.24	17116.92
881.41	17587.96
881.59	17362.68
881.76	17237.75
881.93	17108.73
882.10	17028.86
882.28	17104.64
882.45	17041.15
882.62	17000.19
882.79	17223.42
882.96	16787.20
883.14	17078.01
883.31	16801.54
883.48	16697.09
883.65	17006.33
883.83	17016.57
884.00	16977.66
884.17	16887.55
884.34	16774.91
884.51	16770.82
884.69	16760.58
884.86	16637.70
885.03	16588.55
885.20	16523.01
885.38	16832.26
885.55	16514.82
885.72	16537.35
885.89	16424.71
886.06	16434.95
886.24	16617.22
886.41	16463.62
886.58	16430.85
886.75	16592.64
886.92	16363.27
887.10	16500.48
887.27	16373.51
887.44	16267.02
887.61	16387.85
887.78	16455.43
887.95	16371.46
888.13	16326.41
888.30	16217.86
888.47	16070.41
888.64	16391.94
888.81	16094.99
888.99	16242.44
889.16	15836.94
889.33	15980.30
889.50	15927.05
889.67	15906.57
889.84	15824.65
890.01	15838.99
890.19	16129.80
890.36	16064.27
890.53	15791.89
890.70	15783.70
890.87	15980.30
891.04	15623.95
891.22	15593.23
891.39	15517.46
891.56	15628.05
891.73	15697.68
891.90	15595.28
892.07	15435.54
892.24	15554.32
892.42	15548.18
892.59	15572.75
892.76	15552.27
892.93	15613.71
893.10	15224.60
893.27	15687.44
893.44	15116.06
893.61	15390.49
893.79	15693.58
893.96	15298.33
894.13	15482.64
894.30	15179.54
894.47	15312.66
894.64	15245.08
894.81	15343.38
894.98	15314.71
895.15	15486.74
895.33	15320.85
895.50	15370.01
895.67	15402.77
895.84	15341.33
896.01	15279.89
896.18	15226.65
896.35	15345.43
896.52	15200.02
896.69	15208.22
896.86	15257.37
897.04	15347.48
897.21	15257.37
897.38	15312.66
897.55	15173.40
897.72	15320.85
897.89	15122.20
898.06	15302.42
898.23	15222.55
898.40	14989.08
898.57	15449.88
898.74	15040.28
898.91	15197.98
899.08	15386.39
899.26	15286.04
899.43	15101.72
899.60	15154.97
899.77	15232.79
899.94	15210.26
900.11	15128.35
900.28	15062.81
900.45	15060.76
900.62	15214.36
900.79	15107.87
900.96	15095.58
901.13	15142.68
901.30	15124.25
901.47	14843.68
901.64	15181.59
901.81	15159.06
901.98	14989.08
902.15	15245.08
902.32	14927.64
902.49	15038.23
902.66	15140.63
902.83	15247.13
903.01	15103.77
903.18	15154.97
903.35	15191.83
903.52	15122.20
903.69	15232.79
903.86	14984.99
904.03	15101.72
904.20	15089.43
904.37	15177.50
904.54	14905.12
904.71	15011.61
904.88	15204.12
905.05	15085.34
905.22	15085.34
905.39	14962.46
905.56	14980.89
905.73	14761.76
905.90	15032.09
906.07	15025.95
906.24	14874.40
906.41	14882.59
906.58	15163.16
906.75	15116.06
906.92	14835.49
907.09	14823.20
907.26	15175.45
907.43	14860.06
907.60	15011.61
907.77	15249.18
907.93	14866.21
908.10	15056.67
908.27	15013.66
908.44	14765.85
908.61	14898.97
908.78	15038.23
908.95	15087.39
909.12	14929.69
909.29	14929.69
909.46	14884.64
909.63	14968.60
909.80	14892.83
909.97	14833.44
910.14	14917.40
910.31	14808.86
910.48	14872.35
910.65	14692.13
910.82	14851.87
910.99	14583.59
911.16	14712.61
911.33	14657.31
911.50	14690.08
911.66	14665.50
911.83	14847.77
912.00	14292.77
912.17	14368.55
912.34	14513.95
912.51	14509.86
912.68	14556.96
912.85	14602.02
913.02	14427.94
913.19	14475.04
913.36	14563.11
913.53	14429.99
913.70	14432.04
913.86	14503.71
914.03	14483.24
914.20	14159.66
914.37	14413.60
914.54	14249.77
914.71	14171.94
914.88	14212.90
915.05	14034.73
915.22	14098.22
915.39	14241.57
915.55	14090.02
915.72	14100.26
915.89	14124.84
916.06	13893.42
916.23	14069.55
916.40	13831.98
916.57	13737.77
916.74	13729.58
916.91	13913.90
917.07	13799.21
917.24	13655.86
917.41	13721.39
917.58	13793.07
917.75	13698.86
917.92	13358.90
918.09	13766.45
918.26	13524.79
918.42	13561.65
918.59	13336.37
918.76	13356.85
918.93	13092.66
919.10	13141.82
919.27	13283.13
919.44	13229.88
919.60	13367.09
919.77	13305.65
919.94	13242.17
920.11	13156.15
920.28	13184.82
920.45	13205.30
920.61	12846.91
920.78	13072.18
920.95	12957.50
921.12	13072.18
921.29	12760.89
921.46	12932.92
921.62	12638.02
921.79	12789.56
921.96	12672.83
922.13	12771.13
922.30	12590.91
922.47	12652.35
922.63	12508.99
922.80	12404.55
922.97	12552.00
923.14	12349.25
923.31	12351.30
923.47	12355.40
923.64	12117.83
923.81	12220.23
923.98	12312.39
924.15	12267.33
924.32	12128.07
924.48	12304.20
924.65	12166.98
924.82	11966.28
924.99	12054.34
925.15	11800.40
925.32	12078.92
925.49	11646.80
925.66	11929.42
925.83	11915.08
925.99	11693.90
926.16	11876.17
926.33	11665.23
926.50	11497.30
926.67	11394.90
926.83	11622.22
927.00	11446.10
927.17	11454.29
927.34	11401.04
927.50	11394.90
927.67	11439.95
927.84	11212.63
928.01	11161.43
928.17	11050.84
928.34	11222.87
928.51	11069.27
928.68	10807.13
928.84	10893.15
929.01	10956.63
929.18	10874.71
929.35	10757.98
929.51	10798.94
929.68	10651.49
929.85	10594.14
930.02	10686.30
930.18	10538.85
930.35	10540.90
930.52	10594.14
930.69	10497.89
930.85	10489.70
931.02	10289.00
931.19	10467.17
931.36	10364.77
931.52	10194.79
931.69	10340.19
931.86	10456.93
932.02	10063.72
932.19	10053.48
932.36	9930.60
932.53	10018.66
932.69	9963.37
932.86	10010.47
933.03	9824.11
933.19	9518.96
933.36	9957.22
933.53	9893.74
933.70	9650.03
933.86	9719.66
934.03	9555.82
934.20	9459.57
934.36	9625.45
934.53	9367.41
934.70	9279.35
934.86	9437.04
935.03	9121.65
935.20	9054.07
935.36	9076.60
935.53	8777.59
935.70	9068.41
935.86	8867.70
936.03	8662.91
936.20	8662.91
936.36	8509.31
936.53	8482.69
936.70	8501.12
936.86	8570.75
937.03	8435.58
937.20	8109.96
937.36	8304.51
937.53	8028.04
937.70	8112.00
937.86	7884.68
938.03	7968.65
938.20	7860.10
938.36	7700.36
938.53	7548.81
938.70	7470.99
938.86	7520.14
939.03	7372.69
939.20	7329.68
939.36	7176.08
939.53	7085.97
939.70	7337.87
939.86	6950.81
940.03	6823.83
940.19	6807.45
940.36	6885.27
940.53	6750.10
940.69	6590.36
940.86	6717.34
941.03	6465.44
941.19	6436.77
941.36	6463.39
941.52	6340.51
941.69	6404.00
941.86	6324.13
942.02	6193.06
942.19	6336.42
942.35	6111.14
942.52	5973.92
942.69	5980.07
942.85	6059.94
943.02	5883.81
943.18	5808.04
943.35	5877.67
943.52	5746.60
943.68	5674.92
943.85	5666.73
944.01	5537.71
944.18	5646.25
944.35	5664.68
944.51	5468.08
944.68	5314.48
944.84	5451.69
945.01	5511.08
945.17	5525.42
945.34	5593.00
945.51	5459.88
945.67	5439.40
945.84	5492.65
946.00	5320.62
946.17	5457.84
946.33	5259.18
946.50	5527.47
946.67	5572.52
946.83	5093.30
947.00	5410.73
947.16	5402.54
947.33	5214.13
947.49	5392.30
947.66	5255.09
947.82	5435.31
947.99	5187.50
948.16	5412.78
948.32	5408.69
948.49	5312.43
948.65	5328.81
948.82	5357.49
948.98	5361.58
949.15	5171.12
949.31	5255.09
949.48	5236.66
949.64	5326.77
949.81	5365.68
949.97	5302.19
950.14	5228.46
950.30	5250.99
950.47	5484.46
950.63	5375.92
950.80	5304.24
950.96	5324.72
951.13	5375.92
951.30	5277.62
951.46	5339.05
951.63	5443.50
951.79	5308.34
951.96	5457.84
952.12	5588.91
952.29	5439.40
952.45	5369.77
952.62	5390.25
952.78	5451.69
952.94	5351.34
953.11	5459.88
953.27	5363.63
953.44	5496.75
953.60	5527.47
953.77	5621.67
953.93	5447.60
954.10	5377.97
954.26	5523.37
954.43	5490.60
954.59	5558.19
954.76	5547.95
954.92	5582.76
955.09	5484.46
955.25	5439.40
955.42	5490.60
955.58	5550.00
955.75	5574.57
955.91	5564.33
956.07	5468.08
956.24	5750.70
956.40	5556.14
956.57	5484.46
956.73	5529.52
956.90	5459.88
957.06	5486.51
957.23	5447.60
957.39	5423.02
957.56	5504.94
957.72	5468.08
957.88	5482.41
958.05	5558.19
958.21	5707.69
958.38	5461.93
958.54	5539.76
958.71	5463.98
958.87	5566.38
959.03	5488.56
959.20	5554.09
959.36	5457.84
959.53	5455.79
959.69	5511.08
959.85	5527.47
960.02	5418.93
960.18	5490.60
960.35	5459.88
960.51	5689.26
960.68	5420.97
960.84	5619.63
961.00	5408.69
961.17	5539.76
961.33	5506.99
961.50	5582.76
961.66	5474.22
961.82	5420.97
961.99	5509.04
962.15	5545.90
962.31	5212.08
962.48	5472.17
962.64	5568.43
962.81	5470.12
962.97	5472.17
963.13	5377.97
963.30	5431.21
963.46	5375.92
963.62	5394.35
963.79	5316.53
963.95	5359.53
964.12	5345.20
964.28	5498.80
964.44	5392.30
964.61	5476.27
964.77	5472.17
964.93	5451.69
965.10	5257.14
965.26	5275.57
965.42	5275.57
965.59	5271.47
965.75	5406.64
965.92	5326.77
966.08	5435.31
966.24	5382.06
966.41	5341.10
966.57	5357.49
966.73	5326.77
966.90	5363.63
967.06	5308.34
967.22	5373.87
967.39	5214.13
967.55	5310.38
967.71	5287.86
967.88	5181.36
968.04	5271.47
968.20	5230.51
968.37	5236.66
968.53	5193.65
968.69	5351.34
968.85	5253.04
969.02	5269.42
969.18	5267.38
969.34	5234.61
969.51	5052.34
969.67	5263.28
969.83	5181.36
970.00	5261.23
970.16	5191.60
970.32	5083.06
970.48	5203.89
970.65	5216.18
970.81	5214.13
970.97	5089.20
971.14	5107.63
971.30	5136.31
971.46	5097.39
971.63	4949.94
971.79	5083.06
971.95	5054.39
972.11	4997.04
972.28	4980.66
972.44	5132.21
972.60	5050.29
972.76	4884.41
972.93	5029.81
973.09	5025.72
973.25	5078.96
973.42	4949.94
973.58	4908.98
973.74	4937.65
973.90	5134.26
974.07	4917.17
974.23	4958.13
974.39	5044.15
974.55	4865.97
974.72	4880.31
974.88	4843.45
975.04	4788.15
975.20	4827.06
975.37	4923.32
975.53	4878.26
975.69	4995.00
975.85	4804.53
976.01	4822.97
976.18	4800.44
976.34	4818.87
976.50	4865.97
976.66	4988.85
976.83	4900.79
976.99	4798.39
977.15	4642.75
977.31	4646.84
977.47	4782.01
977.64	4810.68
977.80	4745.14
977.96	4734.90
978.12	4636.60
978.29	4622.27
978.45	4550.59
978.61	4599.74
978.77	4638.65
978.93	4581.31
979.10	4628.41
979.26	4526.01
979.42	4566.97
979.58	4470.72
979.74	4476.86
979.91	4462.52
980.07	4511.68
980.23	4628.41
980.39	4429.76
980.55	4419.52
980.71	4548.54
980.88	4403.13
981.04	4431.80
981.20	4480.96
981.36	4423.61
981.52	4347.84
981.68	4378.56
981.85	4376.51
982.01	4612.03
982.17	4263.87
982.33	4218.82
982.49	4415.42
982.65	4237.25
982.82	4407.23
982.98	4261.82
983.14	4272.06
983.30	4456.38
983.46	4456.38
983.62	4329.41
983.79	4280.25
983.95	4272.06
984.11	4102.08
984.27	4212.67
984.43	4339.65
984.59	4351.93
984.75	4323.26
984.91	4229.06
985.08	4304.83
985.24	4165.57
985.40	4108.23
985.56	4288.45
985.72	4253.63
985.88	4255.68
986.04	4198.34
986.20	4136.90
986.37	4081.60
986.53	4014.02
986.69	4046.79
986.85	4001.73
987.01	4085.70
987.17	4079.55
987.33	4079.55
987.49	3938.24
987.65	4048.83
987.82	4083.65
987.98	3948.48
988.14	4065.22
988.30	3985.35
988.46	3975.11
988.62	4001.73
988.78	3932.10
988.94	3960.77
989.10	3985.35
989.26	3821.51
989.42	3932.10
989.59	4061.12
989.75	3858.37
989.91	3901.38
990.07	3747.78
990.23	3864.52
990.39	3796.93
990.55	3909.57
990.71	3766.21
990.87	3854.28
991.03	3934.15
991.19	3778.50
991.35	3780.55
991.51	3782.60
991.67	3815.37
991.83	3817.41
992.00	3878.85
992.16	3821.51
992.32	3751.88
992.48	3917.76
992.64	3686.34
992.80	3768.26
992.96	3690.44
993.12	3659.72
993.28	3655.62
993.44	3620.81
993.60	3680.20
993.76	3639.24
993.92	3653.58
994.08	3684.30
994.24	3612.62
994.40	3751.88
994.56	3735.50
994.72	3588.04
994.88	3475.40
995.04	3682.25
995.20	3624.90
995.36	3520.46
995.52	3596.23
995.68	3602.38
995.84	3532.75
996.00	3649.48
996.16	3499.98
996.32	3551.18
996.48	3530.70
996.64	3622.86
996.80	3528.65
996.96	3502.03
997.12	3471.31
997.28	3399.63
997.44	3403.72
997.60	3465.16
997.76	3467.21
997.92	3391.44
998.08	3420.11
998.24	3422.16
998.40	3471.31
998.56	3473.36
998.72	3510.22
998.88	3370.96
999.04	3416.01
999.20	3444.68
999.36	3368.91
999.52	3454.92
999.68	3332.05
999.84	3360.72
1000.00	3379.15
1000.16	3231.69
1000.32	3239.89
1000.48	3444.68
1000.64	3286.99
1000.80	3182.54
1000.95	3225.55
1001.11	3332.05
1001.27	3129.30
1001.43	3268.56
1001.59	3164.11
1001.75	3248.08
1001.91	3225.55
1002.07	3207.12
1002.23	3221.45
1002.39	3196.88
1002.55	3198.93
1002.71	3170.26
1002.87	3119.06
1003.03	3157.97
1003.19	3035.09
1003.34	3194.83
1003.50	3065.81
1003.66	3174.35
1003.82	3143.63
1003.98	3016.66
1004.14	3123.15
1004.30	2971.60
1004.46	3012.56
1004.62	3084.24
1004.78	3162.06
1004.94	3035.09
1005.09	3260.37
1005.25	3153.87
1005.41	2967.51
1005.57	3002.32
1005.73	3063.76
1005.89	3008.47
1006.05	2959.31
1006.21	3018.71
1006.37	2904.02
1006.52	2975.70
1006.68	2830.29
1006.84	2967.51
1007.00	2924.50
1007.16	2985.94
1007.32	2955.22
1007.48	2940.88
1007.64	2908.12
1007.79	3018.71
1007.95	2861.01
1008.11	2930.64
1008.27	2918.36
1008.43	2828.24
1008.59	2830.29
1008.75	2799.57
1008.91	2891.73
1009.06	2854.87
1009.22	2895.83
1009.38	2811.86
1009.54	2848.72
1009.70	2752.47
1009.86	2832.34
1010.01	2822.10
1010.17	2688.98
1010.33	2830.29
1010.49	2770.90
1010.65	2836.44
1010.81	2715.61
1010.96	2797.53
1011.12	2744.28
1011.28	2674.65
1011.44	2727.89
1011.60	2723.80
1011.76	2613.21
1011.91	2789.33
1012.07	2578.39
1012.23	2639.83
1012.39	2699.22
1012.55	2779.09
1012.71	2682.84
1012.86	2727.89
1013.02	2666.46
1013.18	2672.60
1013.34	2648.02
1013.50	2686.94
1013.65	2656.22
1013.81	2617.30
1013.97	2600.92
1014.13	2596.82
1014.29	2666.46
1014.44	2686.94
1014.60	2643.93
1014.76	2590.68
1014.92	2650.07
1015.07	2592.73
1015.23	2635.74
1015.39	2564.06
1015.55	2598.87
1015.71	2494.43
1015.86	2637.78
1016.02	2541.53
1016.18	2437.08
1016.34	2516.95
1016.49	2486.23
1016.65	2600.92
1016.81	2535.39
1016.97	2498.52
1017.12	2453.47
1017.28	2469.85
1017.44	2398.17
1017.60	2475.99
1017.75	2502.62
1017.91	2398.17
1018.07	2449.37
1018.23	2510.81
1018.38	2465.75
1018.54	2525.15
1018.70	2492.38
1018.86	2490.33
1019.01	2389.98
1019.17	2394.08
1019.33	2547.67
1019.49	2475.99
1019.64	2461.66
1019.80	2392.03
1019.96	2475.99
1020.12	2523.10
1020.27	2293.72
1020.43	2453.47
1020.59	2439.13
1020.74	2412.51
1020.90	2387.93
1021.06	2310.11
1021.22	2404.32
1021.37	2383.84
1021.53	2332.64
1021.69	2414.56
1021.84	2336.73
1022.00	2367.45
1022.16	2330.59
1022.31	2351.07
1022.47	2310.11
1022.63	2295.77
1022.79	2242.53
1022.94	2320.35
1023.10	2400.22
1023.26	2209.76
1023.41	2351.07
1023.57	2226.14
1023.73	2328.54
1023.88	2281.44
1024.04	2312.16
1024.20	2267.10
1024.35	2260.96
1024.51	2238.43
1024.67	2269.15
1024.82	2228.19
1024.98	2271.20
1025.14	2279.39
1025.29	2250.72
1025.45	2322.40
1025.61	2156.51
1025.76	2220.00
1025.92	2211.81
1026.08	2185.18
1026.23	2203.61
1026.39	2281.44
1026.55	2195.42
1026.70	2166.75
1026.86	2129.89
1027.02	2150.37
1027.17	2164.70
1027.33	2187.23
1027.48	2256.86
1027.64	2082.78
1027.80	2158.56
1027.95	2213.85
1028.11	2050.02
1028.27	2133.98
1028.42	2154.46
1028.58	2076.64
1028.73	2166.75
1028.89	2115.55
1029.05	2203.61
1029.20	2123.74
>>>>>End Processed Spectral Data<<<<<
