SpectraSuite Data File
++++++++++++++++++++++++++++++++++++
Date: Fri Jun 02 14:57:20 CEST 2017
User: INFO_000
Dark Spectrum Present: No
Reference Spectrum Present: No
Number of Sampled Component Spectra: 1
Spectrometers: USB4H00879
Integration Time (usec): 80000 (USB4H00879)
Spectra Averaged: 1 (USB4H00879)
Boxcar Smoothing: 0 (USB4H00879)
Correct for Electrical Dark: No (USB4H00879)
Strobe/Lamp Enabled: No (USB4H00879)
Correct for Detector Non-linearity: No (USB4H00879)
Correct for Stray Light: No (USB4H00879)
Number of Pixels in Processed Spectrum: 3648
>>>>>Begin Processed Spectral Data<<<<<
345.13	1253.36
345.34	1253.36
345.56	1253.36
345.78	1329.13
345.99	1228.78
346.21	1716.20
346.42	1699.81
346.64	1646.57
346.86	1820.64
347.07	1636.33
347.29	1716.20
347.50	1656.81
347.72	1697.77
347.94	1685.48
348.15	1687.53
348.37	1617.90
348.59	1712.10
348.80	1697.77
349.02	1730.53
349.23	1828.84
349.45	1759.21
349.67	1923.04
349.88	1861.60
350.10	1992.67
350.31	1875.94
350.53	1789.92
350.75	1882.08
350.96	1791.97
351.18	1820.64
351.39	1880.04
351.61	1853.41
351.82	1845.22
352.04	1882.08
352.26	1781.73
352.47	1933.28
352.69	1929.19
352.90	1791.97
353.12	1861.60
353.34	1837.03
353.55	1902.56
353.77	1863.65
353.98	1853.41
354.20	1857.51
354.41	1888.23
354.63	1861.60
354.85	1961.95
355.06	1892.32
355.28	1765.35
355.49	1927.14
355.71	1994.72
355.92	1869.80
356.14	1908.71
356.35	1818.60
356.57	1859.56
356.79	1914.85
357.00	1828.84
357.22	2066.40
357.43	1898.47
357.65	2002.91
357.86	1888.23
358.08	1964.00
358.29	1951.71
358.51	2021.35
358.72	1966.05
358.94	1882.08
359.16	1927.14
359.37	1941.47
359.59	1966.05
359.80	1976.29
360.02	1949.67
360.23	1961.95
360.45	1998.82
360.66	1867.75
360.88	1816.55
361.09	1998.82
361.31	2029.54
361.52	1914.85
361.74	2045.92
361.95	2021.35
362.17	1986.53
362.38	2086.88
362.60	2082.78
362.81	1916.90
363.03	1902.56
363.24	2002.91
363.46	2007.01
363.67	2000.87
363.89	1961.95
364.10	2002.91
364.32	1951.71
364.53	2029.54
364.75	1904.61
364.96	2013.15
365.18	2011.11
365.39	2031.58
365.61	1927.14
365.82	2101.22
366.04	1982.43
366.25	1955.81
366.47	1988.58
366.68	1990.63
366.90	2009.06
367.11	2062.30
367.33	2058.21
367.54	2078.69
367.76	1994.72
367.97	2154.46
368.19	2113.50
368.40	2097.12
368.62	1935.33
368.83	1931.23
369.05	2027.49
369.26	1923.04
369.48	1923.04
369.69	2027.49
369.91	2058.21
370.12	2105.31
370.33	2144.22
370.55	2017.25
370.76	2084.83
370.98	2168.80
371.19	2033.63
371.41	2050.02
371.62	2115.55
371.84	2009.06
372.05	2183.13
372.27	2021.35
372.48	2084.83
372.69	2093.02
372.91	2183.13
373.12	2187.23
373.34	2123.74
373.55	2160.61
373.77	2160.61
373.98	2095.07
374.20	2250.72
374.41	2242.53
374.62	2078.69
374.84	2193.37
375.05	2156.51
375.27	2191.33
375.48	2213.85
375.70	2195.42
375.91	2236.38
376.12	2277.34
376.34	2207.71
376.55	2170.85
376.77	2168.80
376.98	2093.02
377.19	2158.56
377.41	2162.66
377.62	2187.23
377.84	2158.56
378.05	2359.26
378.27	2211.81
378.48	2322.40
378.69	2375.64
378.91	2297.82
379.12	2281.44
379.34	2242.53
379.55	2242.53
379.76	2197.47
379.98	2240.48
380.19	2254.81
380.41	2383.84
380.62	2303.96
380.83	2203.61
381.05	2273.25
381.26	2412.51
381.47	2324.44
381.69	2238.43
381.90	2359.26
382.12	2383.84
382.33	2254.81
382.54	2265.05
382.76	2314.20
382.97	2297.82
383.19	2207.71
383.40	2387.93
383.61	2318.30
383.83	2416.60
384.04	2299.87
384.25	2301.92
384.47	2430.94
384.68	2365.40
384.89	2297.82
385.11	2383.84
385.32	2432.99
385.54	2287.58
385.75	2312.16
385.96	2353.12
386.18	2361.31
386.39	2369.50
386.60	2351.07
386.82	2428.89
387.03	2455.51
387.24	2535.39
387.46	2453.47
387.67	2480.09
387.88	2486.23
388.10	2514.91
388.31	2414.56
388.52	2611.16
388.74	2527.19
388.95	2449.37
389.16	2459.61
389.38	2545.63
389.59	2559.96
389.80	2551.77
390.02	2598.87
390.23	2539.48
390.44	2484.19
390.66	2553.82
390.87	2492.38
391.08	2639.83
391.30	2600.92
391.51	2731.99
391.72	2678.74
391.94	2600.92
392.15	2729.94
392.36	2582.49
392.58	2568.15
392.79	2570.20
393.00	2713.56
393.22	2695.13
393.43	2768.85
393.64	2787.29
393.85	2744.28
394.07	2641.88
394.28	2727.89
394.49	2740.18
394.71	2713.56
394.92	2916.31
395.13	2678.74
395.35	2600.92
395.56	2756.57
395.77	2846.68
395.98	2879.44
396.20	2897.88
396.41	2818.00
396.62	2858.96
396.84	2775.00
397.05	2826.20
397.26	2895.83
397.47	2994.13
397.69	2834.39
397.90	3059.67
398.11	2901.97
398.32	2891.73
398.54	2936.79
398.75	2889.68
398.96	3033.04
399.18	3084.24
399.39	2994.13
399.60	2994.13
399.81	2998.23
400.03	2934.74
400.24	3250.13
400.45	2994.13
400.66	3094.48
400.88	2967.51
401.09	3256.27
401.30	3184.59
401.51	3198.93
401.73	3110.86
401.94	3110.86
402.15	3086.29
402.36	3149.78
402.58	3106.77
402.79	3164.11
403.00	3262.41
403.21	3094.48
403.43	3141.58
403.64	3260.37
403.85	3184.59
404.06	3190.74
404.27	3114.96
404.49	3239.89
404.70	3131.34
404.91	3330.00
405.12	3254.22
405.34	3190.74
405.55	3346.38
405.76	3182.54
405.97	3229.65
406.19	3495.88
406.40	3319.76
406.61	3350.48
406.82	3235.79
407.03	3301.33
407.25	3313.61
407.46	3338.19
407.67	3418.06
407.88	3540.94
408.09	3422.16
408.31	3420.11
408.52	3319.76
408.73	3436.49
408.94	3297.23
409.15	3461.07
409.37	3551.18
409.58	3510.22
409.79	3461.07
410.00	3573.71
410.21	3403.72
410.43	3538.89
410.64	3405.77
410.85	3446.73
411.06	3463.12
411.27	3649.48
411.48	3592.14
411.70	3542.99
411.91	3516.36
412.12	3575.75
412.33	3557.32
412.54	3571.66
412.76	3659.72
412.97	3616.71
413.18	3561.42
413.39	3631.05
413.60	3717.06
413.81	3616.71
414.03	3542.99
414.24	3540.94
414.45	3817.41
414.66	3604.42
414.87	3780.55
415.08	3622.86
415.30	3669.96
415.51	3768.26
415.72	3710.92
415.93	3749.83
416.14	3729.35
416.35	3889.09
416.56	3766.21
416.78	3911.62
416.99	3764.17
417.20	3905.48
417.41	3854.28
417.62	3864.52
417.83	3950.53
418.04	3911.62
418.26	3805.13
418.47	3831.75
418.68	3977.16
418.89	3971.01
419.10	3944.39
419.31	4040.64
419.52	3919.81
419.73	3960.77
419.95	3975.11
420.16	3825.61
420.37	3925.96
420.58	3993.54
420.79	3882.95
421.00	4136.90
421.21	4112.32
421.42	4054.98
421.63	4114.37
421.85	3991.49
422.06	4218.82
422.27	4296.64
422.48	4153.28
422.69	4177.86
422.90	4227.01
423.11	4247.49
423.32	4353.98
423.53	4464.57
423.75	4218.82
423.96	4407.23
424.17	4425.66
424.38	4622.27
424.59	4427.71
424.80	4507.58
425.01	4380.61
425.22	4372.41
425.43	4450.24
425.64	4655.03
425.85	4603.83
426.06	4521.92
426.28	4546.49
426.49	4550.59
426.70	4550.59
426.91	4663.22
427.12	4591.55
427.33	4579.26
427.54	4622.27
427.75	4706.23
427.96	4822.97
428.17	4835.25
428.38	4796.34
428.59	4822.97
428.80	4800.44
429.01	4894.65
429.23	4876.21
429.44	4911.03
429.65	5107.63
429.86	4966.32
430.07	4802.49
430.28	4841.40
430.49	5070.77
430.70	5119.92
430.91	5038.00
431.12	4882.36
431.33	5164.98
431.54	5144.50
431.75	5111.73
431.96	5056.43
432.17	5181.36
432.38	5250.99
432.59	5363.63
432.80	5220.27
433.01	5367.73
433.22	5296.05
433.43	5337.01
433.64	5199.79
433.85	5255.09
434.06	5316.53
434.27	5306.29
434.49	5541.80
434.70	5386.16
434.91	5498.80
435.12	5484.46
435.33	5615.53
435.54	5517.23
435.75	5236.66
435.96	5384.11
436.17	5482.41
436.38	5629.87
436.59	5615.53
436.80	5480.36
437.01	5883.81
437.22	5867.43
437.43	5623.72
437.64	5494.70
437.85	5726.12
438.06	5715.88
438.27	5724.07
438.48	5750.70
438.69	5859.24
438.90	5851.05
439.11	5722.02
439.32	5877.67
439.53	5695.40
439.74	5812.14
439.95	5930.92
440.16	5922.73
440.37	5943.21
440.57	5734.31
440.78	6023.08
440.99	6123.43
441.20	6057.89
441.41	5822.38
441.62	6072.23
441.83	5973.92
442.04	6129.57
442.25	6053.80
442.46	5963.68
442.67	6164.39
442.88	6408.09
443.09	6002.60
443.30	6215.59
443.51	6240.16
443.72	6573.98
443.93	6117.28
444.14	6393.76
444.35	6184.87
444.56	6416.29
444.77	6203.30
444.98	6410.14
445.19	6371.23
445.40	6311.84
445.61	6467.49
445.81	6492.06
446.02	6492.06
446.23	6604.70
446.44	6395.81
446.65	6461.34
446.86	6520.73
447.07	6588.32
447.28	6672.28
447.49	6670.23
447.70	6506.40
447.91	6717.34
448.12	6629.27
448.33	6817.69
448.54	6774.68
448.74	6692.76
448.95	6782.87
449.16	6621.08
449.37	7049.11
449.58	6815.64
449.79	6952.85
450.00	6748.06
450.21	6846.36
450.42	6809.50
450.63	7159.70
450.84	6995.86
451.05	7100.31
451.25	7057.30
451.46	6752.15
451.67	7143.32
451.88	7139.22
452.09	7233.43
452.30	6979.48
452.51	7208.85
452.72	7470.99
452.93	7456.65
453.13	7258.00
453.34	7077.78
453.55	7270.29
453.76	7217.04
453.97	7530.38
454.18	7292.82
454.39	7620.49
454.60	7458.70
454.81	7473.04
455.01	7538.57
455.22	7370.64
455.43	7655.31
455.64	7911.30
455.85	7884.68
456.06	7804.81
456.27	7702.41
456.48	7626.64
456.68	7743.37
456.89	7761.80
457.10	7958.41
457.31	7878.54
457.52	7925.64
457.73	7882.63
457.94	8200.07
458.14	7806.86
458.35	8423.30
458.56	7989.13
458.77	8097.67
458.98	8265.60
459.19	8089.48
459.39	8318.85
459.60	8433.54
459.81	8214.40
460.02	8406.91
460.23	8394.62
460.44	8798.07
460.65	8634.24
460.85	8505.21
461.06	8712.06
461.27	8492.93
461.48	8718.20
461.69	8890.23
461.89	8677.24
462.10	8836.99
462.31	8621.95
462.52	8748.92
462.73	8781.69
462.94	8933.24
463.14	8888.18
463.35	9078.65
463.56	9240.44
463.77	9394.03
463.98	9224.05
464.18	9135.99
464.39	9396.08
464.60	9478.00
464.81	9443.18
465.02	9387.89
465.23	9641.84
465.43	9467.76
465.64	9867.11
465.85	9490.29
466.06	9580.40
466.27	9789.29
466.47	9848.68
466.68	9922.41
466.89	9865.07
467.10	10067.81
467.30	9946.98
467.51	10227.56
467.72	10479.46
467.93	10067.81
468.14	10211.17
468.34	10602.33
468.55	10450.78
468.76	10370.91
468.97	10362.72
469.17	10381.15
469.38	10612.57
469.59	10848.09
469.80	10602.33
470.01	10927.96
470.21	10774.36
470.42	10983.26
470.63	11032.41
470.84	10923.87
471.04	11200.34
471.25	11018.07
471.46	11151.19
471.67	11278.16
471.87	11157.33
472.08	11372.37
472.29	11593.55
472.50	11364.18
472.70	11300.69
472.91	11571.02
473.12	11876.17
473.33	11669.33
473.53	12021.58
473.74	11872.07
473.95	12230.47
474.16	12359.49
474.36	12185.41
474.57	12699.45
474.78	12435.27
474.99	12422.98
475.19	12353.35
475.40	12719.93
475.61	12685.12
475.81	12973.88
476.02	13160.25
476.23	12767.04
476.44	13096.76
476.64	13289.27
476.85	13602.61
477.06	13336.37
477.27	13586.22
477.47	13631.28
477.68	13469.49
477.89	13719.34
478.09	13788.97
478.30	13786.93
478.51	14018.35
478.71	14057.26
478.92	14386.98
479.13	14477.09
479.34	14405.41
479.54	14442.28
479.75	14556.96
479.96	14593.83
480.16	14673.70
480.37	14817.05
480.58	14954.27
480.78	15195.93
480.99	15193.88
481.20	15161.11
481.41	15290.13
481.61	15525.65
481.82	15564.56
482.03	15716.11
482.23	15320.85
482.44	15898.38
482.65	16011.02
482.85	15863.57
483.06	16185.10
483.27	16172.81
483.47	16084.75
483.68	16228.10
483.89	16416.52
484.09	16312.07
484.30	16609.03
484.51	16764.67
484.71	17037.05
484.92	16828.16
485.13	16928.51
485.33	17004.28
485.54	17008.38
485.75	17403.64
485.95	17399.54
486.16	17458.93
486.37	17747.70
486.57	17561.33
486.78	17489.65
486.98	17557.24
487.19	17866.48
487.40	18069.23
487.60	18048.75
487.81	18378.47
488.02	18239.21
488.22	18214.63
488.43	18446.05
488.64	18472.68
488.84	18726.63
489.05	18849.50
489.25	18691.81
489.46	19058.40
489.67	18743.01
489.87	19240.67
490.08	18829.02
490.29	19201.76
490.49	19621.59
490.70	19582.68
490.90	19693.27
491.11	19398.36
491.32	19531.48
491.52	19625.68
491.73	19965.65
491.94	20111.05
492.14	20168.40
492.35	20297.42
492.55	20063.95
492.76	20397.77
492.97	20455.11
493.17	20483.78
493.38	20594.37
493.58	20764.36
493.79	20670.15
494.00	20825.79
494.20	20915.90
494.41	21106.37
494.61	21266.11
494.82	20969.15
495.02	21094.08
495.23	21386.94
495.44	21604.02
495.64	21765.81
495.85	21569.21
496.05	21870.26
496.26	21444.28
496.47	21943.99
496.67	21585.59
496.88	22030.00
497.08	21827.25
497.29	22134.45
497.49	22113.97
497.70	22308.52
497.91	22384.30
498.11	22744.74
498.32	22605.48
498.52	22478.50
498.73	22824.61
498.93	22718.12
499.14	22814.37
499.34	23000.74
499.55	22898.34
499.76	22982.31
499.96	23156.38
500.17	23140.00
500.37	23334.56
500.58	23088.80
500.78	23336.60
500.99	23475.87
501.19	23666.33
501.40	23535.26
501.60	23598.74
501.81	23629.46
502.02	23846.55
502.22	23375.52
502.43	23961.23
502.63	24374.92
502.84	24256.14
503.04	24094.35
503.25	24313.48
503.45	24131.22
503.66	24317.58
503.86	24311.44
504.07	24737.41
504.27	24254.09
504.48	24882.82
504.68	24667.78
504.89	25149.06
505.09	25036.42
505.30	24893.06
505.50	24934.02
505.71	24688.26
505.91	24956.55
506.12	25022.08
506.32	25357.95
506.53	25200.26
506.73	25333.37
506.94	25587.32
507.14	25400.96
507.35	25740.92
507.55	25523.83
507.76	25579.13
507.96	25591.42
508.17	25652.86
508.37	25624.18
508.58	25994.87
508.78	25822.84
508.99	26310.25
509.19	25841.27
509.40	26046.07
509.60	26150.51
509.81	26330.73
510.01	26168.94
510.22	26318.45
510.42	26398.32
510.63	26627.69
510.83	26517.10
511.04	26244.72
511.24	26621.55
511.44	26918.50
511.65	26596.97
511.85	26959.46
512.06	26910.31
512.26	27166.31
512.47	26928.74
512.67	26668.65
512.88	26941.03
513.08	26771.05
513.29	27184.74
513.49	27438.69
513.69	27199.07
513.90	27115.11
514.10	27280.99
514.31	27367.01
514.51	27260.51
514.72	27295.33
514.92	27516.51
515.13	27592.28
515.33	27330.14
515.53	27522.65
515.74	27715.16
515.94	27594.33
516.15	27698.78
516.35	27651.67
516.56	28194.39
516.76	27588.19
516.96	27817.56
517.17	28143.19
517.37	28231.25
517.58	28159.57
517.78	27809.37
517.99	28206.67
518.19	28266.06
518.39	28761.67
518.60	28884.55
518.80	28661.32
519.01	28546.64
519.21	28679.75
519.41	28462.67
519.62	28296.78
519.82	28716.62
520.03	29146.69
520.23	28780.10
520.43	28849.74
520.64	29318.72
520.84	29304.38
521.05	29189.70
521.25	29605.44
521.45	29500.99
521.66	29464.13
521.86	29396.54
522.07	29380.16
522.27	29670.97
522.47	29546.05
522.68	29668.92
522.88	29853.24
523.08	29949.50
523.29	30217.78
523.49	29961.78
523.70	29955.64
523.90	30234.16
524.10	30379.57
524.31	30174.77
524.51	29816.38
524.71	30850.60
524.92	30494.25
525.12	30692.91
525.33	30742.06
525.53	30803.50
525.73	30836.27
525.94	31110.69
526.14	31112.74
526.34	30940.71
526.55	31012.39
526.75	31245.86
526.95	31387.17
527.16	31501.86
527.36	31088.17
527.56	31280.67
527.77	31888.92
527.97	31723.04
528.17	31557.15
528.38	31936.02
528.58	31680.03
528.78	31843.87
528.99	31743.52
529.19	32362.00
529.39	32095.77
529.60	32243.22
529.80	32728.59
530.00	32218.64
530.21	32642.57
530.41	33029.64
530.61	32429.59
530.82	32574.99
531.02	32792.08
531.22	32603.66
531.43	32953.87
531.63	32804.36
531.83	33148.42
532.04	33383.94
532.24	33166.85
532.44	33848.83
532.64	33719.81
532.85	33568.26
533.05	33904.12
533.25	33664.51
533.46	33668.61
533.66	34119.16
533.86	34123.26
534.07	34389.49
534.27	34420.21
534.47	34328.05
534.67	34649.58
534.88	34442.74
535.08	34602.48
535.28	34641.39
535.49	34672.11
535.69	35157.48
535.89	35007.98
536.09	34956.78
536.30	35417.57
536.50	35155.43
536.70	35663.33
536.91	35364.32
537.11	35706.34
537.31	35741.15
537.51	35634.66
537.72	36107.74
537.92	36126.17
538.12	36425.17
538.32	36062.68
538.53	35980.76
538.73	36095.45
538.93	36212.18
539.13	36179.42
539.34	36441.56
539.54	36195.80
539.74	36668.88
539.94	36826.57
540.15	36603.35
540.35	37080.52
540.55	36931.02
540.75	36984.27
540.96	36830.67
541.16	37518.79
541.36	37107.15
541.56	37715.39
541.77	37334.47
541.97	37414.34
542.17	37430.72
542.37	37410.25
542.58	38065.60
542.78	37807.55
542.98	37383.62
543.18	37705.15
543.38	38315.45
543.59	37952.96
543.79	38315.45
543.99	37995.96
544.19	38301.11
544.40	38137.27
544.60	38839.73
544.80	38481.33
545.00	38299.06
545.20	38573.49
545.41	38679.99
545.61	38460.85
545.81	38722.99
546.01	39232.94
546.21	38755.76
546.42	38776.24
546.62	39044.52
546.82	38901.17
547.02	39050.67
547.22	39069.10
547.43	39073.20
547.63	39245.23
547.83	39460.26
548.03	39130.54
548.23	39550.37
548.44	39716.26
548.64	39863.71
548.84	39781.79
549.04	39605.67
549.24	40166.81
549.45	40160.67
549.65	39867.81
549.85	39937.44
550.05	40058.27
550.25	39845.28
550.45	40576.40
550.66	39959.97
550.86	40154.52
551.06	40258.97
551.26	40199.58
551.46	40183.19
551.66	40439.19
551.87	40426.90
552.07	40664.47
552.27	40756.63
552.47	41014.67
552.67	40791.44
552.87	40818.07
553.07	40813.97
553.28	41129.36
553.48	41063.82
553.68	40691.09
553.88	41172.36
554.08	41168.27
554.28	41250.19
554.48	41080.21
554.69	41262.47
554.89	41328.01
555.09	41495.94
555.29	41244.04
555.49	41313.67
555.69	41446.79
555.89	41442.70
556.10	41438.60
556.30	41518.47
556.50	41559.43
556.70	41514.37
556.90	41932.16
557.10	41840.00
557.30	41506.18
557.50	42292.60
557.70	42192.25
557.91	42438.01
558.11	41952.64
558.31	42268.03
558.51	42063.23
558.71	42261.88
558.91	42024.32
559.11	41893.25
559.31	42231.16
559.51	42106.24
559.72	42562.93
559.92	42124.67
560.12	42472.82
560.32	42712.44
560.52	42419.58
560.72	42657.14
560.92	42906.99
561.12	42509.69
561.32	43152.75
561.52	42579.32
561.72	43275.63
561.93	42734.96
562.13	43005.30
562.33	42780.02
562.53	42882.42
562.73	42923.38
562.93	42837.36
563.13	43122.03
563.33	43158.89
563.53	43513.19
563.73	42859.89
563.93	43410.79
564.13	43644.26
564.33	43548.01
564.53	43392.36
564.74	43642.21
564.94	43443.56
565.14	43623.78
565.34	43822.44
565.54	43390.31
565.74	43461.99
565.94	44086.62
566.14	43890.02
566.34	43498.86
566.54	43742.56
566.74	43631.97
566.94	43525.48
567.14	44248.41
567.34	43924.83
567.54	43816.29
567.74	43947.36
567.94	43984.22
568.14	44172.64
568.34	44438.87
568.54	44201.31
568.74	44326.24
568.94	44356.96
569.14	44567.90
569.34	44430.68
569.54	44250.46
569.75	44219.74
569.95	44653.91
570.15	44526.94
570.35	44340.57
570.55	44371.29
570.75	44703.06
570.95	45006.16
571.15	44533.08
571.35	44834.13
571.55	44981.59
571.75	44817.75
571.95	44866.90
572.15	44639.57
572.35	45315.40
572.55	45073.74
572.75	45116.75
572.95	45094.22
573.15	45370.70
573.35	45206.86
573.55	45002.07
573.75	45231.44
573.95	45530.44
574.15	45315.40
574.35	45565.26
574.55	45727.05
574.75	45821.25
574.95	45974.85
575.15	45399.37
575.34	45868.36
575.54	45788.49
575.74	46024.00
575.94	46296.38
576.14	45776.20
576.34	46323.01
576.54	46312.77
576.74	46282.05
576.94	45829.44
577.14	46366.01
577.34	46290.24
577.54	46214.46
577.74	46447.93
577.94	46323.01
578.14	46710.07
578.34	46474.55
578.54	46390.59
578.74	46417.21
578.94	46751.03
579.14	46550.33
579.34	46966.07
579.54	46927.16
579.74	47152.43
579.94	47068.47
580.13	46652.73
580.33	46921.01
580.53	47078.71
580.73	46980.40
580.93	47136.05
581.13	47254.83
581.33	47539.50
581.53	47488.30
581.73	47168.82
581.93	47807.78
582.13	47287.60
582.33	47906.08
582.53	47781.16
582.73	47695.14
582.92	47686.95
583.12	47947.04
583.32	48063.78
583.52	47645.99
583.72	48149.79
583.92	47768.87
584.12	48055.59
584.32	48401.69
584.52	48383.26
584.72	48131.36
584.92	48375.07
585.11	49177.87
585.31	48350.49
585.51	48319.77
585.71	47826.21
585.91	48895.25
586.11	48340.25
586.31	48536.86
586.51	48237.86
586.71	48907.54
586.91	48887.06
587.10	48964.88
587.30	48811.29
587.50	49536.27
587.70	49020.18
587.90	49296.66
588.10	49155.35
588.30	49194.26
588.50	49327.38
588.69	49026.32
588.89	49059.09
589.09	49177.87
589.29	49265.94
589.49	49483.02
589.69	48905.49
589.89	49685.77
590.08	49790.22
590.28	49458.45
590.48	49437.97
590.68	49192.21
590.88	49911.05
591.08	49657.10
591.28	49454.35
591.47	50214.15
591.67	49646.86
591.87	49759.50
592.07	49911.05
592.27	49796.36
592.47	49685.77
592.67	49939.72
592.86	49804.55
593.06	49956.10
593.26	50228.48
593.46	49954.05
593.66	50035.97
593.86	50494.72
594.05	50265.34
594.25	50746.62
594.45	50191.62
594.65	50482.43
594.85	49978.63
595.05	50298.11
595.24	50644.22
595.44	50558.20
595.64	50541.82
595.84	50629.88
596.04	50877.69
596.23	50789.62
596.43	50973.94
596.63	50523.39
596.83	50838.78
597.03	50826.49
597.22	51141.88
597.42	50787.58
597.62	51287.28
597.82	51434.74
598.02	51600.62
598.21	51236.08
598.41	51105.01
598.61	51363.06
598.81	51426.54
599.01	51356.91
599.20	51508.46
599.40	51279.09
599.60	51948.78
599.80	51590.38
600.00	51498.22
600.19	51766.51
600.39	51647.72
600.59	52102.37
600.79	52090.09
600.98	51592.43
601.18	51717.35
601.38	51993.83
601.58	52475.10
601.78	51936.49
601.97	52106.47
602.17	52845.79
602.37	52153.57
602.57	52165.86
602.76	52745.44
602.96	52458.72
603.16	52557.02
603.36	52772.06
603.55	52866.27
603.75	53056.73
603.95	52335.84
604.15	52831.45
604.34	52444.38
604.54	52927.70
604.74	52671.71
604.94	52669.66
605.13	52864.22
605.33	52823.26
605.53	52548.83
605.73	53415.12
605.92	52868.31
606.12	53050.58
606.32	53023.96
606.52	52839.64
606.71	53085.40
606.91	53454.03
607.11	53486.80
607.30	53044.44
607.50	53179.60
607.70	53607.63
607.90	53253.33
608.09	53445.84
608.29	53705.93
608.49	53712.08
608.68	53884.11
608.88	53540.05
609.08	53544.14
609.28	53783.76
609.47	53441.74
609.67	53880.01
609.87	54052.04
610.06	53818.57
610.26	53705.93
610.46	54334.66
610.66	53800.14
610.85	53918.92
611.05	54076.61
611.25	53662.93
611.44	53843.15
611.64	53955.78
611.84	54039.75
612.03	54211.78
612.23	54387.91
612.43	54088.90
612.62	54213.83
612.82	54136.01
613.02	54273.22
613.21	54281.41
613.41	53994.70
613.61	54191.30
613.80	53869.77
614.00	54529.22
614.20	54502.59
614.39	54047.94
614.59	54430.91
614.79	54088.90
614.98	54133.96
615.18	53998.79
615.38	54082.76
615.57	54293.70
615.77	54748.35
615.97	54396.10
616.16	54179.01
616.36	54025.42
616.56	54289.60
616.75	54439.11
616.95	54437.06
617.15	54033.61
617.34	54095.05
617.54	54299.84
617.74	55002.30
617.93	54162.63
618.13	53982.41
618.32	54547.65
618.52	54459.58
618.72	54002.89
618.91	54383.81
619.11	54039.75
619.31	54430.91
619.50	54271.17
619.70	54006.98
619.90	54136.01
620.09	54115.53
620.29	53986.50
620.48	54021.32
620.68	54920.38
620.88	53724.36
621.07	54156.49
621.27	53867.72
621.46	53947.59
621.66	54000.84
621.86	54416.58
622.05	54361.28
622.25	54858.94
622.44	54230.21
622.64	54265.03
622.84	54564.03
623.03	53828.81
623.23	54267.08
623.42	53757.13
623.62	54228.16
623.82	54289.60
624.01	54011.08
624.21	54566.08
624.40	53908.68
624.60	54066.38
624.80	53923.02
624.99	53865.67
625.19	54039.75
625.38	54144.20
625.58	54070.47
625.77	54150.34
625.97	54070.47
626.17	53798.09
626.36	54265.03
626.56	54113.48
626.75	53947.59
626.95	53957.83
627.14	54023.37
627.34	54150.34
627.54	54334.66
627.73	54318.28
627.93	54148.29
628.12	53712.08
628.32	54029.51
628.51	54326.47
628.71	54385.86
628.90	54314.18
629.10	53863.63
629.30	54260.93
629.49	54299.84
629.69	54181.06
629.88	54099.14
630.08	54514.88
630.27	54441.15
630.47	54387.91
630.66	53955.78
630.86	54604.99
631.05	53714.12
631.25	54584.51
631.44	54256.84
631.64	54637.76
631.84	54224.07
632.03	54887.61
632.23	54457.54
632.42	54523.07
632.62	54373.57
632.81	54009.03
633.01	54451.39
633.20	54338.75
633.40	54359.23
633.59	54561.98
633.79	53966.02
633.98	54170.82
634.18	54088.90
634.37	54621.37
634.57	54510.78
634.76	54658.24
634.96	54348.99
635.15	54312.13
635.35	54467.78
635.54	54449.35
635.74	54320.32
635.93	53951.69
636.13	54627.52
636.32	54664.38
636.52	54291.65
636.71	54697.15
636.91	54889.66
637.10	54826.17
637.30	54527.17
637.49	54475.97
637.69	54127.81
637.88	54865.08
638.08	54709.44
638.27	55057.59
638.46	54629.57
638.66	54279.36
638.85	54932.67
639.05	54686.91
639.24	54561.98
639.44	54672.57
639.63	54203.59
639.83	55055.54
640.02	54723.77
640.22	54785.21
640.41	54830.27
640.61	54719.68
640.80	54580.42
640.99	54617.28
641.19	54807.74
641.38	55129.27
641.58	54580.42
641.77	54899.90
641.97	54903.99
642.16	54793.40
642.36	55026.87
642.55	54858.94
642.74	54654.14
642.94	55631.02
643.13	55006.39
643.33	55471.28
643.52	55139.51
643.72	55239.86
643.91	54875.32
644.10	55256.24
644.30	55213.24
644.49	54938.81
644.69	55219.38
644.88	55035.06
645.08	55166.13
645.27	54879.42
645.46	54557.89
645.66	55420.08
645.85	54795.45
646.05	54985.91
646.24	55063.74
646.43	55690.41
646.63	55762.09
646.82	55657.65
647.02	55477.43
647.21	55403.70
647.40	55561.39
647.60	55610.54
647.79	55743.66
647.99	55815.34
648.18	55415.99
648.37	56071.34
648.57	56073.38
648.76	55895.21
648.96	55514.29
649.15	55407.79
649.34	55760.05
649.54	55375.03
649.73	55549.10
649.92	55704.75
650.12	55450.80
650.31	55194.81
650.51	55882.92
650.70	55831.72
650.89	55688.37
651.09	56509.60
651.28	55895.21
651.47	56210.60
651.67	55844.01
651.86	56169.64
652.06	55217.33
652.25	56286.37
652.44	55768.24
652.64	55663.79
652.83	55911.59
653.02	56030.38
653.22	55731.37
653.41	55522.48
653.60	55669.93
653.80	55792.81
653.99	55960.75
654.18	55678.13
654.38	55813.29
654.57	56034.47
654.76	56194.21
654.96	56300.71
655.15	56005.80
655.34	56022.19
655.54	55491.76
655.73	56306.85
655.92	55743.66
656.12	56296.61
656.31	55645.36
656.50	55751.85
656.70	56310.95
656.89	55737.52
657.08	56489.12
657.28	56239.27
657.47	55993.51
657.66	56235.17
657.86	56005.80
658.05	55979.18
658.24	56362.15
658.43	56079.53
658.63	56044.71
658.82	56194.21
659.01	56376.48
659.21	56509.60
659.40	56388.77
659.59	56333.48
659.79	56462.50
659.98	56464.55
660.17	56710.30
660.36	56069.29
660.56	56147.11
660.75	56419.49
660.94	56255.65
661.14	56294.56
661.33	56001.71
661.52	55768.24
661.71	56061.10
661.91	56097.96
662.10	56239.27
662.29	56857.76
662.49	56300.71
662.68	56388.77
662.87	56208.55
663.06	56501.41
663.26	56716.45
663.45	56415.40
663.64	56388.77
663.83	57283.73
664.03	56880.28
664.22	56882.33
664.41	56745.12
664.60	56491.17
664.80	56605.86
664.99	56673.44
665.18	56546.47
665.37	56573.09
665.57	56800.41
665.76	55940.27
665.95	56562.85
666.14	56513.70
666.34	56597.66
666.53	56761.50
666.72	56573.09
666.91	56308.90
667.11	56396.96
667.30	56439.97
667.49	56552.61
667.68	56081.58
667.87	56415.40
668.07	56859.80
668.26	56642.72
668.45	56911.00
668.64	56607.90
668.84	56865.95
669.03	56515.75
669.22	56104.10
669.41	56513.70
669.60	56728.73
669.80	56376.48
669.99	56802.46
670.18	56779.93
670.37	56573.09
670.57	56913.05
670.76	56962.20
670.95	56550.56
671.14	56269.99
671.33	56624.29
671.53	56847.52
671.72	56571.04
671.91	56833.18
672.10	56208.55
672.29	56980.63
672.48	56540.32
672.68	56921.24
672.87	56370.34
673.06	56452.26
673.25	56173.73
673.44	56226.98
673.64	56126.63
673.83	56220.84
674.02	56177.83
674.21	56030.38
674.40	56679.58
674.59	56530.08
674.79	56425.64
674.98	55811.24
675.17	56530.08
675.36	56235.17
675.55	56450.21
675.74	56149.16
675.94	56358.05
676.13	56474.79
676.32	56603.81
676.51	56585.38
676.70	56628.38
676.89	56190.12
677.08	56712.35
677.28	56272.04
677.47	56538.27
677.66	56970.39
677.85	56294.56
678.04	56523.94
678.23	56652.96
678.42	56695.97
678.62	55915.69
678.81	56517.79
679.00	56226.98
679.19	56845.47
679.38	56419.49
679.57	56382.63
679.76	55993.51
679.96	56808.61
680.15	56233.13
680.34	56243.37
680.53	56093.86
680.72	56372.39
680.91	56853.66
681.10	55985.32
681.29	56190.12
681.48	56100.01
681.68	56358.05
681.87	56077.48
682.06	55997.61
682.25	55614.64
682.44	56054.95
682.63	56558.75
682.82	55481.52
683.01	55950.51
683.20	55506.10
683.39	55979.18
683.59	55368.88
683.78	55547.06
683.97	55499.95
684.16	56132.78
684.35	55563.44
684.54	56001.71
684.73	55712.94
684.92	55612.59
685.11	56067.24
685.30	55790.76
685.49	55973.03
685.69	56024.23
685.88	56013.99
686.07	55723.18
686.26	55858.35
686.45	55553.20
686.64	55985.32
686.83	55469.23
687.02	56087.72
687.21	55764.14
687.40	55585.97
687.59	55391.41
687.78	55497.91
687.97	56157.35
688.16	55661.74
688.35	55186.61
688.54	55102.65
688.74	55481.52
688.93	55432.37
689.12	55225.53
689.31	55350.45
689.50	55461.04
689.69	55143.61
689.88	54652.09
690.07	55694.51
690.26	55282.87
690.45	55901.36
690.64	55026.87
690.83	55434.42
691.02	55022.78
691.21	54762.68
691.40	55151.80
691.59	55375.03
691.78	54961.34
691.97	55321.78
692.16	55153.85
692.35	55473.33
692.54	55002.30
692.73	55147.70
692.92	55018.68
693.11	55125.17
693.30	54838.46
693.49	55178.42
693.68	54740.16
693.87	55080.12
694.06	54846.65
694.25	54850.75
694.44	54678.72
694.63	54643.90
694.82	54703.29
695.01	54809.79
695.20	54736.06
695.39	54672.57
695.58	54609.09
695.77	54537.41
695.96	54193.35
696.15	54447.30
696.34	54498.50
696.53	54387.91
696.72	54342.85
696.91	54621.37
697.10	54187.21
697.29	54412.48
697.48	54822.08
697.67	54412.48
697.86	54394.05
698.05	53910.73
698.24	54363.33
698.43	54363.33
698.62	54576.32
698.81	54262.98
699.00	54506.69
699.19	54254.79
699.38	54234.31
699.57	53861.58
699.76	54648.00
699.95	53963.98
700.14	53826.76
700.32	53740.75
700.51	53974.22
700.70	54023.37
700.89	53800.14
701.08	54031.56
701.27	53871.82
701.46	54408.39
701.65	53335.25
701.84	53576.91
702.03	53937.35
702.22	53654.73
702.41	53593.29
702.60	54080.71
702.79	53734.60
702.98	53560.53
703.17	53372.11
703.35	53460.18
703.54	53449.94
703.73	53730.51
703.92	53634.25
704.11	53210.32
704.30	53546.19
704.49	53302.48
704.68	53054.68
704.87	53355.73
705.06	53103.83
705.25	53144.79
705.43	52749.53
705.62	53490.90
705.81	53404.88
706.00	53288.15
706.19	53040.34
706.38	52821.21
706.57	53165.27
706.76	52724.96
706.95	53298.39
707.14	53001.43
707.32	53058.77
707.51	53200.08
707.70	52577.50
707.89	52694.24
708.08	52966.62
708.27	52761.82
708.46	52591.84
708.65	52614.37
708.84	52802.78
709.02	52892.89
709.21	52567.26
709.40	52327.65
709.59	52514.01
709.78	51813.61
709.97	52602.08
710.16	52514.01
710.34	51868.90
710.53	52536.54
710.72	52233.44
710.91	52489.44
711.10	52481.25
711.29	52323.55
711.48	52622.56
711.66	52335.84
711.85	52165.86
712.04	52221.16
712.23	52057.32
712.42	52040.93
712.61	51854.57
712.80	51891.43
712.98	52038.89
713.17	51889.38
713.36	51946.73
713.55	51922.15
713.74	51598.57
713.93	51793.13
714.11	52180.20
714.30	51692.78
714.49	51358.96
714.68	51571.95
714.87	51942.63
715.06	51991.78
715.24	51829.99
715.43	51477.74
715.62	51270.90
715.81	51442.93
716.00	51569.90
716.18	51012.85
716.37	51410.16
716.56	51172.60
716.75	52088.04
716.94	51303.67
717.12	50973.94
717.31	51444.98
717.50	51082.48
717.69	51129.59
717.88	50777.34
718.06	51354.86
718.25	51520.75
718.44	50844.92
718.63	50719.99
718.82	50517.25
719.00	50590.97
719.19	51027.19
719.38	50656.51
719.57	50824.44
719.76	50590.97
719.94	50269.44
720.13	49804.55
720.32	50838.78
720.51	50576.64
720.69	49972.49
720.88	49773.83
721.07	50306.30
721.26	49610.00
721.44	49571.08
721.63	49808.65
721.82	49442.06
722.01	49437.97
722.20	49800.46
722.38	49730.83
722.57	48882.97
722.76	49372.43
722.95	49751.30
723.13	49468.69
723.32	49452.30
723.51	48839.96
723.70	49091.86
723.88	49392.91
724.07	49229.07
724.26	49495.31
724.44	48530.72
724.63	48979.22
724.82	49128.72
725.01	49155.35
725.19	48731.42
725.38	48665.88
725.57	48680.22
725.76	49227.02
725.94	48811.29
726.13	48837.91
726.32	48608.54
726.51	48514.33
726.69	48604.44
726.88	48973.08
727.07	48719.13
727.25	48778.52
727.44	48751.90
727.63	48198.94
727.82	48332.06
728.00	48641.31
728.19	48172.32
728.38	48663.83
728.56	48090.40
728.75	48780.57
728.94	48200.99
729.12	48799.00
729.31	48712.98
729.50	48483.61
729.69	48594.20
729.87	48508.19
730.06	48164.13
730.25	48399.65
730.43	48919.83
730.62	48356.64
730.81	48276.77
730.99	48307.49
731.18	48295.20
731.37	48317.73
731.55	48254.24
731.74	48618.78
731.93	48708.89
732.11	48278.82
732.30	48088.35
732.49	48172.32
732.67	48313.63
732.86	47713.58
733.05	48067.87
733.23	47885.61
733.42	48338.21
733.61	48459.04
733.79	47822.12
733.98	48444.70
734.17	48860.44
734.35	48715.03
734.54	48028.96
734.73	48172.32
734.91	47959.33
735.10	47873.32
735.29	48043.30
735.47	47600.94
735.66	47838.50
735.84	47709.48
736.03	47242.54
736.22	48162.08
736.40	47598.89
736.59	48035.11
736.78	47858.98
736.96	47686.95
737.15	47471.92
737.33	47459.63
737.52	47174.96
737.71	47760.68
737.89	47275.31
738.08	47056.18
738.27	47437.10
738.45	47795.49
738.64	47738.15
738.82	46994.74
739.01	47068.47
739.20	47109.43
739.38	47342.89
739.57	47621.42
739.75	47375.66
739.94	46933.30
740.13	47027.51
740.31	47125.81
740.50	47426.86
740.68	47322.41
740.87	47465.77
741.06	47490.35
741.24	47058.23
741.43	47025.46
741.61	47076.66
741.80	46777.65
741.99	47004.98
742.17	46804.28
742.36	47004.98
742.54	46777.65
742.73	46880.05
742.91	47267.12
743.10	46970.16
743.29	46744.89
743.47	47140.14
743.66	46718.26
743.84	46837.05
744.03	46587.19
744.21	46579.00
744.40	47125.81
744.59	46642.49
744.77	46429.50
744.96	46523.71
745.14	46417.21
745.33	46484.79
745.51	46212.41
745.70	46785.85
745.88	45991.23
746.07	46468.41
746.26	46005.57
746.44	46159.17
746.63	46105.92
746.81	46107.97
747.00	46058.82
747.18	46181.70
747.37	45819.20
747.55	45843.78
747.74	46054.72
747.92	45927.75
748.11	46050.63
748.29	46005.57
748.48	46234.94
748.66	46026.05
748.85	45847.88
749.03	46153.02
749.22	46017.86
749.41	45602.12
749.59	45870.40
749.78	45643.08
749.96	45301.07
750.15	45432.14
750.33	45774.15
750.52	45548.87
750.70	45692.23
750.89	45065.55
751.07	45626.70
751.26	45696.33
751.44	45409.61
751.63	45208.91
751.81	45135.18
752.00	45190.48
752.18	45223.25
752.37	45163.85
752.55	44959.06
752.74	44658.01
752.92	45149.52
753.10	44920.15
753.29	44905.81
753.47	44846.42
753.66	44686.68
753.84	44942.67
754.03	44735.83
754.21	44494.17
754.40	44522.84
754.58	44893.52
754.77	44434.78
754.95	44594.52
755.14	44598.62
755.32	44670.29
755.51	44293.47
755.69	44291.42
755.88	44418.39
756.06	44668.25
756.24	44367.20
756.43	44598.62
756.61	44619.10
756.80	43859.30
756.98	44166.49
757.17	44252.51
757.35	44690.77
757.54	44088.67
757.72	44209.50
757.90	43945.31
758.09	43871.59
758.27	44270.94
758.46	43662.69
758.64	44252.51
758.83	44293.47
759.01	43754.85
759.19	43986.27
759.38	44033.38
759.56	44193.12
759.75	43883.87
759.93	43631.97
760.12	43314.54
760.30	43388.27
760.48	43423.08
760.67	43496.81
760.85	43386.22
761.04	43734.37
761.22	43482.47
761.40	43423.08
761.59	43728.23
761.77	43050.35
761.96	43165.04
762.14	43244.91
762.32	43234.67
762.51	42945.90
762.69	43550.06
762.88	43533.67
763.06	43122.03
763.24	43230.57
763.43	43003.25
763.61	42747.25
763.80	42837.36
763.98	42874.23
764.16	43306.35
764.35	42487.16
764.53	42253.69
764.72	42642.81
764.90	42646.90
765.08	42622.33
765.27	42665.33
765.45	42560.89
765.63	42145.15
765.82	42337.66
766.00	42601.85
766.18	42272.12
766.37	42696.05
766.55	41909.63
766.74	42300.79
766.92	42323.32
767.10	41883.01
767.29	42145.15
767.47	41928.06
767.65	42052.99
767.84	41377.16
768.02	42298.75
768.20	41510.28
768.39	42098.05
768.57	41737.60
768.75	41790.85
768.94	41854.34
769.12	41491.85
769.30	41407.88
769.49	41461.13
769.67	41356.68
769.85	41321.87
770.04	41678.21
770.22	41084.30
770.40	41172.36
770.59	41092.49
770.77	41510.28
770.95	41233.80
771.14	41018.77
771.32	41287.05
771.50	40228.25
771.69	40850.83
771.87	40902.03
772.05	40699.28
772.24	40981.90
772.42	41012.62
772.60	41121.16
772.78	40627.60
772.97	40361.37
773.15	41063.82
773.33	40674.71
773.52	40691.09
773.70	40785.30
773.88	40832.40
774.07	40103.32
774.25	40314.26
774.43	40613.27
774.61	40641.94
774.80	40613.27
774.98	40822.16
775.16	40732.05
775.34	40605.08
775.53	40514.97
775.71	40818.07
775.89	40705.43
776.08	40498.58
776.26	40592.79
776.44	40850.83
776.62	40549.78
776.81	40508.82
776.99	40975.76
777.17	40379.80
777.35	41029.01
777.54	40576.40
777.72	40695.19
777.90	40594.84
778.08	40861.07
778.27	40715.67
778.45	40793.49
778.63	41471.37
778.81	40633.75
779.00	41174.41
779.18	40953.23
779.36	41207.18
779.54	40846.74
779.73	41002.38
779.91	41088.40
780.09	41268.62
780.27	41641.35
780.46	41694.60
780.64	41563.53
780.82	41289.10
781.00	41188.75
781.19	41524.61
781.37	41541.00
781.55	41362.82
781.73	41649.54
781.91	41094.54
782.10	41076.11
782.28	41469.32
782.46	41821.57
782.64	41678.21
782.82	41225.61
783.01	41702.79
783.19	41422.22
783.37	41518.47
783.55	41371.02
783.74	41612.68
783.92	41407.88
784.10	41964.93
784.28	41702.79
784.46	41543.05
784.64	41090.44
784.83	41588.10
785.01	41594.25
785.19	41553.29
785.37	41876.86
785.55	41567.62
785.74	41121.16
785.92	41174.41
786.10	41352.58
786.28	41659.78
786.46	41573.77
786.64	40973.71
786.83	41108.88
787.01	41620.87
787.19	41354.63
787.37	41457.03
787.55	41387.40
787.74	40979.85
787.92	41432.46
788.10	40904.08
788.28	40949.14
788.46	40986.00
788.64	40291.74
788.82	41170.32
789.01	40818.07
789.19	41102.73
789.37	40406.42
789.55	41024.91
789.73	40363.42
789.91	39941.53
790.09	40449.43
790.28	40474.01
790.46	40218.01
790.64	40084.89
790.82	40320.41
791.00	40392.09
791.18	39949.73
791.36	39615.91
791.55	40054.17
791.73	40177.05
791.91	39665.06
792.09	39986.59
792.27	39581.09
792.45	39556.52
792.63	39873.95
792.81	39318.95
793.00	39468.45
793.18	39134.63
793.36	39396.77
793.54	39239.08
793.72	39032.24
793.90	38884.78
794.08	38956.46
794.26	38655.41
794.44	38555.06
794.62	38704.56
794.81	38766.00
794.99	38878.64
795.17	38446.52
795.35	38350.26
795.53	38383.03
795.71	38577.59
795.89	38069.69
796.07	38419.89
796.25	37760.45
796.43	37854.65
796.61	37727.68
796.80	37574.08
796.98	37795.26
797.16	37606.85
797.34	37696.96
797.52	37426.63
797.70	37889.47
797.88	37406.15
798.06	37123.53
798.24	37318.09
798.42	37254.60
798.60	37377.48
798.78	37012.94
798.96	37012.94
799.14	36826.57
799.32	36933.07
799.51	36642.26
799.69	36967.88
799.87	36236.76
800.05	36640.21
800.23	36066.78
800.41	36472.28
800.59	36167.13
800.77	36111.83
800.95	36056.54
801.13	36050.39
801.31	35790.30
801.49	35823.07
801.67	35786.21
801.85	35575.27
802.03	35681.76
802.21	35352.04
802.39	35325.41
802.57	35356.13
802.75	35376.61
802.93	35427.81
803.11	35077.61
803.29	35018.22
803.47	34891.24
803.65	34784.75
803.83	35055.08
804.01	35083.75
804.19	34917.87
804.37	34813.42
804.55	34547.18
804.73	34448.88
804.91	34598.38
805.09	34964.97
805.27	34676.21
805.45	34377.20
805.63	34405.88
805.81	34514.42
805.99	34158.07
806.17	34098.68
806.35	34166.26
806.53	34049.53
806.71	34008.57
806.89	33768.96
807.07	33611.26
807.25	33953.27
807.43	33578.50
807.61	34164.21
807.79	33377.79
807.97	32974.34
808.15	33338.88
808.33	32908.81
808.51	33326.60
808.69	33261.06
808.87	33211.91
809.05	32771.60
809.23	32781.84
809.41	32839.18
809.59	32579.09
809.77	32863.75
809.95	32529.94
810.13	32800.27
810.31	32568.85
810.49	32620.05
810.67	32429.59
810.84	32321.04
811.02	32132.63
811.20	32101.91
811.38	32491.02
811.56	31999.51
811.74	32255.51
811.92	32089.62
812.10	32122.39
812.28	32132.63
812.46	32189.97
812.64	31925.78
812.82	31372.83
813.00	31516.19
813.18	31876.63
813.36	31198.76
813.53	31534.62
813.71	31528.48
813.89	31200.80
814.07	31348.26
814.25	31313.44
814.43	31387.17
814.61	31340.07
814.79	31225.38
814.97	30920.23
815.15	30909.99
815.33	30486.06
815.50	30703.15
815.68	30885.42
815.86	30901.80
816.04	30662.19
816.22	30641.71
816.40	30606.89
816.58	30549.55
816.76	30221.87
816.94	30379.57
817.11	30504.49
817.29	30191.16
817.47	29972.02
817.65	29974.07
817.83	30260.79
818.01	29840.95
818.19	29924.92
818.37	30004.79
818.54	29699.64
818.72	29840.95
818.90	29888.06
819.08	30010.93
819.26	29429.31
819.44	29517.37
819.62	29474.37
819.80	29763.13
819.97	29523.52
820.15	29255.23
820.33	29460.03
820.51	29529.66
820.69	29552.19
820.87	29435.45
821.05	29812.28
821.22	29306.43
821.40	29285.95
821.58	29091.40
821.76	29318.72
821.94	29068.87
822.12	29099.59
822.29	29232.71
822.47	29122.12
822.65	28984.90
822.83	29103.68
823.01	28984.90
823.19	28649.03
823.36	28749.39
823.54	28823.11
823.72	28900.94
823.90	28689.99
824.08	28782.15
824.25	28599.88
824.43	28517.96
824.61	28390.99
824.79	28614.22
824.97	28282.45
825.15	28515.92
825.32	28120.66
825.50	28358.22
825.68	28237.39
825.86	28132.95
826.04	27956.82
826.21	28194.39
826.39	27846.23
826.57	27872.85
826.75	27784.79
826.93	27795.03
827.10	27647.58
827.28	27739.74
827.46	28120.66
827.64	27866.71
827.81	27893.33
827.99	27858.52
828.17	27661.91
828.35	27487.84
828.53	27457.12
828.70	27549.28
828.88	27483.74
829.06	27383.39
829.24	27473.50
829.41	27612.76
829.59	27682.39
829.77	27180.64
829.95	27319.90
830.12	26975.84
830.30	26941.03
830.48	27264.61
830.66	27106.91
830.84	27057.76
831.01	27006.56
831.19	27143.78
831.37	27045.48
831.55	27078.24
831.72	26783.34
831.90	26725.99
832.08	26848.87
832.25	26773.10
832.43	26642.03
832.61	26310.25
832.79	26459.76
832.96	26605.16
833.14	26658.41
833.32	26771.05
833.50	27012.71
833.67	26740.33
833.85	26525.29
834.03	26127.99
834.20	26515.05
834.38	26562.15
834.56	26441.32
834.74	26375.79
834.91	26375.79
835.09	26523.24
835.27	26121.84
835.44	26281.58
835.62	25572.99
835.80	25994.87
835.98	25960.05
836.15	26023.54
836.33	25835.13
836.51	26050.16
836.68	25962.10
836.86	25831.03
837.04	25697.91
837.21	25908.85
837.39	25804.41
837.57	26127.99
837.75	25681.53
837.92	25298.56
838.10	25241.21
838.28	25284.22
838.45	25280.13
838.63	25388.67
838.81	25757.30
838.98	25476.73
839.16	25433.72
839.34	25118.34
839.51	25155.20
839.69	25202.30
839.87	25183.87
840.04	25108.10
840.22	25431.68
840.40	25169.54
840.57	24680.07
840.75	25142.91
840.93	24958.60
841.10	24934.02
841.28	25190.02
841.46	24813.19
841.63	25175.68
841.81	24921.73
841.98	24995.46
842.16	24835.72
842.34	24952.45
842.51	24499.85
842.69	24856.20
842.87	24563.34
843.04	25046.66
843.22	24518.28
843.40	24553.10
843.57	24270.48
843.75	24839.81
843.92	24657.54
844.10	24680.07
844.28	24399.50
844.45	24690.31
844.63	24508.04
844.81	24608.39
844.98	24444.56
845.16	24430.22
845.33	24462.99
845.51	24551.05
845.69	24452.75
845.86	24082.06
846.04	24000.15
846.21	23957.14
846.39	23783.06
846.57	24096.40
846.74	23828.12
846.92	24147.60
847.09	23996.05
847.27	23758.49
847.45	24028.82
847.62	23756.44
847.80	23789.20
847.97	23807.64
848.15	23590.55
848.32	23377.56
848.50	24090.26
848.68	23502.49
848.85	23488.15
849.03	23275.16
849.20	23629.46
849.38	23811.73
849.56	23557.78
849.73	23299.74
849.91	23527.06
850.08	23551.64
850.26	23111.33
850.43	23695.00
850.61	23383.71
850.78	23226.01
850.96	23226.01
851.14	23168.67
851.31	23357.08
851.49	23142.05
851.66	23101.09
851.84	23195.29
852.01	23037.60
852.19	23017.12
852.36	22963.87
852.54	22976.16
852.71	23019.17
852.89	22843.04
853.07	22601.38
853.24	23013.02
853.42	23156.38
853.59	22685.35
853.77	23078.56
853.94	23064.22
854.12	23029.41
854.29	22458.03
854.47	22797.99
854.64	22683.30
854.82	22965.92
854.99	22810.28
855.17	22754.98
855.34	22793.89
855.52	22470.31
855.69	22808.23
855.87	22308.52
856.04	22259.37
856.22	22412.97
856.39	22146.73
856.57	22417.07
856.74	22372.01
856.92	22343.34
857.09	22036.14
857.27	22343.34
857.44	22466.22
857.62	22222.51
857.79	22111.92
857.97	22224.56
858.14	22062.77
858.32	22097.58
858.49	22017.71
858.67	21890.74
858.84	21769.91
859.02	22097.58
859.19	21655.22
859.37	21903.03
859.54	21837.49
859.72	21966.51
859.89	21694.13
860.06	21866.16
860.24	21669.56
860.41	21937.84
860.59	21647.03
860.76	21644.98
860.94	21448.38
861.11	21452.47
861.29	21696.18
861.46	21528.25
861.64	21415.61
861.81	21325.50
861.98	21595.83
862.16	21456.57
862.33	21143.23
862.51	21157.57
862.68	21309.11
862.86	21462.71
863.03	20979.39
863.21	21192.38
863.38	21145.28
863.55	21036.74
863.73	20715.20
863.90	20889.28
864.08	21010.11
864.25	21083.84
864.43	20891.33
864.60	20893.38
864.77	20840.13
864.95	20917.95
865.12	20831.94
865.30	20713.16
865.47	20586.18
865.64	20592.33
865.82	20909.76
865.99	20754.12
866.17	20385.48
866.34	20723.40
866.51	20365.00
866.69	20707.01
866.86	20520.65
867.04	20563.65
867.21	20530.89
867.38	20174.54
867.56	20307.66
867.73	20334.28
867.91	20180.68
868.08	20481.74
868.25	20451.02
868.43	20106.96
868.60	20205.26
868.78	20084.43
868.95	20113.10
869.12	19994.32
869.30	19820.24
869.47	20008.65
869.64	19764.95
869.82	19908.30
869.99	19793.62
870.16	19836.63
870.34	20037.33
870.51	19965.65
870.69	19781.33
870.86	19658.45
871.03	19781.33
871.21	19769.04
871.38	19912.40
871.55	19640.02
871.73	19781.33
871.90	19410.65
872.07	19531.48
872.25	19404.50
872.42	19287.77
872.59	19570.39
872.77	19310.30
872.94	19162.84
873.11	19363.54
873.29	18976.48
873.46	19099.36
873.63	19060.45
873.81	19101.40
873.98	18956.00
874.15	19060.45
874.33	18915.04
874.50	18753.25
874.67	18783.97
874.85	18951.90
875.02	18845.41
875.19	18996.96
875.37	18544.36
875.54	18558.69
875.71	18697.95
875.88	18409.19
876.06	18433.77
876.23	18677.48
876.40	18464.49
876.58	18298.60
876.75	18411.24
876.92	18321.13
877.10	18532.07
877.27	18231.02
877.44	18063.08
877.61	18321.13
877.79	18314.98
877.96	17936.11
878.13	18124.52
878.31	18061.04
878.48	18173.67
878.65	18032.36
878.82	17692.40
879.00	17854.19
879.17	17991.41
879.34	17944.30
879.51	17651.44
879.69	17522.42
879.86	17682.16
880.03	17747.70
880.21	17735.41
880.38	17796.85
880.55	17606.39
880.72	17577.72
880.90	17860.34
881.07	17565.43
881.24	17567.48
881.41	17616.63
881.59	17630.96
881.76	17559.28
881.93	17327.86
882.10	17204.99
882.28	16936.70
882.45	17424.12
882.62	17266.42
882.79	17323.77
882.96	16881.41
883.14	17485.56
883.31	17067.77
883.48	16998.14
883.65	17026.81
883.83	17569.52
884.00	17217.27
884.17	16959.23
884.34	17235.70
884.51	17147.64
884.69	17123.07
884.86	16953.09
885.03	16951.04
885.20	16895.74
885.38	16926.46
885.55	16846.59
885.72	16901.89
885.89	16865.02
886.06	16674.56
886.24	16760.58
886.41	16631.55
886.58	16867.07
886.75	16889.60
886.92	16580.36
887.10	16762.62
887.27	16516.87
887.44	16570.12
887.61	16879.36
887.78	16785.15
887.95	16842.50
888.13	16668.42
888.30	16619.27
888.47	16563.97
888.64	16383.75
888.81	16449.28
888.99	16250.63
889.16	16129.80
889.33	16389.89
889.50	16357.13
889.67	16330.50
889.84	16142.09
890.01	16117.51
890.19	16338.69
890.36	16029.45
890.53	16158.47
890.70	15937.29
890.87	16131.85
891.04	16119.56
891.22	16019.21
891.39	16125.71
891.56	15892.24
891.73	16017.16
891.90	15884.05
892.07	15644.43
892.24	15873.81
892.42	15744.78
892.59	15765.26
892.76	15650.58
892.93	15812.37
893.10	15912.72
893.27	15619.86
893.44	15533.84
893.61	15814.41
893.79	15503.12
893.96	15607.57
894.13	15568.66
894.30	15679.25
894.47	15775.50
894.64	15712.02
894.81	15818.51
894.98	15933.20
895.15	15738.64
895.33	15714.06
895.50	15370.01
895.67	15652.63
895.84	15746.83
896.01	15591.19
896.18	15240.98
896.35	15722.26
896.52	15490.84
896.69	15343.38
896.86	15494.93
897.04	15355.67
897.21	15374.10
897.38	15390.49
897.55	15335.19
897.72	15427.35
897.89	15275.80
898.06	15361.81
898.23	15206.17
898.40	15433.49
898.57	15275.80
898.74	15476.50
898.91	15427.35
899.08	15245.08
899.26	15462.16
899.43	15597.33
899.60	15249.18
899.77	15222.55
899.94	15572.75
900.11	15302.42
900.28	15484.69
900.45	15372.05
900.62	15091.48
900.79	15501.08
900.96	15275.80
901.13	15200.02
901.30	15175.45
901.47	15200.02
901.64	15453.97
901.81	15273.75
901.98	15075.10
902.15	15343.38
902.32	14968.60
902.49	15435.54
902.66	15265.56
902.83	15169.30
903.01	15341.33
903.18	15310.61
903.35	15204.12
903.52	15195.93
903.69	15308.57
903.86	15208.22
904.03	15161.11
904.20	15316.76
904.37	15372.05
904.54	15296.28
904.71	15152.92
904.88	15339.29
905.05	15122.20
905.22	15247.13
905.39	15259.42
905.56	15240.98
905.73	15165.21
905.90	15062.81
906.07	15038.23
906.24	15204.12
906.41	14976.80
906.58	15212.31
906.75	14970.65
906.92	14956.32
907.09	15175.45
907.26	15046.43
907.43	15013.66
907.60	14946.08
907.77	15539.99
907.93	15220.50
908.10	15122.20
908.27	15253.27
908.44	15159.06
908.61	14976.80
908.78	14997.28
908.95	14903.07
909.12	15101.72
909.29	14984.99
909.46	14997.28
909.63	15116.06
909.80	14972.70
909.97	15116.06
910.14	15017.75
910.31	14860.06
910.48	14933.79
910.65	15060.76
910.82	14890.78
910.99	14874.40
911.16	14819.10
911.33	14839.58
911.50	14651.17
911.66	14554.91
911.83	14798.62
912.00	14702.37
912.17	14638.88
912.34	14593.83
912.51	14485.28
912.68	14554.91
912.85	14688.03
913.02	14759.71
913.19	14624.54
913.36	14591.78
913.53	14550.82
913.70	14421.80
913.86	14851.87
914.03	14659.36
914.20	14573.35
914.37	14536.48
914.54	14382.88
914.71	14491.43
914.88	14126.89
915.05	14128.94
915.22	14266.15
915.39	14188.33
915.55	14180.14
915.72	14176.04
915.89	13989.67
916.06	13834.03
916.23	14040.87
916.40	13793.07
916.57	13756.21
916.74	13934.38
916.91	13829.93
917.07	13848.36
917.24	13899.56
917.41	13778.73
917.58	13920.04
917.75	13750.06
917.92	13606.70
918.09	13702.96
918.26	13573.94
918.42	13707.05
918.59	13606.70
918.76	13545.27
918.93	13434.68
919.10	13430.58
919.27	13225.78
919.44	13518.64
919.60	13485.87
919.77	13168.44
919.94	13195.06
920.11	13268.79
920.28	13371.19
920.45	12875.58
920.61	13016.89
920.78	13125.43
920.95	12937.02
921.12	12869.44
921.29	12932.92
921.46	12719.93
921.62	12697.41
921.79	12896.06
921.96	12930.87
922.13	12801.85
922.30	12742.46
922.47	12640.06
922.63	12646.21
922.80	12554.05
922.97	12488.51
923.14	12205.89
923.31	12504.90
923.47	12443.46
923.64	12361.54
923.81	12455.75
923.98	12154.69
924.15	12246.85
924.32	12054.34
924.48	12117.83
924.65	12148.55
924.82	11886.41
924.99	11822.92
925.15	11882.31
925.32	12074.82
925.49	11745.10
925.66	11769.68
925.83	11671.37
925.99	11630.41
926.16	11792.20
926.33	11808.59
926.50	11325.27
926.67	11509.58
926.83	11505.49
927.00	11603.79
927.17	11530.06
927.34	11284.31
927.50	11200.34
927.67	11253.59
927.84	11091.80
928.01	11186.01
928.17	11009.88
928.34	11075.42
928.51	10905.43
928.68	10950.49
928.84	10866.52
929.01	10846.04
929.18	10665.82
929.35	10760.03
929.51	10641.25
929.68	10524.51
929.85	10653.53
930.02	10565.47
930.18	10481.50
930.35	10532.70
930.52	10530.66
930.69	10448.74
930.85	10469.22
931.02	10225.51
931.19	10428.26
931.36	10454.88
931.52	10360.67
931.69	10315.62
931.86	10172.26
932.02	10035.05
932.19	10141.54
932.36	10043.24
932.53	10059.62
932.69	9953.13
932.86	10166.12
933.03	9846.63
933.19	9629.55
933.36	9729.90
933.53	9684.84
933.70	9658.22
933.86	9559.92
934.03	9715.56
934.20	9428.85
934.36	9531.25
934.53	9160.56
934.70	9025.40
934.86	9359.22
935.03	9070.45
935.20	9105.27
935.36	9052.02
935.53	8986.49
935.70	8816.51
935.86	8988.53
936.03	8742.78
936.20	8490.88
936.36	8505.21
936.53	8634.24
936.70	8595.32
936.86	8607.61
937.03	8466.30
937.20	8234.88
937.36	8224.64
937.53	8134.53
937.70	7974.79
937.86	7931.78
938.03	7821.19
938.20	7917.45
938.36	7581.58
938.53	7772.04
938.70	7505.81
938.86	7466.89
939.03	7403.41
939.20	7352.21
939.36	7335.82
939.53	7255.95
939.70	7253.91
939.86	6975.38
940.03	6823.83
940.19	6969.24
940.36	6727.58
940.53	6817.69
940.69	6600.60
940.86	6533.02
941.03	6444.96
941.19	6442.91
941.36	6420.38
941.52	6305.70
941.69	6127.52
941.86	6309.79
942.02	6234.02
942.19	6068.13
942.35	6131.62
942.52	6008.74
942.69	5883.81
942.85	5838.76
943.02	5836.71
943.18	5926.82
943.35	5609.39
943.52	5658.54
943.68	5799.85
943.85	5722.02
944.01	5676.97
944.18	5605.29
944.35	5685.16
944.51	5552.04
944.68	5527.47
944.84	5437.36
945.01	5437.36
945.17	5506.99
945.34	5382.06
945.51	5480.36
945.67	5509.04
945.84	5406.64
946.00	5275.57
946.17	5459.88
946.33	5337.01
946.50	5402.54
946.67	5304.24
946.83	5220.27
947.00	5326.77
947.16	5328.81
947.33	5384.11
947.49	5300.14
947.66	5246.90
947.82	5369.77
947.99	5111.73
948.16	5365.68
948.32	5197.74
948.49	5287.86
948.65	5345.20
948.82	5175.22
948.98	5167.03
949.15	5203.89
949.31	5371.82
949.48	5359.53
949.64	5328.81
949.81	5359.53
949.97	5240.75
950.14	5388.21
950.30	5158.83
950.47	5212.08
950.63	5285.81
950.80	5429.17
950.96	5199.79
951.13	5283.76
951.30	5361.58
951.46	5195.70
951.63	5255.09
951.79	5382.06
951.96	5410.73
952.12	5388.21
952.29	5306.29
952.45	5277.62
952.62	5298.10
952.78	5386.16
952.94	5363.63
953.11	5302.19
953.27	5310.38
953.44	5543.85
953.60	5261.23
953.77	5611.43
953.93	5482.41
954.10	5392.30
954.26	5457.84
954.43	5339.05
954.59	5552.04
954.76	5607.34
954.92	5578.67
955.09	5445.55
955.25	5523.37
955.42	5468.08
955.58	5584.81
955.75	5435.31
955.91	5375.92
956.07	5500.84
956.24	5525.42
956.40	5537.71
956.57	5502.89
956.73	5447.60
956.90	5543.85
957.06	5382.06
957.23	5398.45
957.39	5441.45
957.56	5390.25
957.72	5261.23
957.88	5304.24
958.05	5574.57
958.21	5523.37
958.38	5128.11
958.54	5478.32
958.71	5717.93
958.87	5519.28
959.03	5375.92
959.20	5476.27
959.36	5468.08
959.53	5322.67
959.69	5361.58
959.85	5488.56
960.02	5337.01
960.18	5353.39
960.35	5410.73
960.51	5476.27
960.68	5353.39
960.84	5466.03
961.00	5416.88
961.17	5388.21
961.33	5412.78
961.50	5435.31
961.66	5441.45
961.82	5418.93
961.99	5332.91
962.15	5484.46
962.31	5345.20
962.48	5529.52
962.64	5310.38
962.81	5416.88
962.97	5445.55
963.13	5435.31
963.30	5345.20
963.46	5306.29
963.62	5240.75
963.79	5345.20
963.95	5275.57
964.12	5240.75
964.28	5380.01
964.44	5185.46
964.61	5367.73
964.77	5433.26
964.93	5361.58
965.10	5326.77
965.26	5355.44
965.42	5324.72
965.59	5361.58
965.75	5195.70
965.92	5398.45
966.08	5296.05
966.24	5275.57
966.41	5296.05
966.57	5185.46
966.73	5283.76
966.90	5328.81
967.06	5373.87
967.22	5242.80
967.39	5205.94
967.55	5177.26
967.71	5214.13
967.88	5091.25
968.04	5054.39
968.20	5146.55
968.37	5283.76
968.53	5162.93
968.69	5162.93
968.85	5142.45
969.02	5257.14
969.18	5148.59
969.34	5128.11
969.51	5140.40
969.67	5232.56
969.83	5005.24
970.00	5197.74
970.16	5197.74
970.32	5074.87
970.48	5158.83
970.65	5011.38
970.81	4992.95
970.97	5027.76
971.14	4984.76
971.30	5359.53
971.46	5031.86
971.63	5029.81
971.79	5017.52
971.95	5025.72
972.11	4992.95
972.28	4898.74
972.44	4900.79
972.60	4786.10
972.76	4947.89
972.93	4929.46
973.09	5046.20
973.25	4911.03
973.42	4849.59
973.58	4800.44
973.74	4870.07
973.90	4884.41
974.07	4831.16
974.23	4820.92
974.39	4827.06
974.55	4784.06
974.72	4820.92
974.88	4747.19
975.04	4851.64
975.20	4761.53
975.37	4861.88
975.53	4716.47
975.69	4763.58
975.85	4708.28
976.01	4777.91
976.18	4624.31
976.34	4745.14
976.50	4620.22
976.66	4810.68
976.83	4800.44
976.99	4720.57
977.15	4695.99
977.31	4593.59
977.47	4710.33
977.64	4759.48
977.80	4806.58
977.96	4673.46
978.12	4560.83
978.29	4532.15
978.45	4624.31
978.61	4526.01
978.77	4714.42
978.93	4462.52
979.10	4552.63
979.26	4546.49
979.42	4509.63
979.58	4368.32
979.74	4401.08
979.91	4370.37
980.07	4450.24
980.23	4417.47
980.39	4286.40
980.55	4509.63
980.71	4341.69
980.88	4517.82
981.04	4351.93
981.20	4368.32
981.36	4444.09
981.52	4480.96
981.68	4298.69
981.85	4429.76
982.01	4345.79
982.17	4308.93
982.33	4351.93
982.49	4431.80
982.65	4255.68
982.82	4313.02
982.98	4310.97
983.14	4206.53
983.30	4245.44
983.46	4272.06
983.62	4384.70
983.79	4204.48
983.95	4194.24
984.11	4128.70
984.27	4018.11
984.43	4323.26
984.59	4059.07
984.75	4241.34
984.91	4204.48
985.08	4249.54
985.24	4001.73
985.40	4128.70
985.56	4102.08
985.72	4163.52
985.88	4290.49
986.04	4104.13
986.20	4091.84
986.37	4120.51
986.53	4057.03
986.69	4132.80
986.85	3930.05
987.01	3987.40
987.17	4046.79
987.33	4011.97
987.49	4050.88
987.65	3958.72
987.82	4011.97
987.98	3876.80
988.14	4018.11
988.30	4048.83
988.46	3942.34
988.62	3995.59
988.78	3895.24
988.94	3911.62
989.10	3827.65
989.26	3807.17
989.42	3973.06
989.59	3880.90
989.75	3737.54
989.91	3772.36
990.07	3663.82
990.23	3678.15
990.39	3688.39
990.55	3809.22
990.71	3803.08
990.87	3796.93
991.03	3829.70
991.19	3674.06
991.35	3768.26
991.51	3807.17
991.67	3766.21
991.83	3782.60
992.00	3772.36
992.16	3751.88
992.32	3753.93
992.48	3649.48
992.64	3659.72
992.80	3805.13
992.96	3590.09
993.12	3672.01
993.28	3694.54
993.44	3694.54
993.60	3629.00
993.76	3626.95
993.92	3641.29
994.08	3565.51
994.24	3723.21
994.40	3616.71
994.56	3708.87
994.72	3555.27
994.88	3553.23
995.04	3579.85
995.20	3497.93
995.36	3446.73
995.52	3614.66
995.68	3553.23
995.84	3444.68
996.00	3516.36
996.16	3420.11
996.32	3473.36
996.48	3481.55
996.64	3538.89
996.80	3321.81
996.96	3497.93
997.12	3368.91
997.28	3420.11
997.44	3313.61
997.60	3342.28
997.76	3286.99
997.92	3393.48
998.08	3428.30
998.24	3258.32
998.40	3475.40
998.56	3491.79
998.72	3262.41
998.88	3381.20
999.04	3297.23
999.20	3362.76
999.36	3336.14
999.52	3338.19
999.68	3311.57
999.84	3426.25
1000.00	3211.22
1000.16	3291.09
1000.32	3252.17
1000.48	3366.86
1000.64	3196.88
1000.80	3223.50
1000.95	3174.35
1001.11	3254.22
1001.27	3160.02
1001.43	3188.69
1001.59	3194.83
1001.75	3174.35
1001.91	3188.69
1002.07	3157.97
1002.23	3203.02
1002.39	3147.73
1002.55	3129.30
1002.71	3092.43
1002.87	3203.02
1003.03	3047.38
1003.19	3065.81
1003.34	3162.06
1003.50	3131.34
1003.66	3155.92
1003.82	3166.16
1003.98	3067.86
1004.14	3071.95
1004.30	3008.47
1004.46	2953.17
1004.62	2959.31
1004.78	3016.66
1004.94	3022.80
1005.09	2994.13
1005.25	3059.67
1005.41	2942.93
1005.57	3012.56
1005.73	2957.27
1005.89	2965.46
1006.05	2996.18
1006.21	3028.95
1006.37	2942.93
1006.52	2897.88
1006.68	2809.81
1006.84	3037.14
1007.00	2891.73
1007.16	2875.35
1007.32	2885.59
1007.48	2922.45
1007.64	2904.02
1007.79	2901.97
1007.95	2764.76
1008.11	2910.16
1008.27	2863.06
1008.43	2850.77
1008.59	2838.48
1008.75	2953.17
1008.91	2828.24
1009.06	2826.20
1009.22	2904.02
1009.38	2820.05
1009.54	2861.01
1009.70	2797.53
1009.86	2848.72
1010.01	2727.89
1010.17	2799.57
1010.33	2809.81
1010.49	2766.81
1010.65	2897.88
1010.81	2676.70
1010.96	2752.47
1011.12	2672.60
1011.28	2629.59
1011.44	2842.58
1011.60	2731.99
1011.76	2643.93
1011.91	2777.05
1012.07	2625.50
1012.23	2519.00
1012.39	2682.84
1012.55	2572.25
1012.71	2705.37
1012.86	2645.98
1013.02	2631.64
1013.18	2674.65
1013.34	2602.97
1013.50	2609.11
1013.65	2699.22
1013.81	2535.39
1013.97	2539.48
1014.13	2658.26
1014.29	2592.73
1014.44	2633.69
1014.60	2590.68
1014.76	2539.48
1014.92	2555.86
1015.07	2625.50
1015.23	2574.30
1015.39	2551.77
1015.55	2547.67
1015.71	2492.38
1015.86	2504.67
1016.02	2609.11
1016.18	2461.66
1016.34	2584.54
1016.49	2455.51
1016.65	2568.15
1016.81	2498.52
1016.97	2490.33
1017.12	2549.72
1017.28	2416.60
1017.44	2357.21
1017.60	2445.27
1017.75	2500.57
1017.91	2498.52
1018.07	2471.90
1018.23	2535.39
1018.38	2418.65
1018.54	2396.12
1018.70	2418.65
1018.86	2338.78
1019.01	2406.36
1019.17	2465.75
1019.33	2545.63
1019.49	2373.60
1019.64	2463.71
1019.80	2463.71
1019.96	2441.18
1020.12	2408.41
1020.27	2375.64
1020.43	2332.64
1020.59	2404.32
1020.74	2426.84
1020.90	2355.16
1021.06	2263.01
1021.22	2414.56
1021.37	2289.63
1021.53	2285.53
1021.69	2349.02
1021.84	2344.92
1022.00	2359.26
1022.16	2316.25
1022.31	2234.33
1022.47	2400.22
1022.63	2338.78
1022.79	2203.61
1022.94	2222.05
1023.10	2385.88
1023.26	2371.55
1023.41	2287.58
1023.57	2197.47
1023.73	2330.59
1023.88	2230.24
1024.04	2133.98
1024.20	2273.25
1024.35	2285.53
1024.51	2228.19
1024.67	2248.67
1024.82	2359.26
1024.98	2238.43
1025.14	2318.30
1025.29	2275.29
1025.45	2179.04
1025.61	2199.52
1025.76	2162.66
1025.92	2254.81
1026.08	2322.40
1026.23	2160.61
1026.39	2174.94
1026.55	2179.04
1026.70	2205.66
1026.86	2166.75
1027.02	2230.24
1027.17	2287.58
1027.33	2181.09
1027.48	2176.99
1027.64	2166.75
1027.80	2109.41
1027.95	2187.23
1028.11	2090.98
1028.27	2015.20
1028.42	2174.94
1028.58	2179.04
1028.73	2068.45
1028.89	2039.78
1029.05	2166.75
1029.20	2217.95
>>>>>End Processed Spectral Data<<<<<
