SpectraSuite Data File
++++++++++++++++++++++++++++++++++++
Date: Fri Jun 02 14:57:18 CEST 2017
User: INFO_000
Dark Spectrum Present: No
Reference Spectrum Present: No
Number of Sampled Component Spectra: 1
Spectrometers: USB4H00879
Integration Time (usec): 80000 (USB4H00879)
Spectra Averaged: 1 (USB4H00879)
Boxcar Smoothing: 0 (USB4H00879)
Correct for Electrical Dark: No (USB4H00879)
Strobe/Lamp Enabled: No (USB4H00879)
Correct for Detector Non-linearity: No (USB4H00879)
Correct for Stray Light: No (USB4H00879)
Number of Pixels in Processed Spectrum: 3648
>>>>>Begin Processed Spectral Data<<<<<
345.13	1286.12
345.34	1286.12
345.56	1286.12
345.78	1271.79
345.99	1277.93
346.21	1728.49
346.42	1740.77
346.64	1658.85
346.86	1767.40
347.07	1679.33
347.29	1689.57
347.50	1591.27
347.72	1779.68
347.94	1718.25
348.15	1546.22
348.37	1617.90
348.59	1740.77
348.80	1615.85
349.02	1781.73
349.23	1943.52
349.45	1773.54
349.67	1875.94
349.88	1787.88
350.10	1976.29
350.31	1882.08
350.53	1834.98
350.75	1976.29
350.96	1781.73
351.18	1945.57
351.39	1863.65
351.61	1755.11
351.82	1906.66
352.04	1908.71
352.26	1875.94
352.47	1931.23
352.69	1920.99
352.90	1789.92
353.12	1847.27
353.34	1816.55
353.55	1916.90
353.77	1892.32
353.98	1908.71
354.20	1884.13
354.41	1855.46
354.63	1972.19
354.85	2041.82
355.06	1927.14
355.28	1779.68
355.49	1851.36
355.71	1947.62
355.92	1896.42
356.14	1882.08
356.35	1904.61
356.57	1826.79
356.79	1898.47
357.00	1843.17
357.22	1998.82
357.43	1861.60
357.65	1961.95
357.86	1830.88
358.08	1937.38
358.29	1832.93
358.51	1980.39
358.72	1972.19
358.94	1994.72
359.16	1964.00
359.37	1894.37
359.59	1998.82
359.80	2023.39
360.02	1953.76
360.23	1937.38
360.45	2009.06
360.66	1931.23
360.88	1902.56
361.09	1904.61
361.31	1994.72
361.52	1951.71
361.74	2076.64
361.95	2041.82
362.17	1900.52
362.38	2068.45
362.60	1955.81
362.81	2041.82
363.03	1941.47
363.24	2011.11
363.46	2107.36
363.67	2025.44
363.89	1968.10
364.10	1996.77
364.32	1941.47
364.53	2027.49
364.75	1929.19
364.96	1998.82
365.18	2000.87
365.39	2045.92
365.61	1935.33
365.82	2117.60
366.04	1984.48
366.25	1978.34
366.47	2035.68
366.68	2021.35
366.90	1996.77
367.11	2035.68
367.33	2027.49
367.54	2103.26
367.76	2074.59
367.97	2142.18
368.19	1961.95
368.40	2054.11
368.62	1953.76
368.83	2002.91
369.05	2015.20
369.26	2009.06
369.48	1968.10
369.69	2054.11
369.91	2045.92
370.12	2072.54
370.33	2088.93
370.55	1990.63
370.76	2043.87
370.98	2101.22
371.19	2076.64
371.41	2086.88
371.62	2109.41
371.84	1970.15
372.05	2203.61
372.27	2084.83
372.48	2080.74
372.69	2033.63
372.91	2195.42
373.12	2236.38
373.34	2150.37
373.55	2127.84
373.77	2199.52
373.98	2125.79
374.20	2152.42
374.41	2224.09
374.62	2207.71
374.84	2215.90
375.05	2187.23
375.27	2236.38
375.48	2133.98
375.70	2097.12
375.91	2250.72
376.12	2283.49
376.34	2166.75
376.55	2211.81
376.77	2230.24
376.98	2136.03
377.19	2172.89
377.41	2144.22
377.62	2211.81
377.84	2297.82
378.05	2326.49
378.27	2271.20
378.48	2314.20
378.69	2389.98
378.91	2281.44
379.12	2277.34
379.34	2349.02
379.55	2332.64
379.76	2318.30
379.98	2224.09
380.19	2197.47
380.41	2246.62
380.62	2299.87
380.83	2293.72
381.05	2230.24
381.26	2406.36
381.47	2236.38
381.69	2291.68
381.90	2449.37
382.12	2332.64
382.33	2367.45
382.54	2289.63
382.76	2351.07
382.97	2338.78
383.19	2181.09
383.40	2394.08
383.61	2303.96
383.83	2338.78
384.04	2365.40
384.25	2375.64
384.47	2389.98
384.68	2392.03
384.89	2293.72
385.11	2332.64
385.32	2281.44
385.54	2422.75
385.75	2336.73
385.96	2412.51
386.18	2461.66
386.39	2404.32
386.60	2404.32
386.82	2478.04
387.03	2418.65
387.24	2471.90
387.46	2445.27
387.67	2496.47
387.88	2527.19
388.10	2488.28
388.31	2498.52
388.52	2498.52
388.74	2461.66
388.95	2584.54
389.16	2422.75
389.38	2471.90
389.59	2621.40
389.80	2506.71
390.02	2465.75
390.23	2666.46
390.44	2590.68
390.66	2432.99
390.87	2549.72
391.08	2514.91
391.30	2670.55
391.51	2658.26
391.72	2719.70
391.94	2719.70
392.15	2631.64
392.36	2519.00
392.58	2578.39
392.79	2605.02
393.00	2691.03
393.22	2770.90
393.43	2684.89
393.64	2779.09
393.85	2883.54
394.07	2707.41
394.28	2750.42
394.49	2725.85
394.71	2699.22
394.92	2830.29
395.13	2748.37
395.35	2705.37
395.56	2699.22
395.77	2754.52
395.98	2809.81
396.20	2910.16
396.41	2838.48
396.62	2920.40
396.84	2756.57
397.05	2783.19
397.26	2932.69
397.47	2934.74
397.69	2828.24
397.90	3049.43
398.11	2877.40
398.32	2846.68
398.54	2824.15
398.75	2922.45
398.96	2914.26
399.18	3135.44
399.39	2934.74
399.60	3043.28
399.81	2875.35
400.03	2879.44
400.24	3278.80
400.45	2910.16
400.66	3051.47
400.88	3028.95
401.09	3076.05
401.30	2957.27
401.51	3112.91
401.73	3157.97
401.94	3051.47
402.15	3100.62
402.36	3121.10
402.58	3229.65
402.79	3182.54
403.00	3211.22
403.21	3217.36
403.43	3262.41
403.64	3235.79
403.85	3227.60
404.06	3272.65
404.27	3190.74
404.49	3196.88
404.70	3200.98
404.91	3354.57
405.12	3354.57
405.34	3227.60
405.55	3354.57
405.76	3203.02
405.97	3293.13
406.19	3368.91
406.40	3301.33
406.61	3377.10
406.82	3348.43
407.03	3375.05
407.25	3262.41
407.46	3514.31
407.67	3452.88
407.88	3477.45
408.09	3403.72
408.31	3342.28
408.52	3399.63
408.73	3436.49
408.94	3475.40
409.15	3495.88
409.37	3551.18
409.58	3542.99
409.79	3581.90
410.00	3542.99
410.21	3465.16
410.43	3491.79
410.64	3452.88
410.85	3610.57
411.06	3493.83
411.27	3489.74
411.48	3665.86
411.70	3618.76
411.91	3592.14
412.12	3614.66
412.33	3669.96
412.54	3526.60
412.76	3692.49
412.97	3758.02
413.18	3594.19
413.39	3608.52
413.60	3663.82
413.81	3794.89
414.03	3729.35
414.24	3635.14
414.45	3919.81
414.66	3653.58
414.87	3807.17
415.08	3649.48
415.30	3829.70
415.51	3786.69
415.72	3782.60
415.93	3776.45
416.14	3821.51
416.35	3911.62
416.56	3846.09
416.78	3862.47
416.99	3817.41
417.20	4016.07
417.41	4001.73
417.62	3870.66
417.83	4018.11
418.04	3925.96
418.26	3960.77
418.47	3909.57
418.68	4046.79
418.89	4048.83
419.10	4143.04
419.31	4016.07
419.52	4065.22
419.73	4100.03
419.95	4040.64
420.16	3985.35
420.37	4126.66
420.58	4116.42
420.79	3985.35
421.00	4075.46
421.21	4157.38
421.42	4034.50
421.63	4218.82
421.85	4210.62
422.06	4313.02
422.27	4167.62
422.48	4202.43
422.69	4222.91
422.90	4241.34
423.11	4308.93
423.32	4200.38
423.53	4362.17
423.75	4349.89
423.96	4437.95
424.17	4450.24
424.38	4450.24
424.59	4360.13
424.80	4597.69
425.01	4571.07
425.22	4388.80
425.43	4450.24
425.64	4601.79
425.85	4714.42
426.06	4419.52
426.28	4579.26
426.49	4409.28
426.70	4497.34
426.91	4489.15
427.12	4618.17
427.33	4636.60
427.54	4587.45
427.75	4528.06
427.96	4736.95
428.17	4843.45
428.38	4747.19
428.59	4788.15
428.80	4665.27
429.01	4632.51
429.23	4732.86
429.44	4872.12
429.65	4884.41
429.86	4984.76
430.07	4820.92
430.28	5003.19
430.49	4939.70
430.70	4954.04
430.91	5099.44
431.12	4937.65
431.33	4966.32
431.54	5115.83
431.75	5058.48
431.96	5115.83
432.17	5046.20
432.38	5164.98
432.59	5291.95
432.80	5181.36
433.01	5250.99
433.22	5287.86
433.43	5138.35
433.64	5285.81
433.85	5074.87
434.06	5242.80
434.27	5230.51
434.49	5259.18
434.70	5382.06
434.91	5261.23
435.12	5349.29
435.33	5502.89
435.54	5412.78
435.75	5140.40
435.96	5392.30
436.17	5416.88
436.38	5580.71
436.59	5494.70
436.80	5453.74
437.01	5760.94
437.22	5599.15
437.43	5584.81
437.64	5357.49
437.85	5762.98
438.06	5746.60
438.27	5523.37
438.48	5545.90
438.69	5611.43
438.90	5695.40
439.11	5658.54
439.32	5857.19
439.53	5744.55
439.74	5719.98
439.95	5918.63
440.16	5797.80
440.37	5928.87
440.57	5605.29
440.78	5894.05
440.99	5859.24
441.20	5973.92
441.41	5816.23
441.62	6064.04
441.83	5771.18
442.04	6064.04
442.25	6053.80
442.46	6078.37
442.67	6051.75
442.88	6358.94
443.09	5996.45
443.30	6156.19
443.51	6180.77
443.72	6449.05
443.93	6031.27
444.14	6299.55
444.35	6098.85
444.56	6332.32
444.77	6352.80
444.98	6244.26
445.19	6426.53
445.40	6322.08
445.61	6350.75
445.81	6356.90
446.02	6580.12
446.23	6393.76
446.44	6350.75
446.65	6549.40
446.86	6528.92
447.07	6598.56
447.28	6672.28
447.49	6514.59
447.70	6545.31
447.91	6688.67
448.12	6786.97
448.33	6723.48
448.54	6868.89
448.74	6600.60
448.95	6758.30
449.16	6746.01
449.37	7063.44
449.58	6850.46
449.79	6969.24
450.00	6743.96
450.21	6963.09
450.42	7120.79
450.63	7188.37
450.84	6891.41
451.05	7053.20
451.25	7059.35
451.46	7077.78
451.67	7280.53
451.88	7292.82
452.09	7237.52
452.30	7245.71
452.51	7151.51
452.72	7415.69
452.93	7544.72
453.13	7194.51
453.34	7286.67
453.55	7524.24
453.76	7325.58
453.97	7643.02
454.18	7493.52
454.39	7499.66
454.60	7671.69
454.81	7567.24
455.01	7759.75
455.22	7493.52
455.43	7780.23
455.64	7907.21
455.85	7995.27
456.06	8087.43
456.27	8083.33
456.48	7751.56
456.68	8007.56
456.89	8077.19
457.10	8191.88
457.31	7911.30
457.52	8023.94
457.73	8238.98
457.94	8374.14
458.14	8089.48
458.35	8548.22
458.56	8402.82
458.77	8355.71
458.98	8595.32
459.19	8392.58
459.39	8449.92
459.60	8685.44
459.81	8396.67
460.02	8697.72
460.23	8681.34
460.44	9013.11
460.65	8814.46
460.85	8808.31
461.06	9117.56
461.27	8802.17
461.48	9174.90
461.69	9123.70
461.89	8830.84
462.10	9049.97
462.31	9070.45
462.52	9023.35
462.73	9121.65
462.94	9428.85
463.14	9285.49
463.35	9322.35
463.56	9783.15
463.77	9439.09
463.98	9314.16
464.18	9600.88
464.39	9742.19
464.60	9867.11
464.81	9824.11
465.02	9633.64
465.23	9756.52
465.43	9811.82
465.64	9973.61
465.85	9926.50
466.06	9889.64
466.27	10327.91
466.47	10319.71
466.68	10205.03
466.89	10143.59
467.10	10293.09
467.30	10180.45
467.51	10346.34
467.72	10686.30
467.93	10198.88
468.14	10473.31
468.34	10762.08
468.55	10694.49
468.76	10596.19
468.97	10624.86
469.17	10954.58
469.38	10964.82
469.59	11016.02
469.80	10942.30
470.01	10968.92
470.21	11050.84
470.42	11280.21
470.63	11532.11
470.84	11284.31
471.04	11444.05
471.25	11384.66
471.46	11312.98
471.67	11835.21
471.87	11568.98
472.08	11792.20
472.29	11876.17
472.50	11472.72
472.70	11741.00
472.91	11718.48
473.12	11986.76
473.33	11976.52
473.53	12410.69
473.74	11956.04
473.95	12451.65
474.16	12482.37
474.36	12070.73
474.57	12537.66
474.78	12525.38
474.99	12371.78
475.19	12726.08
475.40	12767.04
475.61	12971.83
475.81	12879.68
476.02	13121.34
476.23	13018.94
476.44	13180.73
476.64	13150.01
476.85	13514.55
477.06	13324.08
477.27	13549.36
477.47	13854.51
477.68	13643.57
477.89	13668.14
478.09	13858.60
478.30	14020.39
478.51	14083.88
478.71	14075.69
478.92	14065.45
479.13	14241.57
479.34	14628.64
479.54	14382.88
479.75	14528.29
479.96	14554.91
480.16	14487.33
480.37	14554.91
480.58	14790.43
480.78	15038.23
480.99	14890.78
481.20	15222.55
481.41	15263.51
481.61	15310.61
481.82	15474.45
482.03	15318.81
482.23	15529.75
482.44	15605.52
482.65	15716.11
482.85	16025.36
483.06	15826.70
483.27	15902.48
483.47	15826.70
483.68	15888.14
483.89	16090.89
484.09	16156.43
484.30	16183.05
484.51	16416.52
484.71	16434.95
484.92	16375.56
485.13	16504.58
485.33	16922.37
485.54	16621.31
485.75	16914.17
485.95	17094.40
486.16	17049.34
486.37	17078.01
486.57	17141.50
486.78	17198.84
486.98	17454.84
487.19	17551.09
487.40	17837.81
487.60	17651.44
487.81	17714.93
488.02	17526.52
488.22	17899.25
488.43	17977.07
488.64	18288.36
488.84	18239.21
489.05	18360.04
489.25	18472.68
489.46	18472.68
489.67	18444.01
489.87	18687.71
490.08	18663.14
490.29	18740.96
490.49	19023.58
490.70	19205.85
490.90	19107.55
491.11	19031.77
491.32	19062.49
491.52	19099.36
491.73	19427.03
491.94	19465.94
492.14	19590.87
492.35	19644.12
492.55	19744.47
492.76	19730.13
492.97	19812.05
493.17	19902.16
493.38	20152.01
493.58	19932.88
493.79	20070.09
494.00	20162.25
494.20	20510.41
494.41	20457.16
494.61	20743.88
494.82	20868.80
495.02	20584.13
495.23	20752.07
495.44	21014.21
495.64	21089.98
495.85	21079.74
496.05	21302.97
496.26	21317.31
496.47	21753.52
496.67	21030.59
496.88	21814.96
497.08	21333.69
497.29	21694.13
497.49	21812.92
497.70	21989.04
497.91	22054.58
498.11	22140.59
498.32	22118.06
498.52	22404.78
498.73	22677.16
498.93	22273.71
499.14	22687.40
499.34	22367.91
499.55	22744.74
499.76	22421.16
499.96	22810.28
500.17	22920.87
500.37	22949.54
500.58	23037.60
500.78	23172.77
500.99	23266.97
501.19	23611.03
501.40	23486.11
501.60	23529.11
501.81	23506.59
502.02	23586.46
502.22	23154.33
502.43	23826.07
502.63	24041.11
502.84	24118.93
503.04	23981.71
503.25	24075.92
503.45	24331.92
503.66	24090.26
503.86	24243.85
504.07	24530.57
504.27	24077.97
504.48	24692.36
504.68	24649.35
504.89	24880.77
505.09	24979.07
505.30	25271.93
505.50	24993.41
505.71	25163.39
505.91	25077.38
506.12	25134.72
506.32	25030.27
506.53	25431.68
506.73	25325.18
506.94	25577.08
507.14	25276.03
507.35	25579.13
507.55	25816.69
507.76	25726.58
507.96	25736.82
508.17	26134.13
508.37	25790.07
508.58	25951.86
508.78	25923.19
508.99	26218.10
509.19	26218.10
509.40	26334.83
509.60	26545.77
509.81	26562.15
510.01	26480.24
510.22	26793.58
510.42	26730.09
510.63	26764.90
510.83	26668.65
511.04	26654.31
511.24	27057.76
511.44	27033.19
511.65	27080.29
511.85	26906.21
512.06	27049.57
512.26	27328.10
512.47	27379.29
512.67	27438.69
512.88	27174.50
513.08	27176.55
513.29	27670.11
513.49	27629.15
513.69	27584.09
513.90	27549.28
514.10	27721.30
514.31	27889.24
514.51	28051.03
514.72	27965.01
514.92	27905.62
515.13	28081.75
515.33	28126.80
515.53	28542.54
515.74	28261.97
515.94	28347.98
516.15	28153.43
516.35	28268.11
516.56	28657.23
516.76	28651.08
516.96	28816.97
517.17	28778.06
517.37	28841.54
517.58	29165.12
517.78	29005.38
517.99	28751.43
518.19	29032.00
518.39	29283.91
518.60	29470.27
518.80	29326.91
519.01	29670.97
519.21	29607.48
519.41	29623.87
519.62	29435.45
519.82	29769.27
520.03	29580.86
520.23	29793.85
520.43	29898.30
520.64	30156.34
520.84	29855.29
521.05	29967.93
521.25	30295.60
521.45	30539.31
521.66	30350.90
521.86	30250.55
522.07	30324.27
522.27	30613.04
522.47	30301.75
522.68	31026.73
522.88	30885.42
523.08	31125.03
523.29	31170.08
523.49	31075.88
523.70	31082.02
523.90	31585.82
524.10	31014.44
524.31	31475.23
524.51	31360.55
524.71	31694.36
524.92	31604.25
525.12	31583.77
525.33	31884.83
525.53	31862.30
525.73	31948.31
525.94	32067.09
526.14	31823.39
526.34	32245.27
526.55	32052.76
526.75	32282.13
526.95	32685.58
527.16	32396.82
527.36	32445.97
527.56	32753.16
527.77	32667.15
527.97	32640.53
528.17	32642.57
528.38	33134.09
528.58	32988.68
528.78	33336.84
528.99	33254.92
529.19	33625.60
529.39	32820.75
529.60	33527.30
529.80	33283.59
530.00	33375.75
530.21	33664.51
530.41	33828.35
530.61	33601.02
530.82	34309.62
531.02	33938.94
531.22	34203.13
531.43	34065.91
531.63	34084.34
531.83	34131.45
532.04	34651.63
532.24	34172.41
532.44	34858.48
532.64	34790.89
532.85	34854.38
533.05	34866.67
533.25	35091.94
533.46	34844.14
533.66	35198.44
533.86	34977.26
534.07	35343.84
534.27	35175.91
534.47	35286.50
534.67	35454.44
534.88	35358.18
535.08	35427.81
535.28	35841.50
535.49	36021.72
535.69	35978.72
535.89	36025.82
536.09	35827.17
536.30	36412.88
536.50	35960.28
536.70	36382.16
536.91	36388.31
537.11	36128.22
537.31	36509.14
537.51	36316.63
537.72	36636.11
537.92	36867.53
538.12	36988.36
538.32	37000.65
538.53	36699.60
538.73	36728.27
538.93	36867.53
539.13	36984.27
539.34	36892.11
539.54	36603.35
539.74	37279.18
539.94	37567.94
540.15	37086.67
540.35	37705.15
540.55	37676.48
540.75	37651.91
540.96	37797.31
541.16	37393.86
541.36	37721.54
541.56	37735.87
541.77	37899.71
541.97	37770.69
542.17	37830.08
542.37	38079.93
542.58	38258.10
542.78	37897.66
542.98	37934.53
543.18	38122.94
543.38	38729.14
543.59	38483.38
543.79	38110.65
543.99	38503.86
544.19	38733.23
544.40	38536.63
544.60	39019.95
544.80	38448.57
545.00	38548.92
545.20	38995.37
545.41	39009.71
545.61	38647.22
545.81	38774.19
546.01	38946.22
546.21	39017.90
546.42	38770.10
546.62	39052.72
546.82	38935.98
547.02	38903.21
547.22	39421.35
547.43	39335.34
547.63	39204.27
547.83	39392.68
548.03	39447.97
548.23	39488.93
548.44	39540.13
548.64	39419.30
548.84	39443.88
549.04	39540.13
549.24	39728.55
549.45	39783.84
549.65	39611.81
549.85	39495.08
550.05	39751.07
550.25	39738.79
550.45	39984.54
550.66	40058.27
550.86	39990.69
551.06	40570.26
551.26	40347.03
551.46	40228.25
551.66	39972.25
551.87	40240.54
552.07	40017.31
552.27	40080.80
552.47	40197.53
552.67	39818.66
552.87	40455.57
553.07	40453.53
553.28	40390.04
553.48	40721.81
553.68	40261.02
553.88	40779.15
554.08	40719.76
554.28	40465.81
554.48	40039.84
554.69	40826.26
554.89	40672.66
555.09	40744.34
555.29	40785.30
555.49	40959.38
555.69	41065.87
555.89	40738.19
556.10	41399.69
556.30	40805.78
556.50	40942.99
556.70	40469.91
556.90	41039.25
557.10	41526.66
557.30	40986.00
557.50	41368.97
557.70	41307.53
557.91	41252.23
558.11	41399.69
558.31	41108.88
558.51	41186.70
558.71	41360.78
558.91	41926.02
559.11	41180.56
559.31	41090.44
559.51	41266.57
559.72	41444.74
559.92	41092.49
560.12	41203.08
560.32	41772.42
560.52	41819.52
560.72	41573.77
560.92	41596.29
561.12	41940.35
561.32	42409.34
561.52	42048.89
561.72	42188.16
561.93	41989.50
562.13	42016.13
562.33	41672.07
562.53	42466.68
562.73	41950.59
562.93	42325.37
563.13	42274.17
563.33	42153.34
563.53	42874.23
563.73	42206.59
563.93	42130.81
564.13	42716.53
564.33	42542.45
564.53	42358.14
564.74	42474.87
564.94	42669.43
565.14	42540.41
565.34	42370.43
565.54	42687.86
565.74	42597.75
565.94	42997.10
566.14	42620.28
566.34	42519.93
566.54	42841.46
566.74	42448.25
566.94	43001.20
567.14	42972.53
567.34	42575.22
567.54	43029.87
567.74	43472.23
567.94	43222.38
568.14	43148.65
568.34	43216.24
568.54	43277.68
568.74	42835.31
568.94	43345.26
569.14	43629.93
569.34	43500.90
569.54	43689.32
569.75	43603.30
569.95	43656.55
570.15	43832.68
570.35	43640.17
570.55	43332.97
570.75	43730.28
570.95	43920.74
571.15	43763.04
571.35	43814.24
571.55	43982.18
571.75	44162.40
571.95	44250.46
572.15	44000.61
572.35	44410.20
572.55	44561.75
572.75	44193.12
572.95	44420.44
573.15	44334.43
573.35	44324.19
573.55	44385.63
573.75	44574.04
573.95	44856.66
574.15	44672.34
574.35	44809.56
574.55	44686.68
574.75	44897.62
574.95	44875.09
575.15	44860.76
575.34	45299.02
575.54	44889.43
575.74	45565.26
575.94	44954.96
576.14	45442.38
576.34	45735.24
576.54	45368.65
576.74	45512.01
576.94	45557.06
577.14	45548.87
577.34	46038.34
577.54	45536.59
577.74	45587.78
577.94	45618.50
578.14	46265.66
578.34	46535.99
578.54	45667.66
578.74	46099.78
578.94	46591.29
579.14	46120.26
579.34	45927.75
579.54	46028.10
579.74	46474.55
579.94	46703.93
580.13	46406.97
580.33	46800.18
580.53	46775.61
580.73	46884.15
580.93	47250.74
581.13	46916.92
581.33	47179.06
581.53	47381.80
581.73	46966.07
581.93	47187.25
582.13	47529.26
582.33	47412.52
582.53	47144.24
582.73	47602.99
582.92	47832.36
583.12	47715.62
583.32	47805.73
583.52	47521.07
583.72	48284.96
583.92	47689.00
584.12	47953.19
584.32	48149.79
584.52	48114.98
584.72	48342.30
584.92	48327.97
585.11	48622.87
585.31	48254.24
585.51	48424.22
585.71	48559.39
585.91	49050.90
586.11	48512.28
586.31	48719.13
586.51	48563.48
586.71	48919.83
586.91	49249.55
587.10	49333.52
587.30	49237.26
587.50	49083.67
587.70	49595.66
587.90	49251.60
588.10	49566.99
588.30	49423.63
588.50	49440.01
588.69	49671.43
588.89	49423.63
589.09	49624.33
589.29	49796.36
589.49	49927.43
589.69	49687.82
589.89	49999.11
590.08	50107.65
590.28	50091.27
590.48	50050.31
590.68	50154.75
590.88	50257.15
591.08	50427.13
591.28	50332.93
591.47	50586.88
591.67	50590.97
591.87	50529.53
592.07	50730.23
592.27	50545.92
592.47	50660.60
592.67	50926.84
592.86	50662.65
593.06	51430.64
593.26	51045.62
593.46	51336.43
593.66	51019.00
593.86	51152.12
594.05	51041.53
594.25	51154.16
594.45	51143.92
594.65	51082.48
594.85	50763.00
595.05	51819.75
595.24	51705.07
595.44	51225.84
595.64	51551.47
595.84	51596.52
596.04	51643.63
596.23	51827.95
596.43	52249.83
596.63	52061.41
596.83	51881.19
597.03	52389.09
597.22	52366.56
597.42	52047.08
597.62	52419.81
597.82	52466.91
598.02	52671.71
598.21	52489.44
598.41	52364.51
598.61	52798.68
598.81	52739.29
599.01	52745.44
599.20	52937.94
599.40	52903.13
599.60	52925.66
599.80	52712.67
600.00	53198.04
600.19	53357.78
600.39	53064.92
600.59	53034.20
600.79	53335.25
600.98	53060.82
601.18	53400.79
601.38	53662.93
601.58	53634.25
601.78	53609.68
601.97	53476.56
602.17	54131.91
602.37	53857.48
602.57	54133.96
602.76	53646.54
602.96	53753.04
603.16	54084.81
603.36	54064.33
603.55	54037.70
603.75	54107.33
603.95	54252.74
604.15	54250.69
604.34	54011.08
604.54	53818.57
604.74	54287.56
604.94	54187.21
605.13	54711.49
605.33	54537.41
605.53	54930.62
605.73	54744.25
605.92	54805.69
606.12	54957.24
606.32	55213.24
606.52	54883.51
606.71	54850.75
606.91	55665.84
607.11	54525.12
607.30	54910.14
607.50	55073.98
607.70	54990.01
607.90	55389.36
608.09	55409.84
608.29	54789.31
608.49	55264.44
608.68	55219.38
608.88	55481.52
609.08	55776.43
609.28	55657.65
609.47	55020.73
609.67	56001.71
609.87	55010.49
610.06	55786.67
610.26	55854.25
610.46	55350.45
610.66	55547.06
610.85	55739.57
611.05	55510.19
611.25	55852.20
611.44	55534.77
611.64	55999.66
611.84	55833.77
612.03	55176.37
612.23	55661.74
612.43	55846.06
612.62	55973.03
612.82	56128.68
613.02	55784.62
613.21	55727.28
613.41	55639.22
613.61	55858.35
613.80	55176.37
614.00	56087.72
614.20	55712.94
614.39	55684.27
614.59	55964.84
614.79	55823.53
614.98	55821.48
615.18	56247.46
615.38	56186.02
615.57	55858.35
615.77	56171.69
615.97	56157.35
616.16	55893.16
616.36	55383.22
616.56	55682.22
616.75	55835.82
616.95	55776.43
617.15	55852.20
617.34	55850.16
617.54	55794.86
617.74	55694.51
617.93	55958.70
618.13	55119.03
618.32	55731.37
618.52	55690.41
618.72	56085.67
618.91	56067.24
619.11	55657.65
619.31	56136.87
619.50	56044.71
619.70	55588.02
619.90	55917.74
620.09	55714.99
620.29	55676.08
620.48	55846.06
620.68	55780.52
620.88	55760.05
621.07	55440.56
621.27	55745.71
621.46	55092.41
621.66	55295.16
621.86	55729.33
622.05	55096.50
622.25	55887.02
622.44	55436.47
622.64	55286.96
622.84	55764.14
623.03	55116.98
623.23	55450.80
623.42	55250.10
623.62	55696.56
623.82	55796.91
624.01	55145.65
624.21	55755.95
624.40	55377.08
624.60	55356.60
624.80	55174.33
624.99	55198.90
625.19	54959.29
625.38	55573.68
625.58	55256.24
625.77	55395.51
625.97	55286.96
626.17	55174.33
626.36	55141.56
626.56	55309.49
626.75	54967.48
626.95	55690.41
627.14	55223.48
627.34	55870.64
627.54	54838.46
627.73	55055.54
627.93	54770.88
628.12	54467.78
628.32	54910.14
628.51	54883.51
628.71	55028.92
628.90	54824.12
629.10	54990.01
629.30	54895.80
629.49	55098.55
629.69	55135.41
629.88	54813.88
630.08	55493.81
630.27	54994.10
630.47	55196.85
630.66	54404.29
630.86	55172.28
631.05	54686.91
631.25	55469.23
631.44	54826.17
631.64	55026.87
631.84	55164.09
632.03	55436.47
632.23	54887.61
632.42	55162.04
632.62	55114.94
632.81	54766.78
633.01	54441.15
633.20	54813.88
633.40	54566.08
633.59	55362.74
633.79	54414.53
633.98	54828.22
634.18	54996.15
634.37	54828.22
634.57	54650.05
634.76	55172.28
634.96	55061.69
635.15	54983.86
635.35	54807.74
635.54	55022.78
635.74	54940.86
635.93	54471.87
636.13	54987.96
636.32	54934.71
636.52	54711.49
636.71	55051.45
636.91	54875.32
637.10	54518.98
637.30	54772.92
637.49	54879.42
637.69	54803.64
637.88	54867.13
638.08	54467.78
638.27	54797.50
638.46	54549.70
638.66	54330.56
638.85	54613.18
639.05	54932.67
639.24	54643.90
639.44	54449.35
639.63	54609.09
639.83	54725.82
640.02	54172.87
640.22	54815.93
640.41	54787.26
640.61	54293.70
640.80	54656.19
640.99	54252.74
641.19	54822.08
641.38	54334.66
641.58	55092.41
641.77	54392.00
641.97	54451.39
642.16	54467.78
642.36	54983.86
642.55	54932.67
642.74	54158.53
642.94	55342.26
643.13	54508.74
643.33	54613.18
643.52	54736.06
643.72	54447.30
643.91	54203.59
644.10	54752.44
644.30	54975.67
644.49	54607.04
644.69	54731.96
644.88	54465.73
645.08	54398.15
645.27	54611.13
645.46	54441.15
645.66	54768.83
645.85	54779.07
646.05	54697.15
646.24	54959.29
646.43	54877.37
646.63	54994.10
646.82	55174.33
647.02	54863.03
647.21	55080.12
647.40	54750.40
647.60	54850.75
647.79	54906.04
647.99	55321.78
648.18	54887.61
648.37	55372.98
648.57	54705.34
648.76	54793.40
648.96	54674.62
649.15	55076.02
649.34	54838.46
649.54	54994.10
649.73	54330.56
649.92	55180.47
650.12	54774.97
650.31	54543.55
650.51	54844.60
650.70	55237.81
650.89	54572.22
651.09	55211.19
651.28	54961.34
651.47	55010.49
651.67	55110.84
651.86	54934.71
652.06	54820.03
652.25	54731.96
652.44	54983.86
652.64	54447.30
652.83	54795.45
653.02	54860.99
653.22	55092.41
653.41	54727.87
653.60	54625.47
653.80	54459.58
653.99	55116.98
654.18	54854.84
654.38	54672.57
654.57	55067.83
654.76	54545.60
654.96	55164.09
655.15	54824.12
655.34	55092.41
655.54	54424.77
655.73	54846.65
655.92	55063.74
656.12	54971.58
656.31	55131.32
656.50	55676.08
656.70	54727.87
656.89	54437.06
657.08	54858.94
657.28	54828.22
657.47	54490.30
657.66	55350.45
657.86	54918.33
658.05	54832.32
658.24	55153.85
658.43	54715.58
658.63	54994.10
658.82	55162.04
659.01	55055.54
659.21	55360.69
659.40	55041.21
659.59	55000.25
659.79	54838.46
659.98	55532.72
660.17	55332.02
660.36	54949.05
660.56	54934.71
660.75	55192.76
660.94	54951.10
661.14	55235.77
661.33	55209.14
661.52	55106.74
661.71	55409.84
661.91	54871.23
662.10	54910.14
662.29	54971.58
662.49	55227.57
662.68	55334.07
662.87	55162.04
663.06	55602.35
663.26	55250.10
663.45	55205.05
663.64	54817.98
663.83	55129.27
664.03	55338.16
664.22	55168.18
664.41	55444.66
664.60	55051.45
664.80	55151.80
664.99	55063.74
665.18	55119.03
665.37	55442.61
665.57	54903.99
665.76	55235.77
665.95	55194.81
666.14	55237.81
666.34	54963.39
666.53	54834.36
666.72	54942.91
666.91	55112.89
667.11	55041.21
667.30	55235.77
667.49	55415.99
667.68	55260.34
667.87	54860.99
668.07	55139.51
668.26	55272.63
668.45	55057.59
668.64	55076.02
668.84	55733.42
669.03	55315.64
669.22	55049.40
669.41	55127.22
669.60	55528.62
669.80	55213.24
669.99	55571.63
670.18	55311.54
670.37	55473.33
670.57	55897.26
670.76	55135.41
670.95	55813.29
671.14	55606.45
671.33	55456.95
671.53	55731.37
671.72	55637.17
671.91	55424.18
672.10	55415.99
672.29	55256.24
672.48	55270.58
672.68	55436.47
672.87	55217.33
673.06	55014.58
673.25	55338.16
673.44	55334.07
673.64	55448.75
673.83	55172.28
674.02	55473.33
674.21	55309.49
674.40	55755.95
674.59	55200.95
674.79	55692.46
674.98	55332.02
675.17	55758.00
675.36	55049.40
675.55	55874.73
675.74	55114.94
675.94	55399.60
676.13	55788.72
676.32	55557.30
676.51	55927.98
676.70	55915.69
676.89	55415.99
677.08	55555.25
677.28	55116.98
677.47	55841.96
677.66	55418.03
677.85	55030.97
678.04	55778.48
678.23	55794.86
678.42	55534.77
678.62	55809.20
678.81	55950.51
679.00	55563.44
679.19	55903.40
679.38	55624.88
679.57	54983.86
679.76	55573.68
679.96	55776.43
680.15	55448.75
680.34	55393.46
680.53	55571.63
680.72	55366.84
680.91	55723.18
681.10	55153.85
681.29	55745.71
681.48	55350.45
681.68	55542.96
681.87	55583.92
682.06	55389.36
682.25	55479.47
682.44	55573.68
682.63	55477.43
682.82	54842.56
683.01	54645.95
683.20	55305.40
683.39	55471.28
683.59	55323.83
683.78	55297.20
683.97	55166.13
684.16	55297.20
684.35	54942.91
684.54	55297.20
684.73	55450.80
684.92	54985.91
685.11	55280.82
685.30	55436.47
685.49	56112.30
685.69	55540.91
685.88	55317.68
686.07	55190.71
686.26	55590.06
686.45	55233.72
686.64	55661.74
686.83	55049.40
687.02	55284.92
687.21	55637.17
687.40	55174.33
687.59	55254.20
687.78	55536.82
687.97	56095.91
688.16	55782.57
688.35	55428.27
688.54	55022.78
688.74	55368.88
688.93	55106.74
689.12	55235.77
689.31	55284.92
689.50	55557.30
689.69	55024.82
689.88	55131.32
690.07	55106.74
690.26	55145.65
690.45	55682.22
690.64	55186.61
690.83	55399.60
691.02	55137.46
691.21	55205.05
691.40	55153.85
691.59	54660.29
691.78	54748.35
691.97	55096.50
692.16	54922.43
692.35	55260.34
692.54	55702.70
692.73	55264.44
692.92	54877.37
693.11	54951.10
693.30	55186.61
693.49	55073.98
693.68	54826.17
693.87	55272.63
694.06	55129.27
694.25	55116.98
694.44	55022.78
694.63	54906.04
694.82	55243.96
695.01	55268.53
695.20	55159.99
695.39	55190.71
695.58	54996.15
695.77	54834.36
695.96	54797.50
696.15	54994.10
696.34	55080.12
696.53	54977.72
696.72	55088.31
696.91	54711.49
697.10	55100.60
697.29	54971.58
697.48	55063.74
697.67	54852.80
697.86	54672.57
698.05	54965.43
698.24	54865.08
698.43	54449.35
698.62	54987.96
698.81	54588.61
699.00	55080.12
699.19	54613.18
699.38	54594.75
699.57	54621.37
699.76	55131.32
699.95	54473.92
700.14	54424.77
700.32	54891.71
700.51	54418.63
700.70	55047.35
700.89	54914.23
701.08	54799.55
701.27	54680.77
701.46	55235.77
701.65	53992.65
701.84	54645.95
702.03	54772.92
702.22	54291.65
702.41	54324.42
702.60	54760.64
702.79	54901.95
702.98	54336.71
703.17	54101.19
703.35	54754.49
703.54	54707.39
703.73	54783.16
703.92	54459.58
704.11	54801.60
704.30	54416.58
704.49	54348.99
704.68	54039.75
704.87	54275.27
705.06	54029.51
705.25	54338.75
705.43	54262.98
705.62	54580.42
705.81	54379.71
706.00	54252.74
706.19	54150.34
706.38	53941.45
706.57	53804.24
706.76	53765.32
706.95	53990.60
707.14	53992.65
707.32	53714.12
707.51	53787.85
707.70	53927.11
707.89	53732.56
708.08	54385.86
708.27	53890.25
708.46	54279.36
708.65	53681.36
708.84	54015.18
709.02	53636.30
709.21	53974.22
709.40	53511.38
709.59	53837.00
709.78	53660.88
709.97	53916.87
710.16	53755.08
710.34	53494.99
710.53	53802.19
710.72	53505.23
710.91	54293.70
711.10	54285.51
711.29	53750.99
711.48	53941.45
711.66	53546.19
711.85	53341.39
712.04	53531.86
712.23	53656.78
712.42	53509.33
712.61	53589.20
712.80	53468.37
712.98	53560.53
713.17	53030.10
713.36	53355.73
713.55	53263.57
713.74	53171.41
713.93	53318.87
714.11	53288.15
714.30	53167.32
714.49	52917.46
714.68	53497.04
714.87	52999.38
715.06	53226.71
715.24	52974.81
715.43	53130.45
715.62	52755.68
715.81	52901.08
716.00	53114.07
716.18	53118.17
716.37	52634.84
716.56	52354.27
716.75	53325.01
716.94	52335.84
717.12	52704.48
717.31	53001.43
717.50	52983.00
717.69	52368.61
717.88	52212.96
718.06	52786.39
718.25	52540.64
718.44	52008.17
718.63	52067.56
718.82	52344.03
719.00	52417.76
719.19	52245.73
719.38	52436.19
719.57	52040.93
719.76	52008.17
719.94	51483.89
720.13	52063.46
720.32	51926.25
720.51	52020.45
720.69	52042.98
720.88	51434.74
721.07	51696.88
721.26	51254.51
721.44	51266.80
721.63	51328.24
721.82	51090.68
722.01	51131.64
722.20	51246.32
722.38	51201.27
722.57	50883.83
722.76	51238.13
722.95	51215.60
723.13	51027.19
723.32	50603.26
723.51	50681.08
723.70	50871.54
723.88	50975.99
724.07	51016.95
724.26	50859.26
724.44	49894.66
724.63	50992.37
724.82	50754.81
725.01	50730.23
725.19	50568.44
725.38	50767.10
725.57	50398.46
725.76	50636.03
725.94	50361.60
726.13	50062.60
726.32	49880.33
726.51	49972.49
726.69	50715.90
726.88	50212.10
727.07	50367.74
727.25	50283.78
727.44	50228.48
727.63	50078.98
727.82	49945.86
728.00	50322.69
728.19	49886.47
728.38	50361.60
728.56	49743.11
728.75	50308.35
728.94	49968.39
729.12	49618.19
729.31	49992.97
729.50	49878.28
729.69	50046.21
729.87	49909.00
730.06	49560.84
730.25	49995.01
730.43	50097.41
730.62	49734.92
730.81	50388.22
730.99	49650.95
731.18	49753.35
731.37	50148.61
731.55	49962.25
731.74	49610.00
731.93	50121.99
732.11	49775.88
732.30	49857.80
732.49	49485.07
732.67	49618.19
732.86	49618.19
733.05	49820.94
733.23	49407.25
733.42	49693.96
733.61	50085.12
733.79	49636.62
733.98	50183.43
734.17	49714.44
734.35	49685.77
734.54	49669.39
734.73	50281.73
734.91	49405.20
735.10	49382.67
735.29	49917.19
735.47	49501.45
735.66	49440.01
735.84	49638.67
736.03	48983.32
736.22	49440.01
736.40	49130.77
736.59	49376.53
736.78	49063.19
736.96	49509.64
737.15	49419.53
737.33	48672.03
737.52	48788.76
737.71	49050.90
737.89	48796.95
738.08	48313.63
738.27	48416.03
738.45	49327.38
738.64	49071.38
738.82	48925.97
739.01	48909.59
739.20	48616.73
739.38	48842.01
739.57	49304.85
739.75	48678.17
739.94	48274.72
740.13	48895.25
740.31	48248.10
740.50	48518.43
740.68	48784.66
740.87	48760.09
741.06	48649.50
741.24	48352.54
741.43	48074.02
741.61	48753.94
741.80	48375.07
741.99	48014.63
742.17	47951.14
742.36	48258.34
742.54	47906.08
742.73	48391.45
742.91	48465.18
743.10	47752.49
743.29	48641.31
743.47	48033.06
743.66	48250.14
743.84	48018.72
744.03	47613.23
744.21	48186.66
744.40	48262.43
744.59	47822.12
744.77	47568.17
744.96	47901.99
745.14	47994.15
745.33	47947.04
745.51	47551.79
745.70	47490.35
745.88	47705.38
746.07	47957.28
746.26	47211.82
746.44	47586.60
746.63	47428.91
746.81	47740.20
747.00	46982.45
747.18	47637.80
747.37	47232.30
747.55	47099.19
747.74	47207.73
747.92	46740.79
748.11	47281.45
748.29	46531.90
748.48	47150.38
748.66	46878.00
748.85	47015.22
749.03	46843.19
749.22	47140.14
749.41	46724.41
749.59	46929.20
749.78	47074.61
749.96	46396.73
750.15	46918.96
750.33	46808.37
750.52	46677.30
750.70	46611.77
750.89	46597.43
751.07	46337.34
751.26	46261.57
751.44	46150.98
751.63	45946.18
751.81	45942.08
752.00	46161.22
752.18	46236.99
752.37	45876.55
752.55	45946.18
752.74	45747.53
752.92	45716.81
753.10	45663.56
753.29	46079.30
753.47	45804.87
753.66	45569.35
753.84	45780.29
754.03	45571.40
754.21	45610.31
754.40	45780.29
754.58	45559.11
754.77	45528.39
754.95	45231.44
755.14	45249.87
755.32	45108.56
755.51	44864.85
755.69	44883.28
755.88	44928.34
756.06	44866.90
756.24	45030.74
756.43	44586.33
756.61	45069.65
756.80	44957.01
756.98	44668.25
757.17	44643.67
757.35	44834.13
757.54	45028.69
757.72	44842.32
757.90	44762.45
758.09	44551.51
758.27	44744.02
758.46	44531.03
758.64	44463.45
758.83	44995.92
759.01	44815.70
759.19	44512.60
759.38	44227.93
759.56	44492.12
759.75	44365.15
759.93	43892.07
760.12	44184.93
760.30	43818.34
760.48	43781.48
760.67	43836.77
760.85	43959.65
761.04	43795.81
761.22	43795.81
761.40	43527.53
761.59	43855.20
761.77	43797.86
761.96	43701.61
762.14	43599.21
762.32	43847.01
762.51	43021.68
762.69	43568.49
762.88	43113.84
763.06	43400.55
763.24	42855.79
763.43	43459.94
763.61	42767.73
763.80	42722.68
763.98	43228.52
764.16	43345.26
764.35	42655.09
764.53	42648.95
764.72	42982.77
764.90	42677.62
765.08	42222.97
765.27	43193.71
765.45	42943.86
765.63	42218.88
765.82	43238.76
766.00	42605.94
766.18	42292.60
766.37	42548.60
766.55	42245.50
766.74	42386.81
766.92	41940.35
767.10	42116.48
767.29	42167.68
767.47	41731.46
767.65	42206.59
767.84	41541.00
768.02	42034.56
768.20	41807.23
768.39	41887.10
768.57	42055.04
768.75	41969.02
768.94	41872.77
769.12	41880.96
769.30	41287.05
769.49	41682.31
769.67	41528.71
769.85	41022.86
770.04	41117.07
770.22	41082.25
770.40	41006.48
770.59	40926.61
770.77	41342.35
770.95	41350.54
771.14	40867.22
771.32	40818.07
771.50	40621.46
771.69	40736.15
771.87	41145.74
772.05	41065.87
772.24	40359.32
772.42	40457.62
772.60	40500.63
772.78	40654.23
772.97	40572.31
773.15	40252.83
773.33	40293.79
773.52	40379.80
773.70	40289.69
773.88	40246.68
774.07	40277.40
774.25	40342.94
774.43	40703.38
774.61	40119.71
774.80	40564.12
774.98	40158.62
775.16	40754.58
775.34	40478.10
775.53	40013.21
775.71	40324.50
775.89	40273.31
776.08	40144.28
776.26	40619.41
776.44	40277.40
776.62	39949.73
776.81	40193.43
776.99	40498.58
777.17	40277.40
777.35	40037.79
777.54	40543.64
777.72	40226.20
777.90	40471.96
778.08	40451.48
778.27	40209.82
778.45	40293.79
778.63	40551.83
778.81	40125.85
779.00	41203.08
779.18	40056.22
779.36	40906.13
779.54	40641.94
779.73	40416.66
779.91	41057.68
780.09	40838.54
780.27	40918.42
780.46	41053.58
780.64	40904.08
780.82	40248.73
781.00	40179.10
781.19	40789.39
781.37	40852.88
781.55	40734.10
781.73	41016.72
781.91	40854.93
782.10	40713.62
782.28	40838.54
782.46	40676.76
782.64	40971.66
782.82	40832.40
783.01	40656.28
783.19	41029.01
783.37	40916.37
783.55	40924.56
783.74	41364.87
783.92	40641.94
784.10	41170.32
784.28	41065.87
784.46	40572.31
784.64	40545.69
784.83	41067.92
785.01	40891.79
785.19	40764.82
785.37	40719.76
785.55	40910.22
785.74	40398.23
785.92	40766.87
786.10	40852.88
786.28	40576.40
786.46	40869.26
786.64	40082.84
786.83	41096.59
787.01	40682.90
787.19	40312.22
787.37	40594.84
787.55	40232.35
787.74	40172.96
787.92	40287.64
788.10	40248.73
788.28	39925.15
788.46	40244.63
788.64	39751.07
788.82	40088.99
789.01	40138.14
789.19	40230.30
789.37	39935.39
789.55	40170.91
789.73	39581.09
789.91	39687.59
790.09	39450.02
790.28	39361.96
790.46	39339.43
790.64	39353.77
790.82	39577.00
791.00	39271.85
791.18	39222.70
791.36	39173.55
791.55	39032.24
791.73	38647.22
791.91	38489.52
792.09	39091.63
792.27	38684.08
792.45	38913.45
792.63	38479.28
792.81	38522.29
793.00	38755.76
793.18	38512.05
793.36	38315.45
793.54	38374.84
793.72	37924.29
793.90	37666.24
794.08	37866.94
794.26	37860.80
794.44	37701.06
794.62	37553.60
794.81	38215.10
794.99	37615.04
795.17	37461.44
795.35	37383.62
795.53	37596.61
795.71	37688.77
795.89	37338.57
796.07	37197.26
796.25	37074.38
796.43	37055.95
796.61	36857.29
796.80	36740.56
796.98	36908.49
797.16	36529.62
797.34	36990.41
797.52	36410.84
797.70	36812.24
797.88	36351.45
798.06	36074.97
798.24	36416.98
798.42	36210.14
798.60	36310.49
798.78	36111.83
798.96	35890.65
799.14	36007.39
799.32	35804.64
799.51	35687.90
799.69	35438.05
799.87	35589.60
800.05	35382.76
800.23	35429.86
800.41	35175.91
800.59	35386.85
800.77	35175.91
800.95	35141.10
801.13	34962.92
801.31	34829.80
801.49	35134.95
801.67	34883.05
801.85	35040.75
802.03	34598.38
802.21	34311.67
802.39	34426.35
802.57	34289.14
802.75	34692.59
802.93	34682.35
803.11	34194.93
803.29	34252.28
803.47	33904.12
803.65	33809.92
803.83	33975.80
804.01	33644.03
804.19	33551.87
804.37	33529.34
804.55	33539.58
804.73	33596.93
804.91	33656.32
805.09	33531.39
805.27	33357.32
805.45	33349.12
805.63	33160.71
805.81	33072.65
805.99	33357.32
806.17	33355.27
806.35	33043.98
806.53	32624.14
806.71	33250.82
806.89	33140.23
807.07	32671.25
807.25	32966.15
807.43	32220.69
807.61	32951.82
807.79	32747.02
807.97	32570.90
808.15	32255.51
808.33	32071.19
808.51	31962.65
808.69	32470.54
808.87	32138.77
809.05	32151.06
809.23	31856.15
809.41	31890.97
809.59	31976.98
809.77	31809.05
809.95	31516.19
810.13	31792.67
810.31	31542.81
810.49	31960.60
810.67	31624.73
810.84	31618.59
811.02	31301.15
811.20	31395.36
811.38	31702.56
811.56	30772.78
811.74	30916.14
811.92	30750.25
812.10	31335.97
812.28	31315.49
812.46	30928.42
812.64	31266.34
812.82	30637.61
813.00	30895.66
813.18	30971.43
813.36	30690.86
813.53	30600.75
813.71	30932.52
813.89	30305.84
814.07	30207.54
814.25	30746.15
814.43	30428.72
814.61	30453.30
814.79	30428.72
814.97	30385.71
815.15	30318.13
815.33	29812.28
815.50	30019.13
815.68	30051.89
815.86	30015.03
816.04	29574.72
816.22	29867.58
816.40	29863.48
816.58	29507.13
816.76	29584.96
816.94	29713.98
817.11	29404.74
817.29	29277.76
817.47	29615.68
817.65	29036.10
817.83	29294.14
818.01	29064.77
818.19	29283.91
818.37	29140.55
818.54	28769.86
818.72	29120.07
818.90	29206.08
819.08	28773.96
819.26	29146.69
819.44	29003.33
819.62	29005.38
819.80	29013.57
819.97	28888.65
820.15	28937.80
820.33	28853.83
820.51	28784.20
820.69	28722.76
820.87	28784.20
821.05	29083.20
821.22	28683.85
821.40	28579.40
821.58	28401.23
821.76	28098.13
821.94	28421.71
822.12	28481.10
822.29	28423.76
822.47	28331.60
822.65	28329.55
822.83	28565.07
823.01	28253.78
823.19	28200.53
823.36	28167.76
823.54	27911.77
823.72	27979.35
823.90	27801.18
824.08	27874.90
824.25	27762.26
824.43	27944.53
824.61	27526.75
824.79	27770.46
824.97	27600.47
825.15	27635.29
825.32	27688.54
825.50	27690.59
825.68	27338.33
825.86	27498.08
826.04	27618.91
826.21	27250.27
826.39	27469.40
826.57	27598.43
826.75	27266.66
826.93	27100.77
827.10	27053.67
827.28	27506.27
827.46	27549.28
827.64	27276.90
827.81	27137.63
827.99	27424.35
828.17	26846.82
828.35	26883.69
828.53	26885.73
828.70	26564.20
828.88	26750.57
829.06	26885.73
829.24	26871.40
829.41	26996.32
829.59	26875.49
829.77	26842.73
829.95	26807.91
830.12	26635.88
830.30	26664.55
830.48	26803.82
830.66	27029.09
830.84	26707.56
831.01	26535.53
831.19	26670.70
831.37	26246.77
831.55	26406.51
831.72	26578.54
831.90	26285.68
832.08	26400.37
832.25	26447.47
832.43	26568.30
832.61	26023.54
832.79	26148.46
832.96	25966.20
833.14	26367.60
833.32	26539.63
833.50	26478.19
833.67	26146.42
833.85	25742.97
834.03	25724.54
834.20	26046.07
834.38	26130.03
834.56	25927.28
834.74	25581.18
834.91	25740.92
835.09	25996.92
835.27	25577.08
835.44	25495.16
835.62	25265.79
835.80	25538.17
835.98	25675.38
836.15	25628.28
836.33	25650.81
836.51	25921.14
836.68	25536.12
836.86	25407.10
837.04	25273.98
837.21	25517.69
837.39	25556.60
837.57	25923.19
837.75	25407.10
837.92	25165.44
838.10	25384.57
838.28	24991.36
838.45	25130.62
838.63	25118.34
838.81	25464.44
838.98	24960.64
839.16	25071.23
839.34	25069.19
839.51	24940.16
839.69	24710.79
839.87	24606.34
840.04	24962.69
840.22	24929.92
840.40	24956.55
840.57	24823.43
840.75	24854.15
840.93	24483.47
841.10	24864.39
841.28	25407.10
841.46	24561.29
841.63	25054.85
841.81	24508.04
841.98	24815.24
842.16	24643.21
842.34	24790.66
842.51	24178.32
842.69	24534.67
842.87	24198.80
843.04	24399.50
843.22	24192.65
843.40	24704.65
843.57	24589.96
843.75	24293.01
843.92	24405.64
844.10	24313.48
844.28	24790.66
844.45	24604.30
844.63	24243.85
844.81	24340.11
844.98	24147.60
845.16	24235.66
845.33	24096.40
845.51	24301.20
845.69	24264.33
845.86	24012.43
846.04	23887.51
846.21	23783.06
846.39	23858.84
846.57	24028.82
846.74	23873.17
846.92	23846.55
847.09	23883.41
847.27	23635.61
847.45	24000.15
847.62	23801.49
847.80	23934.61
847.97	24055.44
848.15	23776.92
848.32	23510.68
848.50	23615.13
848.68	23408.28
848.85	23697.05
849.03	23387.80
849.20	23512.73
849.38	23432.86
849.56	23785.11
849.73	23381.66
849.91	23076.51
850.08	23709.33
850.26	23367.32
850.43	23721.62
850.61	23457.43
850.78	23275.16
850.96	23031.46
851.14	23033.50
851.31	23350.94
851.49	22881.95
851.66	23305.88
851.84	23180.96
852.01	23168.67
852.19	23086.75
852.36	22949.54
852.54	23137.95
852.71	22908.58
852.89	23137.95
853.07	23111.33
853.24	23094.94
853.42	22974.11
853.59	22998.69
853.77	23137.95
853.94	22896.29
854.12	23023.26
854.29	22742.69
854.47	22873.76
854.64	22861.48
854.82	22972.07
854.99	22808.23
855.17	22509.22
855.34	22671.01
855.52	22736.55
855.69	22851.24
855.87	22490.79
856.04	22253.23
856.22	22711.97
856.39	22099.63
856.57	22412.97
856.74	22326.96
856.92	22476.46
857.09	22288.04
857.27	22099.63
857.44	22578.86
857.62	22539.94
857.79	22240.94
857.97	22111.92
858.14	22517.42
858.32	22150.83
858.49	21862.07
858.67	22367.91
858.84	22142.64
859.02	21972.66
859.19	21933.75
859.37	22228.65
859.54	21716.66
859.72	21946.03
859.89	21667.51
860.06	22001.33
860.24	22138.54
860.41	22224.56
860.59	21808.82
860.76	21937.84
860.94	21675.70
861.11	21911.22
861.29	21724.85
861.46	21620.41
861.64	21589.69
861.81	21472.95
861.98	21526.20
862.16	21335.74
862.33	21462.71
862.51	21653.17
862.68	21487.29
862.86	21323.45
863.03	21556.92
863.21	21741.24
863.38	21444.28
863.55	21049.02
863.73	21180.09
863.90	21534.39
864.08	21237.44
864.25	21198.52
864.43	21327.55
864.60	21098.17
864.77	21159.61
864.95	20985.54
865.12	21067.45
865.30	21034.69
865.47	20848.32
865.64	20997.82
865.82	21075.65
865.99	21305.02
866.17	20973.25
866.34	20678.34
866.51	20530.89
866.69	20782.79
866.86	21079.74
867.04	20688.58
867.21	20649.67
867.38	20668.10
867.56	20666.05
867.73	20512.46
867.91	20840.13
868.08	20813.51
868.25	20541.13
868.43	20602.57
868.60	20180.68
868.78	20432.58
868.95	20670.15
869.12	20498.12
869.30	20324.04
869.47	20281.03
869.64	20264.65
869.82	20569.80
869.99	20303.56
870.16	20561.61
870.34	20270.79
870.51	20426.44
870.69	20293.32
870.86	20104.91
871.03	20068.05
871.21	20049.61
871.38	20324.04
871.55	19879.63
871.73	20010.70
871.90	19965.65
872.07	19781.33
872.25	19801.81
872.42	19814.10
872.59	19709.65
872.77	19697.36
872.94	19789.52
873.11	19685.08
873.29	19908.30
873.46	19627.73
873.63	19766.99
873.81	19619.54
873.98	19392.22
874.15	19238.62
874.33	19611.35
874.50	19068.64
874.67	19449.56
874.85	19343.06
875.02	19068.64
875.19	19078.88
875.37	19121.88
875.54	18980.57
875.71	19058.40
875.88	18894.56
876.06	19265.24
876.23	19007.20
876.40	18845.41
876.58	18896.61
876.75	18826.98
876.92	18867.94
877.10	18740.96
877.27	18970.33
877.44	18638.56
877.61	18777.83
877.79	18603.75
877.96	18335.46
878.13	18847.46
878.31	18491.11
878.48	18513.64
878.65	18634.47
878.82	18216.68
879.00	18476.77
879.17	18280.17
879.34	18411.24
879.51	18245.35
879.69	18044.65
879.86	18024.17
880.03	18075.37
880.21	18177.77
880.38	18130.67
880.55	18300.65
880.72	18075.37
880.90	17979.12
881.07	18050.80
881.24	18104.04
881.41	18034.41
881.59	17639.15
881.76	18028.27
881.93	17796.85
882.10	17850.10
882.28	17751.79
882.45	17850.10
882.62	17753.84
882.79	17876.72
882.96	17579.76
883.14	17721.07
883.31	17854.19
883.48	17676.02
883.65	17737.46
883.83	17784.56
884.00	17835.76
884.17	17592.05
884.34	17716.98
884.51	17516.28
884.69	17557.24
884.86	17407.73
885.03	17354.49
885.20	17417.97
885.38	17622.77
885.55	17223.42
885.72	17284.86
885.89	17460.98
886.06	17108.73
886.24	17329.91
886.41	17098.49
886.58	17323.77
886.75	17061.63
886.92	17235.70
887.10	17198.84
887.27	17370.87
887.44	17196.79
887.61	17653.49
887.78	17305.34
887.95	17321.72
888.13	17047.29
888.30	16946.94
888.47	16877.31
888.64	17028.86
888.81	16975.61
888.99	16805.63
889.16	16703.23
889.33	16772.86
889.50	16695.04
889.67	16830.21
889.84	16580.36
890.01	16873.21
890.19	16842.50
890.36	16678.66
890.53	16606.98
890.70	16437.00
890.87	16740.10
891.04	16727.81
891.22	16545.54
891.39	16443.14
891.56	16320.26
891.73	16647.94
891.90	16238.34
892.07	16420.61
892.24	16379.65
892.42	16279.30
892.59	16250.63
892.76	16228.10
892.93	16328.45
893.10	16471.81
893.27	16373.51
893.44	16041.74
893.61	16133.90
893.79	16140.04
893.96	16133.90
894.13	16115.47
894.30	16353.03
894.47	16228.10
894.64	16260.87
894.81	15765.26
894.98	16015.12
895.15	16023.31
895.33	16008.97
895.50	16082.70
895.67	16377.61
895.84	16115.47
896.01	15939.34
896.18	15916.81
896.35	16051.98
896.52	16062.22
896.69	15912.72
896.86	15929.10
897.04	16002.83
897.21	15970.06
897.38	15687.44
897.55	15785.74
897.72	16023.31
897.89	15816.46
898.06	16119.56
898.23	15752.98
898.40	15910.67
898.57	16113.42
898.74	15900.43
898.91	15873.81
899.08	15888.14
899.26	16039.69
899.43	16125.71
899.60	15769.36
899.77	15933.20
899.94	15910.67
900.11	15910.67
900.28	15970.06
900.45	15605.52
900.62	15826.70
900.79	15945.48
900.96	15929.10
901.13	15634.19
901.30	15687.44
901.47	15462.16
901.64	16068.36
901.81	16080.65
901.98	15619.86
902.15	16152.33
902.32	15820.56
902.49	16011.02
902.66	15953.68
902.83	15818.51
903.01	15908.62
903.18	16021.26
903.35	15851.28
903.52	15783.70
903.69	15818.51
903.86	15841.04
904.03	15810.32
904.20	15918.86
904.37	16123.66
904.54	15980.30
904.71	15806.22
904.88	15855.37
905.05	15658.77
905.22	15957.77
905.39	15693.58
905.56	15734.54
905.73	15759.12
905.90	15609.62
906.07	15806.22
906.24	15771.41
906.41	15841.04
906.58	15746.83
906.75	15691.54
906.92	15687.44
907.09	15484.69
907.26	15806.22
907.43	15499.03
907.60	15834.89
907.77	15912.72
907.93	15716.11
908.10	15630.10
908.27	15902.48
908.44	15593.23
908.61	15810.32
908.78	15656.72
908.95	15634.19
909.12	15499.03
909.29	15582.99
909.46	15279.89
909.63	15560.47
909.80	15642.39
909.97	15734.54
910.14	15417.11
910.31	15152.92
910.48	15327.00
910.65	15529.75
910.82	15634.19
910.99	15519.51
911.16	15525.65
911.33	15359.77
911.50	15410.96
911.66	15093.53
911.83	15492.88
912.00	15193.88
912.17	15122.20
912.34	15410.96
912.51	15275.80
912.68	15179.54
912.85	15216.41
913.02	15281.94
913.19	14952.22
913.36	15030.04
913.53	15257.37
913.70	14989.08
913.86	15077.15
914.03	15013.66
914.20	14868.25
914.37	15111.96
914.54	14962.46
914.71	14898.97
914.88	14874.40
915.05	14741.28
915.22	14624.54
915.39	14896.92
915.55	14567.20
915.72	14507.81
915.89	14493.47
916.06	14352.16
916.23	14450.47
916.40	14405.41
916.57	14319.40
916.74	14548.77
916.91	14569.25
917.07	14313.25
917.24	14102.31
917.41	14389.03
917.58	14313.25
917.75	14339.88
917.92	13930.28
918.09	14173.99
918.26	14049.07
918.42	14178.09
918.59	14024.49
918.76	13874.99
918.93	13737.77
919.10	13809.45
919.27	13639.47
919.44	13840.17
919.60	14004.01
919.77	13791.02
919.94	13858.60
920.11	13639.47
920.28	13844.27
920.45	13524.79
920.61	13168.44
920.78	13446.96
920.95	13582.13
921.12	13414.20
921.29	13438.77
921.46	13451.06
921.62	13494.07
921.79	13115.19
921.96	13141.82
922.13	13399.86
922.30	12918.59
922.47	12828.48
922.63	13158.20
922.80	12805.95
922.97	12910.40
923.14	12629.82
923.31	13053.75
923.47	12601.15
923.64	13160.25
923.81	12799.80
923.98	12715.84
924.15	12619.58
924.32	12668.73
924.48	12465.99
924.65	12670.78
924.82	12482.37
924.99	12275.52
925.15	12216.13
925.32	12664.64
925.49	12181.32
925.66	12156.74
925.83	11935.56
925.99	11910.99
926.16	12246.85
926.33	12140.36
926.50	11931.47
926.67	11929.42
926.83	11872.07
927.00	11845.45
927.17	11568.98
927.34	11714.38
927.50	11624.27
927.67	11702.09
927.84	11618.13
928.01	11554.64
928.17	11390.80
928.34	11458.39
928.51	11450.19
928.68	11136.85
928.84	11331.41
929.01	11179.86
929.18	11312.98
929.35	11155.29
929.51	11065.18
929.68	10891.10
929.85	10948.44
930.02	10864.47
930.18	10794.84
930.35	10878.81
930.52	10887.00
930.69	10731.36
930.85	10778.46
931.02	10483.55
931.19	10489.70
931.36	10489.70
931.52	10686.30
931.69	10579.81
931.86	10397.54
932.02	10633.05
932.19	10342.24
932.36	10356.58
932.53	10254.18
932.69	10100.58
932.86	10207.08
933.03	10092.39
933.19	10012.52
933.36	10151.78
933.53	10135.40
933.70	9863.02
933.86	9838.44
934.03	9875.31
934.20	9625.45
934.36	9822.06
934.53	9688.94
934.70	9406.32
934.86	9547.63
935.03	9273.20
935.20	9146.23
935.36	9299.83
935.53	9031.54
935.70	9140.08
935.86	9140.08
936.03	8996.73
936.20	8759.16
936.36	8820.60
936.53	8863.61
936.70	8748.92
936.86	8763.26
937.03	8646.52
937.20	8257.41
937.36	8607.61
937.53	8093.57
937.70	8210.31
937.86	8216.45
938.03	7935.88
938.20	8105.86
938.36	7851.91
938.53	7917.45
938.70	7669.64
938.86	7700.36
939.03	7595.92
939.20	7538.57
939.36	7335.82
939.53	7266.19
939.70	7528.33
939.86	6971.29
940.03	7143.32
940.19	6877.08
940.36	6954.90
940.53	6913.94
940.69	6868.89
940.86	6698.91
941.03	6647.71
941.19	6475.68
941.36	6739.87
941.52	6526.88
941.69	6383.52
941.86	6256.54
942.02	6393.76
942.19	6299.55
942.35	6195.11
942.52	6225.82
942.69	6109.09
942.85	6037.41
943.02	6053.80
943.18	6096.80
943.35	5949.35
943.52	5928.87
943.68	5836.71
943.85	5898.15
944.01	5685.16
944.18	5726.12
944.35	5672.87
944.51	5650.35
944.68	5605.29
944.84	5461.93
945.01	5486.51
945.17	5719.98
945.34	5380.01
945.51	5588.91
945.67	5597.10
945.84	5490.60
946.00	5429.17
946.17	5478.32
946.33	5418.93
946.50	5488.56
946.67	5433.26
946.83	5435.31
947.00	5588.91
947.16	5339.05
947.33	5312.43
947.49	5420.97
947.66	5390.25
947.82	5410.73
947.99	5253.04
948.16	5439.40
948.32	5396.40
948.49	5416.88
948.65	5408.69
948.82	5332.91
948.98	5269.42
949.15	5189.55
949.31	5410.73
949.48	5463.98
949.64	5380.01
949.81	5363.63
949.97	5310.38
950.14	5361.58
950.30	5373.87
950.47	5429.17
950.63	5459.88
950.80	5375.92
950.96	5494.70
951.13	5316.53
951.30	5386.16
951.46	5490.60
951.63	5468.08
951.79	5574.57
951.96	5439.40
952.12	5400.49
952.29	5441.45
952.45	5459.88
952.62	5357.49
952.78	5457.84
952.94	5457.84
953.11	5517.23
953.27	5420.97
953.44	5664.68
953.60	5392.30
953.77	5603.24
953.93	5416.88
954.10	5339.05
954.26	5558.19
954.43	5339.05
954.59	5504.94
954.76	5586.86
954.92	5480.36
955.09	5498.80
955.25	5451.69
955.42	5455.79
955.58	5689.26
955.75	5492.65
955.91	5482.41
956.07	5576.62
956.24	5613.48
956.40	5466.03
956.57	5498.80
956.73	5394.35
956.90	5625.77
957.06	5506.99
957.23	5597.10
957.39	5416.88
957.56	5425.07
957.72	5365.68
957.88	5509.04
958.05	5535.66
958.21	5492.65
958.38	5609.39
958.54	5566.38
958.71	5398.45
958.87	5406.64
959.03	5529.52
959.20	5527.47
959.36	5326.77
959.53	5183.41
959.69	5420.97
959.85	5500.84
960.02	5386.16
960.18	5330.86
960.35	5494.70
960.51	5484.46
960.68	5431.21
960.84	5447.60
961.00	5394.35
961.17	5402.54
961.33	5441.45
961.50	5414.83
961.66	5640.11
961.82	5423.02
961.99	5455.79
962.15	5494.70
962.31	5267.38
962.48	5525.42
962.64	5550.00
962.81	5550.00
962.97	5511.08
963.13	5345.20
963.30	5457.84
963.46	5308.34
963.62	5216.18
963.79	5480.36
963.95	5240.75
964.12	5382.06
964.28	5445.55
964.44	5412.78
964.61	5304.24
964.77	5402.54
964.93	5423.02
965.10	5361.58
965.26	5306.29
965.42	5322.67
965.59	5224.37
965.75	5222.32
965.92	5447.60
966.08	5418.93
966.24	5353.39
966.41	5205.94
966.57	5248.94
966.73	5277.62
966.90	5273.52
967.06	5396.40
967.22	5304.24
967.39	5275.57
967.55	5167.03
967.71	5261.23
967.88	5210.03
968.04	5177.26
968.20	5203.89
968.37	5207.98
968.53	5138.35
968.69	5132.21
968.85	5230.51
969.02	5205.94
969.18	5083.06
969.34	5081.01
969.51	5222.32
969.67	5214.13
969.83	5212.08
970.00	5349.29
970.16	5091.25
970.32	4954.04
970.48	5169.07
970.65	4997.04
970.81	5021.62
970.97	5033.91
971.14	4865.97
971.30	5074.87
971.46	5144.50
971.63	4954.04
971.79	5058.48
971.95	4857.78
972.11	4941.75
972.28	4995.00
972.44	4995.00
972.60	4749.24
972.76	4958.13
972.93	4870.07
973.09	4968.37
973.25	5050.29
973.42	4876.21
973.58	4890.55
973.74	4902.84
973.90	4929.46
974.07	4804.53
974.23	4837.30
974.39	4804.53
974.55	4745.14
974.72	4835.25
974.88	4612.03
975.04	4825.01
975.20	4644.79
975.37	4818.87
975.53	4751.29
975.69	4937.65
975.85	4718.52
976.01	4693.94
976.18	4693.94
976.34	4618.17
976.50	4839.35
976.66	4865.97
976.83	4747.19
976.99	4671.42
977.15	4626.36
977.31	4411.32
977.47	4652.98
977.64	4558.78
977.80	4693.94
977.96	4749.24
978.12	4595.64
978.29	4714.42
978.45	4425.66
978.61	4554.68
978.77	4575.16
978.93	4548.54
979.10	4552.63
979.26	4464.57
979.42	4491.20
979.58	4470.72
979.74	4415.42
979.91	4448.19
980.07	4364.22
980.23	4456.38
980.39	4388.80
980.55	4370.37
980.71	4485.05
980.88	4399.04
981.04	4308.93
981.20	4384.70
981.36	4409.28
981.52	4392.89
981.68	4368.32
981.85	4317.12
982.01	4214.72
982.17	4310.97
982.33	4253.63
982.49	4384.70
982.65	4257.73
982.82	4245.44
982.98	4202.43
983.14	4151.23
983.30	4388.80
983.46	4331.45
983.62	4212.67
983.79	4317.12
983.95	4140.99
984.11	4124.61
984.27	4063.17
984.43	4288.45
984.59	4161.47
984.75	4173.76
984.91	4188.10
985.08	4147.14
985.24	4022.21
985.40	4038.59
985.56	4235.20
985.72	4147.14
985.88	4093.89
986.04	4065.22
986.20	3932.10
986.37	4181.95
986.53	4085.70
986.69	4075.46
986.85	3940.29
987.01	3950.53
987.17	4020.16
987.33	3989.44
987.49	3946.44
987.65	4032.45
987.82	3948.48
987.98	3923.91
988.14	3930.05
988.30	3999.68
988.46	3930.05
988.62	3874.76
988.78	3841.99
988.94	3803.08
989.10	3776.45
989.26	3751.88
989.42	3790.79
989.59	3745.73
989.75	3737.54
989.91	3788.74
990.07	3682.25
990.23	3835.85
990.39	3792.84
990.55	3846.09
990.71	3753.93
990.87	3745.73
991.03	3928.00
991.19	3788.74
991.35	3815.37
991.51	3829.70
991.67	3678.15
991.83	3631.05
992.00	3651.53
992.16	3712.97
992.32	3809.22
992.48	3723.21
992.64	3575.75
992.80	3694.54
992.96	3573.71
993.12	3645.38
993.28	3530.70
993.44	3663.82
993.60	3624.90
993.76	3647.43
993.92	3676.10
994.08	3696.58
994.24	3471.31
994.40	3516.36
994.56	3614.66
994.72	3579.85
994.88	3538.89
995.04	3565.51
995.20	3514.31
995.36	3518.41
995.52	3559.37
995.68	3499.98
995.84	3465.16
996.00	3614.66
996.16	3342.28
996.32	3483.59
996.48	3268.56
996.64	3520.46
996.80	3377.10
996.96	3399.63
997.12	3428.30
997.28	3336.14
997.44	3342.28
997.60	3311.57
997.76	3309.52
997.92	3440.59
998.08	3430.35
998.24	3266.51
998.40	3272.65
998.56	3323.85
998.72	3295.18
998.88	3276.75
999.04	3375.05
999.20	3198.93
999.36	3248.08
999.52	3332.05
999.68	3352.52
999.84	3297.23
1000.00	3235.79
1000.16	3307.47
1000.32	3274.70
1000.48	3264.46
1000.64	3055.57
1000.80	3286.99
1000.95	3106.77
1001.11	3149.78
1001.27	3182.54
1001.43	3133.39
1001.59	3139.54
1001.75	3213.26
1001.91	3131.34
1002.07	3178.45
1002.23	3182.54
1002.39	3145.68
1002.55	3168.21
1002.71	3182.54
1002.87	3106.77
1003.03	3078.10
1003.19	3022.80
1003.34	3151.82
1003.50	2973.65
1003.66	3153.87
1003.82	3133.39
1003.98	3012.56
1004.14	3035.09
1004.30	2944.98
1004.46	2934.74
1004.62	2965.46
1004.78	2904.02
1004.94	2965.46
1005.09	3049.43
1005.25	2977.75
1005.41	3028.95
1005.57	2895.83
1005.73	2926.55
1005.89	2822.10
1006.05	2990.03
1006.21	2828.24
1006.37	2897.88
1006.52	2846.68
1006.68	2871.25
1006.84	3016.66
1007.00	2801.62
1007.16	3002.32
1007.32	2910.16
1007.48	2875.35
1007.64	2820.05
1007.79	2879.44
1007.95	2772.95
1008.11	2969.55
1008.27	2844.63
1008.43	2899.92
1008.59	2879.44
1008.75	2865.11
1008.91	2908.12
1009.06	2822.10
1009.22	2791.38
1009.38	2797.53
1009.54	2742.23
1009.70	2746.33
1009.86	2834.39
1010.01	2666.46
1010.17	2715.61
1010.33	2869.20
1010.49	2775.00
1010.65	2863.06
1010.81	2740.18
1010.96	2740.18
1011.12	2691.03
1011.28	2629.59
1011.44	2783.19
1011.60	2787.29
1011.76	2525.15
1011.91	2703.32
1012.07	2623.45
1012.23	2510.81
1012.39	2592.73
1012.55	2656.22
1012.71	2699.22
1012.86	2543.58
1013.02	2596.82
1013.18	2645.98
1013.34	2627.54
1013.50	2672.60
1013.65	2627.54
1013.81	2592.73
1013.97	2570.20
1014.13	2609.11
1014.29	2600.92
1014.44	2625.50
1014.60	2519.00
1014.76	2572.25
1014.92	2463.71
1015.07	2598.87
1015.23	2533.34
1015.39	2492.38
1015.55	2496.47
1015.71	2512.86
1015.86	2564.06
1016.02	2525.15
1016.18	2490.33
1016.34	2523.10
1016.49	2473.95
1016.65	2566.10
1016.81	2521.05
1016.97	2426.84
1017.12	2521.05
1017.28	2410.46
1017.44	2408.41
1017.60	2437.08
1017.75	2523.10
1017.91	2443.23
1018.07	2494.43
1018.23	2461.66
1018.38	2506.71
1018.54	2432.99
1018.70	2461.66
1018.86	2385.88
1019.01	2414.56
1019.17	2451.42
1019.33	2488.28
1019.49	2367.45
1019.64	2424.80
1019.80	2394.08
1019.96	2377.69
1020.12	2394.08
1020.27	2400.22
1020.43	2318.30
1020.59	2373.60
1020.74	2338.78
1020.90	2443.23
1021.06	2334.68
1021.22	2293.72
1021.37	2236.38
1021.53	2275.29
1021.69	2394.08
1021.84	2236.38
1022.00	2338.78
1022.16	2308.06
1022.31	2316.25
1022.47	2379.74
1022.63	2334.68
1022.79	2185.18
1022.94	2174.94
1023.10	2291.68
1023.26	2271.20
1023.41	2271.20
1023.57	2293.72
1023.73	2222.05
1023.88	2224.09
1024.04	2220.00
1024.20	2170.85
1024.35	2269.15
1024.51	2197.47
1024.67	2297.82
1024.82	2297.82
1024.98	2125.79
1025.14	2301.92
1025.29	2209.76
1025.45	2260.96
1025.61	2154.46
1025.76	2168.80
1025.92	2176.99
1026.08	2230.24
1026.23	2252.77
1026.39	2252.77
1026.55	2191.33
1026.70	2174.94
1026.86	2234.33
1027.02	2236.38
1027.17	2125.79
1027.33	2201.57
1027.48	2228.19
1027.64	2183.13
1027.80	2109.41
1027.95	2193.37
1028.11	2095.07
1028.27	2146.27
1028.42	2136.03
1028.58	2113.50
1028.73	2103.26
1028.89	2031.58
1029.05	2115.55
1029.20	2107.36
>>>>>End Processed Spectral Data<<<<<
