SpectraSuite Data File
++++++++++++++++++++++++++++++++++++
Date: Fri Jun 02 14:57:22 CEST 2017
User: INFO_000
Dark Spectrum Present: No
Reference Spectrum Present: No
Number of Sampled Component Spectra: 1
Spectrometers: USB4H00879
Integration Time (usec): 80000 (USB4H00879)
Spectra Averaged: 1 (USB4H00879)
Boxcar Smoothing: 0 (USB4H00879)
Correct for Electrical Dark: No (USB4H00879)
Strobe/Lamp Enabled: No (USB4H00879)
Correct for Detector Non-linearity: No (USB4H00879)
Correct for Stray Light: No (USB4H00879)
Number of Pixels in Processed Spectrum: 3648
>>>>>Begin Processed Spectral Data<<<<<
345.13	1251.31
345.34	1251.31
345.56	1251.31
345.78	1259.50
345.99	1269.74
346.21	1679.33
346.42	1734.63
346.64	1652.71
346.86	1767.40
347.07	1714.15
347.29	1658.85
347.50	1591.27
347.72	1662.95
347.94	1728.49
348.15	1525.74
348.37	1609.70
348.59	1728.49
348.80	1640.42
349.02	1787.88
349.23	1871.84
349.45	1834.98
349.67	1943.52
349.88	1839.08
350.10	1923.04
350.31	1871.84
350.53	1845.22
350.75	2019.30
350.96	1798.12
351.18	1933.28
351.39	1834.98
351.61	1726.44
351.82	1896.42
352.04	1851.36
352.26	1779.68
352.47	1925.09
352.69	1830.88
352.90	1777.64
353.12	1845.22
353.34	1875.94
353.55	1970.15
353.77	1847.27
353.98	1849.32
354.20	1802.21
354.41	1931.23
354.63	1914.85
354.85	2009.06
355.06	1927.14
355.28	1869.80
355.49	1927.14
355.71	1855.46
355.92	1822.69
356.14	1880.04
356.35	1853.41
356.57	1855.46
356.79	1945.57
357.00	1859.56
357.22	1945.57
357.43	1873.89
357.65	1923.04
357.86	1822.69
358.08	1927.14
358.29	1894.37
358.51	1966.05
358.72	1994.72
358.94	1912.80
359.16	1880.04
359.37	1939.43
359.59	1884.13
359.80	1984.48
360.02	1970.15
360.23	1986.53
360.45	2000.87
360.66	1970.15
360.88	1818.60
361.09	1937.38
361.31	1961.95
361.52	1880.04
361.74	1982.43
361.95	2115.55
362.17	1918.95
362.38	2043.87
362.60	1992.67
362.81	1933.28
363.03	1888.23
363.24	1998.82
363.46	2123.74
363.67	2019.30
363.89	2035.68
364.10	1916.90
364.32	1972.19
364.53	2068.45
364.75	1941.47
364.96	2064.35
365.18	2035.68
365.39	2072.54
365.61	1937.38
365.82	2138.08
366.04	1976.29
366.25	2084.83
366.47	2062.30
366.68	2058.21
366.90	2015.20
367.11	2068.45
367.33	2064.35
367.54	2097.12
367.76	2009.06
367.97	2138.08
368.19	1980.39
368.40	2064.35
368.62	2013.15
368.83	1957.86
369.05	2060.26
369.26	2009.06
369.48	1986.53
369.69	1968.10
369.91	2101.22
370.12	2027.49
370.33	2097.12
370.55	1953.76
370.76	2019.30
370.98	2166.75
371.19	2097.12
371.41	1951.71
371.62	2031.58
371.84	2011.11
372.05	2213.85
372.27	2076.64
372.48	2000.87
372.69	2109.41
372.91	2041.82
373.12	2162.66
373.34	2054.11
373.55	2105.31
373.77	2101.22
373.98	2000.87
374.20	2183.13
374.41	2263.01
374.62	2189.28
374.84	2222.05
375.05	2217.95
375.27	2215.90
375.48	2125.79
375.70	2172.89
375.91	2162.66
376.12	2281.44
376.34	2181.09
376.55	2193.37
376.77	2271.20
376.98	2056.16
377.19	2074.59
377.41	2152.42
377.62	2207.71
377.84	2228.19
378.05	2353.12
378.27	2228.19
378.48	2295.77
378.69	2365.40
378.91	2248.67
379.12	2234.33
379.34	2242.53
379.55	2291.68
379.76	2215.90
379.98	2213.85
380.19	2203.61
380.41	2203.61
380.62	2301.92
380.83	2265.05
381.05	2250.72
381.26	2387.93
381.47	2199.52
381.69	2322.40
381.90	2369.50
382.12	2254.81
382.33	2301.92
382.54	2269.15
382.76	2349.02
382.97	2293.72
383.19	2220.00
383.40	2383.84
383.61	2185.18
383.83	2228.19
384.04	2271.20
384.25	2338.78
384.47	2375.64
384.68	2410.46
384.89	2279.39
385.11	2322.40
385.32	2367.45
385.54	2363.36
385.75	2310.11
385.96	2414.56
386.18	2426.84
386.39	2486.23
386.60	2322.40
386.82	2408.41
387.03	2383.84
387.24	2488.28
387.46	2418.65
387.67	2500.57
387.88	2590.68
388.10	2410.46
388.31	2514.91
388.52	2537.43
388.74	2461.66
388.95	2453.47
389.16	2488.28
389.38	2559.96
389.59	2629.59
389.80	2602.97
390.02	2596.82
390.23	2648.02
390.44	2619.35
390.66	2510.81
390.87	2504.67
391.08	2473.95
391.30	2676.70
391.51	2574.30
391.72	2617.30
391.94	2656.22
392.15	2598.87
392.36	2615.26
392.58	2598.87
392.79	2678.74
393.00	2695.13
393.22	2770.90
393.43	2752.47
393.64	2789.33
393.85	2826.20
394.07	2727.89
394.28	2688.98
394.49	2824.15
394.71	2760.66
394.92	2805.72
395.13	2715.61
395.35	2746.33
395.56	2701.27
395.77	2754.52
395.98	2801.62
396.20	2844.63
396.41	2908.12
396.62	2895.83
396.84	2830.29
397.05	2863.06
397.26	2981.84
397.47	2867.16
397.69	2746.33
397.90	2998.23
398.11	2924.50
398.32	2858.96
398.54	2834.39
398.75	3002.32
398.96	3125.20
399.18	3088.34
399.39	3002.32
399.60	3139.54
399.81	2891.73
400.03	3022.80
400.24	3217.36
400.45	3000.27
400.66	3076.05
400.88	3053.52
401.09	3280.85
401.30	3014.61
401.51	3147.73
401.73	3100.62
401.94	3106.77
402.15	3217.36
402.36	3018.71
402.58	3133.39
402.79	3053.52
403.00	3078.10
403.21	3137.49
403.43	3217.36
403.64	3344.33
403.85	3174.35
404.06	3250.13
404.27	3108.82
404.49	3188.69
404.70	3192.78
404.91	3448.78
405.12	3246.03
405.34	3268.56
405.55	3446.73
405.76	3149.78
405.97	3280.85
406.19	3379.15
406.40	3330.00
406.61	3387.34
406.82	3321.81
407.03	3250.13
407.25	3239.89
407.46	3409.87
407.67	3489.74
407.88	3573.71
408.09	3545.03
408.31	3481.55
408.52	3370.96
408.73	3459.02
408.94	3356.62
409.15	3424.20
409.37	3528.65
409.58	3547.08
409.79	3424.20
410.00	3526.60
410.21	3516.36
410.43	3522.51
410.64	3467.21
410.85	3467.21
411.06	3459.02
411.27	3649.48
411.48	3575.75
411.70	3596.23
411.91	3559.37
412.12	3680.20
412.33	3624.90
412.54	3608.52
412.76	3798.98
412.97	3672.01
413.18	3561.42
413.39	3665.86
413.60	3639.24
413.81	3626.95
414.03	3696.58
414.24	3502.03
414.45	3889.09
414.66	3629.00
414.87	3739.59
415.08	3688.39
415.30	3659.72
415.51	3805.13
415.72	3755.97
415.93	3727.30
416.14	3874.76
416.35	3809.22
416.56	3950.53
416.78	3852.23
416.99	3831.75
417.20	3805.13
417.41	3944.39
417.62	3827.65
417.83	3958.72
418.04	3868.61
418.26	3942.34
418.47	3852.23
418.68	3958.72
418.89	4014.02
419.10	4011.97
419.31	3966.92
419.52	4083.65
419.73	4018.11
419.95	4050.88
420.16	3925.96
420.37	4061.12
420.58	4034.50
420.79	3923.91
421.00	4001.73
421.21	4112.32
421.42	4052.93
421.63	4120.51
421.85	4038.59
422.06	4143.04
422.27	4138.94
422.48	4110.27
422.69	4173.76
422.90	4188.10
423.11	4237.25
423.32	4368.32
423.53	4272.06
423.75	4147.14
423.96	4366.27
424.17	4280.25
424.38	4501.44
424.59	4288.45
424.80	4523.96
425.01	4517.82
425.22	4507.58
425.43	4437.95
425.64	4566.97
425.85	4556.73
426.06	4579.26
426.28	4487.10
426.49	4517.82
426.70	4487.10
426.91	4427.71
427.12	4700.09
427.33	4657.08
427.54	4603.83
427.75	4782.01
427.96	4730.81
428.17	4677.56
428.38	4827.06
428.59	4794.29
428.80	4816.82
429.01	4857.78
429.23	4685.75
429.44	4954.04
429.65	4847.54
429.86	4876.21
430.07	4671.42
430.28	4751.29
430.49	4921.27
430.70	4933.56
430.91	4951.99
431.12	4927.41
431.33	5048.24
431.54	5038.00
431.75	5148.59
431.96	4937.65
432.17	4988.85
432.38	5191.60
432.59	5423.02
432.80	5265.33
433.01	5197.74
433.22	5238.70
433.43	5275.57
433.64	5396.40
433.85	5183.41
434.06	5261.23
434.27	5134.26
434.49	5390.25
434.70	5425.07
434.91	5398.45
435.12	5361.58
435.33	5392.30
435.54	5633.96
435.75	5330.86
435.96	5492.65
436.17	5322.67
436.38	5556.14
436.59	5517.23
436.80	5449.64
437.01	5730.22
437.22	5722.02
437.43	5564.33
437.64	5474.22
437.85	5787.56
438.06	5595.05
438.27	5629.87
438.48	5664.68
438.69	5726.12
438.90	5621.67
439.11	5660.59
439.32	5867.43
439.53	5771.18
439.74	5838.76
439.95	6014.88
440.16	5717.93
440.37	5885.86
440.57	5767.08
440.78	5846.95
440.99	5959.59
441.20	5957.54
441.41	5955.49
441.62	5941.16
441.83	5879.72
442.04	6008.74
442.25	6064.04
442.46	6033.32
442.67	6139.81
442.88	6508.44
443.09	6021.03
443.30	6199.20
443.51	6315.94
443.72	6455.20
443.93	6098.85
444.14	6516.64
444.35	6246.30
444.56	6293.41
444.77	6317.98
444.98	6432.67
445.19	6512.54
445.40	6520.73
445.61	6512.54
445.81	6547.36
446.02	6637.47
446.23	6418.33
446.44	6289.31
446.65	6336.42
446.86	6500.25
447.07	6621.08
447.28	6735.77
447.49	6723.48
447.70	6553.50
447.91	6741.91
448.12	6670.23
448.33	6756.25
448.54	6875.03
448.74	6877.08
448.95	6883.22
449.16	6504.35
449.37	7133.08
449.58	6885.27
449.79	7018.39
450.00	6797.21
450.21	7010.20
450.42	7143.32
450.63	7161.75
450.84	7171.99
451.05	7008.15
451.25	7075.73
451.46	7131.03
451.67	7186.32
451.88	7446.41
452.09	7370.64
452.30	7184.27
452.51	7292.82
452.72	7411.60
452.93	7481.23
453.13	7313.30
453.34	7387.02
453.55	7346.06
453.76	7438.22
453.97	7749.51
454.18	7569.29
454.39	7597.96
454.60	7640.97
454.81	7444.37
455.01	7729.03
455.22	7505.81
455.43	7669.64
455.64	7913.35
455.85	8071.04
456.06	7970.69
456.27	7894.92
456.48	7876.49
456.68	7913.35
456.89	8075.14
457.10	8017.80
457.31	7956.36
457.52	8130.44
457.73	8054.66
457.94	8427.39
458.14	8069.00
458.35	8392.58
458.56	8163.20
458.77	8181.64
458.98	8492.93
459.19	8386.43
459.39	8664.96
459.60	8638.33
459.81	8341.38
460.02	8781.69
460.23	8466.30
460.44	8730.49
460.65	8753.02
460.85	8882.04
461.06	8935.29
461.27	8607.61
461.48	8767.35
461.69	9004.92
461.89	8626.04
462.10	8961.91
462.31	8853.37
462.52	8912.76
462.73	9117.56
462.94	9258.87
463.14	9232.24
463.35	9181.04
463.56	9684.84
463.77	9344.88
463.98	9367.41
464.18	9348.98
464.39	9434.99
464.60	9621.36
464.81	9389.94
465.02	9525.10
465.23	9963.37
465.43	9703.28
465.64	9930.60
465.85	9768.81
466.06	9408.37
466.27	9987.94
466.47	10149.73
466.68	10033.00
466.89	10002.28
467.10	10211.17
467.30	10016.62
467.51	10137.45
467.72	10489.70
467.93	10137.45
468.14	10348.39
468.34	10491.74
468.55	10446.69
468.76	10653.53
468.97	10495.84
469.17	10585.95
469.38	10567.52
469.59	10846.04
469.80	10841.95
470.01	10725.21
470.21	10889.05
470.42	11046.74
470.63	11073.37
470.84	10790.75
471.04	11259.73
471.25	11382.61
471.46	11216.72
471.67	11626.32
471.87	11575.12
472.08	11548.50
472.29	11618.13
472.50	11446.10
472.70	11724.62
472.91	11814.73
473.12	11784.01
473.33	11980.62
473.53	12089.16
473.74	12040.01
473.95	12142.41
474.16	12230.47
474.36	12353.35
474.57	12418.88
474.78	12418.88
474.99	12459.84
475.19	12416.83
475.40	12584.77
475.61	12789.56
475.81	13002.55
476.02	12826.43
476.23	12773.18
476.44	13115.19
476.64	13193.01
476.85	13207.35
477.06	13217.59
477.27	13281.08
477.47	13522.74
477.68	13502.26
477.89	13625.14
478.09	13813.55
478.30	13713.20
478.51	13770.54
478.71	14040.87
478.92	14036.78
479.13	14155.56
479.34	14300.97
479.54	14329.64
479.75	14202.66
479.96	14489.38
480.16	14692.13
480.37	14585.63
480.58	14524.19
480.78	14937.88
480.99	14819.10
481.20	15025.95
481.41	15085.34
481.61	15071.00
481.82	15421.20
482.03	15372.05
482.23	15130.39
482.44	15507.22
482.65	15681.30
482.85	15832.85
483.06	15726.35
483.27	15662.86
483.47	15892.24
483.68	15873.81
483.89	16088.84
484.09	15933.20
484.30	16379.65
484.51	16461.57
484.71	16533.25
484.92	16492.29
485.13	16584.45
485.33	16580.36
485.54	16639.75
485.75	16936.70
485.95	17004.28
486.16	17239.80
486.37	17202.94
486.57	17252.09
486.78	17161.98
486.98	17362.68
487.19	17600.24
487.40	17581.81
487.60	17880.82
487.81	17606.39
488.02	17610.48
488.22	17751.79
488.43	17956.59
488.64	18161.39
488.84	18145.00
489.05	18151.15
489.25	18200.30
489.46	18554.60
489.67	18427.62
489.87	18736.87
490.08	18544.36
490.29	18671.33
490.49	19175.13
490.70	18880.22
490.90	18951.90
491.11	19185.37
491.32	19175.13
491.52	19275.48
491.73	19379.93
491.94	19480.28
492.14	19171.04
492.35	19846.87
492.55	19760.85
492.76	19969.74
492.97	19961.55
493.17	19996.37
493.38	20045.52
493.58	20201.16
493.79	20457.16
494.00	20182.73
494.20	20385.48
494.41	20467.40
494.61	20846.27
494.82	20788.93
495.02	20524.74
495.23	20780.74
495.44	20858.56
495.64	21227.20
495.85	21104.32
496.05	21159.61
496.26	21196.48
496.47	21589.69
496.67	21300.92
496.88	21753.52
497.08	21632.69
497.29	21696.18
497.49	21608.12
497.70	21618.36
497.91	21958.32
498.11	22083.25
498.32	22187.69
498.52	22216.36
498.73	22320.81
498.93	22439.59
499.14	22458.03
499.34	22474.41
499.55	22417.07
499.76	22384.30
499.96	22916.77
500.17	22820.52
500.37	22841.00
500.58	22912.67
500.78	22754.98
500.99	23178.91
501.19	23482.01
501.40	23053.98
501.60	23250.59
501.81	23436.95
502.02	23760.53
502.22	23506.59
502.43	23844.50
502.63	23723.67
502.84	23967.38
503.04	23975.57
503.25	23807.64
503.45	24030.87
503.66	24043.15
503.86	24290.96
504.07	24387.21
504.27	24084.11
504.48	25005.70
504.68	24176.27
504.89	24757.89
505.09	24727.17
505.30	24864.39
505.50	24727.17
505.71	24592.01
505.91	25192.06
506.12	24659.59
506.32	25171.58
506.53	25028.23
506.73	25116.29
506.94	25411.20
507.14	25329.28
507.35	25484.92
507.55	25620.09
507.76	25765.49
507.96	25486.97
508.17	25742.97
508.37	25923.19
508.58	25650.81
508.78	25904.76
508.99	26117.75
509.19	25775.73
509.40	26070.64
509.60	26238.58
509.81	26343.02
510.01	26330.73
510.22	26267.25
510.42	26050.16
510.63	26367.60
510.83	26214.00
511.04	26381.93
511.24	26918.50
511.44	26732.14
511.65	26918.50
511.85	26734.18
512.06	26820.20
512.26	27291.23
512.47	27145.83
512.67	27115.11
512.88	27242.08
513.08	26992.23
513.29	27147.87
513.49	27534.94
513.69	27457.12
513.90	27602.52
514.10	27512.41
514.31	27356.77
514.51	27784.79
514.72	27752.02
514.92	27731.54
515.13	28028.50
515.33	27772.50
515.53	28188.24
515.74	28229.20
515.94	28010.07
516.15	27962.97
516.35	27889.24
516.56	28538.44
516.76	28227.15
516.96	28225.11
517.17	28708.43
517.37	28773.96
517.58	28569.16
517.78	28737.10
517.99	28802.63
518.19	28941.89
518.39	28724.81
518.60	29064.77
518.80	28986.95
519.01	29371.97
519.21	29126.21
519.41	29306.43
519.62	29288.00
519.82	29511.23
520.03	29130.31
520.23	29513.28
520.43	29611.58
520.64	29924.92
520.84	29955.64
521.05	29687.36
521.25	30041.65
521.45	29967.93
521.66	29941.30
521.86	29824.57
522.07	30232.11
522.27	30305.84
522.47	29980.21
522.68	30512.69
522.88	30610.99
523.08	30686.76
523.29	30615.08
523.49	30971.43
523.70	30795.31
523.90	30721.58
524.10	30735.92
524.31	31135.27
524.51	31036.97
524.71	31682.08
524.92	31254.05
525.12	31387.17
525.33	31495.71
525.53	31637.02
525.73	31843.87
525.94	31389.22
526.14	31714.84
526.34	31821.34
526.55	32044.57
526.75	31897.11
526.95	32110.10
527.16	32482.83
527.36	32230.93
527.56	32181.78
527.77	32413.20
527.97	32706.06
528.17	32800.27
528.38	32787.98
528.58	32521.74
528.78	33027.59
528.99	32962.06
529.19	33173.00
529.39	33091.08
529.60	33211.91
529.80	33498.62
530.00	32966.15
530.21	33601.02
530.41	33449.47
530.61	33580.54
530.82	33746.43
531.02	33396.23
531.22	34076.15
531.43	33680.89
531.63	34330.10
531.83	34340.34
532.04	34430.45
532.24	34166.26
532.44	34575.86
532.64	34647.54
532.85	34647.54
533.05	34698.73
533.25	34835.95
533.46	35022.31
533.66	35593.70
533.86	34924.01
534.07	35456.48
534.27	35063.27
534.47	35401.19
534.67	35341.80
534.88	35374.56
535.08	35216.87
535.28	35735.01
535.49	35757.53
535.69	35675.62
535.89	36130.26
536.09	36398.55
536.30	36318.68
536.50	36359.64
536.70	36025.82
536.91	36247.00
537.11	36089.31
537.31	36597.20
537.51	36503.00
537.72	37074.38
537.92	37094.86
538.12	37199.30
538.32	36840.91
538.53	37496.26
538.73	37060.04
538.93	37238.22
539.13	37465.54
539.34	37184.97
539.54	37139.91
539.74	37623.23
539.94	37336.52
540.15	37588.42
540.35	37752.26
540.55	37455.30
540.75	37653.95
540.96	37830.08
541.16	37922.24
541.36	37778.88
541.56	37998.01
541.77	38292.92
541.97	38032.83
542.17	38360.50
542.37	38194.62
542.58	38264.25
542.78	38213.05
542.98	38151.61
543.18	38794.67
543.38	38737.33
543.59	38532.53
543.79	38331.83
543.99	38673.84
544.19	38761.90
544.40	38876.59
544.60	39321.00
544.80	39153.07
545.00	39032.24
545.20	39153.07
545.41	39249.32
545.61	39110.06
545.81	39269.80
546.01	39335.34
546.21	39148.97
546.42	39087.53
546.62	39513.51
546.82	39343.53
547.02	39390.63
547.22	39689.63
547.43	39292.33
547.63	39699.87
547.83	40007.07
548.03	39538.08
548.23	39812.51
548.44	39441.83
548.64	39765.41
548.84	39685.54
549.04	39966.11
549.24	40099.23
549.45	40707.47
549.65	40463.77
549.85	39919.01
550.05	40232.35
550.25	39667.11
550.45	40760.72
550.66	40148.38
550.86	40377.75
551.06	40406.42
551.26	40355.22
551.46	40334.74
551.66	40471.96
551.87	40310.17
552.07	40527.25
552.27	40578.45
552.47	40785.30
552.67	41184.65
552.87	40795.54
553.07	40519.06
553.28	41043.34
553.48	41135.50
553.68	40635.80
553.88	41229.71
554.08	40940.94
554.28	40959.38
554.48	40461.72
554.69	40912.27
554.89	41078.16
555.09	41135.50
555.29	40990.09
555.49	41174.41
555.69	41209.23
555.89	41252.23
556.10	41688.45
556.30	41311.63
556.50	41041.29
556.70	41145.74
556.90	41153.93
557.10	41887.10
557.30	41481.61
557.50	41727.36
557.70	41411.98
557.91	41600.39
558.11	41485.70
558.31	42132.86
558.51	41891.20
558.71	41608.58
558.91	41944.45
559.11	41678.21
559.31	41993.60
559.51	41733.51
559.72	41903.49
559.92	42022.27
560.12	41659.78
560.32	42165.63
560.52	41835.91
560.72	42491.26
560.92	42227.07
561.12	42247.55
561.32	42655.09
561.52	41911.68
561.72	42472.82
561.93	42147.20
562.13	42399.10
562.33	42143.10
562.53	42616.18
562.73	42261.88
562.93	42444.15
563.13	42440.06
563.33	42198.40
563.53	42755.44
563.73	42087.81
563.93	42452.34
564.13	43261.29
564.33	42669.43
564.53	42038.65
564.74	42919.28
564.94	42667.38
565.14	42632.57
565.34	42628.47
565.54	42837.36
565.74	42509.69
565.94	42780.02
566.14	42993.01
566.34	42614.13
566.54	42802.55
566.74	42900.85
566.94	43236.72
567.14	43119.98
567.34	42851.70
567.54	43375.98
567.74	43242.86
567.94	42925.42
568.14	42929.52
568.34	43132.27
568.54	43021.68
568.74	43505.00
568.94	43431.27
569.14	43971.94
569.34	43406.70
569.54	43390.31
569.75	43021.68
569.95	43210.09
570.15	43883.87
570.35	43924.83
570.55	43461.99
570.75	43879.78
570.95	44107.10
571.15	44148.06
571.35	43586.92
571.55	43625.83
571.75	43844.96
571.95	43638.12
572.15	44082.53
572.35	43857.25
572.55	43724.13
572.75	44107.10
572.95	44033.38
573.15	43926.88
573.35	44027.23
573.55	43810.15
573.75	44002.66
573.95	44191.07
574.15	44119.39
574.35	44459.35
574.55	44193.12
574.75	44023.14
574.95	44481.88
575.15	44801.36
575.34	44418.39
575.54	44492.12
575.74	44754.26
575.94	44981.59
576.14	44586.33
576.34	44914.00
576.54	45151.57
576.74	44821.84
576.94	44801.36
577.14	45251.92
577.34	45256.01
577.54	44840.28
577.74	45118.80
577.94	45057.36
578.14	45292.88
578.34	45335.88
578.54	44694.87
578.74	45294.92
578.94	45581.64
579.14	45454.67
579.34	45251.92
579.54	45694.28
579.74	45999.43
579.94	45507.91
580.13	46277.95
580.33	45632.84
580.53	46017.86
580.73	46050.63
580.93	45831.49
581.13	46073.15
581.33	46073.15
581.53	46038.34
581.73	46622.01
581.93	46429.50
582.13	46136.64
582.33	46286.14
582.53	46271.81
582.73	46529.85
582.92	46507.32
583.12	46746.93
583.32	46523.71
583.52	46751.03
583.72	46982.45
583.92	46896.44
584.12	47410.48
584.32	47058.23
584.52	46949.68
584.72	47183.15
584.92	46896.44
585.11	47631.66
585.31	47332.65
585.51	48094.50
585.71	47394.09
585.91	47519.02
586.11	47054.13
586.31	47377.71
586.51	47101.23
586.71	47658.28
586.91	47844.65
587.10	47983.91
587.30	47951.14
587.50	48084.26
587.70	48098.59
587.90	47996.20
588.10	48010.53
588.30	47738.15
588.50	48166.18
588.69	48522.52
588.89	48080.16
589.09	48696.60
589.29	48506.14
589.49	48493.85
589.69	48039.20
589.89	48481.56
590.08	48573.72
590.28	48776.47
590.48	48928.02
590.68	48676.12
590.88	48782.62
591.08	48432.41
591.28	48663.83
591.47	49382.67
591.67	49052.95
591.87	49573.13
592.07	49063.19
592.27	49224.98
592.47	49208.59
592.67	49706.25
592.86	49319.18
593.06	49145.11
593.26	50029.83
593.46	49419.53
593.66	49837.32
593.86	49837.32
594.05	49591.56
594.25	49986.82
594.45	49575.18
594.65	49714.44
594.85	49485.07
595.05	49906.95
595.24	49769.74
595.44	49972.49
595.64	50248.96
595.84	50091.27
596.04	50406.65
596.23	50631.93
596.43	50517.25
596.63	50410.75
596.83	50484.48
597.03	50810.10
597.22	50896.12
597.42	50801.91
597.62	50822.39
597.82	51162.36
598.02	51143.92
598.21	51035.38
598.41	50724.09
598.61	51182.84
598.81	51068.15
599.01	51502.32
599.20	51361.01
599.40	51584.24
599.60	51404.02
599.80	51598.57
600.00	51199.22
600.19	51492.08
600.39	51305.71
600.59	51770.60
600.79	51823.85
600.98	51725.55
601.18	52061.41
601.38	52280.55
601.58	52335.84
601.78	52255.97
601.97	52120.80
602.17	52524.25
602.37	52569.31
602.57	52028.65
602.76	52690.14
602.96	52483.30
603.16	52788.44
603.36	52268.26
603.55	52770.01
603.75	52331.75
603.95	52794.59
604.15	52583.65
604.34	52780.25
604.54	52966.62
604.74	52634.84
604.94	53216.47
605.13	53249.24
605.33	53327.06
605.53	53124.31
605.73	53834.95
605.92	53699.79
606.12	53368.02
606.32	54197.44
606.52	53363.92
606.71	53712.08
606.91	53972.17
607.11	53744.84
607.30	54193.35
607.50	53441.74
607.70	54080.71
607.90	53914.83
608.09	53812.43
608.29	53818.57
608.49	54373.57
608.68	54109.38
608.88	54523.07
609.08	54432.96
609.28	54277.32
609.47	54121.67
609.67	54555.84
609.87	54555.84
610.06	54961.34
610.26	54412.48
610.46	54965.43
610.66	54490.30
610.85	55116.98
611.05	54748.35
611.25	55127.22
611.44	54643.90
611.64	55055.54
611.84	54279.36
612.03	54660.29
612.23	55006.39
612.43	54955.19
612.62	54631.61
612.82	54916.28
613.02	54367.43
613.21	54936.76
613.41	54934.71
613.61	55217.33
613.80	54836.41
614.00	55389.36
614.20	55086.26
614.39	55387.31
614.59	55377.08
614.79	55317.68
614.98	55180.47
615.18	55405.75
615.38	55661.74
615.57	55301.30
615.77	55434.42
615.97	55743.66
616.16	55798.96
616.36	55362.74
616.56	55473.33
616.75	55612.59
616.95	55659.69
617.15	55088.31
617.34	55645.36
617.54	55573.68
617.74	56026.28
617.93	55706.80
618.13	54394.05
618.32	55973.03
618.52	55563.44
618.72	56112.30
618.91	55846.06
619.11	55192.76
619.31	55735.47
619.50	55491.76
619.70	55522.48
619.90	55397.55
620.09	55569.58
620.29	55776.43
620.48	55467.19
620.68	56077.48
620.88	55260.34
621.07	55721.13
621.27	55585.97
621.46	55215.29
621.66	55620.78
621.86	55731.37
622.05	55295.16
622.25	55930.03
622.44	55624.88
622.64	55514.29
622.84	55995.56
623.03	55551.15
623.23	55602.35
623.42	55575.73
623.62	55481.52
623.82	56075.43
624.01	55878.83
624.21	55696.56
624.40	55641.26
624.60	55368.88
624.80	55655.60
624.99	55608.50
625.19	55149.75
625.38	55768.24
625.58	55772.33
625.77	55837.87
625.97	55649.45
626.17	55631.02
626.36	55850.16
626.56	55844.01
626.75	55194.81
626.95	55782.57
627.14	55377.08
627.34	56292.52
627.54	55839.92
627.73	55452.85
627.93	55852.20
628.12	55751.85
628.32	55887.02
628.51	55694.51
628.71	55760.05
628.90	56317.09
629.10	55440.56
629.30	55829.68
629.49	55555.25
629.69	55583.92
629.88	56034.47
630.08	56009.90
630.27	56171.69
630.47	55782.57
630.66	55712.94
630.86	56226.98
631.05	55545.01
631.25	56374.44
631.44	55975.08
631.64	56003.75
631.84	55583.92
632.03	56304.80
632.23	55792.81
632.42	56444.07
632.62	56124.58
632.81	55809.20
633.01	55860.40
633.20	55973.03
633.40	56079.53
633.59	55827.63
633.79	55370.93
633.98	56079.53
634.18	56016.04
634.37	55827.63
634.57	56108.20
634.76	56452.26
634.96	56376.48
635.15	56243.37
635.35	56087.72
635.54	56153.26
635.74	56149.16
635.93	55887.02
636.13	56464.55
636.32	56358.05
636.52	56177.83
636.71	56054.95
636.91	56138.92
637.10	56358.05
637.30	56464.55
637.49	56241.32
637.69	55946.41
637.88	56468.64
638.08	56222.89
638.27	56259.75
638.46	55987.37
638.66	56016.04
638.85	55940.27
639.05	56100.01
639.24	55999.66
639.44	55721.13
639.63	56362.15
639.83	56456.35
640.02	56245.41
640.22	56132.78
640.41	56726.69
640.61	55790.76
640.80	56444.07
640.99	55989.42
641.19	56894.62
641.38	56482.98
641.58	56677.54
641.77	55901.36
641.97	56136.87
642.16	56145.06
642.36	56497.31
642.55	56718.49
642.74	56046.76
642.94	56751.26
643.13	55993.51
643.33	56599.71
643.52	56685.73
643.72	56251.56
643.91	56419.49
644.10	56722.59
644.30	56493.22
644.49	56722.59
644.69	56698.01
644.88	56763.55
645.08	56487.07
645.27	56579.23
645.46	56022.19
645.66	56126.63
645.85	56612.00
646.05	56763.55
646.24	56325.28
646.43	56308.90
646.63	56444.07
646.82	56362.15
647.02	56599.71
647.21	56773.79
647.40	56151.21
647.60	56992.92
647.79	56384.68
647.99	57050.27
648.18	56415.40
648.37	57023.64
648.57	56865.95
648.76	56861.85
648.96	56521.89
649.15	56882.33
649.34	56861.85
649.54	56999.07
649.73	56075.43
649.92	56501.41
650.12	56542.37
650.31	57248.92
650.51	57304.21
650.70	56781.98
650.89	56480.93
651.09	57177.24
651.28	57083.03
651.47	56882.33
651.67	56849.56
651.86	57095.32
652.06	56300.71
652.25	57220.25
652.44	56992.92
652.64	56628.38
652.83	56868.00
653.02	56761.50
653.22	56513.70
653.41	56589.47
653.60	56487.07
653.80	56378.53
653.99	56927.39
654.18	56341.67
654.38	56315.04
654.57	57263.25
654.76	56659.10
654.96	56487.07
655.15	56147.11
655.34	56751.26
655.54	56468.64
655.73	56751.26
655.92	56691.87
656.12	56755.36
656.31	56544.42
656.50	56521.89
656.70	57033.88
656.89	56415.40
657.08	56536.23
657.28	56745.12
657.47	56577.18
657.66	56845.47
657.86	56411.30
658.05	56683.68
658.24	56552.61
658.43	56743.07
658.63	56325.28
658.82	56781.98
659.01	56577.18
659.21	57087.13
659.40	56755.36
659.59	56341.67
659.79	56675.49
659.98	56702.11
660.17	56732.83
660.36	56378.53
660.56	56532.13
660.75	56992.92
660.94	56523.94
661.14	56605.86
661.33	56247.46
661.52	56456.35
661.71	57040.03
661.91	55989.42
662.10	56661.15
662.29	56937.63
662.49	56818.84
662.68	56517.79
662.87	56693.92
663.06	56540.32
663.26	56212.65
663.45	57017.50
663.64	56585.38
663.83	56712.35
664.03	57021.59
664.22	56444.07
664.41	56603.81
664.60	56038.57
664.80	56173.73
664.99	56327.33
665.18	56329.38
665.37	56093.86
665.57	56550.56
665.76	56054.95
665.95	56554.66
666.14	56411.30
666.34	56462.50
666.53	56079.53
666.72	56054.95
666.91	55858.35
667.11	56104.10
667.30	56450.21
667.49	56059.05
667.68	56198.31
667.87	56206.50
668.07	56153.26
668.26	56507.55
668.45	56104.10
668.64	55977.13
668.84	56671.39
669.03	56165.54
669.22	56257.70
669.41	56009.90
669.60	55790.76
669.80	56046.76
669.99	57005.21
670.18	56018.09
670.37	56239.27
670.57	56054.95
670.76	56163.50
670.95	56177.83
671.14	56564.90
671.33	55719.09
671.53	56331.43
671.72	55934.12
671.91	55944.36
672.10	56190.12
672.29	56263.85
672.48	55940.27
672.68	55915.69
672.87	56110.25
673.06	55637.17
673.25	55745.71
673.44	55475.38
673.64	55530.67
673.83	55499.95
674.02	55528.62
674.21	55350.45
674.40	55964.84
674.59	55932.07
674.79	55692.46
674.98	55674.03
675.17	55909.55
675.36	55657.65
675.55	55516.34
675.74	55631.02
675.94	55458.99
676.13	55743.66
676.32	55571.63
676.51	55919.79
676.70	56003.75
676.89	55833.77
677.08	55829.68
677.28	55366.84
677.47	55411.89
677.66	55950.51
677.85	55413.94
678.04	55325.88
678.23	55639.22
678.42	55450.80
678.62	55524.53
678.81	55661.74
679.00	55418.03
679.19	55977.13
679.38	55282.87
679.57	55368.88
679.76	55317.68
679.96	55747.76
680.15	55348.40
680.34	55268.53
680.53	55307.44
680.72	55502.00
680.91	55342.26
681.10	55690.41
681.29	55084.22
681.48	54983.86
681.68	54903.99
681.87	55209.14
682.06	55235.77
682.25	54664.38
682.44	54899.90
682.63	55030.97
682.82	54533.31
683.01	54717.63
683.20	54621.37
683.39	54891.71
683.59	54492.35
683.78	54592.70
683.97	54899.90
684.16	54615.23
684.35	54516.93
684.54	54613.18
684.73	54111.43
684.92	54127.81
685.11	54615.23
685.30	54283.46
685.49	54648.00
685.69	54371.52
685.88	54615.23
686.07	54572.22
686.26	54043.85
686.45	54404.29
686.64	54602.94
686.83	54226.12
687.02	54375.62
687.21	54015.18
687.40	54478.02
687.59	54322.37
687.78	53961.93
687.97	54604.99
688.16	54199.49
688.35	54244.55
688.54	53966.02
688.74	54101.19
688.93	53998.79
689.12	53851.34
689.31	54394.05
689.50	54303.94
689.69	54037.70
689.88	53304.53
690.07	54078.66
690.26	53949.64
690.45	54090.95
690.64	54170.82
690.83	54117.57
691.02	54121.67
691.21	53748.94
691.40	53662.93
691.59	53929.16
691.78	53671.12
691.97	53984.46
692.16	53476.56
692.35	54011.08
692.54	54140.10
692.73	53433.55
692.92	53753.04
693.11	53472.46
693.30	53820.62
693.49	53898.44
693.68	53480.66
693.87	53417.17
694.06	53576.91
694.25	53064.92
694.44	53597.39
694.63	53847.24
694.82	53466.32
695.01	53105.88
695.20	53335.25
695.39	53195.99
695.58	53460.18
695.77	52944.09
695.96	53056.73
696.15	53056.73
696.34	52983.00
696.53	53150.93
696.72	53298.39
696.91	53079.25
697.10	53144.79
697.29	52880.60
697.48	53386.45
697.67	52665.56
697.86	52575.45
698.05	53007.58
698.24	53320.91
698.43	52667.61
698.62	52956.38
698.81	52767.96
699.00	53175.51
699.19	52620.51
699.38	52892.89
699.57	52393.18
699.76	53253.33
699.95	52389.09
700.14	52425.95
700.32	52509.92
700.51	52540.64
700.70	52853.98
700.89	52626.65
701.08	52790.49
701.27	52903.13
701.46	52622.56
701.65	51967.21
701.84	52569.31
702.03	52485.34
702.22	52153.57
702.41	52206.82
702.60	52198.63
702.79	52184.29
702.98	52217.06
703.17	52137.19
703.35	52311.27
703.54	52376.80
703.73	52348.13
703.92	52546.78
704.11	52012.26
704.30	51856.62
704.49	51885.29
704.68	52088.04
704.87	51946.73
705.06	51471.60
705.25	52067.56
705.43	51995.88
705.62	51821.80
705.81	52012.26
706.00	51729.64
706.19	51565.81
706.38	51752.17
706.57	51645.68
706.76	51625.20
706.95	51852.52
707.14	51397.87
707.32	51502.32
707.51	51361.01
707.70	51471.60
707.89	51582.19
708.08	51545.33
708.27	51621.10
708.46	51842.28
708.65	51260.66
708.84	51490.03
709.02	51612.91
709.21	51242.23
709.40	51328.24
709.59	51332.34
709.78	51193.07
709.97	51430.64
710.16	51494.13
710.34	51279.09
710.53	51135.73
710.72	51043.57
710.91	51387.63
711.10	51588.33
711.29	51524.85
711.48	51229.94
711.66	50754.81
711.85	50871.54
712.04	50955.51
712.23	50595.07
712.42	50865.40
712.61	51019.00
712.80	50939.13
712.98	50947.32
713.17	50832.63
713.36	50771.19
713.55	50535.68
713.74	50660.60
713.93	50803.96
714.11	50902.26
714.30	50517.25
714.49	50748.67
714.68	50953.46
714.87	50578.68
715.06	50951.41
715.24	50873.59
715.43	50590.97
715.62	50361.60
715.81	50453.76
716.00	50912.50
716.18	50267.39
716.37	50361.60
716.56	50027.78
716.75	50558.20
716.94	50107.65
717.12	50083.08
717.31	50715.90
717.50	50320.64
717.69	50115.84
717.88	50181.38
718.06	50253.06
718.25	50418.94
718.44	49958.15
718.63	49968.39
718.82	50029.83
719.00	50199.81
719.19	49818.89
719.38	49923.33
719.57	49505.55
719.76	49616.14
719.94	48837.91
720.13	49349.90
720.32	49689.87
720.51	49384.72
720.69	49317.14
720.88	49730.83
721.07	49399.05
721.26	48905.49
721.44	48854.29
721.63	48801.05
721.82	48745.75
722.01	49091.86
722.20	49083.67
722.38	48588.06
722.57	48782.62
722.76	48788.76
722.95	48932.12
723.13	48821.53
723.32	48438.56
723.51	48399.65
723.70	48248.10
723.88	48723.22
724.07	48155.94
724.26	48502.04
724.44	48018.72
724.63	48674.07
724.82	48489.76
725.01	48399.65
725.19	48088.35
725.38	48024.87
725.57	48526.62
725.76	48561.44
725.94	48350.49
726.13	48184.61
726.32	47600.94
726.51	48268.58
726.69	48659.74
726.88	48426.27
727.07	48391.45
727.25	48186.66
727.44	48301.34
727.63	48096.55
727.82	48031.01
728.00	48106.79
728.19	47977.76
728.38	48370.97
728.56	47732.01
728.75	48452.89
728.94	47693.10
729.12	48096.55
729.31	48348.45
729.50	47879.46
729.69	48096.55
729.87	48444.70
730.06	48332.06
730.25	47838.50
730.43	48125.22
730.62	47914.28
730.81	48426.27
730.99	48250.14
731.18	48049.44
731.37	48153.89
731.55	48364.83
731.74	48178.46
731.93	48207.14
732.11	48018.72
732.30	47981.86
732.49	47787.30
732.67	47975.72
732.86	48172.32
733.05	47998.24
733.23	47410.48
733.42	48145.70
733.61	47990.05
733.79	48018.72
733.98	48411.93
734.17	47777.06
734.35	47897.89
734.54	47856.93
734.73	48035.11
734.91	48125.22
735.10	47471.92
735.29	48246.05
735.47	47494.44
735.66	47736.10
735.84	48098.59
736.03	47848.74
736.22	48395.55
736.40	47799.59
736.59	47840.55
736.78	47656.23
736.96	47265.07
737.15	47762.73
737.33	47568.17
737.52	47850.79
737.71	47752.49
737.89	47336.75
738.08	47363.37
738.27	47908.13
738.45	48125.22
738.64	47572.27
738.82	47691.05
739.01	47185.20
739.20	47340.85
739.38	47600.94
739.57	48047.39
739.75	47633.71
739.94	47437.10
740.13	47664.42
740.31	47236.40
740.50	47684.90
740.68	47410.48
740.87	47639.85
741.06	47463.72
741.24	47318.32
741.43	47025.46
741.61	47564.07
741.80	47297.84
741.99	47236.40
742.17	47324.46
742.36	47500.59
742.54	47568.17
742.73	47400.24
742.91	47586.60
743.10	47162.67
743.29	47256.88
743.47	46898.48
743.66	47398.19
743.84	46949.68
744.03	47072.56
744.21	47144.24
744.40	47383.85
744.59	46769.46
744.77	47203.63
744.96	46941.49
745.14	47269.17
745.33	47154.48
745.51	46816.57
745.70	47316.27
745.88	46699.83
746.07	46789.94
746.26	46738.74
746.44	46605.62
746.63	46501.18
746.81	46855.48
747.00	46468.41
747.18	46449.98
747.37	46916.92
747.55	46796.09
747.74	46734.65
747.92	46247.23
748.11	46535.99
748.29	46347.58
748.48	46568.76
748.66	46318.91
748.85	46228.80
749.03	46658.87
749.22	46409.02
749.41	46105.92
749.59	46671.16
749.78	46128.45
749.96	45847.88
750.15	46236.99
750.33	46136.64
750.52	46382.40
750.70	46691.64
750.89	46054.72
751.07	46101.82
751.26	46296.38
751.44	46341.44
751.63	46540.09
751.81	45929.80
752.00	45882.69
752.18	46318.91
752.37	46269.76
752.55	45704.52
752.74	45475.15
752.92	45565.26
753.10	45540.68
753.29	45892.93
753.47	45669.70
753.66	45669.70
753.84	45886.79
754.03	45524.30
754.21	45333.84
754.40	45872.45
754.58	45706.57
754.77	45735.24
754.95	45503.82
755.14	45313.36
755.32	45706.57
755.51	45172.05
755.69	45364.56
755.88	45667.66
756.06	45401.42
756.24	44981.59
756.43	45053.26
756.61	45325.64
756.80	45098.32
756.98	45139.28
757.17	45061.46
757.35	45170.00
757.54	45045.07
757.72	45606.22
757.90	45139.28
758.09	44877.14
758.27	44672.34
758.46	45022.54
758.64	44528.98
758.83	45249.87
759.01	45309.26
759.19	44586.33
759.38	45083.98
759.56	44881.24
759.75	44801.36
759.93	45063.50
760.12	44197.21
760.30	44107.10
760.48	44768.60
760.67	44332.38
760.85	44762.45
761.04	44815.70
761.22	44924.24
761.40	44565.85
761.59	44346.72
761.77	44207.45
761.96	44268.89
762.14	44395.87
762.32	44047.71
762.51	44090.72
762.69	44219.74
762.88	44176.73
763.06	43756.90
763.24	44213.60
763.43	43840.87
763.61	43863.39
763.80	43810.15
763.98	43828.58
764.16	44307.80
764.35	43754.85
764.53	43289.96
764.72	43656.55
764.90	43967.84
765.08	43717.99
765.27	43611.49
765.45	43394.41
765.63	43079.02
765.82	43593.06
766.00	43246.96
766.18	43566.44
766.37	43969.89
766.55	43455.85
766.74	43761.00
766.92	43154.80
767.10	43146.61
767.29	43328.87
767.47	42939.76
767.65	43242.86
767.84	42804.59
768.02	43316.59
768.20	42886.51
768.39	42997.10
768.57	43113.84
768.75	43099.50
768.94	43251.05
769.12	42892.66
769.30	42937.71
769.49	43181.42
769.67	42741.11
769.85	42300.79
770.04	42261.88
770.22	42286.46
770.40	42151.29
770.59	42177.92
770.77	42669.43
770.95	42177.92
771.14	42233.21
771.32	42319.23
771.50	41774.47
771.69	41993.60
771.87	42397.05
772.05	41858.43
772.24	41670.02
772.42	42306.94
772.60	42063.23
772.78	41860.48
772.97	41815.43
773.15	42173.82
773.33	41977.22
773.52	41532.81
773.70	41801.09
773.88	42337.66
774.07	41522.57
774.25	41653.64
774.43	41833.86
774.61	41702.79
774.80	42075.52
774.98	41883.01
775.16	42012.03
775.34	41837.95
775.53	41592.20
775.71	42102.14
775.89	41985.41
776.08	41747.84
776.26	42110.33
776.44	41989.50
776.62	41821.57
776.81	41725.32
776.99	41758.08
777.17	41756.03
777.35	42192.25
777.54	42423.67
777.72	41905.54
777.90	41856.39
778.08	42253.69
778.27	41975.17
778.45	42298.75
778.63	42470.78
778.81	41784.71
779.00	42808.69
779.18	42259.84
779.36	42517.88
779.54	42454.39
779.73	42476.92
779.91	42530.17
780.09	42358.14
780.27	42370.43
780.46	42499.45
780.64	42737.01
780.82	42370.43
781.00	42442.10
781.19	42620.28
781.37	42732.92
781.55	42646.90
781.73	43158.89
781.91	43107.69
782.10	42349.95
782.28	42771.83
782.46	42786.16
782.64	42857.84
782.82	42530.17
783.01	42384.76
783.19	42941.81
783.37	43103.60
783.55	42972.53
783.74	43246.96
783.92	42923.38
784.10	43036.02
784.28	43122.03
784.46	42624.37
784.64	42646.90
784.83	42890.61
785.01	43193.71
785.19	42718.58
785.37	42984.82
785.55	42689.91
785.74	42581.37
785.92	42685.81
786.10	42712.44
786.28	42634.61
786.46	42362.23
786.64	42339.71
786.83	42493.30
787.01	42442.10
787.19	42671.48
787.37	42392.95
787.55	42239.36
787.74	42573.17
787.92	42528.12
788.10	42438.01
788.28	41764.23
788.46	42274.17
788.64	42081.66
788.82	42374.52
789.01	41934.21
789.19	42317.18
789.37	41891.20
789.55	42089.85
789.73	41901.44
789.91	41497.99
790.09	41616.77
790.28	42014.08
790.46	41235.85
790.64	41598.34
790.82	41368.97
791.00	41516.42
791.18	41239.95
791.36	41219.47
791.55	41278.86
791.73	41131.40
791.91	40955.28
792.09	40791.44
792.27	40844.69
792.45	40781.20
792.63	41059.73
792.81	40664.47
793.00	40484.25
793.18	40195.48
793.36	40512.92
793.54	40074.65
793.72	40101.28
793.90	40496.53
794.08	40252.83
794.26	40027.55
794.44	39646.63
794.62	39910.82
794.81	39869.86
794.99	39724.45
795.17	39695.78
795.35	39677.35
795.53	39695.78
795.71	39847.33
795.89	39288.23
796.07	38978.99
796.25	38956.46
796.43	39089.58
796.61	38639.03
796.80	38438.33
796.98	38874.54
797.16	38671.79
797.34	38544.82
797.52	38634.93
797.70	38821.30
797.88	38593.97
798.06	38135.23
798.24	38362.55
798.42	38376.89
798.60	38385.08
798.78	37957.05
798.96	38280.63
799.14	37713.34
799.32	38151.61
799.51	37811.65
799.69	37746.11
799.87	37660.10
800.05	37414.34
800.23	37469.64
800.41	37582.27
800.59	37137.87
800.77	37017.04
800.95	36847.05
801.13	37373.38
801.31	36705.74
801.49	36806.09
801.67	36675.02
801.85	36752.85
802.03	36720.08
802.21	36482.52
802.39	36261.33
802.57	36083.16
802.75	35968.48
802.93	35907.04
803.11	36099.55
803.29	35812.83
803.47	35587.55
803.65	35796.45
803.83	35833.31
804.01	35548.64
804.19	35270.12
804.37	35479.01
804.55	35491.30
804.73	35372.52
804.91	35296.74
805.09	35423.72
805.27	35225.06
805.45	35182.06
805.63	35491.30
805.81	35395.04
805.99	35294.69
806.17	35196.39
806.35	34782.70
806.53	34903.53
806.71	34516.47
806.89	34743.79
807.07	34674.16
807.25	34483.70
807.43	34332.15
807.61	34811.37
807.79	34313.72
807.97	34100.73
808.15	33902.07
808.33	33480.19
808.51	33908.22
808.69	33791.48
808.87	33854.97
809.05	33859.07
809.23	33248.77
809.41	33641.98
809.59	33254.92
809.77	33603.07
809.95	33041.93
810.13	33508.86
810.31	32943.63
810.49	33154.57
810.67	33263.11
810.84	32900.62
811.02	33142.28
811.20	32755.21
811.38	32964.10
811.56	32640.53
811.74	32693.77
811.92	32394.77
812.10	32386.58
812.28	32697.87
812.46	32656.91
812.64	32501.26
812.82	32333.33
813.00	32241.17
813.18	32175.64
813.36	31913.50
813.53	31870.49
813.71	31825.43
813.89	31677.98
814.07	32017.94
814.25	31757.85
814.43	31499.81
814.61	31540.77
814.79	31694.36
814.97	31436.32
815.15	31675.93
815.33	31184.42
815.50	31180.32
815.68	31282.72
815.86	31428.13
816.04	31043.11
816.22	30840.36
816.40	31217.19
816.58	31188.52
816.76	30799.40
816.94	30862.89
817.11	31030.82
817.29	30672.43
817.47	30416.43
817.65	30789.16
817.83	30717.48
818.01	30594.61
818.19	30336.56
818.37	30537.26
818.54	30258.74
818.72	30228.02
818.90	30266.93
819.08	29840.95
819.26	29916.73
819.44	30131.76
819.62	29812.28
819.80	30060.09
819.97	29969.97
820.15	30367.28
820.33	29998.65
820.51	30045.75
820.69	29595.20
820.87	29636.16
821.05	30055.99
821.22	29576.76
821.40	29726.27
821.58	29652.54
821.76	29357.63
821.94	29328.96
822.12	29478.46
822.29	29654.59
822.47	29322.82
822.65	29433.41
822.83	29349.44
823.01	29580.86
823.19	29066.82
823.36	28855.88
823.54	28724.81
823.72	28788.30
823.90	28952.13
824.08	28601.93
824.25	28800.58
824.43	28653.13
824.61	28460.62
824.79	28913.22
824.97	28540.49
825.15	28421.71
825.32	28722.76
825.50	28397.13
825.68	28411.47
825.86	28395.09
826.04	28204.63
826.21	28063.32
826.39	28296.78
826.57	28350.03
826.75	28335.70
826.93	27799.13
827.10	28073.56
827.28	27967.06
827.46	28298.83
827.64	27668.06
827.81	27795.03
827.99	27709.02
828.17	27911.77
828.35	27709.02
828.53	27260.51
828.70	27653.72
828.88	27737.69
829.06	27686.49
829.24	27723.35
829.41	27082.34
829.59	27461.21
829.77	27430.49
829.95	27514.46
830.12	27334.24
830.30	27240.03
830.48	27352.67
830.66	27346.53
830.84	27117.15
831.01	27158.11
831.19	26990.18
831.37	26981.99
831.55	27182.69
831.72	27270.75
831.90	27192.93
832.08	27168.35
832.25	26627.69
832.43	26687.08
832.61	26547.82
832.79	26414.70
832.96	26828.39
833.14	26592.87
833.32	26615.40
833.50	26725.99
833.67	26723.94
833.85	26472.04
834.03	26420.84
834.20	26488.43
834.38	26353.26
834.56	26500.72
834.74	25988.72
834.91	26265.20
835.09	26320.49
835.27	26009.20
835.44	26117.75
835.62	25878.13
835.80	25851.51
835.98	25755.26
836.15	25695.86
836.33	26060.40
836.51	25902.71
836.68	25513.59
836.86	25886.32
837.04	25896.56
837.21	25988.72
837.39	25970.29
837.57	26005.11
837.75	25851.51
837.92	25536.12
838.10	25656.95
838.28	25226.88
838.45	25159.30
838.63	25271.93
838.81	25357.95
838.98	25308.80
839.16	25263.74
839.34	25380.48
839.51	25083.52
839.69	24788.61
839.87	24950.40
840.04	25312.89
840.22	24784.52
840.40	24938.12
840.57	24897.16
840.75	24882.82
840.93	24854.15
841.10	25177.73
841.28	25151.10
841.46	24993.41
841.63	24909.44
841.81	24784.52
841.98	24893.06
842.16	24927.88
842.34	24770.18
842.51	24667.78
842.69	24909.44
842.87	24495.75
843.04	24491.66
843.22	24419.98
843.40	24381.07
843.57	24569.48
843.75	24391.31
843.92	24415.88
844.10	24503.95
844.28	24565.39
844.45	24272.53
844.63	24221.33
844.81	24227.47
844.98	24530.57
845.16	24346.25
845.33	24086.16
845.51	24118.93
845.69	24202.89
845.86	24151.70
846.04	23879.32
846.21	23912.08
846.39	23662.23
846.57	23420.57
846.74	23733.91
846.92	23817.88
847.09	23750.29
847.27	23457.43
847.45	23703.19
847.62	23807.64
847.80	23654.04
847.97	23883.41
848.15	23563.93
848.32	23291.55
848.50	23426.71
848.68	23328.41
848.85	23467.67
849.03	23031.46
849.20	23506.59
849.38	23099.04
849.56	23283.36
849.73	23240.35
849.91	23180.96
850.08	23285.40
850.26	22886.05
850.43	23172.77
850.61	23201.44
850.78	22894.24
850.96	23217.82
851.14	22812.32
851.31	22982.31
851.49	22736.55
851.66	22998.69
851.84	22660.77
852.01	22730.41
852.19	22980.26
852.36	22869.67
852.54	22963.87
852.71	22703.78
852.89	22693.54
853.07	22685.35
853.24	22826.66
853.42	22711.97
853.59	22711.97
853.77	22705.83
853.94	22374.06
854.12	22359.72
854.29	22453.93
854.47	22820.52
854.64	22386.35
854.82	22079.15
854.99	22167.21
855.17	22210.22
855.34	21952.18
855.52	22253.23
855.69	22195.89
855.87	22238.89
856.04	21931.70
856.22	22134.45
856.39	21753.52
856.57	22193.84
856.74	22068.91
856.92	21878.45
857.09	21814.96
857.27	21786.29
857.44	21698.23
857.62	21792.44
857.79	21753.52
857.97	21849.78
858.14	21821.11
858.32	21751.48
858.49	21798.58
858.67	21622.45
858.84	21655.22
859.02	21507.77
859.19	21259.96
859.37	21499.58
859.54	21337.79
859.72	21391.03
859.89	21225.15
860.06	21550.78
860.24	21388.99
860.41	21505.72
860.59	21081.79
860.76	21479.10
860.94	20920.00
861.11	21411.51
861.29	21071.55
861.46	21073.60
861.64	20960.96
861.81	20700.87
861.98	20991.68
862.16	20766.40
862.33	20506.31
862.51	20641.48
862.68	20801.22
862.86	20872.90
863.03	20651.72
863.21	20815.55
863.38	20920.00
863.55	20711.11
863.73	20772.55
863.90	20735.68
864.08	20795.07
864.25	20623.05
864.43	20690.63
864.60	20559.56
864.77	20502.22
864.95	20346.57
865.12	20268.75
865.30	20629.19
865.47	20604.61
865.64	20418.25
865.82	20115.15
865.99	20358.86
866.17	20147.92
866.34	20160.20
866.51	19881.68
866.69	20195.02
866.86	20278.99
867.04	20117.20
867.21	20020.94
867.38	20074.19
867.56	19756.75
867.73	19912.40
867.91	19955.41
868.08	19932.88
868.25	19586.77
868.43	19582.68
868.60	19967.70
868.78	19783.38
868.95	19734.23
869.12	19939.02
869.30	19674.84
869.47	19683.03
869.64	19535.57
869.82	19936.98
869.99	19271.39
870.16	19672.79
870.34	19216.09
870.51	19398.36
870.69	19418.84
870.86	19273.43
871.03	19263.19
871.21	19052.25
871.38	19222.23
871.55	19189.47
871.73	19250.91
871.90	19052.25
872.07	19187.42
872.25	19027.68
872.42	18773.73
872.59	19005.15
872.77	19064.54
872.94	19050.21
873.11	18857.70
873.29	18861.79
873.46	18855.65
873.63	18654.95
873.81	18853.60
873.98	18472.68
874.15	18771.68
874.33	18544.36
874.50	18372.33
874.67	18693.86
874.85	18214.63
875.02	18394.86
875.19	18136.81
875.37	18228.97
875.54	18251.50
875.71	18140.91
875.88	18136.81
876.06	18149.10
876.23	18044.65
876.40	18220.78
876.58	17983.21
876.75	17870.58
876.92	18292.46
877.10	17784.56
877.27	17776.37
877.44	17997.55
877.61	17690.35
877.79	17923.82
877.96	17753.84
878.13	17837.81
878.31	17624.82
878.48	17686.26
878.65	17553.14
878.82	17325.82
879.00	17454.84
879.17	17377.01
879.34	17561.33
879.51	17491.70
879.69	17317.62
879.86	17469.17
880.03	17088.25
880.21	17397.49
880.38	17247.99
880.55	17274.62
880.72	17159.93
880.90	17190.65
881.07	16760.58
881.24	17325.82
881.41	17313.53
881.59	16985.85
881.76	17186.55
881.93	17121.02
882.10	16811.78
882.28	16981.76
882.45	17026.81
882.62	17071.87
882.79	17032.96
882.96	16752.38
883.14	16719.62
883.31	16871.17
883.48	16563.97
883.65	17055.48
883.83	16795.39
884.00	16649.99
884.17	16772.86
884.34	16520.96
884.51	16719.62
884.69	16797.44
884.86	16389.89
885.03	16779.01
885.20	16518.92
885.38	16615.17
885.55	16428.81
885.72	16543.49
885.89	16258.82
886.06	16451.33
886.24	16434.95
886.41	16191.24
886.58	16549.64
886.75	16516.87
886.92	16348.93
887.10	16402.18
887.27	16185.10
887.44	16291.59
887.61	16512.77
887.78	16398.09
887.95	16406.28
888.13	16221.96
888.30	16006.92
888.47	16324.36
888.64	16330.50
888.81	16176.91
888.99	16084.75
889.16	15961.87
889.33	15906.57
889.50	16011.02
889.67	15935.24
889.84	15795.98
890.01	15951.63
890.19	15990.54
890.36	15978.25
890.53	15822.61
890.70	15628.05
890.87	15634.19
891.04	15566.61
891.22	15642.39
891.39	15648.53
891.56	15580.95
891.73	15689.49
891.90	15677.20
892.07	15537.94
892.24	15511.32
892.42	15283.99
892.59	15564.56
892.76	15163.16
892.93	15490.84
893.10	15617.81
893.27	15503.12
893.44	15310.61
893.61	15197.98
893.79	15283.99
893.96	15118.11
894.13	15173.40
894.30	15347.48
894.47	15322.90
894.64	15372.05
894.81	15122.20
894.98	15189.78
895.15	15247.13
895.33	15027.99
895.50	15073.05
895.67	15314.71
895.84	15116.06
896.01	15085.34
896.18	15003.42
896.35	15286.04
896.52	15238.94
896.69	15140.63
896.86	15136.54
897.04	15079.19
897.21	15124.25
897.38	15189.78
897.55	15189.78
897.72	15236.89
897.89	14970.65
898.06	15339.29
898.23	14917.40
898.40	15114.01
898.57	15040.28
898.74	14999.32
898.91	15128.35
899.08	14950.17
899.26	15173.40
899.43	15058.71
899.60	14806.81
899.77	15066.91
899.94	15007.52
900.11	14903.07
900.28	15056.67
900.45	15064.86
900.62	14731.04
900.79	15245.08
900.96	15011.61
901.13	15097.63
901.30	14917.40
901.47	14868.25
901.64	15023.90
901.81	14855.97
901.98	14831.39
902.15	15195.93
902.32	14683.94
902.49	15081.24
902.66	15066.91
902.83	15023.90
903.01	14905.12
903.18	14995.23
903.35	15007.52
903.52	14821.15
903.69	14806.81
903.86	14935.84
904.03	14677.79
904.20	15111.96
904.37	14806.81
904.54	14786.33
904.71	14849.82
904.88	14915.36
905.05	14835.49
905.22	14839.58
905.39	14765.85
905.56	14735.14
905.73	14837.53
905.90	14878.49
906.07	14802.72
906.24	15009.56
906.41	15003.42
906.58	14769.95
906.75	14874.40
906.92	14612.26
907.09	14698.27
907.26	14866.21
907.43	14585.63
907.60	14690.08
907.77	14845.73
907.93	15134.49
908.10	14509.86
908.27	15005.47
908.44	14567.20
908.61	14706.46
908.78	14645.02
908.95	14757.66
909.12	14868.25
909.29	14724.90
909.46	14454.56
909.63	14675.74
909.80	14890.78
909.97	14749.47
910.14	14669.60
910.31	14825.25
910.48	14731.04
910.65	14489.38
910.82	14454.56
910.99	14376.74
911.16	14487.33
911.33	14524.19
911.50	14577.44
911.66	14624.54
911.83	14595.87
912.00	14548.77
912.17	14513.95
912.34	14507.81
912.51	14374.69
912.68	14143.27
912.85	14397.22
913.02	14296.87
913.19	14407.46
913.36	14468.90
913.53	14204.71
913.70	14364.45
913.86	14325.54
914.03	14356.26
914.20	14223.14
914.37	14087.98
914.54	14309.16
914.71	14022.44
914.88	14139.18
915.05	13983.53
915.22	13948.72
915.39	13840.17
915.55	13827.88
915.72	13975.34
915.89	13870.89
916.06	13629.23
916.23	13829.93
916.40	13561.65
916.57	13813.55
916.74	13571.89
916.91	13721.39
917.07	13588.27
917.24	13627.18
917.41	13633.33
917.58	13471.54
917.75	13528.88
917.92	13432.63
918.09	13438.77
918.26	13442.87
918.42	13305.65
918.59	13324.08
918.76	13121.34
918.93	13197.11
919.10	12896.06
919.27	13029.18
919.44	13186.87
919.60	13168.44
919.77	13301.56
919.94	12977.98
920.11	12889.92
920.28	13088.57
920.45	13020.99
920.61	12832.57
920.78	12789.56
920.95	12873.53
921.12	12904.25
921.29	12783.42
921.46	12609.34
921.62	12568.38
921.79	12576.58
921.96	12584.77
922.13	12418.88
922.30	12615.49
922.47	12390.21
922.63	12349.25
922.80	12396.35
922.97	12193.61
923.14	12144.45
923.31	12207.94
923.47	12177.22
923.64	12285.76
923.81	12156.74
923.98	12390.21
924.15	11958.09
924.32	12195.65
924.48	11784.01
924.65	12105.54
924.82	11986.76
924.99	11652.94
925.15	11640.65
925.32	11816.78
925.49	11568.98
925.66	11659.09
925.83	11474.77
925.99	11607.89
926.16	11560.78
926.33	11718.48
926.50	11296.60
926.67	11423.57
926.83	11249.49
927.00	11341.65
927.17	11312.98
927.34	11169.62
927.50	11358.03
927.67	11239.25
927.84	11044.70
928.01	11132.76
928.17	11036.50
928.34	11009.88
928.51	10911.58
928.68	10739.55
928.84	10766.17
929.01	10788.70
929.18	10667.87
929.35	10649.44
929.51	10735.45
929.68	10475.36
929.85	10383.20
930.02	10573.66
930.18	10332.00
930.35	10549.09
930.52	10446.69
930.69	10448.74
930.85	10448.74
931.02	10129.25
931.19	10237.80
931.36	10188.64
931.52	10145.64
931.69	10121.06
931.86	10092.39
932.02	9992.04
932.19	9951.08
932.36	9867.11
932.53	9901.93
932.69	9801.58
932.86	9867.11
933.03	9774.95
933.19	9523.05
933.36	9574.25
933.53	9834.35
933.70	9652.08
933.86	9373.55
934.03	9666.41
934.20	9203.57
934.36	9543.53
934.53	8984.44
934.70	9117.56
934.86	9090.93
935.03	9127.80
935.20	8974.20
935.36	9052.02
935.53	9049.97
935.70	8742.78
935.86	8808.31
936.03	8576.89
936.20	8556.41
936.36	8392.58
936.53	8484.73
936.70	8511.36
936.86	8531.84
937.03	8384.38
937.20	8179.59
937.36	8284.03
937.53	7929.74
937.70	7833.48
937.86	7874.44
938.03	7823.24
938.20	7747.47
938.36	7696.27
938.53	7595.92
938.70	7536.52
938.86	7571.34
939.03	7354.26
939.20	7268.24
939.36	7069.59
939.53	7139.22
939.70	7438.22
939.86	6848.41
940.03	6838.17
940.19	6784.92
940.36	6733.72
940.53	6684.57
940.69	6614.94
940.86	6741.91
941.03	6565.79
941.19	6363.04
941.36	6401.95
941.52	6322.08
941.69	6274.98
941.86	6420.38
942.02	6158.24
942.19	6168.48
942.35	6068.13
942.52	6053.80
942.69	5986.21
942.85	6006.69
943.02	5777.32
943.18	5930.92
943.35	5773.22
943.52	5816.23
943.68	5679.02
943.85	5859.24
944.01	5586.86
944.18	5601.19
944.35	5506.99
944.51	5494.70
944.68	5347.25
944.84	5447.60
945.01	5484.46
945.17	5527.47
945.34	5566.38
945.51	5324.72
945.67	5451.69
945.84	5375.92
946.00	5265.33
946.17	5384.11
946.33	5398.45
946.50	5398.45
946.67	5351.34
946.83	5222.32
947.00	5304.24
947.16	5443.50
947.33	5398.45
947.49	5234.61
947.66	5232.56
947.82	5400.49
947.99	5197.74
948.16	5363.63
948.32	5351.34
948.49	5408.69
948.65	5437.36
948.82	5369.77
948.98	5271.47
949.15	5232.56
949.31	5222.32
949.48	5441.45
949.64	5214.13
949.81	5263.28
949.97	5255.09
950.14	5212.08
950.30	5234.61
950.47	5414.83
950.63	5396.40
950.80	5267.38
950.96	5359.53
951.13	5377.97
951.30	5369.77
951.46	5316.53
951.63	5294.00
951.79	5466.03
951.96	5345.20
952.12	5343.15
952.29	5382.06
952.45	5517.23
952.62	5320.62
952.78	5412.78
952.94	5543.85
953.11	5400.49
953.27	5298.10
953.44	5631.91
953.60	5361.58
953.77	5396.40
953.93	5404.59
954.10	5435.31
954.26	5365.68
954.43	5431.21
954.59	5492.65
954.76	5644.20
954.92	5595.05
955.09	5461.93
955.25	5420.97
955.42	5404.59
955.58	5562.28
955.75	5494.70
955.91	5484.46
956.07	5418.93
956.24	5400.49
956.40	5353.39
956.57	5611.43
956.73	5431.21
956.90	5435.31
957.06	5480.36
957.23	5482.41
957.39	5484.46
957.56	5490.60
957.72	5396.40
957.88	5373.87
958.05	5492.65
958.21	5644.20
958.38	5513.13
958.54	5406.64
958.71	5590.95
958.87	5408.69
959.03	5388.21
959.20	5447.60
959.36	5349.29
959.53	5400.49
959.69	5490.60
959.85	5498.80
960.02	5392.30
960.18	5504.94
960.35	5418.93
960.51	5396.40
960.68	5425.07
960.84	5484.46
961.00	5461.93
961.17	5466.03
961.33	5420.97
961.50	5470.12
961.66	5492.65
961.82	5402.54
961.99	5451.69
962.15	5259.18
962.31	5478.32
962.48	5433.26
962.64	5459.88
962.81	5402.54
962.97	5377.97
963.13	5345.20
963.30	5435.31
963.46	5484.46
963.62	5314.48
963.79	5294.00
963.95	5447.60
964.12	5279.66
964.28	5310.38
964.44	5351.34
964.61	5423.02
964.77	5427.12
964.93	5502.89
965.10	5359.53
965.26	5314.48
965.42	5482.41
965.59	5273.52
965.75	5332.91
965.92	5377.97
966.08	5337.01
966.24	5265.33
966.41	5330.86
966.57	5232.56
966.73	5287.86
966.90	5230.51
967.06	5246.90
967.22	5210.03
967.39	5269.42
967.55	5140.40
967.71	5214.13
967.88	5197.74
968.04	5228.46
968.20	5339.05
968.37	5103.54
968.53	5345.20
968.69	5183.41
968.85	5177.26
969.02	5124.02
969.18	5238.70
969.34	5246.90
969.51	5271.47
969.67	5236.66
969.83	5052.34
970.00	5345.20
970.16	5197.74
970.32	5177.26
970.48	5244.85
970.65	5144.50
970.81	4964.28
970.97	5205.94
971.14	4779.96
971.30	5144.50
971.46	5152.69
971.63	5107.63
971.79	5083.06
971.95	4978.61
972.11	4917.17
972.28	4960.18
972.44	5076.91
972.60	4962.23
972.76	4839.35
972.93	5013.43
973.09	4995.00
973.25	4941.75
973.42	4845.49
973.58	5011.38
973.74	4956.08
973.90	4939.70
974.07	4825.01
974.23	4962.23
974.39	4890.55
974.55	4808.63
974.72	4892.60
974.88	4628.41
975.04	4931.51
975.20	4734.90
975.37	4808.63
975.53	4804.53
975.69	4851.64
975.85	4665.27
976.01	4652.98
976.18	4765.62
976.34	4796.34
976.50	4818.87
976.66	4855.73
976.83	4759.48
976.99	4782.01
977.15	4933.56
977.31	4650.94
977.47	4739.00
977.64	4779.96
977.80	4687.80
977.96	4702.14
978.12	4755.38
978.29	4700.09
978.45	4591.55
978.61	4517.82
978.77	4646.84
978.93	4564.92
979.10	4534.20
979.26	4650.94
979.42	4560.83
979.58	4458.43
979.74	4435.90
979.91	4583.35
980.07	4444.09
980.23	4519.87
980.39	4544.44
980.55	4349.89
980.71	4540.35
980.88	4460.48
981.04	4343.74
981.20	4560.83
981.36	4542.39
981.52	4337.60
981.68	4411.32
981.85	4360.13
982.01	4444.09
982.17	4329.41
982.33	4353.98
982.49	4483.00
982.65	4261.82
982.82	4380.61
982.98	4341.69
983.14	4278.21
983.30	4394.94
983.46	4302.78
983.62	4347.84
983.79	4255.68
983.95	4321.21
984.11	4081.60
984.27	4220.86
984.43	4292.54
984.59	4216.77
984.75	4321.21
984.91	4227.01
985.08	4370.37
985.24	4147.14
985.40	4067.27
985.56	4227.01
985.72	4114.37
985.88	4169.66
986.04	4210.62
986.20	4118.47
986.37	4118.47
986.53	3985.35
986.69	4222.91
986.85	3878.85
987.01	4138.94
987.17	4265.92
987.33	4052.93
987.49	3989.44
987.65	4138.94
987.82	4085.70
987.98	3821.51
988.14	4136.90
988.30	3995.59
988.46	3921.86
988.62	4038.59
988.78	4001.73
988.94	3911.62
989.10	4020.16
989.26	3852.23
989.42	3870.66
989.59	3790.79
989.75	3854.28
989.91	3913.67
990.07	3751.88
990.23	3764.17
990.39	3872.71
990.55	3805.13
990.71	3796.93
990.87	3893.19
991.03	3846.09
991.19	3801.03
991.35	3844.04
991.51	3798.98
991.67	3815.37
991.83	3850.18
992.00	3790.79
992.16	3903.43
992.32	3854.28
992.48	3891.14
992.64	3778.50
992.80	3764.17
992.96	3715.02
993.12	3751.88
993.28	3753.93
993.44	3733.45
993.60	3772.36
993.76	3743.69
993.92	3698.63
994.08	3731.40
994.24	3784.65
994.40	3698.63
994.56	3762.12
994.72	3618.76
994.88	3606.47
995.04	3583.95
995.20	3678.15
995.36	3483.59
995.52	3602.38
995.68	3495.88
995.84	3524.55
996.00	3690.44
996.16	3473.36
996.32	3418.06
996.48	3446.73
996.64	3526.60
996.80	3366.86
996.96	3469.26
997.12	3438.54
997.28	3411.92
997.44	3463.12
997.60	3393.48
997.76	3467.21
997.92	3426.25
998.08	3467.21
998.24	3368.91
998.40	3461.07
998.56	3481.55
998.72	3317.71
998.88	3442.64
999.04	3330.00
999.20	3391.44
999.36	3334.09
999.52	3436.49
999.68	3336.14
999.84	3399.63
1000.00	3319.76
1000.16	3352.52
1000.32	3293.13
1000.48	3442.64
1000.64	3327.95
1000.80	3166.16
1000.95	3170.26
1001.11	3305.42
1001.27	3213.26
1001.43	3297.23
1001.59	3162.06
1001.75	3200.98
1001.91	3243.98
1002.07	3207.12
1002.23	3209.17
1002.39	3196.88
1002.55	3162.06
1002.71	3172.30
1002.87	3239.89
1003.03	3153.87
1003.19	3067.86
1003.34	3110.86
1003.50	3182.54
1003.66	3252.17
1003.82	3338.19
1003.98	3205.07
1004.14	3133.39
1004.30	3051.47
1004.46	3076.05
1004.62	3039.19
1004.78	3071.95
1004.94	3033.04
1005.09	3076.05
1005.25	3108.82
1005.41	2920.40
1005.57	3004.37
1005.73	2957.27
1005.89	3041.23
1006.05	2975.70
1006.21	3043.28
1006.37	2879.44
1006.52	3018.71
1006.68	2863.06
1006.84	3035.09
1007.00	2918.36
1007.16	3024.85
1007.32	2883.54
1007.48	2879.44
1007.64	2949.08
1007.79	2985.94
1007.95	2918.36
1008.11	2942.93
1008.27	2836.44
1008.43	2842.58
1008.59	2918.36
1008.75	2983.89
1008.91	3049.43
1009.06	2805.72
1009.22	2881.49
1009.38	2805.72
1009.54	2850.77
1009.70	2893.78
1009.86	2764.76
1010.01	2822.10
1010.17	2801.62
1010.33	2850.77
1010.49	2836.44
1010.65	2875.35
1010.81	2701.27
1010.96	2820.05
1011.12	2680.79
1011.28	2701.27
1011.44	2789.33
1011.60	2775.00
1011.76	2695.13
1011.91	2756.57
1012.07	2740.18
1012.23	2670.55
1012.39	2670.55
1012.55	2742.23
1012.71	2734.04
1012.86	2596.82
1013.02	2627.54
1013.18	2625.50
1013.34	2637.78
1013.50	2641.88
1013.65	2746.33
1013.81	2588.63
1013.97	2662.36
1014.13	2574.30
1014.29	2639.83
1014.44	2684.89
1014.60	2461.66
1014.76	2598.87
1014.92	2555.86
1015.07	2625.50
1015.23	2617.30
1015.39	2576.34
1015.55	2537.43
1015.71	2545.63
1015.86	2537.43
1016.02	2510.81
1016.18	2523.10
1016.34	2555.86
1016.49	2535.39
1016.65	2525.15
1016.81	2437.08
1016.97	2590.68
1017.12	2613.21
1017.28	2404.32
1017.44	2428.89
1017.60	2469.85
1017.75	2510.81
1017.91	2443.23
1018.07	2496.47
1018.23	2588.63
1018.38	2457.56
1018.54	2400.22
1018.70	2428.89
1018.86	2508.76
1019.01	2426.84
1019.17	2443.23
1019.33	2486.23
1019.49	2465.75
1019.64	2398.17
1019.80	2381.79
1019.96	2400.22
1020.12	2334.68
1020.27	2435.03
1020.43	2410.46
1020.59	2396.12
1020.74	2400.22
1020.90	2451.42
1021.06	2400.22
1021.22	2402.27
1021.37	2363.36
1021.53	2363.36
1021.69	2344.92
1021.84	2234.33
1022.00	2398.17
1022.16	2281.44
1022.31	2289.63
1022.47	2392.03
1022.63	2385.88
1022.79	2322.40
1022.94	2277.34
1023.10	2394.08
1023.26	2306.01
1023.41	2271.20
1023.57	2289.63
1023.73	2279.39
1023.88	2228.19
1024.04	2230.24
1024.20	2289.63
1024.35	2344.92
1024.51	2275.29
1024.67	2306.01
1024.82	2289.63
1024.98	2211.81
1025.14	2256.86
1025.29	2211.81
1025.45	2287.58
1025.61	2172.89
1025.76	2263.01
1025.92	2199.52
1026.08	2215.90
1026.23	2170.85
1026.39	2263.01
1026.55	2226.14
1026.70	2107.36
1026.86	2158.56
1027.02	2289.63
1027.17	2217.95
1027.33	2263.01
1027.48	2191.33
1027.64	2127.84
1027.80	2205.66
1027.95	2170.85
1028.11	2007.01
1028.27	2142.18
1028.42	2107.36
1028.58	2162.66
1028.73	2127.84
1028.89	2170.85
1029.05	2168.80
1029.20	2187.23
>>>>>End Processed Spectral Data<<<<<
