SpectraSuite Data File
++++++++++++++++++++++++++++++++++++
Date: Fri Jun 02 14:57:20 CEST 2017
User: INFO_000
Dark Spectrum Present: No
Reference Spectrum Present: No
Number of Sampled Component Spectra: 1
Spectrometers: USB4H00879
Integration Time (usec): 80000 (USB4H00879)
Spectra Averaged: 1 (USB4H00879)
Boxcar Smoothing: 0 (USB4H00879)
Correct for Electrical Dark: No (USB4H00879)
Strobe/Lamp Enabled: No (USB4H00879)
Correct for Detector Non-linearity: No (USB4H00879)
Correct for Stray Light: No (USB4H00879)
Number of Pixels in Processed Spectrum: 3648
>>>>>Begin Processed Spectral Data<<<<<
345.13	1304.56
345.34	1304.56
345.56	1304.56
345.78	1255.40
345.99	1241.07
346.21	1738.73
346.42	1689.57
346.64	1585.13
346.86	1828.84
347.07	1646.57
347.29	1708.01
347.50	1556.46
347.72	1724.39
347.94	1734.63
348.15	1513.45
348.37	1691.62
348.59	1683.43
348.80	1681.38
349.02	1804.26
349.23	1847.27
349.45	1861.60
349.67	1859.56
349.88	1806.31
350.10	2017.25
350.31	1902.56
350.53	1767.40
350.75	2027.49
350.96	1748.97
351.18	1886.18
351.39	1900.52
351.61	1826.79
351.82	1863.65
352.04	1851.36
352.26	1863.65
352.47	1947.62
352.69	1902.56
352.90	1830.88
353.12	1818.60
353.34	1898.47
353.55	1984.48
353.77	1923.04
353.98	1769.44
354.20	1787.88
354.41	1900.52
354.63	1961.95
354.85	2035.68
355.06	1863.65
355.28	1832.93
355.49	1910.75
355.71	1900.52
355.92	1939.43
356.14	1845.22
356.35	1896.42
356.57	1859.56
356.79	1900.52
357.00	1863.65
357.22	1984.48
357.43	1923.04
357.65	1994.72
357.86	1941.47
358.08	1920.99
358.29	1943.52
358.51	1953.76
358.72	1877.99
358.94	1951.71
359.16	1970.15
359.37	1910.75
359.59	2023.39
359.80	1974.24
360.02	1974.24
360.23	1937.38
360.45	1976.29
360.66	2015.20
360.88	1918.95
361.09	1855.46
361.31	2058.21
361.52	1978.34
361.74	2097.12
361.95	2074.59
362.17	1955.81
362.38	2060.26
362.60	2113.50
362.81	2056.16
363.03	1945.57
363.24	1990.63
363.46	2117.60
363.67	1947.62
363.89	1929.19
364.10	2037.73
364.32	2019.30
364.53	2029.54
364.75	1890.28
364.96	2064.35
365.18	2076.64
365.39	2052.06
365.61	1933.28
365.82	2117.60
366.04	2004.96
366.25	1951.71
366.47	2013.15
366.68	2033.63
366.90	1875.94
367.11	2068.45
367.33	2035.68
367.54	2084.83
367.76	1998.82
367.97	2144.22
368.19	2037.73
368.40	2060.26
368.62	2054.11
368.83	1955.81
369.05	2052.06
369.26	2019.30
369.48	1972.19
369.69	1980.39
369.91	2043.87
370.12	2045.92
370.33	2191.33
370.55	2002.91
370.76	2025.44
370.98	2136.03
371.19	2086.88
371.41	2019.30
371.62	2095.07
371.84	1978.34
372.05	2117.60
372.27	2066.40
372.48	2093.02
372.69	2146.27
372.91	2213.85
373.12	2144.22
373.34	2068.45
373.55	2109.41
373.77	2138.08
373.98	2105.31
374.20	2156.51
374.41	2232.29
374.62	2109.41
374.84	2199.52
375.05	2201.57
375.27	2217.95
375.48	2136.03
375.70	2187.23
375.91	2248.67
376.12	2263.01
376.34	2111.46
376.55	2193.37
376.77	2297.82
376.98	2125.79
377.19	2088.93
377.41	2052.06
377.62	2189.28
377.84	2336.73
378.05	2344.92
378.27	2220.00
378.48	2289.63
378.69	2357.21
378.91	2301.92
379.12	2283.49
379.34	2299.87
379.55	2265.05
379.76	2258.91
379.98	2269.15
380.19	2263.01
380.41	2308.06
380.62	2273.25
380.83	2285.53
381.05	2213.85
381.26	2357.21
381.47	2201.57
381.69	2310.11
381.90	2412.51
382.12	2310.11
382.33	2287.58
382.54	2299.87
382.76	2318.30
382.97	2320.35
383.19	2293.72
383.40	2492.38
383.61	2353.12
383.83	2263.01
384.04	2336.73
384.25	2441.18
384.47	2426.84
384.68	2383.84
384.89	2265.05
385.11	2301.92
385.32	2353.12
385.54	2269.15
385.75	2410.46
385.96	2398.17
386.18	2461.66
386.39	2408.41
386.60	2312.16
386.82	2353.12
387.03	2408.41
387.24	2418.65
387.46	2496.47
387.67	2504.67
387.88	2545.63
388.10	2506.71
388.31	2465.75
388.52	2422.75
388.74	2475.99
388.95	2445.27
389.16	2486.23
389.38	2514.91
389.59	2592.73
389.80	2592.73
390.02	2572.25
390.23	2672.60
390.44	2500.57
390.66	2510.81
390.87	2459.61
391.08	2578.39
391.30	2682.84
391.51	2553.82
391.72	2693.08
391.94	2686.94
392.15	2535.39
392.36	2617.30
392.58	2566.10
392.79	2668.50
393.00	2652.12
393.22	2777.05
393.43	2574.30
393.64	2770.90
393.85	2779.09
394.07	2666.46
394.28	2709.46
394.49	2772.95
394.71	2736.09
394.92	2904.02
395.13	2775.00
395.35	2797.53
395.56	2668.50
395.77	2789.33
395.98	2856.92
396.20	2809.81
396.41	2805.72
396.62	2916.31
396.84	2887.64
397.05	2842.58
397.26	2832.34
397.47	3008.47
397.69	2764.76
397.90	2922.45
398.11	2961.36
398.32	2869.20
398.54	2944.98
398.75	2861.01
398.96	2979.79
399.18	3035.09
399.39	2965.46
399.60	3071.95
399.81	3000.27
400.03	2920.40
400.24	3360.72
400.45	2934.74
400.66	3051.47
400.88	2994.13
401.09	3121.10
401.30	3147.73
401.51	3172.30
401.73	3051.47
401.94	3194.83
402.15	3127.25
402.36	3055.57
402.58	3246.03
402.79	3129.30
403.00	3170.26
403.21	3166.16
403.43	3243.98
403.64	3266.51
403.85	3143.63
404.06	3229.65
404.27	3121.10
404.49	3229.65
404.70	3205.07
404.91	3276.75
405.12	3258.32
405.34	3196.88
405.55	3440.59
405.76	3162.06
405.97	3211.22
406.19	3301.33
406.40	3284.94
406.61	3356.62
406.82	3381.20
407.03	3280.85
407.25	3401.68
407.46	3383.24
407.67	3327.95
407.88	3387.34
408.09	3422.16
408.31	3397.58
408.52	3422.16
408.73	3231.69
408.94	3319.76
409.15	3479.50
409.37	3592.14
409.58	3401.68
409.79	3551.18
410.00	3583.95
410.21	3413.96
410.43	3403.72
410.64	3307.47
410.85	3465.16
411.06	3502.03
411.27	3569.61
411.48	3573.71
411.70	3497.93
411.91	3616.71
412.12	3565.51
412.33	3567.56
412.54	3665.86
412.76	3612.62
412.97	3536.84
413.18	3557.32
413.39	3663.82
413.60	3729.35
413.81	3710.92
414.03	3729.35
414.24	3667.91
414.45	3846.09
414.66	3645.38
414.87	3684.30
415.08	3704.78
415.30	3719.11
415.51	3702.73
415.72	3760.07
415.93	3715.02
416.14	3803.08
416.35	3837.89
416.56	3809.22
416.78	3901.38
416.99	3811.27
417.20	3751.88
417.41	4014.02
417.62	3747.78
417.83	3928.00
418.04	3856.33
418.26	3874.76
418.47	3932.10
418.68	4073.41
418.89	3903.43
419.10	4061.12
419.31	3948.48
419.52	4089.79
419.73	3995.59
419.95	4100.03
420.16	3903.43
420.37	4071.36
420.58	4018.11
420.79	3839.94
421.00	4005.83
421.21	4229.06
421.42	4083.65
421.63	4161.47
421.85	4057.03
422.06	4218.82
422.27	4181.95
422.48	4130.75
422.69	4140.99
422.90	4184.00
423.11	4157.38
423.32	4300.73
423.53	4429.76
423.75	4253.63
423.96	4478.91
424.17	4321.21
424.38	4351.93
424.59	4403.13
424.80	4630.46
425.01	4470.72
425.22	4483.00
425.43	4454.33
425.64	4747.19
425.85	4673.46
426.06	4419.52
426.28	4700.09
426.49	4431.80
426.70	4413.37
426.91	4530.11
427.12	4689.85
427.33	4712.38
427.54	4517.82
427.75	4671.42
427.96	4847.54
428.17	4743.10
428.38	4853.69
428.59	4837.30
428.80	4759.48
429.01	4818.87
429.23	4714.42
429.44	5025.72
429.65	4935.60
429.86	4974.52
430.07	4872.12
430.28	4890.55
430.49	5056.43
430.70	5119.92
430.91	5099.44
431.12	5019.57
431.33	4976.56
431.54	5083.06
431.75	5035.96
431.96	5167.03
432.17	5070.77
432.38	5181.36
432.59	5398.45
432.80	5156.79
433.01	5195.70
433.22	5361.58
433.43	5371.82
433.64	5355.44
433.85	5171.12
434.06	5320.62
434.27	5353.39
434.49	5408.69
434.70	5607.34
434.91	5324.72
435.12	5494.70
435.33	5328.81
435.54	5453.74
435.75	5259.18
435.96	5453.74
436.17	5408.69
436.38	5738.41
436.59	5709.74
436.80	5541.80
437.01	5771.18
437.22	5732.26
437.43	5799.85
437.64	5496.75
437.85	5672.87
438.06	5834.66
438.27	5506.99
438.48	5631.91
438.69	5810.09
438.90	5771.18
439.11	5812.14
439.32	5842.85
439.53	5844.90
439.74	5812.14
439.95	5828.52
440.16	5832.62
440.37	5914.53
440.57	5758.89
440.78	5939.11
440.99	5760.94
441.20	5961.64
441.41	6008.74
441.62	5949.35
441.83	5820.33
442.04	6008.74
442.25	6215.59
442.46	6061.99
442.67	6152.10
442.88	6449.05
443.09	5973.92
443.30	6322.08
443.51	6027.17
443.72	6434.72
443.93	6260.64
444.14	6379.42
444.35	6184.87
444.56	6197.15
444.77	6231.97
444.98	6449.05
445.19	6307.74
445.40	6334.37
445.61	6277.02
445.81	6557.60
446.02	6612.89
446.23	6336.42
446.44	6256.54
446.65	6467.49
446.86	6563.74
447.07	6725.53
447.28	6768.54
447.49	6629.27
447.70	6508.44
447.91	6703.00
448.12	6623.13
448.33	6623.13
448.54	6799.26
448.74	6580.12
448.95	6698.91
449.16	6698.91
449.37	6983.57
449.58	6875.03
449.79	7036.82
450.00	6721.43
450.21	6995.86
450.42	6901.65
450.63	6981.53
450.84	6893.46
451.05	7098.26
451.25	7008.15
451.46	7030.68
451.67	7174.03
451.88	7282.58
452.09	7176.08
452.30	7231.38
452.51	7329.68
452.72	7247.76
452.93	7622.54
453.13	7182.23
453.34	7118.74
453.55	7376.78
453.76	7178.13
453.97	7606.16
454.18	7430.03
454.39	7491.47
454.60	7554.96
454.81	7434.13
455.01	7606.16
455.22	7362.45
455.43	7733.13
455.64	7761.80
455.85	7802.76
456.06	8019.85
456.27	7753.61
456.48	7819.14
456.68	7962.50
456.89	8126.34
457.10	7878.54
457.31	7882.63
457.52	7946.12
457.73	7956.36
457.94	8388.48
458.14	8120.20
458.35	8277.89
458.56	8159.11
458.77	8132.48
458.98	8292.23
459.19	8490.88
459.39	8312.71
459.60	8492.93
459.81	8331.14
460.02	8406.91
460.23	8458.11
460.44	8714.11
460.65	8662.91
460.85	8834.94
461.06	8849.27
461.27	8707.96
461.48	8857.46
461.69	9170.80
461.89	8605.56
462.10	8949.62
462.31	8691.58
462.52	9043.83
462.73	8961.91
462.94	9240.44
463.14	9228.15
463.35	9013.11
463.56	9506.67
463.77	9293.68
463.98	9078.65
464.18	9310.07
464.39	9494.38
464.60	9607.02
464.81	9539.44
465.02	9422.70
465.23	9781.10
465.43	9537.39
465.64	9799.53
465.85	9928.55
466.06	9650.03
466.27	9981.80
466.47	10151.78
466.68	10174.31
466.89	10080.10
467.10	10155.88
467.30	9903.98
467.51	10266.47
467.72	10391.39
467.93	10153.83
468.14	10547.04
468.34	10471.26
468.55	10526.56
468.76	10469.22
468.97	10282.85
469.17	10585.95
469.38	10874.71
469.59	10800.99
469.80	10790.75
470.01	10768.22
470.21	10819.42
470.42	11216.72
470.63	11310.93
470.84	11226.96
471.04	11265.88
471.25	11306.84
471.46	11190.10
471.67	11679.57
471.87	11630.41
472.08	11630.41
472.29	11827.02
472.50	11540.30
472.70	11753.29
472.91	11921.23
473.12	11855.69
473.33	12138.31
473.53	12111.69
473.74	12179.27
473.95	12359.49
474.16	12316.48
474.36	12269.38
474.57	12457.79
474.78	12588.86
474.99	12465.99
475.19	12500.80
475.40	12754.75
475.61	12980.03
475.81	13059.90
476.02	13207.35
476.23	13121.34
476.44	13135.67
476.64	13381.43
476.85	13338.42
477.06	13424.44
477.27	13702.96
477.47	13588.27
477.68	13586.22
477.89	13877.04
478.09	13985.58
478.30	13836.08
478.51	13965.10
478.71	14200.62
478.92	14335.78
479.13	14395.17
479.34	14186.28
479.54	14313.25
479.75	14397.22
479.96	14663.46
480.16	14882.59
480.37	14829.34
480.58	14962.46
480.78	15232.79
480.99	15011.61
481.20	15355.67
481.41	15132.44
481.61	15705.87
481.82	15394.58
482.03	15517.46
482.23	15460.12
482.44	15892.24
482.65	15972.11
482.85	15933.20
483.06	15775.50
483.27	16047.88
483.47	16158.47
483.68	16240.39
483.89	16344.84
484.09	16267.02
484.30	16529.16
484.51	16514.82
484.71	16742.14
484.92	16760.58
485.13	17049.34
485.33	16963.33
485.54	16996.09
485.75	17301.24
485.95	17262.33
486.16	17483.51
486.37	17755.89
486.57	17538.80
486.78	17352.44
486.98	17571.57
487.19	17604.34
487.40	17790.70
487.60	17721.07
487.81	18011.89
488.02	17747.70
488.22	17850.10
488.43	18464.49
488.64	18448.10
488.84	18609.89
489.05	18599.65
489.25	18505.45
489.46	19117.79
489.67	18888.42
489.87	19230.43
490.08	18982.62
490.29	18773.73
490.49	19074.78
490.70	19103.45
490.90	19482.33
491.11	19576.53
491.32	19640.02
491.52	19560.15
491.73	19703.51
491.94	19785.43
492.14	19541.72
492.35	19963.60
492.55	20162.25
492.76	20229.84
492.97	20145.87
493.17	20242.12
493.38	20350.67
493.58	20616.90
493.79	20739.78
494.00	20487.88
494.20	20590.28
494.41	21073.60
494.61	21161.66
494.82	21071.55
495.02	20960.96
495.23	20999.87
495.44	21249.72
495.64	21345.98
495.85	21407.42
496.05	21661.37
496.26	21518.01
496.47	21743.28
496.67	21661.37
496.88	22179.50
497.08	21767.86
497.29	22251.18
497.49	21710.52
497.70	22101.68
497.91	22073.01
498.11	22324.91
498.32	22353.58
498.52	22419.11
498.73	22466.22
498.93	22593.19
499.14	22568.62
499.34	22634.15
499.55	22951.59
499.76	22789.80
499.96	22920.87
500.17	23041.70
500.37	23346.84
500.58	23322.27
500.78	23520.92
500.99	23117.47
501.19	23334.56
501.40	23479.96
501.60	23146.14
501.81	23586.46
502.02	23744.15
502.22	23533.21
502.43	23764.63
502.63	23912.08
502.84	24155.79
503.04	24024.72
503.25	24462.99
503.45	24184.46
503.66	24422.03
503.86	24364.68
504.07	24520.33
504.27	24376.97
504.48	24624.78
504.68	24262.29
504.89	24768.13
505.09	24499.85
505.30	25009.79
505.50	24966.79
505.71	24893.06
505.91	25136.77
506.12	25112.19
506.32	24940.16
506.53	25378.43
506.73	25130.62
506.94	25456.25
507.14	25097.86
507.35	25345.66
507.55	25407.10
507.76	25450.11
507.96	25585.27
508.17	25523.83
508.37	25753.21
508.58	25978.48
508.78	25976.44
508.99	25953.91
509.19	25763.45
509.40	25917.04
509.60	26230.38
509.81	26615.40
510.01	26144.37
510.22	25978.48
510.42	26558.06
510.63	26277.49
510.83	26429.04
511.04	26111.60
511.24	26867.30
511.44	26572.39
511.65	26707.56
511.85	26551.91
512.06	26455.66
512.26	26805.86
512.47	27059.81
512.67	26846.82
512.88	27000.42
513.08	26771.05
513.29	26938.98
513.49	27231.84
513.69	27199.07
513.90	27229.79
514.10	27162.21
514.31	27352.67
514.51	27565.66
514.72	27473.50
514.92	27137.63
515.13	27608.67
515.33	27399.77
515.53	27580.00
515.74	27514.46
515.94	27975.25
516.15	28167.76
516.35	27606.62
516.56	28077.65
516.76	27768.41
516.96	28091.99
517.17	27952.73
517.37	27799.13
517.58	28163.67
517.78	28384.85
517.99	28284.50
518.19	28458.57
518.39	28755.53
518.60	28294.74
518.80	28360.27
519.01	28411.47
519.21	28849.74
519.41	28771.91
519.62	28671.56
519.82	29021.77
520.03	29036.10
520.23	29232.71
520.43	28997.19
520.64	29496.89
520.84	29414.98
521.05	29158.98
521.25	29462.08
521.45	29390.40
521.66	29584.96
521.86	29636.16
522.07	29797.95
522.27	29306.43
522.47	29603.39
522.68	30004.79
522.88	30002.74
523.08	30219.83
523.29	30346.80
523.49	30129.72
523.70	30524.97
523.90	30600.75
524.10	30092.85
524.31	30572.08
524.51	30447.15
524.71	30742.06
524.92	30539.31
525.12	31004.20
525.33	30848.55
525.53	30813.74
525.73	31266.34
525.94	31462.94
526.14	31301.15
526.34	31368.74
526.55	31102.50
526.75	31270.43
526.95	31919.64
527.16	31211.04
527.36	31481.38
527.56	32071.19
527.77	32216.60
527.97	31884.83
528.17	31929.88
528.38	32398.87
528.58	31946.26
528.78	32312.85
528.99	32294.42
529.19	32656.91
529.39	32040.47
529.60	32599.57
529.80	32556.56
530.00	32744.97
530.21	32921.10
530.41	33203.72
530.61	32871.95
530.82	32904.71
531.02	32906.76
531.22	33101.32
531.43	33244.68
531.63	33334.79
531.83	33744.38
532.04	33734.14
532.24	33435.14
532.44	33857.02
532.64	33916.41
532.85	34207.22
533.05	33912.31
533.25	34158.07
533.46	34260.47
533.66	34616.82
533.86	34477.55
534.07	34831.85
534.27	34323.96
534.47	34627.06
534.67	34958.83
534.88	35143.14
535.08	34958.83
535.28	35173.86
535.49	34964.97
535.69	35677.66
535.89	35210.73
536.09	35630.56
536.30	35689.95
536.50	35730.91
536.70	35831.26
536.91	35835.36
537.11	35874.27
537.31	35800.54
537.51	36038.11
537.72	36330.97
537.92	36822.48
538.12	36603.35
538.32	36263.38
538.53	36546.00
538.73	36240.86
538.93	36298.20
539.13	36644.30
539.34	36505.04
539.54	36746.70
539.74	36953.55
539.94	37000.65
540.15	36939.21
540.35	37227.98
540.55	37266.89
540.75	36976.08
540.96	37565.89
541.16	36931.02
541.36	37043.66
541.56	37668.29
541.77	37950.91
541.97	37660.10
542.17	37737.92
542.37	38204.86
542.58	37811.65
542.78	38151.61
542.98	37989.82
543.18	37813.70
543.38	38415.80
543.59	38299.06
543.79	38112.70
543.99	38536.63
544.19	38376.89
544.40	38426.04
544.60	38614.45
544.80	38430.13
545.00	38892.97
545.20	39087.53
545.41	38948.27
545.61	38542.77
545.81	39089.58
546.01	39134.63
546.21	39288.23
546.42	39261.61
546.62	39136.68
546.82	38884.78
547.02	39450.02
547.22	39210.41
547.43	39169.45
547.63	39456.17
547.83	39873.95
548.03	39294.38
548.23	39458.21
548.44	39583.14
548.64	40168.86
548.84	40177.05
549.04	39820.70
549.24	39970.21
549.45	40093.08
549.65	39724.45
549.85	39949.73
550.05	40453.53
550.25	40527.25
550.45	40746.39
550.66	40416.66
550.86	40269.21
551.06	40582.55
551.26	40582.55
551.46	40318.36
551.66	40568.21
551.87	40492.44
552.07	40517.01
552.27	40789.39
552.47	40662.42
552.67	41182.60
552.87	40785.30
553.07	40813.97
553.28	40963.47
553.48	40945.04
553.68	41145.74
553.88	41551.24
554.08	41301.39
554.28	40904.08
554.48	41108.88
554.69	41563.53
554.89	41473.42
555.09	41311.63
555.29	41436.55
555.49	42005.89
555.69	41868.67
555.89	41239.95
556.10	42220.92
556.30	41465.22
556.50	42024.32
556.70	41883.01
556.90	42065.28
557.10	42114.43
557.30	41753.99
557.50	42173.82
557.70	41977.22
557.91	42235.26
558.11	41829.76
558.31	42368.38
558.51	41919.87
558.71	42278.27
558.91	42564.98
559.11	42290.55
559.31	42644.85
559.51	42200.44
559.72	42243.45
559.92	42669.43
560.12	42122.62
560.32	42683.76
560.52	42440.06
560.72	42837.36
560.92	43001.20
561.12	42863.99
561.32	42700.15
561.52	42814.83
561.72	42980.72
561.93	42814.83
562.13	42808.69
562.33	42773.88
562.53	43267.44
562.73	42749.30
562.93	42861.94
563.13	43109.74
563.33	42933.62
563.53	43808.10
563.73	43101.55
563.93	43332.97
564.13	43320.68
564.33	43382.12
564.53	43208.04
564.74	43781.48
564.94	43310.44
565.14	43488.62
565.34	43203.95
565.54	43822.44
565.74	43240.81
565.94	44082.53
566.14	43459.94
566.34	43797.86
566.54	44043.62
566.74	43345.26
566.94	43947.36
567.14	43945.31
567.34	43750.76
567.54	43828.58
567.74	43572.58
567.94	43670.89
568.14	44395.87
568.34	44221.79
568.54	43912.55
568.74	44283.23
568.94	44201.31
569.14	44393.82
569.34	44189.02
569.54	44113.25
569.75	44305.76
569.95	44547.42
570.15	44776.79
570.35	44311.90
570.55	44037.47
570.75	44672.34
570.95	44737.88
571.15	45155.66
571.35	44252.51
571.55	45006.16
571.75	44754.26
571.95	44791.12
572.15	45112.66
572.35	45288.78
572.55	45040.98
572.75	45028.69
572.95	44766.55
573.15	45219.15
573.35	44854.61
573.55	44991.83
573.75	45325.64
573.95	45296.97
574.15	45262.16
574.35	45755.72
574.55	45634.89
574.75	45432.14
574.95	45514.06
575.15	45544.78
575.34	45466.95
575.54	45776.20
575.74	45749.57
575.94	46019.91
576.14	45700.42
576.34	46067.01
576.54	46138.69
576.74	46243.13
576.94	45825.35
577.14	46036.29
577.34	46157.12
577.54	45720.90
577.74	46277.95
577.94	46185.79
578.14	46470.46
578.34	46261.57
578.54	45989.19
578.74	46357.82
578.94	46538.04
579.14	46564.67
579.34	46550.33
579.54	46521.66
579.74	46843.19
579.94	46290.24
580.13	47121.71
580.33	46822.71
580.53	46900.53
580.73	47076.66
580.93	47174.96
581.13	46992.69
581.33	47242.54
581.53	47406.38
581.73	47256.88
581.93	47598.89
582.13	47414.57
582.33	47709.48
582.53	47480.11
582.73	47936.80
582.92	47676.71
583.12	47695.14
583.32	48028.96
583.52	47906.08
583.72	48000.29
583.92	47607.08
584.12	48129.31
584.32	47940.90
584.52	48194.85
584.72	48153.89
584.92	48059.68
585.11	48338.21
585.31	48166.18
585.51	48231.71
585.71	48510.24
585.91	48502.04
586.11	47977.76
586.31	48364.83
586.51	48272.67
586.71	48571.67
586.91	48995.60
587.10	48655.64
587.30	49202.45
587.50	49040.66
587.70	48868.63
587.90	48743.70
588.10	48903.45
588.30	49190.16
588.50	49138.96
588.69	49227.02
588.89	49091.86
589.09	49216.78
589.29	49014.04
589.49	49569.04
589.69	49149.20
589.89	49616.14
590.08	49306.90
590.28	49071.38
590.48	49710.35
590.68	49517.84
590.88	49288.46
591.08	49841.42
591.28	49222.93
591.47	50091.27
591.67	49698.06
591.87	50103.56
592.07	49872.14
592.27	49829.13
592.47	50085.12
592.67	50371.84
592.86	49610.00
593.06	49919.24
593.26	50076.93
593.46	50242.82
593.66	50015.49
593.86	50134.28
594.05	50156.80
594.25	50576.64
594.45	50169.09
594.65	50113.80
594.85	50660.60
595.05	50615.55
595.24	50599.16
595.44	51240.18
595.64	50740.47
595.84	50732.28
596.04	51100.92
596.23	50894.07
596.43	50783.48
596.63	50887.93
596.83	51139.83
597.03	51047.67
597.22	51264.75
597.42	51072.24
597.62	51242.23
597.82	51516.65
598.02	51475.69
598.21	51909.86
598.41	51442.93
598.61	51397.87
598.81	51705.07
599.01	51612.91
599.20	51535.09
599.40	51381.49
599.60	51942.63
599.80	51983.59
600.00	51864.81
600.19	52196.58
600.39	51797.23
600.59	52247.78
600.79	52428.00
600.98	51719.40
601.18	52335.84
601.38	52352.23
601.58	52716.76
601.78	52446.43
601.97	52452.58
602.17	52755.68
602.37	52339.94
602.57	52628.70
602.76	52890.84
602.96	52407.52
603.16	53058.77
603.36	52491.49
603.55	53124.31
603.75	52647.13
603.95	53046.49
604.15	52815.07
604.34	52878.55
604.54	53066.97
604.74	53036.25
604.94	53155.03
605.13	53241.04
605.33	53007.58
605.53	53077.21
605.73	53783.76
605.92	53279.96
606.12	53300.43
606.32	53365.97
606.52	53505.23
606.71	53775.56
606.91	53869.77
607.11	53599.44
607.30	53959.88
607.50	53638.35
607.70	53830.86
607.90	53773.52
608.09	53460.18
608.29	54146.25
608.49	54424.77
608.68	54316.23
608.88	53787.85
609.08	54074.57
609.28	54047.94
609.47	53521.62
609.67	54467.78
609.87	54082.76
610.06	54031.56
610.26	54129.86
610.46	54183.11
610.66	54129.86
610.85	54435.01
611.05	54068.42
611.25	54480.06
611.44	54041.80
611.64	54426.82
611.84	54121.67
612.03	54238.40
612.23	54439.11
612.43	54572.22
612.62	54467.78
612.82	54611.13
613.02	54822.08
613.21	54273.22
613.41	54072.52
613.61	54521.02
613.80	54289.60
614.00	54596.80
614.20	54514.88
614.39	54820.03
614.59	54854.84
614.79	54666.43
614.98	54668.48
615.18	54490.30
615.38	54834.36
615.57	54248.64
615.77	54865.08
615.97	54600.89
616.16	54594.75
616.36	54498.50
616.56	54703.29
616.75	54547.65
616.95	54584.51
617.15	55022.78
617.34	54576.32
617.54	54908.09
617.74	55237.81
617.93	54453.44
618.13	54244.55
618.32	54396.10
618.52	54645.95
618.72	54250.69
618.91	54713.53
619.11	54498.50
619.31	55053.50
619.50	54664.38
619.70	54549.70
619.90	54693.05
620.09	54717.63
620.29	55024.82
620.48	54400.19
620.68	54852.80
620.88	54662.33
621.07	55182.52
621.27	54709.44
621.46	54334.66
621.66	54523.07
621.86	54236.36
622.05	54850.75
622.25	55026.87
622.44	54713.53
622.64	54576.32
622.84	54779.07
623.03	54168.77
623.23	54203.59
623.42	54590.66
623.62	54439.11
623.82	54666.43
624.01	54903.99
624.21	54867.13
624.40	54736.06
624.60	54566.08
624.80	54205.64
624.99	54336.71
625.19	54252.74
625.38	54918.33
625.58	54408.39
625.77	54564.03
625.97	54363.33
626.17	54031.56
626.36	54375.62
626.56	54781.12
626.75	54203.59
626.95	54316.23
627.14	54623.42
627.34	54711.49
627.54	54351.04
627.73	54566.08
627.93	54760.64
628.12	54369.47
628.32	54244.55
628.51	54389.95
628.71	54662.33
628.90	53963.98
629.10	54764.73
629.30	54664.38
629.49	54748.35
629.69	54490.30
629.88	54764.73
630.08	54629.57
630.27	54723.77
630.47	54662.33
630.66	54449.35
630.86	54441.15
631.05	54140.10
631.25	54789.31
631.44	54650.05
631.64	54351.04
631.84	54879.42
632.03	54949.05
632.23	55258.29
632.42	55043.26
632.62	54975.67
632.81	54451.39
633.01	54926.52
633.20	54715.58
633.40	54664.38
633.59	54756.54
633.79	54340.80
633.98	54760.64
634.18	54742.20
634.37	54961.34
634.57	54871.23
634.76	54973.63
634.96	54625.47
635.15	54750.40
635.35	54721.72
635.54	54428.87
635.74	54652.09
635.93	54506.69
636.13	55076.02
636.32	54883.51
636.52	54430.91
636.71	54891.71
636.91	54807.74
637.10	55112.89
637.30	54654.14
637.49	54983.86
637.69	54752.44
637.88	55282.87
638.08	54817.98
638.27	54717.63
638.46	54957.24
638.66	54527.17
638.85	54760.64
639.05	55086.26
639.24	55362.74
639.44	55086.26
639.63	54924.47
639.83	55229.62
640.02	55039.16
640.22	54920.38
640.41	55667.89
640.61	54684.86
640.80	55106.74
640.99	55291.06
641.19	55522.48
641.38	55104.70
641.58	54668.48
641.77	55196.85
641.97	54510.78
642.16	55100.60
642.36	55340.21
642.55	55354.55
642.74	54656.19
642.94	55227.57
643.13	54928.57
643.33	55317.68
643.52	55172.28
643.72	55516.34
643.91	55004.34
644.10	55039.16
644.30	55295.16
644.49	55542.96
644.69	55418.03
644.88	55235.77
645.08	55268.53
645.27	55008.44
645.46	55108.79
645.66	55753.90
645.85	55305.40
646.05	55628.98
646.24	55473.33
646.43	55671.98
646.63	55407.79
646.82	55598.26
647.02	54916.28
647.21	56030.38
647.40	55227.57
647.60	55471.28
647.79	55811.24
647.99	55796.91
648.18	55563.44
648.37	55872.68
648.57	55878.83
648.76	55813.29
648.96	55162.04
649.15	55686.32
649.34	56005.80
649.54	55645.36
649.73	55456.95
649.92	55661.74
650.12	55751.85
650.31	55872.68
650.51	55751.85
650.70	55940.27
650.89	55350.45
651.09	56022.19
651.28	55946.41
651.47	55950.51
651.67	55762.09
651.86	56120.49
652.06	55123.13
652.25	56126.63
652.44	55612.59
652.64	55506.10
652.83	55346.36
653.02	55884.97
653.22	55784.62
653.41	55579.82
653.60	55819.44
653.80	55712.94
653.99	55997.61
654.18	55723.18
654.38	55448.75
654.57	56239.27
654.76	55803.05
654.96	55653.55
655.15	55743.66
655.34	55960.75
655.54	55188.66
655.73	55825.58
655.92	56136.87
656.12	55698.61
656.31	56202.41
656.50	55686.32
656.70	56057.00
656.89	56116.39
657.08	56028.33
657.28	55506.10
657.47	55862.44
657.66	56100.01
657.86	55719.09
658.05	56001.71
658.24	56255.65
658.43	55973.03
658.63	56259.75
658.82	56183.97
659.01	56005.80
659.21	56313.00
659.40	55876.78
659.59	56231.08
659.79	56317.09
659.98	56173.73
660.17	56200.36
660.36	56143.02
660.56	56417.44
660.75	56593.57
660.94	56159.40
661.14	56190.12
661.33	56085.67
661.52	55811.24
661.71	56323.24
661.91	55977.13
662.10	56128.68
662.29	56128.68
662.49	56061.10
662.68	56384.68
662.87	56329.38
663.06	56370.34
663.26	55823.53
663.45	56378.53
663.64	56063.14
663.83	56183.97
664.03	56564.90
664.22	56585.38
664.41	56685.73
664.60	55878.83
664.80	56626.34
664.99	56220.84
665.18	56177.83
665.37	56356.00
665.57	56546.47
665.76	56353.96
665.95	56237.22
666.14	55784.62
666.34	55973.03
666.53	55731.37
666.72	55899.31
666.91	56149.16
667.11	56038.57
667.30	56157.35
667.49	55604.40
667.68	56157.35
667.87	56042.66
668.07	56319.14
668.26	56415.40
668.45	55870.64
668.64	55844.01
668.84	56599.71
669.03	56552.61
669.22	56267.94
669.41	56091.82
669.60	56388.77
669.80	56177.83
669.99	56765.60
670.18	56065.19
670.37	56022.19
670.57	56831.13
670.76	56112.30
670.95	55979.18
671.14	56601.76
671.33	56226.98
671.53	56618.14
671.72	56222.89
671.91	55872.68
672.10	56059.05
672.29	56278.18
672.48	56032.42
672.68	56607.90
672.87	56147.11
673.06	55999.66
673.25	55620.78
673.44	56042.66
673.64	55831.72
673.83	55381.17
674.02	56149.16
674.21	56079.53
674.40	56284.33
674.59	55891.12
674.79	56106.15
674.98	55946.41
675.17	56190.12
675.36	56108.20
675.55	56095.91
675.74	55833.77
675.94	55882.92
676.13	56186.02
676.32	56165.54
676.51	56571.04
676.70	56108.20
676.89	55549.10
677.08	56179.88
677.28	55719.09
677.47	55936.17
677.66	56792.22
677.85	56259.75
678.04	56394.92
678.23	56380.58
678.42	56538.27
678.62	55993.51
678.81	56005.80
679.00	56249.51
679.19	56378.53
679.38	56263.85
679.57	55884.97
679.76	55893.16
679.96	55981.23
680.15	56333.48
680.34	56046.76
680.53	55977.13
680.72	56083.62
680.91	56292.52
681.10	55569.58
681.29	56435.87
681.48	56100.01
681.68	56186.02
681.87	55868.59
682.06	56151.21
682.25	55602.35
682.44	55588.02
682.63	55708.85
682.82	55366.84
683.01	55737.52
683.20	55313.59
683.39	55661.74
683.59	55624.88
683.78	54887.61
683.97	55563.44
684.16	55487.67
684.35	55041.21
684.54	55946.41
684.73	55876.78
684.92	55203.00
685.11	55432.37
685.30	55702.70
685.49	56157.35
685.69	55850.16
685.88	55637.17
686.07	55508.14
686.26	55364.79
686.45	55467.19
686.64	55145.65
686.83	55329.97
687.02	55444.66
687.21	55866.54
687.40	55139.51
687.59	55364.79
687.78	55385.27
687.97	55266.48
688.16	55311.54
688.35	55194.81
688.54	55014.58
688.74	55303.35
688.93	55125.17
689.12	55164.09
689.31	55270.58
689.50	55200.95
689.69	54817.98
689.88	54846.65
690.07	55254.20
690.26	54830.27
690.45	55303.35
690.64	54998.20
690.83	55563.44
691.02	55334.07
691.21	55116.98
691.40	55403.70
691.59	55084.22
691.78	55198.90
691.97	55510.19
692.16	54912.19
692.35	54752.44
692.54	55022.78
692.73	54830.27
692.92	54916.28
693.11	54680.77
693.30	54523.07
693.49	54889.66
693.68	54766.78
693.87	54717.63
694.06	54723.77
694.25	54965.43
694.44	54672.57
694.63	54537.41
694.82	54953.15
695.01	54443.20
695.20	54400.19
695.39	54305.99
695.58	54961.34
695.77	54240.45
695.96	54461.63
696.15	54572.22
696.34	54191.30
696.53	54490.30
696.72	54500.54
696.91	54527.17
697.10	54363.33
697.29	54414.53
697.48	54416.58
697.67	54234.31
697.86	54265.03
698.05	54330.56
698.24	54402.24
698.43	54002.89
698.62	54363.33
698.81	53996.74
699.00	54576.32
699.19	54136.01
699.38	54406.34
699.57	53720.27
699.76	54547.65
699.95	53834.95
700.14	53484.75
700.32	54095.05
700.51	54088.90
700.70	54256.84
700.89	54181.06
701.08	53974.22
701.27	53941.45
701.46	54172.87
701.65	53042.39
701.84	53923.02
702.03	53828.81
702.22	53589.20
702.41	53353.68
702.60	53867.72
702.79	53925.07
702.98	53118.17
703.17	53677.26
703.35	53744.84
703.54	53519.57
703.73	53497.04
703.92	53511.38
704.11	53542.10
704.30	53075.16
704.49	53112.02
704.68	53144.79
704.87	53441.74
705.06	52890.84
705.25	52888.79
705.43	53474.51
705.62	53165.27
705.81	52983.00
706.00	53306.58
706.19	53079.25
706.38	52966.62
706.57	52620.51
706.76	53038.29
706.95	53171.41
707.14	53191.89
707.32	52634.84
707.51	52720.86
707.70	52987.10
707.89	52937.94
708.08	52853.98
708.27	53079.25
708.46	53112.02
708.65	52554.97
708.84	52745.44
709.02	52837.59
709.21	52692.19
709.40	52663.52
709.59	52960.47
709.78	52524.25
709.97	52591.84
710.16	52444.38
710.34	52714.72
710.53	52694.24
710.72	52520.16
710.91	52677.85
711.10	52735.20
711.29	52724.96
711.48	52331.75
711.66	52272.35
711.85	52063.46
712.04	52755.68
712.23	52585.69
712.42	52565.21
712.61	52045.03
712.80	52346.08
712.98	52124.90
713.17	51655.92
713.36	52215.01
713.55	51997.93
713.74	52360.42
713.93	52081.89
714.11	52159.72
714.30	52196.58
714.49	51610.86
714.68	52255.97
714.87	51997.93
715.06	51920.10
715.24	51897.58
715.43	51895.53
715.62	51483.89
715.81	51922.15
716.00	51956.97
716.18	51467.50
716.37	51047.67
716.56	51528.94
716.75	52026.60
716.94	51578.09
717.12	51436.78
717.31	52290.79
717.50	51277.04
717.69	51363.06
717.88	51107.06
718.06	51664.11
718.25	51344.62
718.44	50908.41
718.63	51164.40
718.82	50697.47
719.00	51041.53
719.19	50754.81
719.38	51010.81
719.57	50629.88
719.76	50459.90
719.94	50582.78
720.13	50803.96
720.32	50951.41
720.51	50715.90
720.69	50771.19
720.88	50697.47
721.07	50642.17
721.26	50300.16
721.44	50070.79
721.63	50289.92
721.82	49859.85
722.01	50214.15
722.20	50019.59
722.38	49827.08
722.57	49278.22
722.76	49714.44
722.95	49736.97
723.13	49683.72
723.32	49546.51
723.51	49575.18
723.70	49433.87
723.88	49911.05
724.07	49329.42
724.26	49845.51
724.44	49198.35
724.63	49515.79
724.82	49460.49
725.01	49415.44
725.19	49372.43
725.38	48731.42
725.57	49075.48
725.76	49437.97
725.94	49200.40
726.13	48981.27
726.32	49229.07
726.51	48835.86
726.69	49192.21
726.88	49034.52
727.07	49222.93
727.25	49102.10
727.44	49175.83
727.63	48917.78
727.82	48626.97
728.00	49145.11
728.19	49104.15
728.38	49247.50
728.56	48401.69
728.75	49202.45
728.94	48684.31
729.12	48823.58
729.31	49141.01
729.50	48639.26
729.69	49009.94
729.87	48919.83
730.06	48844.05
730.25	48817.43
730.43	49177.87
730.62	48934.17
730.81	48850.20
730.99	48739.61
731.18	48821.53
731.37	48622.87
731.55	48772.38
731.74	48866.58
731.93	48829.72
732.11	48856.34
732.30	49003.80
732.49	48575.77
732.67	48815.38
732.86	48768.28
733.05	48915.73
733.23	48401.69
733.42	48567.58
733.61	48723.22
733.79	48928.02
733.98	49102.10
734.17	48925.97
734.35	48684.31
734.54	48766.23
734.73	48665.88
734.91	48522.52
735.10	48330.01
735.29	48768.28
735.47	48250.14
735.66	48340.25
735.84	48665.88
736.03	48280.86
736.22	48381.21
736.40	48495.90
736.59	48069.92
736.78	48393.50
736.96	47961.38
737.15	47963.43
737.33	48264.48
737.52	48092.45
737.71	48000.29
737.89	48338.21
738.08	47592.75
738.27	47750.44
738.45	48399.65
738.64	48008.48
738.82	47787.30
739.01	47807.78
739.20	47779.11
739.38	47838.50
739.57	47945.00
739.75	47885.61
739.94	47650.09
740.13	47723.82
740.31	47836.45
740.50	47789.35
740.68	47594.79
740.87	47809.83
741.06	47953.19
741.24	47549.74
741.43	47598.89
741.61	47818.02
741.80	47240.50
741.99	47650.09
742.17	47441.20
742.36	47152.43
742.54	47392.04
742.73	47488.30
742.91	47533.35
743.10	47512.88
743.29	47281.45
743.47	47418.67
743.66	47023.41
743.84	47299.89
744.03	47289.65
744.21	46865.72
744.40	47283.50
744.59	46921.01
744.77	46865.72
744.96	46937.40
745.14	47297.84
745.33	46937.40
745.51	46568.76
745.70	47293.74
745.88	47201.58
746.07	47224.11
746.26	46648.63
746.44	46802.23
746.63	46544.19
746.81	46734.65
747.00	46214.46
747.18	47070.51
747.37	46556.47
747.55	46736.69
747.74	47095.09
747.92	46777.65
748.11	46697.78
748.29	46523.71
748.48	46650.68
748.66	45733.19
748.85	46533.95
749.03	46701.88
749.22	46415.16
749.41	46449.98
749.59	46632.25
749.78	46363.96
749.96	46003.52
750.15	46478.65
750.33	45882.69
750.52	46048.58
750.70	46042.43
750.89	46099.78
751.07	45942.08
751.26	46044.48
751.44	45882.69
751.63	45821.25
751.81	45479.24
752.00	45743.43
752.18	45634.89
752.37	45432.14
752.55	45937.99
752.74	45380.94
752.92	45733.19
753.10	45620.55
753.29	46032.19
753.47	45307.21
753.66	44840.28
753.84	45417.80
754.03	45544.78
754.21	45032.78
754.40	45421.90
754.58	45526.35
754.77	45469.00
754.95	45325.64
755.14	45055.31
755.32	45141.33
755.51	44442.97
755.69	44328.28
755.88	45077.84
756.06	44932.43
756.24	45104.46
756.43	44547.42
756.61	44578.14
756.80	44502.36
756.98	44186.97
757.17	44643.67
757.35	44748.12
757.54	44543.32
757.72	44934.48
757.90	44825.94
758.09	44676.44
758.27	44602.71
758.46	44277.08
758.64	44483.93
758.83	44338.52
759.01	44395.87
759.19	44246.36
759.38	43885.92
759.56	44455.26
759.75	44320.09
759.93	44055.90
760.12	44098.91
760.30	44146.01
760.48	43922.79
760.67	43607.40
760.85	43611.49
761.04	44031.33
761.22	44094.82
761.40	43894.11
761.59	43822.44
761.77	43758.95
761.96	43812.20
762.14	43877.73
762.32	43603.30
762.51	43648.36
762.69	43441.51
762.88	43568.49
763.06	43349.35
763.24	43378.03
763.43	43517.29
763.61	43394.41
763.80	43386.22
763.98	43169.13
764.16	43474.28
764.35	43230.57
764.53	42390.91
764.72	43246.96
764.90	43144.56
765.08	42722.68
765.27	42896.75
765.45	42616.18
765.63	42358.14
765.82	42810.74
766.00	42636.66
766.18	42503.54
766.37	43036.02
766.55	42911.09
766.74	42648.95
766.92	42202.49
767.10	42579.32
767.29	42169.72
767.47	41979.26
767.65	42446.20
767.84	41919.87
768.02	42415.48
768.20	42136.96
768.39	42044.80
768.57	42257.79
768.75	42245.50
768.94	41981.31
769.12	42087.81
769.30	41631.11
769.49	41987.46
769.67	41766.27
769.85	41616.77
770.04	41735.56
770.22	41293.19
770.40	41360.78
770.59	41176.46
770.77	41514.37
770.95	41870.72
771.14	41334.15
771.32	41645.44
771.50	40912.27
771.69	41215.37
771.87	41297.29
772.05	41303.43
772.24	40703.38
772.42	41061.77
772.60	40887.70
772.78	41145.74
772.97	40830.35
773.15	41321.87
773.33	40973.71
773.52	40617.36
773.70	41018.77
773.88	40891.79
774.07	40676.76
774.25	40584.60
774.43	41063.82
774.61	40723.86
774.80	40986.00
774.98	41108.88
775.16	41344.39
775.34	40996.24
775.53	40787.35
775.71	40664.47
775.89	41170.32
776.08	40953.23
776.26	41393.54
776.44	41047.44
776.62	40764.82
776.81	40549.78
776.99	41045.39
777.17	41100.68
777.35	41026.96
777.54	41129.36
777.72	40951.18
777.90	40777.11
778.08	41084.30
778.27	41037.20
778.45	41039.25
778.63	41569.67
778.81	40961.42
779.00	41549.19
779.18	40945.04
779.36	41356.68
779.54	41207.18
779.73	40971.66
779.91	41704.84
780.09	41528.71
780.27	41725.32
780.46	41565.57
780.64	42163.58
780.82	41856.39
781.00	41684.36
781.19	41846.15
781.37	41950.59
781.55	41745.80
781.73	41997.70
781.91	41231.75
782.10	41459.08
782.28	41678.21
782.46	41586.05
782.64	41926.02
782.82	41641.35
783.01	41567.62
783.19	41463.18
783.37	41485.70
783.55	41670.02
783.74	41989.50
783.92	41469.32
784.10	42177.92
784.28	42034.56
784.46	41442.70
784.64	41555.33
784.83	41649.54
785.01	42472.82
785.19	41917.82
785.37	41637.25
785.55	41418.12
785.74	41528.71
785.92	41477.51
786.10	41622.92
786.28	41868.67
786.46	41678.21
786.64	41450.89
786.83	41477.51
787.01	41321.87
787.19	40977.81
787.37	41162.12
787.55	41069.97
787.74	41117.07
787.92	41303.43
788.10	41178.51
788.28	41182.60
788.46	40930.70
788.64	40666.52
788.82	40910.22
789.01	40826.26
789.19	41037.20
789.37	40457.62
789.55	40701.33
789.73	40365.46
789.91	40480.15
790.09	40605.08
790.28	40123.80
790.46	40261.02
790.64	40451.48
790.82	40611.22
791.00	40228.25
791.18	40291.74
791.36	39832.99
791.55	39970.21
791.73	39689.63
791.91	39796.13
792.09	39935.39
792.27	39726.50
792.45	39912.86
792.63	39677.35
792.81	39495.08
793.00	39646.63
793.18	39089.58
793.36	39167.40
793.54	39222.70
793.72	39538.08
793.90	39163.31
794.08	39079.34
794.26	39196.07
794.44	38557.11
794.62	38393.27
794.81	38782.38
794.99	38573.49
795.17	38995.37
795.35	38579.64
795.53	38899.12
795.71	38841.78
795.89	38184.38
796.07	38403.51
796.25	37653.95
796.43	37983.68
796.61	37963.20
796.80	37856.70
796.98	38096.31
797.16	37033.42
797.34	37469.64
797.52	37459.40
797.70	37664.19
797.88	37436.87
798.06	37141.96
798.24	37219.78
798.42	37281.22
798.60	36971.98
798.78	36994.51
798.96	37101.00
799.14	36804.05
799.32	36910.54
799.51	36662.74
799.69	36613.59
799.87	36885.97
800.05	36310.49
800.23	36326.87
800.41	36179.42
800.59	36371.92
800.77	36468.18
800.95	35759.58
801.13	35993.05
801.31	35782.11
801.49	36183.51
801.67	35524.07
801.85	35573.22
802.03	35372.52
802.21	35515.87
802.39	35233.25
802.57	35462.63
802.75	35354.08
802.93	35145.19
803.11	35089.90
803.29	35050.99
803.47	34903.53
803.65	34803.18
803.83	34635.25
804.01	34565.62
804.19	34364.92
804.37	34500.08
804.55	34237.94
804.73	34518.51
804.91	34399.73
805.09	34387.44
805.27	34332.15
805.45	34229.75
805.63	34444.79
805.81	34201.08
805.99	34063.86
806.17	34280.95
806.35	34326.00
806.53	33959.42
806.71	33750.52
806.89	33656.32
807.07	33728.00
807.25	33758.72
807.43	33437.19
807.61	33306.12
807.79	33627.65
807.97	32912.91
808.15	33125.89
808.33	32796.17
808.51	32906.76
808.69	32757.26
808.87	32302.61
809.05	32409.11
809.23	32728.59
809.41	32515.60
809.59	32581.13
809.77	32822.80
809.95	32681.49
810.13	32585.23
810.31	32540.18
810.49	32386.58
810.67	32572.94
810.84	32376.34
811.02	32392.72
811.20	31872.54
811.38	32175.64
811.56	31888.92
811.74	31594.01
811.92	31643.17
812.10	31874.59
812.28	32112.15
812.46	31872.54
812.64	31645.21
812.82	31823.39
813.00	31499.81
813.18	31786.52
813.36	31338.02
813.53	31282.72
813.71	31151.65
813.89	31006.25
814.07	31266.34
814.25	31366.69
814.43	30809.64
814.61	31082.02
814.79	30959.14
814.97	30914.09
815.15	30998.06
815.33	30914.09
815.50	30334.51
815.68	30721.58
815.86	30905.90
816.04	30381.62
816.22	30346.80
816.40	30492.21
816.58	30352.94
816.76	30099.00
816.94	30135.86
817.11	30346.80
817.29	30244.40
817.47	29972.02
817.65	30348.85
817.83	29785.66
818.01	29894.20
818.19	29855.29
818.37	29703.74
818.54	29572.67
818.72	29808.19
818.90	29867.58
819.08	29654.59
819.26	29443.65
819.44	29447.74
819.62	29230.66
819.80	29621.82
819.97	29308.48
820.15	29152.84
820.33	29095.49
820.51	29328.96
820.69	28898.89
820.87	29558.33
821.05	29658.68
821.22	28878.41
821.40	29169.22
821.58	29070.92
821.76	28943.94
821.94	28743.24
822.12	29056.58
822.29	28821.06
822.47	28669.51
822.65	29054.53
822.83	28642.89
823.01	28620.36
823.19	28550.73
823.36	28360.27
823.54	28311.12
823.72	28718.67
823.90	28378.70
824.08	28376.66
824.25	28429.90
824.43	28032.60
824.61	28194.39
824.79	27991.64
824.97	27786.84
825.15	28485.20
825.32	28266.06
825.50	27833.94
825.68	27731.54
825.86	28016.21
826.04	27973.21
826.21	27856.47
826.39	27692.63
826.57	27668.06
826.75	27883.09
826.93	27647.58
827.10	27569.76
827.28	27596.38
827.46	27635.29
827.64	27563.61
827.81	27690.59
827.99	27512.41
828.17	27450.97
828.35	27141.73
828.53	27487.84
828.70	27078.24
828.88	27215.46
829.06	27264.61
829.24	27324.00
829.41	27321.95
829.59	27446.88
829.77	27002.47
829.95	27063.91
830.12	26820.20
830.30	27047.52
830.48	27231.84
830.66	26938.98
830.84	26844.77
831.01	26971.75
831.19	26850.92
831.37	26676.84
831.55	26672.74
831.72	26617.45
831.90	26472.04
832.08	26572.39
832.25	26592.87
832.43	26408.56
832.61	26349.17
832.79	26209.90
832.96	26439.28
833.14	26236.53
833.32	26674.79
833.50	26279.54
833.67	26488.43
833.85	26302.06
834.03	25874.04
834.20	26367.60
834.38	26455.66
834.56	26302.06
834.74	25919.09
834.91	26095.22
835.09	26058.35
835.27	25603.71
835.44	25820.79
835.62	25372.28
835.80	25509.50
835.98	25835.13
836.15	25812.60
836.33	25568.89
836.51	25855.61
836.68	25773.69
836.86	25650.81
837.04	25843.32
837.21	25441.92
837.39	25433.72
837.57	25550.46
837.75	25622.14
837.92	25020.03
838.10	25233.02
838.28	25208.45
838.45	24966.79
838.63	25022.08
838.81	25022.08
838.98	25075.33
839.16	25015.94
839.34	25063.04
839.51	24753.80
839.69	24731.27
839.87	24942.21
840.04	24944.26
840.22	25171.58
840.40	25097.86
840.57	24714.89
840.75	24827.53
840.93	24446.60
841.10	24811.14
841.28	24868.48
841.46	24487.56
841.63	24673.93
841.81	24934.02
841.98	24778.37
842.16	24493.71
842.34	24698.50
842.51	24299.15
842.69	24774.28
842.87	24313.48
843.04	24485.51
843.22	24092.30
843.40	24301.20
843.57	24354.44
843.75	24327.82
843.92	24510.09
844.10	24407.69
844.28	24223.37
844.45	24303.25
844.63	24391.31
844.81	24075.92
844.98	23940.75
845.16	24051.34
845.33	24280.72
845.51	24118.93
845.69	23926.42
845.86	24149.65
846.04	23961.23
846.21	23834.26
846.39	23930.51
846.57	23801.49
846.74	23875.22
846.92	23807.64
847.09	24028.82
847.27	23789.20
847.45	23623.32
847.62	23283.36
847.80	23647.90
847.97	23570.07
848.15	23828.12
848.32	23568.02
848.50	23365.28
848.68	23340.70
848.85	23373.47
849.03	23242.40
849.20	23592.60
849.38	23195.29
849.56	23219.87
849.73	23076.51
849.91	23260.83
850.08	23174.81
850.26	23056.03
850.43	23312.03
850.61	22890.15
850.78	22855.33
850.96	23068.32
851.14	22974.11
851.31	23340.70
851.49	22939.30
851.66	22795.94
851.84	22922.91
852.01	23029.41
852.19	22765.22
852.36	22951.59
852.54	22793.89
852.71	22615.72
852.89	22693.54
853.07	22615.72
853.24	22937.25
853.42	22832.80
853.59	22705.83
853.77	22595.24
853.94	22478.50
854.12	22859.43
854.29	22142.64
854.47	22298.28
854.64	22427.31
854.82	22466.22
854.99	22513.32
855.17	22089.39
855.34	22181.55
855.52	22259.37
855.69	22458.03
855.87	21970.61
856.04	22040.24
856.22	22245.04
856.39	21976.75
856.57	21937.84
856.74	21966.51
856.92	22140.59
857.09	21784.24
857.27	21989.04
857.44	22238.89
857.62	21845.68
857.79	21931.70
857.97	22140.59
858.14	21724.85
858.32	21894.83
858.49	21665.46
858.67	21587.64
858.84	21817.01
859.02	21767.86
859.19	21487.29
859.37	21669.56
859.54	21683.89
859.72	21876.40
859.89	21548.73
860.06	21835.44
860.24	21276.35
860.41	21616.31
860.59	21264.06
860.76	21466.81
860.94	21257.92
861.11	21444.28
861.29	21425.85
861.46	21079.74
861.64	21206.72
861.81	21225.15
861.98	21061.31
862.16	21003.97
862.33	21092.03
862.51	20887.23
862.68	21180.09
862.86	21018.30
863.03	21200.57
863.21	21001.92
863.38	20901.57
863.55	20784.83
863.73	20975.30
863.90	20727.49
864.08	20989.63
864.25	20690.63
864.43	20764.36
864.60	20453.06
864.77	20403.91
864.95	20848.32
865.12	20416.20
865.30	20473.54
865.47	20704.96
865.64	20604.61
865.82	20377.29
865.99	20358.86
866.17	20739.78
866.34	20301.51
866.51	20354.76
866.69	20348.62
866.86	20631.24
867.04	20438.73
867.21	20563.65
867.38	20303.56
867.56	20231.88
867.73	20168.40
867.91	20137.68
868.08	20256.46
868.25	19848.91
868.43	19883.73
868.60	20090.57
868.78	19822.29
868.95	20088.53
869.12	20147.92
869.30	20088.53
869.47	20233.93
869.64	19467.99
869.82	19910.35
869.99	19928.78
870.16	19793.62
870.34	19566.29
870.51	19728.08
870.69	19627.73
870.86	19668.69
871.03	19769.04
871.21	19654.36
871.38	19525.33
871.55	19435.22
871.73	19486.42
871.90	19414.74
872.07	19474.13
872.25	19166.94
872.42	19357.40
872.59	19236.57
872.77	19298.01
872.94	18990.81
873.11	19334.87
873.29	19279.58
873.46	19027.68
873.63	18966.24
873.81	19027.68
873.98	18794.21
874.15	18831.07
874.33	18779.87
874.50	18726.63
874.67	18691.81
874.85	18607.84
875.02	18669.28
875.19	18712.29
875.37	18659.04
875.54	18460.39
875.71	18597.60
875.88	18519.78
876.06	18556.64
876.23	18380.52
876.40	18390.76
876.58	18169.58
876.75	18073.32
876.92	18271.98
877.10	18439.91
877.27	18452.20
877.44	18378.47
877.61	17983.21
877.79	18018.03
877.96	17891.06
878.13	17991.41
878.31	17909.49
878.48	17915.63
878.65	17927.92
878.82	18126.57
879.00	18130.67
879.17	17766.13
879.34	17770.22
879.51	17624.82
879.69	17493.75
879.86	17882.86
880.03	17649.39
880.21	17716.98
880.38	17688.31
880.55	17721.07
880.72	17286.90
880.90	17782.51
881.07	17319.67
881.24	17602.29
881.41	17471.22
881.59	17444.60
881.76	17307.38
881.93	17327.86
882.10	17354.49
882.28	17565.43
882.45	17364.73
882.62	17086.20
882.79	17139.45
882.96	16885.50
883.14	17157.88
883.31	17237.75
883.48	17094.40
883.65	17227.51
883.83	17157.88
884.00	17270.52
884.17	17272.57
884.34	17082.11
884.51	17217.27
884.69	16975.61
884.86	16944.89
885.03	16994.04
885.20	16944.89
885.38	16928.51
885.55	16649.99
885.72	16963.33
885.89	16725.76
886.06	16680.71
886.24	16637.70
886.41	16580.36
886.58	16865.02
886.75	17065.72
886.92	16770.82
887.10	16785.15
887.27	16590.59
887.44	16557.83
887.61	16779.01
887.78	16756.48
887.95	16752.38
888.13	16443.14
888.30	16445.19
888.47	16393.99
888.64	16510.72
888.81	16226.06
888.99	16377.61
889.16	16297.74
889.33	16375.56
889.50	16082.70
889.67	16267.02
889.84	16084.75
890.01	16054.03
890.19	16082.70
890.36	16064.27
890.53	15918.86
890.70	15906.57
890.87	15941.39
891.04	15867.66
891.22	15843.09
891.39	16037.64
891.56	15791.89
891.73	15922.96
891.90	15699.73
892.07	15961.87
892.24	15978.25
892.42	16113.42
892.59	16013.07
892.76	15757.07
892.93	15605.52
893.10	15828.75
893.27	15931.15
893.44	15517.46
893.61	15687.44
893.79	15582.99
893.96	15539.99
894.13	15480.60
894.30	15648.53
894.47	15492.88
894.64	15634.19
894.81	15456.02
894.98	15638.29
895.15	15730.45
895.33	15507.22
895.50	15517.46
895.67	15521.56
895.84	15482.64
896.01	15578.90
896.18	15382.29
896.35	15630.10
896.52	15447.83
896.69	15394.58
896.86	15400.72
897.04	15279.89
897.21	15386.39
897.38	15656.72
897.55	15281.94
897.72	15638.29
897.89	15435.54
898.06	15644.43
898.23	15535.89
898.40	15337.24
898.57	15423.25
898.74	15468.31
898.91	15386.39
899.08	15580.95
899.26	15521.56
899.43	15402.77
899.60	15449.88
899.77	15421.20
899.94	15359.77
900.11	15265.56
900.28	15552.27
900.45	15378.20
900.62	15173.40
900.79	15406.87
900.96	15083.29
901.13	15130.39
901.30	15503.12
901.47	15425.30
901.64	15288.09
901.81	15539.99
901.98	15255.32
902.15	15582.99
902.32	15204.12
902.49	15425.30
902.66	15331.09
902.83	15324.95
903.01	15343.38
903.18	15433.49
903.35	15298.33
903.52	15263.51
903.69	15406.87
903.86	15456.02
904.03	15236.89
904.20	15585.04
904.37	15376.15
904.54	15304.47
904.71	15165.21
904.88	15208.22
905.05	15165.21
905.22	15351.57
905.39	15169.30
905.56	15435.54
905.73	15095.58
905.90	15367.96
906.07	15183.64
906.24	15083.29
906.41	15245.08
906.58	15185.69
906.75	15417.11
906.92	15013.66
907.09	15130.39
907.26	15347.48
907.43	15032.09
907.60	15154.97
907.77	15146.78
907.93	15228.70
908.10	15339.29
908.27	15171.35
908.44	15099.67
908.61	15103.77
908.78	15114.01
908.95	15060.76
909.12	15060.76
909.29	15077.15
909.46	15036.19
909.63	15048.47
909.80	15261.46
909.97	15281.94
910.14	15040.28
910.31	14995.23
910.48	15144.73
910.65	14941.98
910.82	14874.40
910.99	14878.49
911.16	14683.94
911.33	14874.40
911.50	14884.64
911.66	14817.05
911.83	15181.59
912.00	14851.87
912.17	14479.14
912.34	15005.47
912.51	14548.77
912.68	14692.13
912.85	14790.43
913.02	14847.77
913.19	14542.63
913.36	14642.98
913.53	14780.19
913.70	14509.86
913.86	14743.33
914.03	14712.61
914.20	14505.76
914.37	14577.44
914.54	14458.66
914.71	14675.74
914.88	14554.91
915.05	14554.91
915.22	14393.12
915.39	14257.96
915.55	14206.76
915.72	14085.93
915.89	14235.43
916.06	13891.37
916.23	14155.56
916.40	13973.29
916.57	14042.92
916.74	13973.29
916.91	13739.82
917.07	13793.07
917.24	13985.58
917.41	14014.25
917.58	14096.17
917.75	13793.07
917.92	13520.69
918.09	13797.17
918.26	13492.02
918.42	13682.48
918.59	13741.87
918.76	13410.10
918.93	13524.79
919.10	13440.82
919.27	13385.52
919.44	13561.65
919.60	13571.89
919.77	13438.77
919.94	13324.08
920.11	13174.58
920.28	13354.80
920.45	13145.91
920.61	12988.22
920.78	13186.87
920.95	13066.04
921.12	12916.54
921.29	13057.85
921.46	13010.75
921.62	12951.35
921.79	13004.60
921.96	12832.57
922.13	12881.72
922.30	12658.49
922.47	12746.56
922.63	12736.32
922.80	12607.30
922.97	12554.05
923.14	12220.23
923.31	12709.69
923.47	12365.64
923.64	12638.02
923.81	12296.00
923.98	12543.81
924.15	12119.88
924.32	12279.62
924.48	12209.99
924.65	12320.58
924.82	12242.76
924.99	12142.41
925.15	11794.25
925.32	11886.41
925.49	11867.98
925.66	11847.50
925.83	11777.87
925.99	11906.89
926.16	11941.71
926.33	11900.75
926.50	11568.98
926.67	11718.48
926.83	11773.77
927.00	11497.30
927.17	11456.34
927.34	11493.20
927.50	11360.08
927.67	11640.65
927.84	11290.45
928.01	11263.83
928.17	11087.70
928.34	11140.95
928.51	11022.17
928.68	11050.84
928.84	11005.78
929.01	10839.90
929.18	10788.70
929.35	11130.71
929.51	10809.18
929.68	10833.75
929.85	10633.05
930.02	10733.40
930.18	10778.46
930.35	10450.78
930.52	10639.20
930.69	10569.57
930.85	10354.53
931.02	10297.19
931.19	10448.74
931.36	10413.92
931.52	10237.80
931.69	10344.29
931.86	10391.39
932.02	9973.61
932.19	10133.35
932.36	10016.62
932.53	10078.05
932.69	9963.37
932.86	10094.44
933.03	9916.26
933.19	9690.99
933.36	9738.09
933.53	9811.82
933.70	9682.80
933.86	9660.27
934.03	9715.56
934.20	9492.34
934.36	9480.05
934.53	9260.91
934.70	9234.29
934.86	9490.29
935.03	9183.09
935.20	9135.99
935.36	9133.94
935.53	9273.20
935.70	9021.30
935.86	8953.72
936.03	8695.68
936.20	8605.56
936.36	8601.47
936.53	8669.05
936.70	8515.45
936.86	8662.91
937.03	8564.61
937.20	8320.90
937.36	8335.23
937.53	8116.10
937.70	8107.91
937.86	7892.87
938.03	7958.41
938.20	7849.86
938.36	7706.51
938.53	7772.04
938.70	7557.00
938.86	7538.57
939.03	7450.51
939.20	7319.44
939.36	7266.19
939.53	7178.13
939.70	7409.55
939.86	6897.56
940.03	7026.58
940.19	6844.31
940.36	6936.47
940.53	6801.30
940.69	6674.33
940.86	6573.98
941.03	6494.11
941.19	6473.63
941.36	6625.18
941.52	6406.05
941.69	6440.86
941.86	6213.54
942.02	6215.59
942.19	6137.76
942.35	6182.82
942.52	6027.17
942.69	5982.12
942.85	6002.60
943.02	5945.25
943.18	5851.05
943.35	5863.33
943.52	5705.64
943.68	5758.89
943.85	5732.26
944.01	5728.17
944.18	5660.59
944.35	5672.87
944.51	5504.94
944.68	5500.84
944.84	5474.22
945.01	5500.84
945.17	5511.08
945.34	5394.35
945.51	5425.07
945.67	5459.88
945.84	5595.05
946.00	5535.66
946.17	5259.18
946.33	5296.05
946.50	5486.51
946.67	5461.93
946.83	5310.38
947.00	5523.37
947.16	5285.81
947.33	5271.47
947.49	5322.67
947.66	5291.95
947.82	5337.01
947.99	5455.79
948.16	5365.68
948.32	5314.48
948.49	5328.81
948.65	5388.21
948.82	5377.97
948.98	5337.01
949.15	5318.57
949.31	5230.51
949.48	5304.24
949.64	5377.97
949.81	5269.42
949.97	5269.42
950.14	5396.40
950.30	5273.52
950.47	5371.82
950.63	5279.66
950.80	5291.95
950.96	5408.69
951.13	5351.34
951.30	5439.40
951.46	5511.08
951.63	5357.49
951.79	5412.78
951.96	5498.80
952.12	5466.03
952.29	5435.31
952.45	5271.47
952.62	5394.35
952.78	5568.43
952.94	5318.57
953.11	5494.70
953.27	5302.19
953.44	5558.19
953.60	5474.22
953.77	5468.08
953.93	5457.84
954.10	5466.03
954.26	5474.22
954.43	5418.93
954.59	5486.51
954.76	5445.55
954.92	5519.28
955.09	5525.42
955.25	5402.54
955.42	5533.61
955.58	5629.87
955.75	5488.56
955.91	5584.81
956.07	5482.41
956.24	5658.54
956.40	5441.45
956.57	5670.83
956.73	5455.79
956.90	5494.70
957.06	5484.46
957.23	5369.77
957.39	5488.56
957.56	5441.45
957.72	5365.68
957.88	5388.21
958.05	5697.45
958.21	5554.09
958.38	5466.03
958.54	5478.32
958.71	5660.59
958.87	5466.03
959.03	5445.55
959.20	5490.60
959.36	5412.78
959.53	5494.70
959.69	5410.73
959.85	5427.12
960.02	5490.60
960.18	5453.74
960.35	5539.76
960.51	5543.85
960.68	5332.91
960.84	5425.07
961.00	5463.98
961.17	5390.25
961.33	5535.66
961.50	5535.66
961.66	5560.24
961.82	5339.05
961.99	5494.70
962.15	5517.23
962.31	5371.82
962.48	5420.97
962.64	5574.57
962.81	5439.40
962.97	5496.75
963.13	5474.22
963.30	5418.93
963.46	5461.93
963.62	5349.29
963.79	5259.18
963.95	5201.84
964.12	5257.14
964.28	5425.07
964.44	5425.07
964.61	5285.81
964.77	5488.56
964.93	5386.16
965.10	5423.02
965.26	5279.66
965.42	5347.25
965.59	5310.38
965.75	5341.10
965.92	5476.27
966.08	5369.77
966.24	5287.86
966.41	5314.48
966.57	5337.01
966.73	5244.85
966.90	5300.14
967.06	5367.73
967.22	5375.92
967.39	5238.70
967.55	5255.09
967.71	5287.86
967.88	5201.84
968.04	5199.79
968.20	5275.57
968.37	5367.73
968.53	5148.59
968.69	5242.80
968.85	5267.38
969.02	5234.61
969.18	5117.87
969.34	5308.34
969.51	5283.76
969.67	5199.79
969.83	5220.27
970.00	5314.48
970.16	5244.85
970.32	5281.71
970.48	5320.62
970.65	5099.44
970.81	5124.02
970.97	5150.64
971.14	4966.32
971.30	5224.37
971.46	5035.96
971.63	5113.78
971.79	5078.96
971.95	5076.91
972.11	4970.42
972.28	5058.48
972.44	5007.28
972.60	4865.97
972.76	5003.19
972.93	4988.85
973.09	4915.12
973.25	4990.90
973.42	4876.21
973.58	4958.13
973.74	5033.91
973.90	5003.19
974.07	4908.98
974.23	4943.80
974.39	4913.08
974.55	4693.94
974.72	4769.72
974.88	4790.20
975.04	4894.65
975.20	4816.82
975.37	4935.60
975.53	4730.81
975.69	4802.49
975.85	4796.34
976.01	4835.25
976.18	4784.06
976.34	4792.25
976.50	4941.75
976.66	4763.58
976.83	4786.10
976.99	4618.17
977.15	4718.52
977.31	4609.98
977.47	4632.51
977.64	4706.23
977.80	4597.69
977.96	4745.14
978.12	4634.55
978.29	4726.71
978.45	4618.17
978.61	4669.37
978.77	4724.66
978.93	4628.41
979.10	4612.03
979.26	4589.50
979.42	4581.31
979.58	4378.56
979.74	4521.92
979.91	4560.83
980.07	4550.59
980.23	4378.56
980.39	4370.37
980.55	4523.96
980.71	4495.29
980.88	4331.45
981.04	4476.86
981.20	4450.24
981.36	4366.27
981.52	4458.43
981.68	4349.89
981.85	4396.99
982.01	4356.03
982.17	4396.99
982.33	4286.40
982.49	4394.94
982.65	4343.74
982.82	4423.61
982.98	4255.68
983.14	4237.25
983.30	4394.94
983.46	4466.62
983.62	4433.85
983.79	4151.23
983.95	4308.93
984.11	4173.76
984.27	4313.02
984.43	4233.15
984.59	4255.68
984.75	4229.06
984.91	4136.90
985.08	4124.61
985.24	4179.90
985.40	4249.54
985.56	4126.66
985.72	4140.99
985.88	4171.71
986.04	4095.94
986.20	4077.51
986.37	4153.28
986.53	4024.26
986.69	4132.80
986.85	4102.08
987.01	3991.49
987.17	4100.03
987.33	3995.59
987.49	3917.76
987.65	4040.64
987.82	4034.50
987.98	3966.92
988.14	4042.69
988.30	3942.34
988.46	3934.15
988.62	4014.02
988.78	3801.03
988.94	3999.68
989.10	3917.76
989.26	3880.90
989.42	3907.52
989.59	3829.70
989.75	3928.00
989.91	3993.54
990.07	3747.78
990.23	3733.45
990.39	3829.70
990.55	3698.63
990.71	3944.39
990.87	3753.93
991.03	3885.00
991.19	3747.78
991.35	3885.00
991.51	3727.30
991.67	3885.00
991.83	3788.74
992.00	3729.35
992.16	3835.85
992.32	3772.36
992.48	3758.02
992.64	3690.44
992.80	3747.78
992.96	3737.54
993.12	3647.43
993.28	3723.21
993.44	3620.81
993.60	3594.19
993.76	3719.11
993.92	3643.34
994.08	3655.62
994.24	3631.05
994.40	3631.05
994.56	3663.82
994.72	3616.71
994.88	3461.07
995.04	3661.77
995.20	3643.34
995.36	3610.57
995.52	3516.36
995.68	3526.60
995.84	3514.31
996.00	3559.37
996.16	3483.59
996.32	3502.03
996.48	3471.31
996.64	3497.93
996.80	3366.86
996.96	3567.56
997.12	3424.20
997.28	3536.84
997.44	3409.87
997.60	3413.96
997.76	3485.64
997.92	3477.45
998.08	3368.91
998.24	3391.44
998.40	3483.59
998.56	3420.11
998.72	3286.99
998.88	3317.71
999.04	3278.80
999.20	3403.72
999.36	3354.57
999.52	3348.43
999.68	3399.63
999.84	3420.11
1000.00	3352.52
1000.16	3301.33
1000.32	3229.65
1000.48	3334.09
1000.64	3321.81
1000.80	3227.60
1000.95	3266.51
1001.11	3350.48
1001.27	3170.26
1001.43	3246.03
1001.59	3184.59
1001.75	3229.65
1001.91	3299.28
1002.07	3145.68
1002.23	3094.48
1002.39	3102.67
1002.55	3131.34
1002.71	3168.21
1002.87	3104.72
1003.03	3162.06
1003.19	3112.91
1003.34	3200.98
1003.50	3067.86
1003.66	3133.39
1003.82	3178.45
1003.98	3049.43
1004.14	3108.82
1004.30	3092.43
1004.46	3094.48
1004.62	3076.05
1004.78	2926.55
1004.94	3053.52
1005.09	3133.39
1005.25	3147.73
1005.41	3037.14
1005.57	2994.13
1005.73	3055.57
1005.89	2949.08
1006.05	3014.61
1006.21	2981.84
1006.37	2949.08
1006.52	2940.88
1006.68	2953.17
1006.84	3069.91
1007.00	2953.17
1007.16	2957.27
1007.32	2885.59
1007.48	2916.31
1007.64	3022.80
1007.79	2895.83
1007.95	2824.15
1008.11	2920.40
1008.27	2809.81
1008.43	2897.88
1008.59	2846.68
1008.75	2856.92
1008.91	2836.44
1009.06	2756.57
1009.22	2844.63
1009.38	2793.43
1009.54	2777.05
1009.70	2822.10
1009.86	2838.48
1010.01	2822.10
1010.17	2742.23
1010.33	2707.41
1010.49	2822.10
1010.65	2846.68
1010.81	2717.65
1010.96	2699.22
1011.12	2648.02
1011.28	2766.81
1011.44	2877.40
1011.60	2738.13
1011.76	2672.60
1011.91	2693.08
1012.07	2688.98
1012.23	2590.68
1012.39	2693.08
1012.55	2676.70
1012.71	2572.25
1012.86	2729.94
1013.02	2666.46
1013.18	2586.58
1013.34	2693.08
1013.50	2727.89
1013.65	2715.61
1013.81	2576.34
1013.97	2543.58
1014.13	2654.17
1014.29	2578.39
1014.44	2705.37
1014.60	2564.06
1014.76	2537.43
1014.92	2578.39
1015.07	2637.78
1015.23	2641.88
1015.39	2590.68
1015.55	2582.49
1015.71	2586.58
1015.86	2529.24
1016.02	2541.53
1016.18	2451.42
1016.34	2562.01
1016.49	2541.53
1016.65	2478.04
1016.81	2467.80
1016.97	2502.62
1017.12	2580.44
1017.28	2475.99
1017.44	2381.79
1017.60	2467.80
1017.75	2443.23
1017.91	2445.27
1018.07	2486.23
1018.23	2385.88
1018.38	2383.84
1018.54	2426.84
1018.70	2437.08
1018.86	2420.70
1019.01	2480.09
1019.17	2420.70
1019.33	2537.43
1019.49	2437.08
1019.64	2406.36
1019.80	2396.12
1019.96	2432.99
1020.12	2435.03
1020.27	2506.71
1020.43	2369.50
1020.59	2351.07
1020.74	2457.56
1020.90	2355.16
1021.06	2248.67
1021.22	2418.65
1021.37	2287.58
1021.53	2279.39
1021.69	2416.60
1021.84	2295.77
1022.00	2355.16
1022.16	2250.72
1022.31	2361.31
1022.47	2281.44
1022.63	2383.84
1022.79	2133.98
1022.94	2207.71
1023.10	2301.92
1023.26	2205.66
1023.41	2328.54
1023.57	2287.58
1023.73	2220.00
1023.88	2332.64
1024.04	2197.47
1024.20	2230.24
1024.35	2293.72
1024.51	2193.37
1024.67	2281.44
1024.82	2328.54
1024.98	2138.08
1025.14	2293.72
1025.29	2197.47
1025.45	2346.97
1025.61	2203.61
1025.76	2254.81
1025.92	2170.85
1026.08	2203.61
1026.23	2172.89
1026.39	2279.39
1026.55	2246.62
1026.70	2213.85
1026.86	2105.31
1027.02	2271.20
1027.17	2162.66
1027.33	2191.33
1027.48	2181.09
1027.64	2154.46
1027.80	2138.08
1027.95	2213.85
1028.11	2082.78
1028.27	2179.04
1028.42	2093.02
1028.58	2123.74
1028.73	2174.94
1028.89	2039.78
1029.05	2119.65
1029.20	2191.33
>>>>>End Processed Spectral Data<<<<<
