SpectraSuite Data File
++++++++++++++++++++++++++++++++++++
Date: Fri Jun 02 14:57:19 CEST 2017
User: INFO_000
Dark Spectrum Present: No
Reference Spectrum Present: No
Number of Sampled Component Spectra: 1
Spectrometers: USB4H00879
Integration Time (usec): 80000 (USB4H00879)
Spectra Averaged: 1 (USB4H00879)
Boxcar Smoothing: 0 (USB4H00879)
Correct for Electrical Dark: No (USB4H00879)
Strobe/Lamp Enabled: No (USB4H00879)
Correct for Detector Non-linearity: No (USB4H00879)
Correct for Stray Light: No (USB4H00879)
Number of Pixels in Processed Spectrum: 3648
>>>>>Begin Processed Spectral Data<<<<<
345.13	1318.89
345.34	1318.89
345.56	1318.89
345.78	1329.13
345.99	1286.12
346.21	1689.57
346.42	1744.87
346.64	1640.42
346.86	1773.54
347.07	1726.44
347.29	1671.14
347.50	1601.51
347.72	1687.53
347.94	1712.10
348.15	1570.79
348.37	1562.60
348.59	1775.59
348.80	1640.42
349.02	1732.58
349.23	1869.80
349.45	1837.03
349.67	1884.13
349.88	1832.93
350.10	1937.38
350.31	1783.78
350.53	1789.92
350.75	1916.90
350.96	1798.12
351.18	1849.32
351.39	1882.08
351.61	1834.98
351.82	1933.28
352.04	1882.08
352.26	1816.55
352.47	1853.41
352.69	1945.57
352.90	1824.74
353.12	1892.32
353.34	1849.32
353.55	1875.94
353.77	1888.23
353.98	1867.75
354.20	1742.82
354.41	1892.32
354.63	1918.95
354.85	2047.97
355.06	1855.46
355.28	1841.12
355.49	1976.29
355.71	1957.86
355.92	1814.50
356.14	1904.61
356.35	1955.81
356.57	1886.18
356.79	1945.57
357.00	1796.07
357.22	1961.95
357.43	1914.85
357.65	1955.81
357.86	1855.46
358.08	1972.19
358.29	1976.29
358.51	2035.68
358.72	1931.23
358.94	1896.42
359.16	1853.41
359.37	1949.67
359.59	1873.89
359.80	2002.91
360.02	2002.91
360.23	1978.34
360.45	2015.20
360.66	1865.70
360.88	1863.65
361.09	1927.14
361.31	2011.11
361.52	1947.62
361.74	2000.87
361.95	2093.02
362.17	1986.53
362.38	2093.02
362.60	2123.74
362.81	2097.12
363.03	2023.39
363.24	2027.49
363.46	2007.01
363.67	2027.49
363.89	1990.63
364.10	2103.26
364.32	1957.86
364.53	2066.40
364.75	1912.80
364.96	2076.64
365.18	2047.97
365.39	2037.73
365.61	1961.95
365.82	2162.66
366.04	2062.30
366.25	2080.74
366.47	2097.12
366.68	1984.48
366.90	1992.67
367.11	2101.22
367.33	2117.60
367.54	2054.11
367.76	2050.02
367.97	2103.26
368.19	2047.97
368.40	2101.22
368.62	2043.87
368.83	2009.06
369.05	2084.83
369.26	1955.81
369.48	2015.20
369.69	2023.39
369.91	2158.56
370.12	2054.11
370.33	2170.85
370.55	1986.53
370.76	2019.30
370.98	2199.52
371.19	2074.59
371.41	2004.96
371.62	2031.58
371.84	1992.67
372.05	2154.46
372.27	2068.45
372.48	2125.79
372.69	2043.87
372.91	2154.46
373.12	2154.46
373.34	2090.98
373.55	2160.61
373.77	2109.41
373.98	2088.93
374.20	2156.51
374.41	2222.05
374.62	2129.89
374.84	2228.19
375.05	2183.13
375.27	2072.54
375.48	2136.03
375.70	2213.85
375.91	2201.57
376.12	2267.10
376.34	2131.94
376.55	2211.81
376.77	2224.09
376.98	2117.60
377.19	2185.18
377.41	2172.89
377.62	2240.48
377.84	2191.33
378.05	2254.81
378.27	2209.76
378.48	2295.77
378.69	2316.25
378.91	2326.49
379.12	2308.06
379.34	2289.63
379.55	2394.08
379.76	2383.84
379.98	2252.77
380.19	2236.38
380.41	2258.91
380.62	2312.16
380.83	2238.43
381.05	2213.85
381.26	2357.21
381.47	2316.25
381.69	2236.38
381.90	2459.61
382.12	2334.68
382.33	2230.24
382.54	2310.11
382.76	2318.30
382.97	2344.92
383.19	2312.16
383.40	2465.75
383.61	2308.06
383.83	2375.64
384.04	2340.83
384.25	2381.79
384.47	2377.69
384.68	2361.31
384.89	2422.75
385.11	2301.92
385.32	2365.40
385.54	2332.64
385.75	2301.92
385.96	2439.13
386.18	2410.46
386.39	2424.80
386.60	2478.04
386.82	2430.94
387.03	2480.09
387.24	2494.43
387.46	2484.19
387.67	2527.19
387.88	2545.63
388.10	2465.75
388.31	2400.22
388.52	2576.34
388.74	2529.24
388.95	2562.01
389.16	2551.77
389.38	2480.09
389.59	2609.11
389.80	2658.26
390.02	2555.86
390.23	2670.55
390.44	2527.19
390.66	2469.85
390.87	2514.91
391.08	2654.17
391.30	2686.94
391.51	2588.63
391.72	2652.12
391.94	2576.34
392.15	2621.40
392.36	2574.30
392.58	2664.41
392.79	2670.55
393.00	2818.00
393.22	2750.42
393.43	2734.04
393.64	2779.09
393.85	2789.33
394.07	2621.40
394.28	2715.61
394.49	2723.80
394.71	2850.77
394.92	2840.53
395.13	2686.94
395.35	2617.30
395.56	2672.60
395.77	2820.05
395.98	2768.85
396.20	2867.16
396.41	2815.96
396.62	2869.20
396.84	2858.96
397.05	2775.00
397.26	2883.54
397.47	2977.75
397.69	2846.68
397.90	2990.03
398.11	2848.72
398.32	2916.31
398.54	2938.84
398.75	2901.97
398.96	3002.32
399.18	3055.57
399.39	2924.50
399.60	2994.13
399.81	3035.09
400.03	2951.12
400.24	3286.99
400.45	2934.74
400.66	3114.96
400.88	2938.84
401.09	3141.58
401.30	2987.99
401.51	2983.89
401.73	3137.49
401.94	3186.64
402.15	3082.19
402.36	3123.15
402.58	3084.24
402.79	3176.40
403.00	3215.31
403.21	3141.58
403.43	3262.41
403.64	3176.40
403.85	3076.05
404.06	3170.26
404.27	3117.01
404.49	3147.73
404.70	3153.87
404.91	3246.03
405.12	3330.00
405.34	3256.27
405.55	3448.78
405.76	3184.59
405.97	3276.75
406.19	3411.92
406.40	3125.20
406.61	3461.07
406.82	3317.71
407.03	3307.47
407.25	3205.07
407.46	3452.88
407.67	3411.92
407.88	3391.44
408.09	3346.38
408.31	3268.56
408.52	3383.24
408.73	3330.00
408.94	3307.47
409.15	3475.40
409.37	3487.69
409.58	3502.03
409.79	3481.55
410.00	3495.88
410.21	3389.39
410.43	3459.02
410.64	3428.30
410.85	3493.83
411.06	3547.08
411.27	3497.93
411.48	3590.09
411.70	3545.03
411.91	3483.59
412.12	3522.51
412.33	3577.80
412.54	3588.04
412.76	3620.81
412.97	3618.76
413.18	3561.42
413.39	3530.70
413.60	3610.57
413.81	3534.79
414.03	3557.32
414.24	3678.15
414.45	3731.40
414.66	3563.47
414.87	3647.43
415.08	3659.72
415.30	3649.48
415.51	3825.61
415.72	3770.31
415.93	3784.65
416.14	3739.59
416.35	3712.97
416.56	3805.13
416.78	3837.89
416.99	3868.61
417.20	3784.65
417.41	3932.10
417.62	3876.80
417.83	3977.16
418.04	3887.04
418.26	3913.67
418.47	4020.16
418.68	3944.39
418.89	3911.62
419.10	4108.23
419.31	4063.17
419.52	4022.21
419.73	4038.59
419.95	4122.56
420.16	3991.49
420.37	4073.41
420.58	4089.79
420.79	3712.97
421.00	4005.83
421.21	4153.28
421.42	4122.56
421.63	4054.98
421.85	4091.84
422.06	4130.75
422.27	4085.70
422.48	4112.32
422.69	4114.37
422.90	4200.38
423.11	4233.15
423.32	4313.02
423.53	4265.92
423.75	4364.22
423.96	4472.76
424.17	4276.16
424.38	4513.72
424.59	4362.17
424.80	4421.56
425.01	4415.42
425.22	4358.08
425.43	4427.71
425.64	4693.94
425.85	4710.33
426.06	4505.53
426.28	4532.15
426.49	4521.92
426.70	4521.92
426.91	4669.37
427.12	4630.46
427.33	4595.64
427.54	4579.26
427.75	4800.44
427.96	4839.35
428.17	4800.44
428.38	4857.78
428.59	4882.36
428.80	4771.77
429.01	4820.92
429.23	4814.77
429.44	5173.17
429.65	4921.27
429.86	4949.94
430.07	4849.59
430.28	4876.21
430.49	5042.10
430.70	5038.00
430.91	5105.59
431.12	5070.77
431.33	5148.59
431.54	5193.65
431.75	5275.57
431.96	5199.79
432.17	5095.35
432.38	5023.67
432.59	5236.66
432.80	5261.23
433.01	5228.46
433.22	5371.82
433.43	5197.74
433.64	5361.58
433.85	5339.05
434.06	5294.00
434.27	5273.52
434.49	5488.56
434.70	5572.52
434.91	5359.53
435.12	5560.24
435.33	5463.98
435.54	5394.35
435.75	5435.31
435.96	5492.65
436.17	5345.20
436.38	5537.71
436.59	5599.15
436.80	5531.56
437.01	5883.81
437.22	5736.36
437.43	5744.55
437.64	5552.04
437.85	5894.05
438.06	5787.56
438.27	5670.83
438.48	5851.05
438.69	5855.14
438.90	5838.76
439.11	5730.22
439.32	5910.44
439.53	5937.06
439.74	5935.01
439.95	6041.51
440.16	6014.88
440.37	5951.40
440.57	5947.30
440.78	6027.17
440.99	6023.08
441.20	6090.66
441.41	5805.99
441.62	5941.16
441.83	5996.45
442.04	6123.43
442.25	6033.32
442.46	6035.36
442.67	6094.76
442.88	6635.42
443.09	6025.12
443.30	6070.18
443.51	6281.12
443.72	6475.68
443.93	6272.93
444.14	6508.44
444.35	6240.16
444.56	6387.61
444.77	6399.90
444.98	6369.18
445.19	6424.48
445.40	6444.96
445.61	6297.50
445.81	6664.09
446.02	6410.14
446.23	6367.13
446.44	6424.48
446.65	6651.80
446.86	6539.16
447.07	6711.19
447.28	6766.49
447.49	6686.62
447.70	6774.68
447.91	6659.99
448.12	6737.82
448.33	6801.30
448.54	6840.22
448.74	6700.95
448.95	7014.29
449.16	6678.43
449.37	7165.84
449.58	6770.58
449.79	7042.96
450.00	6815.64
450.21	7045.01
450.42	7102.36
450.63	7071.64
450.84	6993.81
451.05	7047.06
451.25	6905.75
451.46	6975.38
451.67	7251.86
451.88	7206.80
452.09	7186.32
452.30	7077.78
452.51	7004.05
452.72	7249.81
452.93	7470.99
453.13	7147.41
453.34	7042.96
453.55	7317.39
453.76	7458.70
453.97	7589.77
454.18	7364.50
454.39	7581.58
454.60	7403.41
454.81	7489.42
455.01	7612.30
455.22	7360.40
455.43	7686.03
455.64	7747.47
455.85	7845.77
456.06	7882.63
456.27	7769.99
456.48	7761.80
456.68	7831.43
456.89	7815.05
457.10	8023.94
457.31	7890.82
457.52	7835.53
457.73	7862.15
457.94	8241.03
458.14	7817.10
458.35	8361.86
458.56	8200.07
458.77	8081.28
458.98	8136.58
459.19	8324.99
459.39	8343.42
459.60	8415.10
459.81	8390.53
460.02	8523.65
460.23	8490.88
460.44	8642.43
460.65	8710.01
460.85	8624.00
461.06	8642.43
461.27	8540.03
461.48	8810.36
461.69	8890.23
461.89	8511.36
462.10	8839.03
462.31	8826.75
462.52	8925.05
462.73	8961.91
462.94	9086.84
463.14	8955.77
463.35	8935.29
463.56	9439.09
463.77	9254.77
463.98	9068.41
464.18	9174.90
464.39	9250.67
464.60	9422.70
464.81	9432.94
465.02	9287.54
465.23	9639.79
465.43	9635.69
465.64	9799.53
465.85	9615.21
466.06	9492.34
466.27	9883.50
466.47	9848.68
466.68	9895.78
466.89	9787.24
467.10	10059.62
467.30	9867.11
467.51	9895.78
467.72	10157.92
467.93	9983.85
468.14	10213.22
468.34	10483.55
468.55	10501.98
468.76	10489.70
468.97	10467.17
469.17	10506.08
469.38	10850.14
469.59	10870.62
469.80	10559.33
470.01	10626.91
470.21	10739.55
470.42	10938.20
470.63	11059.03
470.84	10948.44
471.04	10958.68
471.25	11171.67
471.46	11251.54
471.67	11497.30
471.87	11401.04
472.08	11552.59
472.29	11497.30
472.50	11448.15
472.70	11466.58
472.91	11550.54
473.12	11614.03
473.33	12005.19
473.53	12087.11
473.74	12009.29
473.95	12253.00
474.16	12218.18
474.36	12169.03
474.57	12463.94
474.78	12521.28
474.99	12500.80
475.19	12166.98
475.40	12629.82
475.61	12672.83
475.81	12863.29
476.02	13061.94
476.23	12885.82
476.44	13082.42
476.64	13066.04
476.85	13524.79
477.06	13317.94
477.27	13567.79
477.47	13532.98
477.68	13684.53
477.89	13594.42
478.09	13758.25
478.30	13805.36
478.51	13639.47
478.71	13924.14
478.92	14008.11
479.13	14260.01
479.34	14538.53
479.54	14440.23
479.75	14561.06
479.96	14231.33
480.16	14581.54
480.37	14634.78
480.58	15023.90
480.78	15200.02
480.99	15081.24
481.20	15058.71
481.41	15081.24
481.61	15439.64
481.82	15623.95
482.03	15109.91
482.23	15482.64
482.44	15697.68
482.65	15941.39
482.85	15806.22
483.06	15937.29
483.27	15994.64
483.47	15822.61
483.68	16137.99
483.89	16193.29
484.09	16277.26
484.30	16330.50
484.51	16742.14
484.71	16779.01
484.92	16688.90
485.13	16910.08
485.33	16897.79
485.54	16994.04
485.75	17037.05
485.95	17221.37
486.16	17170.17
486.37	17442.55
486.57	17344.25
486.78	17471.22
486.98	17639.15
487.19	17784.56
487.40	17903.34
487.60	17780.46
487.81	17952.49
488.02	17987.31
488.22	17862.38
488.43	18267.88
488.64	18345.70
488.84	18564.84
489.05	18806.50
489.25	18562.79
489.46	18581.22
489.67	18906.85
489.87	18958.05
490.08	19027.68
490.29	19056.35
490.49	19465.94
490.70	19373.78
490.90	19568.34
491.11	19394.26
491.32	19545.81
491.52	19754.71
491.73	19855.06
491.94	19930.83
492.14	19783.38
492.35	20080.33
492.55	20276.94
492.76	20244.17
492.97	20629.19
493.17	20326.09
493.38	20577.99
493.58	20764.36
493.79	20717.25
494.00	20508.36
494.20	20717.25
494.41	20942.53
494.61	21188.28
494.82	21259.96
495.02	21022.40
495.23	21243.58
495.44	21327.55
495.64	21374.65
495.85	21493.43
496.05	21681.85
496.26	21581.49
496.47	21905.07
496.67	21788.34
496.88	22365.87
497.08	21755.57
497.29	22261.42
497.49	22001.33
497.70	22458.03
497.91	22341.29
498.11	22433.45
498.32	22654.63
498.52	22800.04
498.73	22990.50
498.93	22847.14
499.14	22785.70
499.34	23129.76
499.55	23031.46
499.76	22976.16
499.96	23357.08
500.17	23479.96
500.37	23318.17
500.58	23289.50
500.78	23764.63
500.99	23514.78
501.19	23764.63
501.40	23522.97
501.60	23568.02
501.81	23645.85
502.02	23807.64
502.22	23658.14
502.43	23889.56
502.63	24254.09
502.84	24055.44
503.04	24303.25
503.25	24440.46
503.45	24407.69
503.66	24542.86
503.86	24544.91
504.07	24647.30
504.27	24663.69
504.48	25054.85
504.68	24839.81
504.89	25038.47
505.09	25022.08
505.30	25210.50
505.50	24794.76
505.71	25095.81
505.91	25394.81
506.12	25243.26
506.32	25032.32
506.53	25200.26
506.73	25517.69
506.94	25622.14
507.14	25601.66
507.35	25380.48
507.55	25796.21
507.76	25904.76
507.96	26003.06
508.17	25894.52
508.37	26117.75
508.58	25874.04
508.78	26285.68
508.99	26134.13
509.19	26228.34
509.40	26275.44
509.60	26119.79
509.81	26537.58
510.01	26457.71
510.22	26357.36
510.42	26537.58
510.63	26701.42
510.83	26582.63
511.04	26447.47
511.24	26906.21
511.44	26852.97
511.65	27041.38
511.85	26836.58
512.06	27051.62
512.26	26988.13
512.47	27303.52
512.67	27235.94
512.88	27381.34
513.08	26912.36
513.29	27184.74
513.49	27328.10
513.69	27270.75
513.90	27223.65
514.10	27438.69
514.31	27649.63
514.51	27948.63
514.72	27928.15
514.92	27590.24
515.13	27672.15
515.33	27666.01
515.53	27774.55
515.74	27922.01
515.94	27950.68
516.15	27792.98
516.35	27948.63
516.56	28208.72
516.76	27946.58
516.96	28221.01
517.17	28347.98
517.37	28182.10
517.58	28347.98
517.78	28483.15
517.99	28585.55
518.19	28722.76
518.39	28886.60
518.60	28558.92
518.80	28579.40
519.01	29007.43
519.21	28927.56
519.41	29124.16
519.62	28978.76
519.82	29118.02
520.03	29410.88
520.23	29054.53
520.43	28843.59
520.64	29490.75
520.84	29531.71
521.05	29236.80
521.25	29482.56
521.45	29623.87
521.66	29832.76
521.86	29554.24
522.07	29781.56
522.27	29554.24
522.47	30213.68
522.68	30035.51
522.88	29832.76
523.08	30303.79
523.29	30076.47
523.49	30488.11
523.70	30393.90
523.90	30363.18
524.10	30299.70
524.31	30836.27
524.51	30430.77
524.71	30979.62
524.92	30688.81
525.12	31082.02
525.33	30807.59
525.53	31075.88
525.73	31702.56
525.94	31495.71
526.14	31194.66
526.34	31198.76
526.55	31514.14
526.75	31442.46
526.95	31872.54
527.16	31659.55
527.36	32034.33
527.56	31807.00
527.77	31901.21
527.97	31850.01
528.17	32091.67
528.38	32155.16
528.58	32364.05
528.78	32497.17
528.99	32118.29
529.19	32400.91
529.39	32163.35
529.60	32808.46
529.80	32560.66
530.00	32302.61
530.21	32681.49
530.41	32921.10
530.61	32794.12
530.82	33156.61
531.02	33089.03
531.22	33140.23
531.43	33095.18
531.63	33437.19
531.83	33670.65
532.04	33644.03
532.24	33385.99
532.44	33783.29
532.64	33838.59
532.85	34018.81
533.05	34211.32
533.25	34313.72
533.46	33955.32
533.66	34403.83
533.86	34131.45
534.07	34100.73
534.27	34434.55
534.47	34942.44
534.67	34729.45
534.88	34665.97
535.08	34889.20
535.28	34919.92
535.49	35079.66
535.69	35515.87
535.89	35358.18
536.09	35014.12
536.30	35436.00
536.50	35276.26
536.70	35458.53
536.91	35677.66
537.11	35616.22
537.31	35866.08
537.51	35786.21
537.72	35988.95
537.92	36124.12
538.12	36607.44
538.32	36201.94
538.53	36359.64
538.73	36371.92
538.93	36197.85
539.13	36636.11
539.34	36367.83
539.54	36763.09
539.74	36761.04
539.94	36589.01
540.15	36470.23
540.35	37209.54
540.55	37361.09
540.75	36742.61
540.96	37088.71
541.16	37053.90
541.36	36959.69
541.56	37111.24
541.77	37930.43
541.97	37684.67
542.17	37381.57
542.37	37440.96
542.58	37653.95
542.78	37813.70
542.98	37932.48
543.18	37780.93
543.38	37961.15
543.59	38264.25
543.79	37866.94
543.99	38299.06
544.19	37926.33
544.40	38372.79
544.60	38260.15
544.80	38159.80
545.00	38284.73
545.20	38653.36
545.41	38446.52
545.61	38180.28
545.81	38704.56
546.01	39118.25
546.21	39036.33
546.42	38690.23
546.62	38903.21
546.82	38981.04
547.02	39185.83
547.22	39165.35
547.43	38837.68
547.63	39347.62
547.83	39445.93
548.03	38917.55
548.23	39048.62
548.44	39460.26
548.64	39609.76
548.84	39646.63
549.04	39388.58
549.24	39685.54
549.45	39992.73
549.65	39751.07
549.85	39865.76
550.05	39802.27
550.25	39949.73
550.45	40086.94
550.66	39873.95
550.86	39927.20
551.06	40299.93
551.26	40451.48
551.46	40256.92
551.66	40457.62
551.87	40113.56
552.07	40635.80
552.27	40398.23
552.47	40527.25
552.67	40953.23
552.87	40533.40
553.07	40777.11
553.28	40830.35
553.48	40863.12
553.68	40623.51
553.88	41340.30
554.08	40918.42
554.28	40730.00
554.48	40803.73
554.69	40973.71
554.89	41358.73
555.09	40656.28
555.29	41024.91
555.49	41489.80
555.69	41389.45
555.89	41143.69
556.10	41457.03
556.30	41186.70
556.50	41266.57
556.70	41731.46
556.90	41833.86
557.10	42014.08
557.30	41489.80
557.50	41844.10
557.70	41706.88
557.91	41727.36
558.11	41719.17
558.31	41889.15
558.51	41999.74
558.71	42364.28
558.91	42139.00
559.11	42061.18
559.31	42206.59
559.51	41956.74
559.72	42108.29
559.92	42175.87
560.12	42403.19
560.32	42450.30
560.52	41969.02
560.72	42339.71
560.92	42679.67
561.12	42366.33
561.32	43171.18
561.52	42499.45
561.72	42794.36
561.93	42220.92
562.13	42812.79
562.33	42241.40
562.53	42943.86
562.73	42796.40
562.93	42546.55
563.13	42933.62
563.33	42845.55
563.53	42954.10
563.73	42530.17
563.93	43146.61
564.13	43363.69
564.33	43218.28
564.53	43144.56
564.74	43402.60
564.94	43332.97
565.14	43220.33
565.34	42909.04
565.54	43332.97
565.74	43511.14
565.94	43685.22
566.14	43427.18
566.34	43472.23
566.54	43730.28
566.74	43660.65
566.94	43607.40
567.14	43386.22
567.34	43629.93
567.54	43584.87
567.74	43945.31
567.94	43849.06
568.14	43953.51
568.34	44361.05
568.54	43765.09
568.74	43910.50
568.94	43507.05
569.14	44143.97
569.34	44062.05
569.54	44305.76
569.75	44399.96
569.95	44172.64
570.15	44604.76
570.35	44701.01
570.55	44328.28
570.75	44359.00
570.95	44545.37
571.15	44524.89
571.35	44383.58
571.55	44889.43
571.75	44678.49
571.95	45126.99
572.15	44944.72
572.35	45090.13
572.55	44989.78
572.75	44760.40
572.95	44664.15
573.15	44973.39
573.35	44711.25
573.55	44983.63
573.75	45110.61
573.95	45077.84
574.15	44995.92
574.35	45296.97
574.55	45329.74
574.75	45602.12
574.95	45593.93
575.15	45323.60
575.34	45395.28
575.54	45536.59
575.74	45794.63
575.94	45620.55
576.14	45387.08
576.34	45802.82
576.54	46390.59
576.74	45925.70
576.94	45786.44
577.14	45966.66
577.34	46224.70
577.54	46122.30
577.74	46120.26
577.94	45937.99
578.14	46355.77
578.34	46822.71
578.54	46124.35
578.74	46462.27
578.94	46519.61
579.14	46208.32
579.34	46452.03
579.54	46748.98
579.74	46955.83
579.94	46409.02
580.13	46937.40
580.33	46751.03
580.53	46918.96
580.73	47168.82
580.93	46855.48
581.13	47025.46
581.33	47363.37
581.53	47045.94
581.73	47242.54
581.93	47510.83
582.13	47363.37
582.33	47719.72
582.53	46871.86
582.73	47576.36
582.92	47613.23
583.12	47920.42
583.32	47621.42
583.52	47705.38
583.72	47748.39
583.92	47793.45
584.12	48110.88
584.32	48135.46
584.52	48080.16
584.72	48078.11
584.92	48270.62
585.11	48418.08
585.31	48063.78
585.51	48370.97
585.71	47869.22
585.91	48489.76
586.11	48680.22
586.31	48297.25
586.51	48446.75
586.71	48665.88
586.91	49126.67
587.10	48772.38
587.30	48930.07
587.50	49505.55
587.70	48981.27
587.90	48897.30
588.10	49079.57
588.30	49091.86
588.50	49503.50
588.69	48997.65
588.89	48938.26
589.09	48979.22
589.29	49431.82
589.49	49741.06
589.69	49032.47
589.89	49423.63
590.08	49472.78
590.28	49501.45
590.48	49517.84
590.68	49820.94
590.88	49984.77
591.08	49745.16
591.28	49435.92
591.47	50066.69
591.67	49988.87
591.87	50132.23
592.07	50078.98
592.27	50259.20
592.47	50083.08
592.67	50351.36
592.86	50197.76
593.06	50316.54
593.26	50601.21
593.46	50199.81
593.66	50449.66
593.86	50570.49
594.05	50803.96
594.25	50982.13
594.45	50083.08
594.65	50273.54
594.85	49927.43
595.05	50990.33
595.24	50754.81
595.44	50562.30
595.64	51043.57
595.84	51186.93
596.04	50822.39
596.23	51117.30
596.43	51160.31
596.63	51455.21
596.83	51295.47
597.03	51533.04
597.22	51422.45
597.42	51461.36
597.62	51723.50
597.82	51617.00
598.02	51188.98
598.21	51676.40
598.41	51203.31
598.61	51518.70
598.81	51502.32
599.01	51891.43
599.20	51946.73
599.40	51442.93
599.60	51999.97
599.80	52212.96
600.00	51909.86
600.19	52843.74
600.39	51827.95
600.59	52286.69
600.79	52466.91
600.98	52659.42
601.18	52384.99
601.38	52643.04
601.58	52534.49
601.78	52446.43
601.97	52800.73
602.17	52647.13
602.37	52808.92
602.57	52774.11
602.76	52999.38
602.96	52184.29
603.16	53044.44
603.36	53052.63
603.55	53058.77
603.75	53325.01
603.95	53660.88
604.15	53200.08
604.34	53085.40
604.54	53621.97
604.74	53411.02
604.94	53486.80
605.13	53671.12
605.33	53427.41
605.53	53433.55
605.73	53718.22
605.92	53697.74
606.12	53601.49
606.32	53884.11
606.52	53925.07
606.71	53638.35
606.91	54121.67
607.11	53566.67
607.30	53785.80
607.50	53746.89
607.70	54228.16
607.90	53941.45
608.09	53912.78
608.29	54553.79
608.49	54363.33
608.68	53896.39
608.88	54191.30
609.08	54441.15
609.28	54430.91
609.47	54072.52
609.67	54561.98
609.87	54154.44
610.06	54342.85
610.26	54029.51
610.46	54707.39
610.66	54074.57
610.85	54637.76
611.05	54023.37
611.25	54729.92
611.44	54715.58
611.64	54641.85
611.84	54117.57
612.03	54262.98
612.23	54844.60
612.43	54846.65
612.62	54516.93
612.82	54834.36
613.02	54756.54
613.21	54654.14
613.41	54697.15
613.61	54895.80
613.80	54373.57
614.00	54906.04
614.20	54619.33
614.39	54920.38
614.59	54736.06
614.79	54805.69
614.98	54789.31
615.18	54951.10
615.38	54822.08
615.57	55020.73
615.77	54924.47
615.97	54908.09
616.16	54537.41
616.36	55022.78
616.56	54996.15
616.75	54973.63
616.95	54660.29
617.15	55258.29
617.34	55082.17
617.54	54779.07
617.74	55512.24
617.93	55106.74
618.13	54451.39
618.32	55223.48
618.52	54924.47
618.72	55299.25
618.91	55266.48
619.11	54850.75
619.31	54906.04
619.50	54947.00
619.70	54750.40
619.90	54811.84
620.09	55125.17
620.29	54891.71
620.48	54903.99
620.68	55114.94
620.88	54224.07
621.07	54852.80
621.27	54772.92
621.46	54484.16
621.66	55063.74
621.86	55063.74
622.05	53931.21
622.25	55256.24
622.44	54797.50
622.64	54617.28
622.84	54678.72
623.03	54381.76
623.23	54699.20
623.42	55203.00
623.62	55006.39
623.82	54955.19
624.01	54691.01
624.21	55047.35
624.40	54400.19
624.60	54510.78
624.80	54748.35
624.99	54584.51
625.19	54500.54
625.38	55018.68
625.58	54625.47
625.77	54322.37
625.97	54754.49
626.17	54688.96
626.36	54572.22
626.56	54607.04
626.75	54164.68
626.95	55131.32
627.14	54918.33
627.34	54881.47
627.54	54275.27
627.73	54418.63
627.93	54805.69
628.12	54064.33
628.32	54428.87
628.51	54670.53
628.71	54447.30
628.90	54494.40
629.10	54822.08
629.30	54267.08
629.49	54633.66
629.69	54441.15
629.88	54381.76
630.08	54727.87
630.27	54736.06
630.47	54721.72
630.66	54531.26
630.86	54815.93
631.05	54432.96
631.25	54920.38
631.44	54781.12
631.64	54985.91
631.84	55026.87
632.03	55071.93
632.23	54541.50
632.42	54959.29
632.62	54772.92
632.81	54418.63
633.01	54441.15
633.20	54488.26
633.40	55063.74
633.59	55047.35
633.79	54633.66
633.98	54652.09
634.18	54748.35
634.37	54484.16
634.57	54559.94
634.76	54869.18
634.96	54815.93
635.15	54664.38
635.35	54242.50
635.54	54760.64
635.74	54996.15
635.93	54555.84
636.13	54752.44
636.32	55133.37
636.52	54162.63
636.71	54746.30
636.91	54840.51
637.10	54748.35
637.30	54604.99
637.49	54580.42
637.69	54740.16
637.88	55065.78
638.08	54631.61
638.27	55000.25
638.46	54588.61
638.66	54871.23
638.85	54721.72
639.05	54758.59
639.24	55108.79
639.44	54961.34
639.63	54799.55
639.83	55033.02
640.02	54967.48
640.22	54641.85
640.41	55268.53
640.61	54445.25
640.80	54992.06
640.99	54557.89
641.19	55176.37
641.38	55084.22
641.58	54719.68
641.77	54469.82
641.97	54551.74
642.16	55270.58
642.36	55123.13
642.55	55674.03
642.74	54410.43
642.94	55344.31
643.13	55151.80
643.33	55514.29
643.52	55096.50
643.72	54559.94
643.91	55194.81
644.10	55104.70
644.30	55137.46
644.49	55145.65
644.69	55282.87
644.88	55317.68
645.08	54920.38
645.27	55338.16
645.46	54947.00
645.66	54887.61
645.85	55325.88
646.05	55739.57
646.24	55518.38
646.43	55485.62
646.63	55401.65
646.82	55588.02
647.02	55088.31
647.21	55624.88
647.40	55332.02
647.60	55350.45
647.79	55848.11
647.99	55180.47
648.18	54928.57
648.37	55661.74
648.57	55534.77
648.76	55958.70
648.96	55614.64
649.15	55790.76
649.34	55780.52
649.54	55678.13
649.73	55188.66
649.92	55702.70
650.12	55461.04
650.31	55839.92
650.51	55719.09
650.70	56126.63
650.89	55590.06
651.09	56038.57
651.28	55674.03
651.47	56052.90
651.67	55954.60
651.86	56333.48
652.06	55309.49
652.25	55925.93
652.44	55579.82
652.64	55432.37
652.83	55465.14
653.02	55639.22
653.22	55633.07
653.41	55401.65
653.60	55033.02
653.80	55520.43
653.99	56077.48
654.18	55516.34
654.38	55680.17
654.57	55923.88
654.76	55555.25
654.96	55536.82
655.15	55794.86
655.34	55850.16
655.54	55401.65
655.73	55491.76
655.92	55786.67
656.12	55805.10
656.31	55807.15
656.50	55762.09
656.70	55665.84
656.89	55405.75
657.08	55927.98
657.28	55473.33
657.47	55706.80
657.66	55866.54
657.86	55801.00
658.05	55921.83
658.24	55825.58
658.43	55651.50
658.63	55858.35
658.82	56294.56
659.01	55801.00
659.21	56226.98
659.40	55637.17
659.59	55809.20
659.79	55745.71
659.98	56480.93
660.17	55930.03
660.36	56018.09
660.56	55803.05
660.75	56276.13
660.94	56042.66
661.14	55649.45
661.33	56208.55
661.52	55721.13
661.71	56431.78
661.91	56130.73
662.10	55811.24
662.29	56489.12
662.49	55985.32
662.68	56337.57
662.87	56165.54
663.06	55968.94
663.26	55950.51
663.45	56366.24
663.64	55858.35
663.83	56294.56
664.03	56669.34
664.22	55993.51
664.41	56022.19
664.60	56210.60
664.80	56034.47
664.99	56169.64
665.18	56206.50
665.37	55729.33
665.57	56292.52
665.76	56140.97
665.95	55985.32
666.14	55604.40
666.34	56128.68
666.53	56034.47
666.72	55778.48
666.91	55547.06
667.11	55887.02
667.30	55960.75
667.49	56005.80
667.68	55870.64
667.87	55663.79
668.07	56018.09
668.26	55884.97
668.45	56220.84
668.64	55911.59
668.84	56622.24
669.03	56259.75
669.22	56112.30
669.41	55774.38
669.60	56165.54
669.80	55964.84
669.99	55860.40
670.18	56515.75
670.37	55807.15
670.57	56407.20
670.76	55356.60
670.95	56050.86
671.14	55979.18
671.33	55862.44
671.53	56159.40
671.72	56140.97
671.91	56073.38
672.10	55850.16
672.29	55936.17
672.48	55882.92
672.68	56069.29
672.87	56112.30
673.06	56169.64
673.25	55739.57
673.44	55940.27
673.64	56065.19
673.83	55803.05
674.02	55555.25
674.21	56200.36
674.40	56587.42
674.59	55706.80
674.79	56118.44
674.98	55610.54
675.17	56163.50
675.36	55841.96
675.55	56054.95
675.74	56114.34
675.94	55923.88
676.13	55874.73
676.32	55737.52
676.51	56198.31
676.70	55901.36
676.89	55964.84
677.08	55839.92
677.28	56061.10
677.47	55936.17
677.66	55887.02
677.85	55727.28
678.04	56376.48
678.23	56161.45
678.42	56153.26
678.62	55362.74
678.81	55940.27
679.00	55782.57
679.19	56057.00
679.38	56030.38
679.57	55807.15
679.76	55772.33
679.96	56087.72
680.15	55790.76
680.34	55440.56
680.53	56278.18
680.72	55737.52
680.91	55805.10
681.10	55743.66
681.29	56048.81
681.48	55680.17
681.68	55696.56
681.87	55641.26
682.06	55682.22
682.25	55420.08
682.44	55342.26
682.63	55807.15
682.82	55667.89
683.01	55358.64
683.20	54971.58
683.39	55350.45
683.59	54998.20
683.78	55061.69
683.97	55366.84
684.16	55004.34
684.35	55538.86
684.54	55286.96
684.73	55082.17
684.92	55477.43
685.11	55289.01
685.30	54895.80
685.49	55592.11
685.69	55350.45
685.88	55422.13
686.07	55370.93
686.26	55248.05
686.45	55362.74
686.64	55211.19
686.83	55145.65
687.02	55618.74
687.21	55514.29
687.40	54983.86
687.59	55340.21
687.78	54848.70
687.97	55461.04
688.16	55329.97
688.35	55145.65
688.54	54592.70
688.74	55235.77
688.93	54953.15
689.12	55084.22
689.31	55542.96
689.50	54940.86
689.69	54492.35
689.88	54629.57
690.07	54648.00
690.26	55246.00
690.45	55180.47
690.64	54617.28
690.83	55002.30
691.02	54916.28
691.21	54985.91
691.40	54779.07
691.59	54844.60
691.78	54545.60
691.97	54969.53
692.16	54639.81
692.35	54678.72
692.54	54940.86
692.73	55145.65
692.92	54514.88
693.11	54645.95
693.30	54711.49
693.49	54858.94
693.68	54355.14
693.87	54490.30
694.06	54136.01
694.25	54502.59
694.44	54547.65
694.63	54396.10
694.82	54990.01
695.01	54549.70
695.20	54457.54
695.39	54303.94
695.58	53935.30
695.77	54312.13
695.96	54084.81
696.15	54285.51
696.34	53722.32
696.53	54260.93
696.72	54570.18
696.91	53785.80
697.10	54009.03
697.29	54041.80
697.48	54164.68
697.67	54174.92
697.86	54305.99
698.05	53980.36
698.24	55004.34
698.43	53744.84
698.62	53712.08
698.81	53490.90
699.00	54224.07
699.19	53777.61
699.38	53892.30
699.57	53947.59
699.76	54303.94
699.95	53492.94
700.14	53628.11
700.32	53658.83
700.51	53644.49
700.70	54289.60
700.89	53945.54
701.08	54047.94
701.27	53587.15
701.46	53953.74
701.65	53267.67
701.84	54049.99
702.03	53525.71
702.22	53605.58
702.41	53982.41
702.60	53912.78
702.79	54080.71
702.98	53318.87
703.17	53542.10
703.35	53204.18
703.54	53650.64
703.73	53662.93
703.92	53619.92
704.11	53384.40
704.30	53230.80
704.49	53683.40
704.68	52952.28
704.87	53011.67
705.06	53134.55
705.25	52956.38
705.43	53437.65
705.62	53150.93
705.81	53474.51
706.00	53097.69
706.19	52704.48
706.38	53003.48
706.57	52933.85
706.76	52679.90
706.95	52741.34
707.14	52753.63
707.32	52815.07
707.51	52911.32
707.70	52909.27
707.89	52589.79
708.08	52446.43
708.27	53222.61
708.46	52888.79
708.65	52808.92
708.84	53026.01
709.02	52548.83
709.21	52909.27
709.40	52499.68
709.59	52946.14
709.78	52686.04
709.97	52516.06
710.16	52675.80
710.34	52235.49
710.53	52321.51
710.72	52675.80
710.91	52417.76
711.10	52438.24
711.29	52282.59
711.48	52163.81
711.66	52589.79
711.85	51741.93
712.04	52415.71
712.23	52135.14
712.42	52511.97
712.61	51750.12
712.80	51985.64
712.98	52178.15
713.17	51895.53
713.36	51961.06
713.55	52219.11
713.74	52370.66
713.93	52333.79
714.11	51930.34
714.30	51772.65
714.49	51649.77
714.68	52065.51
714.87	51807.47
715.06	52045.03
715.24	52081.89
715.43	52274.40
715.62	51641.58
715.81	51492.08
716.00	52002.02
716.18	51707.12
716.37	51533.04
716.56	51123.44
716.75	51856.62
716.94	51516.65
717.12	51303.67
717.31	52061.41
717.50	51430.64
717.69	51344.62
717.88	51504.37
718.06	51287.28
718.25	51430.64
718.44	51098.87
718.63	51178.74
718.82	50701.56
719.00	50830.58
719.19	51033.33
719.38	51102.96
719.57	50736.38
719.76	50586.88
719.94	50564.35
720.13	50394.37
720.32	50547.96
720.51	50558.20
720.69	50603.26
720.88	50683.13
721.07	50228.48
721.26	50017.54
721.44	50541.82
721.63	49976.58
721.82	50072.84
722.01	49741.06
722.20	50287.87
722.38	49739.02
722.57	49192.21
722.76	49882.37
722.95	49861.90
723.13	49634.57
723.32	49773.83
723.51	49526.03
723.70	49851.66
723.88	49562.89
724.07	49321.23
724.26	49472.78
724.44	48923.93
724.63	49655.05
724.82	49605.90
725.01	49452.30
725.19	49405.20
725.38	49575.18
725.57	49310.99
725.76	49437.97
725.94	49483.02
726.13	49091.86
726.32	49343.76
726.51	49190.16
726.69	49687.82
726.88	49390.86
727.07	49265.94
727.25	49210.64
727.44	48913.69
727.63	48837.91
727.82	49067.28
728.00	48876.82
728.19	48952.60
728.38	49634.57
728.56	48592.15
728.75	49292.56
728.94	48612.63
729.12	49147.15
729.31	49069.33
729.50	48966.93
729.69	49159.44
729.87	49272.08
730.06	48704.79
730.25	48964.88
730.43	49208.59
730.62	48583.96
730.81	49048.85
730.99	49108.24
731.18	48938.26
731.37	49046.80
731.55	48960.79
731.74	48780.57
731.93	49138.96
732.11	48594.20
732.30	49124.63
732.49	48508.19
732.67	48665.88
732.86	48921.88
733.05	48620.83
733.23	48362.78
733.42	48862.49
733.61	48641.31
733.79	48825.62
733.98	49218.83
734.17	48647.45
734.35	49005.84
734.54	48698.65
734.73	48592.15
734.91	48715.03
735.10	48452.89
735.29	48690.46
735.47	48217.38
735.66	48708.89
735.84	48436.51
736.03	48270.62
736.22	48712.98
736.40	48125.22
736.59	48334.11
736.78	48125.22
736.96	48043.30
737.15	47932.71
737.33	48012.58
737.52	48403.74
737.71	48270.62
737.89	48244.00
738.08	47752.49
738.27	48184.61
738.45	48616.73
738.64	48624.92
738.82	48143.65
739.01	47961.38
739.20	47768.87
739.38	48059.68
739.57	48420.13
739.75	48239.90
739.94	47953.19
740.13	48055.59
740.31	47815.97
740.50	48084.26
740.68	48143.65
740.87	48338.21
741.06	48147.75
741.24	47754.54
741.43	47746.34
741.61	48469.28
741.80	47762.73
741.99	47416.62
742.17	47764.78
742.36	47566.12
742.54	47471.92
742.73	47850.79
742.91	47527.21
743.10	47285.55
743.29	47531.31
743.47	47658.28
743.66	47346.99
743.84	47555.88
744.03	47101.23
744.21	47332.65
744.40	47617.32
744.59	47363.37
744.77	46912.82
744.96	47508.78
745.14	47629.61
745.33	46943.54
745.51	47185.20
745.70	47322.41
745.88	47039.79
746.07	46961.97
746.26	46619.96
746.44	47217.97
746.63	47265.07
746.81	46839.09
747.00	46726.46
747.18	47250.74
747.37	47027.51
747.55	46665.02
747.74	47187.25
747.92	46943.54
748.11	46990.64
748.29	46933.30
748.48	46691.64
748.66	46812.47
748.85	46667.06
749.03	46751.03
749.22	46636.34
749.41	46318.91
749.59	46458.17
749.78	46767.41
749.96	45880.64
750.15	46003.52
750.33	46777.65
750.52	46153.02
750.70	46488.89
750.89	46048.58
751.07	46110.02
751.26	45899.08
751.44	45905.22
751.63	46044.48
751.81	45841.73
752.00	45868.36
752.18	46114.11
752.37	45741.38
752.55	45821.25
752.74	45725.00
752.92	45714.76
753.10	45516.11
753.29	45798.73
753.47	45776.20
753.66	45450.57
753.84	45966.66
754.03	45462.86
754.21	45235.53
754.40	45671.75
754.58	45536.59
754.77	45481.29
754.95	45462.86
755.14	45178.19
755.32	45296.97
755.51	44991.83
755.69	45139.28
755.88	44889.43
756.06	45145.42
756.24	44754.26
756.43	44885.33
756.61	44924.24
756.80	45088.08
756.98	45079.89
757.17	44565.85
757.35	44864.85
757.54	44905.81
757.72	44774.74
757.90	44617.05
758.09	44508.50
758.27	44436.83
758.46	44373.34
758.64	44615.00
758.83	44533.08
759.01	44838.23
759.19	44766.55
759.38	44584.28
759.56	44404.06
759.75	44592.47
759.93	44703.06
760.12	44232.03
760.30	44346.72
760.48	44285.28
760.67	44086.62
760.85	44064.10
761.04	44209.50
761.22	44262.75
761.40	44459.35
761.59	44270.94
761.77	43607.40
761.96	44035.42
762.14	43756.90
762.32	43652.45
762.51	43447.66
762.69	43586.92
762.88	43709.80
763.06	43910.50
763.24	43654.50
763.43	43603.30
763.61	43752.80
763.80	43433.32
763.98	43107.69
764.16	43275.63
764.35	43058.54
764.53	43355.50
764.72	43838.82
764.90	43390.31
765.08	42978.67
765.27	43130.22
765.45	42640.76
765.63	42579.32
765.82	42827.12
766.00	42657.14
766.18	43046.26
766.37	43144.56
766.55	42972.53
766.74	42808.69
766.92	42775.92
767.10	42689.91
767.29	42638.71
767.47	42206.59
767.65	42614.13
767.84	42534.26
768.02	42769.78
768.20	42327.42
768.39	42577.27
768.57	42495.35
768.75	42276.22
768.94	42300.79
769.12	42526.07
769.30	42192.25
769.49	42268.03
769.67	41629.06
769.85	41514.37
770.04	42128.77
770.22	42032.51
770.40	41657.73
770.59	41682.31
770.77	41993.60
770.95	41837.95
771.14	41674.12
771.32	41174.41
771.50	41254.28
771.69	41463.18
771.87	41543.05
772.05	41452.94
772.24	41352.58
772.42	41198.99
772.60	40816.02
772.78	40992.14
772.97	40682.90
773.15	41383.30
773.33	41108.88
773.52	40754.58
773.70	41315.72
773.88	41026.96
774.07	41106.83
774.25	40965.52
774.43	41223.56
774.61	40879.50
774.80	41252.23
774.98	40914.32
775.16	40983.95
775.34	41254.28
775.53	41280.91
775.71	41414.02
775.89	41422.22
776.08	40916.37
776.26	41391.50
776.44	40973.71
776.62	41162.12
776.81	40854.93
776.99	41448.84
777.17	40957.33
777.35	41323.91
777.54	41532.81
777.72	41094.54
777.90	41127.31
778.08	41487.75
778.27	40914.32
778.45	41428.36
778.63	41442.70
778.81	41305.48
779.00	41907.58
779.18	41391.50
779.36	41790.85
779.54	41620.87
779.73	41330.06
779.91	41624.96
780.09	41285.00
780.27	41491.85
780.46	41637.25
780.64	42085.76
780.82	41405.83
781.00	41450.89
781.19	41885.06
781.37	41758.08
781.55	41885.06
781.73	42014.08
781.91	41592.20
782.10	41833.86
782.28	41977.22
782.46	41944.45
782.64	41887.10
782.82	41616.77
783.01	41872.77
783.19	41866.63
783.37	41891.20
783.55	41915.78
783.74	41915.78
783.92	41672.07
784.10	41803.14
784.28	41807.23
784.46	41319.82
784.64	41704.84
784.83	41862.53
785.01	41887.10
785.19	41577.86
785.37	41780.61
785.55	41751.94
785.74	41518.47
785.92	41639.30
786.10	41805.19
786.28	41702.79
786.46	41174.41
786.64	41211.28
786.83	41710.98
787.01	41667.97
787.19	41248.14
787.37	41645.44
787.55	41493.89
787.74	41440.65
787.92	40992.14
788.10	41026.96
788.28	40670.61
788.46	40992.14
788.64	40414.62
788.82	41565.57
789.01	41096.59
789.19	41125.26
789.37	40885.65
789.55	40834.45
789.73	40682.90
789.91	40600.98
790.09	40514.97
790.28	40230.30
790.46	40404.38
790.64	40363.42
790.82	40625.56
791.00	40199.58
791.18	39837.09
791.36	39749.03
791.55	40152.48
791.73	40035.74
791.91	39867.81
792.09	39730.59
792.27	39589.28
792.45	39527.84
792.63	39525.80
792.81	39368.10
793.00	39507.37
793.18	38995.37
793.36	39210.41
793.54	39312.81
793.72	39144.87
793.90	39173.55
794.08	39153.07
794.26	38827.44
794.44	38053.31
794.62	38333.88
794.81	38833.58
794.99	38718.90
795.17	38036.92
795.35	38444.47
795.53	38581.68
795.71	38622.64
795.89	38356.41
796.07	38122.94
796.25	37561.79
796.43	37805.50
796.61	37535.17
796.80	37586.37
796.98	37780.93
797.16	37115.34
797.34	37627.33
797.52	37344.71
797.70	37705.15
797.88	37264.84
798.06	36990.41
798.24	37557.70
798.42	37254.60
798.60	37340.61
798.78	36830.67
798.96	36699.60
799.14	36781.52
799.32	36689.36
799.51	36496.85
799.69	36691.41
799.87	36593.11
800.05	36275.67
800.23	36128.22
800.41	36124.12
800.59	36234.71
800.77	35997.15
800.95	35354.08
801.13	35794.40
801.31	35558.88
801.49	36130.26
801.67	35565.03
801.85	35853.79
802.03	35442.15
802.21	34958.83
802.39	35268.07
802.57	35436.00
802.75	35050.99
802.93	35114.47
803.11	35067.37
803.29	34698.73
803.47	34938.35
803.65	34903.53
803.83	34520.56
804.01	34547.18
804.19	34323.96
804.37	34356.72
804.55	34457.07
804.73	34536.94
804.91	34510.32
805.09	34346.48
805.27	34160.12
805.45	34190.84
805.63	33922.55
805.81	34209.27
805.99	34141.69
806.17	34045.43
806.35	33760.76
806.53	33615.36
806.71	33568.26
806.89	33347.08
807.07	33656.32
807.25	33531.39
807.43	33322.50
807.61	33451.52
807.79	33627.65
807.97	33119.75
808.15	33027.59
808.33	32951.82
808.51	32480.78
808.69	33025.54
808.87	32671.25
809.05	32693.77
809.23	32814.60
809.41	32222.74
809.59	32329.23
809.77	32519.70
809.95	32142.87
810.13	32595.47
810.31	32177.68
810.49	32634.38
810.67	32171.54
810.84	32073.24
811.02	31929.88
811.20	32196.12
811.38	31966.74
811.56	31794.71
811.74	31716.89
811.92	31815.19
812.10	32140.82
812.28	32106.01
812.46	31419.94
812.64	31600.16
812.82	31315.49
813.00	31532.57
813.18	31413.79
813.36	31024.68
813.53	30692.91
813.71	30973.48
813.89	31061.54
814.07	31133.22
814.25	31122.98
814.43	30852.65
814.61	30623.28
814.79	30762.54
814.97	30621.23
815.15	30957.10
815.33	30629.42
815.50	30049.85
815.68	30332.47
815.86	30469.68
816.04	30330.42
816.22	30195.25
816.40	30277.17
816.58	30283.31
816.76	30103.09
816.94	30283.31
817.11	30092.85
817.29	29951.54
817.47	29879.86
817.65	29738.55
817.83	29916.73
818.01	29515.33
818.19	29638.20
818.37	29414.98
818.54	29505.09
818.72	29384.26
818.90	29759.03
819.08	29511.23
819.26	29310.53
819.44	29322.82
819.62	28999.24
819.80	29300.29
819.97	29111.88
820.15	29079.11
820.33	29396.54
820.51	29056.58
820.69	28890.70
820.87	29642.30
821.05	29226.56
821.22	29099.59
821.40	29066.82
821.58	28902.98
821.76	28663.37
821.94	28644.94
822.12	28804.68
822.29	28677.71
822.47	28649.03
822.65	28855.88
822.83	28317.26
823.01	28423.76
823.19	28528.20
823.36	28190.29
823.54	28008.02
823.72	27989.59
823.90	28227.15
824.08	28077.65
824.25	28126.80
824.43	27838.04
824.61	27958.87
824.79	28001.88
824.97	27942.49
825.15	28167.76
825.32	27928.15
825.50	27899.48
825.68	27682.39
825.86	27749.98
826.04	27905.62
826.21	27397.73
826.39	27674.20
826.57	27516.51
826.75	27639.39
826.93	27450.97
827.10	27493.98
827.28	27469.40
827.46	27770.46
827.64	27307.62
827.81	27072.10
827.99	27082.34
828.17	27139.68
828.35	26955.36
828.53	27039.33
828.70	27289.18
828.88	26797.67
829.06	26916.45
829.24	27119.20
829.41	26875.49
829.59	27055.72
829.77	26969.70
829.95	26957.41
830.12	26963.56
830.30	26545.77
830.48	26818.15
830.66	26461.80
830.84	26807.91
831.01	26631.79
831.19	26580.59
831.37	26470.00
831.55	26408.56
831.72	26558.06
831.90	26390.13
832.08	26312.30
832.25	26013.30
832.43	26216.05
832.61	26017.40
832.79	25902.71
832.96	26281.58
833.14	26293.87
833.32	25828.98
833.50	26089.07
833.67	26003.06
833.85	26207.86
834.03	25800.31
834.20	25958.00
834.38	25865.85
834.56	25871.99
834.74	25378.43
834.91	25996.92
835.09	26257.01
835.27	25284.22
835.44	25704.06
835.62	25321.09
835.80	25538.17
835.98	25710.20
836.15	25790.07
836.33	25331.33
836.51	25370.24
836.68	25132.67
836.86	25169.54
837.04	25407.10
837.21	25517.69
837.39	25476.73
837.57	25529.98
837.75	25222.78
837.92	25505.40
838.10	24923.78
838.28	25058.95
838.45	25134.72
838.63	24757.89
838.81	25024.13
838.98	25034.37
839.16	25218.69
839.34	24848.00
839.51	24475.27
839.69	24673.93
839.87	24741.51
840.04	24768.13
840.22	24665.74
840.40	24764.04
840.57	24444.56
840.75	24680.07
840.93	24366.73
841.10	24698.50
841.28	25056.90
841.46	24710.79
841.63	24487.56
841.81	24452.75
841.98	24684.17
842.16	24731.27
842.34	24499.85
842.51	24155.79
842.69	24338.06
842.87	24376.97
843.04	24364.68
843.22	24487.56
843.40	23856.79
843.57	24120.98
843.75	24350.35
843.92	24391.31
844.10	24053.39
844.28	24399.50
844.45	24200.85
844.63	24116.88
844.81	23875.22
844.98	24026.77
845.16	24075.92
845.33	24049.30
845.51	23830.16
845.69	23930.51
845.86	23766.68
846.04	23623.32
846.21	23953.04
846.39	23684.76
846.57	23500.44
846.74	23707.29
846.92	23803.54
847.09	23531.16
847.27	23277.21
847.45	23594.65
847.62	23336.60
847.80	23502.49
847.97	23463.58
848.15	23430.81
848.32	23260.83
848.50	23531.16
848.68	23299.74
848.85	23355.04
849.03	22949.54
849.20	23269.02
849.38	23326.36
849.56	23084.70
849.73	22830.76
849.91	22957.73
850.08	23226.01
850.26	22752.93
850.43	22822.56
850.61	22890.15
850.78	22881.95
850.96	22863.52
851.14	22677.16
851.31	22922.91
851.49	22699.69
851.66	22914.72
851.84	22845.09
852.01	22496.94
852.19	22810.28
852.36	22634.15
852.54	22816.42
852.71	22480.55
852.89	22595.24
853.07	22404.78
853.24	22546.09
853.42	22730.41
853.59	22374.06
853.77	22718.12
853.94	22365.87
854.12	22773.41
854.29	22709.93
854.47	22150.83
854.64	22257.32
854.82	22394.54
854.99	22036.14
855.17	22128.30
855.34	22060.72
855.52	22085.30
855.69	22425.26
855.87	22152.88
856.04	21804.72
856.22	21948.08
856.39	22042.29
856.57	22122.16
856.74	21667.51
856.92	21960.37
857.09	21614.26
857.27	21706.42
857.44	21776.05
857.62	21782.20
857.79	21907.12
857.97	21933.75
858.14	22089.39
858.32	21728.95
858.49	21780.15
858.67	21833.39
858.84	21704.37
859.02	21819.06
859.19	21743.28
859.37	21462.71
859.54	21307.07
859.72	21606.07
859.89	21337.79
860.06	21614.26
860.24	21372.60
860.41	21456.57
860.59	21311.16
860.76	21575.35
860.94	21022.40
861.11	21475.00
861.29	21077.69
861.46	21071.55
861.64	21026.50
861.81	21057.21
861.98	20838.08
862.16	20997.82
862.33	20721.35
862.51	21102.27
862.68	21096.13
862.86	20698.82
863.03	20858.56
863.21	20973.25
863.38	20862.66
863.55	20833.99
863.73	20862.66
863.90	20811.46
864.08	20926.14
864.25	20698.82
864.43	20602.57
864.60	20432.58
864.77	20395.72
864.95	20637.38
865.12	20383.43
865.30	20704.96
865.47	20365.00
865.64	20776.64
865.82	20440.78
865.99	20506.31
866.17	20274.89
866.34	20502.22
866.51	20285.13
866.69	20244.17
866.86	20367.05
867.04	20141.77
867.21	20299.47
867.38	19949.26
867.56	20162.25
867.73	20074.19
867.91	20152.01
868.08	20092.62
868.25	20272.84
868.43	19861.20
868.60	19715.80
868.78	19789.52
868.95	19924.69
869.12	19529.43
869.30	19539.67
869.47	19814.10
869.64	19271.39
869.82	19922.64
869.99	19599.06
870.16	19846.87
870.34	19390.17
870.51	19597.01
870.69	19355.35
870.86	19654.36
871.03	19719.89
871.21	19560.15
871.38	19597.01
871.55	19181.28
871.73	19343.06
871.90	19246.81
872.07	19207.90
872.25	19224.28
872.42	19218.14
872.59	19146.46
872.77	19107.55
872.94	19082.97
873.11	19060.45
873.29	19015.39
873.46	18923.23
873.63	18777.83
873.81	19044.06
873.98	18732.77
874.15	18573.03
874.33	18673.38
874.50	18790.11
874.67	18958.05
874.85	18681.57
875.02	18489.06
875.19	18769.63
875.37	18620.13
875.54	18511.59
875.71	18388.71
875.88	18372.33
876.06	18419.43
876.23	18347.75
876.40	18052.84
876.58	18124.52
876.75	18013.93
876.92	18302.70
877.10	18458.34
877.27	18376.42
877.44	18145.00
877.61	17995.50
877.79	18102.00
877.96	17891.06
878.13	17927.92
878.31	17712.88
878.48	18024.17
878.65	17829.62
878.82	17911.53
879.00	17743.60
879.17	17821.42
879.34	17694.45
879.51	17614.58
879.69	17723.12
879.86	17602.29
880.03	17563.38
880.21	17329.91
880.38	17610.48
880.55	17649.39
880.72	17667.83
880.90	17503.99
881.07	17213.18
881.24	17493.75
881.41	17436.41
881.59	17551.09
881.76	17334.01
881.93	17305.34
882.10	17125.11
882.28	17145.59
882.45	17315.58
882.62	17266.42
882.79	17377.01
882.96	16871.17
883.14	17149.69
883.31	17403.64
883.48	16936.70
883.65	16813.82
883.83	17135.35
884.00	16971.52
884.17	17194.75
884.34	16994.04
884.51	16844.54
884.69	16910.08
884.86	17190.65
885.03	16844.54
885.20	16926.46
885.38	16918.27
885.55	16795.39
885.72	16637.70
885.89	16633.60
886.06	16752.38
886.24	16754.43
886.41	16688.90
886.58	16865.02
886.75	16604.93
886.92	16492.29
887.10	16649.99
887.27	16568.07
887.44	16742.14
887.61	16781.06
887.78	16467.72
887.95	16688.90
888.13	16420.61
888.30	16166.67
888.47	16383.75
888.64	16527.11
888.81	16322.31
888.99	16359.17
889.16	16099.08
889.33	16189.19
889.50	16131.85
889.67	16144.14
889.84	16107.27
890.01	16160.52
890.19	16246.54
890.36	16230.15
890.53	16006.92
890.70	16164.62
890.87	15959.82
891.04	16027.40
891.22	16051.98
891.39	15861.52
891.56	15732.50
891.73	15863.57
891.90	15769.36
892.07	15765.26
892.24	15787.79
892.42	15894.29
892.59	15650.58
892.76	15619.86
892.93	15730.45
893.10	15613.71
893.27	15779.60
893.44	15679.25
893.61	15732.50
893.79	15648.53
893.96	15499.03
894.13	15755.02
894.30	15808.27
894.47	15329.05
894.64	15662.86
894.81	15386.39
894.98	15585.04
895.15	15795.98
895.33	15585.04
895.50	15435.54
895.67	15636.24
895.84	15437.59
896.01	15396.63
896.18	15492.88
896.35	15822.61
896.52	15388.44
896.69	15433.49
896.86	15462.16
897.04	15308.57
897.21	15417.11
897.38	15433.49
897.55	15505.17
897.72	15406.87
897.89	15265.56
898.06	15308.57
898.23	15546.13
898.40	15460.12
898.57	15400.72
898.74	15589.14
898.91	15417.11
899.08	15595.28
899.26	15322.90
899.43	15306.52
899.60	15347.48
899.77	15574.80
899.94	15210.26
900.11	15447.83
900.28	15167.26
900.45	15195.93
900.62	15570.71
900.79	15503.12
900.96	15548.18
901.13	15517.46
901.30	15370.01
901.47	15277.85
901.64	15480.60
901.81	15464.21
901.98	15154.97
902.15	15451.92
902.32	15214.36
902.49	15404.82
902.66	15214.36
902.83	15240.98
903.01	15320.85
903.18	15261.46
903.35	15273.75
903.52	15431.44
903.69	15484.69
903.86	15306.52
904.03	15296.28
904.20	15361.81
904.37	15410.96
904.54	15181.59
904.71	15050.52
904.88	15394.58
905.05	15159.06
905.22	15591.19
905.39	15058.71
905.56	15202.07
905.73	15062.81
905.90	15226.65
906.07	15382.29
906.24	15476.50
906.41	15394.58
906.58	15327.00
906.75	15142.68
906.92	15136.54
907.09	15105.82
907.26	15243.03
907.43	14978.84
907.60	15290.13
907.77	15265.56
907.93	15163.16
908.10	15036.19
908.27	15365.91
908.44	15118.11
908.61	15116.06
908.78	15230.74
908.95	15484.69
909.12	15060.76
909.29	15263.51
909.46	15075.10
909.63	15134.49
909.80	15159.06
909.97	15093.53
910.14	15161.11
910.31	14923.55
910.48	14980.89
910.65	15023.90
910.82	14708.51
910.99	15044.38
911.16	14874.40
911.33	14995.23
911.50	14763.81
911.66	14855.97
911.83	15353.62
912.00	14690.08
912.17	14624.54
912.34	14896.92
912.51	14905.12
912.68	14700.32
912.85	14966.56
913.02	14931.74
913.19	14675.74
913.36	14941.98
913.53	14759.71
913.70	14649.12
913.86	14710.56
914.03	14438.18
914.20	14464.80
914.37	14657.31
914.54	14511.91
914.71	14632.74
914.88	14552.87
915.05	14278.44
915.22	14360.36
915.39	14237.48
915.55	14448.42
915.72	14280.49
915.89	14085.93
916.06	13934.38
916.23	14200.62
916.40	13963.05
916.57	14081.83
916.74	13967.15
916.91	13705.01
917.07	13756.21
917.24	13797.17
917.41	13868.84
917.58	13934.38
917.75	14008.11
917.92	13887.28
918.09	13823.79
918.26	13707.05
918.42	13688.62
918.59	13748.01
918.76	13553.46
918.93	13340.47
919.10	13354.80
919.27	13432.63
919.44	13461.30
919.60	13516.59
919.77	13479.73
919.94	13330.23
920.11	13485.87
920.28	13324.08
920.45	13256.50
920.61	13119.29
920.78	13156.15
920.95	13094.71
921.12	12898.11
921.29	13047.61
921.46	13111.10
921.62	12971.83
921.79	13068.09
921.96	12947.26
922.13	12857.15
922.30	12752.70
922.47	12666.69
922.63	12857.15
922.80	12570.43
922.97	12633.92
923.14	12484.42
923.31	12554.05
923.47	12390.21
923.64	12781.37
923.81	12248.90
923.98	12566.34
924.15	12369.73
924.32	12306.24
924.48	12484.42
924.65	12470.08
924.82	12179.27
924.99	12203.85
925.15	12033.86
925.32	12191.56
925.49	11786.06
925.66	11839.31
925.83	11941.71
925.99	11452.24
926.16	11978.57
926.33	11763.53
926.50	11714.38
926.67	11718.48
926.83	11677.52
927.00	11585.36
927.17	11536.21
927.34	11331.41
927.50	11525.97
927.67	11454.29
927.84	11364.18
928.01	11339.60
928.17	11263.83
928.34	11286.36
928.51	11147.09
928.68	11190.10
928.84	11009.88
929.01	10964.82
929.18	10815.32
929.35	11024.22
929.51	10962.78
929.68	10950.49
929.85	10813.28
930.02	10749.79
930.18	10536.80
930.35	10620.77
930.52	10665.82
930.69	10710.88
930.85	10442.59
931.02	10483.55
931.19	10321.76
931.36	10248.04
931.52	10209.12
931.69	10471.26
931.86	10174.31
932.02	10176.36
932.19	10184.55
932.36	10100.58
932.53	10084.20
932.69	9860.97
932.86	10004.33
933.03	9928.55
933.19	9672.56
933.36	9770.86
933.53	9957.22
933.70	9826.15
933.86	9666.41
934.03	9729.90
934.20	9432.94
934.36	9668.46
934.53	9545.58
934.70	9434.99
934.86	9394.03
935.03	9109.36
935.20	9152.37
935.36	9236.34
935.53	9019.25
935.70	9187.19
935.86	8943.48
936.03	8679.29
936.20	8599.42
936.36	8712.06
936.53	8671.10
936.70	8568.70
936.86	8851.32
937.03	8535.93
937.20	8300.42
937.36	8394.62
937.53	8218.50
937.70	8058.76
937.86	8038.28
938.03	8073.09
938.20	8138.63
938.36	7772.04
938.53	7753.61
938.70	7620.49
938.86	7686.03
939.03	7602.06
939.20	7436.17
939.36	7516.05
939.53	7487.37
939.70	7448.46
939.86	7071.64
940.03	6913.94
940.19	7100.31
940.36	6848.41
940.53	7049.11
940.69	6829.98
940.86	6682.52
941.03	6655.90
941.19	6508.44
941.36	6404.00
941.52	6389.66
941.69	6227.87
941.86	6375.33
942.02	6209.44
942.19	6193.06
942.35	6123.43
942.52	6186.91
942.69	6033.32
942.85	5865.38
943.02	5775.27
943.18	5844.90
943.35	5988.26
943.52	5797.80
943.68	5642.15
943.85	5672.87
944.01	5695.40
944.18	5771.18
944.35	5740.46
944.51	5617.58
944.68	5453.74
944.84	5392.30
945.01	5392.30
945.17	5689.26
945.34	5597.10
945.51	5429.17
945.67	5361.58
945.84	5556.14
946.00	5398.45
946.17	5506.99
946.33	5443.50
946.50	5392.30
946.67	5480.36
946.83	5478.32
947.00	5398.45
947.16	5435.31
947.33	5427.12
947.49	5269.42
947.66	5314.48
947.82	5271.47
947.99	5177.26
948.16	5398.45
948.32	5382.06
948.49	5339.05
948.65	5353.39
948.82	5423.02
948.98	5345.20
949.15	5224.37
949.31	5386.16
949.48	5265.33
949.64	5207.98
949.81	5367.73
949.97	5250.99
950.14	5447.60
950.30	5425.07
950.47	5423.02
950.63	5324.72
950.80	5564.33
950.96	5320.62
951.13	5580.71
951.30	5445.55
951.46	5439.40
951.63	5509.04
951.79	5425.07
951.96	5550.00
952.12	5511.08
952.29	5332.91
952.45	5472.17
952.62	5423.02
952.78	5492.65
952.94	5488.56
953.11	5427.12
953.27	5447.60
953.44	5498.80
953.60	5607.34
953.77	5492.65
953.93	5486.51
954.10	5603.24
954.26	5570.48
954.43	5418.93
954.59	5644.20
954.76	5631.91
954.92	5535.66
955.09	5427.12
955.25	5355.44
955.42	5580.71
955.58	5756.84
955.75	5547.95
955.91	5353.39
956.07	5480.36
956.24	5509.04
956.40	5554.09
956.57	5730.22
956.73	5457.84
956.90	5582.76
957.06	5484.46
957.23	5406.64
957.39	5390.25
957.56	5601.19
957.72	5359.53
957.88	5386.16
958.05	5566.38
958.21	5685.16
958.38	5605.29
958.54	5574.57
958.71	5640.11
958.87	5535.66
959.03	5593.00
959.20	5615.53
959.36	5377.97
959.53	5525.42
959.69	5404.59
959.85	5605.29
960.02	5375.92
960.18	5482.41
960.35	5443.50
960.51	5550.00
960.68	5345.20
960.84	5427.12
961.00	5531.56
961.17	5566.38
961.33	5423.02
961.50	5572.52
961.66	5560.24
961.82	5599.15
961.99	5525.42
962.15	5480.36
962.31	5347.25
962.48	5457.84
962.64	5511.08
962.81	5597.10
962.97	5672.87
963.13	5644.20
963.30	5482.41
963.46	5416.88
963.62	5369.77
963.79	5459.88
963.95	5418.93
964.12	5609.39
964.28	5523.37
964.44	5363.63
964.61	5523.37
964.77	5349.29
964.93	5459.88
965.10	5513.13
965.26	5365.68
965.42	5380.01
965.59	5300.14
965.75	5388.21
965.92	5437.36
966.08	5304.24
966.24	5328.81
966.41	5314.48
966.57	5291.95
966.73	5410.73
966.90	5334.96
967.06	5398.45
967.22	5193.65
967.39	5259.18
967.55	5210.03
967.71	5283.76
967.88	5212.08
968.04	5369.77
968.20	5275.57
968.37	5160.88
968.53	5207.98
968.69	5300.14
968.85	5365.68
969.02	5126.07
969.18	5199.79
969.34	5156.79
969.51	5226.42
969.67	5187.50
969.83	5171.12
970.00	5263.28
970.16	5222.32
970.32	5156.79
970.48	5302.19
970.65	5044.15
970.81	5097.39
970.97	5167.03
971.14	5003.19
971.30	5275.57
971.46	5267.38
971.63	5275.57
971.79	5226.42
971.95	5099.44
972.11	4917.17
972.28	5150.64
972.44	5072.82
972.60	4941.75
972.76	5052.34
972.93	4935.60
973.09	4933.56
973.25	4882.36
973.42	4984.76
973.58	5089.20
973.74	4939.70
973.90	5031.86
974.07	4790.20
974.23	4943.80
974.39	4960.18
974.55	4892.60
974.72	4837.30
974.88	4874.17
975.04	4888.50
975.20	4853.69
975.37	4812.73
975.53	4775.86
975.69	4923.32
975.85	4767.67
976.01	4808.63
976.18	4833.21
976.34	4677.56
976.50	4853.69
976.66	4829.11
976.83	4851.64
976.99	4722.62
977.15	4775.86
977.31	4569.02
977.47	4829.11
977.64	4560.83
977.80	4739.00
977.96	4693.94
978.12	4728.76
978.29	4646.84
978.45	4687.80
978.61	4648.89
978.77	4558.78
978.93	4548.54
979.10	4607.93
979.26	4640.70
979.42	4599.74
979.58	4573.11
979.74	4585.40
979.91	4632.51
980.07	4401.08
980.23	4558.78
980.39	4499.39
980.55	4566.97
980.71	4446.14
980.88	4485.05
981.04	4601.79
981.20	4554.68
981.36	4624.31
981.52	4536.25
981.68	4356.03
981.85	4587.45
982.01	4364.22
982.17	4351.93
982.33	4452.28
982.49	4444.09
982.65	4270.01
982.82	4405.18
982.98	4341.69
983.14	4321.21
983.30	4403.13
983.46	4360.13
983.62	4294.59
983.79	4333.50
983.95	4177.86
984.11	4132.80
984.27	4235.20
984.43	4267.97
984.59	4245.44
984.75	4319.17
984.91	4216.77
985.08	4251.58
985.24	4044.74
985.40	4169.66
985.56	4184.00
985.72	4276.16
985.88	4241.34
986.04	4124.61
986.20	4212.67
986.37	4218.82
986.53	4034.50
986.69	4057.03
986.85	4024.26
987.01	4036.55
987.17	4102.08
987.33	4016.07
987.49	4054.98
987.65	4087.75
987.82	3975.11
987.98	4020.16
988.14	4034.50
988.30	4079.55
988.46	3848.13
988.62	3987.40
988.78	3925.96
988.94	3915.72
989.10	3934.15
989.26	3893.19
989.42	3858.37
989.59	3958.72
989.75	3819.46
989.91	3923.91
990.07	3755.97
990.23	3733.45
990.39	3909.57
990.55	4022.21
990.71	3723.21
990.87	3940.29
991.03	3889.09
991.19	3887.04
991.35	3817.41
991.51	3780.55
991.67	3895.24
991.83	3774.41
992.00	3801.03
992.16	3897.28
992.32	3770.31
992.48	3747.78
992.64	3608.52
992.80	3710.92
992.96	3643.34
993.12	3925.96
993.28	3708.87
993.44	3694.54
993.60	3747.78
993.76	3674.06
993.92	3772.36
994.08	3686.34
994.24	3694.54
994.40	3608.52
994.56	3755.97
994.72	3588.04
994.88	3657.67
995.04	3588.04
995.20	3504.07
995.36	3542.99
995.52	3502.03
995.68	3606.47
995.84	3389.39
996.00	3631.05
996.16	3549.13
996.32	3375.05
996.48	3520.46
996.64	3577.80
996.80	3358.67
996.96	3450.83
997.12	3485.64
997.28	3305.42
997.44	3430.35
997.60	3413.96
997.76	3471.31
997.92	3432.40
998.08	3444.68
998.24	3286.99
998.40	3358.67
998.56	3459.02
998.72	3321.81
998.88	3340.24
999.04	3319.76
999.20	3452.88
999.36	3223.50
999.52	3395.53
999.68	3252.17
999.84	3325.90
1000.00	3346.38
1000.16	3413.96
1000.32	3203.02
1000.48	3438.54
1000.64	3231.69
1000.80	3278.80
1000.95	3239.89
1001.11	3299.28
1001.27	3217.36
1001.43	3180.50
1001.59	3160.02
1001.75	3190.74
1001.91	3268.56
1002.07	3125.20
1002.23	3180.50
1002.39	3180.50
1002.55	3196.88
1002.71	3239.89
1002.87	3125.20
1003.03	3119.06
1003.19	3078.10
1003.34	3194.83
1003.50	3076.05
1003.66	3127.25
1003.82	3237.84
1003.98	3125.20
1004.14	3071.95
1004.30	3059.67
1004.46	3168.21
1004.62	3076.05
1004.78	3080.14
1004.94	3014.61
1005.09	3000.27
1005.25	3139.54
1005.41	3067.86
1005.57	3037.14
1005.73	3000.27
1005.89	2940.88
1006.05	3078.10
1006.21	2971.60
1006.37	2940.88
1006.52	3028.95
1006.68	2832.34
1006.84	3051.47
1007.00	2961.36
1007.16	2953.17
1007.32	2904.02
1007.48	2895.83
1007.64	2926.55
1007.79	2840.53
1007.95	2861.01
1008.11	2926.55
1008.27	2795.48
1008.43	2899.92
1008.59	2863.06
1008.75	2760.66
1008.91	2920.40
1009.06	2869.20
1009.22	2889.68
1009.38	2809.81
1009.54	2840.53
1009.70	2871.25
1009.86	2772.95
1010.01	2828.24
1010.17	2789.33
1010.33	2742.23
1010.49	2795.48
1010.65	2881.49
1010.81	2748.37
1010.96	2731.99
1011.12	2662.36
1011.28	2850.77
1011.44	2760.66
1011.60	2734.04
1011.76	2688.98
1011.91	2838.48
1012.07	2641.88
1012.23	2631.64
1012.39	2680.79
1012.55	2707.41
1012.71	2670.55
1012.86	2672.60
1013.02	2680.79
1013.18	2564.06
1013.34	2645.98
1013.50	2641.88
1013.65	2754.52
1013.81	2549.72
1013.97	2588.63
1014.13	2631.64
1014.29	2519.00
1014.44	2641.88
1014.60	2588.63
1014.76	2559.96
1014.92	2625.50
1015.07	2592.73
1015.23	2680.79
1015.39	2525.15
1015.55	2602.97
1015.71	2574.30
1015.86	2527.19
1016.02	2465.75
1016.18	2457.56
1016.34	2539.48
1016.49	2535.39
1016.65	2559.96
1016.81	2463.71
1016.97	2439.13
1017.12	2586.58
1017.28	2422.75
1017.44	2486.23
1017.60	2500.57
1017.75	2439.13
1017.91	2484.19
1018.07	2519.00
1018.23	2402.27
1018.38	2420.70
1018.54	2387.93
1018.70	2424.80
1018.86	2426.84
1019.01	2363.36
1019.17	2494.43
1019.33	2533.34
1019.49	2478.04
1019.64	2443.23
1019.80	2461.66
1019.96	2471.90
1020.12	2346.97
1020.27	2340.83
1020.43	2369.50
1020.59	2392.03
1020.74	2424.80
1020.90	2426.84
1021.06	2232.29
1021.22	2377.69
1021.37	2328.54
1021.53	2303.96
1021.69	2363.36
1021.84	2269.15
1022.00	2310.11
1022.16	2312.16
1022.31	2338.78
1022.47	2346.97
1022.63	2410.46
1022.79	2193.37
1022.94	2328.54
1023.10	2478.04
1023.26	2187.23
1023.41	2250.72
1023.57	2289.63
1023.73	2246.62
1023.88	2265.05
1024.04	2228.19
1024.20	2238.43
1024.35	2285.53
1024.51	2222.05
1024.67	2297.82
1024.82	2328.54
1024.98	2105.31
1025.14	2277.34
1025.29	2197.47
1025.45	2248.67
1025.61	2170.85
1025.76	2205.66
1025.92	2242.53
1026.08	2228.19
1026.23	2320.35
1026.39	2260.96
1026.55	2217.95
1026.70	2252.77
1026.86	2176.99
1027.02	2287.58
1027.17	2213.85
1027.33	2332.64
1027.48	2166.75
1027.64	2238.43
1027.80	2158.56
1027.95	2213.85
1028.11	2082.78
1028.27	2127.84
1028.42	2115.55
1028.58	2166.75
1028.73	2041.82
1028.89	2013.15
1029.05	2197.47
1029.20	2234.33
>>>>>End Processed Spectral Data<<<<<
