SpectraSuite Data File
++++++++++++++++++++++++++++++++++++
Date: Fri Jun 02 14:57:19 CEST 2017
User: INFO_000
Dark Spectrum Present: No
Reference Spectrum Present: No
Number of Sampled Component Spectra: 1
Spectrometers: USB4H00879
Integration Time (usec): 80000 (USB4H00879)
Spectra Averaged: 1 (USB4H00879)
Boxcar Smoothing: 0 (USB4H00879)
Correct for Electrical Dark: No (USB4H00879)
Strobe/Lamp Enabled: No (USB4H00879)
Correct for Detector Non-linearity: No (USB4H00879)
Correct for Stray Light: No (USB4H00879)
Number of Pixels in Processed Spectrum: 3648
>>>>>Begin Processed Spectral Data<<<<<
345.13	1314.80
345.34	1314.80
345.56	1314.80
345.78	1282.03
345.99	1239.02
346.21	1716.20
346.42	1695.72
346.64	1656.81
346.86	1787.88
347.07	1677.29
347.29	1660.90
347.50	1599.46
347.72	1732.58
347.94	1765.35
348.15	1570.79
348.37	1642.47
348.59	1687.53
348.80	1601.51
349.02	1730.53
349.23	1884.13
349.45	1785.83
349.67	1955.81
349.88	1828.84
350.10	1966.05
350.31	1834.98
350.53	1853.41
350.75	1955.81
350.96	1759.21
351.18	1845.22
351.39	1746.92
351.61	1806.31
351.82	1888.23
352.04	1888.23
352.26	1904.61
352.47	1873.89
352.69	1877.99
352.90	1773.54
353.12	1828.84
353.34	1849.32
353.55	1927.14
353.77	1851.36
353.98	1875.94
354.20	1906.66
354.41	1920.99
354.63	1968.10
354.85	1945.57
355.06	1933.28
355.28	1771.49
355.49	1890.28
355.71	1869.80
355.92	1841.12
356.14	2015.20
356.35	1916.90
356.57	1880.04
356.79	1916.90
357.00	1882.08
357.22	1982.43
357.43	1888.23
357.65	1935.33
357.86	1859.56
358.08	2000.87
358.29	1941.47
358.51	2080.74
358.72	2002.91
358.94	1953.76
359.16	1947.62
359.37	1920.99
359.59	1929.19
359.80	2007.01
360.02	2004.96
360.23	1949.67
360.45	2009.06
360.66	1923.04
360.88	1841.12
361.09	1980.39
361.31	1986.53
361.52	1957.86
361.74	1992.67
361.95	2066.40
362.17	1976.29
362.38	2162.66
362.60	2041.82
362.81	1982.43
363.03	1951.71
363.24	2023.39
363.46	2076.64
363.67	2045.92
363.89	2045.92
364.10	2035.68
364.32	2002.91
364.53	2070.50
364.75	1875.94
364.96	1957.86
365.18	2031.58
365.39	1986.53
365.61	1959.91
365.82	2064.35
366.04	2037.73
366.25	1964.00
366.47	2052.06
366.68	2000.87
366.90	1931.23
367.11	2019.30
367.33	2064.35
367.54	2115.55
367.76	2009.06
367.97	2093.02
368.19	2015.20
368.40	2033.63
368.62	1961.95
368.83	1945.57
369.05	2050.02
369.26	2027.49
369.48	1968.10
369.69	2035.68
369.91	2078.69
370.12	2043.87
370.33	2156.51
370.55	2039.78
370.76	2035.68
370.98	2123.74
371.19	2031.58
371.41	2015.20
371.62	2187.23
371.84	2011.11
372.05	2220.00
372.27	2080.74
372.48	2033.63
372.69	2068.45
372.91	2179.04
373.12	2127.84
373.34	2088.93
373.55	2183.13
373.77	2148.32
373.98	2187.23
374.20	2166.75
374.41	2273.25
374.62	2111.46
374.84	2207.71
375.05	2209.76
375.27	2146.27
375.48	2213.85
375.70	2158.56
375.91	2107.36
376.12	2392.03
376.34	2162.66
376.55	2109.41
376.77	2197.47
376.98	2125.79
377.19	2187.23
377.41	2127.84
377.62	2199.52
377.84	2213.85
378.05	2250.72
378.27	2209.76
378.48	2308.06
378.69	2414.56
378.91	2389.98
379.12	2279.39
379.34	2285.53
379.55	2289.63
379.76	2277.34
379.98	2234.33
380.19	2248.67
380.41	2222.05
380.62	2340.83
380.83	2203.61
381.05	2234.33
381.26	2387.93
381.47	2299.87
381.69	2283.49
381.90	2475.99
382.12	2328.54
382.33	2275.29
382.54	2291.68
382.76	2408.41
382.97	2273.25
383.19	2295.77
383.40	2375.64
383.61	2318.30
383.83	2281.44
384.04	2340.83
384.25	2412.51
384.47	2338.78
384.68	2400.22
384.89	2248.67
385.11	2344.92
385.32	2297.82
385.54	2367.45
385.75	2361.31
385.96	2389.98
386.18	2379.74
386.39	2439.13
386.60	2291.68
386.82	2498.52
387.03	2359.26
387.24	2435.03
387.46	2506.71
387.67	2482.14
387.88	2492.38
388.10	2482.14
388.31	2416.60
388.52	2521.05
388.74	2521.05
388.95	2549.72
389.16	2541.53
389.38	2527.19
389.59	2633.69
389.80	2605.02
390.02	2521.05
390.23	2648.02
390.44	2549.72
390.66	2566.10
390.87	2514.91
391.08	2562.01
391.30	2643.93
391.51	2682.84
391.72	2654.17
391.94	2652.12
392.15	2559.96
392.36	2617.30
392.58	2543.58
392.79	2729.94
393.00	2641.88
393.22	2697.17
393.43	2701.27
393.64	2797.53
393.85	2721.75
394.07	2709.46
394.28	2713.56
394.49	2781.14
394.71	2828.24
394.92	2803.67
395.13	2766.81
395.35	2795.48
395.56	2752.47
395.77	2813.91
395.98	2768.85
396.20	2895.83
396.41	2852.82
396.62	2865.11
396.84	2840.53
397.05	2838.48
397.26	2854.87
397.47	2944.98
397.69	2858.96
397.90	3076.05
398.11	2883.54
398.32	2861.01
398.54	2840.53
398.75	2928.60
398.96	2947.03
399.18	3045.33
399.39	2910.16
399.60	3059.67
399.81	2908.12
400.03	2953.17
400.24	3393.48
400.45	2951.12
400.66	2975.70
400.88	2992.08
401.09	3184.59
401.30	2992.08
401.51	3088.34
401.73	3162.06
401.94	3104.72
402.15	3203.02
402.36	3137.49
402.58	3219.41
402.79	3239.89
403.00	3080.14
403.21	3112.91
403.43	3215.31
403.64	3198.93
403.85	3086.29
404.06	3170.26
404.27	3076.05
404.49	3157.97
404.70	3129.30
404.91	3291.09
405.12	3364.81
405.34	3297.23
405.55	3368.91
405.76	3155.92
405.97	3393.48
406.19	3395.53
406.40	3205.07
406.61	3364.81
406.82	3330.00
407.03	3368.91
407.25	3291.09
407.46	3364.81
407.67	3434.44
407.88	3420.11
408.09	3289.04
408.31	3364.81
408.52	3395.53
408.73	3409.87
408.94	3413.96
409.15	3436.49
409.37	3448.78
409.58	3526.60
409.79	3454.92
410.00	3606.47
410.21	3469.26
410.43	3442.64
410.64	3518.41
410.85	3518.41
411.06	3530.70
411.27	3530.70
411.48	3536.84
411.70	3487.69
411.91	3534.79
412.12	3698.63
412.33	3614.66
412.54	3581.90
412.76	3686.34
412.97	3667.91
413.18	3559.37
413.39	3669.96
413.60	3731.40
413.81	3735.50
414.03	3557.32
414.24	3565.51
414.45	3817.41
414.66	3674.06
414.87	3731.40
415.08	3678.15
415.30	3731.40
415.51	3762.12
415.72	3801.03
415.93	3862.47
416.14	3872.71
416.35	3874.76
416.56	3921.86
416.78	3712.97
416.99	3823.56
417.20	3844.04
417.41	4112.32
417.62	3786.69
417.83	3905.48
418.04	4018.11
418.26	3995.59
418.47	3852.23
418.68	3997.64
418.89	3919.81
419.10	4112.32
419.31	4026.31
419.52	4149.18
419.73	4073.41
419.95	4204.48
420.16	3975.11
420.37	4089.79
420.58	4149.18
420.79	3919.81
421.00	4163.52
421.21	4235.20
421.42	4040.64
421.63	4153.28
421.85	4231.10
422.06	4126.66
422.27	4206.53
422.48	4159.42
422.69	4239.30
422.90	4263.87
423.11	4290.49
423.32	4255.68
423.53	4493.24
423.75	4247.49
423.96	4468.67
424.17	4370.37
424.38	4382.65
424.59	4526.01
424.80	4603.83
425.01	4605.88
425.22	4440.00
425.43	4384.70
425.64	4728.76
425.85	4614.07
426.06	4720.57
426.28	4691.90
426.49	4575.16
426.70	4538.30
426.91	4560.83
427.12	4812.73
427.33	4569.02
427.54	4695.99
427.75	4763.58
427.96	4798.39
428.17	4790.20
428.38	4796.34
428.59	4790.20
428.80	4872.12
429.01	4757.43
429.23	4865.97
429.44	5052.34
429.65	4882.36
429.86	4947.89
430.07	5076.91
430.28	4894.65
430.49	5113.78
430.70	5124.02
430.91	5300.14
431.12	5021.62
431.33	5115.83
431.54	5183.41
431.75	5181.36
431.96	5232.56
432.17	5046.20
432.38	5179.31
432.59	5361.58
432.80	5167.03
433.01	5341.10
433.22	5296.05
433.43	5287.86
433.64	5337.01
433.85	5236.66
434.06	5312.43
434.27	5220.27
434.49	5492.65
434.70	5576.62
434.91	5425.07
435.12	5492.65
435.33	5550.00
435.54	5472.17
435.75	5388.21
435.96	5416.88
436.17	5377.97
436.38	5584.81
436.59	5654.44
436.80	5517.23
437.01	5640.11
437.22	5889.96
437.43	5498.80
437.64	5425.07
437.85	5795.75
438.06	5814.18
438.27	5586.86
438.48	5726.12
438.69	5795.75
438.90	5789.61
439.11	5463.98
439.32	5803.94
439.53	5801.90
439.74	5808.04
439.95	5859.24
440.16	5881.77
440.37	5666.73
440.57	5812.14
440.78	5836.71
440.99	5953.45
441.20	5887.91
441.41	5879.72
441.62	5885.86
441.83	5871.53
442.04	6156.19
442.25	6078.37
442.46	5965.73
442.67	6199.20
442.88	6459.29
443.09	5918.63
443.30	6100.90
443.51	6092.71
443.72	6328.22
443.93	6021.03
444.14	6264.74
444.35	6125.47
444.56	6344.61
444.77	6195.11
444.98	6209.44
445.19	6358.94
445.40	6383.52
445.61	6246.30
445.81	6408.09
446.02	6606.75
446.23	6490.01
446.44	6324.13
446.65	6367.13
446.86	6510.49
447.07	6344.61
447.28	6518.68
447.49	6762.39
447.70	6680.47
447.91	6655.90
448.12	6692.76
448.33	6715.29
448.54	6776.73
448.74	6629.27
448.95	6655.90
449.16	6750.10
449.37	6836.12
449.58	6692.76
449.79	7030.68
450.00	6840.22
450.21	6971.29
450.42	6983.57
450.63	7059.35
450.84	6840.22
451.05	6905.75
451.25	6915.99
451.46	6899.61
451.67	7030.68
451.88	7085.97
452.09	7106.45
452.30	7100.31
452.51	6926.23
452.72	7128.98
452.93	7434.13
453.13	7053.20
453.34	7128.98
453.55	7301.01
453.76	7194.51
453.97	7587.72
454.18	7456.65
454.39	7444.37
454.60	7423.89
454.81	7540.62
455.01	7554.96
455.22	7194.51
455.43	7569.29
455.64	7858.06
455.85	7720.84
456.06	7956.36
456.27	7913.35
456.48	7544.72
456.68	7788.43
456.89	7804.81
457.10	7976.84
457.31	7837.58
457.52	7905.16
457.73	7931.78
457.94	8052.61
458.14	7909.26
458.35	8269.70
458.56	8185.73
458.77	8044.42
458.98	8368.00
459.19	8267.65
459.39	8140.68
459.60	8324.99
459.81	8214.40
460.02	8464.25
460.23	8324.99
460.44	8605.56
460.65	8609.66
460.85	8759.16
461.06	8697.72
461.27	8433.54
461.48	8834.94
461.69	8857.46
461.89	8570.75
462.10	8904.57
462.31	8652.67
462.52	8712.06
462.73	8832.89
462.94	9135.99
463.14	8984.44
463.35	9076.60
463.56	9553.77
463.77	9418.61
463.98	9142.13
464.18	9150.32
464.39	9459.57
464.60	9678.70
464.81	9582.45
465.02	9482.10
465.23	9785.19
465.43	9617.26
465.64	9912.17
465.85	9738.09
466.06	9815.91
466.27	9946.98
466.47	9887.59
466.68	9973.61
466.89	9957.22
467.10	10200.93
467.30	9965.42
467.51	10071.91
467.72	10391.39
467.93	9955.18
468.14	10278.76
468.34	10479.46
468.55	10442.59
468.76	10526.56
468.97	10317.67
469.17	10831.71
469.38	10692.44
469.59	10856.28
469.80	10702.68
470.01	10809.18
470.21	10860.38
470.42	11229.01
470.63	11446.10
470.84	10997.59
471.04	11392.85
471.25	11245.40
471.46	11302.74
471.67	11700.05
471.87	11446.10
472.08	11542.35
472.29	11833.16
472.50	11384.66
472.70	11728.72
472.91	11810.64
473.12	12083.02
473.33	12035.91
473.53	12177.22
473.74	12019.53
473.95	12244.81
474.16	12443.46
474.36	12345.16
474.57	12644.16
474.78	12767.04
474.99	12580.67
475.19	12676.93
475.40	12937.02
475.61	12883.77
475.81	13371.19
476.02	13160.25
476.23	12957.50
476.44	13301.56
476.64	13561.65
476.85	13682.48
477.06	13483.83
477.27	13688.62
477.47	13623.09
477.68	13750.06
477.89	14124.84
478.09	14073.64
478.30	14198.57
478.51	13977.39
478.71	14298.92
478.92	14329.64
479.13	14597.92
479.34	14501.67
479.54	14755.61
479.75	14765.85
479.96	14872.35
480.16	14655.26
480.37	14929.69
480.58	15290.13
480.78	15365.91
480.99	15114.01
481.20	15210.26
481.41	15513.36
481.61	15830.80
481.82	15884.05
482.03	15669.01
482.23	15748.88
482.44	15994.64
482.65	16092.94
482.85	16234.25
483.06	16230.15
483.27	16238.34
483.47	16193.29
483.68	16447.24
483.89	16557.83
484.09	16809.73
484.30	16600.83
484.51	17008.38
484.71	17213.18
484.92	17223.42
485.13	17340.15
485.33	17075.96
485.54	17262.33
485.75	17360.63
485.95	17598.20
486.16	17530.61
486.37	17630.96
486.57	17633.01
486.78	17807.09
486.98	17678.07
487.19	18120.43
487.40	18386.66
487.60	18192.11
487.81	18050.80
488.02	18444.01
488.22	18321.13
488.43	18659.04
488.64	18777.83
488.84	18601.70
489.05	18757.35
489.25	18839.26
489.46	19005.15
489.67	19168.99
489.87	19371.74
490.08	19392.22
490.29	19361.50
490.49	19664.60
490.70	19615.44
490.90	19629.78
491.11	19734.23
491.32	19953.36
491.52	19891.92
491.73	19756.75
491.94	20283.08
492.14	20119.24
492.35	20487.88
492.55	20391.62
492.76	20219.60
492.97	20661.96
493.17	20604.61
493.38	20623.05
493.58	21003.97
493.79	20897.47
494.00	20901.57
494.20	21126.85
494.41	20983.49
494.61	21505.72
494.82	21251.77
495.02	21554.87
495.23	21585.59
495.44	21726.90
495.64	21880.50
495.85	21407.42
496.05	21894.83
496.26	21763.76
496.47	22191.79
496.67	21737.14
496.88	22269.61
497.08	22048.43
497.29	22482.60
497.49	22443.69
497.70	22353.58
497.91	22660.77
498.11	22398.63
498.32	22726.31
498.52	22699.69
498.73	22709.93
498.93	22884.00
499.14	23092.90
499.34	22910.63
499.55	23375.52
499.76	23334.56
499.96	22904.48
500.17	23389.85
500.37	23279.26
500.58	23432.86
500.78	23443.10
500.99	23778.97
501.19	23705.24
501.40	23989.91
501.60	23348.89
501.81	23649.94
502.02	24004.24
502.22	23885.46
502.43	24116.88
502.63	24235.66
502.84	24209.04
503.04	24155.79
503.25	24159.89
503.45	24186.51
503.66	24501.90
503.86	24391.31
504.07	24405.64
504.27	24303.25
504.48	24825.48
504.68	24843.91
504.89	24931.97
505.09	25073.28
505.30	24854.15
505.50	25151.10
505.71	25036.42
505.91	25065.09
506.12	25009.79
506.32	25343.61
506.53	25183.87
506.73	25396.86
506.94	25298.56
507.14	25474.68
507.35	25304.70
507.55	25349.76
507.76	25794.17
507.96	25767.54
508.17	25820.79
508.37	25671.29
508.58	25730.68
508.78	25937.52
508.99	25620.09
509.19	25671.29
509.40	26054.26
509.60	25931.38
509.81	26177.14
510.01	26412.65
510.22	25892.47
510.42	26193.52
510.63	26433.13
510.83	26259.06
511.04	26205.81
511.24	26383.98
511.44	26392.17
511.65	26467.95
511.85	26369.65
512.06	26797.67
512.26	26551.91
512.47	26611.31
512.67	26668.65
512.88	26601.07
513.08	26564.20
513.29	26766.95
513.49	26959.46
513.69	26824.29
513.90	27147.87
514.10	27399.77
514.31	26957.41
514.51	27252.32
514.72	27137.63
514.92	27190.88
515.13	27344.48
515.33	27137.63
515.53	27266.66
515.74	27604.57
515.94	27813.46
516.15	27440.73
516.35	27354.72
516.56	27827.80
516.76	27735.64
516.96	27694.68
517.17	28010.07
517.37	28003.92
517.58	28026.45
517.78	28057.17
517.99	28094.04
518.19	28509.77
518.39	28302.93
518.60	28143.19
518.80	28405.33
519.01	28485.20
519.21	28456.53
519.41	28700.23
519.62	28773.96
519.82	28683.85
520.03	28679.75
520.23	28745.29
520.43	28638.80
520.64	28866.12
520.84	28845.64
521.05	29249.09
521.25	28974.66
521.45	29345.34
521.66	29249.09
521.86	29003.33
522.07	28970.57
522.27	29109.83
522.47	29285.95
522.68	29761.08
522.88	29503.04
523.08	29818.42
523.29	29568.57
523.49	29847.10
523.70	29599.29
523.90	29982.26
524.10	29902.39
524.31	30158.39
524.51	30135.86
524.71	30326.32
524.92	30201.40
525.12	30488.11
525.33	30522.93
525.53	30146.10
525.73	30746.15
525.94	30660.14
526.14	30801.45
526.34	30813.74
526.55	31061.54
526.75	30785.07
526.95	31006.25
527.16	30889.51
527.36	31028.77
527.56	31659.55
527.77	31786.52
527.97	31321.63
528.17	31575.58
528.38	32028.18
528.58	31768.09
528.78	32009.75
528.99	32081.43
529.19	31899.16
529.39	31991.32
529.60	32069.14
529.80	31962.65
530.00	32206.36
530.21	32708.11
530.41	32515.60
530.61	32538.13
530.82	32318.99
531.02	32435.73
531.22	32804.36
531.43	32323.09
531.63	33095.18
531.83	33699.33
532.04	33639.93
532.24	33465.86
532.44	33484.29
532.64	33617.41
532.85	33699.33
533.05	33447.43
533.25	33822.20
533.46	33824.25
533.66	34248.18
533.86	33691.13
534.07	34205.17
534.27	34352.63
534.47	34473.46
534.67	34592.24
534.88	34381.30
535.08	34444.79
535.28	34508.27
535.49	34641.39
535.69	34788.85
535.89	35077.61
536.09	35010.03
536.30	35188.20
536.50	35280.36
536.70	35313.13
536.91	35624.42
537.11	35347.94
537.31	35788.25
537.51	35593.70
537.72	35952.09
537.92	36128.22
538.12	35775.97
538.32	36431.32
538.53	36390.36
538.73	36341.21
538.93	36281.81
539.13	36320.73
539.34	36292.05
539.54	36281.81
539.74	36879.82
539.94	36730.32
540.15	36662.74
540.35	36769.23
540.55	36404.69
540.75	36881.87
540.96	37262.79
541.16	37154.25
541.36	37101.00
541.56	36812.24
541.77	37606.85
541.97	37387.72
542.17	37688.77
542.37	37432.77
542.58	37381.57
542.78	37586.37
542.98	37656.00
543.18	37383.62
543.38	38311.35
543.59	38401.46
543.79	38133.18
543.99	38315.45
544.19	38448.57
544.40	37973.44
544.60	38688.18
544.80	38512.05
545.00	38698.42
545.20	38817.20
545.41	38639.03
545.61	39120.30
545.81	38909.36
546.01	38964.65
546.21	38772.14
546.42	38872.49
546.62	38989.23
546.82	38970.80
547.02	39169.45
547.22	39351.72
547.43	39136.68
547.63	39507.37
547.83	39376.30
548.03	39466.41
548.23	39695.78
548.44	39650.72
548.64	39617.96
548.84	39978.40
549.04	39837.09
549.24	39959.97
549.45	40514.97
549.65	39978.40
549.85	39878.05
550.05	40283.55
550.25	40080.80
550.45	40748.43
550.66	40132.00
550.86	40666.52
551.06	40687.00
551.26	40723.86
551.46	40770.96
551.66	40840.59
551.87	41135.50
552.07	40732.05
552.27	40983.95
552.47	41043.34
552.67	41014.67
552.87	40826.26
553.07	41061.77
553.28	41319.82
553.48	41414.02
553.68	41098.64
553.88	41436.55
554.08	41473.42
554.28	41231.75
554.48	41219.47
554.69	41457.03
554.89	41516.42
555.09	41907.58
555.29	41500.04
555.49	42306.94
555.69	41762.18
555.89	41565.57
556.10	41772.42
556.30	41657.73
556.50	42225.02
556.70	41729.41
556.90	42194.30
557.10	42128.77
557.30	41829.76
557.50	42274.17
557.70	42349.95
557.91	42513.78
558.11	41987.46
558.31	42599.80
558.51	42229.12
558.71	42702.20
558.91	42558.84
559.11	42614.13
559.31	42876.27
559.51	42093.95
559.72	42358.14
559.92	43021.68
560.12	42632.57
560.32	43246.96
560.52	42751.35
560.72	43277.68
560.92	43140.46
561.12	43253.10
561.32	43566.44
561.52	43128.17
561.72	43361.64
561.93	43183.47
562.13	43365.74
562.33	43255.15
562.53	43418.99
562.73	42876.27
562.93	43226.48
563.13	43502.95
563.33	43484.52
563.53	43789.67
563.73	43656.55
563.93	43623.78
564.13	44090.72
564.33	43965.79
564.53	43799.91
564.74	44076.38
564.94	43744.61
565.14	44123.49
565.34	43773.28
565.54	44043.62
565.74	44219.74
565.94	44563.80
566.14	44225.89
566.34	44395.87
566.54	44860.76
566.74	43951.46
566.94	44377.43
567.14	44494.17
567.34	44402.01
567.54	44533.08
567.74	44549.46
567.94	44139.87
568.14	44799.32
568.34	44680.53
568.54	44774.74
568.74	44811.60
568.94	44451.16
569.14	44901.71
569.34	44957.01
569.54	44813.65
569.75	44569.94
569.95	44754.26
570.15	45393.23
570.35	45325.64
570.55	45335.88
570.75	45581.64
570.95	45290.83
571.15	45419.85
571.35	45557.06
571.55	45415.76
571.75	45450.57
571.95	45749.57
572.15	45118.80
572.35	45710.66
572.55	45679.94
572.75	45571.40
572.95	45536.59
573.15	45202.77
573.35	45995.33
573.55	45780.29
573.75	45616.46
573.95	46409.02
574.15	45722.95
574.35	46257.47
574.55	45944.13
574.75	45987.14
574.95	45663.56
575.15	45851.97
575.34	46296.38
575.54	46519.61
575.74	46439.74
575.94	46632.25
576.14	46765.37
576.34	46314.81
576.54	47146.29
576.74	46376.25
576.94	46658.87
577.14	47045.94
577.34	47031.60
577.54	46505.27
577.74	46974.26
577.94	46906.68
578.14	47047.99
578.34	48051.49
578.54	46929.20
578.74	46961.97
578.94	47568.17
579.14	46806.33
579.34	46947.64
579.54	47314.22
579.74	47815.97
579.94	47426.86
580.13	47695.14
580.33	47779.11
580.53	47928.61
580.73	47740.20
580.93	47533.35
581.13	47613.23
581.33	47813.93
581.53	47762.73
581.73	47852.84
581.93	47934.76
582.13	48049.44
582.33	48196.90
582.53	47979.81
582.73	48387.36
582.92	48155.94
583.12	48471.32
583.32	48239.90
583.52	48092.45
583.72	48835.86
583.92	48401.69
584.12	48866.58
584.32	48856.34
584.52	48827.67
584.72	48626.97
584.92	48594.20
585.11	49155.35
585.31	49106.19
585.51	48954.64
585.71	49132.82
585.91	49194.26
586.11	48934.17
586.31	48805.14
586.51	48766.23
586.71	49337.62
586.91	49304.85
587.10	49536.27
587.30	49511.69
587.50	49495.31
587.70	49343.76
587.90	49440.01
588.10	49270.03
588.30	49603.85
588.50	49624.33
588.69	49790.22
588.89	49120.53
589.09	49693.96
589.29	49493.26
589.49	50072.84
589.69	49620.23
589.89	50134.28
590.08	49536.27
590.28	49841.42
590.48	49726.73
590.68	49976.58
590.88	50115.84
591.08	50205.95
591.28	49937.67
591.47	50652.41
591.67	50369.79
591.87	50447.61
592.07	50334.98
592.27	50685.18
592.47	50189.57
592.67	50148.61
592.86	49992.97
593.06	50691.32
593.26	50947.32
593.46	50509.05
593.66	50416.89
593.86	50590.97
594.05	50656.51
594.25	50918.65
594.45	50676.99
594.65	50906.36
594.85	50896.12
595.05	51567.85
595.24	51336.43
595.44	50652.41
595.64	50930.93
595.84	51274.99
596.04	51188.98
596.23	51592.43
596.43	51582.19
596.63	51143.92
596.83	51203.31
597.03	51547.37
597.22	51490.03
597.42	51752.17
597.62	51877.10
597.82	51727.59
598.02	51365.10
598.21	51952.87
598.41	51254.51
598.61	51713.26
598.81	51510.51
599.01	51920.10
599.20	51688.68
599.40	51786.99
599.60	51811.56
599.80	51672.30
600.00	51750.12
600.19	52245.73
600.39	51764.46
600.59	52333.79
600.79	52206.82
600.98	51995.88
601.18	52296.93
601.38	52597.98
601.58	52278.50
601.78	52532.45
601.97	52341.99
602.17	52602.08
602.37	52384.99
602.57	52419.81
602.76	52970.71
602.96	52092.13
603.16	52710.62
603.36	52528.35
603.55	52831.45
603.75	52501.73
603.95	52757.72
604.15	53023.96
604.34	52557.02
604.54	53126.36
604.74	53003.48
604.94	52778.20
605.13	52810.97
605.33	52999.38
605.53	53249.24
605.73	53365.97
605.92	53476.56
606.12	53421.26
606.32	53525.71
606.52	52995.29
606.71	53679.31
606.91	53538.00
607.11	53531.86
607.30	53386.45
607.50	53726.41
607.70	53785.80
607.90	53949.64
608.09	53249.24
608.29	53609.68
608.49	53736.65
608.68	53599.44
608.88	53916.87
609.08	53525.71
609.28	53712.08
609.47	53734.60
609.67	54078.66
609.87	53734.60
610.06	54432.96
610.26	53925.07
610.46	53968.07
610.66	53701.84
610.85	54097.09
611.05	53855.43
611.25	54041.80
611.44	53880.01
611.64	53855.43
611.84	53722.32
612.03	53996.74
612.23	54414.53
612.43	54340.80
612.62	53816.52
612.82	54236.36
613.02	54285.51
613.21	53892.30
613.41	53920.97
613.61	54410.43
613.80	53920.97
614.00	53841.10
614.20	53826.76
614.39	54146.25
614.59	54521.02
614.79	54133.96
614.98	54326.47
615.18	53826.76
615.38	54000.84
615.57	54033.61
615.77	54160.58
615.97	54711.49
616.16	54383.81
616.36	54234.31
616.56	54256.84
616.75	54164.68
616.95	54357.19
617.15	53908.68
617.34	54023.37
617.54	54303.94
617.74	54457.54
617.93	54260.93
618.13	53978.31
618.32	54117.57
618.52	54031.56
618.72	54318.28
618.91	54598.85
619.11	53978.31
619.31	54246.60
619.50	54133.96
619.70	53834.95
619.90	54023.37
620.09	53767.37
620.29	54201.54
620.48	54070.47
620.68	54191.30
620.88	54080.71
621.07	54023.37
621.27	54080.71
621.46	53664.97
621.66	54043.85
621.86	53798.09
622.05	53714.12
622.25	54260.93
622.44	53828.81
622.64	53691.60
622.84	54078.66
623.03	54156.49
623.23	53970.12
623.42	53851.34
623.62	53955.78
623.82	54564.03
624.01	54258.88
624.21	53935.30
624.40	53839.05
624.60	54047.94
624.80	53798.09
624.99	53880.01
625.19	53357.78
625.38	54219.97
625.58	53949.64
625.77	53972.17
625.97	53794.00
626.17	53478.61
626.36	53900.49
626.56	54267.08
626.75	52944.09
626.95	54039.75
627.14	53865.67
627.34	54310.08
627.54	53310.67
627.73	53548.24
627.93	53806.28
628.12	53765.32
628.32	53972.17
628.51	53781.71
628.71	53843.15
628.90	53867.72
629.10	53783.76
629.30	54127.81
629.49	53572.81
629.69	53875.91
629.88	54090.95
630.08	54338.75
630.27	54265.03
630.47	53896.39
630.66	53945.54
630.86	53990.60
631.05	53562.57
631.25	54385.86
631.44	53818.57
631.64	53779.66
631.84	53933.26
632.03	54398.15
632.23	53963.98
632.42	54412.48
632.62	53877.96
632.81	53705.93
633.01	54166.73
633.20	54127.81
633.40	54211.78
633.59	54392.00
633.79	53925.07
633.98	53658.83
634.18	54459.58
634.37	54168.77
634.57	54011.08
634.76	54437.06
634.96	54232.26
635.15	54236.36
635.35	54170.82
635.54	53959.88
635.74	54117.57
635.93	53867.72
636.13	54269.12
636.32	54076.61
636.52	53996.74
636.71	54215.88
636.91	53933.26
637.10	54082.76
637.30	53832.91
637.49	54381.76
637.69	53900.49
637.88	54387.91
638.08	53855.43
638.27	54367.43
638.46	54254.79
638.66	54156.49
638.85	54219.97
639.05	54275.27
639.24	54490.30
639.44	54027.46
639.63	54576.32
639.83	54342.85
640.02	54373.57
640.22	54596.80
640.41	54568.13
640.61	54211.78
640.80	54320.32
640.99	54006.98
641.19	54725.82
641.38	54379.71
641.58	54500.54
641.77	54695.10
641.97	54457.54
642.16	54269.12
642.36	54674.62
642.55	54795.45
642.74	54072.52
642.94	55188.66
643.13	54310.08
643.33	54928.57
643.52	55030.97
643.72	54703.29
643.91	54543.55
644.10	54482.11
644.30	55184.57
644.49	54762.68
644.69	54924.47
644.88	54469.82
645.08	54742.20
645.27	54981.82
645.46	54666.43
645.66	54746.30
645.85	54607.04
646.05	54965.43
646.24	54713.53
646.43	54793.40
646.63	54969.53
646.82	55309.49
647.02	55073.98
647.21	55252.15
647.40	54846.65
647.60	55272.63
647.79	55069.88
647.99	54756.54
648.18	54969.53
648.37	55286.96
648.57	55575.73
648.76	55467.19
648.96	54668.48
649.15	55600.30
649.34	55495.86
649.54	55776.43
649.73	55065.78
649.92	55170.23
650.12	55211.19
650.31	55307.44
650.51	55665.84
650.70	55452.85
650.89	55352.50
651.09	55964.84
651.28	55719.09
651.47	55819.44
651.67	55663.79
651.86	55506.10
652.06	55010.49
652.25	56046.76
652.44	55737.52
652.64	55329.97
652.83	55481.52
653.02	55436.47
653.22	55600.30
653.41	55504.05
653.60	55440.56
653.80	55645.36
653.99	55923.88
654.18	55444.66
654.38	55442.61
654.57	55647.41
654.76	55415.99
654.96	55749.81
655.15	55510.19
655.34	55796.91
655.54	54953.15
655.73	55358.64
655.92	55702.70
656.12	55295.16
656.31	55678.13
656.50	55942.31
656.70	55571.63
656.89	55467.19
657.08	55891.12
657.28	56001.71
657.47	55727.28
657.66	56085.67
657.86	55876.78
658.05	56018.09
658.24	55510.19
658.43	55940.27
658.63	56114.34
658.82	56257.70
659.01	55813.29
659.21	56128.68
659.40	56218.79
659.59	55850.16
659.79	55960.75
659.98	56054.95
660.17	56212.65
660.36	56005.80
660.56	55958.70
660.75	55938.22
660.94	56491.17
661.14	56079.53
661.33	56071.34
661.52	55714.99
661.71	55968.94
661.91	55930.03
662.10	56269.99
662.29	56163.50
662.49	56106.15
662.68	56067.24
662.87	55899.31
663.06	56636.58
663.26	56136.87
663.45	56212.65
663.64	56222.89
663.83	56366.24
664.03	56458.40
664.22	56235.17
664.41	56417.44
664.60	56042.66
664.80	55932.07
664.99	56124.58
665.18	56124.58
665.37	56278.18
665.57	56292.52
665.76	56454.31
665.95	56120.49
666.14	56110.25
666.34	56210.60
666.53	56042.66
666.72	56140.97
666.91	56022.19
667.11	55710.89
667.30	56423.59
667.49	56540.32
667.68	55936.17
667.87	56321.19
668.07	56884.38
668.26	56186.02
668.45	56351.91
668.64	56196.26
668.84	57048.22
669.03	56497.31
669.22	56013.99
669.41	56382.63
669.60	56423.59
669.80	56114.34
669.99	56439.97
670.18	56269.99
670.37	56501.41
670.57	56988.83
670.76	56515.75
670.95	56505.51
671.14	56067.24
671.33	55977.13
671.53	57246.87
671.72	56386.72
671.91	56370.34
672.10	56315.04
672.29	56693.92
672.48	56695.97
672.68	56628.38
672.87	56313.00
673.06	56386.72
673.25	55522.48
673.44	56218.79
673.64	56054.95
673.83	56591.52
674.02	56386.72
674.21	56366.24
674.40	56376.48
674.59	56169.64
674.79	56702.11
674.98	56126.63
675.17	56773.79
675.36	56136.87
675.55	56710.30
675.74	56325.28
675.94	55948.46
676.13	56216.74
676.32	56134.82
676.51	56886.43
676.70	56423.59
676.89	56251.56
677.08	56677.54
677.28	56163.50
677.47	56900.76
677.66	56818.84
677.85	55850.16
678.04	56824.99
678.23	56734.88
678.42	56691.87
678.62	56194.21
678.81	56587.42
679.00	56140.97
679.19	56812.70
679.38	56482.98
679.57	56466.59
679.76	56474.79
679.96	56851.61
680.15	56501.41
680.34	55850.16
680.53	56616.10
680.72	56722.59
680.91	56620.19
681.10	56224.93
681.29	56624.29
681.48	56198.31
681.68	56335.52
681.87	56384.68
682.06	55975.08
682.25	55725.23
682.44	56272.04
682.63	56493.22
682.82	55915.69
683.01	56196.26
683.20	55796.91
683.39	56093.86
683.59	56153.26
683.78	56132.78
683.97	56112.30
684.16	55993.51
684.35	55485.62
684.54	56286.37
684.73	56652.96
684.92	56104.10
685.11	56089.77
685.30	55723.18
685.49	56409.25
685.69	56071.34
685.88	55786.67
686.07	55805.10
686.26	55772.33
686.45	56077.48
686.64	56065.19
686.83	56157.35
687.02	56132.78
687.21	55733.42
687.40	55686.32
687.59	55919.79
687.78	55784.62
687.97	56464.55
688.16	56054.95
688.35	55878.83
688.54	55936.17
688.74	55403.70
688.93	55696.56
689.12	55891.12
689.31	55547.06
689.50	55948.46
689.69	55356.60
689.88	55239.86
690.07	55676.08
690.26	55674.03
690.45	56292.52
690.64	55671.98
690.83	55399.60
691.02	55413.94
691.21	55305.40
691.40	55289.01
691.59	55479.47
691.78	55430.32
691.97	55418.03
692.16	55628.98
692.35	55565.49
692.54	55784.62
692.73	55764.14
692.92	55497.91
693.11	55506.10
693.30	55094.46
693.49	54998.20
693.68	55276.72
693.87	55850.16
694.06	55231.67
694.25	55456.95
694.44	55155.89
694.63	55002.30
694.82	55166.13
695.01	55145.65
695.20	55559.34
695.39	55076.02
695.58	55057.59
695.77	54908.09
695.96	54965.43
696.15	55248.05
696.34	54811.84
696.53	54973.63
696.72	54762.68
696.91	54955.19
697.10	54967.48
697.29	54430.91
697.48	55129.27
697.67	55014.58
697.86	54668.48
698.05	55125.17
698.24	55223.48
698.43	54213.83
698.62	54992.06
698.81	54457.54
699.00	54703.29
699.19	54400.19
699.38	55270.58
699.57	54408.39
699.76	55084.22
699.95	54774.97
700.14	54674.62
700.32	54367.43
700.51	54418.63
700.70	54760.64
700.89	54531.26
701.08	54998.20
701.27	54660.29
701.46	55196.85
701.65	54293.70
701.84	54533.31
702.03	54516.93
702.22	54158.53
702.41	54273.22
702.60	54195.40
702.79	54136.01
702.98	53900.49
703.17	54506.69
703.35	54228.16
703.54	54357.19
703.73	54590.66
703.92	53900.49
704.11	53896.39
704.30	53984.46
704.49	53929.16
704.68	53667.02
704.87	53769.42
705.06	53707.98
705.25	54019.27
705.43	54105.29
705.62	53877.96
705.81	53658.83
706.00	53949.64
706.19	53253.33
706.38	53294.29
706.57	53896.39
706.76	53607.63
706.95	53912.78
707.14	53325.01
707.32	53132.50
707.51	53241.04
707.70	54074.57
707.89	53755.08
708.08	53279.96
708.27	53738.70
708.46	53826.76
708.65	53419.22
708.84	53458.13
709.02	53218.52
709.21	53568.72
709.40	53230.80
709.59	53368.02
709.78	53069.01
709.97	53777.61
710.16	53099.73
710.34	53107.93
710.53	53284.05
710.72	52862.17
710.91	53019.86
711.10	52804.83
711.29	53200.08
711.48	52868.31
711.66	53032.15
711.85	52962.52
712.04	53234.90
712.23	52747.48
712.42	52704.48
712.61	52946.14
712.80	53015.77
712.98	52712.67
713.17	52493.54
713.36	52774.11
713.55	52479.20
713.74	52602.08
713.93	52886.74
714.11	52466.91
714.30	52450.53
714.49	52198.63
714.68	52536.54
714.87	52436.19
715.06	52651.23
715.24	52798.68
715.43	52354.27
715.62	52219.11
715.81	52460.77
716.00	52356.32
716.18	51913.96
716.37	52237.54
716.56	51733.74
716.75	52491.49
716.94	52182.24
717.12	51653.87
717.31	52139.24
717.50	51719.40
717.69	51645.68
717.88	51776.75
718.06	51940.58
718.25	52067.56
718.44	51557.61
718.63	51893.48
718.82	51115.25
719.00	51518.70
719.19	51152.12
719.38	51465.45
719.57	51246.32
719.76	50836.73
719.94	51080.44
720.13	51254.51
720.32	51301.62
720.51	51055.86
720.69	51086.58
720.88	51252.47
721.07	50906.36
721.26	50357.50
721.44	50420.99
721.63	50715.90
721.82	50504.96
722.01	50427.13
722.20	50769.15
722.38	50443.52
722.57	50054.40
722.76	50552.06
722.95	50222.34
723.13	50066.69
723.32	50001.16
723.51	50019.59
723.70	49831.18
723.88	50244.87
724.07	49851.66
724.26	49947.91
724.44	49345.81
724.63	50355.46
724.82	49837.32
725.01	49886.47
725.19	49816.84
725.38	49354.00
725.57	49841.42
725.76	50208.00
725.94	49075.48
726.13	49589.52
726.32	49487.12
726.51	49224.98
726.69	49788.17
726.88	49292.56
727.07	49921.29
727.25	49212.69
727.44	49544.46
727.63	49095.95
727.82	49689.87
728.00	49429.77
728.19	48995.60
728.38	49779.98
728.56	49061.14
728.75	49757.45
728.94	48698.65
729.12	48971.03
729.31	48952.60
729.50	49143.06
729.69	49214.74
729.87	49091.86
730.06	49378.57
730.25	49218.83
730.43	49698.06
730.62	49087.76
730.81	49411.34
730.99	49214.74
731.18	48823.58
731.37	49147.15
731.55	49433.87
731.74	49091.86
731.93	48948.50
732.11	48964.88
732.30	48893.21
732.49	48874.77
732.67	48954.64
732.86	48540.96
733.05	48766.23
733.23	48604.44
733.42	48968.98
733.61	48760.09
733.79	49372.43
733.98	49470.73
734.17	48882.97
734.35	48358.69
734.54	48891.16
734.73	49089.81
734.91	48848.15
735.10	49220.88
735.29	49075.48
735.47	48379.17
735.66	48454.94
735.84	48629.02
736.03	48203.04
736.22	48846.10
736.40	47674.66
736.59	48256.29
736.78	48452.89
736.96	48342.30
737.15	48645.40
737.33	48295.20
737.52	47748.39
737.71	48235.81
737.89	48323.87
738.08	47936.80
738.27	47912.23
738.45	48583.96
738.64	48325.92
738.82	48051.49
739.01	48018.72
739.20	48076.07
739.38	48082.21
739.57	48123.17
739.75	47826.21
739.94	47895.85
740.13	47869.22
740.31	47846.69
740.50	47809.83
740.68	47598.89
740.87	47727.91
741.06	48084.26
741.24	48061.73
741.43	47846.69
741.61	48018.72
741.80	47457.58
741.99	47592.75
742.17	47527.21
742.36	47748.39
742.54	47594.79
742.73	47592.75
742.91	47301.93
743.10	47504.68
743.29	47908.13
743.47	47627.56
743.66	47273.26
743.84	47615.27
744.03	47093.04
744.21	47430.96
744.40	47760.68
744.59	47166.77
744.77	47088.95
744.96	46904.63
745.14	47023.41
745.33	47050.03
745.51	47152.43
745.70	47166.77
745.88	46572.86
746.07	46978.36
746.26	46351.68
746.44	46490.94
746.63	46652.73
746.81	46974.26
747.00	46757.17
747.18	46955.83
747.37	46572.86
747.55	46753.08
747.74	46708.02
747.92	46830.90
748.11	46589.24
748.29	46658.87
748.48	46413.12
748.66	46443.84
748.85	45968.71
749.03	46538.04
749.22	46191.94
749.41	46302.53
749.59	46576.95
749.78	46021.95
749.96	46200.13
750.15	46241.09
750.33	46345.53
750.52	46359.87
750.70	46060.87
750.89	45974.85
751.07	45626.70
751.26	46114.11
751.44	45847.88
751.63	46335.29
751.81	45874.50
752.00	45630.79
752.18	45673.80
752.37	45880.64
752.55	45423.95
752.74	45559.11
752.92	45516.11
753.10	45647.18
753.29	45489.48
753.47	45243.73
753.66	45178.19
753.84	45440.33
754.03	45202.77
754.21	45233.49
754.40	45530.44
754.58	45315.40
754.77	45145.42
754.95	45002.07
755.14	45053.26
755.32	44795.22
755.51	44524.89
755.69	44496.22
755.88	44713.30
756.06	45043.02
756.24	44940.63
756.43	44787.03
756.61	44438.87
756.80	44758.36
756.98	44426.59
757.17	44651.86
757.35	44608.86
757.54	44393.82
757.72	44594.52
757.90	44545.37
758.09	44191.07
758.27	44375.39
758.46	44219.74
758.64	44266.84
758.83	44500.31
759.01	44371.29
759.19	44336.48
759.38	43824.48
759.56	44371.29
759.75	43951.46
759.93	43953.51
760.12	43636.07
760.30	43474.28
760.48	43783.52
760.67	44096.86
760.85	43752.80
761.04	44057.95
761.22	44348.76
761.40	43666.79
761.59	43806.05
761.77	43076.97
761.96	43660.65
762.14	43408.75
762.32	43179.37
762.51	43117.93
762.69	43699.56
762.88	42941.81
763.06	43318.64
763.24	43388.27
763.43	43357.55
763.61	43062.64
763.80	43292.01
763.98	42974.58
764.16	43171.18
764.35	43152.75
764.53	42487.16
764.72	42689.91
764.90	42984.82
765.08	42755.44
765.27	42675.57
765.45	42558.84
765.63	42216.83
765.82	42567.03
766.00	42460.54
766.18	42290.55
766.37	42767.73
766.55	42229.12
766.74	42341.75
766.92	42022.27
767.10	42311.03
767.29	42349.95
767.47	41813.38
767.65	42300.79
767.84	41692.55
768.02	42114.43
768.20	41414.02
768.39	42184.06
768.57	42163.58
768.75	42126.72
768.94	42169.72
769.12	41942.40
769.30	41581.96
769.49	41858.43
769.67	41581.96
769.85	41299.34
770.04	41676.16
770.22	41485.70
770.40	41069.97
770.59	41065.87
770.77	41489.80
770.95	41432.46
771.14	40807.83
771.32	40813.97
771.50	41031.05
771.69	41031.05
771.87	41151.88
772.05	41127.31
772.24	40658.32
772.42	40953.23
772.60	40801.68
772.78	40553.88
772.97	40621.46
773.15	40836.50
773.33	40584.60
773.52	40527.25
773.70	40676.76
773.88	40803.73
774.07	40136.09
774.25	40609.17
774.43	40752.53
774.61	40334.74
774.80	40734.10
774.98	40639.89
775.16	40539.54
775.34	40404.38
775.53	40318.36
775.71	41420.17
775.89	40549.78
776.08	40902.03
776.26	40580.50
776.44	40594.84
776.62	40428.95
776.81	40441.24
776.99	40887.70
777.17	40557.97
777.35	40564.12
777.54	40641.94
777.72	40560.02
777.90	40627.60
778.08	40506.77
778.27	40637.84
778.45	40734.10
778.63	40932.75
778.81	40764.82
779.00	41428.36
779.18	40629.65
779.36	41000.33
779.54	40906.13
779.73	40979.85
779.91	41297.29
780.09	40850.83
780.27	40967.57
780.46	41188.75
780.64	41227.66
780.82	41137.55
781.00	41069.97
781.19	41244.04
781.37	41411.98
781.55	41596.29
781.73	41653.64
781.91	41334.15
782.10	41239.95
782.28	41186.70
782.46	41033.10
782.64	41315.72
782.82	41166.22
783.01	41516.42
783.19	41303.43
783.37	41387.40
783.55	41379.21
783.74	41538.95
783.92	41211.28
784.10	41571.72
784.28	41489.80
784.46	41223.56
784.64	41571.72
784.83	41710.98
785.01	41506.18
785.19	41223.56
785.37	41461.13
785.55	41368.97
785.74	41164.17
785.92	41108.88
786.10	41088.40
786.28	41282.95
786.46	40881.55
786.64	40783.25
786.83	41231.75
787.01	41000.33
787.19	41123.21
787.37	40897.94
787.55	40904.08
787.74	40486.29
787.92	40773.01
788.10	40852.88
788.28	40156.57
788.46	40883.60
788.64	40320.41
788.82	40580.50
789.01	40418.71
789.19	40480.15
789.37	40177.05
789.55	40549.78
789.73	40152.48
789.91	40113.56
790.09	40326.55
790.28	40396.18
790.46	39900.58
790.64	39706.02
790.82	39927.20
791.00	39654.82
791.18	39382.44
791.36	39904.67
791.55	39646.63
791.73	39490.98
791.91	39347.62
792.09	39452.07
792.27	39560.61
792.45	39579.04
792.63	39189.93
792.81	39040.43
793.00	39155.11
793.18	38657.46
793.36	38944.17
793.54	38694.32
793.72	38622.64
793.90	38929.84
794.08	38469.04
794.26	38200.76
794.44	38327.74
794.62	38383.03
794.81	38714.80
794.99	38157.75
795.17	38153.66
795.35	38481.33
795.53	37973.44
795.71	38151.61
795.89	37957.05
796.07	37316.04
796.25	37658.05
796.43	37664.19
796.61	37187.02
796.80	37395.91
796.98	37268.94
797.16	37107.15
797.34	37117.39
797.52	37111.24
797.70	37469.64
797.88	37027.28
798.06	36875.73
798.24	36842.96
798.42	36683.22
798.60	36570.58
798.78	36902.35
798.96	36771.28
799.14	36468.18
799.32	36470.23
799.51	36044.25
799.69	36318.68
799.87	36191.70
800.05	35632.61
800.23	36173.27
800.41	36052.44
800.59	35575.27
800.77	36034.01
800.95	35714.53
801.13	35601.89
801.31	35419.62
801.49	35757.53
801.67	35202.53
801.85	35444.20
802.03	35112.42
802.21	35352.04
802.39	34635.25
802.57	34774.51
802.75	34698.73
802.93	34631.15
803.11	34797.04
803.29	34645.49
803.47	34471.41
803.65	34854.38
803.83	33973.75
804.01	34840.04
804.19	33986.04
804.37	34434.55
804.55	34180.60
804.73	33850.88
804.91	33859.07
805.09	34213.37
805.27	33842.68
805.45	34176.50
805.63	33719.81
805.81	33764.86
805.99	33783.29
806.17	33824.25
806.35	33693.18
806.53	33441.28
806.71	33560.06
806.89	33508.86
807.07	33259.01
807.25	33134.09
807.43	33132.04
807.61	33226.24
807.79	33347.08
807.97	32898.57
808.15	32943.63
808.33	32548.37
808.51	32493.07
808.69	32845.32
808.87	32529.94
809.05	32259.60
809.23	32398.87
809.41	32341.52
809.59	32071.19
809.77	32284.18
809.95	31843.87
810.13	32245.27
810.31	32224.79
810.49	31948.31
810.67	32151.06
810.84	32085.53
811.02	31860.25
811.20	31831.58
811.38	31854.11
811.56	31776.28
811.74	31688.22
811.92	31256.10
812.10	31675.93
812.28	31491.62
812.46	31462.94
812.64	31284.77
812.82	31168.04
813.00	30971.43
813.18	31141.41
813.36	31071.78
813.53	30985.77
813.71	30819.88
813.89	30811.69
814.07	31026.73
814.25	30760.49
814.43	30862.89
814.61	30768.68
814.79	30709.29
814.97	30402.10
815.15	30654.00
815.33	30088.76
815.50	30332.47
815.68	30496.30
815.86	30656.04
816.04	30088.76
816.22	30041.65
816.40	30078.52
816.58	30094.90
816.76	29820.47
816.94	29748.79
817.11	30305.84
817.29	29890.10
817.47	29799.99
817.65	29617.72
817.83	30076.47
818.01	29492.80
818.19	29699.64
818.37	29443.65
818.54	29656.64
818.72	29400.64
818.90	29431.36
819.08	29271.62
819.26	29638.20
819.44	29453.89
819.62	29087.30
819.80	29312.58
819.97	29226.56
820.15	29197.89
820.33	29124.16
820.51	29066.82
820.69	28653.13
820.87	28876.36
821.05	28956.23
821.22	28886.60
821.40	28696.14
821.58	28665.42
821.76	28571.21
821.94	28706.38
822.12	28601.93
822.29	28646.99
822.47	28511.82
822.65	28507.72
822.83	28489.29
823.01	28175.95
823.19	28395.09
823.36	28126.80
823.54	28472.91
823.72	28339.79
823.90	28087.89
824.08	28083.80
824.25	28163.67
824.43	27981.40
824.61	28051.03
824.79	27995.73
824.97	27692.63
825.15	27958.87
825.32	27684.44
825.50	27969.11
825.68	27926.10
825.86	27840.09
826.04	27774.55
826.21	27647.58
826.39	27870.81
826.57	27729.50
826.75	27792.98
826.93	27276.90
827.10	27446.88
827.28	27657.82
827.46	27895.38
827.64	27719.26
827.81	27305.57
827.99	27162.21
828.17	27229.79
828.35	27276.90
828.53	26928.74
828.70	27164.26
828.88	27051.62
829.06	27205.22
829.24	27485.79
829.41	26793.58
829.59	27203.17
829.77	27082.34
829.95	26760.81
830.12	26637.93
830.30	26650.22
830.48	26803.82
830.66	26812.01
830.84	26685.03
831.01	26343.02
831.19	26639.98
831.37	26523.24
831.55	26488.43
831.72	26326.64
831.90	26310.25
832.08	26279.54
832.25	26418.80
832.43	26193.52
832.61	26285.68
832.79	26062.45
832.96	26412.65
833.14	26166.90
833.32	26285.68
833.50	26222.19
833.67	26207.86
833.85	26056.31
834.03	26082.93
834.20	26119.79
834.38	25998.96
834.56	26109.55
834.74	25708.15
834.91	25968.24
835.09	26021.49
835.27	25654.90
835.44	25714.30
835.62	25409.15
835.80	25370.24
835.98	25566.84
836.15	25781.88
836.33	25486.97
836.51	25626.23
836.68	25296.51
836.86	25372.28
837.04	25511.55
837.21	25435.77
837.39	25480.83
837.57	25880.18
837.75	25474.68
837.92	25386.62
838.10	25020.03
838.28	24966.79
838.45	24860.29
838.63	25187.97
838.81	25196.16
838.98	25104.00
839.16	24938.12
839.34	24821.38
839.51	24792.71
839.69	24774.28
839.87	24733.32
840.04	24780.42
840.22	24833.67
840.40	24997.51
840.57	24592.01
840.75	24788.61
840.93	24280.72
841.10	24708.74
841.28	24989.31
841.46	24772.23
841.63	24794.76
841.81	24424.08
841.98	24702.60
842.16	24581.77
842.34	24528.52
842.51	24374.92
842.69	24260.24
842.87	24323.72
843.04	24546.95
843.22	24471.18
843.40	24110.74
843.57	24235.66
843.75	24301.20
843.92	24465.03
844.10	24067.73
844.28	24557.19
844.45	24088.21
844.63	24157.84
844.81	24200.85
844.98	24321.68
845.16	24071.82
845.33	24237.71
845.51	23975.57
845.69	23907.99
845.86	23778.97
846.04	23852.69
846.21	23654.04
846.39	23826.07
846.57	23682.71
846.74	23697.05
846.92	23760.53
847.09	23774.87
847.27	23420.57
847.45	23772.82
847.62	23727.77
847.80	23404.19
847.97	23711.38
848.15	23426.71
848.32	23449.24
848.50	23367.32
848.68	23123.62
848.85	23508.63
849.03	23191.20
849.20	23473.82
849.38	23369.37
849.56	23213.73
849.73	22924.96
849.91	23328.41
850.08	23391.90
850.26	22851.24
850.43	23213.73
850.61	22965.92
850.78	22900.39
850.96	22927.01
851.14	22814.37
851.31	22994.59
851.49	23041.70
851.66	23045.79
851.84	22757.03
852.01	22914.72
852.19	22832.80
852.36	22789.80
852.54	22806.18
852.71	22963.87
852.89	22726.31
853.07	23041.70
853.24	22650.53
853.42	22789.80
853.59	22838.95
853.77	22597.29
853.94	22619.81
854.12	22781.60
854.29	22382.25
854.47	22662.82
854.64	22503.08
854.82	22425.26
854.99	22654.63
855.17	22544.04
855.34	22312.62
855.52	22281.90
855.69	22460.07
855.87	22357.67
856.04	21792.44
856.22	22275.76
856.39	22154.93
856.57	22146.73
856.74	21913.27
856.92	22075.06
857.09	21933.75
857.27	22099.63
857.44	22109.87
857.62	21960.37
857.79	22138.54
857.97	22070.96
858.14	22030.00
858.32	22058.67
858.49	22091.44
858.67	21911.22
858.84	21675.70
859.02	21941.94
859.19	21579.45
859.37	21782.20
859.54	21579.45
859.72	22023.86
859.89	21837.49
860.06	21786.29
860.24	21499.58
860.41	21393.08
860.59	21239.48
860.76	21685.94
860.94	21143.23
861.11	21608.12
861.29	21356.22
861.46	21376.70
861.64	20997.82
861.81	21018.30
861.98	21264.06
862.16	20973.25
862.33	20952.77
862.51	21300.92
862.68	21259.96
862.86	20922.05
863.03	21264.06
863.21	21065.41
863.38	21051.07
863.55	20879.04
863.73	20924.10
863.90	20819.65
864.08	20993.73
864.25	20946.62
864.43	20997.82
864.60	20909.76
864.77	20887.23
864.95	20655.81
865.12	20479.69
865.30	20561.61
865.47	20752.07
865.64	20522.69
865.82	20692.68
865.99	20823.75
866.17	20301.51
866.34	20745.92
866.51	20297.42
866.69	20604.61
866.86	20401.86
867.04	20502.22
867.21	20133.58
867.38	20293.32
867.56	20360.91
867.73	20203.21
867.91	20319.95
868.08	20162.25
868.25	20133.58
868.43	20225.74
868.60	19906.26
868.78	20203.21
868.95	20203.21
869.12	19973.84
869.30	19818.19
869.47	19975.89
869.64	19709.65
869.82	19627.73
869.99	19482.33
870.16	19916.50
870.34	19883.73
870.51	19760.85
870.69	19377.88
870.86	19488.47
871.03	19777.23
871.21	19502.81
871.38	19883.73
871.55	19422.94
871.73	19551.96
871.90	19551.96
872.07	19343.06
872.25	19482.33
872.42	19343.06
872.59	19017.44
872.77	19283.67
872.94	19449.56
873.11	18976.48
873.29	19338.97
873.46	19193.56
873.63	19486.42
873.81	19105.50
873.98	19015.39
874.15	18941.66
874.33	18853.60
874.50	18824.93
874.67	18904.80
874.85	18824.93
875.02	18757.35
875.19	18654.95
875.37	18532.07
875.54	18497.25
875.71	18634.47
875.88	18507.49
876.06	18638.56
876.23	18439.91
876.40	18452.20
876.58	18548.45
876.75	18298.60
876.92	18349.80
877.10	18298.60
877.27	18202.35
877.44	18198.25
877.61	18075.37
877.79	17897.20
877.96	18237.16
878.13	18360.04
878.31	17962.73
878.48	18145.00
878.65	17868.53
878.82	17829.62
879.00	17895.15
879.17	17901.29
879.34	17770.22
879.51	17669.87
879.69	17608.44
879.86	17829.62
880.03	17624.82
880.21	17944.30
880.38	17825.52
880.55	17999.60
880.72	17655.54
880.90	17653.49
881.07	17559.28
881.24	17530.61
881.41	17798.90
881.59	17446.65
881.76	17518.32
881.93	17401.59
882.10	17485.56
882.28	17184.51
882.45	17329.91
882.62	17194.75
882.79	17458.93
882.96	17213.18
883.14	17395.45
883.31	17207.03
883.48	17293.05
883.65	17211.13
883.83	17174.27
884.00	17135.35
884.17	17227.51
884.34	17080.06
884.51	16852.73
884.69	17086.20
884.86	17137.40
885.03	16885.50
885.20	16768.77
885.38	16826.11
885.55	16953.09
885.72	16736.00
885.89	16768.77
886.06	16932.61
886.24	16760.58
886.41	16568.07
886.58	17116.92
886.75	17035.00
886.92	16838.40
887.10	16918.27
887.27	16649.99
887.44	16643.84
887.61	17135.35
887.78	17114.87
887.95	16842.50
888.13	16586.50
888.30	16480.00
888.47	16518.92
888.64	16424.71
888.81	16449.28
888.99	16400.13
889.16	16432.90
889.33	16457.48
889.50	16324.36
889.67	16172.81
889.84	16217.86
890.01	16320.26
890.19	16336.65
890.36	16490.24
890.53	16365.32
890.70	16267.02
890.87	16156.43
891.04	16068.36
891.22	16070.41
891.39	16252.68
891.56	16125.71
891.73	15914.77
891.90	16082.70
892.07	15865.61
892.24	16127.75
892.42	15906.57
892.59	16031.50
892.76	15992.59
892.93	15986.44
893.10	15804.17
893.27	16035.60
893.44	15834.89
893.61	15838.99
893.79	15806.22
893.96	15771.41
894.13	15732.50
894.30	15677.20
894.47	15744.78
894.64	15740.69
894.81	15603.47
894.98	15709.97
895.15	15834.89
895.33	15585.04
895.50	15511.32
895.67	15585.04
895.84	15658.77
896.01	15761.17
896.18	15329.05
896.35	15769.36
896.52	15662.86
896.69	15410.96
896.86	15556.37
897.04	15669.01
897.21	15542.03
897.38	15566.61
897.55	15607.57
897.72	15398.68
897.89	15806.22
898.06	15646.48
898.23	15499.03
898.40	15322.90
898.57	15775.50
898.74	15755.02
898.91	15638.29
899.08	15662.86
899.26	15693.58
899.43	15410.96
899.60	15343.38
899.77	15560.47
899.94	15660.82
900.11	15429.40
900.28	15466.26
900.45	15548.18
900.62	15539.99
900.79	15724.30
900.96	15496.98
901.13	15367.96
901.30	15447.83
901.47	15347.48
901.64	15451.92
901.81	15669.01
901.98	15421.20
902.15	15863.57
902.32	15443.73
902.49	15261.46
902.66	15640.34
902.83	15630.10
903.01	15546.13
903.18	15468.31
903.35	15359.77
903.52	15550.23
903.69	15429.40
903.86	15552.27
904.03	15460.12
904.20	15492.88
904.37	15580.95
904.54	15484.69
904.71	15214.36
904.88	15439.64
905.05	15306.52
905.22	15775.50
905.39	15269.66
905.56	15339.29
905.73	15195.93
905.90	15376.15
906.07	15277.85
906.24	15439.64
906.41	15181.59
906.58	15138.58
906.75	15548.18
906.92	15124.25
907.09	15210.26
907.26	15183.64
907.43	15126.30
907.60	15277.85
907.77	15376.15
907.93	15419.16
908.10	15204.12
908.27	15406.87
908.44	15173.40
908.61	15159.06
908.78	15165.21
908.95	15226.65
909.12	15257.37
909.29	15200.02
909.46	15081.24
909.63	15214.36
909.80	15388.44
909.97	15204.12
910.14	15126.30
910.31	15001.37
910.48	15046.43
910.65	15275.80
910.82	15138.58
910.99	14980.89
911.16	15171.35
911.33	15077.15
911.50	14718.75
911.66	14921.50
911.83	14982.94
912.00	14702.37
912.17	14794.53
912.34	14923.55
912.51	15034.14
912.68	14821.15
912.85	14778.14
913.02	14921.50
913.19	14882.59
913.36	14735.14
913.53	14896.92
913.70	14542.63
913.86	14667.55
914.03	14612.26
914.20	14548.77
914.37	14425.89
914.54	14675.74
914.71	14456.61
914.88	14610.21
915.05	14491.43
915.22	14366.50
915.39	14575.39
915.55	14278.44
915.72	14452.52
915.89	14315.30
916.06	14333.73
916.23	14133.03
916.40	14237.48
916.57	14243.62
916.74	14124.84
916.91	13903.66
917.07	14018.35
917.24	13965.10
917.41	13977.39
917.58	14077.74
917.75	13766.45
917.92	13707.05
918.09	14018.35
918.26	14016.30
918.42	13885.23
918.59	13881.13
918.76	13608.75
918.93	13561.65
919.10	13414.20
919.27	13506.35
919.44	13655.86
919.60	13774.64
919.77	13432.63
919.94	13414.20
920.11	13236.02
920.28	13602.61
920.45	13463.35
920.61	13156.15
920.78	13393.72
920.95	13354.80
921.12	13219.64
921.29	13291.32
921.46	13293.37
921.62	13076.28
921.79	13051.70
921.96	12797.76
922.13	12959.55
922.30	12742.46
922.47	12953.40
922.63	12803.90
922.80	12851.00
922.97	12760.89
923.14	12431.17
923.31	12474.18
923.47	12508.99
923.64	12693.31
923.81	12420.93
923.98	12361.54
924.15	12357.44
924.32	12279.62
924.48	12330.82
924.65	12459.84
924.82	12220.23
924.99	12248.90
925.15	12164.93
925.32	12193.61
925.49	11857.74
925.66	11980.62
925.83	12099.40
925.99	11784.01
926.16	11847.50
926.33	11902.79
926.50	11614.03
926.67	11947.85
926.83	11763.53
927.00	11566.93
927.17	11452.24
927.34	11485.01
927.50	11599.70
927.67	11540.30
927.84	11591.50
928.01	11446.10
928.17	11118.42
928.34	11104.09
928.51	11300.69
928.68	11077.46
928.84	11296.60
929.01	11026.26
929.18	10772.32
929.35	11032.41
929.51	10794.84
929.68	10874.71
929.85	10772.32
930.02	10645.34
930.18	10678.11
930.35	10698.59
930.52	10610.53
930.69	10682.20
930.85	10495.84
931.02	10420.06
931.19	10514.27
931.36	10579.81
931.52	10327.91
931.69	10336.10
931.86	10450.78
932.02	10375.01
932.19	10123.11
932.36	10127.21
932.53	10313.57
932.69	10026.86
932.86	10123.11
933.03	10143.59
933.19	9971.56
933.36	9854.83
933.53	10129.25
933.70	9901.93
933.86	9949.03
934.03	9854.83
934.20	9707.37
934.36	9686.89
934.53	9389.94
934.70	9230.20
934.86	9457.52
935.03	9373.55
935.20	9219.96
935.36	9174.90
935.53	9047.93
935.70	9146.23
935.86	9080.69
936.03	8826.75
936.20	8630.14
936.36	8701.82
936.53	8521.60
936.70	8597.37
936.86	8540.03
937.03	8488.83
937.20	8337.28
937.36	8404.86
937.53	8218.50
937.70	8185.73
937.86	7995.27
938.03	7944.07
938.20	8105.86
938.36	7784.33
938.53	7899.02
938.70	7591.82
938.86	7679.88
939.03	7483.28
939.20	7450.51
939.36	7382.93
939.53	7344.02
939.70	7282.58
939.86	7081.88
940.03	7118.74
940.19	6975.38
940.36	6956.95
940.53	6895.51
940.69	6795.16
940.86	6854.55
941.03	6561.69
941.19	6516.64
941.36	6645.66
941.52	6430.62
941.69	6416.29
941.86	6320.03
942.02	6203.30
942.19	6227.87
942.35	6215.59
942.52	6264.74
942.69	5883.81
942.85	5943.21
943.02	5881.77
943.18	5951.40
943.35	5973.92
943.52	5945.25
943.68	5914.53
943.85	5689.26
944.01	5644.20
944.18	5717.93
944.35	5775.27
944.51	5689.26
944.68	5513.13
944.84	5576.62
945.01	5529.52
945.17	5740.46
945.34	5541.80
945.51	5562.28
945.67	5521.32
945.84	5484.46
946.00	5525.42
946.17	5361.58
946.33	5394.35
946.50	5349.29
946.67	5396.40
946.83	5427.12
947.00	5449.64
947.16	5398.45
947.33	5347.25
947.49	5392.30
947.66	5269.42
947.82	5386.16
947.99	5277.62
948.16	5599.15
948.32	5375.92
948.49	5375.92
948.65	5502.89
948.82	5427.12
948.98	5328.81
949.15	5279.66
949.31	5427.12
949.48	5402.54
949.64	5359.53
949.81	5351.34
949.97	5412.78
950.14	5312.43
950.30	5423.02
950.47	5459.88
950.63	5476.27
950.80	5279.66
950.96	5355.44
951.13	5380.01
951.30	5461.93
951.46	5398.45
951.63	5441.45
951.79	5435.31
951.96	5545.90
952.12	5468.08
952.29	5443.50
952.45	5384.11
952.62	5572.52
952.78	5599.15
952.94	5445.55
953.11	5412.78
953.27	5300.14
953.44	5568.43
953.60	5609.39
953.77	5396.40
953.93	5513.13
954.10	5410.73
954.26	5445.55
954.43	5449.64
954.59	5402.54
954.76	5631.91
954.92	5414.83
955.09	5670.83
955.25	5466.03
955.42	5586.86
955.58	5644.20
955.75	5463.98
955.91	5513.13
956.07	5490.60
956.24	5611.43
956.40	5619.63
956.57	5595.05
956.73	5531.56
956.90	5701.54
957.06	5552.04
957.23	5554.09
957.39	5457.84
957.56	5562.28
957.72	5459.88
957.88	5435.31
958.05	5599.15
958.21	5568.43
958.38	5556.14
958.54	5414.83
958.71	5597.10
958.87	5543.85
959.03	5431.21
959.20	5414.83
959.36	5486.51
959.53	5545.90
959.69	5476.27
959.85	5541.80
960.02	5423.02
960.18	5300.14
960.35	5525.42
960.51	5500.84
960.68	5410.73
960.84	5617.58
961.00	5500.84
961.17	5605.29
961.33	5593.00
961.50	5566.38
961.66	5613.48
961.82	5539.76
961.99	5492.65
962.15	5402.54
962.31	5511.08
962.48	5488.56
962.64	5543.85
962.81	5545.90
962.97	5451.69
963.13	5529.52
963.30	5506.99
963.46	5447.60
963.62	5410.73
963.79	5466.03
963.95	5572.52
964.12	5392.30
964.28	5513.13
964.44	5363.63
964.61	5490.60
964.77	5382.06
964.93	5420.97
965.10	5398.45
965.26	5402.54
965.42	5416.88
965.59	5363.63
965.75	5302.19
965.92	5384.11
966.08	5375.92
966.24	5396.40
966.41	5281.71
966.57	5502.89
966.73	5388.21
966.90	5423.02
967.06	5384.11
967.22	5375.92
967.39	5498.80
967.55	5265.33
967.71	5349.29
967.88	5388.21
968.04	5199.79
968.20	5111.73
968.37	5140.40
968.53	5156.79
968.69	5294.00
968.85	5294.00
969.02	5353.39
969.18	5261.23
969.34	5212.08
969.51	5330.86
969.67	5195.70
969.83	5115.83
970.00	5363.63
970.16	5242.80
970.32	5183.41
970.48	5328.81
970.65	4997.04
970.81	5066.67
970.97	5154.74
971.14	5025.72
971.30	5158.83
971.46	5089.20
971.63	5029.81
971.79	5035.96
971.95	4997.04
972.11	5013.43
972.28	5058.48
972.44	5124.02
972.60	4984.76
972.76	5035.96
972.93	4884.41
973.09	5029.81
973.25	5033.91
973.42	4845.49
973.58	4911.03
973.74	4956.08
973.90	5103.54
974.07	4915.12
974.23	4849.59
974.39	4982.71
974.55	4831.16
974.72	4900.79
974.88	4755.38
975.04	4704.18
975.20	4822.97
975.37	4882.36
975.53	4698.04
975.69	4863.93
975.85	4771.77
976.01	4655.03
976.18	4822.97
976.34	4763.58
976.50	4782.01
976.66	4892.60
976.83	4790.20
976.99	4693.94
977.15	4714.42
977.31	4626.36
977.47	4743.10
977.64	4747.19
977.80	4704.18
977.96	4691.90
978.12	4689.85
978.29	4616.12
978.45	4571.07
978.61	4685.75
978.77	4714.42
978.93	4558.78
979.10	4612.03
979.26	4530.11
979.42	4511.68
979.58	4454.33
979.74	4505.53
979.91	4509.63
980.07	4591.55
980.23	4566.97
980.39	4446.14
980.55	4384.70
980.71	4478.91
980.88	4360.13
981.04	4409.28
981.20	4421.56
981.36	4366.27
981.52	4415.42
981.68	4298.69
981.85	4433.85
982.01	4425.66
982.17	4341.69
982.33	4278.21
982.49	4489.15
982.65	4425.66
982.82	4366.27
982.98	4444.09
983.14	4292.54
983.30	4368.32
983.46	4368.32
983.62	4308.93
983.79	4364.22
983.95	4263.87
984.11	4132.80
984.27	4255.68
984.43	4173.76
984.59	4130.75
984.75	4253.63
984.91	4181.95
985.08	4184.00
985.24	4208.58
985.40	4155.33
985.56	4155.33
985.72	4247.49
985.88	4218.82
986.04	4198.34
986.20	4042.69
986.37	4052.93
986.53	4016.07
986.69	4079.55
986.85	3999.68
987.01	4061.12
987.17	4147.14
987.33	4014.02
987.49	4052.93
987.65	4059.07
987.82	4089.79
987.98	3870.66
988.14	3993.54
988.30	4018.11
988.46	3956.68
988.62	4085.70
988.78	3854.28
988.94	4087.75
989.10	3891.14
989.26	4014.02
989.42	3801.03
989.59	3905.48
989.75	3674.06
989.91	3946.44
990.07	3817.41
990.23	3868.61
990.39	3915.72
990.55	3813.32
990.71	3784.65
990.87	3846.09
991.03	3891.14
991.19	3805.13
991.35	3811.27
991.51	3825.61
991.67	3829.70
991.83	3778.50
992.00	3749.83
992.16	3739.59
992.32	3672.01
992.48	3811.27
992.64	3624.90
992.80	3731.40
992.96	3653.58
993.12	3686.34
993.28	3735.50
993.44	3715.02
993.60	3663.82
993.76	3637.19
993.92	3782.60
994.08	3665.86
994.24	3555.27
994.40	3542.99
994.56	3626.95
994.72	3608.52
994.88	3512.27
995.04	3641.29
995.20	3598.28
995.36	3528.65
995.52	3600.33
995.68	3510.22
995.84	3512.27
996.00	3631.05
996.16	3459.02
996.32	3559.37
996.48	3428.30
996.64	3477.45
996.80	3534.79
996.96	3610.57
997.12	3483.59
997.28	3397.58
997.44	3366.86
997.60	3432.40
997.76	3424.20
997.92	3413.96
998.08	3336.14
998.24	3262.41
998.40	3217.36
998.56	3420.11
998.72	3223.50
998.88	3383.24
999.04	3327.95
999.20	3411.92
999.36	3346.38
999.52	3436.49
999.68	3332.05
999.84	3317.71
1000.00	3309.52
1000.16	3452.88
1000.32	3264.46
1000.48	3428.30
1000.64	3241.93
1000.80	3239.89
1000.95	3262.41
1001.11	3342.28
1001.27	3200.98
1001.43	3342.28
1001.59	3162.06
1001.75	3252.17
1001.91	3149.78
1002.07	3166.16
1002.23	3117.01
1002.39	3166.16
1002.55	3182.54
1002.71	3160.02
1002.87	3096.53
1003.03	3065.81
1003.19	3186.64
1003.34	3198.93
1003.50	3041.23
1003.66	3252.17
1003.82	3157.97
1003.98	3061.71
1004.14	3121.10
1004.30	2930.64
1004.46	3094.48
1004.62	3051.47
1004.78	3053.52
1004.94	3033.04
1005.09	3035.09
1005.25	3041.23
1005.41	2940.88
1005.57	2924.50
1005.73	2977.75
1005.89	2928.60
1006.05	2926.55
1006.21	3026.90
1006.37	2912.21
1006.52	2998.23
1006.68	2924.50
1006.84	3039.19
1007.00	2975.70
1007.16	2920.40
1007.32	2924.50
1007.48	2987.99
1007.64	2899.92
1007.79	2942.93
1007.95	2918.36
1008.11	2981.84
1008.27	2863.06
1008.43	2891.73
1008.59	2846.68
1008.75	2920.40
1008.91	2920.40
1009.06	2826.20
1009.22	2838.48
1009.38	2881.49
1009.54	2811.86
1009.70	2719.70
1009.86	2789.33
1010.01	2811.86
1010.17	2707.41
1010.33	2863.06
1010.49	2744.28
1010.65	2949.08
1010.81	2762.71
1010.96	2760.66
1011.12	2715.61
1011.28	2752.47
1011.44	2699.22
1011.60	2674.65
1011.76	2672.60
1011.91	2807.77
1012.07	2668.50
1012.23	2598.87
1012.39	2727.89
1012.55	2707.41
1012.71	2562.01
1012.86	2678.74
1013.02	2660.31
1013.18	2523.10
1013.34	2611.16
1013.50	2555.86
1013.65	2648.02
1013.81	2615.26
1013.97	2566.10
1014.13	2598.87
1014.29	2525.15
1014.44	2727.89
1014.60	2600.92
1014.76	2514.91
1014.92	2559.96
1015.07	2650.07
1015.23	2525.15
1015.39	2543.58
1015.55	2471.90
1015.71	2490.33
1015.86	2555.86
1016.02	2469.85
1016.18	2443.23
1016.34	2455.51
1016.49	2547.67
1016.65	2598.87
1016.81	2412.51
1016.97	2508.76
1017.12	2525.15
1017.28	2404.32
1017.44	2512.86
1017.60	2453.47
1017.75	2492.38
1017.91	2461.66
1018.07	2484.19
1018.23	2387.93
1018.38	2369.50
1018.54	2492.38
1018.70	2416.60
1018.86	2424.80
1019.01	2445.27
1019.17	2353.12
1019.33	2484.19
1019.49	2455.51
1019.64	2457.56
1019.80	2416.60
1019.96	2428.89
1020.12	2437.08
1020.27	2342.88
1020.43	2361.31
1020.59	2441.18
1020.74	2336.73
1020.90	2406.36
1021.06	2260.96
1021.22	2326.49
1021.37	2355.16
1021.53	2359.26
1021.69	2330.59
1021.84	2260.96
1022.00	2359.26
1022.16	2328.54
1022.31	2330.59
1022.47	2400.22
1022.63	2559.96
1022.79	2260.96
1022.94	2320.35
1023.10	2297.82
1023.26	2291.68
1023.41	2164.70
1023.57	2254.81
1023.73	2236.38
1023.88	2283.49
1024.04	2201.57
1024.20	2260.96
1024.35	2254.81
1024.51	2273.25
1024.67	2179.04
1024.82	2283.49
1024.98	2228.19
1025.14	2256.86
1025.29	2291.68
1025.45	2263.01
1025.61	2232.29
1025.76	2263.01
1025.92	2168.80
1026.08	2265.05
1026.23	2189.28
1026.39	2197.47
1026.55	2260.96
1026.70	2156.51
1026.86	2316.25
1027.02	2269.15
1027.17	2158.56
1027.33	2193.37
1027.48	2187.23
1027.64	2084.83
1027.80	2117.60
1027.95	2199.52
1028.11	2140.13
1028.27	2195.42
1028.42	2230.24
1028.58	2037.73
1028.73	2117.60
1028.89	1994.72
1029.05	2234.33
1029.20	2164.70
>>>>>End Processed Spectral Data<<<<<
