SpectraSuite Data File
++++++++++++++++++++++++++++++++++++
Date: Fri Jun 02 14:57:21 CEST 2017
User: INFO_000
Dark Spectrum Present: No
Reference Spectrum Present: No
Number of Sampled Component Spectra: 1
Spectrometers: USB4H00879
Integration Time (usec): 80000 (USB4H00879)
Spectra Averaged: 1 (USB4H00879)
Boxcar Smoothing: 0 (USB4H00879)
Correct for Electrical Dark: No (USB4H00879)
Strobe/Lamp Enabled: No (USB4H00879)
Correct for Detector Non-linearity: No (USB4H00879)
Correct for Stray Light: No (USB4H00879)
Number of Pixels in Processed Spectrum: 3648
>>>>>Begin Processed Spectral Data<<<<<
345.13	1279.98
345.34	1279.98
345.56	1279.98
345.78	1269.74
345.99	1232.88
346.21	1673.19
346.42	1685.48
346.64	1642.47
346.86	1744.87
347.07	1640.42
347.29	1740.77
347.50	1601.51
347.72	1736.68
347.94	1732.58
348.15	1540.07
348.37	1617.90
348.59	1748.97
348.80	1667.05
349.02	1773.54
349.23	1902.56
349.45	1812.45
349.67	1923.04
349.88	1882.08
350.10	1976.29
350.31	1880.04
350.53	1742.82
350.75	1947.62
350.96	1777.64
351.18	1906.66
351.39	1818.60
351.61	1769.44
351.82	1943.52
352.04	1861.60
352.26	1800.16
352.47	1871.84
352.69	1896.42
352.90	1804.26
353.12	1892.32
353.34	1808.36
353.55	1957.86
353.77	1863.65
353.98	1796.07
354.20	1818.60
354.41	1939.43
354.63	1978.34
354.85	2017.25
355.06	1939.43
355.28	1806.31
355.49	1861.60
355.71	1953.76
355.92	1861.60
356.14	1955.81
356.35	1918.95
356.57	1949.67
356.79	1929.19
357.00	1839.08
357.22	1927.14
357.43	1789.92
357.65	1996.77
357.86	1812.45
358.08	1839.08
358.29	1939.43
358.51	2056.16
358.72	1986.53
358.94	2064.35
359.16	1847.27
359.37	1945.57
359.59	1943.52
359.80	1894.37
360.02	1904.61
360.23	2045.92
360.45	2009.06
360.66	1961.95
360.88	1888.23
361.09	1941.47
361.31	2050.02
361.52	2045.92
361.74	2144.22
361.95	2117.60
362.17	1974.24
362.38	2039.78
362.60	1972.19
362.81	1900.52
363.03	1998.82
363.24	1966.05
363.46	2015.20
363.67	2035.68
363.89	2019.30
364.10	1961.95
364.32	1986.53
364.53	2088.93
364.75	1859.56
364.96	2035.68
365.18	2058.21
365.39	1982.43
365.61	1986.53
365.82	2164.70
366.04	1998.82
366.25	1923.04
366.47	2099.17
366.68	1988.58
366.90	1974.24
367.11	2025.44
367.33	2125.79
367.54	2025.44
367.76	1986.53
367.97	2109.41
368.19	2009.06
368.40	2052.06
368.62	2025.44
368.83	2000.87
369.05	2080.74
369.26	2019.30
369.48	2011.11
369.69	1984.48
369.91	2068.45
370.12	2052.06
370.33	2076.64
370.55	2052.06
370.76	2037.73
370.98	2109.41
371.19	2031.58
371.41	1994.72
371.62	2011.11
371.84	1972.19
372.05	2142.18
372.27	2058.21
372.48	2054.11
372.69	2142.18
372.91	2152.42
373.12	2115.55
373.34	2088.93
373.55	2082.78
373.77	2146.27
373.98	2062.30
374.20	2230.24
374.41	2131.94
374.62	2117.60
374.84	2142.18
375.05	2174.94
375.27	2193.37
375.48	2238.43
375.70	2080.74
375.91	2181.09
376.12	2297.82
376.34	2090.98
376.55	2228.19
376.77	2287.58
376.98	2142.18
377.19	2105.31
377.41	2207.71
377.62	2197.47
377.84	2263.01
378.05	2412.51
378.27	2201.57
378.48	2322.40
378.69	2488.28
378.91	2232.29
379.12	2162.66
379.34	2275.29
379.55	2211.81
379.76	2277.34
379.98	2224.09
380.19	2318.30
380.41	2324.44
380.62	2287.58
380.83	2375.64
381.05	2181.09
381.26	2394.08
381.47	2181.09
381.69	2260.96
381.90	2353.12
382.12	2332.64
382.33	2252.77
382.54	2402.27
382.76	2359.26
382.97	2197.47
383.19	2240.48
383.40	2373.60
383.61	2367.45
383.83	2271.20
384.04	2408.41
384.25	2342.88
384.47	2398.17
384.68	2346.97
384.89	2312.16
385.11	2353.12
385.32	2336.73
385.54	2379.74
385.75	2338.78
385.96	2432.99
386.18	2402.27
386.39	2435.03
386.60	2361.31
386.82	2451.42
387.03	2408.41
387.24	2451.42
387.46	2504.67
387.67	2508.76
387.88	2514.91
388.10	2475.99
388.31	2559.96
388.52	2551.77
388.74	2471.90
388.95	2437.08
389.16	2428.89
389.38	2465.75
389.59	2643.93
389.80	2641.88
390.02	2607.06
390.23	2664.41
390.44	2549.72
390.66	2428.89
390.87	2514.91
391.08	2543.58
391.30	2643.93
391.51	2656.22
391.72	2705.37
391.94	2736.09
392.15	2621.40
392.36	2557.91
392.58	2572.25
392.79	2633.69
393.00	2668.50
393.22	2707.41
393.43	2693.08
393.64	2807.77
393.85	2820.05
394.07	2625.50
394.28	2764.76
394.49	2762.71
394.71	2691.03
394.92	2879.44
395.13	2611.16
395.35	2746.33
395.56	2717.65
395.77	2768.85
395.98	2844.63
396.20	2885.59
396.41	2818.00
396.62	2781.14
396.84	2787.29
397.05	2822.10
397.26	2973.65
397.47	2985.94
397.69	2787.29
397.90	2967.51
398.11	2815.96
398.32	2967.51
398.54	2858.96
398.75	2881.49
398.96	2955.22
399.18	3006.42
399.39	2908.12
399.60	2992.08
399.81	2949.08
400.03	2897.88
400.24	3170.26
400.45	3006.42
400.66	3045.33
400.88	3014.61
401.09	3203.02
401.30	3123.15
401.51	3102.67
401.73	3131.34
401.94	3182.54
402.15	3024.85
402.36	3190.74
402.58	3049.43
402.79	3192.78
403.00	3037.14
403.21	3086.29
403.43	3194.83
403.64	3311.57
403.85	3188.69
404.06	3209.17
404.27	3168.21
404.49	3299.28
404.70	3196.88
404.91	3354.57
405.12	3248.08
405.34	3319.76
405.55	3418.06
405.76	3180.50
405.97	3327.95
406.19	3332.05
406.40	3274.70
406.61	3370.96
406.82	3346.38
407.03	3305.42
407.25	3241.93
407.46	3409.87
407.67	3389.39
407.88	3383.24
408.09	3358.67
408.31	3358.67
408.52	3426.25
408.73	3377.10
408.94	3377.10
409.15	3463.12
409.37	3614.66
409.58	3438.54
409.79	3459.02
410.00	3534.79
410.21	3428.30
410.43	3524.55
410.64	3313.61
410.85	3583.95
411.06	3522.51
411.27	3594.19
411.48	3649.48
411.70	3567.56
411.91	3585.99
412.12	3704.78
412.33	3618.76
412.54	3604.42
412.76	3747.78
412.97	3704.78
413.18	3622.86
413.39	3665.86
413.60	3639.24
413.81	3682.25
414.03	3590.09
414.24	3641.29
414.45	3735.50
414.66	3518.41
414.87	3776.45
415.08	3719.11
415.30	3749.83
415.51	3745.73
415.72	3684.30
415.93	3755.97
416.14	3749.83
416.35	3870.66
416.56	3772.36
416.78	3768.26
416.99	3868.61
417.20	3907.52
417.41	3915.72
417.62	3807.17
417.83	3831.75
418.04	3997.64
418.26	3946.44
418.47	3940.29
418.68	4044.74
418.89	4059.07
419.10	4173.76
419.31	3981.25
419.52	4044.74
419.73	3993.54
419.95	4112.32
420.16	4001.73
420.37	4018.11
420.58	3928.00
420.79	4097.99
421.00	4186.05
421.21	4130.75
421.42	4089.79
421.63	4214.72
421.85	4087.75
422.06	4173.76
422.27	4138.94
422.48	4079.55
422.69	4247.49
422.90	4396.99
423.11	4378.56
423.32	4313.02
423.53	4380.61
423.75	4300.73
423.96	4358.08
424.17	4360.13
424.38	4497.34
424.59	4308.93
424.80	4622.27
425.01	4427.71
425.22	4325.31
425.43	4558.78
425.64	4698.04
425.85	4607.93
426.06	4583.35
426.28	4542.39
426.49	4425.66
426.70	4673.46
426.91	4566.97
427.12	4720.57
427.33	4542.39
427.54	4550.59
427.75	4741.05
427.96	4865.97
428.17	4698.04
428.38	4741.05
428.59	4882.36
428.80	4743.10
429.01	4892.60
429.23	4995.00
429.44	5042.10
429.65	4857.78
429.86	5046.20
430.07	4872.12
430.28	4902.84
430.49	5013.43
430.70	5046.20
430.91	5130.16
431.12	4949.94
431.33	5119.92
431.54	5150.64
431.75	5081.01
431.96	5140.40
432.17	5070.77
432.38	5173.17
432.59	5306.29
432.80	5357.49
433.01	5275.57
433.22	5195.70
433.43	5294.00
433.64	5332.91
433.85	5203.89
434.06	5355.44
434.27	5312.43
434.49	5320.62
434.70	5418.93
434.91	5418.93
435.12	5441.45
435.33	5423.02
435.54	5429.17
435.75	5343.15
435.96	5500.84
436.17	5345.20
436.38	5638.06
436.59	5693.35
436.80	5531.56
437.01	5758.89
437.22	5605.29
437.43	5488.56
437.64	5429.17
437.85	5642.15
438.06	5861.29
438.27	5654.44
438.48	5707.69
438.69	5871.53
438.90	5832.62
439.11	5715.88
439.32	5930.92
439.53	5826.47
439.74	5777.32
439.95	5799.85
440.16	5779.37
440.37	5838.76
440.57	5840.81
440.78	6008.74
440.99	5949.35
441.20	5803.94
441.41	5892.01
441.62	5920.68
441.83	5781.42
442.04	6154.15
442.25	5988.26
442.46	5967.78
442.67	6141.86
442.88	6385.57
443.09	6090.66
443.30	6055.84
443.51	6156.19
443.72	6541.21
443.93	6178.72
444.14	6360.99
444.35	6207.39
444.56	6229.92
444.77	6268.83
444.98	6410.14
445.19	6408.09
445.40	6334.37
445.61	6268.83
445.81	6678.43
446.02	6533.02
446.23	6487.96
446.44	6266.78
446.65	6553.50
446.86	6406.05
447.07	6506.40
447.28	6655.90
447.49	6637.47
447.70	6614.94
447.91	6590.36
448.12	6578.08
448.33	6770.58
448.54	6823.83
448.74	6735.77
448.95	6610.84
449.16	6793.11
449.37	7147.41
449.58	6746.01
449.79	7018.39
450.00	6682.52
450.21	6842.26
450.42	7034.77
450.63	7018.39
450.84	6883.22
451.05	7004.05
451.25	7120.79
451.46	6969.24
451.67	6975.38
451.88	7088.02
452.09	7112.60
452.30	7038.87
452.51	7053.20
452.72	7323.54
452.93	7348.11
453.13	7077.78
453.34	7092.12
453.55	7438.22
453.76	7255.95
453.97	7665.55
454.18	7464.85
454.39	7382.93
454.60	7294.86
454.81	7407.50
455.01	7421.84
455.22	7270.29
455.43	7622.54
455.64	7720.84
455.85	7919.50
456.06	7929.74
456.27	7712.65
456.48	7747.47
456.68	7915.40
456.89	7665.55
457.10	7802.76
457.31	8079.24
457.52	7845.77
457.73	7968.65
457.94	8120.20
458.14	7798.66
458.35	8187.78
458.56	8155.01
458.77	8189.83
458.98	8150.92
459.19	8281.99
459.39	8316.80
459.60	8359.81
459.81	8535.93
460.02	8531.84
460.23	8329.09
460.44	8800.12
460.65	8695.68
460.85	8687.48
461.06	8757.11
461.27	8710.01
461.48	8826.75
461.69	8894.33
461.89	8787.83
462.10	8785.79
462.31	8667.00
462.52	8722.30
462.73	8888.18
462.94	9176.95
463.14	9011.06
463.35	9189.24
463.56	9480.05
463.77	9226.10
463.98	9305.97
464.18	9236.34
464.39	9494.38
464.60	9647.98
464.81	9443.18
465.02	9422.70
465.23	9662.32
465.43	9535.34
465.64	9774.95
465.85	9832.30
466.06	9660.27
466.27	9920.36
466.47	9944.94
466.68	10137.45
466.89	10057.57
467.10	10078.05
467.30	9846.63
467.51	10233.70
467.72	10426.21
467.93	10145.64
468.14	10415.97
468.34	10243.94
468.55	10559.33
468.76	10499.94
468.97	10415.97
469.17	10899.29
469.38	10764.12
469.59	10938.20
469.80	10884.95
470.01	10567.52
470.21	10735.45
470.42	11011.93
470.63	11212.63
470.84	11108.18
471.04	11339.60
471.25	11278.16
471.46	11460.43
471.67	11657.04
471.87	11300.69
472.08	11411.28
472.29	11591.50
472.50	11378.51
472.70	11779.92
472.91	11675.47
473.12	11917.13
473.33	12025.67
473.53	12177.22
473.74	12015.43
473.95	12277.57
474.16	12635.97
474.36	12371.78
474.57	12562.24
474.78	12629.82
474.99	12611.39
475.19	12572.48
475.40	12891.96
475.61	13002.55
475.81	13090.62
476.02	13227.83
476.23	12713.79
476.44	13354.80
476.64	13469.49
476.85	13422.39
477.06	13545.27
477.27	13791.02
477.47	13651.76
477.68	13643.57
477.89	13887.28
478.09	13993.77
478.30	13782.83
478.51	13928.24
478.71	14399.27
478.92	14198.57
479.13	14575.39
479.34	14761.76
479.54	14690.08
479.75	14815.01
479.96	14661.41
480.16	15009.56
480.37	14935.84
480.58	15013.66
480.78	15329.05
480.99	15140.63
481.20	15449.88
481.41	15265.56
481.61	15587.09
481.82	15593.23
482.03	15648.53
482.23	15630.10
482.44	15773.46
482.65	16135.95
482.85	16062.22
483.06	16176.91
483.27	16211.72
483.47	16236.30
483.68	16363.27
483.89	16426.76
484.09	16590.59
484.30	16752.38
484.51	16744.19
484.71	16807.68
484.92	16891.65
485.13	16836.35
485.33	17147.64
485.54	17020.67
485.75	17202.94
485.95	17618.68
486.16	17313.53
486.37	17430.26
486.57	17477.37
486.78	17829.62
486.98	17772.27
487.19	17831.66
487.40	17862.38
487.60	17938.16
487.81	18188.01
488.02	18245.35
488.22	18228.97
488.43	18384.62
488.64	18671.33
488.84	18534.12
489.05	18552.55
489.25	18708.19
489.46	18876.13
489.67	18847.46
489.87	18921.18
490.08	19068.64
490.29	18962.14
490.49	19597.01
490.70	19543.77
490.90	19441.37
491.11	19359.45
491.32	19533.53
491.52	19785.43
491.73	19953.36
491.94	19908.30
492.14	19924.69
492.35	19644.12
492.55	20162.25
492.76	20283.08
492.97	20655.81
493.17	20295.37
493.38	20625.09
493.58	20829.89
493.79	20514.50
494.00	20704.96
494.20	20944.58
494.41	20956.86
494.61	21128.89
494.82	21139.13
495.02	20917.95
495.23	21180.09
495.44	21264.06
495.64	21423.80
495.85	21413.56
496.05	21604.02
496.26	21558.97
496.47	21782.20
496.67	21319.35
496.88	22054.58
497.08	21712.56
497.29	21921.46
497.49	22093.49
497.70	22095.53
497.91	22310.57
498.11	22224.56
498.32	22345.39
498.52	22562.47
498.73	22824.61
498.93	22589.10
499.14	22802.08
499.34	22714.02
499.55	22943.39
499.76	22757.03
499.96	22738.60
500.17	22822.56
500.37	23228.06
500.58	23039.65
500.78	23572.12
500.99	23199.39
501.19	23748.25
501.40	23410.33
501.60	22947.49
501.81	23738.01
502.02	23672.47
502.22	23574.17
502.43	23844.50
502.63	23942.80
502.84	24200.85
503.04	23608.98
503.25	23924.37
503.45	24268.43
503.66	24483.47
503.86	24032.91
504.07	24346.25
504.27	24293.01
504.48	24680.07
504.68	24768.13
504.89	25017.99
505.09	24671.88
505.30	24333.96
505.50	24829.57
505.71	24835.72
505.91	25007.75
506.12	25122.43
506.32	24993.41
506.53	24829.57
506.73	25253.50
506.94	25360.00
507.14	24862.34
507.35	25065.09
507.55	25446.01
507.76	25505.40
507.96	25341.57
508.17	25630.33
508.37	25615.99
508.58	25630.33
508.78	25962.10
508.99	25769.59
509.19	25915.00
509.40	25730.68
509.60	25824.89
509.81	25980.53
510.01	26033.78
510.22	26023.54
510.42	26074.74
510.63	25886.32
510.83	26279.54
511.04	26310.25
511.24	26582.63
511.44	26541.68
511.65	26510.96
511.85	26308.21
512.06	26494.57
512.26	26777.19
512.47	26693.22
512.67	26912.36
512.88	26867.30
513.08	26750.57
513.29	26623.59
513.49	26947.17
513.69	27121.25
513.90	26957.41
514.10	27022.95
514.31	27190.88
514.51	27426.40
514.72	27235.94
514.92	27289.18
515.13	27252.32
515.33	27283.04
515.53	27614.81
515.74	27375.20
515.94	27625.05
516.15	27584.09
516.35	27377.25
516.56	28057.17
516.76	27811.42
516.96	27934.29
517.17	28239.44
517.37	27909.72
517.58	28165.71
517.78	28192.34
517.99	28124.75
518.19	28493.39
518.39	28288.59
518.60	28425.81
518.80	28327.50
519.01	28663.37
519.21	28606.03
519.41	28927.56
519.62	28618.32
519.82	28802.63
520.03	28935.75
520.23	28696.14
520.43	28460.62
520.64	29292.10
520.84	29208.13
521.05	29126.21
521.25	29464.13
521.45	29546.05
521.66	29281.86
521.86	29300.29
522.07	29511.23
522.27	29554.24
522.47	29765.18
522.68	29843.00
522.88	29578.81
523.08	30289.46
523.29	30256.69
523.49	30031.41
523.70	30285.36
523.90	30225.97
524.10	30322.23
524.31	30930.47
524.51	30295.60
524.71	30869.03
524.92	30359.09
525.12	30930.47
525.33	31077.93
525.53	30907.94
525.73	31100.45
525.94	30895.66
526.14	31313.44
526.34	31204.90
526.55	31311.39
526.75	31286.82
526.95	31634.97
527.16	31622.69
527.36	31749.66
527.56	31878.68
527.77	31710.75
527.97	31761.95
528.17	32007.70
528.38	32241.17
528.58	31952.41
528.78	32269.84
528.99	32364.05
529.19	32708.11
529.39	32435.73
529.60	32968.20
529.80	32331.28
530.00	33035.78
530.21	32800.27
530.41	33256.96
530.61	32781.84
530.82	32898.57
531.02	33099.27
531.22	33377.79
531.43	33201.67
531.63	33682.94
531.83	33791.48
532.04	33889.79
532.24	33705.47
532.44	33924.60
532.64	34162.17
532.85	34434.55
533.05	33979.90
533.25	34215.41
533.46	34254.33
533.66	34285.04
533.86	34495.99
534.07	34678.25
534.27	34600.43
534.47	35087.85
534.67	35053.03
534.88	34702.83
535.08	34979.31
535.28	35282.41
535.49	35442.15
535.69	35857.88
535.89	35210.73
536.09	35628.51
536.30	35796.45
536.50	35788.25
536.70	35757.53
536.91	35925.47
537.11	36216.28
537.31	35997.15
537.51	35925.47
537.72	36306.39
537.92	36478.42
538.12	36783.57
538.32	36165.08
538.53	36881.87
538.73	36771.28
538.93	36478.42
539.13	36591.06
539.34	36935.12
539.54	36885.97
539.74	37043.66
539.94	37416.39
540.15	37060.04
540.35	37369.29
540.55	37082.57
540.75	37410.25
540.96	37305.80
541.16	37098.95
541.36	37883.33
541.56	37840.32
541.77	38223.29
541.97	37821.89
542.17	37868.99
542.37	38041.02
542.58	37967.29
542.78	38272.44
542.98	38276.54
543.18	38428.09
543.38	38475.19
543.59	38512.05
543.79	38247.86
543.99	38190.52
544.19	38708.66
544.40	38514.10
544.60	38895.02
544.80	38796.72
545.00	38948.27
545.20	39241.13
545.41	39101.87
545.61	39157.16
545.81	39323.05
546.01	39435.69
546.21	39521.70
546.42	39126.44
546.62	39536.04
546.82	39482.79
547.02	39384.49
547.22	39792.03
547.43	39339.43
547.63	39880.10
547.83	39679.39
548.03	39769.51
548.23	40070.56
548.44	39882.14
548.64	40021.41
548.84	40189.34
549.04	40002.97
549.24	40320.41
549.45	40148.38
549.65	40033.69
549.85	40394.14
550.05	40615.32
550.25	40365.46
550.45	40785.30
550.66	40553.88
550.86	40447.38
551.06	40828.30
551.26	40918.42
551.46	41057.68
551.66	40920.46
551.87	40721.81
552.07	41153.93
552.27	41168.27
552.47	40924.56
552.67	41518.47
552.87	41600.39
553.07	41125.26
553.28	41491.85
553.48	41399.69
553.68	41123.21
553.88	42009.98
554.08	41612.68
554.28	41201.04
554.48	41624.96
554.69	41590.15
554.89	41467.27
555.09	41616.77
555.29	41598.34
555.49	41907.58
555.69	41870.72
555.89	41647.49
556.10	42098.05
556.30	41317.77
556.50	42286.46
556.70	42139.00
556.90	42175.87
557.10	42044.80
557.30	41815.43
557.50	42227.07
557.70	42214.78
557.91	42407.29
558.11	42427.77
558.31	42405.24
558.51	42323.32
558.71	42315.13
558.91	42640.76
559.11	42206.59
559.31	42417.53
559.51	42419.58
559.72	42487.16
559.92	42825.07
560.12	42560.89
560.32	43029.87
560.52	42595.70
560.72	43105.65
560.92	42403.19
561.12	42726.77
561.32	43359.59
561.52	42962.29
561.72	43646.31
561.93	42851.70
562.13	42825.07
562.33	42685.81
562.53	43574.63
562.73	43103.60
562.93	42947.95
563.13	43263.34
563.33	42882.42
563.53	43132.27
563.73	42888.56
563.93	43464.04
564.13	43711.84
564.33	43738.47
564.53	43431.27
564.74	43787.62
564.94	43185.52
565.14	43631.97
565.34	43451.75
565.54	43674.98
565.74	43609.45
565.94	43982.18
566.14	43728.23
566.34	43740.52
566.54	43691.37
566.74	43717.99
566.94	44139.87
567.14	43906.40
567.34	43611.49
567.54	44324.19
567.74	43758.95
567.94	44066.14
568.14	44258.65
568.34	44590.42
568.54	44023.14
568.74	44576.09
568.94	44152.16
569.14	44148.06
569.34	44246.36
569.54	44412.25
569.75	44436.83
569.95	43959.65
570.15	44897.62
570.35	44496.22
570.55	44336.48
570.75	44481.88
570.95	44498.26
571.15	44739.93
571.35	44903.76
571.55	44713.30
571.75	44938.58
571.95	44860.76
572.15	44850.52
572.35	45129.04
572.55	44821.84
572.75	44967.25
572.95	44873.04
573.15	45356.36
573.35	44752.21
573.55	44852.56
573.75	45083.98
573.95	45483.34
574.15	45190.48
574.35	45049.17
574.55	45387.08
574.75	45405.52
574.95	45411.66
575.15	45563.21
575.34	45374.80
575.54	45620.55
575.74	45706.57
575.94	45413.71
576.14	45606.22
576.34	45696.33
576.54	45827.40
576.74	45946.18
576.94	45794.63
577.14	45997.38
577.34	46331.20
577.54	45700.42
577.74	45784.39
577.94	46095.68
578.14	46191.94
578.34	46277.95
578.54	45772.10
578.74	46036.29
578.94	46589.24
579.14	45940.04
579.34	46384.44
579.54	46499.13
579.74	46581.05
579.94	46523.71
580.13	46835.00
580.33	46914.87
580.53	46796.09
580.73	46835.00
580.93	46441.79
581.13	46875.96
581.33	47383.85
581.53	47717.67
581.73	47529.26
581.93	46916.92
582.13	47371.57
582.33	47324.46
582.53	47107.38
582.73	47297.84
582.92	47224.11
583.12	47516.97
583.32	47373.61
583.52	47043.89
583.72	47703.34
583.92	47310.13
584.12	47578.41
584.32	48248.10
584.52	47951.14
584.72	47842.60
584.92	47932.71
585.11	48514.33
585.31	47863.08
585.51	48237.86
585.71	47748.39
585.91	48106.79
586.11	47873.32
586.31	48055.59
586.51	48092.45
586.71	47881.51
586.91	48643.35
587.10	48446.75
587.30	48268.58
587.50	48735.51
587.70	48440.60
587.90	48569.63
588.10	48850.20
588.30	48653.59
588.50	48866.58
588.69	48672.03
588.89	48821.53
589.09	49067.28
589.29	48977.17
589.49	49300.75
589.69	48543.00
589.89	49022.23
590.08	49116.43
590.28	49167.63
590.48	48672.03
590.68	49177.87
590.88	49124.63
591.08	49667.34
591.28	49423.63
591.47	49532.17
591.67	49050.90
591.87	49689.87
592.07	49542.41
592.27	49949.96
592.47	49501.45
592.67	49485.07
592.86	49577.23
593.06	49706.25
593.26	49532.17
593.46	50027.78
593.66	49984.77
593.86	49947.91
594.05	49921.29
594.25	50328.83
594.45	50115.84
594.65	50038.02
594.85	49554.70
595.05	50836.73
595.24	50412.80
595.44	50234.63
595.64	50275.58
595.84	50533.63
596.04	50306.30
596.23	50785.53
596.43	50904.31
596.63	50273.54
596.83	51033.33
597.03	50994.42
597.22	50937.08
597.42	50547.96
597.62	50992.37
597.82	50859.26
598.02	50750.71
598.21	51277.04
598.41	51082.48
598.61	51254.51
598.81	51014.90
599.01	51129.59
599.20	51176.69
599.40	51006.71
599.60	51576.04
599.80	51459.31
600.00	51565.81
600.19	51176.69
600.39	51614.96
600.59	51686.64
600.79	51746.03
600.98	51541.23
601.18	51905.77
601.38	51926.25
601.58	52016.36
601.78	52120.80
601.97	51950.82
602.17	52258.02
602.37	52057.32
602.57	52159.72
602.76	52139.24
602.96	52067.56
603.16	52047.08
603.36	52280.55
603.55	52659.42
603.75	52481.25
603.95	53116.12
604.15	52593.89
604.34	52593.89
604.54	52788.44
604.74	52751.58
604.94	52827.35
605.13	52475.10
605.33	52894.94
605.53	52798.68
605.73	53140.69
605.92	52927.70
606.12	53234.90
606.32	53458.13
606.52	52847.83
606.71	52909.27
606.91	53863.63
607.11	53568.72
607.30	53341.39
607.50	53206.23
607.70	53726.41
607.90	53296.34
608.09	53259.48
608.29	53777.61
608.49	53826.76
608.68	53449.94
608.88	53654.73
609.08	53802.19
609.28	53787.85
609.47	53630.16
609.67	53701.84
609.87	53867.72
610.06	54156.49
610.26	53777.61
610.46	54133.96
610.66	53497.04
610.85	54121.67
611.05	54174.92
611.25	54244.55
611.44	54049.99
611.64	53847.24
611.84	54125.77
612.03	54447.30
612.23	54289.60
612.43	54635.71
612.62	54205.64
612.82	54148.29
613.02	53589.20
613.21	54394.05
613.41	54258.88
613.61	54375.62
613.80	53818.57
614.00	54670.53
614.20	54615.23
614.39	54285.51
614.59	54547.65
614.79	54441.15
614.98	54410.43
615.18	54435.01
615.38	55028.92
615.57	54596.80
615.77	54590.66
615.97	54576.32
616.16	54117.57
616.36	54625.47
616.56	54992.06
616.75	54572.22
616.95	54228.16
617.15	54262.98
617.34	54566.08
617.54	54676.67
617.74	55321.78
617.93	54596.80
618.13	54248.64
618.32	54316.23
618.52	54713.53
618.72	54725.82
618.91	54801.60
619.11	54613.18
619.31	54779.07
619.50	54525.12
619.70	54170.82
619.90	54721.72
620.09	54379.71
620.29	54621.37
620.48	54940.86
620.68	54959.29
620.88	53712.08
621.07	54602.94
621.27	54754.49
621.46	54052.04
621.66	54635.71
621.86	54766.78
622.05	54447.30
622.25	54930.62
622.44	54525.12
622.64	54592.70
622.84	54707.39
623.03	54523.07
623.23	54662.33
623.42	54543.55
623.62	54746.30
623.82	54889.66
624.01	54697.15
624.21	54846.65
624.40	54973.63
624.60	54686.91
624.80	54617.28
624.99	54535.36
625.19	54301.89
625.38	54707.39
625.58	54480.06
625.77	54746.30
625.97	54817.98
626.17	53884.11
626.36	54545.60
626.56	54744.25
626.75	53925.07
626.95	54820.03
627.14	54424.77
627.34	54944.95
627.54	54424.77
627.73	54355.14
627.93	54430.91
628.12	53744.84
628.32	54768.83
628.51	54709.44
628.71	54924.47
628.90	54473.92
629.10	54459.58
629.30	54707.39
629.49	54740.16
629.69	54586.56
629.88	54723.77
630.08	54957.24
630.27	54781.12
630.47	54471.87
630.66	54777.02
630.86	54987.96
631.05	54555.84
631.25	54959.29
631.44	54396.10
631.64	54648.00
631.84	54820.03
632.03	55100.60
632.23	54492.35
632.42	55100.60
632.62	54949.05
632.81	54133.96
633.01	54662.33
633.20	54678.72
633.40	55153.85
633.59	55198.90
633.79	54547.65
633.98	55043.26
634.18	55313.59
634.37	54848.70
634.57	55256.24
634.76	55377.08
634.96	55233.72
635.15	55131.32
635.35	54906.04
635.54	54727.87
635.74	55057.59
635.93	54695.10
636.13	54983.86
636.32	55352.50
636.52	54709.44
636.71	54998.20
636.91	55409.84
637.10	54920.38
637.30	54996.15
637.49	54686.91
637.69	55215.29
637.88	55415.99
638.08	55157.94
638.27	55276.72
638.46	54959.29
638.66	54662.33
638.85	55067.83
639.05	55432.37
639.24	55227.57
639.44	55418.03
639.63	55325.88
639.83	55411.89
640.02	55424.18
640.22	55055.54
640.41	55510.19
640.61	54828.22
640.80	55301.30
640.99	55096.50
641.19	55854.25
641.38	55456.95
641.58	55162.04
641.77	55725.23
641.97	55057.59
642.16	55246.00
642.36	55649.45
642.55	55674.03
642.74	55213.24
642.94	55751.85
643.13	55735.47
643.33	55563.44
643.52	55538.86
643.72	55950.51
643.91	55284.92
644.10	55669.93
644.30	55680.17
644.49	55407.79
644.69	55657.65
644.88	55403.70
645.08	55510.19
645.27	55452.85
645.46	55428.27
645.66	56149.16
645.85	55399.60
646.05	55866.54
646.24	55751.85
646.43	55893.16
646.63	56433.83
646.82	56091.82
647.02	55649.45
647.21	56022.19
647.40	55547.06
647.60	56343.72
647.79	56151.21
647.99	56298.66
648.18	55731.37
648.37	56319.14
648.57	56333.48
648.76	55860.40
648.96	55872.68
649.15	56132.78
649.34	56218.79
649.54	55903.40
649.73	55956.65
649.92	56261.80
650.12	56419.49
650.31	56114.34
650.51	56462.50
650.70	56601.76
650.89	56302.76
651.09	56534.18
651.28	56149.16
651.47	56284.33
651.67	56038.57
651.86	56667.30
652.06	55528.62
652.25	56241.32
652.44	56046.76
652.64	56188.07
652.83	55698.61
653.02	56073.38
653.22	56157.35
653.41	56280.23
653.60	56091.82
653.80	56366.24
653.99	56272.04
654.18	55649.45
654.38	56226.98
654.57	56263.85
654.76	56112.30
654.96	56308.90
655.15	56353.96
655.34	56224.93
655.54	56048.81
655.73	56358.05
655.92	56333.48
656.12	56229.03
656.31	56435.87
656.50	56571.04
656.70	56341.67
656.89	56566.94
657.08	55909.55
657.28	56083.62
657.47	56214.69
657.66	56728.73
657.86	56013.99
658.05	56759.45
658.24	56304.80
658.43	56122.54
658.63	56439.97
658.82	56665.25
659.01	56655.01
659.21	56802.46
659.40	56589.47
659.59	56306.85
659.79	56908.96
659.98	56628.38
660.17	56652.96
660.36	56437.92
660.56	56562.85
660.75	56505.51
660.94	56339.62
661.14	56439.97
661.33	56693.92
661.52	56489.12
661.71	56796.32
661.91	56356.00
662.10	55993.51
662.29	56761.50
662.49	56497.31
662.68	56777.89
662.87	56808.61
663.06	56677.54
663.26	56800.41
663.45	57017.50
663.64	56616.10
663.83	56609.95
664.03	56538.27
664.22	56544.42
664.41	56313.00
664.60	56308.90
664.80	56775.84
664.99	56824.99
665.18	56392.87
665.37	56460.45
665.57	56743.07
665.76	56636.58
665.95	56534.18
666.14	56564.90
666.34	56206.50
666.53	56276.13
666.72	56620.19
666.91	56474.79
667.11	56093.86
667.30	56636.58
667.49	56247.46
667.68	56239.27
667.87	56226.98
668.07	56628.38
668.26	56575.14
668.45	56829.08
668.64	56519.84
668.84	57021.59
669.03	56677.54
669.22	56743.07
669.41	56538.27
669.60	56024.23
669.80	56575.14
669.99	56509.60
670.18	56300.71
670.37	56530.08
670.57	56691.87
670.76	56609.95
670.95	56571.04
671.14	56478.88
671.33	56296.61
671.53	56712.35
671.72	56689.82
671.91	56538.27
672.10	56169.64
672.29	56556.70
672.48	56554.66
672.68	56595.62
672.87	55731.37
673.06	56255.65
673.25	55966.89
673.44	55915.69
673.64	56136.87
673.83	56439.97
674.02	56272.04
674.21	56140.97
674.40	56405.16
674.59	56038.57
674.79	56542.37
674.98	55997.61
675.17	56478.88
675.36	56220.84
675.55	56378.53
675.74	56171.69
675.94	56194.21
676.13	56448.16
676.32	56673.44
676.51	56433.83
676.70	56046.76
676.89	56054.95
677.08	56310.95
677.28	55827.63
677.47	56468.64
677.66	56779.93
677.85	56089.77
678.04	56112.30
678.23	56458.40
678.42	55954.60
678.62	55923.88
678.81	56278.18
679.00	56384.68
679.19	56829.08
679.38	56681.63
679.57	56159.40
679.76	56120.49
679.96	56286.37
680.15	56038.57
680.34	56073.38
680.53	56046.76
680.72	56200.36
680.91	56069.29
681.10	55915.69
681.29	56048.81
681.48	55833.77
681.68	56186.02
681.87	55747.76
682.06	55631.02
682.25	55246.00
682.44	55391.41
682.63	55635.12
682.82	55567.54
683.01	55887.02
683.20	55047.35
683.39	55786.67
683.59	55813.29
683.78	55319.73
683.97	55200.95
684.16	55682.22
684.35	55323.83
684.54	55737.52
684.73	55301.30
684.92	55391.41
685.11	55147.70
685.30	55467.19
685.49	55981.23
685.69	55620.78
685.88	55549.10
686.07	55241.91
686.26	55428.27
686.45	55749.81
686.64	55563.44
686.83	55049.40
687.02	55596.21
687.21	55870.64
687.40	55278.77
687.59	55370.93
687.78	55213.24
687.97	55538.86
688.16	55266.48
688.35	55139.51
688.54	55006.39
688.74	54723.77
688.93	54965.43
689.12	54899.90
689.31	55243.96
689.50	55452.85
689.69	55082.17
689.88	54625.47
690.07	55024.82
690.26	55276.72
690.45	54975.67
690.64	55073.98
690.83	54879.42
691.02	54756.54
691.21	55123.13
691.40	54453.44
691.59	55102.65
691.78	54850.75
691.97	54922.43
692.16	55049.40
692.35	55413.94
692.54	54682.81
692.73	55350.45
692.92	54842.56
693.11	54592.70
693.30	54791.36
693.49	54715.58
693.68	54527.17
693.87	54598.85
694.06	54609.09
694.25	54688.96
694.44	54686.91
694.63	54836.41
694.82	54623.42
695.01	54783.16
695.20	54588.61
695.39	54336.71
695.58	54449.35
695.77	54156.49
695.96	54045.90
696.15	54590.66
696.34	53875.91
696.53	54607.04
696.72	54383.81
696.91	54482.11
697.10	53968.07
697.29	54056.14
697.48	54842.56
697.67	54082.76
697.86	54138.05
698.05	54168.77
698.24	54346.95
698.43	53853.39
698.62	53591.25
698.81	53605.58
699.00	53927.11
699.19	53540.05
699.38	53636.30
699.57	53740.75
699.76	54457.54
699.95	53353.68
700.14	53703.88
700.32	53601.49
700.51	53730.51
700.70	53712.08
700.89	53875.91
701.08	53587.15
701.27	53456.08
701.46	54117.57
701.65	53048.53
701.84	53513.42
702.03	53269.72
702.22	53298.39
702.41	53314.77
702.60	53679.31
702.79	53499.09
702.98	53275.86
703.17	53454.03
703.35	53036.25
703.54	53351.63
703.73	53572.81
703.92	53527.76
704.11	53490.90
704.30	52942.04
704.49	53345.49
704.68	52892.89
704.87	53437.65
705.06	52700.38
705.25	52743.39
705.43	52532.45
705.62	52946.14
705.81	52780.25
706.00	53032.15
706.19	52675.80
706.38	52868.31
706.57	52925.66
706.76	52221.16
706.95	52858.07
707.14	52747.48
707.32	52458.72
707.51	52196.58
707.70	52497.63
707.89	52645.08
708.08	52360.42
708.27	52690.14
708.46	52739.29
708.65	52221.16
708.84	52452.58
709.02	52438.24
709.21	52487.39
709.40	52376.80
709.59	52536.54
709.78	52110.56
709.97	52366.56
710.16	52079.85
710.34	52311.27
710.53	51969.26
710.72	52030.69
710.91	52126.95
711.10	52514.01
711.29	52395.23
711.48	52036.84
711.66	52008.17
711.85	51715.31
712.04	51926.25
712.23	51651.82
712.42	51586.28
712.61	51885.29
712.80	51655.92
712.98	51723.50
713.17	51877.10
713.36	51789.03
713.55	51922.15
713.74	51768.55
713.93	51676.40
714.11	51651.82
714.30	50941.17
714.49	51188.98
714.68	51303.67
714.87	51504.37
715.06	52190.44
715.24	51254.51
715.43	51633.39
715.62	50969.85
715.81	51217.65
716.00	51578.09
716.18	51272.95
716.37	51246.32
716.56	50914.55
716.75	51313.90
716.94	51545.33
717.12	51031.29
717.31	51242.23
717.50	50806.01
717.69	50648.32
717.88	50978.04
718.06	51019.00
718.25	51111.16
718.44	50619.64
718.63	50382.08
718.82	50502.91
719.00	50599.16
719.19	50539.77
719.38	50357.50
719.57	50222.34
719.76	50074.88
719.94	50095.36
720.13	50359.55
720.32	50230.53
720.51	50218.24
720.69	50320.64
720.88	50132.23
721.07	50158.85
721.26	49558.80
721.44	50011.40
721.63	49427.73
721.82	49313.04
722.01	49503.50
722.20	50363.65
722.38	49714.44
722.57	49392.91
722.76	49569.04
722.95	49317.14
723.13	49323.28
723.32	49218.83
723.51	48911.64
723.70	48987.41
723.88	49321.23
724.07	48862.49
724.26	49165.59
724.44	48370.97
724.63	49173.78
724.82	48602.39
725.01	49026.32
725.19	49044.76
725.38	48903.45
725.57	48645.40
725.76	48821.53
725.94	48682.27
726.13	48631.07
726.32	48493.85
726.51	48233.76
726.69	49210.64
726.88	48864.53
727.07	48833.81
727.25	48626.97
727.44	48481.56
727.63	48428.32
727.82	48848.15
728.00	48874.77
728.19	48190.75
728.38	48758.04
728.56	48088.35
728.75	48661.79
728.94	48250.14
729.12	48354.59
729.31	48381.21
729.50	48256.29
729.69	48452.89
729.87	48547.10
730.06	48635.16
730.25	48995.60
730.43	49089.81
730.62	48485.66
730.81	48641.31
730.99	48454.94
731.18	48233.76
731.37	48373.02
731.55	48600.35
731.74	48596.25
731.93	48657.69
732.11	48293.15
732.30	48674.07
732.49	48100.64
732.67	48110.88
732.86	48131.36
733.05	48108.83
733.23	48356.64
733.42	48092.45
733.61	48035.11
733.79	48413.98
733.98	48430.36
734.17	48078.11
734.35	48137.51
734.54	48100.64
734.73	48538.91
734.91	48104.74
735.10	47793.45
735.29	48586.01
735.47	47732.01
735.66	47934.76
735.84	48284.96
736.03	48039.20
736.22	48504.09
736.40	47863.08
736.59	47912.23
736.78	47938.85
736.96	47564.07
737.15	48305.44
737.33	47635.75
737.52	47924.52
737.71	47777.06
737.89	47570.22
738.08	47527.21
738.27	47791.40
738.45	47988.00
738.64	47541.55
738.82	47527.21
739.01	47691.05
739.20	47125.81
739.38	47551.79
739.57	47760.68
739.75	47725.86
739.94	47357.23
740.13	47355.18
740.31	46841.14
740.50	47238.45
740.68	47322.41
740.87	47482.16
741.06	47088.95
741.24	47045.94
741.43	46910.77
741.61	47402.28
741.80	47179.06
741.99	47142.19
742.17	46662.97
742.36	46869.81
742.54	47099.19
742.73	47029.55
742.91	47326.51
743.10	47158.58
743.29	47486.25
743.47	46953.78
743.66	46904.63
743.84	47062.32
744.03	46859.57
744.21	46662.97
744.40	47209.78
744.59	47002.93
744.77	46941.49
744.96	46851.38
745.14	46773.56
745.33	46579.00
745.51	47047.99
745.70	46597.43
745.88	46535.99
746.07	46898.48
746.26	46595.38
746.44	46488.89
746.63	46515.51
746.81	46454.08
747.00	46691.64
747.18	46482.75
747.37	46677.30
747.55	46054.72
747.74	46716.22
747.92	46046.53
748.11	46306.62
748.29	45933.89
748.48	46130.50
748.66	45903.17
748.85	46292.29
749.03	46519.61
749.22	46269.76
749.41	45944.13
749.59	45911.36
749.78	46081.34
749.96	45798.73
750.15	46134.59
750.33	46015.81
750.52	45776.20
750.70	46011.71
750.89	45751.62
751.07	45528.39
751.26	46263.61
751.44	45522.25
751.63	45829.44
751.81	45221.20
752.00	45516.11
752.18	45428.04
752.37	45450.57
752.55	45194.57
752.74	45405.52
752.92	45432.14
753.10	45065.55
753.29	45106.51
753.47	45512.01
753.66	45278.54
753.84	45696.33
754.03	44969.30
754.21	44848.47
754.40	45006.16
754.58	45049.17
754.77	44907.86
754.95	44762.45
755.14	44854.61
755.32	44905.81
755.51	44565.85
755.69	44668.25
755.88	44547.42
756.06	44817.75
756.24	44766.55
756.43	44627.29
756.61	44619.10
756.80	44739.93
756.98	44506.46
757.17	44637.53
757.35	44776.79
757.54	44803.41
757.72	44807.51
757.90	44025.18
758.09	44211.55
758.27	44576.09
758.46	44143.97
758.64	44209.50
758.83	44440.92
759.01	44604.76
759.19	44109.15
759.38	44176.73
759.56	44490.07
759.75	44045.66
759.93	44000.61
760.12	44127.58
760.30	44391.77
760.48	43480.42
760.67	43490.66
760.85	43287.92
761.04	44004.70
761.22	43965.79
761.40	43808.10
761.59	43558.25
761.77	43621.73
761.96	43701.61
762.14	43685.22
762.32	43505.00
762.51	43425.13
762.69	43300.20
762.88	43873.63
763.06	43253.10
763.24	43210.09
763.43	43621.73
763.61	42894.71
763.80	43185.52
763.98	42704.24
764.16	43343.21
764.35	43124.08
764.53	42906.99
764.72	42874.23
764.90	42861.94
765.08	43189.61
765.27	43107.69
765.45	42753.40
765.63	42155.39
765.82	43132.27
766.00	42808.69
766.18	42833.27
766.37	42827.12
766.55	42526.07
766.74	42648.95
766.92	42282.36
767.10	42433.91
767.29	42413.43
767.47	42079.61
767.65	41919.87
767.84	41897.34
768.02	42055.04
768.20	41856.39
768.39	42153.34
768.57	42308.99
768.75	42030.46
768.94	42206.59
769.12	42139.00
769.30	41680.26
769.49	41452.94
769.67	41741.70
769.85	41362.82
770.04	41442.70
770.22	41338.25
770.40	41205.13
770.59	41604.49
770.77	41426.31
770.95	41420.17
771.14	41082.25
771.32	41049.49
771.50	41305.48
771.69	41067.92
771.87	41463.18
772.05	41209.23
772.24	41145.74
772.42	41080.21
772.60	40904.08
772.78	41344.39
772.97	40981.90
773.15	41260.43
773.33	40381.85
773.52	40801.68
773.70	40592.79
773.88	41016.72
774.07	40832.40
774.25	40775.06
774.43	41205.13
774.61	40680.85
774.80	41231.75
774.98	40582.55
775.16	40945.04
775.34	40809.87
775.53	40643.99
775.71	41110.92
775.89	40465.81
776.08	40910.22
776.26	41088.40
776.44	40824.21
776.62	40746.39
776.81	40922.51
776.99	41115.02
777.17	40916.37
777.35	41194.89
777.54	41336.20
777.72	40506.77
777.90	40748.43
778.08	41051.53
778.27	41190.80
778.45	41065.87
778.63	41452.94
778.81	41184.65
779.00	41713.03
779.18	41104.78
779.36	41862.53
779.54	41299.34
779.73	41459.08
779.91	41397.64
780.09	41125.26
780.27	41272.71
780.46	41553.29
780.64	41555.33
780.82	41600.39
781.00	41559.43
781.19	41792.90
781.37	41604.49
781.55	41657.73
781.73	42179.96
781.91	41751.94
782.10	41330.06
782.28	41534.85
782.46	41538.95
782.64	41954.69
782.82	41416.07
783.01	42089.85
783.19	41878.91
783.37	41913.73
783.55	42028.41
783.74	42335.61
783.92	41203.08
784.10	42681.72
784.28	42075.52
784.46	41391.50
784.64	41504.13
784.83	41774.47
785.01	41733.51
785.19	41702.79
785.37	41880.96
785.55	41753.99
785.74	41315.72
785.92	41665.92
786.10	41932.16
786.28	41606.53
786.46	41432.46
786.64	41383.30
786.83	41852.29
787.01	41485.70
787.19	41538.95
787.37	41950.59
787.55	41786.75
787.74	41035.15
787.92	41495.94
788.10	41155.98
788.28	40973.71
788.46	41190.80
788.64	40666.52
788.82	41319.82
789.01	41211.28
789.19	41166.22
789.37	40797.59
789.55	40664.47
789.73	40541.59
789.91	40818.07
790.09	40818.07
790.28	40545.69
790.46	40336.79
790.64	40678.80
790.82	40502.68
791.00	39912.86
791.18	40029.60
791.36	40301.98
791.55	40408.47
791.73	40156.57
791.91	39998.88
792.09	40111.52
792.27	39955.87
792.45	39941.53
792.63	39912.86
792.81	39452.07
793.00	39554.47
793.18	39151.02
793.36	39341.48
793.54	39040.43
793.72	39622.05
793.90	39062.96
794.08	39400.87
794.26	38868.40
794.44	38596.02
794.62	38649.27
794.81	38827.44
794.99	39116.20
795.17	38596.02
795.35	38323.64
795.53	38796.72
795.71	38493.62
795.89	38225.34
796.07	38104.51
796.25	38444.47
796.43	38297.02
796.61	37748.16
796.80	37664.19
796.98	37899.71
797.16	37531.08
797.34	37866.94
797.52	37569.99
797.70	37840.32
797.88	37699.01
798.06	37041.61
798.24	37164.49
798.42	37533.12
798.60	37318.09
798.78	36906.44
798.96	36867.53
799.14	36773.33
799.32	37031.37
799.51	36863.44
799.69	36869.58
799.87	36715.98
800.05	36203.99
800.23	36720.08
800.41	36529.62
800.59	36158.94
800.77	36470.23
800.95	36027.87
801.13	36160.98
801.31	35800.54
801.49	36423.12
801.67	35941.85
801.85	35718.62
802.03	35556.83
802.21	35403.24
802.39	35657.18
802.57	35540.45
802.75	35395.04
802.93	35503.59
803.11	35073.51
803.29	35093.99
803.47	35354.08
803.65	35106.28
803.83	35022.31
804.01	34915.82
804.19	34854.38
804.37	34950.63
804.55	34526.71
804.73	34991.59
804.91	34342.39
805.09	34444.79
805.27	34080.25
805.45	34751.98
805.63	34670.06
805.81	34401.78
805.99	34274.80
806.17	34541.04
806.35	34188.79
806.53	33996.28
806.71	33832.44
806.89	33965.56
807.07	34086.39
807.25	33775.10
807.43	33371.65
807.61	33709.57
807.79	33441.28
807.97	33299.97
808.15	33441.28
808.33	33345.03
808.51	33220.10
808.69	33201.67
808.87	32921.10
809.05	32943.63
809.23	32747.02
809.41	32980.49
809.59	32863.75
809.77	32753.16
809.95	32542.22
810.13	32892.43
810.31	32419.35
810.49	32804.36
810.67	32525.84
810.84	32972.30
811.02	32321.04
811.20	32183.83
811.38	32339.47
811.56	31954.46
811.74	32022.04
811.92	31956.50
812.10	32001.56
812.28	31979.03
812.46	31796.76
812.64	31725.08
812.82	31426.08
813.00	31677.98
813.18	31927.83
813.36	31229.48
813.53	31321.63
813.71	31508.00
813.89	30979.62
814.07	31258.15
814.25	31209.00
814.43	31518.24
814.61	30953.00
814.79	30754.35
814.97	31114.79
815.15	31276.58
815.33	30672.43
815.50	30625.32
815.68	30674.48
815.86	30600.75
816.04	30457.39
816.22	30582.32
816.40	30418.48
816.58	30727.72
816.76	30250.55
816.94	30266.93
817.11	30443.06
817.29	30432.82
817.47	30244.40
817.65	30139.96
817.83	29976.12
818.01	30060.09
818.19	29613.63
818.37	30166.58
818.54	29843.00
818.72	29943.35
818.90	30215.73
819.08	29914.68
819.26	29509.18
819.44	29781.56
819.62	29769.27
819.80	29437.50
819.97	29775.42
820.15	29472.32
820.33	29279.81
820.51	29484.61
820.69	29029.96
820.87	29490.75
821.05	29640.25
821.22	29294.14
821.40	28933.70
821.58	29101.64
821.76	28958.28
821.94	28866.12
822.12	28896.84
822.29	29120.07
822.47	28980.81
822.65	29072.96
822.83	28970.57
823.01	28806.73
823.19	28929.61
823.36	28649.03
823.54	28454.48
823.72	28603.98
823.90	28618.32
824.08	28806.73
824.25	28513.87
824.43	28202.58
824.61	28714.57
824.79	28417.61
824.97	28386.89
825.15	28313.17
825.32	28317.26
825.50	28053.08
825.68	28051.03
825.86	27809.37
826.04	28390.99
826.21	28147.28
826.39	27842.14
826.57	27872.85
826.75	27696.73
826.93	27719.26
827.10	27756.12
827.28	27590.24
827.46	28110.42
827.64	27659.87
827.81	27688.54
827.99	27475.55
828.17	27618.91
828.35	27694.68
828.53	27545.18
828.70	27534.94
828.88	27467.36
829.06	27598.43
829.24	27799.13
829.41	27022.95
829.59	27496.03
829.77	27395.68
829.95	27125.35
830.12	26840.68
830.30	27090.53
830.48	27070.05
830.66	27115.11
830.84	27233.89
831.01	26791.53
831.19	27145.83
831.37	27156.07
831.55	26400.37
831.72	26707.56
831.90	26492.52
832.08	26670.70
832.25	26676.84
832.43	26734.18
832.61	26519.15
832.79	26349.17
832.96	26596.97
833.14	26500.72
833.32	26687.08
833.50	26627.69
833.67	26531.44
833.85	25976.44
834.03	26205.81
834.20	26388.08
834.38	26521.20
834.56	26476.14
834.74	26304.11
834.91	26246.77
835.09	26222.19
835.27	25874.04
835.44	26089.07
835.62	25566.84
835.80	25761.40
835.98	26019.44
836.15	26211.95
836.33	25933.43
836.51	25738.87
836.68	25497.21
836.86	25605.75
837.04	25765.49
837.21	25575.03
837.39	25792.12
837.57	25798.26
837.75	25495.16
837.92	25464.44
838.10	25536.12
838.28	25237.12
838.45	25337.47
838.63	25265.79
838.81	25255.55
838.98	25325.18
839.16	25058.95
839.34	25048.71
839.51	25390.72
839.69	24755.85
839.87	25163.39
840.04	25020.03
840.22	25142.91
840.40	24712.84
840.57	24718.98
840.75	25116.29
840.93	24735.37
841.10	24706.70
841.28	25081.47
841.46	24917.64
841.63	25058.95
841.81	24899.20
841.98	24585.86
842.16	24706.70
842.34	24852.10
842.51	24364.68
842.69	24807.05
842.87	24514.19
843.04	24499.85
843.22	24536.71
843.40	24319.63
843.57	24532.62
843.75	24526.47
843.92	24268.43
844.10	24323.72
844.28	24446.60
844.45	24594.06
844.63	24446.60
844.81	24178.32
844.98	24364.68
845.16	24274.57
845.33	24325.77
845.51	23903.89
845.69	24125.07
845.86	24045.20
846.04	23953.04
846.21	24034.96
846.39	24000.15
846.57	23916.18
846.74	23959.19
846.92	23637.66
847.09	23570.07
847.27	23645.85
847.45	23776.92
847.62	23897.75
847.80	23678.61
847.97	23707.29
848.15	23682.71
848.32	23375.52
848.50	23670.42
848.68	23322.27
848.85	23678.61
849.03	23215.77
849.20	23402.14
849.38	23668.37
849.56	23656.09
849.73	23373.47
849.91	23314.08
850.08	23379.61
850.26	22924.96
850.43	23213.73
850.61	23121.57
850.78	23127.71
850.96	23058.08
851.14	22775.46
851.31	22992.55
851.49	22822.56
851.66	23174.81
851.84	22849.19
852.01	22910.63
852.19	22847.14
852.36	22742.69
852.54	22539.94
852.71	22906.53
852.89	22754.98
853.07	22730.41
853.24	22879.91
853.42	22785.70
853.59	22900.39
853.77	22810.28
853.94	22691.49
854.12	23082.66
854.29	22658.73
854.47	22613.67
854.64	22527.66
854.82	22578.86
854.99	22890.15
855.17	22439.59
855.34	22324.91
855.52	22501.03
855.69	22314.67
855.87	22435.50
856.04	22376.11
856.22	22331.05
856.39	22105.77
856.57	22376.11
856.74	21853.87
856.92	22372.01
857.09	21958.32
857.27	22138.54
857.44	22277.80
857.62	22212.27
857.79	22109.87
857.97	22113.97
858.14	21878.45
858.32	21853.87
858.49	21733.04
858.67	21819.06
858.84	21845.68
859.02	21892.79
859.19	21960.37
859.37	21632.69
859.54	21624.50
859.72	21964.46
859.89	21681.85
860.06	21976.75
860.24	21583.54
860.41	21513.91
860.59	21616.31
860.76	21657.27
860.94	21536.44
861.11	21563.06
861.29	21540.54
861.46	21325.50
861.64	21251.77
861.81	21231.29
861.98	21030.59
862.16	21233.34
862.33	20969.15
862.51	21073.60
862.68	21470.90
862.86	20981.44
863.03	21071.55
863.21	20956.86
863.38	21212.86
863.55	20895.43
863.73	21098.17
863.90	20907.71
864.08	20795.07
864.25	20926.14
864.43	20606.66
864.60	20661.96
864.77	20782.79
864.95	20819.65
865.12	20342.47
865.30	20825.79
865.47	20704.96
865.64	20809.41
865.82	20733.64
865.99	20735.68
866.17	20649.67
866.34	20584.13
866.51	20539.08
866.69	20682.44
866.86	20530.89
867.04	20362.95
867.21	20586.18
867.38	20121.29
867.56	20133.58
867.73	20100.81
867.91	20059.85
868.08	20164.30
868.25	20227.79
868.43	20137.68
868.60	20102.86
868.78	19889.87
868.95	20446.92
869.12	20330.19
869.30	19887.82
869.47	20063.95
869.64	19957.46
869.82	19920.59
869.99	19517.14
870.16	20141.77
870.34	19754.71
870.51	19910.35
870.69	19408.60
870.86	19883.73
871.03	19982.03
871.21	19578.58
871.38	19863.25
871.55	19736.27
871.73	19474.13
871.90	19459.80
872.07	19257.05
872.25	19150.56
872.42	19357.40
872.59	19228.38
872.77	19377.88
872.94	19209.95
873.11	19111.64
873.29	19396.31
873.46	19035.87
873.63	19136.22
873.81	19203.80
873.98	18939.62
874.15	19009.25
874.33	18716.39
874.50	18939.62
874.67	18818.78
874.85	18923.23
875.02	18884.32
875.19	18624.23
875.37	18788.07
875.54	18517.73
875.71	18693.86
875.88	18478.82
876.06	18456.29
876.23	18794.21
876.40	18263.79
876.58	18271.98
876.75	18259.69
876.92	18368.23
877.10	18423.53
877.27	18284.26
877.44	18091.76
877.61	18312.94
877.79	18220.78
877.96	17895.15
878.13	18212.59
878.31	18048.75
878.48	17987.31
878.65	17893.10
878.82	17651.44
879.00	17925.87
879.17	17927.92
879.34	17856.24
879.51	17641.20
879.69	17583.86
879.86	17825.52
880.03	17516.28
880.21	17661.68
880.38	17661.68
880.55	17704.69
880.72	17616.63
880.90	17596.15
881.07	17481.46
881.24	17573.62
881.41	17377.01
881.59	17362.68
881.76	17278.71
881.93	17409.78
882.10	16899.84
882.28	17520.37
882.45	17387.25
882.62	17172.22
882.79	17231.61
882.96	17221.37
883.14	17164.03
883.31	17366.78
883.48	17018.62
883.65	17106.68
883.83	17258.23
884.00	16992.00
884.17	17200.89
884.34	17129.21
884.51	16844.54
884.69	17057.53
884.86	16905.98
885.03	16942.85
885.20	16715.52
885.38	16834.30
885.55	16879.36
885.72	16842.50
885.89	16787.20
886.06	16897.79
886.24	16656.13
886.41	16514.82
886.58	16805.63
886.75	16867.07
886.92	16441.09
887.10	16795.39
887.27	16809.73
887.44	16758.53
887.61	16854.78
887.78	16719.62
887.95	16654.08
888.13	16461.57
888.30	16611.07
888.47	16465.67
888.64	16520.96
888.81	16158.47
888.99	16353.03
889.16	16381.70
889.33	16281.35
889.50	16113.42
889.67	16158.47
889.84	16191.24
890.01	16113.42
890.19	16289.54
890.36	16066.31
890.53	16150.28
890.70	16068.36
890.87	15972.11
891.04	16144.14
891.22	15953.68
891.39	16236.30
891.56	15814.41
891.73	16051.98
891.90	15855.37
892.07	15740.69
892.24	15791.89
892.42	15783.70
892.59	15660.82
892.76	15865.61
892.93	15705.87
893.10	15785.74
893.27	15904.53
893.44	15822.61
893.61	15605.52
893.79	15679.25
893.96	15609.62
894.13	15886.09
894.30	15681.30
894.47	15673.10
894.64	15820.56
894.81	15574.80
894.98	15697.68
895.15	15652.63
895.33	15367.96
895.50	15490.84
895.67	15666.96
895.84	15609.62
896.01	15447.83
896.18	15437.59
896.35	15591.19
896.52	15705.87
896.69	15408.92
896.86	15443.73
897.04	15503.12
897.21	15333.14
897.38	15478.55
897.55	15347.48
897.72	15431.44
897.89	15511.32
898.06	15560.47
898.23	15476.50
898.40	15480.60
898.57	15105.82
898.74	15689.49
898.91	15578.90
899.08	15546.13
899.26	15320.85
899.43	15484.69
899.60	15294.23
899.77	15572.75
899.94	15367.96
900.11	15195.93
900.28	15413.01
900.45	15390.49
900.62	15460.12
900.79	15417.11
900.96	15175.45
901.13	15253.27
901.30	15208.22
901.47	15138.58
901.64	15324.95
901.81	15453.97
901.98	15138.58
902.15	15470.36
902.32	15126.30
902.49	15269.66
902.66	15312.66
902.83	15392.53
903.01	15077.15
903.18	15232.79
903.35	15415.06
903.52	15150.87
903.69	15435.54
903.86	15507.22
904.03	15449.88
904.20	15458.07
904.37	15603.47
904.54	15253.27
904.71	15294.23
904.88	15300.37
905.05	15259.42
905.22	15361.81
905.39	15251.22
905.56	15144.73
905.73	15044.38
905.90	15245.08
906.07	15087.39
906.24	15316.76
906.41	15318.81
906.58	15306.52
906.75	15296.28
906.92	15091.48
907.09	15056.67
907.26	15294.23
907.43	15238.94
907.60	15263.51
907.77	15460.12
907.93	15429.40
908.10	15007.52
908.27	15144.73
908.44	15183.64
908.61	15146.78
908.78	15124.25
908.95	14993.18
909.12	15130.39
909.29	14997.28
909.46	15136.54
909.63	14939.93
909.80	15243.03
909.97	15116.06
910.14	15001.37
910.31	14989.08
910.48	15177.50
910.65	15007.52
910.82	14724.90
910.99	14718.75
911.16	14595.87
911.33	14876.44
911.50	14841.63
911.66	14466.85
911.83	14796.57
912.00	14964.51
912.17	14704.42
912.34	14751.52
912.51	14708.51
912.68	14774.05
912.85	14780.19
913.02	14688.03
913.19	14776.09
913.36	14618.40
913.53	14716.70
913.70	14657.31
913.86	14591.78
914.03	14599.97
914.20	14454.56
914.37	14550.82
914.54	14429.99
914.71	14393.12
914.88	14427.94
915.05	14317.35
915.22	14239.53
915.39	14432.04
915.55	14323.49
915.72	14239.53
915.89	14106.41
916.06	14118.70
916.23	14257.96
916.40	14165.80
916.57	13872.94
916.74	13856.56
916.91	14016.30
917.07	13698.86
917.24	13686.58
917.41	13934.38
917.58	13754.16
917.75	13823.79
917.92	13651.76
918.09	13711.15
918.26	13645.62
918.42	13657.90
918.59	13510.45
918.76	13455.15
918.93	13551.41
919.10	13274.93
919.27	13385.52
919.44	13485.87
919.60	13301.56
919.77	13217.59
919.94	13174.58
920.11	12967.74
920.28	13356.85
920.45	13125.43
920.61	13268.79
920.78	13170.49
920.95	13129.53
921.12	12977.98
921.29	12799.80
921.46	12881.72
921.62	12775.23
921.79	12816.19
921.96	12912.44
922.13	12724.03
922.30	12863.29
922.47	12676.93
922.63	12584.77
922.80	12799.80
922.97	12576.58
923.14	12261.19
923.31	12580.67
923.47	12369.73
923.64	12611.39
923.81	12339.01
923.98	12236.61
924.15	12070.73
924.32	12263.24
924.48	12150.60
924.65	12312.39
924.82	12058.44
924.99	12158.79
925.15	11714.38
925.32	12142.41
925.49	11794.25
925.66	11863.88
925.83	11724.62
925.99	11712.33
926.16	11790.16
926.33	11786.06
926.50	11685.71
926.67	11675.47
926.83	11691.85
927.00	11476.82
927.17	11523.92
927.34	11358.03
927.50	11552.59
927.67	11673.42
927.84	11411.28
928.01	11370.32
928.17	11192.15
928.34	10913.63
928.51	11161.43
928.68	10862.43
928.84	11003.74
929.01	10770.27
929.18	10925.91
929.35	10983.26
929.51	10790.75
929.68	10608.48
929.85	10696.54
930.02	10729.31
930.18	10618.72
930.35	10600.29
930.52	10544.99
930.69	10463.07
930.85	10477.41
931.02	10411.87
931.19	10178.40
931.36	10436.45
931.52	10342.24
931.69	10438.50
931.86	10264.42
932.02	10415.97
932.19	9973.61
932.36	10059.62
932.53	10067.81
932.69	9959.27
932.86	9934.70
933.03	9920.36
933.19	9729.90
933.36	9711.47
933.53	9670.51
933.70	9721.71
933.86	9686.89
934.03	9492.34
934.20	9510.77
934.36	9609.07
934.53	9234.29
934.70	9301.87
934.86	9303.92
935.03	9125.75
935.20	9234.29
935.36	9113.46
935.53	8935.29
935.70	8896.38
935.86	8865.66
936.03	8816.51
936.20	8525.69
936.36	8705.92
936.53	8488.83
936.70	8411.01
936.86	8531.84
937.03	8382.34
937.20	8253.31
937.36	8384.38
937.53	7995.27
937.70	8107.91
937.86	7958.41
938.03	7950.21
938.20	7839.62
938.36	7786.38
938.53	7729.03
938.70	7557.00
938.86	7569.29
939.03	7452.56
939.20	7387.02
939.36	7229.33
939.53	7206.80
939.70	7329.68
939.86	7081.88
940.03	6891.41
940.19	6643.61
940.36	6854.55
940.53	6774.68
940.69	6623.13
940.86	6678.43
941.03	6475.68
941.19	6367.13
941.36	6442.91
941.52	6475.68
941.69	6264.74
941.86	6213.54
942.02	6143.91
942.19	6211.49
942.35	6074.28
942.52	6039.46
942.69	6035.36
942.85	5920.68
943.02	5918.63
943.18	5916.58
943.35	5961.64
943.52	5861.29
943.68	5777.32
943.85	5762.98
944.01	5605.29
944.18	5654.44
944.35	5593.00
944.51	5666.73
944.68	5425.07
944.84	5408.69
945.01	5541.80
945.17	5603.24
945.34	5420.97
945.51	5590.95
945.67	5408.69
945.84	5486.51
946.00	5277.62
946.17	5353.39
946.33	5367.73
946.50	5275.57
946.67	5386.16
946.83	5369.77
947.00	5375.92
947.16	5361.58
947.33	5345.20
947.49	5203.89
947.66	5425.07
947.82	5394.35
947.99	5355.44
948.16	5447.60
948.32	5222.32
948.49	5345.20
948.65	5388.21
948.82	5253.04
948.98	5314.48
949.15	5289.90
949.31	5312.43
949.48	5179.31
949.64	5285.81
949.81	5332.91
949.97	5294.00
950.14	5375.92
950.30	5228.46
950.47	5474.22
950.63	5455.79
950.80	5482.41
950.96	5271.47
951.13	5347.25
951.30	5240.75
951.46	5250.99
951.63	5478.32
951.79	5337.01
951.96	5494.70
952.12	5416.88
952.29	5406.64
952.45	5220.27
952.62	5371.82
952.78	5529.52
952.94	5506.99
953.11	5443.50
953.27	5365.68
953.44	5568.43
953.60	5476.27
953.77	5550.00
953.93	5406.64
954.10	5463.98
954.26	5494.70
954.43	5390.25
954.59	5490.60
954.76	5496.75
954.92	5365.68
955.09	5359.53
955.25	5324.72
955.42	5322.67
955.58	5556.14
955.75	5488.56
955.91	5394.35
956.07	5531.56
956.24	5404.59
956.40	5504.94
956.57	5560.24
956.73	5488.56
956.90	5576.62
957.06	5468.08
957.23	5511.08
957.39	5427.12
957.56	5410.73
957.72	5377.97
957.88	5416.88
958.05	5447.60
958.21	5480.36
958.38	5265.33
958.54	5601.19
958.71	5601.19
958.87	5363.63
959.03	5355.44
959.20	5488.56
959.36	5490.60
959.53	5345.20
959.69	5361.58
959.85	5402.54
960.02	5423.02
960.18	5384.11
960.35	5408.69
960.51	5474.22
960.68	5377.97
960.84	5388.21
961.00	5369.77
961.17	5427.12
961.33	5414.83
961.50	5412.78
961.66	5582.76
961.82	5425.07
961.99	5554.09
962.15	5433.26
962.31	5253.04
962.48	5425.07
962.64	5519.28
962.81	5531.56
962.97	5402.54
963.13	5298.10
963.30	5541.80
963.46	5203.89
963.62	5197.74
963.79	5306.29
963.95	5349.29
964.12	5285.81
964.28	5349.29
964.44	5312.43
964.61	5244.85
964.77	5265.33
964.93	5382.06
965.10	5347.25
965.26	5386.16
965.42	5304.24
965.59	5300.14
965.75	5296.05
965.92	5470.12
966.08	5384.11
966.24	5396.40
966.41	5236.66
966.57	5377.97
966.73	5220.27
966.90	5265.33
967.06	5248.94
967.22	5171.12
967.39	5183.41
967.55	5216.18
967.71	5201.84
967.88	5246.90
968.04	5218.22
968.20	5167.03
968.37	5152.69
968.53	5181.36
968.69	5304.24
968.85	5236.66
969.02	5140.40
969.18	5150.64
969.34	5103.54
969.51	5246.90
969.67	5207.98
969.83	5121.97
970.00	5271.47
970.16	5066.67
970.32	5148.59
970.48	5242.80
970.65	5107.63
970.81	5070.77
970.97	5015.48
971.14	4859.83
971.30	5107.63
971.46	4990.90
971.63	5105.59
971.79	5124.02
971.95	4923.32
972.11	5003.19
972.28	4974.52
972.44	4949.94
972.60	4943.80
972.76	4886.45
972.93	4894.65
973.09	5054.39
973.25	4890.55
973.42	4995.00
973.58	5060.53
973.74	4759.48
973.90	4980.66
974.07	4915.12
974.23	4884.41
974.39	4874.17
974.55	4767.67
974.72	4820.92
974.88	4718.52
975.04	4773.82
975.20	4753.34
975.37	4951.99
975.53	4739.00
975.69	4825.01
975.85	4655.03
976.01	4827.06
976.18	4685.75
976.34	4794.29
976.50	4683.70
976.66	4714.42
976.83	4683.70
976.99	4769.72
977.15	4661.18
977.31	4648.89
977.47	4708.28
977.64	4667.32
977.80	4644.79
977.96	4679.61
978.12	4591.55
978.29	4585.40
978.45	4497.34
978.61	4569.02
978.77	4714.42
978.93	4487.10
979.10	4511.68
979.26	4583.35
979.42	4534.20
979.58	4353.98
979.74	4501.44
979.91	4366.27
980.07	4440.00
980.23	4360.13
980.39	4403.13
980.55	4386.75
980.71	4382.65
980.88	4333.50
981.04	4388.80
981.20	4337.60
981.36	4345.79
981.52	4407.23
981.68	4294.59
981.85	4386.75
982.01	4276.16
982.17	4278.21
982.33	4335.55
982.49	4519.87
982.65	4272.06
982.82	4319.17
982.98	4339.65
983.14	4315.07
983.30	4317.12
983.46	4442.04
983.62	4222.91
983.79	4298.69
983.95	4222.91
984.11	4130.75
984.27	4143.04
984.43	4151.23
984.59	4337.60
984.75	4214.72
984.91	4313.02
985.08	4134.85
985.24	4149.18
985.40	4097.99
985.56	4220.86
985.72	4235.20
985.88	4288.45
986.04	4126.66
986.20	4059.07
986.37	4042.69
986.53	3995.59
986.69	4089.79
986.85	4020.16
987.01	3997.64
987.17	4110.27
987.33	3870.66
987.49	3940.29
987.65	4036.55
987.82	3977.16
987.98	3899.33
988.14	3977.16
988.30	3958.72
988.46	3868.61
988.62	3942.34
988.78	4011.97
988.94	3878.85
989.10	3854.28
989.26	3821.51
989.42	3817.41
989.59	3796.93
989.75	3735.50
989.91	3979.20
990.07	3747.78
990.23	3835.85
990.39	3796.93
990.55	3796.93
990.71	3827.65
990.87	3715.02
991.03	3946.44
991.19	3710.92
991.35	3688.39
991.51	3651.53
991.67	3899.33
991.83	3774.41
992.00	3862.47
992.16	3772.36
992.32	3784.65
992.48	3809.22
992.64	3641.29
992.80	3727.30
992.96	3710.92
993.12	3674.06
993.28	3735.50
993.44	3622.86
993.60	3649.48
993.76	3715.02
993.92	3667.91
994.08	3672.01
994.24	3612.62
994.40	3510.22
994.56	3753.93
994.72	3651.53
994.88	3534.79
995.04	3536.84
995.20	3399.63
995.36	3416.01
995.52	3516.36
995.68	3592.14
995.84	3469.26
996.00	3616.71
996.16	3538.89
996.32	3387.34
996.48	3502.03
996.64	3629.00
996.80	3444.68
996.96	3389.39
997.12	3436.49
997.28	3461.07
997.44	3434.44
997.60	3395.53
997.76	3395.53
997.92	3491.79
998.08	3383.24
998.24	3250.13
998.40	3346.38
998.56	3387.34
998.72	3411.92
998.88	3286.99
999.04	3223.50
999.20	3375.05
999.36	3317.71
999.52	3442.64
999.68	3330.00
999.84	3469.26
1000.00	3282.89
1000.16	3325.90
1000.32	3219.41
1000.48	3387.34
1000.64	3213.26
1000.80	3188.69
1000.95	3194.83
1001.11	3321.81
1001.27	3166.16
1001.43	3229.65
1001.59	3155.92
1001.75	3135.44
1001.91	3133.39
1002.07	3057.62
1002.23	3129.30
1002.39	3137.49
1002.55	3221.45
1002.71	3157.97
1002.87	3098.58
1003.03	3010.51
1003.19	3131.34
1003.34	3211.22
1003.50	3123.15
1003.66	3160.02
1003.82	3147.73
1003.98	3092.43
1004.14	3037.14
1004.30	3022.80
1004.46	3061.71
1004.62	2981.84
1004.78	2961.36
1004.94	2998.23
1005.09	3207.12
1005.25	3106.77
1005.41	3014.61
1005.57	2983.89
1005.73	3026.90
1005.89	2987.99
1006.05	2942.93
1006.21	3039.19
1006.37	2815.96
1006.52	2858.96
1006.68	2877.40
1006.84	2930.64
1007.00	2944.98
1007.16	3037.14
1007.32	2949.08
1007.48	2983.89
1007.64	2865.11
1007.79	2836.44
1007.95	2832.34
1008.11	2895.83
1008.27	2920.40
1008.43	2977.75
1008.59	2781.14
1008.75	2998.23
1008.91	2918.36
1009.06	2736.09
1009.22	2748.37
1009.38	2779.09
1009.54	2824.15
1009.70	2877.40
1009.86	2770.90
1010.01	2858.96
1010.17	2729.94
1010.33	2807.77
1010.49	2723.80
1010.65	2801.62
1010.81	2668.50
1010.96	2768.85
1011.12	2688.98
1011.28	2781.14
1011.44	2717.65
1011.60	2758.61
1011.76	2625.50
1011.91	2688.98
1012.07	2594.78
1012.23	2645.98
1012.39	2615.26
1012.55	2701.27
1012.71	2623.45
1012.86	2701.27
1013.02	2695.13
1013.18	2527.19
1013.34	2584.54
1013.50	2658.26
1013.65	2668.50
1013.81	2592.73
1013.97	2590.68
1014.13	2648.02
1014.29	2592.73
1014.44	2658.26
1014.60	2574.30
1014.76	2576.34
1014.92	2498.52
1015.07	2539.48
1015.23	2641.88
1015.39	2510.81
1015.55	2533.34
1015.71	2568.15
1015.86	2559.96
1016.02	2525.15
1016.18	2457.56
1016.34	2572.25
1016.49	2506.71
1016.65	2482.14
1016.81	2482.14
1016.97	2514.91
1017.12	2533.34
1017.28	2428.89
1017.44	2449.37
1017.60	2428.89
1017.75	2398.17
1017.91	2412.51
1018.07	2516.95
1018.23	2453.47
1018.38	2441.18
1018.54	2490.33
1018.70	2439.13
1018.86	2389.98
1019.01	2449.37
1019.17	2463.71
1019.33	2525.15
1019.49	2334.68
1019.64	2387.93
1019.80	2422.75
1019.96	2435.03
1020.12	2492.38
1020.27	2326.49
1020.43	2349.02
1020.59	2371.55
1020.74	2420.70
1020.90	2449.37
1021.06	2371.55
1021.22	2320.35
1021.37	2297.82
1021.53	2365.40
1021.69	2377.69
1021.84	2220.00
1022.00	2291.68
1022.16	2336.73
1022.31	2359.26
1022.47	2344.92
1022.63	2373.60
1022.79	2228.19
1022.94	2342.88
1023.10	2367.45
1023.26	2314.20
1023.41	2217.95
1023.57	2215.90
1023.73	2254.81
1023.88	2275.29
1024.04	2291.68
1024.20	2228.19
1024.35	2211.81
1024.51	2289.63
1024.67	2209.76
1024.82	2246.62
1024.98	2183.13
1025.14	2185.18
1025.29	2164.70
1025.45	2230.24
1025.61	2215.90
1025.76	2236.38
1025.92	2236.38
1026.08	2293.72
1026.23	2224.09
1026.39	2232.29
1026.55	2205.66
1026.70	2203.61
1026.86	2199.52
1027.02	2183.13
1027.17	2148.32
1027.33	2203.61
1027.48	2150.37
1027.64	2148.32
1027.80	2058.21
1027.95	2244.57
1028.11	2066.40
1028.27	2125.79
1028.42	2183.13
1028.58	2146.27
1028.73	2133.98
1028.89	2007.01
1029.05	2119.65
1029.20	2035.68
>>>>>End Processed Spectral Data<<<<<
