SpectraSuite Data File
++++++++++++++++++++++++++++++++++++
Date: Fri Jun 02 14:57:23 CEST 2017
User: INFO_000
Dark Spectrum Present: No
Reference Spectrum Present: No
Number of Sampled Component Spectra: 1
Spectrometers: USB4H00879
Integration Time (usec): 80000 (USB4H00879)
Spectra Averaged: 1 (USB4H00879)
Boxcar Smoothing: 0 (USB4H00879)
Correct for Electrical Dark: No (USB4H00879)
Strobe/Lamp Enabled: No (USB4H00879)
Correct for Detector Non-linearity: No (USB4H00879)
Correct for Stray Light: No (USB4H00879)
Number of Pixels in Processed Spectrum: 3648
>>>>>Begin Processed Spectral Data<<<<<
345.13	1361.90
345.34	1361.90
345.56	1361.90
345.78	1224.69
345.99	1277.93
346.21	1691.62
346.42	1703.91
346.64	1656.81
346.86	1800.16
347.07	1640.42
347.29	1677.29
347.50	1660.90
347.72	1662.95
347.94	1751.01
348.15	1576.94
348.37	1619.94
348.59	1679.33
348.80	1621.99
349.02	1798.12
349.23	1912.80
349.45	1785.83
349.67	1859.56
349.88	1871.84
350.10	2000.87
350.31	1925.09
350.53	1822.69
350.75	2093.02
350.96	1781.73
351.18	1871.84
351.39	1863.65
351.61	1779.68
351.82	1931.23
352.04	1972.19
352.26	1826.79
352.47	1820.64
352.69	1931.23
352.90	1763.30
353.12	1810.40
353.34	1890.28
353.55	1947.62
353.77	2019.30
353.98	1912.80
354.20	1824.74
354.41	1961.95
354.63	1927.14
354.85	1996.77
355.06	1910.75
355.28	1810.40
355.49	1884.13
355.71	1798.12
355.92	1855.46
356.14	1904.61
356.35	1933.28
356.57	1896.42
356.79	1957.86
357.00	1880.04
357.22	1959.91
357.43	1918.95
357.65	1998.82
357.86	1810.40
358.08	1939.43
358.29	1906.66
358.51	2015.20
358.72	1959.91
358.94	1955.81
359.16	1869.80
359.37	1951.71
359.59	2023.39
359.80	2011.11
360.02	1964.00
360.23	2011.11
360.45	1929.19
360.66	1984.48
360.88	1873.89
361.09	1955.81
361.31	2013.15
361.52	2060.26
361.74	1998.82
361.95	2138.08
362.17	1914.85
362.38	2105.31
362.60	2039.78
362.81	1931.23
363.03	1957.86
363.24	2084.83
363.46	2133.98
363.67	2025.44
363.89	1974.24
364.10	2009.06
364.32	1949.67
364.53	2041.82
364.75	1925.09
364.96	2090.98
365.18	1990.63
365.39	2004.96
365.61	1953.76
365.82	2119.65
366.04	2066.40
366.25	1927.14
366.47	2031.58
366.68	2037.73
366.90	1953.76
367.11	2121.70
367.33	2088.93
367.54	2064.35
367.76	1945.57
367.97	2072.54
368.19	2064.35
368.40	2064.35
368.62	1982.43
368.83	1904.61
369.05	1947.62
369.26	2066.40
369.48	1980.39
369.69	1990.63
369.91	2097.12
370.12	2007.01
370.33	2107.36
370.55	2013.15
370.76	2115.55
370.98	2060.26
371.19	2099.17
371.41	2078.69
371.62	2125.79
371.84	2013.15
372.05	2215.90
372.27	2015.20
372.48	2023.39
372.69	2027.49
372.91	2191.33
373.12	2197.47
373.34	1998.82
373.55	2093.02
373.77	2197.47
373.98	2097.12
374.20	2156.51
374.41	2220.00
374.62	2117.60
374.84	2103.26
375.05	2164.70
375.27	2179.04
375.48	2209.76
375.70	2209.76
375.91	2220.00
376.12	2293.72
376.34	2140.13
376.55	2236.38
376.77	2195.42
376.98	2150.37
377.19	2197.47
377.41	2078.69
377.62	2301.92
377.84	2295.77
378.05	2365.40
378.27	2246.62
378.48	2349.02
378.69	2355.16
378.91	2252.77
379.12	2217.95
379.34	2199.52
379.55	2289.63
379.76	2297.82
379.98	2263.01
380.19	2269.15
380.41	2299.87
380.62	2279.39
380.83	2199.52
381.05	2150.37
381.26	2422.75
381.47	2281.44
381.69	2303.96
381.90	2416.60
382.12	2332.64
382.33	2224.09
382.54	2301.92
382.76	2283.49
382.97	2326.49
383.19	2328.54
383.40	2375.64
383.61	2301.92
383.83	2207.71
384.04	2213.85
384.25	2314.20
384.47	2322.40
384.68	2486.23
384.89	2254.81
385.11	2303.96
385.32	2303.96
385.54	2291.68
385.75	2322.40
385.96	2412.51
386.18	2420.70
386.39	2363.36
386.60	2426.84
386.82	2387.93
387.03	2510.81
387.24	2514.91
387.46	2428.89
387.67	2484.19
387.88	2439.13
388.10	2486.23
388.31	2473.95
388.52	2465.75
388.74	2508.76
388.95	2512.86
389.16	2494.43
389.38	2463.71
389.59	2617.30
389.80	2557.91
390.02	2516.95
390.23	2621.40
390.44	2574.30
390.66	2504.67
390.87	2512.86
391.08	2547.67
391.30	2697.17
391.51	2633.69
391.72	2701.27
391.94	2617.30
392.15	2650.07
392.36	2648.02
392.58	2514.91
392.79	2635.74
393.00	2719.70
393.22	2713.56
393.43	2721.75
393.64	2691.03
393.85	2779.09
394.07	2760.66
394.28	2830.29
394.49	2734.04
394.71	2723.80
394.92	2838.48
395.13	2727.89
395.35	2815.96
395.56	2721.75
395.77	2887.64
395.98	2856.92
396.20	2820.05
396.41	2856.92
396.62	2818.00
396.84	2799.57
397.05	2867.16
397.26	2881.49
397.47	3006.42
397.69	2826.20
397.90	2959.31
398.11	2877.40
398.32	2932.69
398.54	2848.72
398.75	2830.29
398.96	2920.40
399.18	3053.52
399.39	2977.75
399.60	3004.37
399.81	2934.74
400.03	2928.60
400.24	3299.28
400.45	2938.84
400.66	3090.38
400.88	2994.13
401.09	3145.68
401.30	3137.49
401.51	3127.25
401.73	3069.91
401.94	3143.63
402.15	3121.10
402.36	3139.54
402.58	3200.98
402.79	3137.49
403.00	3180.50
403.21	3194.83
403.43	3221.45
403.64	3243.98
403.85	3037.14
404.06	3137.49
404.27	3176.40
404.49	3239.89
404.70	3141.58
404.91	3223.50
405.12	3325.90
405.34	3231.69
405.55	3438.54
405.76	3131.34
405.97	3227.60
406.19	3334.09
406.40	3192.78
406.61	3280.85
406.82	3338.19
407.03	3297.23
407.25	3246.03
407.46	3336.14
407.67	3346.38
407.88	3508.17
408.09	3317.71
408.31	3403.72
408.52	3469.26
408.73	3373.00
408.94	3481.55
409.15	3416.01
409.37	3542.99
409.58	3610.57
409.79	3477.45
410.00	3508.17
410.21	3499.98
410.43	3512.27
410.64	3579.85
410.85	3629.00
411.06	3536.84
411.27	3612.62
411.48	3653.58
411.70	3536.84
411.91	3659.72
412.12	3604.42
412.33	3659.72
412.54	3762.12
412.76	3770.31
412.97	3723.21
413.18	3506.12
413.39	3590.09
413.60	3700.68
413.81	3686.34
414.03	3751.88
414.24	3641.29
414.45	3831.75
414.66	3528.65
414.87	3755.97
415.08	3682.25
415.30	3813.32
415.51	3807.17
415.72	3798.98
415.93	3878.85
416.14	3817.41
416.35	3821.51
416.56	3870.66
416.78	3885.00
416.99	3915.72
417.20	3854.28
417.41	3858.37
417.62	4024.26
417.83	4009.92
418.04	3803.08
418.26	4032.45
418.47	3928.00
418.68	3975.11
418.89	4022.21
419.10	4077.51
419.31	4005.83
419.52	3954.63
419.73	4069.31
419.95	4196.29
420.16	3950.53
420.37	4057.03
420.58	4087.75
420.79	3973.06
421.00	4034.50
421.21	4149.18
421.42	4048.83
421.63	4097.99
421.85	4222.91
422.06	4214.72
422.27	4120.51
422.48	4247.49
422.69	4212.67
422.90	4323.26
423.11	4210.62
423.32	4274.11
423.53	4485.05
423.75	4306.88
423.96	4446.14
424.17	4364.22
424.38	4466.62
424.59	4450.24
424.80	4483.00
425.01	4450.24
425.22	4437.95
425.43	4505.53
425.64	4493.24
425.85	4538.30
426.06	4589.50
426.28	4630.46
426.49	4505.53
426.70	4427.71
426.91	4548.54
427.12	4583.35
427.33	4677.56
427.54	4618.17
427.75	4558.78
427.96	4847.54
428.17	4558.78
428.38	4693.94
428.59	4904.89
428.80	4706.23
429.01	4843.45
429.23	4890.55
429.44	4796.34
429.65	4956.08
429.86	4843.45
430.07	4695.99
430.28	4829.11
430.49	4958.13
430.70	4943.80
430.91	5109.68
431.12	4886.45
431.33	4984.76
431.54	5058.48
431.75	4974.52
431.96	5187.50
432.17	5042.10
432.38	5144.50
432.59	5279.66
432.80	5207.98
433.01	5279.66
433.22	5246.90
433.43	5263.28
433.64	5060.53
433.85	5148.59
434.06	5347.25
434.27	5144.50
434.49	5296.05
434.70	5554.09
434.91	5263.28
435.12	5386.16
435.33	5380.01
435.54	5377.97
435.75	5330.86
435.96	5482.41
436.17	5326.77
436.38	5437.36
436.59	5498.80
436.80	5390.25
437.01	5627.82
437.22	5494.70
437.43	5568.43
437.64	5504.94
437.85	5722.02
438.06	5789.61
438.27	5576.62
438.48	5658.54
438.69	5740.46
438.90	5611.43
439.11	5625.77
439.32	5898.15
439.53	5791.66
439.74	5812.14
439.95	5816.23
440.16	5828.52
440.37	5894.05
440.57	5787.56
440.78	5754.79
440.99	5836.71
441.20	5932.97
441.41	5787.56
441.62	5965.73
441.83	5842.85
442.04	5924.77
442.25	6092.71
442.46	6061.99
442.67	5982.12
442.88	6373.28
443.09	5816.23
443.30	6082.47
443.51	6191.01
443.72	6287.26
443.93	6012.84
444.14	6385.57
444.35	6051.75
444.56	6227.87
444.77	6293.41
444.98	6354.85
445.19	6297.50
445.40	6172.58
445.61	6338.46
445.81	6510.49
446.02	6490.01
446.23	6305.70
446.44	6158.24
446.65	6432.67
446.86	6442.91
447.07	6420.38
447.28	6633.37
447.49	6510.49
447.70	6504.35
447.91	6678.43
448.12	6553.50
448.33	6500.25
448.54	6651.80
448.74	6453.15
448.95	6729.63
449.16	6666.14
449.37	6991.77
449.58	6694.81
449.79	6922.13
450.00	6713.24
450.21	6881.18
450.42	6963.09
450.63	7040.92
450.84	7135.12
451.05	6895.51
451.25	6954.90
451.46	6922.13
451.67	7073.68
451.88	7020.44
452.09	7192.47
452.30	6907.80
452.51	7128.98
452.72	7356.30
452.93	7421.84
453.13	7042.96
453.34	7163.79
453.55	7319.44
453.76	7229.33
453.97	7688.07
454.18	7497.61
454.39	7532.43
454.60	7292.82
454.81	7491.47
455.01	7575.44
455.22	7335.82
455.43	7514.00
455.64	7706.51
455.85	7720.84
456.06	7993.22
456.27	7753.61
456.48	7743.37
456.68	7843.72
456.89	7858.06
457.10	7995.27
457.31	7921.54
457.52	8005.51
457.73	8226.69
457.94	8245.12
458.14	7948.17
458.35	8322.94
458.56	8261.51
458.77	8138.63
458.98	8247.17
459.19	8372.10
459.39	8314.75
459.60	8417.15
459.81	8447.87
460.02	8697.72
460.23	8396.67
460.44	8769.40
460.65	8470.40
460.85	8552.32
461.06	8720.25
461.27	8447.87
461.48	8851.32
461.69	8916.86
461.89	8736.63
462.10	8875.90
462.31	8783.74
462.52	8947.58
462.73	9129.84
462.94	9201.52
463.14	9146.23
463.35	8980.34
463.56	9529.20
463.77	9594.73
463.98	9269.11
464.18	9387.89
464.39	9414.51
464.60	9695.08
464.81	9561.97
465.02	9578.35
465.23	9688.94
465.43	9473.90
465.64	9992.04
465.85	9842.54
466.06	9748.33
466.27	10178.40
466.47	10043.24
466.68	9994.09
466.89	9914.22
467.10	10235.75
467.30	10006.38
467.51	10415.97
467.72	10649.44
467.93	10256.23
468.14	10397.54
468.34	10663.77
468.55	10575.71
468.76	10465.12
468.97	10538.85
469.17	10684.25
469.38	10940.25
469.59	10831.71
469.80	10757.98
470.01	10979.16
470.21	11001.69
470.42	11464.53
470.63	10973.02
470.84	11075.42
471.04	11452.24
471.25	11337.56
471.46	11419.47
471.67	11544.40
471.87	11636.56
472.08	11730.76
472.29	11929.42
472.50	11595.60
472.70	11646.80
472.91	11652.94
473.12	11947.85
473.33	12166.98
473.53	12214.09
473.74	12103.50
473.95	12441.41
474.16	12367.68
474.36	12451.65
474.57	12599.10
474.78	12695.36
474.99	12674.88
475.19	12482.37
475.40	13170.49
475.61	12799.80
475.81	12865.34
476.02	13178.68
476.23	13016.89
476.44	13383.48
476.64	13625.14
476.85	13745.97
477.06	13438.77
477.27	13932.33
477.47	13731.63
477.68	13711.15
477.89	14047.02
478.09	14018.35
478.30	13956.91
478.51	14247.72
478.71	14417.70
478.92	14397.22
479.13	14264.10
479.34	14464.80
479.54	14577.44
479.75	14534.43
479.96	14569.25
480.16	14634.78
480.37	15013.66
480.58	14980.89
480.78	15353.62
480.99	14987.04
481.20	15507.22
481.41	15404.82
481.61	15517.46
481.82	15779.60
482.03	15548.18
482.23	15603.47
482.44	15726.35
482.65	15974.16
482.85	16039.69
483.06	15943.44
483.27	16191.24
483.47	15941.39
483.68	16310.02
483.89	16314.12
484.09	16303.88
484.30	16340.74
484.51	16582.40
484.71	17024.76
484.92	16695.04
485.13	16926.46
485.33	17057.53
485.54	16969.47
485.75	17198.84
485.95	17321.72
486.16	17225.47
486.37	17503.99
486.57	17454.84
486.78	17620.72
486.98	17409.78
487.19	17919.73
487.40	17901.29
487.60	17737.46
487.81	17944.30
488.02	17940.21
488.22	18091.76
488.43	18413.29
488.64	18140.91
488.84	18452.20
489.05	18470.63
489.25	18659.04
489.46	18992.86
489.67	18675.43
489.87	18976.48
490.08	19031.77
490.29	18806.50
490.49	19371.74
490.70	19246.81
490.90	19220.19
491.11	19132.12
491.32	19310.30
491.52	19527.38
491.73	19642.07
491.94	19670.74
492.14	19699.41
492.35	20014.80
492.55	20211.40
492.76	19842.77
492.97	20160.20
493.17	20082.38
493.38	20131.53
493.58	20436.68
493.79	20309.71
494.00	20491.98
494.20	20666.05
494.41	20862.66
494.61	20768.45
494.82	20637.38
495.02	20760.26
495.23	20948.67
495.44	21024.45
495.64	21163.71
495.85	21106.37
496.05	21315.26
496.26	21327.55
496.47	21186.24
496.67	21272.25
496.88	21659.32
497.08	21524.15
497.29	21855.92
497.49	21563.06
497.70	21841.59
497.91	21620.41
498.11	21864.11
498.32	22206.13
498.52	22070.96
498.73	22447.79
498.93	22212.27
499.14	22349.48
499.34	22347.44
499.55	22554.28
499.76	22451.88
499.96	22619.81
500.17	22664.87
500.37	22939.30
500.58	22777.51
500.78	22990.50
500.99	22892.19
501.19	23221.92
501.40	23039.65
501.60	22884.00
501.81	23338.65
502.02	23137.95
502.22	22992.55
502.43	23164.57
502.63	23756.44
502.84	23590.55
503.04	23545.50
503.25	23625.37
503.45	23824.02
503.66	23938.71
503.86	23838.36
504.07	23852.69
504.27	24000.15
504.48	24192.65
504.68	24336.01
504.89	24460.94
505.09	24544.91
505.30	24241.81
505.50	24374.92
505.71	24348.30
505.91	24673.93
506.12	24696.46
506.32	24528.52
506.53	24575.62
506.73	24770.18
506.94	24764.04
507.14	25005.70
507.35	24833.67
507.55	24989.31
507.76	25134.72
507.96	24938.12
508.17	25087.62
508.37	25335.42
508.58	25292.41
508.78	25212.54
508.99	25587.32
509.19	25605.75
509.40	25636.47
509.60	25558.65
509.81	25622.14
510.01	25654.90
510.22	25538.17
510.42	25937.52
510.63	25996.92
510.83	25708.15
511.04	25912.95
511.24	26220.14
511.44	26199.66
511.65	26320.49
511.85	26134.13
512.06	25976.44
512.26	26498.67
512.47	26392.17
512.67	26388.08
512.88	26193.52
513.08	25921.14
513.29	26850.92
513.49	26959.46
513.69	26533.48
513.90	27172.45
514.10	26703.46
514.31	27295.33
514.51	26680.94
514.72	26570.35
514.92	27084.39
515.13	27256.42
515.33	27000.42
515.53	27455.07
515.74	27383.39
515.94	27588.19
516.15	27498.08
516.35	27367.01
516.56	27745.88
516.76	27493.98
516.96	27461.21
517.17	27776.60
517.37	28073.56
517.58	27790.94
517.78	28081.75
517.99	27774.55
518.19	28212.82
518.39	28083.80
518.60	28350.03
518.80	28319.31
519.01	28413.52
519.21	28567.12
519.41	28653.13
519.62	28100.18
519.82	28601.93
520.03	28814.92
520.23	28583.50
520.43	28718.67
520.64	29130.31
520.84	29134.40
521.05	28921.41
521.25	29488.70
521.45	29345.34
521.66	29552.19
521.86	28989.00
522.07	29351.49
522.27	29650.49
522.47	29615.68
522.68	29974.07
522.88	29810.23
523.08	29984.31
523.29	29777.47
523.49	30268.98
523.70	29845.05
523.90	30334.51
524.10	30256.69
524.31	30354.99
524.51	30068.28
524.71	30789.16
524.92	30619.18
525.12	31069.73
525.33	30842.41
525.53	30856.75
525.73	31276.58
525.94	30891.56
526.14	30881.32
526.34	31249.96
526.55	31309.35
526.75	31055.40
526.95	31665.69
527.16	31301.15
527.36	31645.21
527.56	31772.19
527.77	32212.50
527.97	31888.92
528.17	31673.88
528.38	31983.13
528.58	32161.30
528.78	32542.22
528.99	32550.42
529.19	32685.58
529.39	32253.46
529.60	32736.78
529.80	32794.12
530.00	32552.46
530.21	32783.88
530.41	33154.57
530.61	33041.93
530.82	33160.71
531.02	33515.01
531.22	33662.46
531.43	33351.17
531.63	33416.71
531.83	33742.33
532.04	33869.31
532.24	33447.43
532.44	34084.34
532.64	33973.75
532.85	34199.03
533.05	33797.63
533.25	34149.88
533.46	34344.44
533.66	35010.03
533.86	34723.31
534.07	35366.37
534.27	35061.22
534.47	34973.16
534.67	34930.16
534.88	35220.97
535.08	35139.05
535.28	35319.27
535.49	35550.69
535.69	35904.99
535.89	35657.18
536.09	35960.28
536.30	36111.83
536.50	35982.81
536.70	36390.36
536.91	36333.01
537.11	36218.33
537.31	36290.01
537.51	36472.28
537.72	36715.98
537.92	36677.07
538.12	37197.26
538.32	37010.89
538.53	37195.21
538.73	36500.95
538.93	36877.77
539.13	37170.63
539.34	37330.37
539.54	37199.30
539.74	37447.11
539.94	37166.54
540.15	37502.40
540.35	37621.19
540.55	37770.69
540.75	37768.64
540.96	37746.11
541.16	37684.67
541.36	37823.93
541.56	38014.40
541.77	38628.79
541.97	38133.18
542.17	38280.63
542.37	38237.62
542.58	38407.61
542.78	38266.30
542.98	38659.51
543.18	38647.22
543.38	39181.74
543.59	39089.58
543.79	39022.00
543.99	38798.77
544.19	39310.76
544.40	38862.26
544.60	39490.98
544.80	39265.70
545.00	39433.64
545.20	39857.57
545.41	39128.49
545.61	39208.36
545.81	39685.54
546.01	39761.31
546.21	39867.81
546.42	39749.03
546.62	39892.38
546.82	39832.99
547.02	40086.94
547.22	39994.78
547.43	39806.37
547.63	39947.68
547.83	40228.25
548.03	39857.57
548.23	40457.62
548.44	40494.49
548.64	40269.21
548.84	40633.75
549.04	40666.52
549.24	40844.69
549.45	40865.17
549.65	40547.73
549.85	41168.27
550.05	41254.28
550.25	40914.32
550.45	41518.47
550.66	41215.37
550.86	40832.40
551.06	41471.37
551.26	41129.36
551.46	41254.28
551.66	41301.39
551.87	40994.19
552.07	41266.57
552.27	41502.09
552.47	41289.10
552.67	41205.13
552.87	41917.82
553.07	41911.68
553.28	41731.46
553.48	41848.19
553.68	41385.35
553.88	42259.84
554.08	41809.28
554.28	41663.88
554.48	41893.25
554.69	41670.02
554.89	41524.61
555.09	42343.80
555.29	42050.94
555.49	42022.27
555.69	42106.24
555.89	42220.92
556.10	42411.38
556.30	42052.99
556.50	42243.45
556.70	42063.23
556.90	42734.96
557.10	42315.13
557.30	42390.91
557.50	42909.04
557.70	42732.92
557.91	43046.26
558.11	42638.71
558.31	42712.44
558.51	42628.47
558.71	42741.11
558.91	42759.54
559.11	42382.71
559.31	42804.59
559.51	42440.06
559.72	42993.01
559.92	42861.94
560.12	42911.09
560.32	42775.92
560.52	42790.26
560.72	42632.57
560.92	42941.81
561.12	43136.37
561.32	43533.67
561.52	42786.16
561.72	43337.07
561.93	42681.72
562.13	42906.99
562.33	42911.09
562.53	43304.30
562.73	43099.50
562.93	43226.48
563.13	43273.58
563.33	43208.04
563.53	43218.28
563.73	43390.31
563.93	43511.14
564.13	43865.44
564.33	43644.26
564.53	43324.78
564.74	43619.69
564.94	43140.46
565.14	43699.56
565.34	43554.15
565.54	43631.97
565.74	43533.67
565.94	44031.33
566.14	43623.78
566.34	43474.28
566.54	44258.65
566.74	43275.63
566.94	44105.06
567.14	44019.04
567.34	43683.17
567.54	44115.29
567.74	43916.64
567.94	43910.50
568.14	44283.23
568.34	44041.57
568.54	44293.47
568.74	44266.84
568.94	44295.52
569.14	44387.67
569.34	44223.84
569.54	44326.24
569.75	44318.04
569.95	44272.99
570.15	44838.23
570.35	44762.45
570.55	44336.48
570.75	44473.69
570.95	44617.05
571.15	44455.26
571.35	44445.02
571.55	44887.38
571.75	44574.04
571.95	44488.03
572.15	44621.14
572.35	44926.29
572.55	44258.65
572.75	44905.81
572.95	44729.69
573.15	44412.25
573.35	44895.57
573.55	44729.69
573.75	44877.14
573.95	45016.40
574.15	44580.18
574.35	45186.38
574.55	45057.36
574.75	44832.08
574.95	45170.00
575.15	44604.76
575.34	45372.75
575.54	45520.20
575.74	45241.68
575.94	45241.68
576.14	45149.52
576.34	45268.30
576.54	45573.45
576.74	45323.60
576.94	45737.29
577.14	45684.04
577.34	45976.90
577.54	45122.90
577.74	45606.22
577.94	45450.57
578.14	45634.89
578.34	45905.22
578.54	45165.90
578.74	45512.01
578.94	45880.64
579.14	45720.90
579.34	45817.16
579.54	45696.33
579.74	46204.22
579.94	45811.01
580.13	46679.35
580.33	46228.80
580.53	46413.12
580.73	46341.44
580.93	46163.26
581.13	46312.77
581.33	46384.44
581.53	46916.92
581.73	46791.99
581.93	47015.22
582.13	46409.02
582.33	46933.30
582.53	46847.29
582.73	46724.41
582.92	46787.89
583.12	47109.43
583.32	46906.68
583.52	46855.48
583.72	47246.64
583.92	46916.92
584.12	46824.76
584.32	47797.54
584.52	47152.43
584.72	47162.67
584.92	47052.08
585.11	47562.03
585.31	47263.02
585.51	47541.55
585.71	47510.83
585.91	47533.35
586.11	47238.45
586.31	47267.12
586.51	47449.39
586.71	47443.24
586.91	47953.19
587.10	47820.07
587.30	47977.76
587.50	47770.92
587.70	47994.15
587.90	48094.50
588.10	48141.60
588.30	47736.10
588.50	48141.60
588.69	47977.76
588.89	48223.52
589.09	48145.70
589.29	48442.65
589.49	48407.84
589.69	47715.62
589.89	48561.44
590.08	48485.66
590.28	48651.55
590.48	48151.84
590.68	48049.44
590.88	48844.05
591.08	49026.32
591.28	48463.13
591.47	48540.96
591.67	48911.64
591.87	48868.63
592.07	48381.21
592.27	48862.49
592.47	48839.96
592.67	49075.48
592.86	48885.01
593.06	49112.34
593.26	49302.80
593.46	48993.56
593.66	48796.95
593.86	48833.81
594.05	49026.32
594.25	49198.35
594.45	48774.42
594.65	48698.65
594.85	49057.04
595.05	49472.78
595.24	49622.28
595.44	49474.83
595.64	49712.39
595.84	48917.78
596.04	49526.03
596.23	49925.38
596.43	49802.50
596.63	49538.32
596.83	49812.74
597.03	50631.93
597.22	50173.19
597.42	49863.94
597.62	50316.54
597.82	50345.22
598.02	50494.72
598.21	50238.72
598.41	50277.63
598.61	50326.78
598.81	50375.94
599.01	50445.57
599.20	50377.98
599.40	50494.72
599.60	50699.51
599.80	50691.32
600.00	50601.21
600.19	50537.72
600.39	50550.01
600.59	51231.99
600.79	50754.81
600.98	50609.40
601.18	50939.13
601.38	51311.86
601.58	51530.99
601.78	51219.70
601.97	51098.87
602.17	51686.64
602.37	51649.77
602.57	51518.70
602.76	51516.65
602.96	51516.65
603.16	51608.81
603.36	51578.09
603.55	52143.33
603.75	51512.56
603.95	51950.82
604.15	51778.79
604.34	51617.00
604.54	51709.16
604.74	51848.42
604.94	51989.73
605.13	52124.90
605.33	52165.86
605.53	51694.83
605.73	52749.53
605.92	52282.59
606.12	52640.99
606.32	52643.04
606.52	52331.75
606.71	52628.70
606.91	52509.92
607.11	52122.85
607.30	52557.02
607.50	52827.35
607.70	53005.53
607.90	52536.54
608.09	52579.55
608.29	52561.12
608.49	53161.17
608.68	52747.48
608.88	53316.82
609.08	53195.99
609.28	52753.63
609.47	53089.49
609.67	53300.43
609.87	53155.03
610.06	53195.99
610.26	53077.21
610.46	53413.07
610.66	53017.82
610.85	53417.17
611.05	53462.22
611.25	53646.54
611.44	53263.57
611.64	53755.08
611.84	53152.98
612.03	53302.48
612.23	54025.42
612.43	53556.43
612.62	53474.51
612.82	53662.93
613.02	53802.19
613.21	53841.10
613.41	53882.06
613.61	53853.39
613.80	53187.80
614.00	53861.58
614.20	54162.63
614.39	53863.63
614.59	53920.97
614.79	54027.46
614.98	54168.77
615.18	53830.86
615.38	54260.93
615.57	53943.50
615.77	54392.00
615.97	54084.81
616.16	53875.91
616.36	54072.52
616.56	53945.54
616.75	54400.19
616.95	54000.84
617.15	54156.49
617.34	54138.05
617.54	54449.35
617.74	54920.38
617.93	54580.42
618.13	54039.75
618.32	54301.89
618.52	54125.77
618.72	54115.53
618.91	54260.93
619.11	54035.66
619.31	54432.96
619.50	54484.16
619.70	54449.35
619.90	54643.90
620.09	54342.85
620.29	54639.81
620.48	54193.35
620.68	54762.68
620.88	54009.03
621.07	54215.88
621.27	54162.63
621.46	54002.89
621.66	54387.91
621.86	54174.92
622.05	54164.68
622.25	54592.70
622.44	54187.21
622.64	54396.10
622.84	54555.84
623.03	54195.40
623.23	54545.60
623.42	54432.96
623.62	54691.01
623.82	54400.19
624.01	54678.72
624.21	54588.61
624.40	54715.58
624.60	54518.98
624.80	54174.92
624.99	54521.02
625.19	54322.37
625.38	54604.99
625.58	54611.13
625.77	54498.50
625.97	54467.78
626.17	54197.44
626.36	54353.09
626.56	54660.29
626.75	54213.83
626.95	54531.26
627.14	54754.49
627.34	55483.57
627.54	54453.44
627.73	55026.87
627.93	54512.83
628.12	54279.36
628.32	54359.23
628.51	54742.20
628.71	54860.99
628.90	54688.96
629.10	54949.05
629.30	54805.69
629.49	55092.41
629.69	54787.26
629.88	54803.64
630.08	55078.07
630.27	55209.14
630.47	55338.16
630.66	54838.46
630.86	55256.24
631.05	54777.02
631.25	55276.72
631.44	54983.86
631.64	54762.68
631.84	54957.24
632.03	55215.29
632.23	54928.57
632.42	55334.07
632.62	54885.56
632.81	54875.32
633.01	54813.88
633.20	55508.14
633.40	55260.34
633.59	55235.77
633.79	54846.65
633.98	55452.85
634.18	55372.98
634.37	55342.26
634.57	55137.46
634.76	55719.09
634.96	55143.61
635.15	55477.43
635.35	55362.74
635.54	55047.35
635.74	55354.55
635.93	55106.74
636.13	55571.63
636.32	55600.30
636.52	55174.33
636.71	55600.30
636.91	55530.67
637.10	55694.51
637.30	55358.64
637.49	55694.51
637.69	55852.20
637.88	55948.46
638.08	55252.15
638.27	55821.48
638.46	55809.20
638.66	55233.72
638.85	55235.77
639.05	55473.33
639.24	55887.02
639.44	55407.79
639.63	55848.11
639.83	55911.59
640.02	55811.24
640.22	55850.16
640.41	56292.52
640.61	55385.27
640.80	56026.28
640.99	55813.29
641.19	56085.67
641.38	56167.59
641.58	55727.28
641.77	55753.90
641.97	55874.73
642.16	55973.03
642.36	56628.38
642.55	56282.28
642.74	55620.78
642.94	56329.38
643.13	55973.03
643.33	56509.60
643.52	56638.62
643.72	56229.03
643.91	56093.86
644.10	56214.69
644.30	56360.10
644.49	55917.74
644.69	56308.90
644.88	56558.75
645.08	55948.46
645.27	56405.16
645.46	56054.95
645.66	56538.27
645.85	55983.27
646.05	56478.88
646.24	56263.85
646.43	56796.32
646.63	57156.76
646.82	56564.90
647.02	56388.77
647.21	56980.63
647.40	56487.07
647.60	56960.15
647.79	56966.30
647.99	56960.15
648.18	56843.42
648.37	57238.68
648.57	56896.67
648.76	57095.32
648.96	56544.42
649.15	56638.62
649.34	57203.86
649.54	56882.33
649.73	56298.66
649.92	56863.90
650.12	56741.02
650.31	56837.28
650.51	56837.28
650.70	57171.10
650.89	57119.90
651.09	57488.53
651.28	57031.83
651.47	56632.48
651.67	57103.51
651.86	57201.82
652.06	56552.61
652.25	57529.49
652.44	57078.94
652.64	56632.48
652.83	56702.11
653.02	56749.21
653.22	57052.31
653.41	56872.09
653.60	56728.73
653.80	56777.89
653.99	57015.45
654.18	56951.96
654.38	57388.18
654.57	57515.15
654.76	57060.51
654.96	57054.36
655.15	56792.22
655.34	56605.86
655.54	56853.66
655.73	57040.03
655.92	57453.72
656.12	57169.05
656.31	57203.86
656.50	57336.98
656.70	57058.46
656.89	57431.19
657.08	57068.70
657.28	56999.07
657.47	56751.26
657.66	57529.49
657.86	57212.06
658.05	57513.11
658.24	57687.18
658.43	56878.24
658.63	57328.79
658.82	57750.67
659.01	57394.32
659.21	57644.18
659.40	57398.42
659.59	57136.28
659.79	57783.44
659.98	57244.82
660.17	57601.17
660.36	57349.27
660.56	57185.43
660.75	57361.56
660.94	57439.38
661.14	57322.65
661.33	57390.23
661.52	56999.07
661.71	57652.37
661.91	57054.36
662.10	57160.86
662.29	57218.20
662.49	57472.15
662.68	57513.11
662.87	57379.99
663.06	57318.55
663.26	57320.60
663.45	57775.25
663.64	57357.46
663.83	57681.04
664.03	57511.06
664.22	57320.60
664.41	57615.50
664.60	57384.08
664.80	57312.41
664.99	57304.21
665.18	57390.23
665.37	57726.10
665.57	57359.51
665.76	57218.20
665.95	57484.43
666.14	56736.93
666.34	57164.95
666.53	57005.21
666.72	56999.07
666.91	56931.48
667.11	57349.27
667.30	57214.10
667.49	57083.03
667.68	57431.19
667.87	57068.70
668.07	57390.23
668.26	57443.48
668.45	57644.18
668.64	56816.80
668.84	57787.53
669.03	57480.34
669.22	56988.83
669.41	57423.00
669.60	57259.16
669.80	57017.50
669.99	57584.79
670.18	56898.72
670.37	57171.10
670.57	57609.36
670.76	57162.90
670.95	57347.22
671.14	57373.84
671.33	56849.56
671.53	57250.97
671.72	57322.65
671.91	57277.59
672.10	56890.52
672.29	57126.04
672.48	56904.86
672.68	57078.94
672.87	57103.51
673.06	56777.89
673.25	57025.69
673.44	56779.93
673.64	56640.67
673.83	56609.95
674.02	56829.08
674.21	56450.21
674.40	57146.52
674.59	57162.90
674.79	56728.73
674.98	56749.21
675.17	57074.84
675.36	56540.32
675.55	56865.95
675.74	56585.38
675.94	56669.34
676.13	56929.44
676.32	57138.33
676.51	56538.27
676.70	56759.45
676.89	56212.65
677.08	56784.03
677.28	56511.65
677.47	56798.37
677.66	56939.68
677.85	56439.97
678.04	56556.70
678.23	56587.42
678.42	56784.03
678.62	56448.16
678.81	57005.21
679.00	56292.52
679.19	57017.50
679.38	56378.53
679.57	56558.75
679.76	56327.33
679.96	56810.65
680.15	56353.96
680.34	56347.81
680.53	56399.01
680.72	56206.50
680.91	56239.27
681.10	56427.68
681.29	56468.64
681.48	56530.08
681.68	56171.69
681.87	56065.19
682.06	56286.37
682.25	55792.81
682.44	56036.52
682.63	56460.45
682.82	55936.17
683.01	56224.93
683.20	55557.30
683.39	55946.41
683.59	55801.00
683.78	55571.63
683.97	55596.21
684.16	55936.17
684.35	55272.63
684.54	55477.43
684.73	55471.28
684.92	55678.13
685.11	55753.90
685.30	55702.70
685.49	55975.08
685.69	55444.66
685.88	55375.03
686.07	55555.25
686.26	55151.80
686.45	55362.74
686.64	55448.75
686.83	54963.39
687.02	55336.12
687.21	55624.88
687.40	55229.62
687.59	54951.10
687.78	55547.06
687.97	55987.37
688.16	55260.34
688.35	55207.09
688.54	55420.08
688.74	55305.40
688.93	55192.76
689.12	54883.51
689.31	55106.74
689.50	55370.93
689.69	54981.82
689.88	54744.25
690.07	54809.79
690.26	54822.08
690.45	55651.50
690.64	54611.13
690.83	54893.75
691.02	54699.20
691.21	54377.67
691.40	54486.21
691.59	55186.61
691.78	54555.84
691.97	54725.82
692.16	54678.72
692.35	54736.06
692.54	54664.38
692.73	54701.25
692.92	54490.30
693.11	54596.80
693.30	54533.31
693.49	54602.94
693.68	54807.74
693.87	54617.28
694.06	54318.28
694.25	54498.50
694.44	53990.60
694.63	54506.69
694.82	54371.52
695.01	54461.63
695.20	53638.35
695.39	54056.14
695.58	54484.16
695.77	53728.46
695.96	53927.11
696.15	53687.50
696.34	53982.41
696.53	53904.59
696.72	53826.76
696.91	53900.49
697.10	53714.12
697.29	53486.80
697.48	54283.46
697.67	53785.80
697.86	53976.26
698.05	53705.93
698.24	54316.23
698.43	53515.47
698.62	53726.41
698.81	53546.19
699.00	53558.48
699.19	52815.07
699.38	53538.00
699.57	53023.96
699.76	53816.52
699.95	53236.95
700.14	53531.86
700.32	53382.35
700.51	53540.05
700.70	53214.42
700.89	53282.00
701.08	53370.07
701.27	53165.27
701.46	53646.54
701.65	52655.32
701.84	53050.58
702.03	53112.02
702.22	52862.17
702.41	52911.32
702.60	52868.31
702.79	53069.01
702.98	53021.91
703.17	52780.25
703.35	52640.99
703.54	52630.75
703.73	52684.00
703.92	52714.72
704.11	53019.86
704.30	52237.54
704.49	52514.01
704.68	52292.83
704.87	52241.63
705.06	52073.70
705.25	51907.82
705.43	52237.54
705.62	52270.31
705.81	52196.58
706.00	52040.93
706.19	52294.88
706.38	51684.59
706.57	52124.90
706.76	51819.75
706.95	52180.20
707.14	51997.93
707.32	51574.00
707.51	51590.38
707.70	51944.68
707.89	51762.41
708.08	51561.71
708.27	51737.83
708.46	52008.17
708.65	51674.35
708.84	52030.69
709.02	51608.81
709.21	51789.03
709.40	51682.54
709.59	51987.69
709.78	51381.49
709.97	51584.24
710.16	51578.09
710.34	51619.05
710.53	51657.96
710.72	51436.78
710.91	51270.90
711.10	51522.80
711.29	51156.21
711.48	51248.37
711.66	51504.37
711.85	51242.23
712.04	50871.54
712.23	51188.98
712.42	50910.46
712.61	50957.56
712.80	50996.47
712.98	51322.10
713.17	51014.90
713.36	50992.37
713.55	50701.56
713.74	51184.88
713.93	51045.62
714.11	50945.27
714.30	50466.05
714.49	51072.24
714.68	50756.86
714.87	51145.97
715.06	50691.32
715.24	50695.42
715.43	50582.78
715.62	50558.20
715.81	50367.74
716.00	50552.06
716.18	50552.06
716.37	50406.65
716.56	50468.09
716.75	50664.70
716.94	50511.10
717.12	50230.53
717.31	50257.15
717.50	50312.45
717.69	49980.68
717.88	50140.42
718.06	50758.91
718.25	50253.06
718.44	49237.26
718.63	50009.35
718.82	49120.53
719.00	50097.41
719.19	49782.02
719.38	49972.49
719.57	49304.85
719.76	49388.81
719.94	49257.74
720.13	49229.07
720.32	49476.88
720.51	49282.32
720.69	49104.15
720.88	49192.21
721.07	49351.95
721.26	49130.77
721.44	49239.31
721.63	49112.34
721.82	48284.96
722.01	48536.86
722.20	49267.98
722.38	48428.32
722.57	48336.16
722.76	48387.36
722.95	48381.21
723.13	47865.13
723.32	48456.99
723.51	48096.55
723.70	48024.87
723.88	48229.66
724.07	47832.36
724.26	48248.10
724.44	47533.35
724.63	48436.51
724.82	47676.71
725.01	48051.49
725.19	48162.08
725.38	47955.24
725.57	47832.36
725.76	47842.60
725.94	47858.98
726.13	47811.88
726.32	47514.92
726.51	47373.61
726.69	48244.00
726.88	48051.49
727.07	47977.76
727.25	47635.75
727.44	47801.64
727.63	47240.50
727.82	47365.42
728.00	47449.39
728.19	47224.11
728.38	47625.51
728.56	47076.66
728.75	47568.17
728.94	47410.48
729.12	47101.23
729.31	47181.10
729.50	47246.64
729.69	47727.91
729.87	47748.39
730.06	47273.26
730.25	47748.39
730.43	47568.17
730.62	47215.92
730.81	47691.05
730.99	47867.17
731.18	47342.89
731.37	47525.16
731.55	47787.30
731.74	47578.41
731.93	47459.63
732.11	47113.52
732.30	47406.38
732.49	47050.03
732.67	47181.10
732.86	47496.49
733.05	47215.92
733.23	46773.56
733.42	47369.52
733.61	47224.11
733.79	47715.62
733.98	47459.63
734.17	47746.34
734.35	46990.64
734.54	47404.33
734.73	47781.16
734.91	46992.69
735.10	46980.40
735.29	47101.23
735.47	47140.14
735.66	47181.10
735.84	47109.43
736.03	47117.62
736.22	47215.92
736.40	47234.35
736.59	47248.69
736.78	46961.97
736.96	46642.49
737.15	47207.73
737.33	46884.15
737.52	46900.53
737.71	46978.36
737.89	46386.49
738.08	46626.10
738.27	46470.46
738.45	47346.99
738.64	46974.26
738.82	46372.16
739.01	46869.81
739.20	46712.12
739.38	46730.55
739.57	47205.68
739.75	46703.93
739.94	46003.52
740.13	46523.71
740.31	46857.52
740.50	46527.80
740.68	46552.38
740.87	46677.30
741.06	47127.86
741.24	46927.16
741.43	46175.55
741.61	46599.48
741.80	46789.94
741.99	45978.95
742.17	46572.86
742.36	46308.67
742.54	46435.64
742.73	45974.85
742.91	46425.40
743.10	46390.59
743.29	46413.12
743.47	46669.11
743.66	46007.62
743.84	46196.03
744.03	46173.50
744.21	46101.82
744.40	46204.22
744.59	46495.03
744.77	45690.18
744.96	45958.47
745.14	45903.17
745.33	46202.18
745.51	45874.50
745.70	45905.22
745.88	45714.76
746.07	46132.54
746.26	45741.38
746.44	45976.90
746.63	45878.60
746.81	45917.51
747.00	45634.89
747.18	45788.49
747.37	45653.32
747.55	45704.52
747.74	46134.59
747.92	45555.02
748.11	45473.10
748.29	45585.74
748.48	45587.78
748.66	45737.29
748.85	45221.20
749.03	45675.85
749.22	45704.52
749.41	45329.74
749.59	46003.52
749.78	45358.41
749.96	45114.70
750.15	45061.46
750.33	45307.21
750.52	45352.27
750.70	45364.56
750.89	44916.05
751.07	44944.72
751.26	45104.46
751.44	44801.36
751.63	45188.43
751.81	44701.01
752.00	45110.61
752.18	45061.46
752.37	45022.54
752.55	44922.19
752.74	44944.72
752.92	44760.40
753.10	44424.54
753.29	45053.26
753.47	44782.93
753.66	44637.53
753.84	44838.23
754.03	44471.64
754.21	44631.38
754.40	45036.88
754.58	44670.29
754.77	44858.71
754.95	44696.92
755.14	44326.24
755.32	44352.86
755.51	43998.56
755.69	44250.46
755.88	44449.11
756.06	44211.55
756.24	44242.27
756.43	44186.97
756.61	44318.04
756.80	44064.10
756.98	44139.87
757.17	44356.96
757.35	44207.45
757.54	43980.13
757.72	44127.58
757.90	44184.93
758.09	43847.01
758.27	44053.86
758.46	43900.26
758.64	43586.92
758.83	43973.98
759.01	43738.47
759.19	43804.00
759.38	44098.91
759.56	44217.69
759.75	43885.92
759.93	43674.98
760.12	43357.55
760.30	43713.89
760.48	43388.27
760.67	43873.63
760.85	43842.92
761.04	43828.58
761.22	43595.11
761.40	43302.25
761.59	43664.74
761.77	43138.41
761.96	43070.83
762.14	43085.17
762.32	43251.05
762.51	43124.08
762.69	43414.89
762.88	43052.40
763.06	43242.86
763.24	43179.37
763.43	43029.87
763.61	42859.89
763.80	43085.17
763.98	43148.65
764.16	42667.38
764.35	42870.13
764.53	42184.06
764.72	43029.87
764.90	42634.61
765.08	42632.57
765.27	42747.25
765.45	42096.00
765.63	42106.24
765.82	42818.93
766.00	42460.54
766.18	42495.35
766.37	42628.47
766.55	42495.35
766.74	42591.61
766.92	42358.14
767.10	42225.02
767.29	42495.35
767.47	42005.89
767.65	42440.06
767.84	41737.60
768.02	42151.29
768.20	41764.23
768.39	42311.03
768.57	42096.00
768.75	41889.15
768.94	42186.11
769.12	42024.32
769.30	41698.69
769.49	41817.47
769.67	41366.92
769.85	41481.61
770.04	41409.93
770.22	41272.71
770.40	41729.41
770.59	41309.58
770.77	41985.41
770.95	41354.63
771.14	41166.22
771.32	41215.37
771.50	41211.28
771.69	41401.74
771.87	41383.30
772.05	41438.60
772.24	41217.42
772.42	41117.07
772.60	41303.43
772.78	40785.30
772.97	40809.87
773.15	41207.18
773.33	40820.11
773.52	40922.51
773.70	40725.91
773.88	40832.40
774.07	40906.13
774.25	40699.28
774.43	41084.30
774.61	41018.77
774.80	41276.81
774.98	41084.30
775.16	41151.88
775.34	41254.28
775.53	40856.98
775.71	41139.60
775.89	40813.97
776.08	41016.72
776.26	41348.49
776.44	41178.51
776.62	41092.49
776.81	40678.80
776.99	41276.81
777.17	41004.43
777.35	41434.50
777.54	41465.22
777.72	40922.51
777.90	41112.97
778.08	41176.46
778.27	41311.63
778.45	41698.69
778.63	42063.23
778.81	41315.72
779.00	42059.13
779.18	41682.31
779.36	42392.95
779.54	41866.63
779.73	41485.70
779.91	41653.64
780.09	41665.92
780.27	41880.96
780.46	42157.44
780.64	42012.03
780.82	42042.75
781.00	42065.28
781.19	42050.94
781.37	42206.59
781.55	41874.82
781.73	42567.03
781.91	42065.28
782.10	42085.76
782.28	42100.09
782.46	41805.19
782.64	42001.79
782.82	42046.85
783.01	42542.45
783.19	42278.27
783.37	42511.74
783.55	41944.45
783.74	42159.48
783.92	42042.75
784.10	42519.93
784.28	42063.23
784.46	42001.79
784.64	42229.12
784.83	42261.88
785.01	42372.47
785.19	42476.92
785.37	42446.20
785.55	41956.74
785.74	41964.93
785.92	41928.06
786.10	41848.19
786.28	42308.99
786.46	41926.02
786.64	41911.68
786.83	42052.99
787.01	42157.44
787.19	41833.86
787.37	41751.94
787.55	41721.22
787.74	41536.90
787.92	41858.43
788.10	41469.32
788.28	41444.74
788.46	41653.64
788.64	41325.96
788.82	41606.53
789.01	41584.01
789.19	41905.54
789.37	41563.53
789.55	41465.22
789.73	41280.91
789.91	41092.49
790.09	41272.71
790.28	41063.82
790.46	40746.39
790.64	41373.06
790.82	40897.94
791.00	41016.72
791.18	40783.25
791.36	40740.24
791.55	41078.16
791.73	40420.76
791.91	40179.10
792.09	40441.24
792.27	40316.31
792.45	40560.02
792.63	40385.94
792.81	40111.52
793.00	40480.15
793.18	40066.46
793.36	39699.87
793.54	40015.26
793.72	39773.60
793.90	39798.18
794.08	39415.21
794.26	39990.69
794.44	39081.39
794.62	39310.76
794.81	39753.12
794.99	39581.09
795.17	39144.87
795.35	39060.91
795.53	39579.04
795.71	39179.69
795.89	38739.38
796.07	38794.67
796.25	38854.06
796.43	38622.64
796.61	38389.17
796.80	38417.85
796.98	38540.72
797.16	38270.39
797.34	38346.17
797.52	38102.46
797.70	38342.07
797.88	38317.50
798.06	37952.96
798.24	38118.84
798.42	38024.64
798.60	37916.09
798.78	37682.62
798.96	37873.09
799.14	37500.36
799.32	37656.00
799.51	37397.96
799.69	37793.22
799.87	37467.59
800.05	37113.29
800.23	37174.73
800.41	37266.89
800.59	36742.61
800.77	37070.28
800.95	36689.36
801.13	36877.77
801.31	36713.94
801.49	37051.85
801.67	36459.99
801.85	36589.01
802.03	36500.95
802.21	35943.90
802.39	36144.60
802.57	36150.74
802.75	36144.60
802.93	36021.72
803.11	35786.21
803.29	35956.19
803.47	35581.41
803.65	35173.86
803.83	35595.74
804.01	35739.10
804.19	35249.64
804.37	35202.53
804.55	35200.49
804.73	35429.86
804.91	35419.62
805.09	34962.92
805.27	34958.83
805.45	35206.63
805.63	35063.27
805.81	34760.17
805.99	35266.02
806.17	35026.41
806.35	34784.75
806.53	34670.06
806.71	34506.23
806.89	34698.73
807.07	34260.47
807.25	34303.48
807.43	34024.95
807.61	34307.57
807.79	34184.69
807.97	34020.86
808.15	33691.13
808.33	34205.17
808.51	33863.16
808.69	34151.93
808.87	33920.51
809.05	33463.81
809.23	33263.11
809.41	33173.00
809.59	33334.79
809.77	33603.07
809.95	33037.83
810.13	33449.47
810.31	33388.03
810.49	33209.86
810.67	33279.49
810.84	33256.96
811.02	32892.43
811.20	32595.47
811.38	32771.60
811.56	32394.77
811.74	32622.09
811.92	32452.11
812.10	32689.68
812.28	32794.12
812.46	32634.38
812.64	32439.82
812.82	32187.92
813.00	32073.24
813.18	32458.26
813.36	32153.11
813.53	32007.70
813.71	31847.96
813.89	31997.46
814.07	32007.70
814.25	31761.95
814.43	31544.86
814.61	31508.00
814.79	31444.51
814.97	31659.55
815.15	31835.67
815.33	31407.65
815.50	31237.67
815.68	31686.17
815.86	31634.97
816.04	31045.16
816.22	31307.30
816.40	31067.69
816.58	31055.40
816.76	30662.19
816.94	30985.77
817.11	30737.96
817.29	31090.21
817.47	31008.29
817.65	30881.32
817.83	30993.96
818.01	30494.25
818.19	30426.67
818.37	30465.58
818.54	30209.59
818.72	30389.81
818.90	30453.30
819.08	30617.13
819.26	30164.53
819.44	30330.42
819.62	30084.66
819.80	30232.11
819.97	30189.11
820.15	29834.81
820.33	30068.28
820.51	30207.54
820.69	29357.63
820.87	29812.28
821.05	30099.00
821.22	29562.43
821.40	29691.45
821.58	29515.33
821.76	29982.26
821.94	29421.12
822.12	29916.73
822.29	30099.00
822.47	29640.25
822.65	29666.88
822.83	29038.15
823.01	29124.16
823.19	29460.03
823.36	28843.59
823.54	29066.82
823.72	29128.26
823.90	28825.16
824.08	28847.69
824.25	28915.27
824.43	28968.52
824.61	28927.56
824.79	29058.63
824.97	28890.70
825.15	29247.04
825.32	28866.12
825.50	28589.64
825.68	28380.75
825.86	29103.68
826.04	28606.03
826.21	28517.96
826.39	28411.47
826.57	28403.28
826.75	28352.08
826.93	27827.80
827.10	28087.89
827.28	28354.13
827.46	28266.06
827.64	28196.43
827.81	28014.16
827.99	27780.70
828.17	28169.81
828.35	28003.92
828.53	27928.15
828.70	27645.53
828.88	27940.44
829.06	27817.56
829.24	27934.29
829.41	27948.63
829.59	27913.81
829.77	27240.03
829.95	27643.48
830.12	27432.54
830.30	27606.62
830.48	27479.64
830.66	27467.36
830.84	27498.08
831.01	27436.64
831.19	27289.18
831.37	27225.70
831.55	26998.37
831.72	27078.24
831.90	27186.79
832.08	27332.19
832.25	27039.33
832.43	27285.09
832.61	26834.53
832.79	26809.96
832.96	26867.30
833.14	26928.74
833.32	26769.00
833.50	26916.45
833.67	27145.83
833.85	26639.98
834.03	26785.38
834.20	26799.72
834.38	26646.12
834.56	26938.98
834.74	26650.22
834.91	26613.35
835.09	26515.05
835.27	26238.58
835.44	26422.89
835.62	26068.59
835.80	26187.38
835.98	26250.86
836.15	26365.55
836.33	26154.61
836.51	26482.28
836.68	26211.95
836.86	25804.41
837.04	25994.87
837.21	26013.30
837.39	26306.16
837.57	26207.86
837.75	25923.19
837.92	25806.45
838.10	25585.27
838.28	25783.93
838.45	25558.65
838.63	26009.20
838.81	25826.93
838.98	25581.18
839.16	25425.53
839.34	25454.20
839.51	25325.18
839.69	25122.43
839.87	25276.03
840.04	25388.67
840.22	25423.48
840.40	25149.06
840.57	25073.28
840.75	25542.27
840.93	24903.30
841.10	25271.93
841.28	25400.96
841.46	25321.09
841.63	25261.69
841.81	25187.97
841.98	25077.38
842.16	25206.40
842.34	25110.14
842.51	24839.81
842.69	25126.53
842.87	24850.05
843.04	24923.78
843.22	24856.20
843.40	24723.08
843.57	24692.36
843.75	25153.15
843.92	24524.43
844.10	24796.81
844.28	24700.55
844.45	24956.55
844.63	24626.82
844.81	24293.01
844.98	24604.30
845.16	24622.73
845.33	24630.92
845.51	24243.85
845.69	24659.59
845.86	24465.03
846.04	24311.44
846.21	24346.25
846.39	24065.68
846.57	24071.82
846.74	23994.00
846.92	24071.82
847.09	24250.00
847.27	24037.01
847.45	23858.84
847.62	24108.69
847.80	24196.75
847.97	23883.41
848.15	24016.53
848.32	23525.02
848.50	24061.58
848.68	23686.81
848.85	23705.24
849.03	23701.14
849.20	23572.12
849.38	23748.25
849.56	23670.42
849.73	23430.81
849.91	23432.86
850.08	23957.14
850.26	23512.73
850.43	23482.01
850.61	23570.07
850.78	23209.63
850.96	23273.12
851.14	22927.01
851.31	23244.45
851.49	23092.90
851.66	23664.28
851.84	23232.16
852.01	23348.89
852.19	23078.56
852.36	22933.15
852.54	22900.39
852.71	23127.71
852.89	23078.56
853.07	22922.91
853.24	23049.89
853.42	22976.16
853.59	22916.77
853.77	23056.03
853.94	22904.48
854.12	23275.16
854.29	22877.86
854.47	22881.95
854.64	22746.79
854.82	22591.14
854.99	22828.71
855.17	22570.66
855.34	22587.05
855.52	22369.96
855.69	22685.35
855.87	22574.76
856.04	22349.48
856.22	22685.35
856.39	22288.04
856.57	22318.76
856.74	22335.15
856.92	22183.60
857.09	22097.58
857.27	22007.47
857.44	22195.89
857.62	22140.59
857.79	22032.05
857.97	22308.52
858.14	22226.60
858.32	22140.59
858.49	22171.31
858.67	21989.04
858.84	21837.49
859.02	21989.04
859.19	21952.18
859.37	21874.35
859.54	21507.77
859.72	21755.57
859.89	21720.76
860.06	21823.16
860.24	21708.47
860.41	21610.17
860.59	21530.30
860.76	21608.12
860.94	21497.53
861.11	21782.20
861.29	21364.41
861.46	21266.11
861.64	21221.05
861.81	21282.49
861.98	21448.38
862.16	21059.26
862.33	20844.23
862.51	20993.73
862.68	21124.80
862.86	21206.72
863.03	21079.74
863.21	21061.31
863.38	21071.55
863.55	21276.35
863.73	21104.32
863.90	21163.71
864.08	21073.60
864.25	20868.80
864.43	20844.23
864.60	20780.74
864.77	20621.00
864.95	20858.56
865.12	20553.41
865.30	20725.44
865.47	20784.83
865.64	20786.88
865.82	20709.06
865.99	20885.19
866.17	20405.96
866.34	20770.50
866.51	20383.43
866.69	20940.48
866.86	20434.63
867.04	20612.81
867.21	20340.43
867.38	20440.78
867.56	20188.88
867.73	20401.86
867.91	20149.96
868.08	20410.06
868.25	20213.45
868.43	19924.69
868.60	19873.49
868.78	19832.53
868.95	20139.72
869.12	19889.87
869.30	19701.46
869.47	20127.44
869.64	19883.73
869.82	20068.05
869.99	19793.62
870.16	19928.78
870.34	19789.52
870.51	19701.46
870.69	19775.19
870.86	19873.49
871.03	19599.06
871.21	19492.57
871.38	19633.88
871.55	19474.13
871.73	19470.04
871.90	19246.81
872.07	19363.54
872.25	19357.40
872.42	19369.69
872.59	19226.33
872.77	19019.49
872.94	19220.19
873.11	19226.33
873.29	19259.10
873.46	18999.01
873.63	19154.65
873.81	19119.84
873.98	18812.64
874.15	18900.70
874.33	18634.47
874.50	18677.48
874.67	18593.51
874.85	18859.74
875.02	18620.13
875.19	18603.75
875.37	18493.16
875.54	18548.45
875.71	18714.34
875.88	18480.87
876.06	18683.62
876.23	18312.94
876.40	18233.07
876.58	18314.98
876.75	18325.22
876.92	18032.36
877.10	18192.11
877.27	18056.94
877.44	18243.31
877.61	18050.80
877.79	17913.58
877.96	18181.87
878.13	18069.23
878.31	17911.53
878.48	18013.93
878.65	17932.01
878.82	17569.52
879.00	18067.18
879.17	17944.30
879.34	17723.12
879.51	17463.03
879.69	17737.46
879.86	17669.87
880.03	17598.20
880.21	17798.90
880.38	17585.91
880.55	17432.31
880.72	17370.87
880.90	17661.68
881.07	17510.13
881.24	17463.03
881.41	17424.12
881.59	17131.26
881.76	17266.42
881.93	17219.32
882.10	17092.35
882.28	16924.41
882.45	17444.60
882.62	16940.80
882.79	17229.56
882.96	16867.07
883.14	16989.95
883.31	17278.71
883.48	16994.04
883.65	17057.53
883.83	16975.61
884.00	17018.62
884.17	17016.57
884.34	17139.45
884.51	16762.62
884.69	16981.76
884.86	16826.11
885.03	16834.30
885.20	16762.62
885.38	16789.25
885.55	16715.52
885.72	16600.83
885.89	16264.97
886.06	16484.10
886.24	16615.17
886.41	16682.75
886.58	16697.09
886.75	16549.64
886.92	16367.37
887.10	17018.62
887.27	16359.17
887.44	16625.41
887.61	16682.75
887.78	16828.16
887.95	16416.52
888.13	16254.73
888.30	16275.21
888.47	16426.76
888.64	16207.62
888.81	16416.52
888.99	16164.62
889.16	15871.76
889.33	16045.84
889.50	16172.81
889.67	15947.53
889.84	15935.24
890.01	15941.39
890.19	15959.82
890.36	16023.31
890.53	15898.38
890.70	15716.11
890.87	15816.46
891.04	16137.99
891.22	15722.26
891.39	15814.41
891.56	15822.61
891.73	15609.62
891.90	15798.03
892.07	15503.12
892.24	15752.98
892.42	15671.06
892.59	15509.27
892.76	15388.44
892.93	15480.60
893.10	15566.61
893.27	15607.57
893.44	15386.39
893.61	15423.25
893.79	15623.95
893.96	15398.68
894.13	15433.49
894.30	15316.76
894.47	15281.94
894.64	15691.54
894.81	15279.89
894.98	15335.19
895.15	15220.50
895.33	15421.20
895.50	15210.26
895.67	15533.84
895.84	15421.20
896.01	15269.66
896.18	14958.36
896.35	15433.49
896.52	15361.81
896.69	15339.29
896.86	15339.29
897.04	15533.84
897.21	15314.71
897.38	15251.22
897.55	15163.16
897.72	15204.12
897.89	14974.75
898.06	14991.13
898.23	15212.31
898.40	15142.68
898.57	15204.12
898.74	15341.33
898.91	15144.73
899.08	15257.37
899.26	15402.77
899.43	15347.48
899.60	15308.57
899.77	15161.11
899.94	15011.61
900.11	14970.65
900.28	15191.83
900.45	15208.22
900.62	14941.98
900.79	15154.97
900.96	14915.36
901.13	15271.70
901.30	15062.81
901.47	15079.19
901.64	14999.32
901.81	15193.88
901.98	15091.48
902.15	15372.05
902.32	14991.13
902.49	15050.52
902.66	15034.14
902.83	14972.70
903.01	15087.39
903.18	15128.35
903.35	15185.69
903.52	15001.37
903.69	14999.32
903.86	14954.27
904.03	15023.90
904.20	15089.43
904.37	15224.60
904.54	15079.19
904.71	15021.85
904.88	15017.75
905.05	14907.16
905.22	14645.02
905.39	15120.15
905.56	15079.19
905.73	14888.73
905.90	15032.09
906.07	15056.67
906.24	15013.66
906.41	15107.87
906.58	15187.74
906.75	14860.06
906.92	14630.69
907.09	14675.74
907.26	14935.84
907.43	14718.75
907.60	14868.25
907.77	14806.81
907.93	14855.97
908.10	14800.67
908.27	15202.07
908.44	14694.18
908.61	14831.39
908.78	14982.94
908.95	14968.60
909.12	14810.91
909.29	14819.10
909.46	14849.82
909.63	15136.54
909.80	14812.96
909.97	14894.88
910.14	14618.40
910.31	14663.46
910.48	14782.24
910.65	14606.11
910.82	14761.76
910.99	14421.80
911.16	14667.55
911.33	14815.01
911.50	14657.31
911.66	14358.31
911.83	14728.99
912.00	14401.32
912.17	14290.73
912.34	14536.48
912.51	14595.87
912.68	14173.99
912.85	14493.47
913.02	14366.50
913.19	14473.00
913.36	14505.76
913.53	14399.27
913.70	14397.22
913.86	14448.42
914.03	14348.07
914.20	14405.41
914.37	13948.72
914.54	14284.58
914.71	14137.13
914.88	14192.42
915.05	13807.41
915.22	14038.83
915.39	14055.21
915.55	13981.48
915.72	13664.05
915.89	14094.12
916.06	14067.50
916.23	13981.48
916.40	13889.32
916.57	13549.36
916.74	13799.21
916.91	13901.61
917.07	13455.15
917.24	13606.70
917.41	13717.29
917.58	13772.59
917.75	13408.05
917.92	13506.35
918.09	13709.10
918.26	13442.87
918.42	13389.62
918.59	13438.77
918.76	13307.70
918.93	13219.64
919.10	13100.86
919.27	13113.14
919.44	13240.12
919.60	13307.70
919.77	13129.53
919.94	13107.00
920.11	13031.23
920.28	12906.30
920.45	12887.87
920.61	12777.28
920.78	12963.64
920.95	12846.91
921.12	12726.08
921.29	12701.50
921.46	12617.54
921.62	12529.47
921.79	12738.37
921.96	12427.07
922.13	12660.54
922.30	12683.07
922.47	12535.62
922.63	12496.71
922.80	12402.50
922.97	12265.28
923.14	11972.43
923.31	12300.10
923.47	12033.86
923.64	12345.16
923.81	11974.47
923.98	12148.55
924.15	11968.33
924.32	12019.53
924.48	11878.22
924.65	12099.40
924.82	12025.67
924.99	11743.05
925.15	11630.41
925.32	11880.27
925.49	11532.11
925.66	11681.61
925.83	11517.78
925.99	11523.92
926.16	11558.74
926.33	11646.80
926.50	11323.22
926.67	11386.71
926.83	11482.96
927.00	11292.50
927.17	11276.12
927.34	10979.16
927.50	11253.59
927.67	11333.46
927.84	10932.06
928.01	11052.89
928.17	11011.93
928.34	11028.31
928.51	10852.19
928.68	10930.01
928.84	10807.13
929.01	10610.53
929.18	10528.61
929.35	10731.36
929.51	10633.05
929.68	10690.40
929.85	10651.49
930.02	10583.90
930.18	10559.33
930.35	10381.15
930.52	10381.15
930.69	10467.17
930.85	10315.62
931.02	10262.37
931.19	10186.60
931.36	10278.76
931.52	10078.05
931.69	10162.02
931.86	10065.77
932.02	9881.45
932.19	9867.11
932.36	9817.96
932.53	9756.52
932.69	9699.18
932.86	9932.65
933.03	9723.76
933.19	9527.15
933.36	9688.94
933.53	9604.97
933.70	9666.41
933.86	9514.86
934.03	9439.09
934.20	9299.83
934.36	9340.79
934.53	9115.51
934.70	9049.97
934.86	9164.66
935.03	9088.89
935.20	8886.14
935.36	8834.94
935.53	8908.66
935.70	8888.18
935.86	8789.88
936.03	8791.93
936.20	8503.17
936.36	8660.86
936.53	8368.00
936.70	8589.18
936.86	8456.06
937.03	8269.70
937.20	8120.20
937.36	8105.86
937.53	7739.27
937.70	7962.50
937.86	7843.72
938.03	7907.21
938.20	7729.03
938.36	7647.12
938.53	7675.79
938.70	7341.97
938.86	7387.02
939.03	7493.52
939.20	7176.08
939.36	7176.08
939.53	7118.74
939.70	7307.15
939.86	6684.57
940.03	6746.01
940.19	6748.06
940.36	6844.31
940.53	6743.96
940.69	6623.13
940.86	6743.96
941.03	6408.09
941.19	6324.13
941.36	6350.75
941.52	6381.47
941.69	6221.73
941.86	6076.32
942.02	6117.28
942.19	6131.62
942.35	6113.19
942.52	5955.49
942.69	5873.57
942.85	5873.57
943.02	5998.50
943.18	5894.05
943.35	5861.29
943.52	5656.49
943.68	5724.07
943.85	5631.91
944.01	5611.43
944.18	5588.91
944.35	5500.84
944.51	5558.19
944.68	5232.56
944.84	5468.08
945.01	5316.53
945.17	5533.61
945.34	5406.64
945.51	5416.88
945.67	5492.65
945.84	5310.38
946.00	5396.40
946.17	5238.70
946.33	5267.38
946.50	5197.74
946.67	5324.72
946.83	5111.73
947.00	5332.91
947.16	5222.32
947.33	5087.15
947.49	5398.45
947.66	5230.51
947.82	5255.09
947.99	5279.66
948.16	5242.80
948.32	5167.03
948.49	5253.04
948.65	5361.58
948.82	5158.83
948.98	5216.18
949.15	5304.24
949.31	5259.18
949.48	5216.18
949.64	5234.61
949.81	5261.23
949.97	5117.87
950.14	5259.18
950.30	5214.13
950.47	5304.24
950.63	5287.86
950.80	5236.66
950.96	5259.18
951.13	5089.20
951.30	5089.20
951.46	5222.32
951.63	5420.97
951.79	5382.06
951.96	5363.63
952.12	5365.68
952.29	5369.77
952.45	5220.27
952.62	5388.21
952.78	5420.97
952.94	5271.47
953.11	5279.66
953.27	5185.46
953.44	5486.51
953.60	5359.53
953.77	5459.88
953.93	5449.64
954.10	5408.69
954.26	5318.57
954.43	5363.63
954.59	5394.35
954.76	5498.80
954.92	5291.95
955.09	5556.14
955.25	5427.12
955.42	5441.45
955.58	5531.56
955.75	5412.78
955.91	5334.96
956.07	5361.58
956.24	5394.35
956.40	5572.52
956.57	5463.98
956.73	5349.29
956.90	5396.40
957.06	5400.49
957.23	5472.17
957.39	5285.81
957.56	5574.57
957.72	5334.96
957.88	5435.31
958.05	5535.66
958.21	5631.91
958.38	5414.83
958.54	5318.57
958.71	5550.00
958.87	5318.57
959.03	5425.07
959.20	5468.08
959.36	5490.60
959.53	5410.73
959.69	5289.90
959.85	5511.08
960.02	5328.81
960.18	5435.31
960.35	5416.88
960.51	5584.81
960.68	5296.05
960.84	5535.66
961.00	5306.29
961.17	5400.49
961.33	5377.97
961.50	5396.40
961.66	5431.21
961.82	5349.29
961.99	5554.09
962.15	5277.62
962.31	5347.25
962.48	5244.85
962.64	5482.41
962.81	5355.44
962.97	5398.45
963.13	5453.74
963.30	5314.48
963.46	5277.62
963.62	5248.94
963.79	5279.66
963.95	5279.66
964.12	5384.11
964.28	5404.59
964.44	5230.51
964.61	5310.38
964.77	5324.72
964.93	5427.12
965.10	5160.88
965.26	5173.17
965.42	5162.93
965.59	5074.87
965.75	5230.51
965.92	5337.01
966.08	5377.97
966.24	5363.63
966.41	5199.79
966.57	5259.18
966.73	5259.18
966.90	5310.38
967.06	5216.18
967.22	5087.15
967.39	5281.71
967.55	5144.50
967.71	5218.22
967.88	5187.50
968.04	5011.38
968.20	5136.31
968.37	5095.35
968.53	5146.55
968.69	5154.74
968.85	5337.01
969.02	5169.07
969.18	5199.79
969.34	4982.71
969.51	5279.66
969.67	5050.29
969.83	4911.03
970.00	5050.29
970.16	5101.49
970.32	5124.02
970.48	5171.12
970.65	4919.22
970.81	4966.32
970.97	4999.09
971.14	4906.93
971.30	5136.31
971.46	5035.96
971.63	5025.72
971.79	5142.45
971.95	4896.69
972.11	4935.60
972.28	4972.47
972.44	4999.09
972.60	4743.10
972.76	5021.62
972.93	4853.69
973.09	5050.29
973.25	4921.27
973.42	4892.60
973.58	4929.46
973.74	4880.31
973.90	4929.46
974.07	4939.70
974.23	4853.69
974.39	4810.68
974.55	4853.69
974.72	4859.83
974.88	4636.60
975.04	4796.34
975.20	4771.77
975.37	4853.69
975.53	4677.56
975.69	4859.83
975.85	4708.28
976.01	4618.17
976.18	4634.55
976.34	4644.79
976.50	4810.68
976.66	4747.19
976.83	4646.84
976.99	4663.22
977.15	4599.74
977.31	4601.79
977.47	4831.16
977.64	4700.09
977.80	4671.42
977.96	4605.88
978.12	4612.03
978.29	4497.34
978.45	4562.87
978.61	4626.36
978.77	4614.07
978.93	4552.63
979.10	4544.44
979.26	4519.87
979.42	4431.80
979.58	4372.41
979.74	4501.44
979.91	4464.57
980.07	4454.33
980.23	4456.38
980.39	4419.52
980.55	4372.41
980.71	4296.64
980.88	4509.63
981.04	4323.26
981.20	4415.42
981.36	4382.65
981.52	4401.08
981.68	4323.26
981.85	4446.14
982.01	4247.49
982.17	4335.55
982.33	4396.99
982.49	4485.05
982.65	4272.06
982.82	4378.56
982.98	4286.40
983.14	4155.33
983.30	4425.66
983.46	4136.90
983.62	4362.17
983.79	4282.30
983.95	4360.13
984.11	4036.55
984.27	4212.67
984.43	4184.00
984.59	4167.62
984.75	4237.25
984.91	4073.41
985.08	4331.45
985.24	4020.16
985.40	4011.97
985.56	4093.89
985.72	4108.23
985.88	4227.01
986.04	3993.54
986.20	4024.26
986.37	4067.27
986.53	3960.77
986.69	4079.55
986.85	3973.06
987.01	3985.35
987.17	3966.92
987.33	4057.03
987.49	3964.87
987.65	4005.83
987.82	4005.83
987.98	3932.10
988.14	4030.40
988.30	3878.85
988.46	3981.25
988.62	3940.29
988.78	3952.58
988.94	3899.33
989.10	3801.03
989.26	3786.69
989.42	3796.93
989.59	3815.37
989.75	3844.04
989.91	3743.69
990.07	3772.36
990.23	3755.97
990.39	3858.37
990.55	3876.80
990.71	3723.21
990.87	3770.31
991.03	3747.78
991.19	3727.30
991.35	3682.25
991.51	3723.21
991.67	3872.71
991.83	3760.07
992.00	3688.39
992.16	3815.37
992.32	3710.92
992.48	3712.97
992.64	3661.77
992.80	3577.80
992.96	3690.44
993.12	3704.78
993.28	3702.73
993.44	3694.54
993.60	3747.78
993.76	3698.63
993.92	3702.73
994.08	3708.87
994.24	3651.53
994.40	3649.48
994.56	3526.60
994.72	3475.40
994.88	3518.41
995.04	3598.28
995.20	3495.88
995.36	3571.66
995.52	3565.51
995.68	3489.74
995.84	3440.59
996.00	3467.21
996.16	3534.79
996.32	3444.68
996.48	3493.83
996.64	3522.51
996.80	3360.72
996.96	3526.60
997.12	3516.36
997.28	3366.86
997.44	3422.16
997.60	3467.21
997.76	3350.48
997.92	3426.25
998.08	3432.40
998.24	3336.14
998.40	3473.36
998.56	3452.88
998.72	3336.14
998.88	3413.96
999.04	3291.09
999.20	3383.24
999.36	3239.89
999.52	3416.01
999.68	3233.74
999.84	3346.38
1000.00	3299.28
1000.16	3362.76
1000.32	3239.89
1000.48	3381.20
1000.64	3125.20
1000.80	3217.36
1000.95	3080.14
1001.11	3305.42
1001.27	3203.02
1001.43	3157.97
1001.59	3157.97
1001.75	3114.96
1001.91	3280.85
1002.07	3092.43
1002.23	3125.20
1002.39	3080.14
1002.55	3276.75
1002.71	3117.01
1002.87	3219.41
1003.03	3026.90
1003.19	3135.44
1003.34	3231.69
1003.50	3143.63
1003.66	3178.45
1003.82	3102.67
1003.98	3030.99
1004.14	3104.72
1004.30	3071.95
1004.46	3045.33
1004.62	2994.13
1004.78	2930.64
1004.94	2992.08
1005.09	3069.91
1005.25	3051.47
1005.41	2924.50
1005.57	3012.56
1005.73	2967.51
1005.89	2906.07
1006.05	2961.36
1006.21	2963.41
1006.37	2922.45
1006.52	2957.27
1006.68	2871.25
1006.84	2926.55
1007.00	2766.81
1007.16	2942.93
1007.32	2865.11
1007.48	2926.55
1007.64	2975.70
1007.79	2908.12
1007.95	2787.29
1008.11	2953.17
1008.27	2828.24
1008.43	2938.84
1008.59	2875.35
1008.75	2820.05
1008.91	2869.20
1009.06	2801.62
1009.22	2856.92
1009.38	2879.44
1009.54	2846.68
1009.70	2803.67
1009.86	2820.05
1010.01	2801.62
1010.17	2721.75
1010.33	2830.29
1010.49	2709.46
1010.65	2803.67
1010.81	2717.65
1010.96	2705.37
1011.12	2727.89
1011.28	2691.03
1011.44	2713.56
1011.60	2723.80
1011.76	2705.37
1011.91	2742.23
1012.07	2656.22
1012.23	2691.03
1012.39	2684.89
1012.55	2695.13
1012.71	2672.60
1012.86	2678.74
1013.02	2588.63
1013.18	2645.98
1013.34	2607.06
1013.50	2664.41
1013.65	2652.12
1013.81	2529.24
1013.97	2582.49
1014.13	2680.79
1014.29	2512.86
1014.44	2666.46
1014.60	2459.61
1014.76	2588.63
1014.92	2547.67
1015.07	2570.20
1015.23	2559.96
1015.39	2516.95
1015.55	2514.91
1015.71	2449.37
1015.86	2432.99
1016.02	2488.28
1016.18	2461.66
1016.34	2463.71
1016.49	2516.95
1016.65	2559.96
1016.81	2506.71
1016.97	2562.01
1017.12	2557.91
1017.28	2500.57
1017.44	2396.12
1017.60	2488.28
1017.75	2504.67
1017.91	2504.67
1018.07	2346.97
1018.23	2488.28
1018.38	2473.95
1018.54	2498.52
1018.70	2543.58
1018.86	2451.42
1019.01	2320.35
1019.17	2426.84
1019.33	2414.56
1019.49	2365.40
1019.64	2498.52
1019.80	2332.64
1019.96	2467.80
1020.12	2334.68
1020.27	2359.26
1020.43	2359.26
1020.59	2451.42
1020.74	2412.51
1020.90	2475.99
1021.06	2338.78
1021.22	2330.59
1021.37	2353.12
1021.53	2328.54
1021.69	2422.75
1021.84	2322.40
1022.00	2346.97
1022.16	2398.17
1022.31	2285.53
1022.47	2385.88
1022.63	2424.80
1022.79	2236.38
1022.94	2269.15
1023.10	2318.30
1023.26	2256.86
1023.41	2287.58
1023.57	2283.49
1023.73	2269.15
1023.88	2256.86
1024.04	2301.92
1024.20	2179.04
1024.35	2306.01
1024.51	2267.10
1024.67	2260.96
1024.82	2265.05
1024.98	2142.18
1025.14	2267.10
1025.29	2220.00
1025.45	2303.96
1025.61	2199.52
1025.76	2201.57
1025.92	2131.94
1026.08	2232.29
1026.23	2195.42
1026.39	2209.76
1026.55	2244.57
1026.70	2191.33
1026.86	2103.26
1027.02	2197.47
1027.17	2154.46
1027.33	2232.29
1027.48	2222.05
1027.64	2166.75
1027.80	2107.36
1027.95	2183.13
1028.11	2068.45
1028.27	2187.23
1028.42	2174.94
1028.58	2123.74
1028.73	2105.31
1028.89	2033.63
1029.05	2220.00
1029.20	2109.41
>>>>>End Processed Spectral Data<<<<<
