SpectraSuite Data File
++++++++++++++++++++++++++++++++++++
Date: Fri Jun 02 14:57:17 CEST 2017
User: INFO_000
Dark Spectrum Present: No
Reference Spectrum Present: No
Number of Sampled Component Spectra: 1
Spectrometers: USB4H00879
Integration Time (usec): 80000 (USB4H00879)
Spectra Averaged: 1 (USB4H00879)
Boxcar Smoothing: 0 (USB4H00879)
Correct for Electrical Dark: No (USB4H00879)
Strobe/Lamp Enabled: No (USB4H00879)
Correct for Detector Non-linearity: No (USB4H00879)
Correct for Stray Light: No (USB4H00879)
Number of Pixels in Processed Spectrum: 3648
>>>>>Begin Processed Spectral Data<<<<<
345.13	1294.32
345.34	1294.32
345.56	1294.32
345.78	1206.25
345.99	1253.36
346.21	1697.77
346.42	1714.15
346.64	1601.51
346.86	1757.16
347.07	1626.09
347.29	1642.47
347.50	1576.94
347.72	1638.38
347.94	1712.10
348.15	1560.55
348.37	1578.98
348.59	1726.44
348.80	1677.29
349.02	1757.16
349.23	1832.93
349.45	1763.30
349.67	1869.80
349.88	1744.87
350.10	1994.72
350.31	1855.46
350.53	1857.51
350.75	1914.85
350.96	1834.98
351.18	1791.97
351.39	1810.40
351.61	1789.92
351.82	1851.36
352.04	1744.87
352.26	1791.97
352.47	1871.84
352.69	1839.08
352.90	1740.77
353.12	1843.17
353.34	1826.79
353.55	1910.75
353.77	1890.28
353.98	1902.56
354.20	1720.29
354.41	1912.80
354.63	1896.42
354.85	2031.58
355.06	1818.60
355.28	1834.98
355.49	1837.03
355.71	1875.94
355.92	1910.75
356.14	1900.52
356.35	1880.04
356.57	1863.65
356.79	1925.09
357.00	1875.94
357.22	1904.61
357.43	1843.17
357.65	1978.34
357.86	1884.13
358.08	1886.18
358.29	1945.57
358.51	2007.01
358.72	1986.53
358.94	1929.19
359.16	1959.91
359.37	1910.75
359.59	1902.56
359.80	1968.10
360.02	1904.61
360.23	1953.76
360.45	2027.49
360.66	1884.13
360.88	1888.23
361.09	1865.70
361.31	2066.40
361.52	1951.71
361.74	2033.63
361.95	2043.87
362.17	1888.23
362.38	1984.48
362.60	2076.64
362.81	1964.00
363.03	1929.19
363.24	1945.57
363.46	2105.31
363.67	1947.62
363.89	2021.35
364.10	1945.57
364.32	2025.44
364.53	2015.20
364.75	1880.04
364.96	2035.68
365.18	2019.30
365.39	2031.58
365.61	2023.39
365.82	2105.31
366.04	1935.33
366.25	1912.80
366.47	2002.91
366.68	2019.30
366.90	2021.35
367.11	2158.56
367.33	2050.02
367.54	2103.26
367.76	1978.34
367.97	2015.20
368.19	2017.25
368.40	2105.31
368.62	1910.75
368.83	1986.53
369.05	2117.60
369.26	2066.40
369.48	2002.91
369.69	2019.30
369.91	2007.01
370.12	1912.80
370.33	2084.83
370.55	1929.19
370.76	2037.73
370.98	2136.03
371.19	2105.31
371.41	2060.26
371.62	2086.88
371.84	2039.78
372.05	2058.21
372.27	2121.70
372.48	2058.21
372.69	2047.97
372.91	2156.51
373.12	2170.85
373.34	2064.35
373.55	2123.74
373.77	2146.27
373.98	2127.84
374.20	2158.56
374.41	2240.48
374.62	2176.99
374.84	2211.81
375.05	2201.57
375.27	2191.33
375.48	2133.98
375.70	2174.94
375.91	2234.33
376.12	2322.40
376.34	2183.13
376.55	2158.56
376.77	2234.33
376.98	2117.60
377.19	2133.98
377.41	2263.01
377.62	2187.23
377.84	2244.57
378.05	2322.40
378.27	2269.15
378.48	2265.05
378.69	2371.55
378.91	2275.29
379.12	2222.05
379.34	2129.89
379.55	2289.63
379.76	2224.09
379.98	2240.48
380.19	2246.62
380.41	2367.45
380.62	2363.36
380.83	2234.33
381.05	2217.95
381.26	2394.08
381.47	2215.90
381.69	2297.82
381.90	2437.08
382.12	2306.01
382.33	2293.72
382.54	2353.12
382.76	2308.06
382.97	2293.72
383.19	2224.09
383.40	2439.13
383.61	2285.53
383.83	2250.72
384.04	2281.44
384.25	2346.97
384.47	2400.22
384.68	2410.46
384.89	2303.96
385.11	2344.92
385.32	2349.02
385.54	2369.50
385.75	2355.16
385.96	2478.04
386.18	2361.31
386.39	2375.64
386.60	2318.30
386.82	2404.32
387.03	2467.80
387.24	2437.08
387.46	2439.13
387.67	2443.23
387.88	2539.48
388.10	2459.61
388.31	2490.33
388.52	2535.39
388.74	2484.19
388.95	2490.33
389.16	2592.73
389.38	2412.51
389.59	2555.86
389.80	2592.73
390.02	2605.02
390.23	2553.82
390.44	2619.35
390.66	2529.24
390.87	2547.67
391.08	2596.82
391.30	2711.51
391.51	2775.00
391.72	2701.27
391.94	2762.71
392.15	2602.97
392.36	2598.87
392.58	2600.92
392.79	2670.55
393.00	2633.69
393.22	2652.12
393.43	2709.46
393.64	2824.15
393.85	2754.52
394.07	2576.34
394.28	2723.80
394.49	2822.10
394.71	2684.89
394.92	2820.05
395.13	2662.36
395.35	2672.60
395.56	2815.96
395.77	2867.16
395.98	2895.83
396.20	2877.40
396.41	2926.55
396.62	2953.17
396.84	2842.58
397.05	2803.67
397.26	2895.83
397.47	2920.40
397.69	2799.57
397.90	2967.51
398.11	2985.94
398.32	2969.55
398.54	2801.62
398.75	2965.46
398.96	2875.35
399.18	2994.13
399.39	2940.88
399.60	2971.60
399.81	2959.31
400.03	2918.36
400.24	3295.18
400.45	2983.89
400.66	3139.54
400.88	2899.92
401.09	3145.68
401.30	3065.81
401.51	3194.83
401.73	3125.20
401.94	3198.93
402.15	3133.39
402.36	3149.78
402.58	3178.45
402.79	3194.83
403.00	3055.57
403.21	3305.42
403.43	3215.31
403.64	3190.74
403.85	3059.67
404.06	3223.50
404.27	3076.05
404.49	3248.08
404.70	3235.79
404.91	3270.61
405.12	3321.81
405.34	3317.71
405.55	3389.39
405.76	3184.59
405.97	3233.74
406.19	3289.04
406.40	3303.37
406.61	3280.85
406.82	3270.61
407.03	3284.94
407.25	3358.67
407.46	3305.42
407.67	3469.26
407.88	3514.31
408.09	3389.39
408.31	3385.29
408.52	3362.76
408.73	3428.30
408.94	3409.87
409.15	3506.12
409.37	3561.42
409.58	3463.12
409.79	3530.70
410.00	3606.47
410.21	3477.45
410.43	3571.66
410.64	3319.76
410.85	3495.88
411.06	3585.99
411.27	3545.03
411.48	3514.31
411.70	3592.14
411.91	3547.08
412.12	3663.82
412.33	3614.66
412.54	3684.30
412.76	3706.82
412.97	3661.77
413.18	3510.22
413.39	3676.10
413.60	3696.58
413.81	3764.17
414.03	3563.47
414.24	3661.77
414.45	3915.72
414.66	3567.56
414.87	3706.82
415.08	3710.92
415.30	3747.78
415.51	3854.28
415.72	3715.02
415.93	3794.89
416.14	3721.16
416.35	3823.56
416.56	3788.74
416.78	3846.09
416.99	3899.33
417.20	3817.41
417.41	3901.38
417.62	3801.03
417.83	3917.76
418.04	3950.53
418.26	3950.53
418.47	4032.45
418.68	3987.40
418.89	4116.42
419.10	4097.99
419.31	4024.26
419.52	4110.27
419.73	4083.65
419.95	3909.57
420.16	4038.59
420.37	4138.94
420.58	4181.95
420.79	3960.77
421.00	4155.33
421.21	4163.52
421.42	4100.03
421.63	4259.78
421.85	4083.65
422.06	4282.30
422.27	4204.48
422.48	4216.77
422.69	4243.39
422.90	4104.13
423.11	4224.96
423.32	4376.51
423.53	4460.48
423.75	4329.41
423.96	4378.56
424.17	4497.34
424.38	4511.68
424.59	4495.29
424.80	4497.34
425.01	4456.38
425.22	4431.80
425.43	4374.46
425.64	4720.57
425.85	4569.02
426.06	4519.87
426.28	4622.27
426.49	4489.15
426.70	4458.43
426.91	4683.70
427.12	4687.80
427.33	4646.84
427.54	4499.39
427.75	4538.30
427.96	4935.60
428.17	4695.99
428.38	4794.29
428.59	4927.41
428.80	4796.34
429.01	4874.17
429.23	4853.69
429.44	4988.85
429.65	4900.79
429.86	4933.56
430.07	4927.41
430.28	4888.50
430.49	5033.91
430.70	5146.55
430.91	5044.15
431.12	4951.99
431.33	5242.80
431.54	5076.91
431.75	5048.24
431.96	5232.56
432.17	5181.36
432.38	5044.15
432.59	5377.97
432.80	5197.74
433.01	5246.90
433.22	5296.05
433.43	5283.76
433.64	5287.86
433.85	5355.44
434.06	5466.03
434.27	5265.33
434.49	5343.15
434.70	5509.04
434.91	5388.21
435.12	5511.08
435.33	5574.57
435.54	5310.38
435.75	5392.30
435.96	5406.64
436.17	5359.53
436.38	5451.69
436.59	5572.52
436.80	5570.48
437.01	5781.42
437.22	5717.93
437.43	5654.44
437.64	5537.71
437.85	5769.13
438.06	5814.18
438.27	5605.29
438.48	5758.89
438.69	5787.56
438.90	5814.18
439.11	5662.63
439.32	5869.48
439.53	5726.12
439.74	5836.71
439.95	5824.42
440.16	5945.25
440.37	5918.63
440.57	5801.90
440.78	5998.50
440.99	6076.32
441.20	5857.19
441.41	5963.68
441.62	5980.07
441.83	5916.58
442.04	5996.45
442.25	5978.02
442.46	5980.07
442.67	6186.91
442.88	6573.98
443.09	6023.08
443.30	6260.64
443.51	6279.07
443.72	6391.71
443.93	6086.56
444.14	6440.86
444.35	6242.21
444.56	6287.26
444.77	6356.90
444.98	6365.09
445.19	6434.72
445.40	6522.78
445.61	6293.41
445.81	6524.83
446.02	6510.49
446.23	6412.19
446.44	6426.53
446.65	6539.16
446.86	6463.39
447.07	6768.54
447.28	6760.34
447.49	6711.19
447.70	6690.71
447.91	6811.54
448.12	6637.47
448.33	6920.09
448.54	6786.97
448.74	6655.90
448.95	6795.16
449.16	6829.98
449.37	7014.29
449.58	7042.96
449.79	7065.49
450.00	6922.13
450.21	6918.04
450.42	7102.36
450.63	7020.44
450.84	6975.38
451.05	7038.87
451.25	7133.08
451.46	7088.02
451.67	7231.38
451.88	7288.72
452.09	7274.38
452.30	7301.01
452.51	7268.24
452.72	7358.35
452.93	7606.16
453.13	7339.92
453.34	7458.70
453.55	7303.06
453.76	7325.58
453.97	7753.61
454.18	7520.14
454.39	7528.33
454.60	7415.69
454.81	7690.12
455.01	7761.80
455.22	7503.76
455.43	7591.82
455.64	7921.54
455.85	7851.91
456.06	8054.66
456.27	7946.12
456.48	7686.03
456.68	7884.68
456.89	7823.24
457.10	8120.20
457.31	7956.36
457.52	7991.17
457.73	8175.49
457.94	8380.29
458.14	7929.74
458.35	8482.69
458.56	8361.86
458.77	8191.88
458.98	8486.78
459.19	8365.95
459.39	8433.54
459.60	8566.65
459.81	8343.42
460.02	8646.52
460.23	8580.99
460.44	8832.89
460.65	8759.16
460.85	8882.04
461.06	8722.30
461.27	8318.85
461.48	9078.65
461.69	9166.71
461.89	8634.24
462.10	8832.89
462.31	8726.39
462.52	8996.73
462.73	9004.92
462.94	9308.02
463.14	8945.53
463.35	8955.77
463.56	9475.95
463.77	9482.10
463.98	9269.11
464.18	9359.22
464.39	9465.71
464.60	9731.95
464.81	9592.69
465.02	9447.28
465.23	9897.83
465.43	9504.62
465.64	9883.50
465.85	9797.48
466.06	9570.16
466.27	10188.64
466.47	9949.03
466.68	10125.16
466.89	9901.93
467.10	10106.73
467.30	9809.77
467.51	10237.80
467.72	10432.35
467.93	10170.21
468.14	10442.59
468.34	10626.91
468.55	10528.61
468.76	10659.68
468.97	10327.91
469.17	10493.79
469.38	10739.55
469.59	10909.53
469.80	10688.35
470.01	10719.07
470.21	10962.78
470.42	11102.04
470.63	11120.47
470.84	10930.01
471.04	11284.31
471.25	11183.96
471.46	11276.12
471.67	11603.79
471.87	11460.43
472.08	11429.71
472.29	11892.55
472.50	11446.10
472.70	11636.56
472.91	11605.84
473.12	11775.82
473.33	11941.71
473.53	11980.62
473.74	11824.97
473.95	12123.98
474.16	12205.89
474.36	12128.07
474.57	12392.26
474.78	12568.38
474.99	12375.88
475.19	12357.44
475.40	12785.47
475.61	12705.60
475.81	12971.83
476.02	13143.86
476.23	12908.35
476.44	12961.59
476.64	13387.57
476.85	13567.79
477.06	13236.02
477.27	13430.58
477.47	13459.25
477.68	13463.35
477.89	13934.38
478.09	13848.36
478.30	13967.15
478.51	13879.08
478.71	14069.55
478.92	14386.98
479.13	14196.52
479.34	14487.33
479.54	14475.04
479.75	14470.95
479.96	14597.92
480.16	14534.43
480.37	14610.21
480.58	14935.84
480.78	15238.94
480.99	15068.95
481.20	15421.20
481.41	15279.89
481.61	15472.40
481.82	15515.41
482.03	15447.83
482.23	15374.10
482.44	15720.21
482.65	15865.61
482.85	15779.60
483.06	15650.58
483.27	15871.76
483.47	16156.43
483.68	16019.21
483.89	16074.51
484.09	16498.44
484.30	16430.85
484.51	16742.14
484.71	16746.24
484.92	16944.89
485.13	17002.24
485.33	16908.03
485.54	17217.27
485.75	17166.07
485.95	17434.36
486.16	17475.32
486.37	17311.48
486.57	17432.31
486.78	17567.48
486.98	17630.96
487.19	18089.71
487.40	17815.28
487.60	17995.50
487.81	18411.24
488.02	18274.03
488.22	18185.96
488.43	18294.50
488.64	18607.84
488.84	18681.57
489.05	18542.31
489.25	18745.06
489.46	18886.37
489.67	18915.04
489.87	19242.71
490.08	19150.56
490.29	19252.95
490.49	19635.92
490.70	19398.36
490.90	19748.56
491.11	19478.23
491.32	19885.78
491.52	19785.43
491.73	19750.61
491.94	20121.29
492.14	19979.98
492.35	20412.10
492.55	20469.45
492.76	20123.34
492.97	20512.46
493.17	20545.22
493.38	20725.44
493.58	20729.54
493.79	20715.20
494.00	20848.32
494.20	21135.04
494.41	20960.96
494.61	21251.77
494.82	21388.99
495.02	21210.81
495.23	21495.48
495.44	21386.94
495.64	21935.79
495.85	21526.20
496.05	22064.82
496.26	21952.18
496.47	22187.69
496.67	21864.11
496.88	22191.79
497.08	22292.14
497.29	22331.05
497.49	22329.00
497.70	22531.75
497.91	22714.02
498.11	22640.29
498.32	22748.84
498.52	23025.31
498.73	23019.17
498.93	22836.90
499.14	23185.05
499.34	23096.99
499.55	23352.99
499.76	23285.40
499.96	23647.90
500.17	23240.35
500.37	23740.05
500.58	23731.86
500.78	23613.08
500.99	23674.52
501.19	23715.48
501.40	23830.16
501.60	23711.38
501.81	24172.18
502.02	24176.27
502.22	24057.49
502.43	24401.55
502.63	24340.11
502.84	24336.01
503.04	24454.79
503.25	24751.75
503.45	24710.79
503.66	24868.48
503.86	24759.94
504.07	25101.95
504.27	24389.26
504.48	25212.54
504.68	25001.60
504.89	25171.58
505.09	25247.36
505.30	24989.31
505.50	25155.20
505.71	25392.76
505.91	25333.37
506.12	25374.33
506.32	25605.75
506.53	25409.15
506.73	25820.79
506.94	25693.82
507.14	25484.92
507.35	25751.16
507.55	25927.28
507.76	25974.39
507.96	25683.58
508.17	26037.87
508.37	25788.02
508.58	26097.27
508.78	26224.24
508.99	26596.97
509.19	25984.63
509.40	26238.58
509.60	26144.37
509.81	26150.51
510.01	26250.86
510.22	26463.85
510.42	26400.37
510.63	26594.92
510.83	26949.22
511.04	26715.75
511.24	26875.49
511.44	26674.79
511.65	26967.65
511.85	26867.30
512.06	26895.97
512.26	27078.24
512.47	27092.58
512.67	26836.58
512.88	26822.25
513.08	26685.03
513.29	27176.55
513.49	27041.38
513.69	27272.80
513.90	27160.16
514.10	27276.90
514.31	27477.60
514.51	27418.21
514.72	27506.27
514.92	27641.43
515.13	27637.34
515.33	27659.87
515.53	27465.31
515.74	27852.38
515.94	27790.94
516.15	27823.70
516.35	27829.85
516.56	28038.74
516.76	27653.72
516.96	28024.40
517.17	28333.65
517.37	28415.57
517.58	28192.34
517.78	28255.82
517.99	28583.50
518.19	28307.02
518.39	28530.25
518.60	28466.77
518.80	28470.86
519.01	28534.35
519.21	28573.26
519.41	28698.19
519.62	28716.62
519.82	28773.96
520.03	28835.40
520.23	28653.13
520.43	28919.37
520.64	29044.29
520.84	29509.18
521.05	28968.52
521.25	29271.62
521.45	29427.26
521.66	29341.25
521.86	29230.66
522.07	29148.74
522.27	29359.68
522.47	29468.22
522.68	29832.76
522.88	29883.96
523.08	30127.67
523.29	30176.82
523.49	30178.87
523.70	30131.76
523.90	30088.76
524.10	29974.07
524.31	30367.28
524.51	30252.59
524.71	30670.38
524.92	30551.60
525.12	30578.22
525.33	30635.56
525.53	30471.73
525.73	31053.35
525.94	30629.42
526.14	30930.47
526.34	30883.37
526.55	31292.96
526.75	30875.18
526.95	31378.98
527.16	31290.91
527.36	31133.22
527.56	31686.17
527.77	31714.84
527.97	31526.43
528.17	31620.64
528.38	31868.44
528.58	31993.37
528.78	31960.60
528.99	31657.50
529.19	32099.86
529.39	32042.52
529.60	32337.43
529.80	32431.63
530.00	32089.62
530.21	32970.25
530.41	32693.77
530.61	32470.54
530.82	32626.19
531.02	32738.83
531.22	32714.25
531.43	33046.02
531.63	33127.94
531.83	33357.32
532.04	34002.43
532.24	33412.61
532.44	33482.24
532.64	33723.90
532.85	33793.53
533.05	33568.26
533.25	33994.23
533.46	33902.07
533.66	34194.93
533.86	34168.31
534.07	34524.66
534.27	34303.48
534.47	35012.07
534.67	34375.16
534.88	34385.40
535.08	34745.84
535.28	35007.98
535.49	34844.14
535.69	35372.52
535.89	35204.58
536.09	35390.95
536.30	35483.11
536.50	35304.93
536.70	35661.28
536.91	35558.88
537.11	35765.73
537.31	35655.14
537.51	35835.36
537.72	36224.47
537.92	36203.99
538.12	36353.49
538.32	36148.70
538.53	36517.33
538.73	36300.25
538.93	36349.40
539.13	36099.55
539.34	36615.63
539.54	36658.64
539.74	36758.99
539.94	37055.95
540.15	36703.70
540.35	37172.68
540.55	37010.89
540.75	37393.86
540.96	37406.15
541.16	37363.14
541.36	37385.67
541.56	37369.29
541.77	37891.52
541.97	37725.63
542.17	37819.84
542.37	37850.56
542.58	38129.08
542.78	38360.50
542.98	38055.36
543.18	37936.57
543.38	38471.09
543.59	38768.05
543.79	38067.64
543.99	38036.92
544.19	38340.02
544.40	38747.57
544.60	38946.22
544.80	38940.08
545.00	38806.96
545.20	39431.59
545.41	39157.16
545.61	39136.68
545.81	39359.91
546.01	39194.03
546.21	39181.74
546.42	39245.23
546.62	39466.41
546.82	39212.46
547.02	39525.80
547.22	39910.82
547.43	39452.07
547.63	39622.05
547.83	40281.50
548.03	39701.92
548.23	40093.08
548.44	40205.72
548.64	40197.53
548.84	40244.63
549.04	40082.84
549.24	40547.73
549.45	40691.09
549.65	40461.72
549.85	40185.24
550.05	40945.04
550.25	40713.62
550.45	41155.98
550.66	41041.29
550.86	40461.72
551.06	41328.01
551.26	41102.73
551.46	41100.68
551.66	41225.61
551.87	41235.85
552.07	41244.04
552.27	41399.69
552.47	41096.59
552.67	41246.09
552.87	41524.61
553.07	41508.23
553.28	41723.27
553.48	42112.38
553.68	41581.96
553.88	42499.45
554.08	41825.67
554.28	41592.20
554.48	41852.29
554.69	41825.67
554.89	42216.83
555.09	41885.06
555.29	41987.46
555.49	42204.54
555.69	42593.65
555.89	42562.93
556.10	42593.65
556.30	42157.44
556.50	42349.95
556.70	42440.06
556.90	42966.38
557.10	42816.88
557.30	42102.14
557.50	42909.04
557.70	42732.92
557.91	43296.11
558.11	42800.50
558.31	43031.92
558.51	43009.39
558.71	43185.52
558.91	43505.00
559.11	43007.34
559.31	43122.03
559.51	43115.89
559.72	43300.20
559.92	43246.96
560.12	43500.90
560.32	43550.06
560.52	43105.65
560.72	43545.96
560.92	43500.90
561.12	43332.97
561.32	43656.55
561.52	43799.91
561.72	43705.70
561.93	43871.59
562.13	43421.03
562.33	43400.55
562.53	44250.46
562.73	43513.19
562.93	43607.40
563.13	44062.05
563.33	43664.74
563.53	43668.84
563.73	43726.18
563.93	43810.15
564.13	44586.33
564.33	44168.54
564.53	44463.45
564.74	44350.81
564.94	43808.10
565.14	44072.29
565.34	44154.21
565.54	44430.68
565.74	44338.52
565.94	44709.21
566.14	44254.56
566.34	44113.25
566.54	44754.26
566.74	44213.60
566.94	44879.19
567.14	44840.28
567.34	44385.63
567.54	44608.86
567.74	44711.25
567.94	44873.04
568.14	44903.76
568.34	44889.43
568.54	44823.89
568.74	45129.04
568.94	45100.37
569.14	45378.89
569.34	45096.27
569.54	45073.74
569.75	45161.81
569.95	44694.87
570.15	45462.86
570.35	45397.32
570.55	45217.10
570.75	44735.83
570.95	45278.54
571.15	45667.66
571.35	45380.94
571.55	45696.33
571.75	45581.64
571.95	45512.01
572.15	45253.97
572.35	45434.19
572.55	45581.64
572.75	45667.66
572.95	45530.44
573.15	45536.59
573.35	45538.63
573.55	45253.97
573.75	45843.78
573.95	46001.47
574.15	45722.95
574.35	45813.06
574.55	45980.99
574.75	45772.10
574.95	45978.95
575.15	46028.10
575.34	46046.53
575.54	45866.31
575.74	46097.73
575.94	46392.64
576.14	45921.60
576.34	46384.44
576.54	46599.48
576.74	46282.05
576.94	46136.64
577.14	46366.01
577.34	46447.93
577.54	46439.74
577.74	46177.60
577.94	46230.85
578.14	46449.98
578.34	46722.36
578.54	46284.09
578.74	46294.33
578.94	46849.33
579.14	46662.97
579.34	46830.90
579.54	46589.24
579.74	46683.45
579.94	47043.89
580.13	46869.81
580.33	47191.34
580.53	46994.74
580.73	46849.33
580.93	47076.66
581.13	47041.84
581.33	47592.75
581.53	47445.29
581.73	47254.83
581.93	47551.79
582.13	47355.18
582.33	47138.10
582.53	47383.85
582.73	47676.71
582.92	47910.18
583.12	47543.59
583.32	47523.11
583.52	47387.95
583.72	47881.51
583.92	47291.69
584.12	47754.54
584.32	47926.56
584.52	47695.14
584.72	47879.46
584.92	47592.75
585.11	48690.46
585.31	47908.13
585.51	47887.65
585.71	47809.83
585.91	48194.85
586.11	48006.44
586.31	47811.88
586.51	47789.35
586.71	48223.52
586.91	48635.16
587.10	48571.67
587.30	48198.94
587.50	48502.04
587.70	48409.89
587.90	48829.72
588.10	48629.02
588.30	48006.44
588.50	48712.98
588.69	48534.81
588.89	48497.95
589.09	48741.66
589.29	48704.79
589.49	48600.35
589.69	48186.66
589.89	48821.53
590.08	48684.31
590.28	48735.51
590.48	49009.94
590.68	49464.59
590.88	48889.11
591.08	48874.77
591.28	48942.36
591.47	49409.29
591.67	48905.49
591.87	49175.83
592.07	49286.42
592.27	48987.41
592.47	49200.40
592.67	49616.14
592.86	49249.55
593.06	49202.45
593.26	49472.78
593.46	49550.60
593.66	49286.42
593.86	49788.17
594.05	49622.28
594.25	49814.79
594.45	49698.06
594.65	49499.40
594.85	49595.66
595.05	50136.32
595.24	49698.06
595.44	50197.76
595.64	50218.24
595.84	50083.08
596.04	49982.73
596.23	49968.39
596.43	50312.45
596.63	50269.44
596.83	50132.23
597.03	50521.34
597.22	50730.23
597.42	50156.80
597.62	50767.10
597.82	50187.52
598.02	50478.33
598.21	50746.62
598.41	50427.13
598.61	50476.29
598.81	50648.32
599.01	50689.27
599.20	50550.01
599.40	50791.67
599.60	51041.53
599.80	50892.02
600.00	51016.95
600.19	51088.63
600.39	50652.41
600.59	51246.32
600.79	51059.96
600.98	51086.58
601.18	51340.53
601.38	51227.89
601.58	51709.16
601.78	51530.99
601.97	51385.58
602.17	51778.79
602.37	51924.20
602.57	51635.44
602.76	51950.82
602.96	51610.86
603.16	52233.44
603.36	51891.43
603.55	52071.65
603.75	52047.08
603.95	52606.17
604.15	52198.63
604.34	51985.64
604.54	51897.58
604.74	51672.30
604.94	52333.79
605.13	52137.19
605.33	52339.94
605.53	52063.46
605.73	52661.47
605.92	52724.96
606.12	52376.80
606.32	52684.00
606.52	52849.88
606.71	52407.52
606.91	53318.87
607.11	52821.21
607.30	52974.81
607.50	52997.34
607.70	53331.15
607.90	52937.94
608.09	53355.73
608.29	53222.61
608.49	53212.37
608.68	53001.43
608.88	53603.53
609.08	53243.09
609.28	53462.22
609.47	53171.41
609.67	53538.00
609.87	53454.03
610.06	53656.78
610.26	53718.22
610.46	54195.40
610.66	53587.15
610.85	53576.91
611.05	53820.62
611.25	53822.67
611.44	53408.98
611.64	54119.62
611.84	54189.25
612.03	54068.42
612.23	54219.97
612.43	54523.07
612.62	53904.59
612.82	54559.94
613.02	54125.77
613.21	54297.80
613.41	53794.00
613.61	53988.55
613.80	53726.41
614.00	54654.14
614.20	54203.59
614.39	53851.34
614.59	54371.52
614.79	54344.90
614.98	54437.06
615.18	54385.86
615.38	54074.57
615.57	54324.42
615.77	54492.35
615.97	54705.34
616.16	54449.35
616.36	54645.95
616.56	54686.91
616.75	54684.86
616.95	54080.71
617.15	54686.91
617.34	54039.75
617.54	54490.30
617.74	55125.17
617.93	54828.22
618.13	54244.55
618.32	54496.45
618.52	54641.85
618.72	54641.85
618.91	55033.02
619.11	54445.25
619.31	54635.71
619.50	54850.75
619.70	54146.25
619.90	55071.93
620.09	54598.85
620.29	54686.91
620.48	54768.83
620.68	55235.77
620.88	54645.95
621.07	55026.87
621.27	54785.21
621.46	54793.40
621.66	54744.25
621.86	54758.59
622.05	54760.64
622.25	55061.69
622.44	54654.14
622.64	54703.29
622.84	55209.14
623.03	54686.91
623.23	54738.11
623.42	54779.07
623.62	55063.74
623.82	55213.24
624.01	54914.23
624.21	54930.62
624.40	55143.61
624.60	55084.22
624.80	54768.83
624.99	54920.38
625.19	54656.19
625.38	55196.85
625.58	55428.27
625.77	55071.93
625.97	55270.58
626.17	55049.40
626.36	55225.53
626.56	55184.57
626.75	54547.65
626.95	55030.97
627.14	55061.69
627.34	55452.85
627.54	54734.01
627.73	55221.43
627.93	55258.29
628.12	54940.86
628.32	54965.43
628.51	55168.18
628.71	55524.53
628.90	55260.34
629.10	55157.94
629.30	55489.71
629.49	55270.58
629.69	55297.20
629.88	55430.32
630.08	55860.40
630.27	55821.48
630.47	55442.61
630.66	55436.47
630.86	55702.70
631.05	55203.00
631.25	55907.50
631.44	55942.31
631.64	55801.00
631.84	55471.28
632.03	55983.27
632.23	55489.71
632.42	55780.52
632.62	55624.88
632.81	55528.62
633.01	55825.58
633.20	56151.21
633.40	55575.73
633.59	55792.81
633.79	55760.05
633.98	55993.51
634.18	55919.79
634.37	55882.92
634.57	55809.20
634.76	55751.85
634.96	55903.40
635.15	55841.96
635.35	55723.18
635.54	55549.10
635.74	56403.11
635.93	55760.05
636.13	56183.97
636.32	56032.42
636.52	55323.83
636.71	56247.46
636.91	56206.50
637.10	56691.87
637.30	56310.95
637.49	55952.55
637.69	56513.70
637.88	56521.89
638.08	55692.46
638.27	56100.01
638.46	56079.53
638.66	56124.58
638.85	55997.61
639.05	56272.04
639.24	55909.55
639.44	55514.29
639.63	56120.49
639.83	55934.12
640.02	56198.31
640.22	56300.71
640.41	56206.50
640.61	55854.25
640.80	56302.76
640.99	56218.79
641.19	56677.54
641.38	56386.72
641.58	56147.11
641.77	55915.69
641.97	55778.48
642.16	56120.49
642.36	56095.91
642.55	57011.35
642.74	55905.45
642.94	57025.69
643.13	56345.76
643.33	56442.02
643.52	56679.58
643.72	56442.02
643.91	56392.87
644.10	56411.30
644.30	56460.45
644.49	56616.10
644.69	56452.26
644.88	56994.97
645.08	56171.69
645.27	56366.24
645.46	56237.22
645.66	56966.30
645.85	56069.29
646.05	57068.70
646.24	56587.42
646.43	56431.78
646.63	57107.61
646.82	57281.69
647.02	56718.49
647.21	56480.93
647.40	56855.71
647.60	56925.34
647.79	56878.24
647.99	57136.28
648.18	56671.39
648.37	57238.68
648.57	56822.94
648.76	56415.40
648.96	56425.64
649.15	57343.12
649.34	56775.84
649.54	56620.19
649.73	56661.15
649.92	57023.64
650.12	57193.62
650.31	56628.38
650.51	57021.59
650.70	56990.87
650.89	56808.61
651.09	57234.58
651.28	56489.12
651.47	56759.45
651.67	56679.58
651.86	57330.84
652.06	56685.73
652.25	56960.15
652.44	56878.24
652.64	56530.08
652.83	56728.73
653.02	56736.93
653.22	56890.52
653.41	56693.92
653.60	56550.56
653.80	56759.45
653.99	56956.06
654.18	56902.81
654.38	56648.86
654.57	57035.93
654.76	57283.73
654.96	56806.56
655.15	56657.06
655.34	56759.45
655.54	56579.23
655.73	57074.84
655.92	56874.14
656.12	56859.80
656.31	57117.85
656.50	56710.30
656.70	56644.77
656.89	56454.31
657.08	57349.27
657.28	56622.24
657.47	56419.49
657.66	57193.62
657.86	56771.74
658.05	56763.55
658.24	56812.70
658.43	56655.01
658.63	56779.93
658.82	56859.80
659.01	56855.71
659.21	56886.43
659.40	56878.24
659.59	56706.21
659.79	57207.96
659.98	56829.08
660.17	56943.77
660.36	56552.61
660.56	57103.51
660.75	56738.97
660.94	56874.14
661.14	56681.63
661.33	56546.47
661.52	56698.01
661.71	56958.11
661.91	56564.90
662.10	56042.66
662.29	56872.09
662.49	57119.90
662.68	56933.53
662.87	56882.33
663.06	56579.23
663.26	56745.12
663.45	57191.58
663.64	56284.33
663.83	57181.34
664.03	57091.22
664.22	56603.81
664.41	56738.97
664.60	56485.03
664.80	56745.12
664.99	56384.68
665.18	56665.25
665.37	56644.77
665.57	56847.52
665.76	56339.62
665.95	56796.32
666.14	55987.37
666.34	56534.18
666.53	56464.55
666.72	56120.49
666.91	56114.34
667.11	56065.19
667.30	56714.40
667.49	56571.04
667.68	56454.31
667.87	56274.09
668.07	56558.75
668.26	56669.34
668.45	56669.34
668.64	55915.69
668.84	57099.42
669.03	56464.55
669.22	56267.94
669.41	56167.59
669.60	56454.31
669.80	56206.50
669.99	56898.72
670.18	56241.32
670.37	56018.09
670.57	56442.02
670.76	56292.52
670.95	56591.52
671.14	56292.52
671.33	56050.86
671.53	56464.55
671.72	56415.40
671.91	55817.39
672.10	56073.38
672.29	56091.82
672.48	55506.10
672.68	55745.71
672.87	56083.62
673.06	55708.85
673.25	55690.41
673.44	55940.27
673.64	56009.90
673.83	56046.76
674.02	55430.32
674.21	55645.36
674.40	55784.62
674.59	55708.85
674.79	55764.14
674.98	55686.32
675.17	56171.69
675.36	55755.95
675.55	55968.94
675.74	55610.54
675.94	56057.00
676.13	55567.54
676.32	55723.18
676.51	56153.26
676.70	55524.53
676.89	55710.89
677.08	56030.38
677.28	55415.99
677.47	55805.10
677.66	55848.11
677.85	55704.75
678.04	55848.11
678.23	55887.02
678.42	55772.33
678.62	55583.92
678.81	55956.65
679.00	55350.45
679.19	56333.48
679.38	55555.25
679.57	55438.51
679.76	55469.23
679.96	55428.27
680.15	55329.97
680.34	56036.52
680.53	55334.07
680.72	55405.75
680.91	55458.99
681.10	55123.13
681.29	55426.23
681.48	54987.96
681.68	55409.84
681.87	55207.09
682.06	55203.00
682.25	55313.59
682.44	55133.37
682.63	55383.22
682.82	54854.84
683.01	55168.18
683.20	54922.43
683.39	54717.63
683.59	54473.92
683.78	54490.30
683.97	54648.00
684.16	54705.34
684.35	54670.53
684.54	54643.90
684.73	54881.47
684.92	54879.42
685.11	54742.20
685.30	55024.82
685.49	54957.24
685.69	54832.32
685.88	55082.17
686.07	54740.16
686.26	54756.54
686.45	54586.56
686.64	55000.25
686.83	55090.36
687.02	54715.58
687.21	54830.27
687.40	54650.05
687.59	54504.64
687.78	54514.88
687.97	55047.35
688.16	54721.72
688.35	54449.35
688.54	54279.36
688.74	54449.35
688.93	54518.98
689.12	54357.19
689.31	54170.82
689.50	54482.11
689.69	54150.34
689.88	54109.38
690.07	54580.42
690.26	54279.36
690.45	54297.80
690.64	54353.09
690.83	53923.02
691.02	53896.39
691.21	54041.80
691.40	54056.14
691.59	54183.11
691.78	54025.42
691.97	54344.90
692.16	54023.37
692.35	53851.34
692.54	54133.96
692.73	54242.50
692.92	54338.75
693.11	54482.11
693.30	54160.58
693.49	54478.02
693.68	53781.71
693.87	54291.65
694.06	53673.16
694.25	54244.55
694.44	53654.73
694.63	54097.09
694.82	54093.00
695.01	53693.64
695.20	53466.32
695.39	53816.52
695.58	53361.87
695.77	53486.80
695.96	53408.98
696.15	53568.72
696.34	53910.73
696.53	53589.20
696.72	53605.58
696.91	53650.64
697.10	53775.56
697.29	53476.56
697.48	53652.69
697.67	53589.20
697.86	53494.99
698.05	53478.61
698.24	53875.91
698.43	53054.68
698.62	53806.28
698.81	53124.31
699.00	53564.62
699.19	52405.47
699.38	53392.59
699.57	53568.72
699.76	53826.76
699.95	52874.46
700.14	52835.55
700.32	53605.58
700.51	53499.09
700.70	53642.45
700.89	53572.81
701.08	53333.20
701.27	53046.49
701.46	53794.00
701.65	53066.97
701.84	53466.32
702.03	53007.58
702.22	52864.22
702.41	53257.43
702.60	53060.82
702.79	53277.91
702.98	52833.50
703.17	52923.61
703.35	53003.48
703.54	52714.72
703.73	53214.42
703.92	53222.61
704.11	52700.38
704.30	52630.75
704.49	52694.24
704.68	52442.34
704.87	52770.01
705.06	52712.67
705.25	52442.34
705.43	52831.45
705.62	53152.98
705.81	52581.60
706.00	52384.99
706.19	53007.58
706.38	52382.94
706.57	52696.28
706.76	52438.24
706.95	52450.53
707.14	52006.12
707.32	52487.39
707.51	52530.40
707.70	52409.57
707.89	52608.22
708.08	52669.66
708.27	52684.00
708.46	52782.30
708.65	51920.10
708.84	52206.82
709.02	52380.90
709.21	52229.35
709.40	52102.37
709.59	52159.72
709.78	52190.44
709.97	52409.57
710.16	51795.18
710.34	52192.48
710.53	52045.03
710.72	51981.54
710.91	52540.64
711.10	52237.54
711.29	52083.94
711.48	51754.22
711.66	52114.66
711.85	51905.77
712.04	52180.20
712.23	52303.07
712.42	52282.59
712.61	51842.28
712.80	51969.26
712.98	52174.05
713.17	52016.36
713.36	51731.69
713.55	51621.10
713.74	51633.39
713.93	51991.78
714.11	51870.95
714.30	51541.23
714.49	51846.38
714.68	51465.45
714.87	51694.83
715.06	51848.42
715.24	51338.48
715.43	51555.57
715.62	51975.40
715.81	51307.76
716.00	51524.85
716.18	51131.64
716.37	51105.01
716.56	51530.99
716.75	51780.84
716.94	51516.65
717.12	51334.38
717.31	51829.99
717.50	51109.11
717.69	51162.36
717.88	50873.59
718.06	51262.71
718.25	51203.31
718.44	50939.13
718.63	51248.37
718.82	51209.46
719.00	51524.85
719.19	50877.69
719.38	51080.44
719.57	50894.07
719.76	50619.64
719.94	50582.78
720.13	50943.22
720.32	50998.52
720.51	50771.19
720.69	50840.82
720.88	50502.91
721.07	50656.51
721.26	50304.26
721.44	50523.39
721.63	50519.29
721.82	50210.05
722.01	50011.40
722.20	50316.54
722.38	50408.70
722.57	49544.46
722.76	50255.11
722.95	50173.19
723.13	49693.96
723.32	50185.47
723.51	49640.71
723.70	49759.50
723.88	49597.71
724.07	49839.37
724.26	50078.98
724.44	49083.67
724.63	49706.25
724.82	49988.87
725.01	49714.44
725.19	49855.75
725.38	49636.62
725.57	49560.84
725.76	49874.18
725.94	49495.31
726.13	49753.35
726.32	49470.73
726.51	49612.04
726.69	49579.28
726.88	50068.74
727.07	49188.11
727.25	49141.01
727.44	49407.25
727.63	49339.66
727.82	49657.10
728.00	49599.76
728.19	49173.78
728.38	49474.83
728.56	48864.53
728.75	49839.37
728.94	49028.37
729.12	49460.49
729.31	49442.06
729.50	48989.46
729.69	49513.74
729.87	49186.07
730.06	49155.35
730.25	49351.95
730.43	49587.47
730.62	48882.97
730.81	49530.12
730.99	49286.42
731.18	49614.09
731.37	49440.01
731.55	49540.36
731.74	49112.34
731.93	49530.12
732.11	48856.34
732.30	49048.85
732.49	49116.43
732.67	49206.55
732.86	49083.67
733.05	48710.94
733.23	48905.49
733.42	49241.36
733.61	48975.12
733.79	49132.82
733.98	49622.28
734.17	49319.18
734.35	49188.11
734.54	49220.88
734.73	49374.48
734.91	49186.07
735.10	49118.48
735.29	49347.86
735.47	48821.53
735.66	48983.32
735.84	48835.86
736.03	48643.35
736.22	49229.07
736.40	48735.51
736.59	48737.56
736.78	48813.34
736.96	48936.21
737.15	48680.22
737.33	48512.28
737.52	48745.75
737.71	48393.50
737.89	48543.00
738.08	48637.21
738.27	48420.13
738.45	49095.95
738.64	48479.52
738.82	48708.89
739.01	48684.31
739.20	48801.05
739.38	48495.90
739.57	48581.91
739.75	48575.77
739.94	48430.36
740.13	48438.56
740.31	48274.72
740.50	48436.51
740.68	48340.25
740.87	48424.22
741.06	48192.80
741.24	48454.94
741.43	48203.04
741.61	48334.11
741.80	47906.08
741.99	48157.99
742.17	47856.93
742.36	48264.48
742.54	47895.85
742.73	47752.49
742.91	48608.54
743.10	47861.03
743.29	48000.29
743.47	48289.06
743.66	48135.46
743.84	48117.03
744.03	47957.28
744.21	47738.15
744.40	47795.49
744.59	48211.23
744.77	47424.81
744.96	47473.96
745.14	47766.82
745.33	47844.65
745.51	47822.12
745.70	47996.20
745.88	47787.30
746.07	47838.50
746.26	47734.06
746.44	47433.00
746.63	47662.38
746.81	47422.76
747.00	47252.78
747.18	47514.92
747.37	47543.59
747.55	47721.77
747.74	47353.13
747.92	47377.71
748.11	47168.82
748.29	47273.26
748.48	46894.39
748.66	46898.48
748.85	46980.40
749.03	47351.09
749.22	47201.58
749.41	47009.07
749.59	47123.76
749.78	46937.40
749.96	46486.84
750.15	46802.23
750.33	46808.37
750.52	46910.77
750.70	46775.61
750.89	46701.88
751.07	46642.49
751.26	46449.98
751.44	46734.65
751.63	46236.99
751.81	46142.78
752.00	46202.18
752.18	46273.85
752.37	46355.77
752.55	46339.39
752.74	46402.88
752.92	46091.58
753.10	46193.98
753.29	45835.59
753.47	46163.26
753.66	45585.74
753.84	46132.54
754.03	45944.13
754.21	45608.26
754.40	45854.02
754.58	46392.64
754.77	46148.93
754.95	45808.96
755.14	45929.80
755.32	45716.81
755.51	45356.36
755.69	45219.15
755.88	45454.67
756.06	45679.94
756.24	45276.49
756.43	45192.53
756.61	45411.66
756.80	44957.01
756.98	45272.40
757.17	45231.44
757.35	45333.84
757.54	45032.78
757.72	44959.06
757.90	45047.12
758.09	44721.49
758.27	44965.20
758.46	45063.50
758.64	45176.14
758.83	45012.31
759.01	44989.78
759.19	44660.05
759.38	44758.36
759.56	45213.01
759.75	44559.70
759.93	44571.99
760.12	44641.62
760.30	44590.42
760.48	44332.38
760.67	44354.91
760.85	44332.38
761.04	44490.07
761.22	44928.34
761.40	44279.13
761.59	43906.40
761.77	43834.72
761.96	43980.13
762.14	44078.43
762.32	44039.52
762.51	43840.87
762.69	43904.35
762.88	43629.93
763.06	43668.84
763.24	43869.54
763.43	43775.33
763.61	43879.78
763.80	43591.01
763.98	43455.85
764.16	43877.73
764.35	43156.85
764.53	43146.61
764.72	43232.62
764.90	43468.14
765.08	43156.85
765.27	43154.80
765.45	42782.07
765.63	43007.34
765.82	43300.20
766.00	42485.11
766.18	42841.46
766.37	43107.69
766.55	42761.59
766.74	43238.76
766.92	42825.07
767.10	42704.24
767.29	42343.80
767.47	42812.79
767.65	42884.47
767.84	42526.07
768.02	42726.77
768.20	42204.54
768.39	42571.13
768.57	42509.69
768.75	42747.25
768.94	42366.33
769.12	42392.95
769.30	42397.05
769.49	42081.66
769.67	41846.15
769.85	41749.89
770.04	41563.53
770.22	41616.77
770.40	41610.63
770.59	41817.47
770.77	42128.77
770.95	41854.34
771.14	41371.02
771.32	41579.91
771.50	41170.32
771.69	41391.50
771.87	41289.10
772.05	41252.23
772.24	41223.56
772.42	40928.66
772.60	41172.36
772.78	40734.10
772.97	40949.14
773.15	41096.59
773.33	41059.73
773.52	40871.31
773.70	41137.55
773.88	41090.44
774.07	40646.04
774.25	41033.10
774.43	40940.94
774.61	41221.52
774.80	41123.21
774.98	40996.24
775.16	40990.09
775.34	41043.34
775.53	40723.86
775.71	41178.51
775.89	40525.21
776.08	41160.08
776.26	40785.30
776.44	40983.95
776.62	40881.55
776.81	40519.06
776.99	40670.61
777.17	40889.74
777.35	41010.57
777.54	41151.88
777.72	40748.43
777.90	40873.36
778.08	41239.95
778.27	40957.33
778.45	40803.73
778.63	41182.60
778.81	40519.06
779.00	41760.13
779.18	40986.00
779.36	41387.40
779.54	41309.58
779.73	40924.56
779.91	41211.28
780.09	41309.58
780.27	41340.30
780.46	41280.91
780.64	41131.40
780.82	40928.66
781.00	41215.37
781.19	41401.74
781.37	41522.57
781.55	41461.13
781.73	41616.77
781.91	41108.88
782.10	41319.82
782.28	41260.43
782.46	41387.40
782.64	41207.18
782.82	41342.35
783.01	41182.60
783.19	41661.83
783.37	41465.22
783.55	41645.44
783.74	41596.29
783.92	41133.45
784.10	41772.42
784.28	41434.50
784.46	41260.43
784.64	41276.81
784.83	41473.42
785.01	41682.31
785.19	41497.99
785.37	41416.07
785.55	41596.29
785.74	41280.91
785.92	41153.93
786.10	41205.13
786.28	41541.00
786.46	41055.63
786.64	41057.68
786.83	41112.97
787.01	41291.15
787.19	41098.64
787.37	40871.31
787.55	40662.42
787.74	40619.41
787.92	40809.87
788.10	40727.95
788.28	40224.15
788.46	40793.49
788.64	40267.16
788.82	40613.27
789.01	40367.51
789.19	40648.08
789.37	40457.62
789.55	40725.91
789.73	39923.10
789.91	40099.23
790.09	40119.71
790.28	39558.56
790.46	39814.56
790.64	40265.11
790.82	39769.51
791.00	39902.62
791.18	39818.66
791.36	39718.31
791.55	39460.26
791.73	39513.51
791.91	39071.15
792.09	39296.42
792.27	39447.97
792.45	39460.26
792.63	39450.02
792.81	39155.11
793.00	39058.86
793.18	39009.71
793.36	38622.64
793.54	38389.17
793.72	38585.78
793.90	38401.46
794.08	38434.23
794.26	38383.03
794.44	38077.88
794.62	38032.83
794.81	38399.41
794.99	38172.09
795.17	37877.18
795.35	38352.31
795.53	37875.13
795.71	38305.21
795.89	37580.23
796.07	37369.29
796.25	37387.72
796.43	37197.26
796.61	37338.57
796.80	36924.88
796.98	37305.80
797.16	36951.50
797.34	37256.65
797.52	36959.69
797.70	37238.22
797.88	36818.38
798.06	36361.69
798.24	36761.04
798.42	36806.09
798.60	36591.06
798.78	36152.79
798.96	36345.30
799.14	36113.88
799.32	36234.71
799.51	36351.45
799.69	36165.08
799.87	35849.69
800.05	35605.98
800.23	35548.64
800.41	35794.40
800.59	36070.87
800.77	35524.07
800.95	35515.87
801.13	35794.40
801.31	35427.81
801.49	35343.84
801.67	35128.81
801.85	35186.15
802.03	34815.47
802.21	34698.73
802.39	34602.48
802.57	34805.23
802.75	34389.49
802.93	34504.18
803.11	34452.98
803.29	34297.33
803.47	34414.07
803.65	34534.90
803.83	34309.62
804.01	34145.78
804.19	34235.89
804.37	33830.40
804.55	33629.69
804.73	33791.48
804.91	34043.38
805.09	33764.86
805.27	33592.83
805.45	33842.68
805.63	33803.77
805.81	33576.45
805.99	33254.92
806.17	33748.48
806.35	33181.19
806.53	33469.95
806.71	33107.46
806.89	33191.43
807.07	33041.93
807.25	33345.03
807.43	32609.81
807.61	33275.40
807.79	32777.74
807.97	32581.13
808.15	32536.08
808.33	32589.33
808.51	32433.68
808.69	32540.18
808.87	32253.46
809.05	32370.19
809.23	32200.21
809.41	32216.60
809.59	32200.21
809.77	32007.70
809.95	31811.10
810.13	31811.10
810.31	31929.88
810.49	32028.18
810.67	31528.48
810.84	31874.59
811.02	31927.83
811.20	31323.68
811.38	31936.02
811.56	31139.36
811.74	31204.90
811.92	31303.20
812.10	31454.75
812.28	31297.06
812.46	31135.27
812.64	31165.99
812.82	30975.53
813.00	31057.45
813.18	30936.62
813.36	31006.25
813.53	30707.24
813.71	30930.47
813.89	30590.51
814.07	30774.83
814.25	30742.06
814.43	30455.34
814.61	30520.88
814.79	30344.75
814.97	30438.96
815.15	30508.59
815.33	30156.34
815.50	29808.19
815.68	30193.20
815.86	30395.95
816.04	29906.49
816.22	29773.37
816.40	30230.07
816.58	29613.63
816.76	29699.64
816.94	29515.33
817.11	30205.49
817.29	29890.10
817.47	29554.24
817.65	29353.54
817.83	29558.33
818.01	29388.35
818.19	29343.30
818.37	29408.83
818.54	29085.25
818.72	29244.99
818.90	29654.59
819.08	29177.41
819.26	29199.94
819.44	29068.87
819.62	29257.28
819.80	29017.67
819.97	29349.44
820.15	28665.42
820.33	28560.97
820.51	28970.57
820.69	28436.05
820.87	28970.57
821.05	29257.28
821.22	28642.89
821.40	28583.50
821.58	28751.43
821.76	28417.61
821.94	28223.06
822.12	28532.30
822.29	28802.63
822.47	28579.40
822.65	28462.67
822.83	28941.89
823.01	28532.30
823.19	28071.51
823.36	28206.67
823.54	28194.39
823.72	28091.99
823.90	27594.33
824.08	28014.16
824.25	27936.34
824.43	27971.16
824.61	28051.03
824.79	27821.66
824.97	27823.70
825.15	27784.79
825.32	27637.34
825.50	27639.39
825.68	27438.69
825.86	27702.87
826.04	27706.97
826.21	27350.62
826.39	27532.89
826.57	27764.31
826.75	27508.32
826.93	27586.14
827.10	27151.97
827.28	27795.03
827.46	27565.66
827.64	27453.02
827.81	27149.92
827.99	27332.19
828.17	26914.41
828.35	27160.16
828.53	27041.38
828.70	26979.94
828.88	26914.41
829.06	27463.26
829.24	27242.08
829.41	27053.67
829.59	27039.33
829.77	26740.33
829.95	26654.31
830.12	26650.22
830.30	26639.98
830.48	26762.86
830.66	26957.41
830.84	26510.96
831.01	26588.78
831.19	26439.28
831.37	26717.80
831.55	26592.87
831.72	26429.04
831.90	26490.48
832.08	26412.65
832.25	26252.91
832.43	26338.93
832.61	26078.83
832.79	26164.85
832.96	26240.62
833.14	26209.90
833.32	26582.63
833.50	26605.16
833.67	26402.41
833.85	26226.29
834.03	26046.07
834.20	26240.62
834.38	26222.19
834.56	26154.61
834.74	25892.47
834.91	26199.66
835.09	25962.10
835.27	25730.68
835.44	25749.11
835.62	25730.68
835.80	25822.84
835.98	25669.24
836.15	25800.31
836.33	25437.82
836.51	25611.90
836.68	25255.55
836.86	25339.52
837.04	25751.16
837.21	25560.70
837.39	25572.99
837.57	25507.45
837.75	25532.03
837.92	25087.62
838.10	25546.36
838.28	25091.71
838.45	25120.38
838.63	25011.84
838.81	25333.37
838.98	25124.48
839.16	24956.55
839.34	25028.23
839.51	24923.78
839.69	24632.97
839.87	24798.85
840.04	24673.93
840.22	25034.37
840.40	24592.01
840.57	24757.89
840.75	24721.03
840.93	24520.33
841.10	24952.45
841.28	25138.82
841.46	24999.55
841.63	24786.57
841.81	24876.68
841.98	24905.35
842.16	24755.85
842.34	24610.44
842.51	24690.31
842.69	24915.59
842.87	24706.70
843.04	24544.91
843.22	24485.51
843.40	24596.10
843.57	24403.60
843.75	24532.62
843.92	24505.99
844.10	24428.17
844.28	24311.44
844.45	24669.83
844.63	24454.79
844.81	24202.89
844.98	24641.16
845.16	24272.53
845.33	24432.27
845.51	24188.56
845.69	24293.01
845.86	23996.05
846.04	24077.97
846.21	24149.65
846.39	23924.37
846.57	23924.37
846.74	24129.17
846.92	24096.40
847.09	23621.27
847.27	23662.23
847.45	23572.12
847.62	23985.81
847.80	24348.30
847.97	23668.37
848.15	23721.62
848.32	23811.73
848.50	23729.81
848.68	23723.67
848.85	23715.48
849.03	23535.26
849.20	23807.64
849.38	23670.42
849.56	23781.01
849.73	23402.14
849.91	23527.06
850.08	23578.26
850.26	22963.87
850.43	23275.16
850.61	23439.00
850.78	23135.90
850.96	23389.85
851.14	23168.67
851.31	23408.28
851.49	23064.22
851.66	23230.11
851.84	23082.66
852.01	23213.73
852.19	23250.59
852.36	23072.42
852.54	23250.59
852.71	23029.41
852.89	22994.59
853.07	23189.15
853.24	23183.01
853.42	23029.41
853.59	23094.94
853.77	23070.37
853.94	22922.91
854.12	23246.49
854.29	22644.39
854.47	23000.74
854.64	22900.39
854.82	22681.25
854.99	23021.22
855.17	22703.78
855.34	22894.24
855.52	22927.01
855.69	22785.70
855.87	22636.20
856.04	22353.58
856.22	22548.14
856.39	22607.53
856.57	22486.70
856.74	22470.31
856.92	22400.68
857.09	22126.25
857.27	22445.74
857.44	22519.46
857.62	22392.49
857.79	22445.74
857.97	22382.25
858.14	22412.97
858.32	22269.61
858.49	22206.13
858.67	22406.83
858.84	22111.92
859.02	22220.46
859.19	22009.52
859.37	22083.25
859.54	22132.40
859.72	22177.45
859.89	22105.77
860.06	22054.58
860.24	22038.19
860.41	22249.13
860.59	22077.10
860.76	22003.38
860.94	21556.92
861.11	21923.51
861.29	21558.97
861.46	21591.73
861.64	21745.33
861.81	22027.95
861.98	21579.45
862.16	21466.81
862.33	21497.53
862.51	21493.43
862.68	21860.02
862.86	21350.07
863.03	21464.76
863.21	21294.78
863.38	21446.33
863.55	21440.18
863.73	21812.92
863.90	21362.36
864.08	21087.93
864.25	21221.05
864.43	21241.53
864.60	21335.74
864.77	21192.38
864.95	21079.74
865.12	20930.24
865.30	21288.64
865.47	21055.17
865.64	21040.83
865.82	20946.62
865.99	20954.82
866.17	21012.16
866.34	21421.75
866.51	20799.17
866.69	21190.33
866.86	21071.55
867.04	21067.45
867.21	20979.39
867.38	20850.37
867.56	20616.90
867.73	20815.55
867.91	20793.03
868.08	20682.44
868.25	20838.08
868.43	20668.10
868.60	20510.41
868.78	20432.58
868.95	20530.89
869.12	20547.27
869.30	20283.08
869.47	20580.04
869.64	20250.32
869.82	20412.10
869.99	20211.40
870.16	20289.23
870.34	20297.42
870.51	20209.36
870.69	19961.55
870.86	20078.29
871.03	20250.32
871.21	19955.41
871.38	20395.72
871.55	20088.53
871.73	20078.29
871.90	20131.53
872.07	19746.51
872.25	19777.23
872.42	19881.68
872.59	19709.65
872.77	19580.63
872.94	19779.28
873.11	19777.23
873.29	19592.92
873.46	19599.06
873.63	19631.83
873.81	19517.14
873.98	19504.85
874.15	19312.35
874.33	18896.61
874.50	19236.57
874.67	19199.71
874.85	19392.22
875.02	19039.97
875.19	19295.96
875.37	19013.34
875.54	19021.53
875.71	18892.51
875.88	18517.73
876.06	19087.07
876.23	18921.18
876.40	18689.76
876.58	19132.12
876.75	18851.55
876.92	18767.59
877.10	18865.89
877.27	18857.70
877.44	18624.23
877.61	18601.70
877.79	18570.98
877.96	18468.58
878.13	18562.79
878.31	18525.93
878.48	18323.18
878.65	18175.72
878.82	18575.08
879.00	18329.32
879.17	18231.02
879.34	18300.65
879.51	18116.33
879.69	18077.42
879.86	18159.34
880.03	18278.12
880.21	18104.04
880.38	18087.66
880.55	18083.56
880.72	18083.56
880.90	18179.82
881.07	18095.85
881.24	17921.77
881.41	18200.30
881.59	18052.84
881.76	17872.62
881.93	17635.06
882.10	17897.20
882.28	17727.22
882.45	17889.01
882.62	17755.89
882.79	17954.54
882.96	17534.71
883.14	17714.93
883.31	17841.90
883.48	17440.50
883.65	17493.75
883.83	17764.08
884.00	17841.90
884.17	17516.28
884.34	17706.74
884.51	17358.58
884.69	17452.79
884.86	17645.30
885.03	17540.85
885.20	17223.42
885.38	17532.66
885.55	17362.68
885.72	17184.51
885.89	17231.61
886.06	17372.92
886.24	17168.12
886.41	17069.82
886.58	17274.62
886.75	17299.19
886.92	17176.31
887.10	17149.69
887.27	16922.37
887.44	17235.70
887.61	17164.03
887.78	17405.69
887.95	16946.94
888.13	17135.35
888.30	16850.69
888.47	17288.95
888.64	17217.27
888.81	16676.61
888.99	16832.26
889.16	16785.15
889.33	16754.43
889.50	16559.88
889.67	16756.48
889.84	16529.16
890.01	16574.21
890.19	16664.32
890.36	16643.84
890.53	16533.25
890.70	16101.13
890.87	16680.71
891.04	16654.08
891.22	16568.07
891.39	16412.42
891.56	16142.09
891.73	16353.03
891.90	16355.08
892.07	16209.67
892.24	16389.89
892.42	16336.65
892.59	16172.81
892.76	15935.24
892.93	16013.07
893.10	16285.45
893.27	15996.68
893.44	15963.92
893.61	15988.49
893.79	16303.88
893.96	15970.06
894.13	16117.51
894.30	16074.51
894.47	16226.06
894.64	16211.72
894.81	15830.80
894.98	15980.30
895.15	16017.16
895.33	16070.41
895.50	15898.38
895.67	16183.05
895.84	16041.74
896.01	16133.90
896.18	15886.09
896.35	16213.77
896.52	15996.68
896.69	15800.08
896.86	15877.90
897.04	15916.81
897.21	16072.46
897.38	15732.50
897.55	15787.79
897.72	15820.56
897.89	15892.24
898.06	15755.02
898.23	15902.48
898.40	15800.08
898.57	16019.21
898.74	16097.03
898.91	15771.41
899.08	15834.89
899.26	15783.70
899.43	15709.97
899.60	15773.46
899.77	15707.92
899.94	15542.03
900.11	15740.69
900.28	15877.90
900.45	15343.38
900.62	15914.77
900.79	15894.29
900.96	15939.34
901.13	15787.79
901.30	15830.80
901.47	15593.23
901.64	15544.08
901.81	15681.30
901.98	15720.21
902.15	16051.98
902.32	15724.30
902.49	15689.49
902.66	15785.74
902.83	15466.26
903.01	15605.52
903.18	15599.38
903.35	15693.58
903.52	15658.77
903.69	15703.82
903.86	15558.42
904.03	15666.96
904.20	15619.86
904.37	15793.94
904.54	15587.09
904.71	15492.88
904.88	15744.78
905.05	15642.39
905.22	15648.53
905.39	15310.61
905.56	15640.34
905.73	15619.86
905.90	15683.34
906.07	15716.11
906.24	15550.23
906.41	15486.74
906.58	15445.78
906.75	15499.03
906.92	15456.02
907.09	15322.90
907.26	15560.47
907.43	15255.32
907.60	15206.17
907.77	15503.12
907.93	15482.64
908.10	15353.62
908.27	15681.30
908.44	15294.23
908.61	15345.43
908.78	15427.35
908.95	15523.60
909.12	15247.13
909.29	15046.43
909.46	15277.85
909.63	15327.00
909.80	15374.10
909.97	15425.30
910.14	15390.49
910.31	15290.13
910.48	15081.24
910.65	15507.22
910.82	15296.28
910.99	15374.10
911.16	15306.52
911.33	15238.94
911.50	15064.86
911.66	15058.71
911.83	15036.19
912.00	14892.83
912.17	15118.11
912.34	15134.49
912.51	14894.88
912.68	15042.33
912.85	14862.11
913.02	14921.50
913.19	14980.89
913.36	15144.73
913.53	15040.28
913.70	14696.22
913.86	15075.10
914.03	14604.07
914.20	14796.57
914.37	14751.52
914.54	14565.15
914.71	14546.72
914.88	14509.86
915.05	14466.85
915.22	14417.70
915.39	14577.44
915.55	14495.52
915.72	14264.10
915.89	14544.67
916.06	14239.53
916.23	14194.47
916.40	14171.94
916.57	14186.28
916.74	14247.72
916.91	14106.41
917.07	14190.38
917.24	14024.49
917.41	14124.84
917.58	14001.96
917.75	13885.23
917.92	13915.95
918.09	13823.79
918.26	13958.96
918.42	14028.59
918.59	13776.69
918.76	13633.33
918.93	13664.05
919.10	13584.18
919.27	13555.51
919.44	13719.34
919.60	13659.95
919.77	13393.72
919.94	13502.26
920.11	13444.91
920.28	13551.41
920.45	13483.83
920.61	13352.76
920.78	12996.41
920.95	13203.25
921.12	13174.58
921.29	13115.19
921.46	13119.29
921.62	12891.96
921.79	13051.70
921.96	13037.37
922.13	12844.86
922.30	12986.17
922.47	12826.43
922.63	12859.20
922.80	12648.26
922.97	12824.38
923.14	12605.25
923.31	12584.77
923.47	12605.25
923.64	12623.68
923.81	12547.90
923.98	12613.44
924.15	12349.25
924.32	12318.53
924.48	12427.07
924.65	12513.09
924.82	12226.37
924.99	12183.37
925.15	12027.72
925.32	12175.17
925.49	11945.80
925.66	12091.21
925.83	11833.16
925.99	11792.20
926.16	11964.23
926.33	11812.68
926.50	11597.65
926.67	11802.44
926.83	11530.06
927.00	11642.70
927.17	11513.68
927.34	11396.95
927.50	11585.36
927.67	11454.29
927.84	11321.17
928.01	11370.32
928.17	11392.85
928.34	11257.68
928.51	11200.34
928.68	11114.33
928.84	11104.09
929.01	10956.63
929.18	10786.65
929.35	10774.36
929.51	10788.70
929.68	10661.73
929.85	10719.07
930.02	10665.82
930.18	10714.97
930.35	10655.58
930.52	10624.86
930.69	10739.55
930.85	10555.23
931.02	10403.68
931.19	10538.85
931.36	10522.46
931.52	10299.23
931.69	10375.01
931.86	10245.99
932.02	10164.07
932.19	10178.40
932.36	10112.87
932.53	10231.65
932.69	10012.52
932.86	10000.23
933.03	9842.54
933.19	9871.21
933.36	9811.82
933.53	9926.50
933.70	9654.12
933.86	9615.21
934.03	9660.27
934.20	9699.18
934.36	9574.25
934.53	9334.64
934.70	9342.83
934.86	9265.01
935.03	9146.23
935.20	9043.83
935.36	9072.50
935.53	9174.90
935.70	8986.49
935.86	8777.59
936.03	8863.61
936.20	8724.35
936.36	8482.69
936.53	8748.92
936.70	8484.73
936.86	8587.13
937.03	8320.90
937.20	8335.23
937.36	8222.59
937.53	7985.03
937.70	8144.77
937.86	7972.74
938.03	7894.92
938.20	8071.04
938.36	7716.75
938.53	7825.29
938.70	7649.16
938.86	7683.98
939.03	7403.41
939.20	7243.67
939.36	7057.30
939.53	7110.55
939.70	7282.58
939.86	6952.85
940.03	6848.41
940.19	6721.43
940.36	6766.49
940.53	6723.48
940.69	6647.71
940.86	6569.88
941.03	6547.36
941.19	6438.81
941.36	6524.83
941.52	6320.03
941.69	6328.22
941.86	6328.22
942.02	6281.12
942.19	6176.67
942.35	6162.34
942.52	6121.38
942.69	5926.82
942.85	5836.71
943.02	5953.45
943.18	5836.71
943.35	5898.15
943.52	5705.64
943.68	5703.59
943.85	5674.92
944.01	5640.11
944.18	5605.29
944.35	5613.48
944.51	5674.92
944.68	5414.83
944.84	5558.19
945.01	5599.15
945.17	5515.18
945.34	5468.08
945.51	5572.52
945.67	5398.45
945.84	5619.63
946.00	5373.87
946.17	5312.43
946.33	5373.87
946.50	5451.69
946.67	5416.88
946.83	5158.83
947.00	5261.23
947.16	5302.19
947.33	5341.10
947.49	5253.04
947.66	5216.18
947.82	5302.19
947.99	5134.26
948.16	5355.44
948.32	5275.57
948.49	5361.58
948.65	5384.11
948.82	5353.39
948.98	5289.90
949.15	5248.94
949.31	5201.84
949.48	5230.51
949.64	5218.22
949.81	5373.87
949.97	5226.42
950.14	5382.06
950.30	5203.89
950.47	5412.78
950.63	5349.29
950.80	5214.13
950.96	5287.86
951.13	5375.92
951.30	5394.35
951.46	5228.46
951.63	5361.58
951.79	5392.30
951.96	5400.49
952.12	5418.93
952.29	5445.55
952.45	5357.49
952.62	5398.45
952.78	5412.78
952.94	5418.93
953.11	5300.14
953.27	5277.62
953.44	5406.64
953.60	5410.73
953.77	5394.35
953.93	5294.00
954.10	5242.80
954.26	5429.17
954.43	5361.58
954.59	5492.65
954.76	5451.69
954.92	5398.45
955.09	5474.22
955.25	5410.73
955.42	5457.84
955.58	5582.76
955.75	5408.69
955.91	5316.53
956.07	5547.95
956.24	5384.11
956.40	5478.32
956.57	5420.97
956.73	5441.45
956.90	5347.25
957.06	5414.83
957.23	5416.88
957.39	5476.27
957.56	5375.92
957.72	5236.66
957.88	5193.65
958.05	5480.36
958.21	5480.36
958.38	5455.79
958.54	5502.89
958.71	5492.65
958.87	5449.64
959.03	5271.47
959.20	5482.41
959.36	5255.09
959.53	5500.84
959.69	5273.52
959.85	5449.64
960.02	5357.49
960.18	5451.69
960.35	5420.97
960.51	5437.36
960.68	5302.19
960.84	5369.77
961.00	5427.12
961.17	5373.87
961.33	5425.07
961.50	5218.22
961.66	5400.49
961.82	5416.88
961.99	5363.63
962.15	5146.55
962.31	5193.65
962.48	5380.01
962.64	5210.03
962.81	5425.07
962.97	5322.67
963.13	5492.65
963.30	5369.77
963.46	5205.94
963.62	5240.75
963.79	5298.10
963.95	5296.05
964.12	5210.03
964.28	5296.05
964.44	5115.83
964.61	5412.78
964.77	5306.29
964.93	5347.25
965.10	5332.91
965.26	5265.33
965.42	5355.44
965.59	5195.70
965.75	5267.38
965.92	5253.04
966.08	5373.87
966.24	5099.44
966.41	5263.28
966.57	5144.50
966.73	5269.42
966.90	5128.11
967.06	5087.15
967.22	5124.02
967.39	5119.92
967.55	5107.63
967.71	5138.35
967.88	5169.07
968.04	5164.98
968.20	4995.00
968.37	5017.52
968.53	5142.45
968.69	5111.73
968.85	5105.59
969.02	5162.93
969.18	5222.32
969.34	5048.24
969.51	5222.32
969.67	5218.22
969.83	5103.54
970.00	5226.42
970.16	5111.73
970.32	4999.09
970.48	5111.73
970.65	4816.82
970.81	5074.87
970.97	5066.67
971.14	4861.88
971.30	5050.29
971.46	5029.81
971.63	4945.84
971.79	5130.16
971.95	4923.32
972.11	4825.01
972.28	4898.74
972.44	4921.27
972.60	4726.71
972.76	4812.73
972.93	4814.77
973.09	4906.93
973.25	4898.74
973.42	4792.25
973.58	4843.45
973.74	4786.10
973.90	4763.58
974.07	4763.58
974.23	4736.95
974.39	4880.31
974.55	4724.66
974.72	4806.58
974.88	4515.77
975.04	4700.09
975.20	4673.46
975.37	4847.54
975.53	4689.85
975.69	4714.42
975.85	4628.41
976.01	4716.47
976.18	4806.58
976.34	4612.03
976.50	4624.31
976.66	4646.84
976.83	4585.40
976.99	4624.31
977.15	4591.55
977.31	4605.88
977.47	4591.55
977.64	4681.66
977.80	4560.83
977.96	4673.46
978.12	4550.59
978.29	4460.48
978.45	4468.67
978.61	4460.48
978.77	4597.69
978.93	4421.56
979.10	4399.04
979.26	4444.09
979.42	4462.52
979.58	4327.36
979.74	4317.12
979.91	4392.89
980.07	4302.78
980.23	4511.68
980.39	4405.18
980.55	4431.80
980.71	4192.19
980.88	4345.79
981.04	4382.65
981.20	4327.36
981.36	4374.46
981.52	4274.11
981.68	4140.99
981.85	4362.17
982.01	4288.45
982.17	4206.53
982.33	4233.15
982.49	4388.80
982.65	4165.57
982.82	4179.90
982.98	4245.44
983.14	4143.04
983.30	4196.29
983.46	4290.49
983.62	4280.25
983.79	4106.18
983.95	4061.12
984.11	4067.27
984.27	4218.82
984.43	4163.52
984.59	4200.38
984.75	4198.34
984.91	4104.13
985.08	4218.82
985.24	4057.03
985.40	4108.23
985.56	4097.99
985.72	3977.16
985.88	4128.70
986.04	3954.63
986.20	4042.69
986.37	4001.73
986.53	3946.44
986.69	4024.26
986.85	3897.28
987.01	3909.57
987.17	4016.07
987.33	3946.44
987.49	3928.00
987.65	4089.79
987.82	3923.91
987.98	3833.80
988.14	3846.09
988.30	3958.72
988.46	3913.67
988.62	3878.85
988.78	3817.41
988.94	3891.14
989.10	3686.34
989.26	3792.84
989.42	3858.37
989.59	3872.71
989.75	3788.74
989.91	3821.51
990.07	3557.32
990.23	3772.36
990.39	3725.26
990.55	3758.02
990.71	3858.37
990.87	3649.48
991.03	3729.35
991.19	3688.39
991.35	3710.92
991.51	3715.02
991.67	3653.58
991.83	3674.06
992.00	3708.87
992.16	3858.37
992.32	3643.34
992.48	3809.22
992.64	3510.22
992.80	3600.33
992.96	3712.97
993.12	3680.20
993.28	3551.18
993.44	3528.65
993.60	3725.26
993.76	3592.14
993.92	3559.37
994.08	3600.33
994.24	3534.79
994.40	3526.60
994.56	3551.18
994.72	3475.40
994.88	3489.74
995.04	3502.03
995.20	3620.81
995.36	3512.27
995.52	3454.92
995.68	3481.55
995.84	3368.91
996.00	3678.15
996.16	3444.68
996.32	3385.29
996.48	3377.10
996.64	3526.60
996.80	3354.57
996.96	3520.46
997.12	3416.01
997.28	3381.20
997.44	3383.24
997.60	3389.39
997.76	3383.24
997.92	3358.67
998.08	3346.38
998.24	3311.57
998.40	3299.28
998.56	3373.00
998.72	3297.23
998.88	3221.45
999.04	3317.71
999.20	3401.68
999.36	3239.89
999.52	3319.76
999.68	3241.93
999.84	3379.15
1000.00	3321.81
1000.16	3235.79
1000.32	3223.50
1000.48	3330.00
1000.64	3114.96
1000.80	3151.82
1000.95	3160.02
1001.11	3180.50
1001.27	3141.58
1001.43	3151.82
1001.59	3094.48
1001.75	3162.06
1001.91	3147.73
1002.07	3051.47
1002.23	3160.02
1002.39	3055.57
1002.55	3110.86
1002.71	3014.61
1002.87	3041.23
1003.03	3069.91
1003.19	2994.13
1003.34	3110.86
1003.50	3045.33
1003.66	3061.71
1003.82	2975.70
1003.98	3024.85
1004.14	3028.95
1004.30	3071.95
1004.46	3008.47
1004.62	2973.65
1004.78	2965.46
1004.94	2912.21
1005.09	3061.71
1005.25	3166.16
1005.41	2990.03
1005.57	3000.27
1005.73	2953.17
1005.89	2875.35
1006.05	2924.50
1006.21	2969.55
1006.37	2899.92
1006.52	2818.00
1006.68	2834.39
1006.84	2994.13
1007.00	2822.10
1007.16	3012.56
1007.32	2932.69
1007.48	2824.15
1007.64	2850.77
1007.79	2959.31
1007.95	2826.20
1008.11	2895.83
1008.27	2803.67
1008.43	2807.77
1008.59	2842.58
1008.75	2854.87
1008.91	2826.20
1009.06	2775.00
1009.22	2805.72
1009.38	2873.30
1009.54	2813.91
1009.70	2723.80
1009.86	2734.04
1010.01	2772.95
1010.17	2672.60
1010.33	2738.13
1010.49	2701.27
1010.65	2738.13
1010.81	2637.78
1010.96	2781.14
1011.12	2639.83
1011.28	2695.13
1011.44	2719.70
1011.60	2754.52
1011.76	2719.70
1011.91	2711.51
1012.07	2615.26
1012.23	2619.35
1012.39	2621.40
1012.55	2705.37
1012.71	2715.61
1012.86	2656.22
1013.02	2648.02
1013.18	2592.73
1013.34	2588.63
1013.50	2658.26
1013.65	2615.26
1013.81	2529.24
1013.97	2633.69
1014.13	2586.58
1014.29	2623.45
1014.44	2697.17
1014.60	2551.77
1014.76	2557.91
1014.92	2539.48
1015.07	2590.68
1015.23	2562.01
1015.39	2469.85
1015.55	2619.35
1015.71	2516.95
1015.86	2523.10
1016.02	2482.14
1016.18	2469.85
1016.34	2525.15
1016.49	2482.14
1016.65	2484.19
1016.81	2535.39
1016.97	2512.86
1017.12	2555.86
1017.28	2357.21
1017.44	2412.51
1017.60	2523.10
1017.75	2385.88
1017.91	2488.28
1018.07	2453.47
1018.23	2383.84
1018.38	2461.66
1018.54	2424.80
1018.70	2404.32
1018.86	2416.60
1019.01	2375.64
1019.17	2457.56
1019.33	2475.99
1019.49	2379.74
1019.64	2404.32
1019.80	2418.65
1019.96	2482.14
1020.12	2453.47
1020.27	2400.22
1020.43	2349.02
1020.59	2332.64
1020.74	2387.93
1020.90	2506.71
1021.06	2346.97
1021.22	2404.32
1021.37	2334.68
1021.53	2279.39
1021.69	2379.74
1021.84	2355.16
1022.00	2314.20
1022.16	2316.25
1022.31	2400.22
1022.47	2252.77
1022.63	2322.40
1022.79	2195.42
1022.94	2281.44
1023.10	2371.55
1023.26	2205.66
1023.41	2220.00
1023.57	2260.96
1023.73	2277.34
1023.88	2265.05
1024.04	2228.19
1024.20	2195.42
1024.35	2314.20
1024.51	2254.81
1024.67	2234.33
1024.82	2220.00
1024.98	2154.46
1025.14	2252.77
1025.29	2189.28
1025.45	2176.99
1025.61	2119.65
1025.76	2224.09
1025.92	2146.27
1026.08	2232.29
1026.23	2201.57
1026.39	2170.85
1026.55	2193.37
1026.70	2086.88
1026.86	2138.08
1027.02	2285.53
1027.17	2220.00
1027.33	2166.75
1027.48	2144.22
1027.64	2105.31
1027.80	2185.18
1027.95	2244.57
1028.11	2095.07
1028.27	2117.60
1028.42	2181.09
1028.58	2088.93
1028.73	2047.97
1028.89	2019.30
1029.05	2217.95
1029.20	2160.61
>>>>>End Processed Spectral Data<<<<<
