SpectraSuite Data File
++++++++++++++++++++++++++++++++++++
Date: Fri Jun 02 14:41:56 CEST 2017
User: INFO_000
Dark Spectrum Present: No
Reference Spectrum Present: No
Number of Sampled Component Spectra: 1
Spectrometers: USB4H00879
Integration Time (usec): 80000 (USB4H00879)
Spectra Averaged: 1 (USB4H00879)
Boxcar Smoothing: 0 (USB4H00879)
Correct for Electrical Dark: No (USB4H00879)
Strobe/Lamp Enabled: No (USB4H00879)
Correct for Detector Non-linearity: No (USB4H00879)
Correct for Stray Light: No (USB4H00879)
Number of Pixels in Processed Spectrum: 3648
>>>>>Begin Processed Spectral Data<<<<<
345.13	1302.51
345.34	1302.51
345.56	1302.51
345.78	1232.88
345.99	1279.98
346.21	1732.58
346.42	1671.14
346.64	1701.86
346.86	1787.88
347.07	1658.85
347.29	1677.29
347.50	1617.90
347.72	1650.66
347.94	1681.38
348.15	1587.18
348.37	1730.53
348.59	1658.85
348.80	1652.71
349.02	1742.82
349.23	1837.03
349.45	1751.01
349.67	1802.21
349.88	1869.80
350.10	1984.48
350.31	1882.08
350.53	1736.68
350.75	1992.67
350.96	1779.68
351.18	1839.08
351.39	1837.03
351.61	1820.64
351.82	1976.29
352.04	1927.14
352.26	1841.12
352.47	1900.52
352.69	1882.08
352.90	1773.54
353.12	1886.18
353.34	1826.79
353.55	1925.09
353.77	1923.04
353.98	1839.08
354.20	1863.65
354.41	1898.47
354.63	1853.41
354.85	2027.49
355.06	1904.61
355.28	1824.74
355.49	1822.69
355.71	1902.56
355.92	1814.50
356.14	1970.15
356.35	1914.85
356.57	1861.60
356.79	1945.57
357.00	1912.80
357.22	1947.62
357.43	1910.75
357.65	1947.62
357.86	1914.85
358.08	1951.71
358.29	1945.57
358.51	1990.63
358.72	1943.52
358.94	1894.37
359.16	1974.24
359.37	1918.95
359.59	1955.81
359.80	1970.15
360.02	1906.66
360.23	1961.95
360.45	2015.20
360.66	1939.43
360.88	1865.70
361.09	1910.75
361.31	2035.68
361.52	1964.00
361.74	2023.39
361.95	2086.88
362.17	1925.09
362.38	2105.31
362.60	2047.97
362.81	1990.63
363.03	2013.15
363.24	1970.15
363.46	2068.45
363.67	2072.54
363.89	2043.87
364.10	2039.78
364.32	2019.30
364.53	2090.98
364.75	1945.57
364.96	2015.20
365.18	2050.02
365.39	2021.35
365.61	1959.91
365.82	2105.31
366.04	1974.24
366.25	1980.39
366.47	2031.58
366.68	2109.41
366.90	2000.87
367.11	2052.06
367.33	2058.21
367.54	2027.49
367.76	1994.72
367.97	2144.22
368.19	2066.40
368.40	2037.73
368.62	2011.11
368.83	1943.52
369.05	2076.64
369.26	2025.44
369.48	1994.72
369.69	1982.43
369.91	2000.87
370.12	2039.78
370.33	2174.94
370.55	1951.71
370.76	2033.63
370.98	2172.89
371.19	2115.55
371.41	2041.82
371.62	2060.26
371.84	2066.40
372.05	2111.46
372.27	2093.02
372.48	2066.40
372.69	2084.83
372.91	2107.36
373.12	2142.18
373.34	2107.36
373.55	2140.13
373.77	2222.05
373.98	2142.18
374.20	2187.23
374.41	2267.10
374.62	2142.18
374.84	2148.32
375.05	2289.63
375.27	2197.47
375.48	2084.83
375.70	2193.37
375.91	2258.91
376.12	2338.78
376.34	2166.75
376.55	2131.94
376.77	2152.42
376.98	2162.66
377.19	2113.50
377.41	2176.99
377.62	2199.52
377.84	2328.54
378.05	2320.35
378.27	2207.71
378.48	2422.75
378.69	2324.44
378.91	2383.84
379.12	2314.20
379.34	2232.29
379.55	2342.88
379.76	2289.63
379.98	2207.71
380.19	2281.44
380.41	2252.77
380.62	2285.53
380.83	2265.05
381.05	2303.96
381.26	2394.08
381.47	2287.58
381.69	2281.44
381.90	2357.21
382.12	2303.96
382.33	2281.44
382.54	2330.59
382.76	2375.64
382.97	2387.93
383.19	2265.05
383.40	2459.61
383.61	2344.92
383.83	2308.06
384.04	2297.82
384.25	2328.54
384.47	2453.47
384.68	2369.50
384.89	2377.69
385.11	2355.16
385.32	2361.31
385.54	2387.93
385.75	2346.97
385.96	2455.51
386.18	2455.51
386.39	2428.89
386.60	2469.85
386.82	2451.42
387.03	2478.04
387.24	2549.72
387.46	2467.80
387.67	2514.91
387.88	2508.76
388.10	2500.57
388.31	2549.72
388.52	2625.50
388.74	2541.53
388.95	2519.00
389.16	2516.95
389.38	2484.19
389.59	2686.94
389.80	2682.84
390.02	2572.25
390.23	2660.31
390.44	2602.97
390.66	2555.86
390.87	2426.84
391.08	2625.50
391.30	2672.60
391.51	2619.35
391.72	2760.66
391.94	2772.95
392.15	2598.87
392.36	2721.75
392.58	2611.16
392.79	2652.12
393.00	2619.35
393.22	2797.53
393.43	2768.85
393.64	2824.15
393.85	2662.36
394.07	2699.22
394.28	2813.91
394.49	2707.41
394.71	2805.72
394.92	2867.16
395.13	2682.84
395.35	2854.87
395.56	2791.38
395.77	2881.49
395.98	2846.68
396.20	2858.96
396.41	2930.64
396.62	2875.35
396.84	2873.30
397.05	2881.49
397.26	2971.60
397.47	3030.99
397.69	2824.15
397.90	3076.05
398.11	2924.50
398.32	2867.16
398.54	2998.23
398.75	2928.60
398.96	3028.95
399.18	3231.69
399.39	2969.55
399.60	3117.01
399.81	3057.62
400.03	3039.19
400.24	3254.22
400.45	3094.48
400.66	3033.04
400.88	3078.10
401.09	3342.28
401.30	3018.71
401.51	3209.17
401.73	3203.02
401.94	3147.73
402.15	3272.65
402.36	3219.41
402.58	3131.34
402.79	3297.23
403.00	3239.89
403.21	3301.33
403.43	3450.83
403.64	3399.63
403.85	3217.36
404.06	3344.33
404.27	3198.93
404.49	3315.66
404.70	3284.94
404.91	3426.25
405.12	3336.14
405.34	3252.17
405.55	3420.11
405.76	3174.35
405.97	3366.86
406.19	3491.79
406.40	3291.09
406.61	3360.72
406.82	3493.83
407.03	3375.05
407.25	3301.33
407.46	3450.83
407.67	3518.41
407.88	3465.16
408.09	3385.29
408.31	3389.39
408.52	3467.21
408.73	3442.64
408.94	3450.83
409.15	3469.26
409.37	3504.07
409.58	3618.76
409.79	3639.24
410.00	3682.25
410.21	3542.99
410.43	3557.32
410.64	3571.66
410.85	3637.19
411.06	3667.91
411.27	3618.76
411.48	3657.67
411.70	3637.19
411.91	3821.51
412.12	3751.88
412.33	3700.68
412.54	3739.59
412.76	3952.58
412.97	3772.36
413.18	3629.00
413.39	3731.40
413.60	3841.99
413.81	3792.84
414.03	3727.30
414.24	3796.93
414.45	3905.48
414.66	3645.38
414.87	3887.04
415.08	3811.27
415.30	3821.51
415.51	3917.76
415.72	3801.03
415.93	3792.84
416.14	3876.80
416.35	4001.73
416.56	3995.59
416.78	3866.56
416.99	3891.14
417.20	3993.54
417.41	4108.23
417.62	4036.55
417.83	4034.50
418.04	3950.53
418.26	4202.43
418.47	3989.44
418.68	4018.11
418.89	4110.27
419.10	4235.20
419.31	4147.14
419.52	4243.39
419.73	4198.34
419.95	4218.82
420.16	4042.69
420.37	4227.01
420.58	4298.69
420.79	4065.22
421.00	4212.67
421.21	4302.78
421.42	4130.75
421.63	4270.01
421.85	4181.95
422.06	4321.21
422.27	4265.92
422.48	4218.82
422.69	4296.64
422.90	4343.74
423.11	4380.61
423.32	4474.81
423.53	4499.39
423.75	4503.48
423.96	4589.50
424.17	4558.78
424.38	4693.94
424.59	4605.88
424.80	4665.27
425.01	4749.24
425.22	4640.70
425.43	4571.07
425.64	4706.23
425.85	4724.66
426.06	4759.48
426.28	4691.90
426.49	4609.98
426.70	4597.69
426.91	4673.46
427.12	4870.07
427.33	4798.39
427.54	4755.38
427.75	4853.69
427.96	4890.55
428.17	4886.45
428.38	5003.19
428.59	4968.37
428.80	4935.60
429.01	5091.25
429.23	4984.76
429.44	5201.84
429.65	5259.18
429.86	5167.03
430.07	4935.60
430.28	5085.11
430.49	5253.04
430.70	5205.94
430.91	5169.07
431.12	5257.14
431.33	5326.77
431.54	5341.10
431.75	5214.13
431.96	5253.04
432.17	5273.52
432.38	5386.16
432.59	5533.61
432.80	5597.10
433.01	5443.50
433.22	5461.93
433.43	5371.82
433.64	5461.93
433.85	5482.41
434.06	5541.80
434.27	5380.01
434.49	5527.47
434.70	5586.86
434.91	5664.68
435.12	5730.22
435.33	5572.52
435.54	5568.43
435.75	5500.84
435.96	5797.80
436.17	5443.50
436.38	5969.83
436.59	5836.71
436.80	5644.20
437.01	5959.59
437.22	5961.64
437.43	5922.73
437.64	5590.95
437.85	6074.28
438.06	5982.12
438.27	5910.44
438.48	5941.16
438.69	5975.97
438.90	5998.50
439.11	5812.14
439.32	6199.20
439.53	6125.47
439.74	6098.85
439.95	6145.95
440.16	6049.70
440.37	6205.35
440.57	6199.20
440.78	6154.15
440.99	6256.54
441.20	6299.55
441.41	6076.32
441.62	6174.63
441.83	6168.48
442.04	6229.92
442.25	6377.37
442.46	6172.58
442.67	6533.02
442.88	6741.91
443.09	6199.20
443.30	6397.85
443.51	6414.24
443.72	6545.31
443.93	6514.59
444.14	6664.09
444.35	6438.81
444.56	6598.56
444.77	6455.20
444.98	6655.90
445.19	6569.88
445.40	6707.10
445.61	6541.21
445.81	6666.14
446.02	6762.39
446.23	6631.32
446.44	6631.32
446.65	6616.99
446.86	6752.15
447.07	6821.78
447.28	7030.68
447.49	7034.77
447.70	6811.54
447.91	6948.76
448.12	6963.09
448.33	6977.43
448.54	7075.73
448.74	6954.90
448.95	7221.14
449.16	6844.31
449.37	7276.43
449.58	7176.08
449.79	7227.28
450.00	7174.03
450.21	7135.12
450.42	7393.17
450.63	7262.10
450.84	7212.95
451.05	7335.82
451.25	7163.79
451.46	7180.18
451.67	7430.03
451.88	7542.67
452.09	7485.33
452.30	7276.43
452.51	7434.13
452.72	7645.07
452.93	7696.27
453.13	7413.65
453.34	7307.15
453.55	7602.06
453.76	7450.51
453.97	7991.17
454.18	7923.59
454.39	7749.51
454.60	7786.38
454.81	7810.95
455.01	7991.17
455.22	7602.06
455.43	7858.06
455.64	8120.20
455.85	8163.20
456.06	8302.47
456.27	8109.96
456.48	8138.63
456.68	8152.96
456.89	8062.85
457.10	8296.32
457.31	8265.60
457.52	8173.44
457.73	8232.83
457.94	8783.74
458.14	8433.54
458.35	8630.14
458.56	8601.47
458.77	8499.07
458.98	8562.56
459.19	8720.25
459.39	8621.95
459.60	8804.22
459.81	8728.44
460.02	8777.59
460.23	8904.57
460.44	9047.93
460.65	8966.01
460.85	8996.73
461.06	9090.93
461.27	8884.09
461.48	9283.44
461.69	9359.22
461.89	8953.72
462.10	9226.10
462.31	9183.09
462.52	9330.55
462.73	9205.62
462.94	9416.56
463.14	9631.60
463.35	9598.83
463.56	9744.24
463.77	9795.43
463.98	9690.99
464.18	9645.93
464.39	9705.32
464.60	10053.48
464.81	9973.61
465.02	9994.09
465.23	10121.06
465.43	10012.52
465.64	10127.21
465.85	10051.43
466.06	10092.39
466.27	10415.97
466.47	10301.28
466.68	10569.57
466.89	10223.46
467.10	10618.72
467.30	10483.55
467.51	10592.09
467.72	10874.71
467.93	10641.25
468.14	10575.71
468.34	11110.23
468.55	10995.54
468.76	10839.90
468.97	10743.64
469.17	11251.54
469.38	11253.59
469.59	11456.34
469.80	11376.47
470.01	11243.35
470.21	11274.07
470.42	11589.46
470.63	11689.81
470.84	11487.06
471.04	11800.40
471.25	11786.06
471.46	11829.07
471.67	12115.78
471.87	11878.22
472.08	12011.34
472.29	12201.80
472.50	12062.54
472.70	12365.64
472.91	12400.45
473.12	12488.51
473.33	12332.87
473.53	12603.20
473.74	12439.36
473.95	12572.48
474.16	12986.17
474.36	12814.14
474.57	13018.94
474.78	12967.74
474.99	13084.47
475.19	12988.22
475.40	13547.31
475.61	13399.86
475.81	13866.80
476.02	13758.25
476.23	13672.24
476.44	13745.97
476.64	13836.08
476.85	14098.22
477.06	13922.09
477.27	14329.64
477.47	14587.68
477.68	14241.57
477.89	14604.07
478.09	14425.89
478.30	14622.50
478.51	14653.22
478.71	14798.62
478.92	14952.22
479.13	15208.22
479.34	15068.95
479.54	15261.46
479.75	15138.58
479.96	15550.23
480.16	15531.80
480.37	15695.63
480.58	15836.94
480.78	16017.16
480.99	15773.46
481.20	16301.83
481.41	16264.97
481.61	16144.14
481.82	16320.26
482.03	16365.32
482.23	16213.77
482.44	16688.90
482.65	16715.52
482.85	16744.19
483.06	16789.25
483.27	16805.63
483.47	16883.45
483.68	17092.35
483.89	17086.20
484.09	17417.97
484.30	17288.95
484.51	17340.15
484.71	17848.05
484.92	17706.74
485.13	17747.70
485.33	17940.21
485.54	17878.77
485.75	17952.49
485.95	18132.72
486.16	18413.29
486.37	18448.10
486.57	18269.93
486.78	18280.17
486.98	18382.57
487.19	18743.01
487.40	18765.54
487.60	18876.13
487.81	19234.52
488.02	19019.49
488.22	19058.40
488.43	19220.19
488.64	19191.52
488.84	19549.91
489.05	19314.39
489.25	19572.44
489.46	20037.33
489.67	19500.76
489.87	20084.43
490.08	19945.17
490.29	20049.61
490.49	20367.05
490.70	20367.05
490.90	20383.43
491.11	20446.92
491.32	20764.36
491.52	20514.50
491.73	20711.11
491.94	20694.72
492.14	20836.03
492.35	21106.37
492.55	21190.33
492.76	21354.17
492.97	21104.32
493.17	21296.83
493.38	21593.78
493.58	21606.07
493.79	21864.11
494.00	21718.71
494.20	21649.08
494.41	21948.08
494.61	22034.10
494.82	22042.29
495.02	22064.82
495.23	22458.03
495.44	22363.82
495.64	22718.12
495.85	22245.04
496.05	22855.33
496.26	22554.28
496.47	23262.88
496.67	22746.79
496.88	23324.32
497.08	22920.87
497.29	23117.47
497.49	23316.12
497.70	23365.28
497.91	23244.45
498.11	23637.66
498.32	23135.90
498.52	23748.25
498.73	23979.67
498.93	23735.96
499.14	23781.01
499.34	23989.91
499.55	24163.98
499.76	23871.12
499.96	24331.92
500.17	24331.92
500.37	24241.81
500.58	24436.36
500.78	24370.83
500.99	24452.75
501.19	24606.34
501.40	24817.29
501.60	24729.22
501.81	24956.55
502.02	24911.49
502.22	24823.43
502.43	24977.03
502.63	25319.04
502.84	25222.78
503.04	25104.00
503.25	25282.17
503.45	25235.07
503.66	25697.91
503.86	25450.11
504.07	25841.27
504.27	25386.62
504.48	26095.22
504.68	25919.09
504.89	26023.54
505.09	25921.14
505.30	26162.80
505.50	26191.47
505.71	26023.54
505.91	26140.27
506.12	26527.34
506.32	26560.11
506.53	26441.32
506.73	26502.76
506.94	26556.01
507.14	26504.81
507.35	26543.72
507.55	26650.22
507.76	26666.60
507.96	26670.70
508.17	26945.12
508.37	26871.40
508.58	27020.90
508.78	27231.84
508.99	27166.31
509.19	27289.18
509.40	27270.75
509.60	27446.88
509.81	27389.53
510.01	27352.67
510.22	27362.91
510.42	27553.37
510.63	27715.16
510.83	27547.23
511.04	27831.90
511.24	28053.08
511.44	28114.52
511.65	27706.97
511.85	27745.88
512.06	28102.23
512.26	27862.61
512.47	28309.07
512.67	28208.72
512.88	28397.13
513.08	27879.00
513.29	28694.09
513.49	28409.42
513.69	28456.53
513.90	28814.92
514.10	28802.63
514.31	28466.77
514.51	28862.02
514.72	28646.99
514.92	28620.36
515.13	29036.10
515.33	28902.98
515.53	29050.44
515.74	28651.08
515.94	29070.92
516.15	29314.62
516.35	28939.85
516.56	29306.43
516.76	28839.50
516.96	29367.87
517.17	29554.24
517.37	29564.48
517.58	29570.62
517.78	29464.13
517.99	29607.48
518.19	30115.38
518.39	30137.91
518.60	30207.54
518.80	30203.44
519.01	30111.28
519.21	30348.85
519.41	30238.26
519.62	29951.54
519.82	30170.68
520.03	30264.88
520.23	30893.61
520.43	30232.11
520.64	30631.47
520.84	30832.17
521.05	30518.83
521.25	30977.58
521.45	31141.41
521.66	31340.07
521.86	30959.14
522.07	31051.30
522.27	30889.51
522.47	31284.77
522.68	31641.12
522.88	31342.11
523.08	31649.31
523.29	31424.03
523.49	31706.65
523.70	31700.51
523.90	31788.57
524.10	31751.71
524.31	31999.51
524.51	31761.95
524.71	32478.74
524.92	32278.04
525.12	32114.20
525.33	32085.53
525.53	32513.55
525.73	32697.87
525.94	32876.04
526.14	32765.45
526.34	32665.10
526.55	32990.73
526.75	32890.38
526.95	33244.68
527.16	33119.75
527.36	33009.16
527.56	33588.74
527.77	33347.08
527.97	33504.77
528.17	33580.54
528.38	33435.14
528.58	33555.97
528.78	33680.89
528.99	33529.34
529.19	34307.57
529.39	33826.30
529.60	34690.54
529.80	34543.09
530.00	34203.13
530.21	34405.88
530.41	34792.94
530.61	34602.48
530.82	34586.10
531.02	34850.28
531.22	34895.34
531.43	34967.02
531.63	34827.76
531.83	35329.51
532.04	35565.03
532.24	35274.21
532.44	35980.76
532.64	35706.34
532.85	35552.74
533.05	36107.74
533.25	35845.60
533.46	36109.78
533.66	36179.42
533.86	35825.12
534.07	36326.87
534.27	36462.04
534.47	36611.54
534.67	36675.02
534.88	36623.83
535.08	36767.18
535.28	36885.97
535.49	36910.54
535.69	37357.00
535.89	37062.09
536.09	37027.28
536.30	37711.30
536.50	37221.83
536.70	37594.56
536.91	37430.72
537.11	37635.52
537.31	37948.86
537.51	37727.68
537.72	38106.55
537.92	38297.02
538.12	38593.97
538.32	38237.62
538.53	38430.13
538.73	38163.90
538.93	38350.26
539.13	38495.67
539.34	38571.44
539.54	38352.31
539.74	38981.04
539.94	38823.34
540.15	38653.36
540.35	39132.59
540.55	39116.20
540.75	38645.17
540.96	39058.86
541.16	39296.42
541.36	39267.75
541.56	39148.97
541.77	39726.50
541.97	39663.01
542.17	39769.51
542.37	39763.36
542.58	40263.07
542.78	39597.48
542.98	39900.58
543.18	40088.99
543.38	40496.53
543.59	40412.57
543.79	40299.93
543.99	40297.88
544.19	40447.38
544.40	40557.97
544.60	40760.72
544.80	40822.16
545.00	40580.50
545.20	40942.99
545.41	40791.44
545.61	40766.87
545.81	41309.58
546.01	41178.51
546.21	41364.87
546.42	41235.85
546.62	41543.05
546.82	41233.80
547.02	41276.81
547.22	41358.73
547.43	41448.84
547.63	41620.87
547.83	41276.81
548.03	41670.02
548.23	42265.98
548.44	41737.60
548.64	41893.25
548.84	41876.86
549.04	42106.24
549.24	42681.72
549.45	42481.02
549.65	41919.87
549.85	42012.03
550.05	42519.93
550.25	42278.27
550.45	42599.80
550.66	42677.62
550.86	42225.02
551.06	42777.97
551.26	42816.88
551.46	42761.59
551.66	43044.21
551.87	42587.51
552.07	42614.13
552.27	42491.26
552.47	42583.41
552.67	43283.82
552.87	42882.42
553.07	43119.98
553.28	43156.85
553.48	43156.85
553.68	43179.37
553.88	43437.42
554.08	43511.14
554.28	43531.62
554.48	43523.43
554.69	43636.07
554.89	43322.73
555.09	43810.15
555.29	43349.35
555.49	43652.45
555.69	43328.87
555.89	43672.93
556.10	43799.91
556.30	43951.46
556.50	44113.25
556.70	43861.35
556.90	44213.60
557.10	44193.12
557.30	44236.12
557.50	44119.39
557.70	44344.67
557.91	44580.18
558.11	44256.60
558.31	44498.26
558.51	44578.14
558.71	44864.85
558.91	44557.66
559.11	44344.67
559.31	44610.90
559.51	44502.36
559.72	44578.14
559.92	44885.33
560.12	44465.50
560.32	44725.59
560.52	44639.57
560.72	45028.69
560.92	45204.81
561.12	44604.76
561.32	45270.35
561.52	44719.45
561.72	45223.25
561.93	45008.21
562.13	45245.77
562.33	44959.06
562.53	45503.82
562.73	44897.62
562.93	45149.52
563.13	45284.68
563.33	45188.43
563.53	45710.66
563.73	45286.73
563.93	45546.82
564.13	45962.56
564.33	45479.24
564.53	45536.59
564.74	45712.71
564.94	45464.91
565.14	45624.65
565.34	45739.33
565.54	45825.35
565.74	45759.81
565.94	46052.67
566.14	45878.60
566.34	45602.12
566.54	46484.79
566.74	46087.49
566.94	45923.65
567.14	46290.24
567.34	46007.62
567.54	46503.23
567.74	45948.23
567.94	45868.36
568.14	46376.25
568.34	46449.98
568.54	46413.12
568.74	46488.89
568.94	46474.55
569.14	47009.07
569.34	46726.46
569.54	46613.82
569.75	46255.42
569.95	46937.40
570.15	46908.72
570.35	47101.23
570.55	46861.62
570.75	46495.03
570.95	47047.99
571.15	46996.79
571.35	47383.85
571.55	47394.09
571.75	47177.01
571.95	47084.85
572.15	46843.19
572.35	47342.89
572.55	47473.96
572.75	46994.74
572.95	47488.30
573.15	47412.52
573.35	47207.73
573.55	47496.49
573.75	47486.25
573.95	47314.22
574.15	47818.02
574.35	47666.47
574.55	47635.75
574.75	47756.58
574.95	47858.98
575.15	47523.11
575.34	47643.94
575.54	48102.69
575.74	48184.61
575.94	47945.00
576.14	48022.82
576.34	48661.79
576.54	48391.45
576.74	48172.32
576.94	47818.02
577.14	48581.91
577.34	48575.77
577.54	48223.52
577.74	48547.10
577.94	48528.67
578.14	48594.20
578.34	48837.91
578.54	48223.52
578.74	48446.75
578.94	48772.38
579.14	48106.79
579.34	48366.88
579.54	48608.54
579.74	49145.11
579.94	49354.00
580.13	48948.50
580.33	49188.11
580.53	49526.03
580.73	49304.85
580.93	48866.58
581.13	49356.05
581.33	49601.80
581.53	49603.85
581.73	49263.89
581.93	49804.55
582.13	49478.92
582.33	49818.89
582.53	49474.83
582.73	49853.70
582.92	49628.43
583.12	49825.03
583.32	49397.01
583.52	49648.91
583.72	50025.73
583.92	50017.54
584.12	50187.52
584.32	50656.51
584.52	50263.30
584.72	50703.61
584.92	50402.56
585.11	51205.36
585.31	50291.97
585.51	50679.03
585.71	50625.79
585.91	51019.00
586.11	50674.94
586.31	50615.55
586.51	50697.47
586.71	50726.14
586.91	51047.67
587.10	51336.43
587.30	51205.36
587.50	51158.26
587.70	51449.07
587.90	51176.69
588.10	50996.47
588.30	51172.60
588.50	51274.99
588.69	51442.93
588.89	51201.27
589.09	51617.00
589.29	51715.31
589.49	51688.68
589.69	51471.60
589.89	51582.19
590.08	51498.22
590.28	51586.28
590.48	51557.61
590.68	51363.06
590.88	51412.21
591.08	52102.37
591.28	51758.31
591.47	52354.27
591.67	51950.82
591.87	51979.49
592.07	52262.11
592.27	52323.55
592.47	51901.67
592.67	52262.11
592.86	51942.63
593.06	52274.40
593.26	52122.85
593.46	52098.28
593.66	52559.07
593.86	52786.39
594.05	52028.65
594.25	52792.54
594.45	52499.68
594.65	52757.72
594.85	51862.76
595.05	52761.82
595.24	52929.75
595.44	53210.32
595.64	52552.93
595.84	52853.98
596.04	52966.62
596.23	53148.88
596.43	53732.56
596.63	52782.30
596.83	53296.34
597.03	53583.05
597.22	53527.76
597.42	53556.43
597.62	53574.86
597.82	53222.61
598.02	53814.47
598.21	53748.94
598.41	53036.25
598.61	53570.77
598.81	53929.16
599.01	53755.08
599.20	54117.57
599.40	53703.88
599.60	54056.14
599.80	53976.26
600.00	53918.92
600.19	54518.98
600.39	53806.28
600.59	54588.61
600.79	54351.04
600.98	53798.09
601.18	54408.39
601.38	54277.32
601.58	54707.39
601.78	54142.15
601.97	54437.06
602.17	55166.13
602.37	55260.34
602.57	54670.53
602.76	55254.20
602.96	54731.96
603.16	54901.95
603.36	55002.30
603.55	55661.74
603.75	54793.40
603.95	55104.70
604.15	55477.43
604.34	55090.36
604.54	55211.19
604.74	55663.79
604.94	55563.44
605.13	55256.24
605.33	55850.16
605.53	55473.33
605.73	55733.42
605.92	55415.99
606.12	55266.48
606.32	55370.93
606.52	55473.33
606.71	55946.41
606.91	56114.34
607.11	55919.79
607.30	55936.17
607.50	56145.06
607.70	56257.70
607.90	55948.46
608.09	56366.24
608.29	56480.93
608.49	55970.99
608.68	56222.89
608.88	56229.03
609.08	56448.16
609.28	56032.42
609.47	56155.30
609.67	56677.54
609.87	56054.95
610.06	56908.96
610.26	56456.35
610.46	56792.22
610.66	56550.56
610.85	56695.97
611.05	56276.13
611.25	56847.52
611.44	56374.44
611.64	56290.47
611.84	56587.42
612.03	56808.61
612.23	56607.90
612.43	56722.59
612.62	56870.04
612.82	56890.52
613.02	56556.70
613.21	56849.56
613.41	56538.27
613.61	57115.80
613.80	56237.22
614.00	56822.94
614.20	56708.25
614.39	56779.93
614.59	56685.73
614.79	56587.42
614.98	57037.98
615.18	57076.89
615.38	57040.03
615.57	56368.29
615.77	57332.89
615.97	57474.20
616.16	56874.14
616.36	57121.94
616.56	57134.23
616.75	57029.79
616.95	56685.73
617.15	56671.39
617.34	57394.32
617.54	57150.62
617.74	57482.39
617.93	57095.32
618.13	56677.54
618.32	57080.98
618.52	57046.17
618.72	56951.96
618.91	57390.23
619.11	57271.45
619.31	57029.79
619.50	57070.75
619.70	56960.15
619.90	56536.23
620.09	57269.40
620.29	56974.49
620.48	57279.64
620.68	57394.32
620.88	56439.97
621.07	57310.36
621.27	57164.95
621.46	56986.78
621.66	56802.46
621.86	57037.98
622.05	56716.45
622.25	57226.39
622.44	56958.11
622.64	57062.55
622.84	57377.94
623.03	57091.22
623.23	57210.01
623.42	57083.03
623.62	57271.45
623.82	57253.01
624.01	56939.68
624.21	57402.52
624.40	57013.40
624.60	56935.58
624.80	56845.47
624.99	56870.04
625.19	56837.28
625.38	57040.03
625.58	57513.11
625.77	57121.94
625.97	57310.36
626.17	56997.02
626.36	57164.95
626.56	57449.62
626.75	56802.46
626.95	57275.54
627.14	56851.61
627.34	57580.69
627.54	56792.22
627.73	56999.07
627.93	57345.17
628.12	56835.23
628.32	57146.52
628.51	56794.27
628.71	56796.32
628.90	56876.19
629.10	57074.84
629.30	57121.94
629.49	57199.77
629.69	57021.59
629.88	57103.51
630.08	57158.81
630.27	57447.57
630.47	56816.80
630.66	57179.29
630.86	57552.02
631.05	56878.24
631.25	57513.11
631.44	57357.46
631.64	57033.88
631.84	57652.37
632.03	57513.11
632.23	57382.04
632.42	57611.41
632.62	57177.24
632.81	56939.68
633.01	57066.65
633.20	57136.28
633.40	57484.43
633.59	57279.64
633.79	57035.93
633.98	57320.60
634.18	57668.75
634.37	57724.05
634.57	57363.60
634.76	57423.00
634.96	57449.62
635.15	57478.29
635.35	57459.86
635.54	57046.17
635.74	57351.32
635.93	57123.99
636.13	57496.72
636.32	57953.42
636.52	57177.24
636.71	57308.31
636.91	57095.32
637.10	57310.36
637.30	57496.72
637.49	57666.70
637.69	57549.97
637.88	57586.83
638.08	57277.59
638.27	57644.18
638.46	57644.18
638.66	57793.68
638.85	58021.00
639.05	57773.20
639.24	57384.08
639.44	57621.65
639.63	57582.74
639.83	57398.42
640.02	57683.09
640.22	58133.64
640.41	57984.14
640.61	57001.11
640.80	57650.32
640.99	57584.79
641.19	57957.52
641.38	57779.34
641.58	57584.79
641.77	57670.80
641.97	57705.62
642.16	57515.15
642.36	57808.01
642.55	57984.14
642.74	57801.87
642.94	58147.98
643.13	57660.56
643.33	58295.43
643.52	58182.79
643.72	58176.65
643.91	57861.26
644.10	58000.52
644.30	58418.31
644.49	58059.91
644.69	58332.29
644.88	58379.40
645.08	57934.99
645.27	58145.93
645.46	57916.56
645.66	58094.73
645.85	58332.29
646.05	58131.59
646.24	58514.56
646.43	58598.53
646.63	58442.88
646.82	58842.24
647.02	58590.34
647.21	58330.25
647.40	58422.40
647.60	58510.47
647.79	58713.22
647.99	58487.94
648.18	58301.57
648.37	58561.67
648.57	58838.14
648.76	58930.30
648.96	58176.65
649.15	58643.59
649.34	58709.12
649.54	58334.34
649.73	58500.23
649.92	58696.83
650.12	58389.64
650.31	58346.63
650.51	58875.01
650.70	58836.09
650.89	58719.36
651.09	59290.74
651.28	58633.35
651.47	59231.35
651.67	58952.83
651.86	59253.88
652.06	58356.87
652.25	58864.77
652.44	58700.93
652.64	58289.29
652.83	58637.44
653.02	58326.15
653.22	59004.03
653.41	58596.48
653.60	58717.31
653.80	58791.04
653.99	59081.85
654.18	58479.75
654.38	58360.97
654.57	58719.36
654.76	59380.85
654.96	58619.01
655.15	58803.33
655.34	59104.38
655.54	58905.73
655.73	59151.48
655.92	59001.98
656.12	59161.72
656.31	59128.95
656.50	59087.99
656.70	58860.67
656.89	59069.56
657.08	59131.00
657.28	59241.59
657.47	58782.85
657.66	59186.30
657.86	58643.59
658.05	59036.80
658.24	58860.67
658.43	58950.78
658.63	59069.56
658.82	59278.46
659.01	59143.29
659.21	59268.22
659.40	58975.36
659.59	59182.20
659.79	59343.99
659.98	59014.27
660.17	59448.44
660.36	59315.32
660.56	58889.34
660.75	59479.16
660.94	59063.42
661.14	59323.51
661.33	59243.64
661.52	59202.68
661.71	59587.70
661.91	59085.95
662.10	59221.11
662.29	59405.43
662.49	59219.06
662.68	59053.18
662.87	59518.07
663.06	59206.78
663.26	59378.81
663.45	59434.10
663.64	59307.13
663.83	59614.32
664.03	59561.08
664.22	59229.30
664.41	59374.71
664.60	58827.90
664.80	59364.47
664.99	59219.06
665.18	59065.47
665.37	59069.56
665.57	59604.08
665.76	58995.84
665.95	59716.72
666.14	59137.15
666.34	58922.11
666.53	59235.45
666.72	59053.18
666.91	58872.96
667.11	59151.48
667.30	59440.24
667.49	59284.60
667.68	59720.82
667.87	59032.70
668.07	59038.84
668.26	59204.73
668.45	59378.81
668.64	59184.25
668.84	59520.12
669.03	59174.01
669.22	58463.36
669.41	59276.41
669.60	59376.76
669.80	58823.81
669.99	59489.40
670.18	58842.24
670.37	59251.83
670.57	59554.93
670.76	58915.96
670.95	59241.59
671.14	59585.65
671.33	58760.32
671.53	59608.18
671.72	59268.22
671.91	59337.85
672.10	59096.19
672.29	58938.49
672.48	58713.22
672.68	59554.93
672.87	58995.84
673.06	58788.99
673.25	59210.87
673.44	59208.82
673.64	59053.18
673.83	58870.91
674.02	59147.39
674.21	58619.01
674.40	59327.61
674.59	58901.63
674.79	59368.57
674.98	58897.53
675.17	59028.60
675.36	59169.91
675.55	59135.10
675.74	58864.77
675.94	58754.18
676.13	58797.18
676.32	59073.66
676.51	59131.00
676.70	59022.46
676.89	58520.71
677.08	59376.76
677.28	58778.75
677.47	58893.44
677.66	59020.41
677.85	59300.98
678.04	59071.61
678.23	59200.63
678.42	58633.35
678.62	59090.04
678.81	59395.19
679.00	59196.54
679.19	59372.66
679.38	59233.40
679.57	58782.85
679.76	59044.99
679.96	59139.19
680.15	58778.75
680.34	59038.84
680.53	58762.37
680.72	59188.34
680.91	58965.12
681.10	58459.27
681.29	58788.99
681.48	58479.75
681.68	58707.07
681.87	58926.20
682.06	58963.07
682.25	58406.02
682.44	58565.76
682.63	58961.02
682.82	58268.81
683.01	58522.76
683.20	58750.08
683.39	58580.10
683.59	58801.28
683.78	58379.40
683.97	58262.66
684.16	58512.52
684.35	58422.40
684.54	58184.84
684.73	58164.36
684.92	58356.87
685.11	58238.09
685.30	57984.14
685.49	58383.49
685.69	58072.20
685.88	58289.29
686.07	57998.48
686.26	58193.03
686.45	58823.81
686.64	58119.31
686.83	58338.44
687.02	58195.08
687.21	58455.17
687.40	57478.29
687.59	57881.74
687.78	58045.58
687.97	58156.17
688.16	57906.32
688.35	57978.00
688.54	57793.68
688.74	58068.11
688.93	58045.58
689.12	57828.49
689.31	58078.35
689.50	57988.24
689.69	57812.11
689.88	57269.40
690.07	57681.04
690.26	57754.77
690.45	57676.94
690.64	57623.70
690.83	57588.88
691.02	57562.26
691.21	57656.46
691.40	57564.31
691.59	57336.98
691.78	57474.20
691.97	57861.26
692.16	57726.10
692.35	57902.22
692.54	57373.84
692.73	57932.94
692.92	57765.01
693.11	57840.78
693.30	57418.90
693.49	57951.37
693.68	57154.71
693.87	57494.67
694.06	57756.81
694.25	57302.17
694.44	57121.94
694.63	57210.01
694.82	57339.03
695.01	57212.06
695.20	56784.03
695.39	56728.73
695.58	57115.80
695.77	57173.14
695.96	57107.61
696.15	56921.24
696.34	56861.85
696.53	57017.50
696.72	57382.04
696.91	56886.43
697.10	57040.03
697.29	56564.90
697.48	57164.95
697.67	56452.26
697.86	56472.74
698.05	56749.21
698.24	56876.19
698.43	56554.66
698.62	56695.97
698.81	56546.47
699.00	56511.65
699.19	56294.56
699.38	56491.17
699.57	55985.32
699.76	56964.25
699.95	56222.89
700.14	55977.13
700.32	56241.32
700.51	56231.08
700.70	56784.03
700.89	56743.07
701.08	56177.83
701.27	56085.67
701.46	56589.47
701.65	55811.24
701.84	55942.31
702.03	56497.31
702.22	56183.97
702.41	56206.50
702.60	55991.47
702.79	56124.58
702.98	55569.58
703.17	56403.11
703.35	55682.22
703.54	55467.19
703.73	56091.82
703.92	55858.35
704.11	55948.46
704.30	56073.38
704.49	55792.81
704.68	56288.42
704.87	55598.26
705.06	55682.22
705.25	55839.92
705.43	55688.37
705.62	55772.33
705.81	55870.64
706.00	55606.45
706.19	55432.37
706.38	55282.87
706.57	55358.64
706.76	55219.38
706.95	55362.74
707.14	54899.90
707.32	55340.21
707.51	54922.43
707.70	55440.56
707.89	55258.29
708.08	55229.62
708.27	55295.16
708.46	55116.98
708.65	54754.49
708.84	55456.95
709.02	55260.34
709.21	54754.49
709.40	55192.76
709.59	54744.25
709.78	54457.54
709.97	55063.74
710.16	54373.57
710.34	54568.13
710.53	54721.72
710.72	54686.91
710.91	54688.96
711.10	54897.85
711.29	54914.23
711.48	54822.08
711.66	54529.22
711.85	54572.22
712.04	54371.52
712.23	54842.56
712.42	54498.50
712.61	54187.21
712.80	54508.74
712.98	54568.13
713.17	54328.52
713.36	54381.76
713.55	54240.45
713.74	54115.53
713.93	54154.44
714.11	54412.48
714.30	54242.50
714.49	53959.88
714.68	54129.86
714.87	53996.74
715.06	54506.69
715.24	53830.86
715.43	54131.91
715.62	53652.69
715.81	53529.81
716.00	54144.20
716.18	53435.60
716.37	53257.43
716.56	53679.31
716.75	54295.75
716.94	53613.77
717.12	53144.79
717.31	53826.76
717.50	53325.01
717.69	53171.41
717.88	53466.32
718.06	53384.40
718.25	53939.40
718.44	52878.55
718.63	52841.69
718.82	52944.09
719.00	53050.58
719.19	52706.52
719.38	53169.36
719.57	52815.07
719.76	52823.26
719.94	52681.95
720.13	52614.37
720.32	52360.42
720.51	52337.89
720.69	52440.29
720.88	52370.66
721.07	52487.39
721.26	51954.92
721.44	52317.41
721.63	52571.36
721.82	51920.10
722.01	52274.40
722.20	52118.76
722.38	51684.59
722.57	51383.54
722.76	52002.02
722.95	51786.99
723.13	51254.51
723.32	51680.49
723.51	51211.51
723.70	51483.89
723.88	51713.26
724.07	51137.78
724.26	51492.08
724.44	51025.14
724.63	51584.24
724.82	51709.16
725.01	51285.23
725.19	51584.24
725.38	51131.64
725.57	50822.39
725.76	51336.43
725.94	50818.30
726.13	51025.14
726.32	51098.87
726.51	50713.85
726.69	50937.08
726.88	51240.18
727.07	51250.42
727.25	50971.89
727.44	51279.09
727.63	50597.12
727.82	50517.25
728.00	51092.72
728.19	50734.33
728.38	50914.55
728.56	50337.02
728.75	50865.40
728.94	50541.82
729.12	50703.61
729.31	51391.73
729.50	50822.39
729.69	50558.20
729.87	50574.59
730.06	50785.53
730.25	50476.29
730.43	50922.74
730.62	50668.79
730.81	50910.46
730.99	50726.14
731.18	50486.53
731.37	50531.58
731.55	50656.51
731.74	50799.86
731.93	50836.73
732.11	50640.12
732.30	50556.16
732.49	50597.12
732.67	50652.41
732.86	50627.84
733.05	50457.85
733.23	50308.35
733.42	50279.68
733.61	50212.10
733.79	50324.74
733.98	50722.04
734.17	50337.02
734.35	50314.50
734.54	50525.44
734.73	50558.20
734.91	50388.22
735.10	49956.10
735.29	50369.79
735.47	49992.97
735.66	50341.12
735.84	50124.04
736.03	49487.12
736.22	50519.29
736.40	50115.84
736.59	50177.28
736.78	49992.97
736.96	49870.09
737.15	50081.03
737.33	49773.83
737.52	49755.40
737.71	49734.92
737.89	49788.17
738.08	49894.66
738.27	49468.69
738.45	50222.34
738.64	49673.48
738.82	49911.05
739.01	49583.37
739.20	49331.47
739.38	49906.95
739.57	50025.73
739.75	49650.95
739.94	49261.84
740.13	49700.11
740.31	49665.29
740.50	49333.52
740.68	49501.45
740.87	49751.30
741.06	49788.17
741.24	49173.78
741.43	49259.79
741.61	49550.60
741.80	48925.97
741.99	48919.83
742.17	48680.22
742.36	49454.35
742.54	49179.92
742.73	48936.21
742.91	48952.60
743.10	49169.68
743.29	49454.35
743.47	49376.53
743.66	48936.21
743.84	49362.19
744.03	49382.67
744.21	48741.66
744.40	48747.80
744.59	48968.98
744.77	48743.70
744.96	48964.88
745.14	48760.09
745.33	48069.92
745.51	48669.98
745.70	48649.50
745.88	48993.56
746.07	48223.52
746.26	48180.51
746.44	48299.30
746.63	48186.66
746.81	48399.65
747.00	48155.94
747.18	48188.70
747.37	48162.08
747.55	48305.44
747.74	48639.26
747.92	48342.30
748.11	48528.67
748.29	48100.64
748.48	48452.89
748.66	47834.41
748.85	48176.42
749.03	48059.68
749.22	48608.54
749.41	47891.75
749.59	48061.73
749.78	47775.02
749.96	47328.56
750.15	48043.30
750.33	47848.74
750.52	47879.46
750.70	47981.86
750.89	47760.68
751.07	47197.49
751.26	47410.48
751.44	47486.25
751.63	47781.16
751.81	47578.41
752.00	47400.24
752.18	47756.58
752.37	47269.17
752.55	47076.66
752.74	47131.95
752.92	47463.72
753.10	47535.40
753.29	47363.37
753.47	47004.98
753.66	46726.46
753.84	47340.85
754.03	47314.22
754.21	46757.17
754.40	47488.30
754.58	47142.19
754.77	47105.33
754.95	46935.35
755.14	47156.53
755.32	47160.62
755.51	46503.23
755.69	46978.36
755.88	46759.22
756.06	46775.61
756.24	46974.26
756.43	46822.71
756.61	46658.87
756.80	46568.76
756.98	46286.14
757.17	46372.16
757.35	46310.72
757.54	46675.26
757.72	46544.19
757.90	45970.75
758.09	46241.09
758.27	46009.67
758.46	46230.85
758.64	46341.44
758.83	46581.05
759.01	46228.80
759.19	45901.12
759.38	45854.02
759.56	46261.57
759.75	46046.53
759.93	45655.37
760.12	45956.42
760.30	46046.53
760.48	45684.04
760.67	45610.31
760.85	45454.67
761.04	45610.31
761.22	45718.85
761.40	45907.27
761.59	45741.38
761.77	45540.68
761.96	45788.49
762.14	45514.06
762.32	45000.02
762.51	45176.14
762.69	45282.64
762.88	45213.01
763.06	45083.98
763.24	45309.26
763.43	45489.48
763.61	45401.42
763.80	44881.24
763.98	44905.81
764.16	45028.69
764.35	45397.32
764.53	44821.84
764.72	44877.14
764.90	44791.12
765.08	44676.44
765.27	44494.17
765.45	44402.01
765.63	44139.87
765.82	44617.05
766.00	44340.57
766.18	44414.30
766.37	44467.55
766.55	44449.11
766.74	44471.64
766.92	43961.70
767.10	44131.68
767.29	43914.59
767.47	43853.15
767.65	44397.91
767.84	44004.70
768.02	44295.52
768.20	43750.76
768.39	43840.87
768.57	43898.21
768.75	43783.52
768.94	43519.34
769.12	43930.98
769.30	43578.73
769.49	43619.69
769.67	43517.29
769.85	43476.33
770.04	43515.24
770.22	43476.33
770.40	42898.80
770.59	43447.66
770.77	43672.93
770.95	43810.15
771.14	42956.14
771.32	42837.36
771.50	42845.55
771.69	43232.62
771.87	43173.23
772.05	42902.90
772.24	42661.24
772.42	42878.32
772.60	42384.76
772.78	42804.59
772.97	42605.94
773.15	43570.54
773.33	42993.01
773.52	42825.07
773.70	42546.55
773.88	42925.42
774.07	42370.43
774.25	42575.22
774.43	42769.78
774.61	42763.64
774.80	42624.37
774.98	42710.39
775.16	42444.15
775.34	42728.82
775.53	42405.24
775.71	43019.63
775.89	42984.82
776.08	42720.63
776.26	43150.70
776.44	42409.34
776.62	42814.83
776.81	42544.50
776.99	42990.96
777.17	42917.23
777.35	42966.38
777.54	42968.43
777.72	42483.06
777.90	42603.89
778.08	43201.90
778.27	42759.54
778.45	42909.04
778.63	43548.01
778.81	42493.30
779.00	43212.14
779.18	43292.01
779.36	43398.51
779.54	43210.09
779.73	43068.78
779.91	43427.18
780.09	43474.28
780.27	43568.49
780.46	43189.61
780.64	43392.36
780.82	43367.79
781.00	43408.75
781.19	43275.63
781.37	43476.33
781.55	43009.39
781.73	43449.70
781.91	43394.41
782.10	43373.93
782.28	43707.75
782.46	43808.10
782.64	43849.06
782.82	43240.81
783.01	43890.02
783.19	43740.52
783.37	43177.33
783.55	43480.42
783.74	43543.91
783.92	43271.53
784.10	43953.51
784.28	43814.24
784.46	43197.80
784.64	43040.11
784.83	43636.07
785.01	43685.22
785.19	43531.62
785.37	44008.80
785.55	43746.66
785.74	43619.69
785.92	43615.59
786.10	43685.22
786.28	43537.77
786.46	42714.48
786.64	42816.88
786.83	43187.56
787.01	43455.85
787.19	43400.55
787.37	43439.47
787.55	43234.67
787.74	42950.00
787.92	43107.69
788.10	42915.19
788.28	42775.92
788.46	43171.18
788.64	42755.44
788.82	43076.97
789.01	42517.88
789.19	42913.14
789.37	42581.37
789.55	42761.59
789.73	42247.55
789.91	41995.65
790.09	42681.72
790.28	42366.33
790.46	41784.71
790.64	42493.30
790.82	42528.12
791.00	41794.95
791.18	42024.32
791.36	41993.60
791.55	42413.43
791.73	42007.94
791.91	41168.27
792.09	41985.41
792.27	41690.50
792.45	41731.46
792.63	42161.53
792.81	41805.19
793.00	41426.31
793.18	41577.86
793.36	41553.29
793.54	41551.24
793.72	40789.39
793.90	40871.31
794.08	40889.74
794.26	41024.91
794.44	40484.25
794.62	40392.09
794.81	40641.94
794.99	40375.70
795.17	40306.07
795.35	40371.61
795.53	40445.33
795.71	40543.64
795.89	39765.41
796.07	40037.79
796.25	40011.17
796.43	39804.32
796.61	39667.11
796.80	39605.67
796.98	39327.14
797.16	39511.46
797.34	39232.94
797.52	39376.30
797.70	39560.61
797.88	39370.15
798.06	38911.41
798.24	38935.98
798.42	39116.20
798.60	38720.95
798.78	38960.56
798.96	38589.88
799.14	38702.51
799.32	38499.76
799.51	38290.87
799.69	38647.22
799.87	38376.89
800.05	38434.23
800.23	38423.99
800.41	37961.15
800.59	37899.71
800.77	38059.45
800.95	37490.12
801.13	37541.32
801.31	37387.72
801.49	37688.77
801.67	37434.82
801.85	37483.97
802.03	37098.95
802.21	37103.05
802.39	37008.84
802.57	36992.46
802.75	37051.85
802.93	37160.39
803.11	36718.03
803.29	36926.92
803.47	36343.25
803.65	36566.48
803.83	36642.26
804.01	36457.94
804.19	36046.30
804.37	36140.50
804.55	36242.90
804.73	36081.11
804.91	36107.74
805.09	35716.58
805.27	36138.46
805.45	36390.36
805.63	35896.80
805.81	35814.88
805.99	35868.12
806.17	35765.73
806.35	35648.99
806.53	35497.44
806.71	35218.92
806.89	35558.88
807.07	35491.30
807.25	35481.06
807.43	35026.41
807.61	35501.54
807.79	35005.93
807.97	34950.63
808.15	34768.37
808.33	34760.17
808.51	34682.35
808.69	34403.83
808.87	34592.24
809.05	34739.69
809.23	34291.19
809.41	34115.06
809.59	34311.67
809.77	34297.33
809.95	33846.78
810.13	34162.17
810.31	33977.85
810.49	33971.71
810.67	34057.72
810.84	33906.17
811.02	33973.75
811.20	34045.43
811.38	33719.81
811.56	33359.36
811.74	33658.37
811.92	33261.06
812.10	33703.42
812.28	33545.73
812.46	33054.22
812.64	33234.44
812.82	33117.70
813.00	33046.02
813.18	33283.59
813.36	32728.59
813.53	32828.94
813.71	32579.09
813.89	32822.80
814.07	32503.31
814.25	32650.77
814.43	32339.47
814.61	32544.27
814.79	32429.59
814.97	32472.59
815.15	32579.09
815.33	32060.95
815.50	31923.74
815.68	32173.59
815.86	32568.85
816.04	32112.15
816.22	31925.78
816.40	32198.16
816.58	31950.36
816.76	31569.44
816.94	31931.93
817.11	31976.98
817.29	31573.53
817.47	31671.84
817.65	31817.24
817.83	31536.67
818.01	31430.18
818.19	31311.39
818.37	31381.03
818.54	31026.73
818.72	31041.06
818.90	31235.62
819.08	31131.17
819.26	31387.17
819.44	30795.31
819.62	31041.06
819.80	31231.52
819.97	30854.70
820.15	30881.32
820.33	30602.80
820.51	30903.85
820.69	30486.06
820.87	30662.19
821.05	30719.53
821.22	30527.02
821.40	30705.20
821.58	30670.38
821.76	30328.37
821.94	30379.57
822.12	30348.85
822.29	30533.17
822.47	30039.61
822.65	30502.45
822.83	30271.03
823.01	30340.66
823.19	30152.24
823.36	30012.98
823.54	29756.99
823.72	30019.13
823.90	29908.54
824.08	29410.88
824.25	29775.42
824.43	29271.62
824.61	29584.96
824.79	29564.48
824.97	29544.00
825.15	29861.43
825.32	29423.17
825.50	29201.99
825.68	29247.04
825.86	29521.47
826.04	29699.64
826.21	29296.19
826.39	29402.69
826.57	29154.88
826.75	28884.55
826.93	28864.07
827.10	28802.63
827.28	29111.88
827.46	29130.31
827.64	28769.86
827.81	28997.19
827.99	28980.81
828.17	29050.44
828.35	28855.88
828.53	28751.43
828.70	28669.51
828.88	28304.98
829.06	28434.00
829.24	28935.75
829.41	28638.80
829.59	28632.65
829.77	28462.67
829.95	28161.62
830.12	28247.63
830.30	28401.23
830.48	28325.46
830.66	28235.35
830.84	28343.89
831.01	27881.05
831.19	28460.62
831.37	27870.81
831.55	28003.92
831.72	28464.72
831.90	28042.84
832.08	28081.75
832.25	28229.20
832.43	28067.41
832.61	27924.05
832.79	27582.04
832.96	27965.01
833.14	27874.90
833.32	27981.40
833.50	27620.95
833.67	27772.50
833.85	27760.22
834.03	27489.88
834.20	27719.26
834.38	27530.84
834.56	27561.56
834.74	27350.62
834.91	27385.44
835.09	27381.34
835.27	27274.85
835.44	27119.20
835.62	26740.33
835.80	26867.30
835.98	26994.28
836.15	26812.01
836.33	26836.58
836.51	27510.36
836.68	27145.83
836.86	27147.87
837.04	27100.77
837.21	26855.01
837.39	26977.89
837.57	26992.23
837.75	26887.78
837.92	26451.56
838.10	26621.55
838.28	26451.56
838.45	26590.83
838.63	26216.05
838.81	26453.61
838.98	26506.86
839.16	26345.07
839.34	26361.45
839.51	26496.62
839.69	25994.87
839.87	26510.96
840.04	26109.55
840.22	26564.20
840.40	26355.31
840.57	25923.19
840.75	26109.55
840.93	25900.66
841.10	26091.12
841.28	26119.79
841.46	25853.56
841.63	26109.55
841.81	25982.58
841.98	25931.38
842.16	26050.16
842.34	26125.94
842.51	25857.65
842.69	25978.48
842.87	25818.74
843.04	25857.65
843.22	25740.92
843.40	25888.37
843.57	25802.36
843.75	25613.95
843.92	25765.49
844.10	25693.82
844.28	25671.29
844.45	25765.49
844.63	25403.00
844.81	25585.27
844.98	25439.87
845.16	25493.12
845.33	25233.02
845.51	25519.74
845.69	25413.24
845.86	25054.85
846.04	25300.61
846.21	25280.13
846.39	25208.45
846.57	25009.79
846.74	25083.52
846.92	25003.65
847.09	25048.71
847.27	24821.38
847.45	24979.07
847.62	25085.57
847.80	25020.03
847.97	24561.29
848.15	24604.30
848.32	24231.57
848.50	24839.81
848.68	24524.43
848.85	24782.47
849.03	24346.25
849.20	24764.04
849.38	24344.20
849.56	24534.67
849.73	24252.05
849.91	24579.72
850.08	24501.90
850.26	24069.78
850.43	24442.51
850.61	24155.79
850.78	24108.69
850.96	24235.66
851.14	24258.19
851.31	24258.19
851.49	24120.98
851.66	24266.38
851.84	24045.20
852.01	24073.87
852.19	23955.09
852.36	23983.76
852.54	23850.64
852.71	23570.07
852.89	24149.65
853.07	23805.59
853.24	23674.52
853.42	23576.22
853.59	23754.39
853.77	23774.87
853.94	23785.11
854.12	24069.78
854.29	23668.37
854.47	23445.15
854.64	23746.20
854.82	23840.40
854.99	23690.90
855.17	23535.26
855.34	23484.06
855.52	23565.98
855.69	23596.70
855.87	23309.98
856.04	23013.02
856.22	23410.33
856.39	23117.47
856.57	23365.28
856.74	23271.07
856.92	23246.49
857.09	23281.31
857.27	23273.12
857.44	23387.80
857.62	23283.36
857.79	23117.47
857.97	23277.21
858.14	23090.85
858.32	22947.49
858.49	23242.40
858.67	22812.32
858.84	22707.88
859.02	22949.54
859.19	22654.63
859.37	22701.73
859.54	22730.41
859.72	22787.75
859.89	22433.45
860.06	22648.49
860.24	22636.20
860.41	22810.28
860.59	22417.07
860.76	22611.62
860.94	22089.39
861.11	22714.02
861.29	22322.86
861.46	22331.05
861.64	22361.77
861.81	22466.22
861.98	22347.44
862.16	22476.46
862.33	22300.33
862.51	21833.39
862.68	22351.53
862.86	22238.89
863.03	22216.36
863.21	21964.46
863.38	21835.44
863.55	22007.47
863.73	22095.53
863.90	21737.14
864.08	21966.51
864.25	21794.48
864.43	21808.82
864.60	22015.66
864.77	21657.27
864.95	21784.24
865.12	21317.31
865.30	21724.85
865.47	21554.87
865.64	21604.02
865.82	21675.70
865.99	21917.36
866.17	21595.83
866.34	21438.14
866.51	21194.43
866.69	21745.33
866.86	21237.44
867.04	21563.06
867.21	21333.69
867.38	21339.83
867.56	21323.45
867.73	21339.83
867.91	21143.23
868.08	21225.15
868.25	21055.17
868.43	21065.41
868.60	21051.07
868.78	20999.87
868.95	21472.95
869.12	20817.60
869.30	20911.81
869.47	21071.55
869.64	20860.61
869.82	20846.27
869.99	20795.07
870.16	20862.66
870.34	21200.57
870.51	20932.29
870.69	20618.95
870.86	20625.09
871.03	20633.29
871.21	20330.19
871.38	20645.57
871.55	20367.05
871.73	20188.88
871.90	20182.73
872.07	20463.30
872.25	20268.75
872.42	20315.85
872.59	20295.37
872.77	20311.75
872.94	20125.39
873.11	19963.60
873.29	20100.81
873.46	19900.11
873.63	19947.22
873.81	20129.48
873.98	19795.67
874.15	19979.98
874.33	19562.20
874.50	19441.37
874.67	19910.35
874.85	19680.98
875.02	19607.25
875.19	19652.31
875.37	19789.52
875.54	19590.87
875.71	19308.25
875.88	19269.34
876.06	19590.87
876.23	19209.95
876.40	19240.67
876.58	19341.02
876.75	19424.98
876.92	19044.06
877.10	19238.62
877.27	19074.78
877.44	19134.17
877.61	18853.60
877.79	19066.59
877.96	18968.29
878.13	18845.41
878.31	18829.02
878.48	18910.94
878.65	18806.50
878.82	18671.33
879.00	18792.16
879.17	18675.43
879.34	18685.67
879.51	18769.63
879.69	18237.16
879.86	18542.31
880.03	18544.36
880.21	18597.60
880.38	18505.45
880.55	18808.54
880.72	18380.52
880.90	18505.45
881.07	18353.90
881.24	18337.51
881.41	18304.74
881.59	18394.86
881.76	18345.70
881.93	17995.50
882.10	18220.78
882.28	17821.42
882.45	17938.16
882.62	18058.99
882.79	18183.91
882.96	17673.97
883.14	18130.67
883.31	18099.95
883.48	18116.33
883.65	18091.76
883.83	18071.28
884.00	17905.39
884.17	17841.90
884.34	17938.16
884.51	17944.30
884.69	18022.12
884.86	17835.76
885.03	17911.53
885.20	17696.50
885.38	17778.42
885.55	17610.48
885.72	17669.87
885.89	17731.31
886.06	17680.11
886.24	17782.51
886.41	17768.18
886.58	17669.87
886.75	17618.68
886.92	17321.72
887.10	17428.21
887.27	17538.80
887.44	17434.36
887.61	17747.70
887.78	17321.72
887.95	17520.37
888.13	17180.41
888.30	17266.42
888.47	17106.68
888.64	17141.50
888.81	17102.59
888.99	17202.94
889.16	17051.39
889.33	16924.41
889.50	16736.00
889.67	17051.39
889.84	16719.62
890.01	17059.58
890.19	17020.67
890.36	17043.20
890.53	16955.13
890.70	16582.40
890.87	16910.08
891.04	16744.19
891.22	16809.73
891.39	16807.68
891.56	16721.66
891.73	16631.55
891.90	16355.08
892.07	16615.17
892.24	16600.83
892.42	16547.59
892.59	16480.00
892.76	16430.85
892.93	16525.06
893.10	16547.59
893.27	16402.18
893.44	16400.13
893.61	16207.62
893.79	16414.47
893.96	16258.82
894.13	16555.78
894.30	16101.13
894.47	16285.45
894.64	16398.09
894.81	16185.10
894.98	16426.76
895.15	16402.18
895.33	16281.35
895.50	16353.03
895.67	16461.57
895.84	16148.23
896.01	16441.09
896.18	16219.91
896.35	16340.74
896.52	16283.40
896.69	16105.23
896.86	16326.41
897.04	15968.01
897.21	16152.33
897.38	16103.18
897.55	16148.23
897.72	16516.87
897.89	16195.34
898.06	16219.91
898.23	15951.63
898.40	16027.40
898.57	15996.68
898.74	16064.27
898.91	16215.82
899.08	16148.23
899.26	16148.23
899.43	16115.47
899.60	15886.09
899.77	15920.91
899.94	16045.84
900.11	15740.69
900.28	15902.48
900.45	15994.64
900.62	16011.02
900.79	16058.12
900.96	15841.04
901.13	16099.08
901.30	16058.12
901.47	15945.48
901.64	16217.86
901.81	16068.36
901.98	15669.01
902.15	15914.77
902.32	15787.79
902.49	15990.54
902.66	16074.51
902.83	15800.08
903.01	15861.52
903.18	16004.88
903.35	15982.35
903.52	15750.93
903.69	16256.78
903.86	16011.02
904.03	15910.67
904.20	15978.25
904.37	16160.52
904.54	15882.00
904.71	15421.20
904.88	15955.72
905.05	15990.54
905.22	16088.84
905.39	15578.90
905.56	15957.77
905.73	15777.55
905.90	16023.31
906.07	15931.15
906.24	16049.93
906.41	15824.65
906.58	15853.33
906.75	15781.65
906.92	15638.29
907.09	15933.20
907.26	15884.05
907.43	15685.39
907.60	15589.14
907.77	15755.02
907.93	15873.81
908.10	15802.13
908.27	16025.36
908.44	15849.23
908.61	15503.12
908.78	15634.19
908.95	15779.60
909.12	15834.89
909.29	15681.30
909.46	15519.51
909.63	16072.46
909.80	15628.05
909.97	15853.33
910.14	15548.18
910.31	15712.02
910.48	15546.13
910.65	15462.16
910.82	15511.32
910.99	15398.68
911.16	15548.18
911.33	15386.39
911.50	15638.29
911.66	15255.32
911.83	15363.86
912.00	15443.73
912.17	15435.54
912.34	15327.00
912.51	15484.69
912.68	15265.56
912.85	15308.57
913.02	15249.18
913.19	15292.18
913.36	15161.11
913.53	15224.60
913.70	14999.32
913.86	15243.03
914.03	15255.32
914.20	15183.64
914.37	15034.14
914.54	15040.28
914.71	14995.23
914.88	14759.71
915.05	15118.11
915.22	14851.87
915.39	14937.88
915.55	14888.73
915.72	14645.02
915.89	14636.83
916.06	14456.61
916.23	14628.64
916.40	14415.65
916.57	14452.52
916.74	14632.74
916.91	14626.59
917.07	14303.01
917.24	14425.89
917.41	14391.08
917.58	14642.98
917.75	14356.26
917.92	14479.14
918.09	14364.45
918.26	14231.33
918.42	14194.47
918.59	14204.71
918.76	14100.26
918.93	14063.40
919.10	14063.40
919.27	13987.63
919.44	14079.79
919.60	14061.35
919.77	13913.90
919.94	13672.24
920.11	13950.76
920.28	13809.45
920.45	13504.31
920.61	13557.55
920.78	13774.64
920.95	13545.27
921.12	13567.79
921.29	13580.08
921.46	13438.77
921.62	13389.62
921.79	13537.07
921.96	13473.59
922.13	13363.00
922.30	13449.01
922.47	13111.10
922.63	13223.73
922.80	13068.09
922.97	13076.28
923.14	12975.93
923.31	13131.58
923.47	12894.01
923.64	12992.31
923.81	12851.00
923.98	12867.39
924.15	12619.58
924.32	12674.88
924.48	12576.58
924.65	12805.95
924.82	12537.66
924.99	12570.43
925.15	12379.97
925.32	12541.76
925.49	12160.84
925.66	12226.37
925.83	12126.02
925.99	12085.06
926.16	12302.15
926.33	12228.42
926.50	12095.30
926.67	12218.18
926.83	11937.61
927.00	12091.21
927.17	11986.76
927.34	11710.29
927.50	12062.54
927.67	11953.99
927.84	11675.47
928.01	11759.44
928.17	11683.66
928.34	11654.99
928.51	11534.16
928.68	11693.90
928.84	11583.31
929.01	11304.79
929.18	11226.96
929.35	11286.36
929.51	11226.96
929.68	11099.99
929.85	11298.64
930.02	11087.70
930.18	10936.15
930.35	10970.97
930.52	10882.91
930.69	10870.62
930.85	10913.63
931.02	10792.80
931.19	10598.24
931.36	10803.04
931.52	10850.14
931.69	10870.62
931.86	10491.74
932.02	10471.26
932.19	10598.24
932.36	10497.89
932.53	10444.64
932.69	10409.83
932.86	10413.92
933.03	10391.39
933.19	10207.08
933.36	10090.34
933.53	10196.84
933.70	9951.08
933.86	10024.81
934.03	9946.98
934.20	9951.08
934.36	9926.50
934.53	9750.38
934.70	9705.32
934.86	9609.07
935.03	9508.72
935.20	9613.17
935.36	9453.42
935.53	9262.96
935.70	9183.09
935.86	9387.89
936.03	9258.87
936.20	9058.17
936.36	8761.21
936.53	9006.97
936.70	8828.79
936.86	9111.41
937.03	8658.81
937.20	8406.91
937.36	8615.80
937.53	8384.38
937.70	8388.48
937.86	8378.24
938.03	8187.78
938.20	8224.64
938.36	7915.40
938.53	7919.50
938.70	7792.52
938.86	7776.14
939.03	7718.79
939.20	7479.18
939.36	7559.05
939.53	7554.96
939.70	7671.69
939.86	7282.58
940.03	7163.79
940.19	7038.87
940.36	7133.08
940.53	7102.36
940.69	6938.52
940.86	6936.47
941.03	6918.04
941.19	6696.86
941.36	6752.15
941.52	6623.13
941.69	6539.16
941.86	6406.05
942.02	6274.98
942.19	6281.12
942.35	6401.95
942.52	6328.22
942.69	6152.10
942.85	6119.33
943.02	6129.57
943.18	6053.80
943.35	6047.65
943.52	6023.08
943.68	6113.19
943.85	6012.84
944.01	5760.94
944.18	5590.95
944.35	5924.77
944.51	5705.64
944.68	5713.83
944.84	5810.09
945.01	5703.59
945.17	5617.58
945.34	5674.92
945.51	5754.79
945.67	5668.78
945.84	5640.11
946.00	5482.41
946.17	5556.14
946.33	5463.98
946.50	5558.19
946.67	5539.76
946.83	5484.46
947.00	5613.48
947.16	5482.41
947.33	5504.94
947.49	5416.88
947.66	5443.50
947.82	5521.32
947.99	5494.70
948.16	5480.36
948.32	5506.99
948.49	5568.43
948.65	5418.93
948.82	5410.73
948.98	5490.60
949.15	5449.64
949.31	5521.32
949.48	5564.33
949.64	5427.12
949.81	5511.08
949.97	5566.38
950.14	5566.38
950.30	5345.20
950.47	5502.89
950.63	5441.45
950.80	5537.71
950.96	5517.23
951.13	5556.14
951.30	5502.89
951.46	5576.62
951.63	5550.00
951.79	5584.81
951.96	5550.00
952.12	5513.13
952.29	5697.45
952.45	5492.65
952.62	5625.77
952.78	5593.00
952.94	5605.29
953.11	5545.90
953.27	5494.70
953.44	5703.59
953.60	5572.52
953.77	5578.67
953.93	5568.43
954.10	5607.34
954.26	5500.84
954.43	5705.64
954.59	5633.96
954.76	5740.46
954.92	5644.20
955.09	5644.20
955.25	5691.31
955.42	5541.80
955.58	5646.25
955.75	5648.30
955.91	5627.82
956.07	5640.11
956.24	5699.50
956.40	5531.56
956.57	5869.48
956.73	5578.67
956.90	5554.09
957.06	5752.74
957.23	5654.44
957.39	5599.15
957.56	5652.39
957.72	5535.66
957.88	5597.10
958.05	5748.65
958.21	5750.70
958.38	5679.02
958.54	5633.96
958.71	5879.72
958.87	5683.11
959.03	5633.96
959.20	5666.73
959.36	5556.14
959.53	5547.95
959.69	5570.48
959.85	5744.55
960.02	5519.28
960.18	5724.07
960.35	5601.19
960.51	5808.04
960.68	5683.11
960.84	5498.80
961.00	5574.57
961.17	5607.34
961.33	5574.57
961.50	5736.36
961.66	5754.79
961.82	5455.79
961.99	5660.59
962.15	5625.77
962.31	5554.09
962.48	5681.07
962.64	5650.35
962.81	5640.11
962.97	5636.01
963.13	5539.76
963.30	5595.05
963.46	5484.46
963.62	5533.61
963.79	5429.17
963.95	5674.92
964.12	5570.48
964.28	5762.98
964.44	5451.69
964.61	5586.86
964.77	5523.37
964.93	5621.67
965.10	5593.00
965.26	5347.25
965.42	5566.38
965.59	5506.99
965.75	5535.66
965.92	5461.93
966.08	5445.55
966.24	5568.43
966.41	5439.40
966.57	5423.02
966.73	5566.38
966.90	5431.21
967.06	5437.36
967.22	5425.07
967.39	5382.06
967.55	5337.01
967.71	5400.49
967.88	5429.17
968.04	5386.16
968.20	5484.46
968.37	5386.16
968.53	5353.39
968.69	5308.34
968.85	5408.69
969.02	5339.05
969.18	5371.82
969.34	5339.05
969.51	5386.16
969.67	5396.40
969.83	5246.90
970.00	5332.91
970.16	5246.90
970.32	5349.29
970.48	5576.62
970.65	5273.52
970.81	5291.95
970.97	5175.22
971.14	5072.82
971.30	5390.25
971.46	5119.92
971.63	5181.36
971.79	5283.76
971.95	5191.60
972.11	5021.62
972.28	5119.92
972.44	5271.47
972.60	5150.64
972.76	5119.92
972.93	5081.01
973.09	5205.94
973.25	5199.79
973.42	5140.40
973.58	5091.25
973.74	5058.48
973.90	5099.44
974.07	5025.72
974.23	5042.10
974.39	5011.38
974.55	4949.94
974.72	4986.80
974.88	4888.50
975.04	5138.35
975.20	4956.08
975.37	4853.69
975.53	4960.18
975.69	4927.41
975.85	4886.45
976.01	4800.44
976.18	4923.32
976.34	4943.80
976.50	5011.38
976.66	4927.41
976.83	4839.35
976.99	4728.76
977.15	4900.79
977.31	4777.91
977.47	4988.85
977.64	4863.93
977.80	4794.29
977.96	4886.45
978.12	4777.91
978.29	4644.79
978.45	4528.06
978.61	4693.94
978.77	4837.30
978.93	4595.64
979.10	4753.34
979.26	4554.68
979.42	4497.34
979.58	4657.08
979.74	4638.65
979.91	4671.42
980.07	4505.53
980.23	4722.62
980.39	4368.32
980.55	4657.08
980.71	4630.46
980.88	4603.83
981.04	4462.52
981.20	4528.06
981.36	4532.15
981.52	4550.59
981.68	4468.67
981.85	4591.55
982.01	4411.32
982.17	4415.42
982.33	4399.04
982.49	4530.11
982.65	4452.28
982.82	4427.71
982.98	4460.48
983.14	4384.70
983.30	4466.62
983.46	4456.38
983.62	4358.08
983.79	4317.12
983.95	4343.74
984.11	4345.79
984.27	4347.84
984.43	4366.27
984.59	4370.37
984.75	4251.58
984.91	4378.56
985.08	4323.26
985.24	4198.34
985.40	4179.90
985.56	4315.07
985.72	4308.93
985.88	4329.41
986.04	4124.61
986.20	4245.44
986.37	4296.64
986.53	4198.34
986.69	4245.44
986.85	4007.87
987.01	4149.18
987.17	4224.96
987.33	4087.75
987.49	4145.09
987.65	4245.44
987.82	4083.65
987.98	4018.11
988.14	4097.99
988.30	4181.95
988.46	3940.29
988.62	4054.98
988.78	4124.61
988.94	4054.98
989.10	3915.72
989.26	3862.47
989.42	4018.11
989.59	3942.34
989.75	3835.85
989.91	3946.44
990.07	3936.20
990.23	3960.77
990.39	3862.47
990.55	3966.92
990.71	3805.13
990.87	3856.33
991.03	3952.58
991.19	3786.69
991.35	3928.00
991.51	3893.19
991.67	3854.28
991.83	3852.23
992.00	3811.27
992.16	3878.85
992.32	3841.99
992.48	3882.95
992.64	3833.80
992.80	3860.42
992.96	3737.54
993.12	3776.45
993.28	3821.51
993.44	3729.35
993.60	3753.93
993.76	3723.21
993.92	3655.62
994.08	3751.88
994.24	3700.68
994.40	3669.96
994.56	3661.77
994.72	3618.76
994.88	3635.14
995.04	3747.78
995.20	3620.81
995.36	3624.90
995.52	3653.58
995.68	3592.14
995.84	3585.99
996.00	3633.10
996.16	3424.20
996.32	3524.55
996.48	3639.24
996.64	3665.86
996.80	3542.99
996.96	3555.27
997.12	3610.57
997.28	3411.92
997.44	3518.41
997.60	3506.12
997.76	3422.16
997.92	3379.15
998.08	3485.64
998.24	3342.28
998.40	3426.25
998.56	3514.31
998.72	3368.91
998.88	3319.76
999.04	3493.83
999.20	3502.03
999.36	3385.29
999.52	3512.27
999.68	3483.59
999.84	3485.64
1000.00	3416.01
1000.16	3399.63
1000.32	3266.51
1000.48	3385.29
1000.64	3332.05
1000.80	3289.04
1000.95	3276.75
1001.11	3325.90
1001.27	3196.88
1001.43	3256.27
1001.59	3203.02
1001.75	3274.70
1001.91	3311.57
1002.07	3164.11
1002.23	3194.83
1002.39	3262.41
1002.55	3262.41
1002.71	3162.06
1002.87	3205.07
1003.03	3160.02
1003.19	3213.26
1003.34	3180.50
1003.50	3194.83
1003.66	3219.41
1003.82	3260.37
1003.98	3108.82
1004.14	3104.72
1004.30	3067.86
1004.46	3049.43
1004.62	3135.44
1004.78	3149.78
1004.94	3045.33
1005.09	3129.30
1005.25	3008.47
1005.41	3000.27
1005.57	3100.62
1005.73	2942.93
1005.89	2975.70
1006.05	3098.58
1006.21	3055.57
1006.37	2983.89
1006.52	3006.42
1006.68	2955.22
1006.84	3067.86
1007.00	2904.02
1007.16	2871.25
1007.32	2965.46
1007.48	3014.61
1007.64	3092.43
1007.79	2983.89
1007.95	2895.83
1008.11	2910.16
1008.27	2867.16
1008.43	2889.68
1008.59	2908.12
1008.75	3028.95
1008.91	2940.88
1009.06	2813.91
1009.22	2971.60
1009.38	2942.93
1009.54	2867.16
1009.70	2826.20
1009.86	2840.53
1010.01	2869.20
1010.17	2734.04
1010.33	2830.29
1010.49	2856.92
1010.65	2836.44
1010.81	2750.42
1010.96	2838.48
1011.12	2746.33
1011.28	2613.21
1011.44	2871.25
1011.60	2744.28
1011.76	2709.46
1011.91	2901.97
1012.07	2699.22
1012.23	2652.12
1012.39	2672.60
1012.55	2799.57
1012.71	2686.94
1012.86	2719.70
1013.02	2682.84
1013.18	2686.94
1013.34	2775.00
1013.50	2650.07
1013.65	2779.09
1013.81	2684.89
1013.97	2674.65
1014.13	2578.39
1014.29	2678.74
1014.44	2740.18
1014.60	2629.59
1014.76	2625.50
1014.92	2541.53
1015.07	2654.17
1015.23	2609.11
1015.39	2615.26
1015.55	2557.91
1015.71	2543.58
1015.86	2598.87
1016.02	2525.15
1016.18	2525.15
1016.34	2557.91
1016.49	2576.34
1016.65	2629.59
1016.81	2496.47
1016.97	2506.71
1017.12	2590.68
1017.28	2469.85
1017.44	2428.89
1017.60	2562.01
1017.75	2519.00
1017.91	2447.32
1018.07	2498.52
1018.23	2496.47
1018.38	2592.73
1018.54	2514.91
1018.70	2373.60
1018.86	2500.57
1019.01	2451.42
1019.17	2494.43
1019.33	2467.80
1019.49	2492.38
1019.64	2387.93
1019.80	2435.03
1019.96	2453.47
1020.12	2375.64
1020.27	2283.49
1020.43	2349.02
1020.59	2414.56
1020.74	2381.79
1020.90	2473.95
1021.06	2273.25
1021.22	2375.64
1021.37	2314.20
1021.53	2414.56
1021.69	2349.02
1021.84	2306.01
1022.00	2418.65
1022.16	2361.31
1022.31	2369.50
1022.47	2371.55
1022.63	2308.06
1022.79	2267.10
1022.94	2357.21
1023.10	2346.97
1023.26	2256.86
1023.41	2334.68
1023.57	2283.49
1023.73	2273.25
1023.88	2332.64
1024.04	2197.47
1024.20	2310.11
1024.35	2308.06
1024.51	2336.73
1024.67	2158.56
1024.82	2408.41
1024.98	2146.27
1025.14	2279.39
1025.29	2215.90
1025.45	2242.53
1025.61	2228.19
1025.76	2252.77
1025.92	2289.63
1026.08	2265.05
1026.23	2228.19
1026.39	2197.47
1026.55	2181.09
1026.70	2179.04
1026.86	2123.74
1027.02	2310.11
1027.17	2215.90
1027.33	2215.90
1027.48	2183.13
1027.64	2162.66
1027.80	2172.89
1027.95	2316.25
1028.11	2054.11
1028.27	2099.17
1028.42	2170.85
1028.58	2017.25
1028.73	2168.80
1028.89	2144.22
1029.05	2256.86
1029.20	2146.27
>>>>>End Processed Spectral Data<<<<<
