SpectraSuite Data File
++++++++++++++++++++++++++++++++++++
Date: Fri Jun 02 14:41:55 CEST 2017
User: INFO_000
Dark Spectrum Present: No
Reference Spectrum Present: No
Number of Sampled Component Spectra: 1
Spectrometers: USB4H00879
Integration Time (usec): 80000 (USB4H00879)
Spectra Averaged: 1 (USB4H00879)
Boxcar Smoothing: 0 (USB4H00879)
Correct for Electrical Dark: No (USB4H00879)
Strobe/Lamp Enabled: No (USB4H00879)
Correct for Detector Non-linearity: No (USB4H00879)
Correct for Stray Light: No (USB4H00879)
Number of Pixels in Processed Spectrum: 3648
>>>>>Begin Processed Spectral Data<<<<<
345.13	1298.41
345.34	1298.41
345.56	1298.41
345.78	1245.16
345.99	1232.88
346.21	1757.16
346.42	1652.71
346.64	1654.76
346.86	1830.88
347.07	1667.05
347.29	1716.20
347.50	1683.43
347.72	1638.38
347.94	1716.20
348.15	1576.94
348.37	1615.85
348.59	1624.04
348.80	1615.85
349.02	1820.64
349.23	1853.41
349.45	1812.45
349.67	1880.04
349.88	1777.64
350.10	1918.95
350.31	1855.46
350.53	1783.78
350.75	2072.54
350.96	1820.64
351.18	1855.46
351.39	1828.84
351.61	1796.07
351.82	1857.51
352.04	1941.47
352.26	1810.40
352.47	1886.18
352.69	1935.33
352.90	1746.92
353.12	1832.93
353.34	1820.64
353.55	1955.81
353.77	1945.57
353.98	1863.65
354.20	1804.26
354.41	1869.80
354.63	1982.43
354.85	2076.64
355.06	1927.14
355.28	1800.16
355.49	1929.19
355.71	1890.28
355.92	1894.37
356.14	1910.75
356.35	1859.56
356.57	1867.75
356.79	1957.86
357.00	1851.36
357.22	1929.19
357.43	1902.56
357.65	1968.10
357.86	1890.28
358.08	1914.85
358.29	1976.29
358.51	1994.72
358.72	1959.91
358.94	1953.76
359.16	1959.91
359.37	1929.19
359.59	1894.37
359.80	2052.06
360.02	1978.34
360.23	1925.09
360.45	2068.45
360.66	1906.66
360.88	1853.41
361.09	1970.15
361.31	1961.95
361.52	1980.39
361.74	2000.87
361.95	2072.54
362.17	1918.95
362.38	2072.54
362.60	2068.45
362.81	1910.75
363.03	1986.53
363.24	2035.68
363.46	2047.97
363.67	2035.68
363.89	2035.68
364.10	2017.25
364.32	1882.08
364.53	2031.58
364.75	1912.80
364.96	2043.87
365.18	1943.52
365.39	1998.82
365.61	1976.29
365.82	2166.75
366.04	2019.30
366.25	1937.38
366.47	2043.87
366.68	2015.20
366.90	1961.95
367.11	2131.94
367.33	2074.59
367.54	2150.37
367.76	2002.91
367.97	2129.89
368.19	2084.83
368.40	2084.83
368.62	1998.82
368.83	2047.97
369.05	2078.69
369.26	2007.01
369.48	2041.82
369.69	2068.45
369.91	2043.87
370.12	2090.98
370.33	2138.08
370.55	2033.63
370.76	2021.35
370.98	2164.70
371.19	2066.40
371.41	1996.77
371.62	2000.87
371.84	2097.12
372.05	2213.85
372.27	2060.26
372.48	2082.78
372.69	2113.50
372.91	2129.89
373.12	2093.02
373.34	2060.26
373.55	2111.46
373.77	2197.47
373.98	2150.37
374.20	2105.31
374.41	2181.09
374.62	2156.51
374.84	2265.05
375.05	2224.09
375.27	2113.50
375.48	2156.51
375.70	2207.71
375.91	2224.09
376.12	2318.30
376.34	2166.75
376.55	2181.09
376.77	2222.05
376.98	2125.79
377.19	2195.42
377.41	2158.56
377.62	2224.09
377.84	2271.20
378.05	2301.92
378.27	2238.43
378.48	2324.44
378.69	2389.98
378.91	2269.15
379.12	2256.86
379.34	2240.48
379.55	2373.60
379.76	2287.58
379.98	2260.96
380.19	2252.77
380.41	2338.78
380.62	2297.82
380.83	2254.81
381.05	2238.43
381.26	2478.04
381.47	2254.81
381.69	2338.78
381.90	2494.43
382.12	2330.59
382.33	2201.57
382.54	2326.49
382.76	2359.26
382.97	2334.68
383.19	2293.72
383.40	2412.51
383.61	2301.92
383.83	2342.88
384.04	2338.78
384.25	2383.84
384.47	2410.46
384.68	2371.55
384.89	2306.01
385.11	2482.14
385.32	2312.16
385.54	2394.08
385.75	2426.84
385.96	2418.65
386.18	2408.41
386.39	2453.47
386.60	2330.59
386.82	2490.33
387.03	2557.91
387.24	2418.65
387.46	2500.57
387.67	2447.32
387.88	2607.06
388.10	2457.56
388.31	2428.89
388.52	2584.54
388.74	2527.19
388.95	2441.18
389.16	2484.19
389.38	2535.39
389.59	2631.64
389.80	2680.79
390.02	2506.71
390.23	2643.93
390.44	2588.63
390.66	2617.30
390.87	2564.06
391.08	2607.06
391.30	2680.79
391.51	2672.60
391.72	2729.94
391.94	2711.51
392.15	2664.41
392.36	2664.41
392.58	2576.34
392.79	2766.81
393.00	2727.89
393.22	2795.48
393.43	2869.20
393.64	2906.07
393.85	2813.91
394.07	2691.03
394.28	2781.14
394.49	2727.89
394.71	2811.86
394.92	2951.12
395.13	2770.90
395.35	2766.81
395.56	2772.95
395.77	2867.16
395.98	2828.24
396.20	2926.55
396.41	2787.29
396.62	2936.79
396.84	2906.07
397.05	2922.45
397.26	2918.36
397.47	3016.66
397.69	2885.59
397.90	3104.72
398.11	2918.36
398.32	2924.50
398.54	2887.64
398.75	2953.17
398.96	3080.14
399.18	3063.76
399.39	3076.05
399.60	3045.33
399.81	3041.23
400.03	3074.00
400.24	3321.81
400.45	3092.43
400.66	3145.68
400.88	2975.70
401.09	3215.31
401.30	3192.78
401.51	3139.54
401.73	3157.97
401.94	3231.69
402.15	3215.31
402.36	3215.31
402.58	3237.84
402.79	3323.85
403.00	3221.45
403.21	3315.66
403.43	3301.33
403.64	3340.24
403.85	3121.10
404.06	3350.48
404.27	3133.39
404.49	3217.36
404.70	3223.50
404.91	3321.81
405.12	3342.28
405.34	3342.28
405.55	3413.96
405.76	3286.99
405.97	3346.38
406.19	3407.82
406.40	3307.47
406.61	3499.98
406.82	3407.82
407.03	3389.39
407.25	3401.68
407.46	3545.03
407.67	3629.00
407.88	3551.18
408.09	3420.11
408.31	3454.92
408.52	3526.60
408.73	3471.31
408.94	3416.01
409.15	3510.22
409.37	3596.23
409.58	3530.70
409.79	3518.41
410.00	3596.23
410.21	3448.78
410.43	3645.38
410.64	3526.60
410.85	3512.27
411.06	3532.75
411.27	3737.54
411.48	3706.82
411.70	3649.48
411.91	3633.10
412.12	3672.01
412.33	3551.18
412.54	3571.66
412.76	3747.78
412.97	3741.64
413.18	3624.90
413.39	3661.77
413.60	3887.04
413.81	3764.17
414.03	3792.84
414.24	3796.93
414.45	3917.76
414.66	3723.21
414.87	3817.41
415.08	3835.85
415.30	3727.30
415.51	3833.80
415.72	3880.90
415.93	3850.18
416.14	3891.14
416.35	3987.40
416.56	3932.10
416.78	3985.35
416.99	4050.88
417.20	3872.71
417.41	3940.29
417.62	4032.45
417.83	4018.11
418.04	4036.55
418.26	4009.92
418.47	4034.50
418.68	4087.75
418.89	4124.61
419.10	4145.09
419.31	4085.70
419.52	4325.31
419.73	4239.30
419.95	4147.14
420.16	4038.59
420.37	4241.34
420.58	4177.86
420.79	4001.73
421.00	4247.49
421.21	4380.61
421.42	4315.07
421.63	4345.79
421.85	4089.79
422.06	4265.92
422.27	4263.87
422.48	4327.36
422.69	4384.70
422.90	4413.37
423.11	4362.17
423.32	4415.42
423.53	4562.87
423.75	4401.08
423.96	4544.44
424.17	4505.53
424.38	4695.99
424.59	4632.51
424.80	4753.34
425.01	4599.74
425.22	4595.64
425.43	4609.98
425.64	4868.02
425.85	4890.55
426.06	4718.52
426.28	4771.77
426.49	4650.94
426.70	4833.21
426.91	4718.52
427.12	4861.88
427.33	4900.79
427.54	4708.28
427.75	4814.77
427.96	4853.69
428.17	4954.04
428.38	4999.09
428.59	5033.91
428.80	4939.70
429.01	4929.46
429.23	4894.65
429.44	5154.74
429.65	5091.25
429.86	5230.51
430.07	5054.39
430.28	5074.87
430.49	5148.59
430.70	5240.75
430.91	5332.91
431.12	5109.68
431.33	5423.02
431.54	5353.39
431.75	5234.61
431.96	5234.61
432.17	5212.08
432.38	5300.14
432.59	5562.28
432.80	5388.21
433.01	5439.40
433.22	5504.94
433.43	5418.93
433.64	5511.08
433.85	5498.80
434.06	5504.94
434.27	5453.74
434.49	5593.00
434.70	5642.15
434.91	5681.07
435.12	5656.49
435.33	5543.85
435.54	5758.89
435.75	5451.69
435.96	5703.59
436.17	5531.56
436.38	5871.53
436.59	5857.19
436.80	5742.50
437.01	6113.19
437.22	5918.63
437.43	5795.75
437.64	5822.38
437.85	5834.66
438.06	5955.49
438.27	5824.42
438.48	5830.57
438.69	6066.08
438.90	6102.95
439.11	5992.36
439.32	6094.76
439.53	5967.78
439.74	6088.61
439.95	6059.94
440.16	6133.67
440.37	6162.34
440.57	6025.12
440.78	6279.07
440.99	6045.60
441.20	6201.25
441.41	6080.42
441.62	6176.67
441.83	6176.67
442.04	6156.19
442.25	6326.18
442.46	6203.30
442.67	6348.70
442.88	6717.34
443.09	6293.41
443.30	6444.96
443.51	6287.26
443.72	6631.32
443.93	6248.35
444.14	6688.67
444.35	6221.73
444.56	6530.97
444.77	6508.44
444.98	6551.45
445.19	6537.12
445.40	6670.23
445.61	6721.43
445.81	6688.67
446.02	6737.82
446.23	6680.47
446.44	6567.84
446.65	6797.21
446.86	6721.43
447.07	6852.50
447.28	6918.04
447.49	7010.20
447.70	6799.26
447.91	6809.50
448.12	6789.02
448.33	7171.99
448.54	7106.45
448.74	6928.28
448.95	7006.10
449.16	6985.62
449.37	7384.98
449.58	6899.61
449.79	7384.98
450.00	7128.98
450.21	7145.36
450.42	7391.12
450.63	7301.01
450.84	7251.86
451.05	7122.84
451.25	7217.04
451.46	7206.80
451.67	7419.79
451.88	7497.61
452.09	7372.69
452.30	7466.89
452.51	7407.50
452.72	7638.92
452.93	8036.23
453.13	7577.48
453.34	7540.62
453.55	7706.51
453.76	7636.88
453.97	7892.87
454.18	7573.39
454.39	7843.72
454.60	7817.10
454.81	7948.17
455.01	7966.60
455.22	7655.31
455.43	7909.26
455.64	8165.25
455.85	7997.32
456.06	8331.14
456.27	7997.32
456.48	8001.41
456.68	8101.76
456.89	8144.77
457.10	8386.43
457.31	8300.42
457.52	8345.47
457.73	8355.71
457.94	8656.76
458.14	8337.28
458.35	8785.79
458.56	8712.06
458.77	8474.49
458.98	8726.39
459.19	8669.05
459.39	8769.40
459.60	8839.03
459.81	8716.16
460.02	8998.77
460.23	8779.64
460.44	9074.55
460.65	9144.18
460.85	9242.48
461.06	9197.43
461.27	8984.44
461.48	9291.63
461.69	9457.52
461.89	8978.30
462.10	9228.15
462.31	9160.56
462.52	9217.91
462.73	9375.60
462.94	9607.02
463.14	9617.26
463.35	9420.66
463.56	10067.81
463.77	9682.80
463.98	9643.88
464.18	9801.58
464.39	9895.78
464.60	10080.10
464.81	9912.17
465.02	9854.83
465.23	10342.24
465.43	10065.77
465.64	10362.72
465.85	10094.44
466.06	10024.81
466.27	10559.33
466.47	10450.78
466.68	10407.78
466.89	10497.89
467.10	10618.72
467.30	10346.34
467.51	10751.84
467.72	10835.80
467.93	10583.90
468.14	10825.56
468.34	10960.73
468.55	11085.65
468.76	10854.23
468.97	10819.42
469.17	11175.77
469.38	11171.67
469.59	11577.17
469.80	11292.50
470.01	11274.07
470.21	11255.64
470.42	11874.12
470.63	11902.79
470.84	11466.58
471.04	11870.03
471.25	11886.41
471.46	11757.39
471.67	12259.14
471.87	12068.68
472.08	11849.55
472.29	12310.34
472.50	12001.10
472.70	12066.63
472.91	12293.96
473.12	12453.70
473.33	12463.94
473.53	12736.32
473.74	12418.88
473.95	12771.13
474.16	12664.64
474.36	12961.59
474.57	13131.58
474.78	13348.66
474.99	12959.55
475.19	13102.90
475.40	13375.28
475.61	13553.46
475.81	13717.29
476.02	13805.36
476.23	13709.10
476.44	13985.58
476.64	14100.26
476.85	14028.59
477.06	13885.23
477.27	14376.74
477.47	14395.17
477.68	14339.88
477.89	14583.59
478.09	14544.67
478.30	14821.15
478.51	14622.50
478.71	15085.34
478.92	14841.63
479.13	15197.98
479.34	15077.15
479.54	15370.01
479.75	15183.64
479.96	15419.16
480.16	15308.57
480.37	15437.59
480.58	15709.97
480.78	15910.67
480.99	15810.32
481.20	15795.98
481.41	16336.65
481.61	16062.22
481.82	16371.46
482.03	16267.02
482.23	16234.25
482.44	16555.78
482.65	16611.07
482.85	16899.84
483.06	16783.10
483.27	17022.72
483.47	17166.07
483.68	16971.52
483.89	17229.56
484.09	17190.65
484.30	17262.33
484.51	17624.82
484.71	17708.79
484.92	17704.69
485.13	17673.97
485.33	17872.62
485.54	17987.31
485.75	18097.90
485.95	18157.29
486.16	18245.35
486.37	18517.73
486.57	18573.03
486.78	18384.62
486.98	18312.94
487.19	18591.46
487.40	18507.49
487.60	18927.33
487.81	19347.16
488.02	19044.06
488.22	19226.33
488.43	19394.26
488.64	19410.65
488.84	19390.17
489.05	19699.41
489.25	19537.62
489.46	19803.86
489.67	19652.31
489.87	19959.50
490.08	20018.89
490.29	20113.10
490.49	20399.82
490.70	20633.29
490.90	20401.86
491.11	20309.71
491.32	20549.32
491.52	20530.89
491.73	20758.21
491.94	21118.65
492.14	20885.19
492.35	20786.88
492.55	20967.10
492.76	21257.92
492.97	21442.23
493.17	21403.32
493.38	21577.40
493.58	21671.61
493.79	21792.44
494.00	21563.06
494.20	21714.61
494.41	21868.21
494.61	21939.89
494.82	22249.13
495.02	22062.77
495.23	22316.72
495.44	22247.08
495.64	22367.91
495.85	22269.61
496.05	22703.78
496.26	22890.15
496.47	22937.25
496.67	23084.70
496.88	23129.76
497.08	23002.78
497.29	23191.20
497.49	23203.49
497.70	23506.59
497.91	23563.93
498.11	23533.21
498.32	23641.75
498.52	23762.58
498.73	24237.71
498.93	23846.55
499.14	23783.06
499.34	23973.52
499.55	24026.77
499.76	23885.46
499.96	24123.02
500.17	24368.78
500.37	24270.48
500.58	24381.07
500.78	24454.79
500.99	24475.27
501.19	24594.06
501.40	24686.22
501.60	24376.97
501.81	24774.28
502.02	24823.43
502.22	24819.33
502.43	25202.30
502.63	25243.26
502.84	25294.46
503.04	25089.67
503.25	25202.30
503.45	25314.94
503.66	25615.99
503.86	25626.23
504.07	25871.99
504.27	25765.49
504.48	25876.09
504.68	25816.69
504.89	26117.75
505.09	26193.52
505.30	25740.92
505.50	26035.83
505.71	26470.00
505.91	26383.98
506.12	26365.55
506.32	26035.83
506.53	26596.97
506.73	26543.72
506.94	26674.79
507.14	26762.86
507.35	26781.29
507.55	26801.77
507.76	26930.79
507.96	26898.02
508.17	27145.83
508.37	26990.18
508.58	27213.41
508.78	26850.92
508.99	27465.31
509.19	27471.45
509.40	27354.72
509.60	27487.84
509.81	27762.26
510.01	27606.62
510.22	27582.04
510.42	27752.02
510.63	27934.29
510.83	27713.11
511.04	27881.05
511.24	28020.31
511.44	27989.59
511.65	27809.37
511.85	27672.15
512.06	28157.52
512.26	28261.97
512.47	28268.11
512.67	28393.04
512.88	28452.43
513.08	27993.68
513.29	28579.40
513.49	28444.24
513.69	28233.30
513.90	28765.77
514.10	28870.22
514.31	28585.55
514.51	28827.21
514.72	28579.40
514.92	28825.16
515.13	28800.58
515.33	28833.35
515.53	29144.64
515.74	29081.16
515.94	29247.04
516.15	29468.22
516.35	29140.55
516.56	29288.00
516.76	29124.16
516.96	29265.47
517.17	29722.17
517.37	29566.52
517.58	29609.53
517.78	29707.83
517.99	29505.09
518.19	29736.51
518.39	30084.66
518.60	30029.37
518.80	30004.79
519.01	30477.87
519.21	30287.41
519.41	30451.25
519.62	30254.64
519.82	30582.32
520.03	30535.21
520.23	30838.31
520.43	30307.89
520.64	30692.91
520.84	30826.03
521.05	30752.30
521.25	31131.17
521.45	31317.54
521.66	31028.77
521.86	31026.73
522.07	31254.05
522.27	31319.59
522.47	31213.09
522.68	31878.68
522.88	31413.79
523.08	31764.00
523.29	31323.68
523.49	31503.90
523.70	31647.26
523.90	31854.11
524.10	32144.92
524.31	32052.76
524.51	31858.20
524.71	32292.37
524.92	32022.04
525.12	32562.70
525.33	32581.13
525.53	32634.38
525.73	32890.38
525.94	32429.59
526.14	32888.33
526.34	32812.56
526.55	32912.91
526.75	32806.41
526.95	33080.84
527.16	32980.49
527.36	33347.08
527.56	33273.35
527.77	33832.44
527.97	33566.21
528.17	33922.55
528.38	33635.84
528.58	33977.85
528.78	33836.54
528.99	33791.48
529.19	34268.66
529.39	33674.75
529.60	34518.51
529.80	34242.04
530.00	34313.72
530.21	34737.65
530.41	34444.79
530.61	34612.72
530.82	34829.80
531.02	35216.87
531.22	34940.39
531.43	35075.56
531.63	35567.07
531.83	35687.90
532.04	35976.67
532.24	35380.71
532.44	35818.97
532.64	36074.97
532.85	36007.39
533.05	36072.92
533.25	35827.17
533.46	35864.03
533.66	36091.35
533.86	36218.33
534.07	36464.08
534.27	36167.13
534.47	36660.69
534.67	36511.19
534.88	36439.51
535.08	36742.61
535.28	36918.73
535.49	37266.89
535.69	37432.77
535.89	37799.36
536.09	37467.59
536.30	37823.93
536.50	37486.02
536.70	37787.07
536.91	37707.20
537.11	37754.30
537.31	38194.62
537.51	37957.05
537.72	38008.25
537.92	38307.26
538.12	38165.95
538.32	38155.71
538.53	38587.83
538.73	38251.96
538.93	38407.61
539.13	38628.79
539.34	38585.78
539.54	38641.07
539.74	38987.18
539.94	38876.59
540.15	38944.17
540.35	39261.61
540.55	39224.75
540.75	39191.98
540.96	39439.78
541.16	39632.29
541.36	39482.79
541.56	39667.11
541.77	40000.93
541.97	39540.13
542.17	40187.29
542.37	39566.76
542.58	40164.76
542.78	39925.15
542.98	40117.66
543.18	40525.21
543.38	40451.48
543.59	40646.04
543.79	40189.34
543.99	40564.12
544.19	40732.05
544.40	40406.42
544.60	40482.20
544.80	40791.44
545.00	40672.66
545.20	41129.36
545.41	41018.77
545.61	41055.63
545.81	41145.74
546.01	41676.16
546.21	41252.23
546.42	41153.93
546.62	41473.42
546.82	41317.77
547.02	41373.06
547.22	41788.80
547.43	41428.36
547.63	41760.13
547.83	41989.50
548.03	41629.06
548.23	41422.22
548.44	41665.92
548.64	41958.78
548.84	42102.14
549.04	41727.36
549.24	42521.98
549.45	42519.93
549.65	42218.88
549.85	42509.69
550.05	42351.99
550.25	42628.47
550.45	43087.21
550.66	42685.81
550.86	42333.56
551.06	42888.56
551.26	42526.07
551.46	42790.26
551.66	42708.34
551.87	42943.86
552.07	42943.86
552.27	43009.39
552.47	43181.42
552.67	43122.03
552.87	43160.94
553.07	43658.60
553.28	43246.96
553.48	43255.15
553.68	43105.65
553.88	43783.52
554.08	43754.85
554.28	43631.97
554.48	43537.77
554.69	43613.54
554.89	43480.42
555.09	43865.44
555.29	43160.94
555.49	44078.43
555.69	43672.93
555.89	44105.06
556.10	44283.23
556.30	43662.69
556.50	44021.09
556.70	43859.30
556.90	43982.18
557.10	43926.88
557.30	44119.39
557.50	44432.73
557.70	44074.34
557.91	44555.61
558.11	44291.42
558.31	44565.85
558.51	44549.46
558.71	44504.41
558.91	44807.51
559.11	44465.50
559.31	44393.82
559.51	44414.30
559.72	44856.66
559.92	44750.17
560.12	44449.11
560.32	44983.63
560.52	44860.76
560.72	44864.85
560.92	45139.28
561.12	45161.81
561.32	45507.91
561.52	44606.81
561.72	45634.89
561.93	45008.21
562.13	45399.37
562.33	45174.09
562.53	45804.87
562.73	45129.04
562.93	45102.42
563.13	45382.99
563.33	45053.26
563.53	46062.91
563.73	45176.14
563.93	45722.95
564.13	45915.46
564.33	45610.31
564.53	45469.00
564.74	45712.71
564.94	45585.74
565.14	45741.38
565.34	45645.13
565.54	45880.64
565.74	46028.10
565.94	46634.30
566.14	45792.58
566.34	46198.08
566.54	46138.69
566.74	45704.52
566.94	45987.14
567.14	46482.75
567.34	46089.54
567.54	46378.30
567.74	45864.26
567.94	45870.40
568.14	46771.51
568.34	46462.27
568.54	46325.05
568.74	46607.67
568.94	46794.04
569.14	46785.85
569.34	46482.75
569.54	46945.59
569.75	46679.35
569.95	46183.74
570.15	46978.36
570.35	46724.41
570.55	47058.23
570.75	46855.48
570.95	46622.01
571.15	47252.78
571.35	46861.62
571.55	47336.75
571.75	47127.86
571.95	47396.14
572.15	47031.60
572.35	47371.57
572.55	47103.28
572.75	47492.40
572.95	47359.28
573.15	47600.94
573.35	47367.47
573.55	47707.43
573.75	47455.53
573.95	47572.27
574.15	47656.23
574.35	48004.39
574.55	47310.13
574.75	47410.48
574.95	47889.70
575.15	47445.29
575.34	47961.38
575.54	48248.10
575.74	48524.57
575.94	48223.52
576.14	47891.75
576.34	48911.64
576.54	48428.32
576.74	48299.30
576.94	48219.42
577.14	48579.87
577.34	48745.75
577.54	48127.27
577.74	48903.45
577.94	48157.99
578.14	48340.25
578.34	48764.18
578.54	48389.41
578.74	48977.17
578.94	49095.95
579.14	48610.59
579.34	48764.18
579.54	48962.84
579.74	49550.60
579.94	49110.29
580.13	49612.04
580.33	49161.49
580.53	49243.41
580.73	49374.48
580.93	49532.17
581.13	49300.75
581.33	49923.33
581.53	49808.65
581.73	49761.54
581.93	49804.55
582.13	49581.32
582.33	49863.94
582.53	49820.94
582.73	49679.63
582.92	49872.14
583.12	49837.32
583.32	50015.49
583.52	49685.77
583.72	50361.60
583.92	50337.02
584.12	50304.26
584.32	50513.15
584.52	50570.49
584.72	50070.79
584.92	50541.82
585.11	50775.29
585.31	50201.86
585.51	50945.27
585.71	50781.43
585.91	50975.99
586.11	50920.70
586.31	50763.00
586.51	50889.98
586.71	51074.29
586.91	51100.92
587.10	50898.17
587.30	51498.22
587.50	51340.53
587.70	51557.61
587.90	51481.84
588.10	50904.31
588.30	51367.15
588.50	51152.12
588.69	51451.12
588.89	51260.66
589.09	51784.94
589.29	51700.97
589.49	52038.89
589.69	51553.52
589.89	52245.73
590.08	52024.55
590.28	52319.46
590.48	51571.95
590.68	51864.81
590.88	52258.02
591.08	52092.13
591.28	51969.26
591.47	52212.96
591.67	52364.51
591.87	51893.48
592.07	52591.84
592.27	52120.80
592.47	52354.27
592.67	52491.49
592.86	52020.45
593.06	52208.87
593.26	52327.65
593.46	52487.39
593.66	52452.58
593.86	52241.63
594.05	52679.90
594.25	53339.35
594.45	52372.70
594.65	52946.14
594.85	52272.35
595.05	53112.02
595.24	52831.45
595.44	52995.29
595.64	53077.21
595.84	53130.45
596.04	53009.62
596.23	53185.75
596.43	53433.55
596.63	53206.23
596.83	53269.72
597.03	53546.19
597.22	53912.78
597.42	53542.10
597.62	53415.12
597.82	53167.32
598.02	53609.68
598.21	53523.66
598.41	53390.55
598.61	53824.71
598.81	54191.30
599.01	53787.85
599.20	53877.96
599.40	54035.66
599.60	54383.81
599.80	53867.72
600.00	54101.19
600.19	54187.21
600.39	54138.05
600.59	54418.63
600.79	54781.12
600.98	54060.23
601.18	54285.51
601.38	54703.29
601.58	54949.05
601.78	55141.56
601.97	54588.61
602.17	54992.06
602.37	55053.50
602.57	55020.73
602.76	55289.01
602.96	54729.92
603.16	55176.37
603.36	55119.03
603.55	55366.84
603.75	55364.79
603.95	55831.72
604.15	55620.78
604.34	55207.09
604.54	55502.00
604.74	55098.55
604.94	55579.82
605.13	55682.22
605.33	55837.87
605.53	55702.70
605.73	56013.99
605.92	55657.65
606.12	55758.00
606.32	55850.16
606.52	55686.32
606.71	55624.88
606.91	56345.76
607.11	56380.58
607.30	56022.19
607.50	56005.80
607.70	56390.82
607.90	55944.36
608.09	56009.90
608.29	56503.46
608.49	56482.98
608.68	56519.84
608.88	56507.55
609.08	56534.18
609.28	56835.23
609.47	56288.42
609.67	56925.34
609.87	56538.27
610.06	56788.13
610.26	56333.48
610.46	56788.13
610.66	56568.99
610.85	56781.98
611.05	56872.09
611.25	56521.89
611.44	56587.42
611.64	56792.22
611.84	56810.65
612.03	56804.51
612.23	56923.29
612.43	57044.12
612.62	56741.02
612.82	57379.99
613.02	57085.08
613.21	57201.82
613.41	56861.85
613.61	57306.26
613.80	56628.38
614.00	57250.97
614.20	57087.13
614.39	57144.47
614.59	56964.25
614.79	57189.53
614.98	56941.72
615.18	57318.55
615.38	57349.27
615.57	57050.27
615.77	57146.52
615.97	57341.08
616.16	57375.89
616.36	57261.21
616.56	57117.85
616.75	57341.08
616.95	57042.07
617.15	57042.07
617.34	57046.17
617.54	56726.69
617.74	57162.90
617.93	57318.55
618.13	57296.02
618.32	57123.99
618.52	57185.43
618.72	57531.54
618.91	57308.31
619.11	57218.20
619.31	57046.17
619.50	57314.45
619.70	56792.22
619.90	57185.43
620.09	56939.68
620.29	57408.66
620.48	57363.60
620.68	57492.63
620.88	56603.81
621.07	57339.03
621.27	57359.51
621.46	56902.81
621.66	57167.00
621.86	56741.02
622.05	56718.49
622.25	57474.20
622.44	57001.11
622.64	57293.97
622.84	57218.20
623.03	57087.13
623.23	57105.56
623.42	57087.13
623.62	57306.26
623.82	57621.65
624.01	56868.00
624.21	57169.05
624.40	56822.94
624.60	56964.25
624.80	57046.17
624.99	57234.58
625.19	56546.47
625.38	57347.22
625.58	57087.13
625.77	57287.83
625.97	57296.02
626.17	57064.60
626.36	56984.73
626.56	57740.43
626.75	56568.99
626.95	57504.91
627.14	57007.26
627.34	57672.85
627.54	56509.60
627.73	56837.28
627.93	57248.92
628.12	56882.33
628.32	56915.10
628.51	57185.43
628.71	57357.46
628.90	57042.07
629.10	57054.36
629.30	57392.28
629.49	57586.83
629.69	57326.74
629.88	57459.86
630.08	57572.50
630.27	57513.11
630.47	57242.77
630.66	57281.69
630.86	57873.55
631.05	57193.62
631.25	57437.33
631.44	57527.44
631.64	57369.75
631.84	57779.34
632.03	58053.77
632.23	57216.15
632.42	57582.74
632.62	57459.86
632.81	57238.68
633.01	57537.68
633.20	57519.25
633.40	57922.70
633.59	57384.08
633.79	57007.26
633.98	57449.62
634.18	57826.45
634.37	57445.52
634.57	57783.44
634.76	57846.93
634.96	57597.07
635.15	57472.15
635.35	57095.32
635.54	57195.67
635.74	57640.08
635.93	57685.14
636.13	57730.19
636.32	57662.61
636.52	57451.67
636.71	57932.94
636.91	57824.40
637.10	57531.54
637.30	57863.31
637.49	57865.36
637.69	57705.62
637.88	58094.73
638.08	57484.43
638.27	57955.47
638.46	57678.99
638.66	57476.24
638.85	57701.52
639.05	57820.30
639.24	57969.80
639.44	57648.27
639.63	58090.63
639.83	58422.40
640.02	57898.12
640.22	57832.59
640.41	57988.24
640.61	57545.87
640.80	58123.40
640.99	57672.85
641.19	58023.05
641.38	58111.11
641.58	58225.80
641.77	57865.36
641.97	57820.30
642.16	58156.17
642.36	58190.98
642.55	58430.60
642.74	57472.15
642.94	58489.99
643.13	57832.59
643.33	58295.43
643.52	58571.91
643.72	58176.65
643.91	58324.10
644.10	58373.25
644.30	58659.97
644.49	58322.05
644.69	58477.70
644.88	58229.90
645.08	58004.62
645.27	58270.85
645.46	58078.35
645.66	58733.70
645.85	58156.17
646.05	58614.91
646.24	58500.23
646.43	58393.73
646.63	58578.05
646.82	59257.98
647.02	58268.81
647.21	58979.45
647.40	58039.43
647.60	58745.98
647.79	58700.93
647.99	58950.78
648.18	58420.36
648.37	59038.84
648.57	59053.18
648.76	58645.63
648.96	58592.39
649.15	59391.09
649.34	59012.22
649.54	58674.30
649.73	58172.55
649.92	58705.02
650.12	59032.70
650.31	58940.54
650.51	58926.20
650.70	58897.53
650.89	58602.63
651.09	59753.58
651.28	58993.79
651.47	59040.89
651.67	58860.67
651.86	59157.63
652.06	58782.85
652.25	59094.14
652.44	59049.08
652.64	58424.45
652.83	58942.59
653.02	58635.39
653.22	59313.27
653.41	59149.43
653.60	58668.16
653.80	58915.96
653.99	59063.42
654.18	59053.18
654.38	58782.85
654.57	58762.37
654.76	59141.24
654.96	59012.22
655.15	58784.90
655.34	59233.40
655.54	58307.72
655.73	59268.22
655.92	59167.87
656.12	58748.03
656.31	58750.08
656.50	59194.49
656.70	58981.50
656.89	59147.39
657.08	59167.87
657.28	58963.07
657.47	59026.56
657.66	59473.01
657.86	59171.96
658.05	59298.94
658.24	59491.44
658.43	58561.67
658.63	59278.46
658.82	59399.29
659.01	59565.17
659.21	59147.39
659.40	59090.04
659.59	58995.84
659.79	59501.68
659.98	59442.29
660.17	59411.57
660.36	59317.37
660.56	59335.80
660.75	59395.19
660.94	59513.97
661.14	59309.18
661.33	59421.81
661.52	59225.21
661.71	59556.98
661.91	59335.80
662.10	59112.57
662.29	59653.23
662.49	59833.46
662.68	59407.48
662.87	59249.78
663.06	59503.73
663.26	59282.55
663.45	59202.68
663.64	59401.33
663.83	59542.64
664.03	59462.77
664.22	59473.01
664.41	59868.27
664.60	59495.54
664.80	59518.07
664.99	59569.27
665.18	59305.08
665.37	59593.84
665.57	59356.28
665.76	59458.68
665.95	59561.08
666.14	59135.10
666.34	58905.73
666.53	59028.60
666.72	59036.80
666.91	58905.73
667.11	59290.74
667.30	59421.81
667.49	59128.95
667.68	59524.21
667.87	59149.43
668.07	59741.30
668.26	59319.41
668.45	59507.83
668.64	59135.10
668.84	60232.81
669.03	59894.89
669.22	59255.93
669.41	59610.23
669.60	59366.52
669.80	59335.80
669.99	59722.86
670.18	59065.47
670.37	59382.90
670.57	59745.39
670.76	59075.71
670.95	59583.60
671.14	59122.81
671.33	58938.49
671.53	59616.37
671.72	59061.37
671.91	59462.77
672.10	59352.18
672.29	59249.78
672.48	58680.45
672.68	59673.71
672.87	59298.94
673.06	59382.90
673.25	59239.54
673.44	58963.07
673.64	58903.68
673.83	59249.78
674.02	58918.01
674.21	58668.16
674.40	59602.03
674.59	59094.14
674.79	58891.39
674.98	59044.99
675.17	59354.23
675.36	58774.66
675.55	59110.52
675.74	58786.94
675.94	59106.43
676.13	58971.26
676.32	59106.43
676.51	59397.24
676.70	59530.36
676.89	59260.02
677.08	59913.33
677.28	58754.18
677.47	59169.91
677.66	59204.73
677.85	58952.83
678.04	59280.50
678.23	59372.66
678.42	59257.98
678.62	59339.89
678.81	59141.24
679.00	58825.85
679.19	59339.89
679.38	59008.12
679.57	59180.15
679.76	59106.43
679.96	58750.08
680.15	59042.94
680.34	59143.29
680.53	59094.14
680.72	59282.55
680.91	59518.07
681.10	58870.91
681.29	59151.48
681.48	58829.95
681.68	58860.67
681.87	58971.26
682.06	58567.81
682.25	58387.59
682.44	58993.79
682.63	59219.06
682.82	58705.02
683.01	58561.67
683.20	58217.61
683.39	59032.70
683.59	58571.91
683.78	58461.32
683.97	58578.05
684.16	59102.33
684.35	58451.08
684.54	58733.70
684.73	58537.09
684.92	58512.52
685.11	58391.68
685.30	58367.11
685.49	58567.81
685.69	58627.20
685.88	58408.07
686.07	58053.77
686.26	58553.47
686.45	58440.84
686.64	58498.18
686.83	58348.68
687.02	58375.30
687.21	58508.42
687.40	58381.45
687.59	58692.74
687.78	58293.38
687.97	58680.45
688.16	58268.81
688.35	58623.11
688.54	58008.71
688.74	58119.31
688.93	58088.59
689.12	58147.98
689.31	57855.12
689.50	58406.02
689.69	57783.44
689.88	57797.77
690.07	58119.31
690.26	58033.29
690.45	58104.97
690.64	57762.96
690.83	57818.25
691.02	57939.08
691.21	57638.03
691.40	57846.93
691.59	58102.92
691.78	57554.07
691.97	57891.98
692.16	57314.45
692.35	57832.59
692.54	58217.61
692.73	57791.63
692.92	57601.17
693.11	57713.81
693.30	57873.55
693.49	58008.71
693.68	57455.76
693.87	57617.55
694.06	57552.02
694.25	57533.59
694.44	57302.17
694.63	57541.78
694.82	57316.50
695.01	57568.40
695.20	56802.46
695.39	57539.73
695.58	57398.42
695.77	56931.48
695.96	56849.56
696.15	57091.22
696.34	57455.76
696.53	57013.40
696.72	57365.65
696.91	56945.82
697.10	57263.25
697.29	57103.51
697.48	56992.92
697.67	56399.01
697.86	56632.48
698.05	56730.78
698.24	57398.42
698.43	56452.26
698.62	57103.51
698.81	56458.40
699.00	57029.79
699.19	56194.21
699.38	56874.14
699.57	56005.80
699.76	56890.52
699.95	56556.70
700.14	56259.75
700.32	56763.55
700.51	56542.37
700.70	56628.38
700.89	56609.95
701.08	56302.76
701.27	56409.25
701.46	56566.94
701.65	55790.76
701.84	55942.31
702.03	56302.76
702.22	56358.05
702.41	56464.55
702.60	56456.35
702.79	56296.61
702.98	55891.12
703.17	56102.06
703.35	55973.03
703.54	55856.30
703.73	56708.25
703.92	55936.17
704.11	55981.23
704.30	55545.01
704.49	56251.56
704.68	55958.70
704.87	56296.61
705.06	55448.75
705.25	55909.55
705.43	55825.58
705.62	56208.55
705.81	56022.19
706.00	55819.44
706.19	55192.76
706.38	55547.06
706.57	55538.86
706.76	55450.80
706.95	55663.79
707.14	55635.12
707.32	55465.14
707.51	55385.27
707.70	55121.08
707.89	55157.94
708.08	55753.90
708.27	55407.79
708.46	55119.03
708.65	55241.91
708.84	55702.70
709.02	55403.70
709.21	55258.29
709.40	55219.38
709.59	55688.37
709.78	54928.57
709.97	55436.47
710.16	54908.09
710.34	55014.58
710.53	54977.72
710.72	54398.15
710.91	55147.70
711.10	55106.74
711.29	55174.33
711.48	54803.64
711.66	55047.35
711.85	54383.81
712.04	54662.33
712.23	54408.39
712.42	54531.26
712.61	54682.81
712.80	54676.67
712.98	54447.30
713.17	54686.91
713.36	54955.19
713.55	54949.05
713.74	54703.29
713.93	54518.98
714.11	54344.90
714.30	54004.94
714.49	53976.26
714.68	54656.19
714.87	54402.24
715.06	54383.81
715.24	54260.93
715.43	54314.18
715.62	53662.93
715.81	53890.25
716.00	54381.76
716.18	53660.88
716.37	53449.94
716.56	53834.95
716.75	53980.36
716.94	53742.80
717.12	53566.67
717.31	53837.00
717.50	53507.28
717.69	53560.53
717.88	53507.28
718.06	53890.25
718.25	53834.95
718.44	53210.32
718.63	53519.57
718.82	53155.03
719.00	53501.14
719.19	53028.05
719.38	53284.05
719.57	52716.76
719.76	52518.11
719.94	52522.21
720.13	52694.24
720.32	52901.08
720.51	52878.55
720.69	52620.51
720.88	52331.75
721.07	52694.24
721.26	52163.81
721.44	52221.16
721.63	52378.85
721.82	51918.06
722.01	52260.07
722.20	52249.83
722.38	52071.65
722.57	51868.90
722.76	52141.28
722.95	52141.28
723.13	52096.23
723.32	51965.16
723.51	51795.18
723.70	51344.62
723.88	51264.75
724.07	51313.90
724.26	51705.07
724.44	51490.03
724.63	51580.14
724.82	51643.63
725.01	51363.06
725.19	51770.60
725.38	51373.30
725.57	51039.48
725.76	51692.78
725.94	50814.20
726.13	51242.23
726.32	51166.45
726.51	51123.44
726.69	51590.38
726.88	51287.28
727.07	51143.92
727.25	51500.27
727.44	51156.21
727.63	51039.48
727.82	51049.72
728.00	51254.51
728.19	50615.55
728.38	51340.53
728.56	50537.72
728.75	51530.99
728.94	50896.12
729.12	50691.32
729.31	51057.91
729.50	50894.07
729.69	50973.94
729.87	50965.75
730.06	51057.91
730.25	51029.24
730.43	50842.87
730.62	50642.17
730.81	51324.14
730.99	51014.90
731.18	50435.33
731.37	50713.85
731.55	51066.10
731.74	51277.04
731.93	50681.08
732.11	51127.54
732.30	50859.26
732.49	50494.72
732.67	51035.38
732.86	50283.78
733.05	50685.18
733.23	50386.18
733.42	50613.50
733.61	50263.30
733.79	50873.59
733.98	50584.83
734.17	50552.06
734.35	50599.16
734.54	50488.57
734.73	50595.07
734.91	50406.65
735.10	49964.29
735.29	50539.77
735.47	50210.05
735.66	50271.49
735.84	50494.72
736.03	50519.29
736.22	50664.70
736.40	50015.49
736.59	50390.27
736.78	50369.79
736.96	50199.81
737.15	50189.57
737.33	49820.94
737.52	50142.47
737.71	49761.54
737.89	50203.91
738.08	49607.95
738.27	50087.17
738.45	50525.44
738.64	50271.49
738.82	50132.23
739.01	49687.82
739.20	49730.83
739.38	49925.38
739.57	49964.29
739.75	49784.07
739.94	49517.84
740.13	50044.16
740.31	49702.15
740.50	49923.33
740.68	50027.78
740.87	49769.74
741.06	49739.02
741.24	49409.29
741.43	49421.58
741.61	49589.52
741.80	49730.83
741.99	49411.34
742.17	48817.43
742.36	49612.04
742.54	49233.17
742.73	49181.97
742.91	49222.93
743.10	49452.30
743.29	49237.26
743.47	49685.77
743.66	49036.56
743.84	49100.05
744.03	49227.02
744.21	48917.78
744.40	49399.05
744.59	48782.62
744.77	49102.10
744.96	49149.20
745.14	49480.97
745.33	49181.97
745.51	49005.84
745.70	49169.68
745.88	48805.14
746.07	48864.53
746.26	48698.65
746.44	48770.33
746.63	48557.34
746.81	48518.43
747.00	48198.94
747.18	48745.75
747.37	48842.01
747.55	48526.62
747.74	48919.83
747.92	47961.38
748.11	48569.63
748.29	48297.25
748.48	48719.13
748.66	48526.62
748.85	48250.14
749.03	48373.02
749.22	48803.10
749.41	48211.23
749.59	48307.49
749.78	48096.55
749.96	47985.96
750.15	47945.00
750.33	48223.52
750.52	47867.17
750.70	47949.09
750.89	47754.54
751.07	47670.57
751.26	47863.08
751.44	47838.50
751.63	47775.02
751.81	47570.22
752.00	47586.60
752.18	48235.81
752.37	47658.28
752.55	47406.38
752.74	47488.30
752.92	47838.50
753.10	47375.66
753.29	47480.11
753.47	47265.07
753.66	47013.17
753.84	47469.87
754.03	47152.43
754.21	47363.37
754.40	47224.11
754.58	47494.44
754.77	47156.53
754.95	47390.00
755.14	47482.16
755.32	47111.47
755.51	47015.22
755.69	46533.95
755.88	46722.36
756.06	46761.27
756.24	46593.34
756.43	46648.63
756.61	46996.79
756.80	46681.40
756.98	46521.66
757.17	47021.36
757.35	46542.14
757.54	46712.12
757.72	46294.33
757.90	46300.48
758.09	46333.24
758.27	46406.97
758.46	46200.13
758.64	46269.76
758.83	46583.10
759.01	46396.73
759.19	46431.55
759.38	46216.51
759.56	46337.34
759.75	46044.48
759.93	46234.94
760.12	45925.70
760.30	45983.04
760.48	46228.80
760.67	45614.41
760.85	46017.86
761.04	45866.31
761.22	46046.53
761.40	45671.75
761.59	45933.89
761.77	45927.75
761.96	45649.22
762.14	45344.08
762.32	45473.10
762.51	45196.62
762.69	45204.81
762.88	45352.27
763.06	45368.65
763.24	45442.38
763.43	45434.19
763.61	45202.77
763.80	45251.92
763.98	45532.49
764.16	45315.40
764.35	44881.24
764.53	44883.28
764.72	45030.74
764.90	44766.55
765.08	45266.25
765.27	44985.68
765.45	44670.29
765.63	44096.86
765.82	44891.48
766.00	44318.04
766.18	44811.60
766.37	44801.36
766.55	44688.73
766.74	44703.06
766.92	44336.48
767.10	44690.77
767.29	44578.14
767.47	43648.36
767.65	44348.76
767.84	43939.17
768.02	44029.28
768.20	43859.30
768.39	44567.90
768.57	44004.70
768.75	43916.64
768.94	43986.27
769.12	44098.91
769.30	43369.83
769.49	43922.79
769.67	43822.44
769.85	43529.58
770.04	43980.13
770.22	43201.90
770.40	43314.54
770.59	43267.44
770.77	43480.42
770.95	43494.76
771.14	43308.40
771.32	43271.53
771.50	42886.51
771.69	43062.64
771.87	43425.13
772.05	43259.24
772.24	43009.39
772.42	42921.33
772.60	43099.50
772.78	43011.44
772.97	42964.34
773.15	43064.69
773.33	42962.29
773.52	42644.85
773.70	43019.63
773.88	43091.31
774.07	42894.71
774.25	42601.85
774.43	42767.73
774.61	42501.50
774.80	43279.72
774.98	42620.28
775.16	42775.92
775.34	42759.54
775.53	42683.76
775.71	43064.69
775.89	42980.72
776.08	42753.40
776.26	42777.97
776.44	42769.78
776.62	42855.79
776.81	42624.37
776.99	42835.31
777.17	42974.58
777.35	42941.81
777.54	43238.76
777.72	42714.48
777.90	42857.84
778.08	43048.30
778.27	43117.93
778.45	43003.25
778.63	43332.97
778.81	42247.55
779.00	43427.18
779.18	42933.62
779.36	43496.81
779.54	43244.91
779.73	42997.10
779.91	43670.89
780.09	43443.56
780.27	43621.73
780.46	43515.24
780.64	43511.14
780.82	43482.47
781.00	43095.41
781.19	43486.57
781.37	43857.25
781.55	43781.48
781.73	43857.25
781.91	43775.33
782.10	43533.67
782.28	43787.62
782.46	43611.49
782.64	43865.44
782.82	43314.54
783.01	43701.61
783.19	44184.93
783.37	44131.68
783.55	44057.95
783.74	44107.10
783.92	43566.44
784.10	44084.58
784.28	43930.98
784.46	43531.62
784.64	43509.10
784.83	43840.87
785.01	44012.90
785.19	43810.15
785.37	43914.59
785.55	43525.48
785.74	43502.95
785.92	43537.77
786.10	43824.48
786.28	43568.49
786.46	43275.63
786.64	43275.63
786.83	43289.96
787.01	43365.74
787.19	43081.07
787.37	43287.92
787.55	43117.93
787.74	43033.97
787.92	42964.34
788.10	43220.33
788.28	43109.74
788.46	43224.43
788.64	42401.14
788.82	42956.14
789.01	43115.89
789.19	43042.16
789.37	42653.05
789.55	42808.69
789.73	42526.07
789.91	42530.17
790.09	42460.54
790.28	42397.05
790.46	42034.56
790.64	42861.94
790.82	42218.88
791.00	41985.41
791.18	42007.94
791.36	42263.93
791.55	42249.60
791.73	41788.80
791.91	42024.32
792.09	41915.78
792.27	41930.11
792.45	41950.59
792.63	41657.73
792.81	41674.12
793.00	41549.19
793.18	41522.57
793.36	41424.26
793.54	41119.12
793.72	41137.55
793.90	40977.81
794.08	40988.05
794.26	41196.94
794.44	40525.21
794.62	40678.80
794.81	41022.86
794.99	40605.08
795.17	40387.99
795.35	40527.25
795.53	40289.69
795.71	40512.92
795.89	40392.09
796.07	40129.95
796.25	39853.47
796.43	39982.49
796.61	39761.31
796.80	39519.65
796.98	39452.07
797.16	39417.25
797.34	39562.66
797.52	39243.18
797.70	39552.42
797.88	39478.69
798.06	39142.83
798.24	39153.07
798.42	39292.33
798.60	39130.54
798.78	38847.92
798.96	38991.28
799.14	39058.86
799.32	38895.02
799.51	38167.99
799.69	39013.80
799.87	38278.58
800.05	38491.57
800.23	37985.72
800.41	38276.54
800.59	38163.90
800.77	37803.46
800.95	37637.57
801.13	38110.65
801.31	37719.49
801.49	38274.49
801.67	37785.02
801.85	37715.39
802.03	37275.08
802.21	37434.82
802.39	37127.63
802.57	37512.64
802.75	37041.61
802.93	36918.73
803.11	36988.36
803.29	36462.04
803.47	36765.14
803.65	36832.72
803.83	36351.45
804.01	36687.31
804.19	36511.19
804.37	36392.40
804.55	36523.47
804.73	36570.58
804.91	36603.35
805.09	36029.91
805.27	35894.75
805.45	36142.55
805.63	36361.69
805.81	35845.60
805.99	35964.38
806.17	35923.42
806.35	35845.60
806.53	35499.49
806.71	35362.28
806.89	35773.92
807.07	35481.06
807.25	35274.21
807.43	35216.87
807.61	35200.49
807.79	35200.49
807.97	34862.57
808.15	34389.49
808.33	34784.75
808.51	34827.76
808.69	34770.41
808.87	34364.92
809.05	34356.72
809.23	34336.24
809.41	34287.09
809.59	34504.18
809.77	34510.32
809.95	33965.56
810.13	34340.34
810.31	34190.84
810.49	34246.13
810.67	34010.62
810.84	33902.07
811.02	33818.11
811.20	33709.57
811.38	33852.92
811.56	33218.05
811.74	34022.90
811.92	33455.62
812.10	33555.97
812.28	33379.84
812.46	33414.66
812.64	33220.10
812.82	33156.61
813.00	33283.59
813.18	33238.53
813.36	33220.10
813.53	32747.02
813.71	32853.51
813.89	32957.96
814.07	33019.40
814.25	32689.68
814.43	32665.10
814.61	32226.84
814.79	32648.72
814.97	32833.04
815.15	32513.55
815.33	32110.10
815.50	32509.46
815.68	32204.31
815.86	32335.38
816.04	32204.31
816.22	32351.76
816.40	32353.81
816.58	32007.70
816.76	31931.93
816.94	31749.66
817.11	32003.61
817.29	31933.98
817.47	31723.04
817.65	31706.65
817.83	31811.10
818.01	31338.02
818.19	31495.71
818.37	31243.81
818.54	31249.96
818.72	31036.97
818.90	31196.71
819.08	31331.87
819.26	31514.14
819.44	30875.18
819.62	31110.69
819.80	31209.00
819.97	31145.51
820.15	31268.39
820.33	31014.44
820.51	31391.26
820.69	30619.18
820.87	30912.04
821.05	31122.98
821.22	30899.75
821.40	30809.64
821.58	30733.87
821.76	30758.44
821.94	30357.04
822.12	30451.25
822.29	30514.73
822.47	30137.91
822.65	30592.56
822.83	30160.44
823.01	30119.48
823.19	30252.59
823.36	29662.78
823.54	30109.24
823.72	30129.72
823.90	30082.61
824.08	29615.68
824.25	29568.57
824.43	29505.09
824.61	29558.33
824.79	29693.50
824.97	29378.11
825.15	29619.77
825.32	29580.86
825.50	29421.12
825.68	29267.52
825.86	29636.16
826.04	29562.43
826.21	29324.86
826.39	29335.10
826.57	29136.45
826.75	29150.79
826.93	28913.22
827.10	28989.00
827.28	29275.71
827.46	28978.76
827.64	29378.11
827.81	28810.82
827.99	29326.91
828.17	28505.68
828.35	28763.72
828.53	28927.56
828.70	28882.50
828.88	28622.41
829.06	28526.16
829.24	28780.10
829.41	28405.33
829.59	28751.43
829.77	28456.53
829.95	28470.86
830.12	28200.53
830.30	28479.05
830.48	28352.08
830.66	28560.97
830.84	28221.01
831.01	28362.32
831.19	28249.68
831.37	28128.85
831.55	28210.77
831.72	28464.72
831.90	28261.97
832.08	28003.92
832.25	28075.60
832.43	28214.87
832.61	27952.73
832.79	27446.88
832.96	27815.51
833.14	27952.73
833.32	27985.49
833.50	27813.46
833.67	27696.73
833.85	27840.09
834.03	27319.90
834.20	27526.75
834.38	27653.72
834.56	27661.91
834.74	27639.39
834.91	27551.32
835.09	27360.86
835.27	27432.54
835.44	27223.65
835.62	26930.79
835.80	27205.22
835.98	27272.80
836.15	27240.03
836.33	27180.64
836.51	27137.63
836.68	27100.77
836.86	26920.55
837.04	27268.70
837.21	26998.37
837.39	27457.12
837.57	27256.42
837.75	26877.54
837.92	26752.62
838.10	27076.19
838.28	26611.31
838.45	26855.01
838.63	26775.14
838.81	26871.40
838.98	26297.97
839.16	26570.35
839.34	26363.50
839.51	26553.96
839.69	26052.21
839.87	26496.62
840.04	26033.78
840.22	26443.37
840.40	26205.81
840.57	26162.80
840.75	26416.75
840.93	26048.11
841.10	25994.87
841.28	26431.08
841.46	26461.80
841.63	26158.70
841.81	25863.80
841.98	26023.54
842.16	25904.76
842.34	26254.96
842.51	25927.28
842.69	26359.41
842.87	25781.88
843.04	26009.20
843.22	25812.60
843.40	25806.45
843.57	25898.61
843.75	25996.92
843.92	25912.95
844.10	25601.66
844.28	25636.47
844.45	25976.44
844.63	25396.86
844.81	25570.94
844.98	25417.34
845.16	25597.56
845.33	25288.32
845.51	25089.67
845.69	25280.13
845.86	25198.21
846.04	25034.37
846.21	25370.24
846.39	25190.02
846.57	25159.30
846.74	25052.80
846.92	25368.19
847.09	24999.55
847.27	25065.09
847.45	25202.30
847.62	25122.43
847.80	25112.19
847.97	24837.76
848.15	24829.57
848.32	24587.91
848.50	25177.73
848.68	24385.16
848.85	24807.05
849.03	24297.10
849.20	24901.25
849.38	24501.90
849.56	24536.71
849.73	24368.78
849.91	24475.27
850.08	24667.78
850.26	24350.35
850.43	24510.09
850.61	24376.97
850.78	24239.76
850.96	24415.88
851.14	24280.72
851.31	24465.03
851.49	24190.61
851.66	24213.13
851.84	24325.77
852.01	24247.95
852.19	24356.49
852.36	23977.62
852.54	23920.28
852.71	23887.51
852.89	24268.43
853.07	24106.64
853.24	24041.11
853.42	24082.06
853.59	23711.38
853.77	24063.63
853.94	23969.43
854.12	23889.56
854.29	23531.16
854.47	23856.79
854.64	23817.88
854.82	23770.77
854.99	23793.30
855.17	23465.63
855.34	23508.63
855.52	23629.46
855.69	23633.56
855.87	23299.74
856.04	23234.21
856.22	23391.90
856.39	23559.83
856.57	23375.52
856.74	23248.54
856.92	23738.01
857.09	23056.03
857.27	23543.45
857.44	23535.26
857.62	23275.16
857.79	23264.92
857.97	23103.14
858.14	23047.84
858.32	23281.31
858.49	22898.34
858.67	22857.38
858.84	22746.79
859.02	22871.72
859.19	22959.78
859.37	22666.92
859.54	22900.39
859.72	22826.66
859.89	22888.10
860.06	22888.10
860.24	22806.18
860.41	22601.38
860.59	22374.06
860.76	22617.77
860.94	22298.28
861.11	22513.32
861.29	22714.02
861.46	22701.73
861.64	22058.67
861.81	22187.69
861.98	22417.07
862.16	22312.62
862.33	22226.60
862.51	22132.40
862.68	21986.99
862.86	21831.35
863.03	22003.38
863.21	22404.78
863.38	21919.41
863.55	22064.82
863.73	22154.93
863.90	21931.70
864.08	21882.55
864.25	22032.05
864.43	22003.38
864.60	21767.86
864.77	21696.18
864.95	21823.16
865.12	21673.65
865.30	21966.51
865.47	21862.07
865.64	21958.32
865.82	21708.47
865.99	21673.65
866.17	21526.20
866.34	21647.03
866.51	21151.42
866.69	21546.68
866.86	21526.20
867.04	21800.63
867.21	21581.49
867.38	21159.61
867.56	21307.07
867.73	21407.42
867.91	21178.04
868.08	21102.27
868.25	20981.44
868.43	21188.28
868.60	21114.56
868.78	21081.79
868.95	21372.60
869.12	21173.95
869.30	21227.20
869.47	21071.55
869.64	20770.50
869.82	20895.43
869.99	20971.20
870.16	21014.21
870.34	20903.62
870.51	21016.26
870.69	20588.23
870.86	20664.00
871.03	20694.72
871.21	20672.20
871.38	20678.34
871.55	20371.15
871.73	20281.03
871.90	20559.56
872.07	20340.43
872.25	20149.96
872.42	20055.76
872.59	20346.57
872.77	20111.05
872.94	20301.51
873.11	20039.37
873.29	20430.54
873.46	19830.48
873.63	20166.35
873.81	19996.37
873.98	19916.50
874.15	19926.74
874.33	19848.91
874.50	19680.98
874.67	19810.00
874.85	19941.07
875.02	19867.34
875.19	19523.29
875.37	19607.25
875.54	19744.47
875.71	19635.92
875.88	19709.65
876.06	19584.73
876.23	19328.73
876.40	19367.64
876.58	19121.88
876.75	19257.05
876.92	19291.87
877.10	19230.43
877.27	19005.15
877.44	19128.03
877.61	19048.16
877.79	18894.56
877.96	19027.68
878.13	18765.54
878.31	18697.95
878.48	18976.48
878.65	18878.18
878.82	18685.67
879.00	18603.75
879.17	18683.62
879.34	18925.28
879.51	18667.24
879.69	18308.84
879.86	18740.96
880.03	18597.60
880.21	18308.84
880.38	18802.40
880.55	18714.34
880.72	18603.75
880.90	18589.41
881.07	18290.41
881.24	18642.66
881.41	18534.12
881.59	18128.62
881.76	18464.49
881.93	18054.89
882.10	18323.18
882.28	18044.65
882.45	18058.99
882.62	18235.11
882.79	18042.60
882.96	18114.28
883.14	18208.49
883.31	18298.60
883.48	18081.52
883.65	18099.95
883.83	18243.31
884.00	18079.47
884.17	17901.29
884.34	18052.84
884.51	18003.69
884.69	17710.83
884.86	17780.46
885.03	17788.66
885.20	17766.13
885.38	17913.58
885.55	17753.84
885.72	17895.15
885.89	17338.10
886.06	17823.47
886.24	17600.24
886.41	17514.23
886.58	17872.62
886.75	17850.10
886.92	17311.48
887.10	17944.30
887.27	17383.16
887.44	17460.98
887.61	17635.06
887.78	17551.09
887.95	17413.88
888.13	17409.78
888.30	17022.72
888.47	17188.60
888.64	17252.09
888.81	17204.99
888.99	17286.90
889.16	16934.65
889.33	17004.28
889.50	17057.53
889.67	16928.51
889.84	16963.33
890.01	17032.96
890.19	16946.94
890.36	16983.80
890.53	16944.89
890.70	16844.54
890.87	16733.95
891.04	16678.66
891.22	16762.62
891.39	16987.90
891.56	16551.68
891.73	16668.42
891.90	16813.82
892.07	16631.55
892.24	16623.36
892.42	16600.83
892.59	16662.27
892.76	16537.35
892.93	16588.55
893.10	16471.81
893.27	16439.05
893.44	16412.42
893.61	16338.69
893.79	16613.12
893.96	16361.22
894.13	16561.92
894.30	16379.65
894.47	16133.90
894.64	16457.48
894.81	16195.34
894.98	16332.55
895.15	16516.87
895.33	16185.10
895.50	16203.53
895.67	16379.65
895.84	16537.35
896.01	16367.37
896.18	16144.14
896.35	16543.49
896.52	16156.43
896.69	16217.86
896.86	16383.75
897.04	16154.38
897.21	16332.55
897.38	16174.86
897.55	16033.55
897.72	16422.66
897.89	16211.72
898.06	16152.33
898.23	16221.96
898.40	16152.33
898.57	16396.04
898.74	16283.40
898.91	16185.10
899.08	16045.84
899.26	16054.03
899.43	16252.68
899.60	16025.36
899.77	16285.45
899.94	15951.63
900.11	15929.10
900.28	16062.22
900.45	16080.65
900.62	16142.09
900.79	15986.44
900.96	15968.01
901.13	15785.74
901.30	15990.54
901.47	15849.23
901.64	16070.41
901.81	16092.94
901.98	16137.99
902.15	15945.48
902.32	15845.13
902.49	16015.12
902.66	16058.12
902.83	16056.08
903.01	15879.95
903.18	15990.54
903.35	16117.51
903.52	15941.39
903.69	16094.99
903.86	16025.36
904.03	15935.24
904.20	16058.12
904.37	16127.75
904.54	15793.94
904.71	16084.75
904.88	15871.76
905.05	15689.49
905.22	15877.90
905.39	15935.24
905.56	15861.52
905.73	16084.75
905.90	15972.11
906.07	15818.51
906.24	15912.72
906.41	15949.58
906.58	15912.72
906.75	15900.43
906.92	15916.81
907.09	15892.24
907.26	15687.44
907.43	15611.67
907.60	15841.04
907.77	15853.33
907.93	15902.48
908.10	15843.09
908.27	15738.64
908.44	15681.30
908.61	15773.46
908.78	15740.69
908.95	15859.47
909.12	15689.49
909.29	15992.59
909.46	15777.55
909.63	15757.07
909.80	15920.91
909.97	15716.11
910.14	15761.17
910.31	15853.33
910.48	15693.58
910.65	15562.51
910.82	15591.19
910.99	15359.77
911.16	15689.49
911.33	15582.99
911.50	15537.94
911.66	15632.15
911.83	15562.51
912.00	15630.10
912.17	15341.33
912.34	15324.95
912.51	15320.85
912.68	15535.89
912.85	15496.98
913.02	15273.75
913.19	15220.50
913.36	15335.19
913.53	15177.50
913.70	15195.93
913.86	15114.01
914.03	15343.38
914.20	15200.02
914.37	15126.30
914.54	15177.50
914.71	15187.74
914.88	15134.49
915.05	14997.28
915.22	14847.77
915.39	14954.27
915.55	15036.19
915.72	14821.15
915.89	14808.86
916.06	14946.08
916.23	14659.36
916.40	14690.08
916.57	14436.13
916.74	14528.29
916.91	14937.88
917.07	14642.98
917.24	14305.06
917.41	14475.04
917.58	14556.96
917.75	14335.78
917.92	14419.75
918.09	14432.04
918.26	14399.27
918.42	14362.40
918.59	14272.29
918.76	14167.85
918.93	14163.75
919.10	14104.36
919.27	13887.28
919.44	14190.38
919.60	14036.78
919.77	14059.31
919.94	13877.04
920.11	13877.04
920.28	13848.36
920.45	13713.20
920.61	13786.93
920.78	13639.47
920.95	13934.38
921.12	13754.16
921.29	13385.52
921.46	13606.70
921.62	13481.78
921.79	13539.12
921.96	13453.11
922.13	13471.54
922.30	13274.93
922.47	13143.86
922.63	13178.68
922.80	13266.74
922.97	12945.21
923.14	12830.52
923.31	12894.01
923.47	12820.28
923.64	13147.96
923.81	12939.07
923.98	12939.07
924.15	12523.33
924.32	12904.25
924.48	12814.14
924.65	12642.11
924.82	12312.39
924.99	12650.30
925.15	12478.27
925.32	12748.61
925.49	12238.66
925.66	12455.75
925.83	12117.83
925.99	12232.52
926.16	12365.64
926.33	12154.69
926.50	12017.48
926.67	12158.79
926.83	11927.37
927.00	12130.12
927.17	12093.26
927.34	11777.87
927.50	11722.57
927.67	11908.94
927.84	11829.07
928.01	11880.27
928.17	11745.10
928.34	11818.83
928.51	11587.41
928.68	11552.59
928.84	11427.67
929.01	11499.34
929.18	11517.78
929.35	11161.43
929.51	11454.29
929.68	11083.61
929.85	11073.37
930.02	11343.70
930.18	11218.77
930.35	11104.09
930.52	11220.82
930.69	10936.15
930.85	11075.42
931.02	10841.95
931.19	10874.71
931.36	10778.46
931.52	10649.44
931.69	10538.85
931.86	10440.54
932.02	10604.38
932.19	10538.85
932.36	10590.05
932.53	10645.34
932.69	10387.30
932.86	10495.84
933.03	10342.24
933.19	10205.03
933.36	10313.57
933.53	10375.01
933.70	10024.81
933.86	10139.49
934.03	10215.27
934.20	9832.30
934.36	9953.13
934.53	9701.23
934.70	9455.47
934.86	9674.60
935.03	9641.84
935.20	9473.90
935.36	9525.10
935.53	9375.60
935.70	9486.19
935.86	9377.65
936.03	9195.38
936.20	9017.21
936.36	8966.01
936.53	8990.58
936.70	8916.86
936.86	8984.44
937.03	8646.52
937.20	8628.09
937.36	8767.35
937.53	8380.29
937.70	8376.19
937.86	8349.57
938.03	8189.83
938.20	8251.27
938.36	8179.59
938.53	7909.26
938.70	7671.69
938.86	7829.38
939.03	7643.02
939.20	7618.44
939.36	7466.89
939.53	7501.71
939.70	7704.46
939.86	7288.72
940.03	7221.14
940.19	7171.99
940.36	7231.38
940.53	7096.21
940.69	7028.63
940.86	6977.43
941.03	6711.19
941.19	6643.61
941.36	6627.23
941.52	6643.61
941.69	6584.22
941.86	6494.11
942.02	6401.95
942.19	6463.39
942.35	6399.90
942.52	6207.39
942.69	6221.73
942.85	6082.47
943.02	6137.76
943.18	6006.69
943.35	6012.84
943.52	5975.97
943.68	5982.12
943.85	6006.69
944.01	5924.77
944.18	6012.84
944.35	5857.19
944.51	5883.81
944.68	5691.31
944.84	5726.12
945.01	5556.14
945.17	5748.65
945.34	5519.28
945.51	5683.11
945.67	5640.11
945.84	5685.16
946.00	5560.24
946.17	5701.54
946.33	5580.71
946.50	5611.43
946.67	5566.38
946.83	5484.46
947.00	5609.39
947.16	5449.64
947.33	5535.66
947.49	5525.42
947.66	5482.41
947.82	5550.00
947.99	5590.95
948.16	5433.26
948.32	5414.83
948.49	5398.45
948.65	5531.56
948.82	5420.97
948.98	5552.04
949.15	5472.17
949.31	5506.99
949.48	5521.32
949.64	5484.46
949.81	5451.69
949.97	5435.31
950.14	5556.14
950.30	5431.21
950.47	5590.95
950.63	5445.55
950.80	5509.04
950.96	5357.49
951.13	5642.15
951.30	5486.51
951.46	5418.93
951.63	5662.63
951.79	5498.80
951.96	5609.39
952.12	5468.08
952.29	5580.71
952.45	5586.86
952.62	5498.80
952.78	5656.49
952.94	5697.45
953.11	5595.05
953.27	5486.51
953.44	5625.77
953.60	5683.11
953.77	5582.76
953.93	5662.63
954.10	5769.13
954.26	5719.98
954.43	5572.52
954.59	5818.28
954.76	5738.41
954.92	5660.59
955.09	5599.15
955.25	5593.00
955.42	5728.17
955.58	5754.79
955.75	5523.37
955.91	5642.15
956.07	5662.63
956.24	5599.15
956.40	5676.97
956.57	5824.42
956.73	5615.53
956.90	5746.60
957.06	5636.01
957.23	5595.05
957.39	5527.47
957.56	5779.37
957.72	5480.36
957.88	5541.80
958.05	5738.41
958.21	5687.21
958.38	5705.64
958.54	5560.24
958.71	5816.23
958.87	5705.64
959.03	5547.95
959.20	5920.68
959.36	5842.85
959.53	5685.16
959.69	5615.53
959.85	5668.78
960.02	5685.16
960.18	5650.35
960.35	5590.95
960.51	5793.70
960.68	5707.69
960.84	5597.10
961.00	5539.76
961.17	5580.71
961.33	5652.39
961.50	5662.63
961.66	5869.48
961.82	5642.15
961.99	5629.87
962.15	5638.06
962.31	5599.15
962.48	5496.75
962.64	5644.20
962.81	5564.33
962.97	5627.82
963.13	5605.29
963.30	5648.30
963.46	5605.29
963.62	5607.34
963.79	5574.57
963.95	5572.52
964.12	5529.52
964.28	5699.50
964.44	5533.61
964.61	5496.75
964.77	5717.93
964.93	5611.43
965.10	5451.69
965.26	5447.60
965.42	5597.10
965.59	5406.64
965.75	5500.84
965.92	5500.84
966.08	5562.28
966.24	5629.87
966.41	5330.86
966.57	5394.35
966.73	5506.99
966.90	5588.91
967.06	5384.11
967.22	5523.37
967.39	5584.81
967.55	5466.03
967.71	5353.39
967.88	5406.64
968.04	5361.58
968.20	5380.01
968.37	5400.49
968.53	5386.16
968.69	5287.86
968.85	5345.20
969.02	5455.79
969.18	5322.67
969.34	5328.81
969.51	5359.53
969.67	5408.69
969.83	5388.21
970.00	5416.88
970.16	5373.87
970.32	5318.57
970.48	5472.17
970.65	5238.70
970.81	5195.70
970.97	5345.20
971.14	5111.73
971.30	5330.86
971.46	5191.60
971.63	5222.32
971.79	5283.76
971.95	5097.39
972.11	5009.33
972.28	5164.98
972.44	5113.78
972.60	5101.49
972.76	5197.74
972.93	5105.59
973.09	5203.89
973.25	5218.22
973.42	5113.78
973.58	5130.16
973.74	5021.62
973.90	5126.07
974.07	4949.94
974.23	4982.71
974.39	5064.63
974.55	5056.43
974.72	5040.05
974.88	4949.94
975.04	5126.07
975.20	5044.15
975.37	5025.72
975.53	4913.08
975.69	4935.60
975.85	4990.90
976.01	4968.37
976.18	4951.99
976.34	4853.69
976.50	4954.04
976.66	4933.56
976.83	4845.49
976.99	4763.58
977.15	4941.75
977.31	4771.77
977.47	4894.65
977.64	4677.56
977.80	4747.19
977.96	4710.33
978.12	4704.18
978.29	4732.86
978.45	4636.60
978.61	4689.85
978.77	4730.81
978.93	4579.26
979.10	4673.46
979.26	4681.66
979.42	4677.56
979.58	4476.86
979.74	4609.98
979.91	4589.50
980.07	4505.53
980.23	4673.46
980.39	4538.30
980.55	4546.49
980.71	4505.53
980.88	4634.55
981.04	4587.45
981.20	4554.68
981.36	4607.93
981.52	4466.62
981.68	4597.69
981.85	4573.11
982.01	4546.49
982.17	4411.32
982.33	4444.09
982.49	4333.50
982.65	4437.95
982.82	4433.85
982.98	4442.04
983.14	4388.80
983.30	4581.31
983.46	4270.01
983.62	4370.37
983.79	4308.93
983.95	4423.61
984.11	4204.48
984.27	4501.44
984.43	4376.51
984.59	4231.10
984.75	4366.27
984.91	4343.74
985.08	4435.90
985.24	4116.42
985.40	4196.29
985.56	4341.69
985.72	4247.49
985.88	4464.57
986.04	4171.71
986.20	4296.64
986.37	4196.29
986.53	4163.52
986.69	4263.87
986.85	4165.57
987.01	4245.44
987.17	4155.33
987.33	4065.22
987.49	4147.14
987.65	4214.72
987.82	4085.70
987.98	4075.46
988.14	4100.03
988.30	4130.75
988.46	4145.09
988.62	4130.75
988.78	3971.01
988.94	4085.70
989.10	4067.27
989.26	3874.76
989.42	3864.52
989.59	3864.52
989.75	3903.43
989.91	4024.26
990.07	3899.33
990.23	3889.09
990.39	3882.95
990.55	3975.11
990.71	3944.39
990.87	3862.47
991.03	3864.52
991.19	3833.80
991.35	3956.68
991.51	3954.63
991.67	3934.15
991.83	3768.26
992.00	3835.85
992.16	3917.76
992.32	3936.20
992.48	3962.82
992.64	3712.97
992.80	3895.24
992.96	3835.85
993.12	3885.00
993.28	3770.31
993.44	3774.41
993.60	3778.50
993.76	3784.65
993.92	3694.54
994.08	3729.35
994.24	3829.70
994.40	3721.16
994.56	3764.17
994.72	3639.24
994.88	3567.56
995.04	3672.01
995.20	3737.54
995.36	3624.90
995.52	3635.14
995.68	3663.82
995.84	3516.36
996.00	3620.81
996.16	3665.86
996.32	3588.04
996.48	3602.38
996.64	3706.82
996.80	3608.52
996.96	3551.18
997.12	3483.59
997.28	3530.70
997.44	3497.93
997.60	3456.97
997.76	3516.36
997.92	3485.64
998.08	3497.93
998.24	3284.94
998.40	3489.74
998.56	3608.52
998.72	3422.16
998.88	3452.88
999.04	3323.85
999.20	3577.80
999.36	3387.34
999.52	3379.15
999.68	3336.14
999.84	3473.36
1000.00	3362.76
1000.16	3368.91
1000.32	3235.79
1000.48	3489.74
1000.64	3413.96
1000.80	3262.41
1000.95	3241.93
1001.11	3395.53
1001.27	3336.14
1001.43	3323.85
1001.59	3213.26
1001.75	3250.13
1001.91	3291.09
1002.07	3334.09
1002.23	3252.17
1002.39	3223.50
1002.55	3254.22
1002.71	3223.50
1002.87	3198.93
1003.03	3184.59
1003.19	3147.73
1003.34	3243.98
1003.50	3182.54
1003.66	3223.50
1003.82	3147.73
1003.98	3141.58
1004.14	3112.91
1004.30	3000.27
1004.46	3168.21
1004.62	3131.34
1004.78	3065.81
1004.94	3047.38
1005.09	3182.54
1005.25	3151.82
1005.41	2977.75
1005.57	3053.52
1005.73	3127.25
1005.89	2990.03
1006.05	3041.23
1006.21	3098.58
1006.37	2949.08
1006.52	3106.77
1006.68	2936.79
1006.84	3100.62
1007.00	2942.93
1007.16	3082.19
1007.32	2981.84
1007.48	2957.27
1007.64	2906.07
1007.79	3076.05
1007.95	2889.68
1008.11	2967.51
1008.27	2875.35
1008.43	3041.23
1008.59	2893.78
1008.75	2996.18
1008.91	2852.82
1009.06	2910.16
1009.22	2938.84
1009.38	2965.46
1009.54	2822.10
1009.70	2836.44
1009.86	2887.64
1010.01	2934.74
1010.17	2877.40
1010.33	2910.16
1010.49	2783.19
1010.65	2897.88
1010.81	2717.65
1010.96	2777.05
1011.12	2666.46
1011.28	2641.88
1011.44	2840.53
1011.60	2725.85
1011.76	2746.33
1011.91	2832.34
1012.07	2719.70
1012.23	2623.45
1012.39	2684.89
1012.55	2752.47
1012.71	2691.03
1012.86	2719.70
1013.02	2650.07
1013.18	2582.49
1013.34	2688.98
1013.50	2729.94
1013.65	2691.03
1013.81	2664.41
1013.97	2580.44
1014.13	2662.36
1014.29	2559.96
1014.44	2602.97
1014.60	2592.73
1014.76	2635.74
1014.92	2596.82
1015.07	2645.98
1015.23	2643.93
1015.39	2543.58
1015.55	2510.81
1015.71	2637.78
1015.86	2498.52
1016.02	2584.54
1016.18	2525.15
1016.34	2586.58
1016.49	2551.77
1016.65	2574.30
1016.81	2473.95
1016.97	2469.85
1017.12	2605.02
1017.28	2502.62
1017.44	2506.71
1017.60	2414.56
1017.75	2553.82
1017.91	2549.72
1018.07	2418.65
1018.23	2467.80
1018.38	2367.45
1018.54	2535.39
1018.70	2453.47
1018.86	2453.47
1019.01	2410.46
1019.17	2426.84
1019.33	2475.99
1019.49	2478.04
1019.64	2459.61
1019.80	2387.93
1019.96	2449.37
1020.12	2416.60
1020.27	2346.97
1020.43	2406.36
1020.59	2406.36
1020.74	2338.78
1020.90	2314.20
1021.06	2328.54
1021.22	2418.65
1021.37	2416.60
1021.53	2297.82
1021.69	2396.12
1021.84	2256.86
1022.00	2316.25
1022.16	2299.87
1022.31	2402.27
1022.47	2396.12
1022.63	2355.16
1022.79	2176.99
1022.94	2258.91
1023.10	2314.20
1023.26	2314.20
1023.41	2267.10
1023.57	2271.20
1023.73	2297.82
1023.88	2283.49
1024.04	2250.72
1024.20	2285.53
1024.35	2246.62
1024.51	2193.37
1024.67	2256.86
1024.82	2389.98
1024.98	2211.81
1025.14	2316.25
1025.29	2191.33
1025.45	2306.01
1025.61	2158.56
1025.76	2222.05
1025.92	2203.61
1026.08	2224.09
1026.23	2244.57
1026.39	2297.82
1026.55	2193.37
1026.70	2197.47
1026.86	2203.61
1027.02	2232.29
1027.17	2215.90
1027.33	2240.48
1027.48	2258.91
1027.64	2197.47
1027.80	2105.31
1027.95	2236.38
1028.11	2090.98
1028.27	2240.48
1028.42	2203.61
1028.58	2131.94
1028.73	2148.32
1028.89	2093.02
1029.05	2232.29
1029.20	2187.23
>>>>>End Processed Spectral Data<<<<<
