SpectraSuite Data File
++++++++++++++++++++++++++++++++++++
Date: Fri Jun 02 14:41:54 CEST 2017
User: INFO_000
Dark Spectrum Present: No
Reference Spectrum Present: No
Number of Sampled Component Spectra: 1
Spectrometers: USB4H00879
Integration Time (usec): 80000 (USB4H00879)
Spectra Averaged: 1 (USB4H00879)
Boxcar Smoothing: 0 (USB4H00879)
Correct for Electrical Dark: No (USB4H00879)
Strobe/Lamp Enabled: No (USB4H00879)
Correct for Detector Non-linearity: No (USB4H00879)
Correct for Stray Light: No (USB4H00879)
Number of Pixels in Processed Spectrum: 3648
>>>>>Begin Processed Spectral Data<<<<<
345.13	1304.56
345.34	1304.56
345.56	1304.56
345.78	1232.88
345.99	1236.97
346.21	1662.95
346.42	1685.48
346.64	1624.04
346.86	1767.40
347.07	1652.71
347.29	1728.49
347.50	1570.79
347.72	1699.81
347.94	1716.20
348.15	1597.42
348.37	1589.22
348.59	1656.81
348.80	1611.75
349.02	1796.07
349.23	1886.18
349.45	1796.07
349.67	1939.43
349.88	1800.16
350.10	1945.57
350.31	1904.61
350.53	1789.92
350.75	1939.43
350.96	1777.64
351.18	1798.12
351.39	1834.98
351.61	1820.64
351.82	1814.50
352.04	1918.95
352.26	1830.88
352.47	1888.23
352.69	1912.80
352.90	1865.70
353.12	1847.27
353.34	1828.84
353.55	1886.18
353.77	1920.99
353.98	1877.99
354.20	1853.41
354.41	1916.90
354.63	1945.57
354.85	2068.45
355.06	1918.95
355.28	1796.07
355.49	1843.17
355.71	1980.39
355.92	1855.46
356.14	1964.00
356.35	1861.60
356.57	1888.23
356.79	1871.84
357.00	1859.56
357.22	1951.71
357.43	1841.12
357.65	1974.24
357.86	1877.99
358.08	1886.18
358.29	1914.85
358.51	2013.15
358.72	1984.48
358.94	1920.99
359.16	1855.46
359.37	1937.38
359.59	1964.00
359.80	1974.24
360.02	2037.73
360.23	1976.29
360.45	1959.91
360.66	1943.52
360.88	1896.42
361.09	1890.28
361.31	2009.06
361.52	2056.16
361.74	2088.93
361.95	2090.98
362.17	1943.52
362.38	2142.18
362.60	2093.02
362.81	2025.44
363.03	1861.60
363.24	2029.54
363.46	2101.22
363.67	2045.92
363.89	1953.76
364.10	1970.15
364.32	1937.38
364.53	1994.72
364.75	1845.22
364.96	2101.22
365.18	2084.83
365.39	2076.64
365.61	1982.43
365.82	2131.94
366.04	1918.95
366.25	1927.14
366.47	2045.92
366.68	2107.36
366.90	1992.67
367.11	2072.54
367.33	2064.35
367.54	2148.32
367.76	2043.87
367.97	2058.21
368.19	2062.30
368.40	2078.69
368.62	1994.72
368.83	1927.14
369.05	2107.36
369.26	2047.97
369.48	1986.53
369.69	2011.11
369.91	2058.21
370.12	1984.48
370.33	2027.49
370.55	1943.52
370.76	2019.30
370.98	2162.66
371.19	2115.55
371.41	2033.63
371.62	2060.26
371.84	2068.45
372.05	2187.23
372.27	2072.54
372.48	2142.18
372.69	2025.44
372.91	2183.13
373.12	2189.28
373.34	2158.56
373.55	2138.08
373.77	2174.94
373.98	2117.60
374.20	2209.76
374.41	2228.19
374.62	2183.13
374.84	2197.47
375.05	2158.56
375.27	2201.57
375.48	2217.95
375.70	2217.95
375.91	2224.09
376.12	2228.19
376.34	2138.08
376.55	2232.29
376.77	2185.18
376.98	2138.08
377.19	2158.56
377.41	2166.75
377.62	2168.80
377.84	2220.00
378.05	2297.82
378.27	2242.53
378.48	2299.87
378.69	2363.36
378.91	2271.20
379.12	2220.00
379.34	2269.15
379.55	2256.86
379.76	2295.77
379.98	2238.43
380.19	2303.96
380.41	2310.11
380.62	2342.88
380.83	2306.01
381.05	2183.13
381.26	2439.13
381.47	2277.34
381.69	2273.25
381.90	2387.93
382.12	2351.07
382.33	2318.30
382.54	2299.87
382.76	2342.88
382.97	2336.73
383.19	2236.38
383.40	2338.78
383.61	2340.83
383.83	2308.06
384.04	2303.96
384.25	2387.93
384.47	2379.74
384.68	2316.25
384.89	2297.82
385.11	2349.02
385.32	2385.88
385.54	2344.92
385.75	2387.93
385.96	2447.32
386.18	2435.03
386.39	2504.67
386.60	2459.61
386.82	2537.43
387.03	2453.47
387.24	2494.43
387.46	2488.28
387.67	2555.86
387.88	2564.06
388.10	2426.84
388.31	2514.91
388.52	2547.67
388.74	2592.73
388.95	2617.30
389.16	2508.76
389.38	2516.95
389.59	2666.46
389.80	2756.57
390.02	2525.15
390.23	2619.35
390.44	2547.67
390.66	2576.34
390.87	2660.31
391.08	2729.94
391.30	2789.33
391.51	2693.08
391.72	2729.94
391.94	2686.94
392.15	2580.44
392.36	2584.54
392.58	2656.22
392.79	2756.57
393.00	2721.75
393.22	2775.00
393.43	2768.85
393.64	2815.96
393.85	2834.39
394.07	2715.61
394.28	2781.14
394.49	2801.62
394.71	2799.57
394.92	2858.96
395.13	2861.01
395.35	2713.56
395.56	2815.96
395.77	2813.91
395.98	2787.29
396.20	2877.40
396.41	2975.70
396.62	2928.60
396.84	2899.92
397.05	2924.50
397.26	2910.16
397.47	2969.55
397.69	2873.30
397.90	3006.42
398.11	2996.18
398.32	2959.31
398.54	2807.77
398.75	2895.83
398.96	2965.46
399.18	3098.58
399.39	2936.79
399.60	3080.14
399.81	3028.95
400.03	3045.33
400.24	3252.17
400.45	3071.95
400.66	3207.12
400.88	3106.77
401.09	3184.59
401.30	3096.53
401.51	3151.82
401.73	3196.88
401.94	3299.28
402.15	3164.11
402.36	3227.60
402.58	3188.69
402.79	3209.17
403.00	3223.50
403.21	3256.27
403.43	3256.27
403.64	3362.76
403.85	3078.10
404.06	3383.24
404.27	3200.98
404.49	3211.22
404.70	3196.88
404.91	3319.76
405.12	3282.89
405.34	3262.41
405.55	3434.44
405.76	3229.65
405.97	3227.60
406.19	3465.16
406.40	3303.37
406.61	3362.76
406.82	3409.87
407.03	3282.89
407.25	3387.34
407.46	3426.25
407.67	3467.21
407.88	3493.83
408.09	3497.93
408.31	3483.59
408.52	3555.27
408.73	3391.44
408.94	3432.40
409.15	3600.33
409.37	3514.31
409.58	3555.27
409.79	3497.93
410.00	3598.28
410.21	3452.88
410.43	3538.89
410.64	3487.69
410.85	3688.39
411.06	3553.23
411.27	3622.86
411.48	3704.78
411.70	3573.71
411.91	3669.96
412.12	3760.07
412.33	3659.72
412.54	3579.85
412.76	3819.46
412.97	3770.31
413.18	3694.54
413.39	3667.91
413.60	3776.45
413.81	3727.30
414.03	3819.46
414.24	3770.31
414.45	3901.38
414.66	3639.24
414.87	3887.04
415.08	3784.65
415.30	3882.95
415.51	3891.14
415.72	3751.88
415.93	3786.69
416.14	3928.00
416.35	3762.12
416.56	3934.15
416.78	3862.47
416.99	3878.85
417.20	3848.13
417.41	4018.11
417.62	3952.58
417.83	3911.62
418.04	3985.35
418.26	4102.08
418.47	3919.81
418.68	4145.09
418.89	4022.21
419.10	4204.48
419.31	4112.32
419.52	4255.68
419.73	4120.51
419.95	4231.10
420.16	4016.07
420.37	4100.03
420.58	4048.83
420.79	4159.42
421.00	4257.73
421.21	4171.71
421.42	4097.99
421.63	4077.51
421.85	4050.88
422.06	4306.88
422.27	4194.24
422.48	4288.45
422.69	4335.55
422.90	4360.13
423.11	4310.97
423.32	4327.36
423.53	4433.85
423.75	4554.68
423.96	4523.96
424.17	4585.40
424.38	4628.41
424.59	4523.96
424.80	4687.80
425.01	4452.28
425.22	4646.84
425.43	4579.26
425.64	4761.53
425.85	4687.80
426.06	4911.03
426.28	4636.60
426.49	4589.50
426.70	4652.98
426.91	4714.42
427.12	4753.34
427.33	4859.83
427.54	4753.34
427.75	4886.45
427.96	5042.10
428.17	4835.25
428.38	4906.93
428.59	4947.89
428.80	4786.10
429.01	4827.06
429.23	4968.37
429.44	5289.90
429.65	4992.95
429.86	5169.07
430.07	4997.04
430.28	5072.82
430.49	5271.47
430.70	5259.18
430.91	5314.48
431.12	5189.55
431.33	5236.66
431.54	5328.81
431.75	5392.30
431.96	5334.96
432.17	5320.62
432.38	5250.99
432.59	5519.28
432.80	5386.16
433.01	5468.08
433.22	5361.58
433.43	5494.70
433.64	5429.17
433.85	5466.03
434.06	5554.09
434.27	5377.97
434.49	5519.28
434.70	5685.16
434.91	5783.46
435.12	5713.83
435.33	5789.61
435.54	5713.83
435.75	5394.35
435.96	5767.08
436.17	5459.88
436.38	5789.61
436.59	5947.30
436.80	5791.66
437.01	6025.12
437.22	6039.46
437.43	5775.27
437.64	5844.90
437.85	5955.49
438.06	6043.56
438.27	5799.85
438.48	5767.08
438.69	5994.40
438.90	5881.77
439.11	5840.81
439.32	6164.39
439.53	6107.04
439.74	5996.45
439.95	6164.39
440.16	6055.84
440.37	6070.18
440.57	5992.36
440.78	6219.68
440.99	6270.88
441.20	6107.04
441.41	6041.51
441.62	6229.92
441.83	6209.44
442.04	6330.27
442.25	6129.57
442.46	6258.59
442.67	6528.92
442.88	6803.35
443.09	6340.51
443.30	6315.94
443.51	6326.18
443.72	6594.46
443.93	6225.82
444.14	6662.04
444.35	6467.49
444.56	6545.31
444.77	6508.44
444.98	6563.74
445.19	6723.48
445.40	6596.51
445.61	6510.49
445.81	6692.76
446.02	6653.85
446.23	6756.25
446.44	6379.42
446.65	6793.11
446.86	6635.42
447.07	6862.74
447.28	6789.02
447.49	7010.20
447.70	6739.87
447.91	7098.26
448.12	6926.23
448.33	7004.05
448.54	7047.06
448.74	6911.89
448.95	7073.68
449.16	6836.12
449.37	7413.65
449.58	7094.16
449.79	7188.37
450.00	6809.50
450.21	7321.49
450.42	7262.10
450.63	7296.91
450.84	7266.19
451.05	7294.86
451.25	7214.99
451.46	7243.67
451.67	7444.37
451.88	7516.05
452.09	7360.40
452.30	7368.59
452.51	7380.88
452.72	7669.64
452.93	7815.05
453.13	7407.50
453.34	7577.48
453.55	7675.79
453.76	7647.12
453.97	7843.72
454.18	7741.32
454.39	7778.19
454.60	7679.88
454.81	7620.49
455.01	7976.84
455.22	7712.65
455.43	7778.19
455.64	8191.88
455.85	8173.44
456.06	8255.36
456.27	8091.52
456.48	8097.67
456.68	8114.05
456.89	8183.68
457.10	8136.58
457.31	8322.94
457.52	8331.14
457.73	8394.62
457.94	8570.75
458.14	8169.35
458.35	8720.25
458.56	8368.00
458.77	8468.35
458.98	8580.99
459.19	8474.49
459.39	8726.39
459.60	8755.07
459.81	8761.21
460.02	8769.40
460.23	8937.34
460.44	9013.11
460.65	9058.17
460.85	9107.32
461.06	9090.93
461.27	8857.46
461.48	9275.25
461.69	9303.92
461.89	9060.21
462.10	9234.29
462.31	9183.09
462.52	9047.93
462.73	9310.07
462.94	9570.16
463.14	9406.32
463.35	9561.97
463.56	9793.39
463.77	9768.81
463.98	9398.13
464.18	9703.28
464.39	9854.83
464.60	10098.53
464.81	9820.01
465.02	10002.28
465.23	10305.38
465.43	10063.72
465.64	10329.95
465.85	10282.85
466.06	9946.98
466.27	10432.35
466.47	10356.58
466.68	10465.12
466.89	10239.84
467.10	10596.19
467.30	10274.66
467.51	10686.30
467.72	10874.71
467.93	10522.46
468.14	10903.39
468.34	10870.62
468.55	10932.06
468.76	10977.11
468.97	10710.88
469.17	11241.30
469.38	11292.50
469.59	11548.50
469.80	11077.46
470.01	11216.72
470.21	11284.31
470.42	11671.37
470.63	11732.81
470.84	11439.95
471.04	11736.91
471.25	11704.14
471.46	11773.77
471.67	12171.08
471.87	11910.99
472.08	12054.34
472.29	12343.11
472.50	11958.09
472.70	11923.27
472.91	12154.69
473.12	12488.51
473.33	12615.49
473.53	12595.01
473.74	12488.51
473.95	12824.38
474.16	12853.05
474.36	12726.08
474.57	13063.99
474.78	13221.69
474.99	12984.12
475.19	13014.84
475.40	13557.55
475.61	13674.29
475.81	13547.31
476.02	13657.90
476.23	13516.59
476.44	13938.48
476.64	13920.04
476.85	13928.24
477.06	13852.46
477.27	14438.18
477.47	14266.15
477.68	14255.91
477.89	14389.03
478.09	14378.79
478.30	14423.84
478.51	14538.53
478.71	14712.61
478.92	14685.98
479.13	14958.36
479.34	15306.52
479.54	15269.66
479.75	15103.77
479.96	15398.68
480.16	15386.39
480.37	15482.64
480.58	15658.77
480.78	15890.19
480.99	15965.96
481.20	16123.66
481.41	16146.19
481.61	16183.05
481.82	16404.23
482.03	16289.54
482.23	16287.50
482.44	16668.42
482.65	16910.08
482.85	16852.73
483.06	16482.05
483.27	16830.21
483.47	16932.61
483.68	17002.24
483.89	17164.03
484.09	17184.51
484.30	17389.30
484.51	17424.12
484.71	17626.87
484.92	17483.51
485.13	17557.24
485.33	18063.08
485.54	17923.82
485.75	18183.91
485.95	18247.40
486.16	18097.90
486.37	18284.26
486.57	18052.84
486.78	18263.79
486.98	18296.55
487.19	18470.63
487.40	18931.42
487.60	18743.01
487.81	19125.98
488.02	18781.92
488.22	18865.89
488.43	19275.48
488.64	19271.39
488.84	19255.00
489.05	19582.68
489.25	19603.16
489.46	19760.85
489.67	19508.95
489.87	19631.83
490.08	20123.34
490.29	19920.59
490.49	20532.93
490.70	20250.32
490.90	20661.96
491.11	20424.39
491.32	20373.19
491.52	20604.61
491.73	20930.24
491.94	20932.29
492.14	20756.16
492.35	21173.95
492.55	21157.57
492.76	21032.64
492.97	21472.95
493.17	21391.03
493.38	21456.57
493.58	21749.43
493.79	21454.52
494.00	21581.49
494.20	21780.15
494.41	21941.94
494.61	21692.08
494.82	22230.70
495.02	22013.62
495.23	22185.65
495.44	22267.56
495.64	22613.67
495.85	22455.98
496.05	22804.13
496.26	22595.24
496.47	22795.94
496.67	22531.75
496.88	23031.46
497.08	22800.04
497.29	23008.93
497.49	22984.35
497.70	23365.28
497.91	23211.68
498.11	23330.46
498.32	23852.69
498.52	23580.31
498.73	23592.60
498.93	24209.04
499.14	23860.88
499.34	23733.91
499.55	24149.65
499.76	23918.23
499.96	23838.36
500.17	24221.33
500.37	24206.99
500.58	24696.46
500.78	24190.61
500.99	24290.96
501.19	24907.40
501.40	24647.30
501.60	24766.09
501.81	24452.75
502.02	24805.00
502.22	24716.93
502.43	25198.21
502.63	25341.57
502.84	25249.41
503.04	24831.62
503.25	25089.67
503.45	25204.35
503.66	25446.01
503.86	25484.92
504.07	25798.26
504.27	25308.80
504.48	25908.85
504.68	25984.63
504.89	26070.64
505.09	26179.18
505.30	26076.79
505.50	26248.82
505.71	25919.09
505.91	26361.45
506.12	26308.21
506.32	26267.25
506.53	26693.22
506.73	26398.32
506.94	26424.94
507.14	26668.65
507.35	26500.72
507.55	26556.01
507.76	26865.25
507.96	26990.18
508.17	26951.27
508.37	27090.53
508.58	26756.71
508.78	26889.83
508.99	27156.07
509.19	27272.80
509.40	27254.37
509.60	27235.94
509.81	27440.73
510.01	27108.96
510.22	27401.82
510.42	27616.86
510.63	27461.21
510.83	27483.74
511.04	27815.51
511.24	27788.89
511.44	27817.56
511.65	27756.12
511.85	27866.71
512.06	28026.45
512.26	27993.68
512.47	28032.60
512.67	28077.65
512.88	28321.36
513.08	28116.56
513.29	28102.23
513.49	28321.36
513.69	28393.04
513.90	28493.39
514.10	28687.95
514.31	28733.00
514.51	28515.92
514.72	28923.46
514.92	28620.36
515.13	28853.83
515.33	28866.12
515.53	28888.65
515.74	29138.50
515.94	29075.01
516.15	29122.12
516.35	28976.71
516.56	29650.49
516.76	29480.51
516.96	29079.11
517.17	29584.96
517.37	29353.54
517.58	29582.91
517.78	29668.92
517.99	29781.56
518.19	29912.63
518.39	29591.10
518.60	30039.61
518.80	29734.46
519.01	29949.50
519.21	30176.82
519.41	30139.96
519.62	30066.23
519.82	30076.47
520.03	30244.40
520.23	30504.49
520.43	30099.00
520.64	30596.65
520.84	31079.97
521.05	30586.41
521.25	30959.14
521.45	30694.96
521.66	31151.65
521.86	30854.70
522.07	30936.62
522.27	31202.85
522.47	31399.46
522.68	31438.37
522.88	31282.72
523.08	31821.34
523.29	31512.10
523.49	31538.72
523.70	31813.15
523.90	31964.70
524.10	31749.66
524.31	32142.87
524.51	31446.56
524.71	32255.51
524.92	31845.91
525.12	32466.45
525.33	32308.76
525.53	32359.95
525.73	32620.05
525.94	32716.30
526.14	32615.95
526.34	32552.46
526.55	33000.97
526.75	32826.89
526.95	33144.33
527.16	33162.76
527.36	33011.21
527.56	33379.84
527.77	33238.53
527.97	33371.65
528.17	33375.75
528.38	33648.13
528.58	33633.79
528.78	33697.28
528.99	33836.54
529.19	34348.53
529.39	33857.02
529.60	34434.55
529.80	33957.37
530.00	34358.77
530.21	34946.54
530.41	34512.37
530.61	34475.51
530.82	34457.07
531.02	34416.11
531.22	34647.54
531.43	34813.42
531.63	35007.98
531.83	35255.78
532.04	35798.49
532.24	34905.58
532.44	35794.40
532.64	35517.92
532.85	35708.38
533.05	35728.86
533.25	35677.66
533.46	35603.94
533.66	36300.25
533.86	35859.93
534.07	36306.39
534.27	36031.96
534.47	36429.27
534.67	36623.83
534.88	36613.59
535.08	36660.69
535.28	36939.21
535.49	36687.31
535.69	37109.19
535.89	36679.12
536.09	37350.85
536.30	37404.10
536.50	37326.28
536.70	37406.15
536.91	37641.67
537.11	37334.47
537.31	37541.32
537.51	37721.54
537.72	38440.37
537.92	37973.44
538.12	38561.20
538.32	38292.92
538.53	38532.53
538.73	38264.25
538.93	38413.75
539.13	38573.49
539.34	38352.31
539.54	38573.49
539.74	38995.37
539.94	38559.16
540.15	38442.42
540.35	38725.04
540.55	39251.37
540.75	38966.70
540.96	39359.91
541.16	39173.55
541.36	39409.06
541.56	39267.75
541.77	39482.79
541.97	39374.25
542.17	39620.00
542.37	39554.47
542.58	39802.27
542.78	39738.79
542.98	39712.16
543.18	39818.66
543.38	39968.16
543.59	40531.35
543.79	40000.93
543.99	40101.28
544.19	40594.84
544.40	40279.45
544.60	40895.89
544.80	40439.19
545.00	40687.00
545.20	40697.24
545.41	40752.53
545.61	40992.14
545.81	41147.79
546.01	41115.02
546.21	40951.18
546.42	40949.14
546.62	41201.04
546.82	41440.65
547.02	41239.95
547.22	40994.19
547.43	41227.66
547.63	41299.34
547.83	41760.13
548.03	41565.57
548.23	41553.29
548.44	41514.37
548.64	42018.17
548.84	41706.88
549.04	41792.90
549.24	42358.14
549.45	42513.78
549.65	41985.41
549.85	42124.67
550.05	42491.26
550.25	42282.36
550.45	42530.17
550.66	42524.02
550.86	42196.35
551.06	42999.15
551.26	42569.08
551.46	42571.13
551.66	42478.97
551.87	42478.97
552.07	42519.93
552.27	42956.14
552.47	42483.06
552.67	42976.62
552.87	42749.30
553.07	42927.47
553.28	43269.48
553.48	42911.09
553.68	42997.10
553.88	43388.27
554.08	42956.14
554.28	43421.03
554.48	43074.93
554.69	43560.30
554.89	44049.76
555.09	43537.77
555.29	43179.37
555.49	43513.19
555.69	43498.86
555.89	43509.10
556.10	43666.79
556.30	43705.70
556.50	44012.90
556.70	43896.16
556.90	44240.22
557.10	43935.07
557.30	43986.27
557.50	44201.31
557.70	44549.46
557.91	44250.46
558.11	44277.08
558.31	44387.67
558.51	43840.87
558.71	44160.35
558.91	44318.04
559.11	44330.33
559.31	44471.64
559.51	44057.95
559.72	44496.22
559.92	45057.36
560.12	44197.21
560.32	44440.92
560.52	44574.04
560.72	44905.81
560.92	45063.50
561.12	44817.75
561.32	45288.78
561.52	45096.27
561.72	45008.21
561.93	45176.14
562.13	45065.55
562.33	44858.71
562.53	45593.93
562.73	45102.42
562.93	45004.11
563.13	45184.33
563.33	45194.57
563.53	45794.63
563.73	45172.05
563.93	45282.64
564.13	46189.89
564.33	45716.81
564.53	45309.26
564.74	45761.86
564.94	45159.76
565.14	45864.26
565.34	45221.20
565.54	45679.94
565.74	45966.66
565.94	45833.54
566.14	45735.24
566.34	45612.36
566.54	46089.54
566.74	45665.61
566.94	46036.29
567.14	46253.37
567.34	45952.32
567.54	46017.86
567.74	45880.64
567.94	46277.95
568.14	46525.75
568.34	46320.96
568.54	46009.67
568.74	46470.46
568.94	46179.65
569.14	46638.39
569.34	46331.20
569.54	46830.90
569.75	46105.92
569.95	46288.19
570.15	47123.76
570.35	46535.99
570.55	46890.29
570.75	46843.19
570.95	46961.97
571.15	47029.55
571.35	46925.11
571.55	47017.27
571.75	46634.30
571.95	47289.65
572.15	46845.24
572.35	47340.85
572.55	47279.41
572.75	47322.41
572.95	47004.98
573.15	47338.80
573.35	46966.07
573.55	47117.62
573.75	47035.70
573.95	48049.44
574.15	47209.78
574.35	47199.54
574.55	47580.46
574.75	47682.86
574.95	47764.78
575.15	47596.84
575.34	47654.18
575.54	48010.53
575.74	47797.54
575.94	48094.50
576.14	47725.86
576.34	48340.25
576.54	48463.13
576.74	48362.78
576.94	48203.04
577.14	48160.03
577.34	48340.25
577.54	47951.14
577.74	48170.27
577.94	48434.46
578.14	48399.65
578.34	48629.02
578.54	47932.71
578.74	48090.40
578.94	48749.85
579.14	48092.45
579.34	49001.75
579.54	48567.58
579.74	48831.77
579.94	48917.78
580.13	49397.01
580.33	49104.15
580.53	49130.77
580.73	48950.55
580.93	49151.25
581.13	49038.61
581.33	49255.70
581.53	49171.73
581.73	49526.03
581.93	49566.99
582.13	49435.92
582.33	49513.74
582.53	49591.56
582.73	49632.52
582.92	49591.56
583.12	49949.96
583.32	49698.06
583.52	49669.39
583.72	49800.46
583.92	49859.85
584.12	49810.70
584.32	50461.95
584.52	50388.22
584.72	50187.52
584.92	50349.31
585.11	50713.85
585.31	50205.95
585.51	50590.97
585.71	50593.02
585.91	51004.66
586.11	50758.91
586.31	50765.05
586.51	50298.11
586.71	50644.22
586.91	50945.27
587.10	50988.28
587.30	51053.81
587.50	51160.31
587.70	51219.70
587.90	50861.30
588.10	51023.09
588.30	50975.99
588.50	51346.67
588.69	51619.05
588.89	51057.91
589.09	51594.48
589.29	51385.58
589.49	51803.37
589.69	51031.29
589.89	51410.16
590.08	51365.10
590.28	51119.35
590.48	51606.76
590.68	51535.09
590.88	51729.64
591.08	51606.76
591.28	51315.95
591.47	51807.47
591.67	51778.79
591.87	51688.68
592.07	52270.31
592.27	52466.91
592.47	52010.21
592.67	51993.83
592.86	52188.39
593.06	52339.94
593.26	52190.44
593.46	52051.17
593.66	52186.34
593.86	52444.38
594.05	52610.27
594.25	52684.00
594.45	52122.85
594.65	52380.90
594.85	52051.17
595.05	52638.94
595.24	52950.23
595.44	52622.56
595.64	52880.60
595.84	52579.55
596.04	52776.15
596.23	53046.49
596.43	52880.60
596.63	52710.62
596.83	52950.23
597.03	53689.55
597.22	53619.92
597.42	53544.14
597.62	54021.32
597.82	53593.29
598.02	53015.77
598.21	54054.09
598.41	53109.97
598.61	53378.26
598.81	53603.53
599.01	53679.31
599.20	53748.94
599.40	53703.88
599.60	53867.72
599.80	53859.53
600.00	54291.65
600.19	54412.48
600.39	54230.21
600.59	54502.59
600.79	53875.91
600.98	54185.16
601.18	54215.88
601.38	54498.50
601.58	54559.94
601.78	54224.07
601.97	54328.52
602.17	54916.28
602.37	54867.13
602.57	54969.53
602.76	55243.96
602.96	54379.71
603.16	55149.75
603.36	54963.39
603.55	55295.16
603.75	55110.84
603.95	55026.87
604.15	55358.64
604.34	55260.34
604.54	55547.06
604.74	55098.55
604.94	55647.41
605.13	55651.50
605.33	55336.12
605.53	55057.59
605.73	55667.89
605.92	55692.46
606.12	55645.36
606.32	55422.13
606.52	55415.99
606.71	55813.29
606.91	55899.31
607.11	55825.58
607.30	56149.16
607.50	55688.37
607.70	56186.02
607.90	55927.98
608.09	55612.59
608.29	55710.89
608.49	56124.58
608.68	56245.41
608.88	56657.06
609.08	56353.96
609.28	56278.18
609.47	55973.03
609.67	56415.40
609.87	56214.69
610.06	56122.54
610.26	56470.69
610.46	57083.03
610.66	56448.16
610.85	56517.79
611.05	56140.97
611.25	56284.33
611.44	56149.16
611.64	56573.09
611.84	56661.15
612.03	56456.35
612.23	56485.03
612.43	56730.78
612.62	56786.08
612.82	56665.25
613.02	56931.48
613.21	56577.18
613.41	56695.97
613.61	56732.83
613.80	56171.69
614.00	56992.92
614.20	57029.79
614.39	56349.86
614.59	57277.59
614.79	57144.47
614.98	56450.21
615.18	56984.73
615.38	57027.74
615.57	56810.65
615.77	57234.58
615.97	57113.75
616.16	57439.38
616.36	56843.42
616.56	56911.00
616.75	56800.41
616.95	56571.04
617.15	57066.65
617.34	56931.48
617.54	56972.44
617.74	57394.32
617.93	57488.53
618.13	57005.21
618.32	57003.16
618.52	56941.72
618.72	56827.04
618.91	57373.84
619.11	56708.25
619.31	57212.06
619.50	56857.76
619.70	56835.23
619.90	56941.72
620.09	56943.77
620.29	57123.99
620.48	56829.08
620.68	57312.41
620.88	56579.23
621.07	56892.57
621.27	56951.96
621.46	56693.92
621.66	56960.15
621.86	56632.48
622.05	57171.10
622.25	57146.52
622.44	57091.22
622.64	56464.55
622.84	57027.74
623.03	56904.86
623.23	56734.88
623.42	57142.42
623.62	57336.98
623.82	56984.73
624.01	57058.46
624.21	57044.12
624.40	56890.52
624.60	56849.56
624.80	56949.92
624.99	57042.07
625.19	56566.94
625.38	57083.03
625.58	57058.46
625.77	57316.50
625.97	57046.17
626.17	56652.96
626.36	57003.16
626.56	57275.54
626.75	56550.56
626.95	57236.63
627.14	56642.72
627.34	57431.19
627.54	56941.72
627.73	57210.01
627.93	56605.86
628.12	56784.03
628.32	57130.14
628.51	56925.34
628.71	57123.99
628.90	57005.21
629.10	57150.62
629.30	56779.93
629.49	57228.44
629.69	56743.07
629.88	57416.85
630.08	57248.92
630.27	56671.39
630.47	56847.52
630.66	57080.98
630.86	57455.76
631.05	57066.65
631.25	57564.31
631.44	56841.37
631.64	56911.00
631.84	57494.67
632.03	57541.78
632.23	57154.71
632.42	56824.99
632.62	57056.41
632.81	56917.15
633.01	57138.33
633.20	57570.45
633.40	57185.43
633.59	57185.43
633.79	56765.60
633.98	57289.88
634.18	57685.14
634.37	57713.81
634.57	57312.41
634.76	57500.82
634.96	57478.29
635.15	57586.83
635.35	57183.38
635.54	57101.46
635.74	57314.45
635.93	56976.54
636.13	57390.23
636.32	57619.60
636.52	57132.18
636.71	57160.86
636.91	57734.29
637.10	57031.83
637.30	57224.34
637.49	57418.90
637.69	57373.84
637.88	57592.98
638.08	56982.68
638.27	57703.57
638.46	57554.07
638.66	57154.71
638.85	57150.62
639.05	57646.22
639.24	57564.31
639.44	57005.21
639.63	57492.63
639.83	57590.93
640.02	57648.27
640.22	57390.23
640.41	57859.21
640.61	57244.82
640.80	57498.77
640.99	57314.45
641.19	58277.00
641.38	57781.39
641.58	57670.80
641.77	57423.00
641.97	57504.91
642.16	57926.80
642.36	57509.01
642.55	58086.54
642.74	57504.91
642.94	58021.00
643.13	57732.24
643.33	58315.91
643.52	57998.48
643.72	58045.58
643.91	57693.33
644.10	58172.55
644.30	57947.28
644.49	57750.67
644.69	58184.84
644.88	58203.27
645.08	57783.44
645.27	57799.82
645.46	57220.25
645.66	58279.05
645.85	57760.91
646.05	57832.59
646.24	58332.29
646.43	57920.65
646.63	58287.24
646.82	58315.91
647.02	58211.46
647.21	58360.97
647.40	58129.54
647.60	58023.05
647.79	58334.34
647.99	58473.60
648.18	58119.31
648.37	58520.71
648.57	58762.37
648.76	58776.70
648.96	58250.38
649.15	58662.02
649.34	58465.41
649.54	58578.05
649.73	58268.81
649.92	58631.30
650.12	58619.01
650.31	58440.84
650.51	58889.34
650.70	58489.99
650.89	58301.57
651.09	59415.67
651.28	58621.06
651.47	58659.97
651.67	58985.60
651.86	59073.66
652.06	57986.19
652.25	58700.93
652.44	58778.75
652.64	58594.43
652.83	58348.68
653.02	58629.25
653.22	58307.72
653.41	58365.06
653.60	58434.69
653.80	58702.98
653.99	58844.29
654.18	58143.88
654.38	58164.36
654.57	58772.61
654.76	58694.78
654.96	58578.05
655.15	58700.93
655.34	58774.66
655.54	58320.01
655.73	58598.53
655.92	58571.91
656.12	58651.78
656.31	58913.92
656.50	58659.97
656.70	58813.57
656.89	58522.76
657.08	58774.66
657.28	58889.34
657.47	58897.53
657.66	59135.10
657.86	58737.79
658.05	58895.49
658.24	58707.07
658.43	58635.39
658.63	59202.68
658.82	59315.32
659.01	58758.27
659.21	58856.57
659.40	58864.77
659.59	58834.05
659.79	58858.62
659.98	59077.75
660.17	59184.25
660.36	58788.99
660.56	58770.56
660.75	59411.57
660.94	59036.80
661.14	58932.35
661.33	59239.54
661.52	58487.94
661.71	59116.67
661.91	58608.77
662.10	58639.49
662.29	59470.96
662.49	58987.64
662.68	58901.63
662.87	59182.20
663.06	59024.51
663.26	58774.66
663.45	59087.99
663.64	59204.73
663.83	59260.02
664.03	59065.47
664.22	59387.00
664.41	59200.63
664.60	59227.26
664.80	59311.22
664.99	58954.88
665.18	59239.54
665.37	59462.77
665.57	59438.20
665.76	58819.71
665.95	58977.40
666.14	58707.07
666.34	59087.99
666.53	58958.97
666.72	58918.01
666.91	59153.53
667.11	58905.73
667.30	59159.67
667.49	59014.27
667.68	58750.08
667.87	59241.59
668.07	59462.77
668.26	58752.13
668.45	59145.34
668.64	58786.94
668.84	59776.11
669.03	59118.71
669.22	59114.62
669.41	59040.89
669.60	59081.85
669.80	58932.35
669.99	59225.21
670.18	58659.97
670.37	58934.40
670.57	59378.81
670.76	58872.96
670.95	59288.70
671.14	59120.76
671.33	58899.58
671.53	59339.89
671.72	59163.77
671.91	58897.53
672.10	58856.57
672.29	59237.50
672.48	58819.71
672.68	59036.80
672.87	58844.29
673.06	58725.50
673.25	59069.56
673.44	58725.50
673.64	58852.48
673.83	58825.85
674.02	58772.61
674.21	58662.02
674.40	59255.93
674.59	58350.73
674.79	58913.92
674.98	58852.48
675.17	58952.83
675.36	58651.78
675.55	59053.18
675.74	58922.11
675.94	58506.37
676.13	58823.81
676.32	59161.72
676.51	59180.15
676.70	58809.47
676.89	59184.25
677.08	59243.64
677.28	58850.43
677.47	59008.12
677.66	58553.47
677.85	59120.76
678.04	58653.82
678.23	59155.58
678.42	58807.42
678.62	58850.43
678.81	59217.02
679.00	58358.92
679.19	59405.43
679.38	58543.23
679.57	58610.82
679.76	58702.98
679.96	58913.92
680.15	58735.74
680.34	58733.70
680.53	58819.71
680.72	58815.61
680.91	58958.97
681.10	58393.73
681.29	59280.50
681.48	58254.47
681.68	58748.03
681.87	58741.89
682.06	58336.39
682.25	58166.41
682.44	58381.45
682.63	58668.16
682.82	58297.48
683.01	58260.62
683.20	58107.02
683.39	58563.71
683.59	58524.80
683.78	58111.11
683.97	57975.95
684.16	58262.66
684.35	58186.89
684.54	58311.81
684.73	57588.88
684.92	58274.95
685.11	57894.03
685.30	58252.42
685.49	58543.23
685.69	57793.68
685.88	58074.25
686.07	57891.98
686.26	57851.02
686.45	58021.00
686.64	58252.42
686.83	58233.99
687.02	58274.95
687.21	58240.14
687.40	57947.28
687.59	57537.68
687.78	57719.95
687.97	58418.31
688.16	58107.02
688.35	57990.28
688.54	57914.51
688.74	57879.69
688.93	58033.29
689.12	57738.38
689.31	57826.45
689.50	57801.87
689.69	57253.01
689.88	57435.28
690.07	57627.79
690.26	57754.77
690.45	58061.96
690.64	57685.14
690.83	57803.92
691.02	57529.49
691.21	57308.31
691.40	57289.88
691.59	57830.54
691.78	57111.70
691.97	57435.28
692.16	57447.57
692.35	57932.94
692.54	57836.69
692.73	57316.50
692.92	57250.97
693.11	57152.66
693.30	57275.54
693.49	57693.33
693.68	56958.11
693.87	57205.91
694.06	57273.49
694.25	56927.39
694.44	56685.73
694.63	57226.39
694.82	57693.33
695.01	56894.62
695.20	56695.97
695.39	56726.69
695.58	56921.24
695.77	57152.66
695.96	56738.97
696.15	56939.68
696.34	57152.66
696.53	56927.39
696.72	57119.90
696.91	56741.02
697.10	56767.65
697.29	56628.38
697.48	57158.81
697.67	56792.22
697.86	56661.15
698.05	56300.71
698.24	56943.77
698.43	56157.35
698.62	56747.17
698.81	56143.02
699.00	56302.76
699.19	56392.87
699.38	56177.83
699.57	55946.41
699.76	56755.36
699.95	56097.96
700.14	56208.55
700.32	56243.37
700.51	56067.24
700.70	56485.03
700.89	56288.42
701.08	56407.20
701.27	56114.34
701.46	56308.90
701.65	55647.41
701.84	56024.23
702.03	56267.94
702.22	55921.83
702.41	55846.06
702.60	56112.30
702.79	55948.46
702.98	55751.85
703.17	55940.27
703.35	55391.41
703.54	55514.29
703.73	55960.75
703.92	56087.72
704.11	55841.96
704.30	55876.78
704.49	55641.26
704.68	55436.47
704.87	55639.22
705.06	55473.33
705.25	55352.50
705.43	55866.54
705.62	55389.36
705.81	55444.66
706.00	55366.84
706.19	55266.48
706.38	55047.35
706.57	55516.34
706.76	55129.27
706.95	55217.33
707.14	55338.16
707.32	54990.01
707.51	55076.02
707.70	55325.88
707.89	55358.64
708.08	54652.09
708.27	54977.72
708.46	54838.46
708.65	54817.98
708.84	55311.54
709.02	55266.48
709.21	55088.31
709.40	55129.27
709.59	54832.32
709.78	54815.93
709.97	54717.63
710.16	54600.89
710.34	54371.52
710.53	54684.86
710.72	54392.00
710.91	54742.20
711.10	54666.43
711.29	54717.63
711.48	54602.94
711.66	54535.36
711.85	54521.02
712.04	54293.70
712.23	54533.31
712.42	54291.65
712.61	54389.95
712.80	54265.03
712.98	54299.84
713.17	54052.04
713.36	54193.35
713.55	54187.21
713.74	54392.00
713.93	54463.68
714.11	54076.61
714.30	53949.64
714.49	53736.65
714.68	54015.18
714.87	54105.29
715.06	54291.65
715.24	53513.42
715.43	53470.42
715.62	53552.33
715.81	53273.81
716.00	53335.25
716.18	53632.21
716.37	53140.69
716.56	53411.02
716.75	54054.09
716.94	53140.69
717.12	53239.00
717.31	53814.47
717.50	53376.21
717.69	53028.05
717.88	53351.63
718.06	53257.43
718.25	53218.52
718.44	52862.17
718.63	52993.24
718.82	53310.67
719.00	52727.00
719.19	53146.84
719.38	52557.02
719.57	52671.71
719.76	52651.23
719.94	52196.58
720.13	52438.24
720.32	52571.36
720.51	52329.70
720.69	52378.85
720.88	52352.23
721.07	52352.23
721.26	52059.37
721.44	52608.22
721.63	52102.37
721.82	51653.87
722.01	51821.80
722.20	52327.65
722.38	51590.38
722.57	51856.62
722.76	51819.75
722.95	51662.06
723.13	51569.90
723.32	51780.84
723.51	51115.25
723.70	51188.98
723.88	51524.85
724.07	51518.70
724.26	51641.58
724.44	50916.60
724.63	51422.45
724.82	51430.64
725.01	51172.60
725.19	51594.48
725.38	50969.85
725.57	51139.83
725.76	51133.68
725.94	50664.70
726.13	50799.86
726.32	50828.54
726.51	50889.98
726.69	50773.24
726.88	51105.01
727.07	51025.14
727.25	51205.36
727.44	50670.84
727.63	50484.48
727.82	50963.70
728.00	50795.77
728.19	50826.49
728.38	51070.20
728.56	50390.27
728.75	51500.27
728.94	50707.71
729.12	50451.71
729.31	50593.02
729.50	50642.17
729.69	50386.18
729.87	50310.40
730.06	50822.39
730.25	50656.51
730.43	50816.25
730.62	50322.69
730.81	50539.77
730.99	50717.95
731.18	50660.60
731.37	50420.99
731.55	50674.94
731.74	50550.01
731.93	50650.36
732.11	50693.37
732.30	50945.27
732.49	50328.83
732.67	50580.73
732.86	50466.05
733.05	50144.51
733.23	50115.84
733.42	50261.25
733.61	50486.53
733.79	50345.22
733.98	50494.72
734.17	50259.20
734.35	50294.02
734.54	50234.63
734.73	50603.26
734.91	50404.61
735.10	50242.82
735.29	50285.82
735.47	49782.02
735.66	49673.48
735.84	49964.29
736.03	49992.97
736.22	50468.09
736.40	49849.61
736.59	50023.68
736.78	49913.09
736.96	49935.62
737.15	50134.28
737.33	49739.02
737.52	49732.87
737.71	49679.63
737.89	49779.98
738.08	49440.01
738.27	49718.54
738.45	50134.28
738.64	49513.74
738.82	50021.64
739.01	49605.90
739.20	49730.83
739.38	49757.45
739.57	49478.92
739.75	49779.98
739.94	49556.75
740.13	49503.50
740.31	49005.84
740.50	49628.43
740.68	49630.47
740.87	49632.52
741.06	49749.26
741.24	49626.38
741.43	49116.43
741.61	49294.61
741.80	48985.36
741.99	49341.71
742.17	49192.21
742.36	49302.80
742.54	48715.03
742.73	48938.26
742.91	49390.86
743.10	49255.70
743.29	48973.08
743.47	49325.33
743.66	48960.79
743.84	49095.95
744.03	48862.49
744.21	48622.87
744.40	49435.92
744.59	48850.20
744.77	48641.31
744.96	48960.79
745.14	48471.32
745.33	48641.31
745.51	48801.05
745.70	48649.50
745.88	48571.67
746.07	48712.98
746.26	48311.58
746.44	48217.38
746.63	48657.69
746.81	48436.51
747.00	48303.39
747.18	48088.35
747.37	48325.92
747.55	48166.18
747.74	48565.53
747.92	47906.08
748.11	48284.96
748.29	48252.19
748.48	48151.84
748.66	48014.63
748.85	48125.22
749.03	48352.54
749.22	47875.37
749.41	47637.80
749.59	48428.32
749.78	47570.22
749.96	47232.30
750.15	47572.27
750.33	48069.92
750.52	47910.18
750.70	47781.16
750.89	47328.56
751.07	47461.68
751.26	47314.22
751.44	47379.76
751.63	47502.64
751.81	47435.05
752.00	47201.58
752.18	48110.88
752.37	47514.92
752.55	47289.65
752.74	47449.39
752.92	46814.52
753.10	47025.46
753.29	47070.51
753.47	47172.91
753.66	46841.14
753.84	47140.14
754.03	46863.67
754.21	46531.90
754.40	47129.90
754.58	47330.61
754.77	47168.82
754.95	46863.67
755.14	46904.63
755.32	46665.02
755.51	46429.50
755.69	46583.10
755.88	46357.82
756.06	46609.72
756.24	46431.55
756.43	46880.05
756.61	46722.36
756.80	46169.41
756.98	46361.92
757.17	46368.06
757.35	46855.48
757.54	46478.65
757.72	46429.50
757.90	46234.94
758.09	46073.15
758.27	45839.68
758.46	45913.41
758.64	46019.91
758.83	46017.86
759.01	46212.41
759.19	46144.83
759.38	45919.56
759.56	46165.31
759.75	46056.77
759.93	45753.67
760.12	45618.50
760.30	45659.46
760.48	45989.19
760.67	45557.06
760.85	45735.24
761.04	45786.44
761.22	45679.94
761.40	45319.50
761.59	45534.54
761.77	45233.49
761.96	45856.07
762.14	45192.53
762.32	45315.40
762.51	45591.88
762.69	45045.07
762.88	45344.08
763.06	45260.11
763.24	45303.12
763.43	45473.10
763.61	45159.76
763.80	44991.83
763.98	44791.12
764.16	45012.31
764.35	44414.30
764.53	44565.85
764.72	44438.87
764.90	44295.52
765.08	44430.68
765.27	44694.87
765.45	44309.85
765.63	44438.87
765.82	44381.53
766.00	44242.27
766.18	44361.05
766.37	44492.12
766.55	44432.73
766.74	44193.12
766.92	43941.22
767.10	44193.12
767.29	43943.27
767.47	43873.63
767.65	44266.84
767.84	43605.35
768.02	44197.21
768.20	43810.15
768.39	43904.35
768.57	43879.78
768.75	43728.23
768.94	43799.91
769.12	43687.27
769.30	43095.41
769.49	43128.17
769.67	43384.17
769.85	43162.99
770.04	43496.81
770.22	43066.73
770.40	43048.30
770.59	43095.41
770.77	43357.55
770.95	43310.44
771.14	43091.31
771.32	43113.84
771.50	42866.03
771.69	42702.20
771.87	43208.04
772.05	42911.09
772.24	42882.42
772.42	43113.84
772.60	42704.24
772.78	42433.91
772.97	42665.33
773.15	42962.29
773.33	42304.89
773.52	42581.37
773.70	42491.26
773.88	43062.64
774.07	42644.85
774.25	42444.15
774.43	42835.31
774.61	42440.06
774.80	42792.31
774.98	42409.34
775.16	42454.39
775.34	42560.89
775.53	42507.64
775.71	42798.45
775.89	42739.06
776.08	42597.75
776.26	42700.15
776.44	42671.48
776.62	42747.25
776.81	42300.79
776.99	42583.41
777.17	42323.32
777.35	43124.08
777.54	43038.06
777.72	42657.14
777.90	42753.40
778.08	43253.10
778.27	42710.39
778.45	43033.97
778.63	43257.20
778.81	42706.29
779.00	43289.96
779.18	42882.42
779.36	43447.66
779.54	42900.85
779.73	43038.06
779.91	43302.25
780.09	43136.37
780.27	43791.72
780.46	43160.94
780.64	43427.18
780.82	43193.71
781.00	42917.23
781.19	43464.04
781.37	43502.95
781.55	43634.02
781.73	43857.25
781.91	43314.54
782.10	43281.77
782.28	43398.51
782.46	43267.44
782.64	43435.37
782.82	43021.68
783.01	43087.21
783.19	43281.77
783.37	43230.57
783.55	43457.90
783.74	43523.43
783.92	43447.66
784.10	43498.86
784.28	43429.23
784.46	43300.20
784.64	43068.78
784.83	43427.18
785.01	43615.59
785.19	43603.30
785.37	43322.73
785.55	43746.66
785.74	43074.93
785.92	42947.95
786.10	43726.18
786.28	43341.16
786.46	43455.85
786.64	43160.94
786.83	43277.68
787.01	43146.61
787.19	43320.68
787.37	43461.99
787.55	42980.72
787.74	43156.85
787.92	42845.55
788.10	42859.89
788.28	43009.39
788.46	42722.68
788.64	42515.83
788.82	43421.03
789.01	42849.65
789.19	42632.57
789.37	41981.31
789.55	42734.96
789.73	42270.08
789.91	42096.00
790.09	42321.27
790.28	42124.67
790.46	42014.08
790.64	42345.85
790.82	42087.81
791.00	42169.72
791.18	41952.64
791.36	42001.79
791.55	41893.25
791.73	41606.53
791.91	41567.62
792.09	41487.75
792.27	41870.72
792.45	41393.54
792.63	41280.91
792.81	41291.15
793.00	41430.41
793.18	41524.61
793.36	41579.91
793.54	41026.96
793.72	40893.84
793.90	41082.25
794.08	40834.45
794.26	40877.46
794.44	40428.95
794.62	40422.81
794.81	40773.01
794.99	40002.97
795.17	40502.68
795.35	40398.23
795.53	40091.04
795.71	40283.55
795.89	39773.60
796.07	40080.80
796.25	39310.76
796.43	39892.38
796.61	39376.30
796.80	39667.11
796.98	39902.62
797.16	38999.47
797.34	39376.30
797.52	39046.57
797.70	39587.24
797.88	39198.12
798.06	38923.69
798.24	38626.74
798.42	38878.64
798.60	38569.40
798.78	38571.44
798.96	38553.01
799.14	38380.98
799.32	38596.02
799.51	38548.92
799.69	38839.73
799.87	38372.79
800.05	37707.20
800.23	38036.92
800.41	37957.05
800.59	38137.27
800.77	38079.93
800.95	37354.95
801.13	37580.23
801.31	37496.26
801.49	37842.37
801.67	37551.56
801.85	37524.93
802.03	37293.51
802.21	37131.72
802.39	37025.23
802.57	36933.07
802.75	37101.00
802.93	36937.16
803.11	36724.18
803.29	36971.98
803.47	36181.46
803.65	36818.38
803.83	36416.98
804.01	36537.81
804.19	35988.95
804.37	36345.30
804.55	36269.53
804.73	36158.94
804.91	36025.82
805.09	36189.66
805.27	35634.66
805.45	36017.63
805.63	36054.49
805.81	35556.83
805.99	35913.18
806.17	35466.72
806.35	35509.73
806.53	35149.29
806.71	35255.78
806.89	35364.32
807.07	34981.35
807.25	35321.32
807.43	35143.14
807.61	34893.29
807.79	35036.65
807.97	35198.44
808.15	34899.44
808.33	34756.08
808.51	34674.16
808.69	34592.24
808.87	34518.51
809.05	34450.93
809.23	34037.24
809.41	34041.34
809.59	34035.19
809.77	34444.79
809.95	34094.58
810.13	33990.14
810.31	33867.26
810.49	33900.03
810.67	33791.48
810.84	34006.52
811.02	33988.09
811.20	33523.20
811.38	33736.19
811.56	33420.80
811.74	33269.25
811.92	33259.01
812.10	33535.49
812.28	33754.62
812.46	33336.84
812.64	33234.44
812.82	32960.01
813.00	33031.69
813.18	32957.96
813.36	33029.64
813.53	32620.05
813.71	32779.79
813.89	32454.16
814.07	32873.99
814.25	32804.36
814.43	32353.81
814.61	32568.85
814.79	32599.57
814.97	31946.26
815.15	32618.00
815.33	32056.85
815.50	31864.35
815.68	32106.01
815.86	32106.01
816.04	32163.35
816.22	31766.04
816.40	31911.45
816.58	31987.22
816.76	31680.03
816.94	31807.00
817.11	31694.36
817.29	31854.11
817.47	31510.05
817.65	31495.71
817.83	31399.46
818.01	31186.47
818.19	31077.93
818.37	31561.25
818.54	30957.10
818.72	31041.06
818.90	30907.94
819.08	31211.04
819.26	31008.29
819.44	30967.34
819.62	31176.23
819.80	30885.42
819.97	30834.22
820.15	30764.59
820.33	30862.89
820.51	30580.27
820.69	30314.03
820.87	30842.41
821.05	30789.16
821.22	30416.43
821.40	30592.56
821.58	30500.40
821.76	30223.92
821.94	30254.64
822.12	30273.07
822.29	30029.37
822.47	30152.24
822.65	30574.13
822.83	30332.47
823.01	29797.95
823.19	29900.34
823.36	29654.59
823.54	29759.03
823.72	29871.67
823.90	29797.95
824.08	29619.77
824.25	29591.10
824.43	29296.19
824.61	29509.18
824.79	29279.81
824.97	29081.16
825.15	29337.15
825.32	29433.41
825.50	29503.04
825.68	29341.25
825.86	29457.98
826.04	29365.82
826.21	29165.12
826.39	29122.12
826.57	29195.84
826.75	29056.58
826.93	28685.90
827.10	29130.31
827.28	28888.65
827.46	29124.16
827.64	29130.31
827.81	28753.48
827.99	28982.85
828.17	28866.12
828.35	28626.51
828.53	28843.59
828.70	28874.31
828.88	28907.08
829.06	28526.16
829.24	28763.72
829.41	28685.90
829.59	28608.08
829.77	28470.86
829.95	28388.94
830.12	28554.83
830.30	28472.91
830.48	28300.88
830.66	28225.11
830.84	28145.23
831.01	28229.20
831.19	28001.88
831.37	27944.53
831.55	27960.92
831.72	28096.08
831.90	27897.43
832.08	27876.95
832.25	28005.97
832.43	27786.84
832.61	27575.90
832.79	27657.82
832.96	27883.09
833.14	28012.12
833.32	27891.29
833.50	27817.56
833.67	27776.60
833.85	27690.59
834.03	27289.18
834.20	27424.35
834.38	27653.72
834.56	27559.52
834.74	27313.76
834.91	27416.16
835.09	27201.12
835.27	27133.54
835.44	27194.98
835.62	26578.54
835.80	27037.28
835.98	27027.04
836.15	26934.88
836.33	26969.70
836.51	27078.24
836.68	26664.55
836.86	26685.03
837.04	27086.43
837.21	26820.20
837.39	26867.30
837.57	26838.63
837.75	26871.40
837.92	26519.15
838.10	26627.69
838.28	26396.27
838.45	26420.84
838.63	26424.94
838.81	26551.91
838.98	26562.15
839.16	26443.37
839.34	26525.29
839.51	26543.72
839.69	26494.57
839.87	26289.77
840.04	26191.47
840.22	26359.41
840.40	26074.74
840.57	25978.48
840.75	26025.59
840.93	25906.80
841.10	25792.12
841.28	26220.14
841.46	25882.23
841.63	26097.27
841.81	26089.07
841.98	25994.87
842.16	26218.10
842.34	25898.61
842.51	25669.24
842.69	25689.72
842.87	25706.10
843.04	25857.65
843.22	25644.66
843.40	25745.02
843.57	25671.29
843.75	25826.93
843.92	25552.51
844.10	25411.20
844.28	25478.78
844.45	25378.43
844.63	25536.12
844.81	25202.30
844.98	25341.57
845.16	25196.16
845.33	25237.12
845.51	25167.49
845.69	25218.69
845.86	25032.32
846.04	24991.36
846.21	25106.05
846.39	25015.94
846.57	24999.55
846.74	24931.97
846.92	24850.05
847.09	25087.62
847.27	24678.02
847.45	25020.03
847.62	24952.45
847.80	24733.32
847.97	24995.46
848.15	24512.14
848.32	24368.78
848.50	24700.55
848.68	24442.51
848.85	24393.36
849.03	24483.47
849.20	24342.16
849.38	24405.64
849.56	24276.62
849.73	24139.41
849.91	24219.28
850.08	24462.99
850.26	24020.63
850.43	24223.37
850.61	24499.85
850.78	24229.52
850.96	24290.96
851.14	24442.51
851.31	24508.04
851.49	24123.02
851.66	24118.93
851.84	24075.92
852.01	24129.17
852.19	23953.04
852.36	24338.06
852.54	23899.80
852.71	24049.30
852.89	23778.97
853.07	23662.23
853.24	23805.59
853.42	23760.53
853.59	23516.83
853.77	23586.46
853.94	23492.25
854.12	24032.91
854.29	23707.29
854.47	23430.81
854.64	23318.17
854.82	23584.41
854.99	23854.74
855.17	23457.43
855.34	23322.27
855.52	23334.56
855.69	23498.39
855.87	23234.21
856.04	23299.74
856.22	23316.12
856.39	23115.42
856.57	23232.16
856.74	23209.63
856.92	23320.22
857.09	23166.62
857.27	23031.46
857.44	23174.81
857.62	23338.65
857.79	23119.52
857.97	23162.53
858.14	23070.37
858.32	22994.59
858.49	23236.25
858.67	22902.43
858.84	22828.71
859.02	22967.97
859.19	22855.33
859.37	22793.89
859.54	22660.77
859.72	22924.96
859.89	22548.14
860.06	22623.91
860.24	22607.53
860.41	22400.68
860.59	22486.70
860.76	22476.46
860.94	22152.88
861.11	22410.92
861.29	22589.10
861.46	22298.28
861.64	22116.01
861.81	22433.45
861.98	22335.15
862.16	22218.41
862.33	21886.64
862.51	22060.72
862.68	22251.18
862.86	22179.50
863.03	21931.70
863.21	21823.16
863.38	22062.77
863.55	21892.79
863.73	22005.42
863.90	22181.55
864.08	21892.79
864.25	21860.02
864.43	21882.55
864.60	21894.83
864.77	21628.60
864.95	21747.38
865.12	21362.36
865.30	21601.97
865.47	21434.04
865.64	21397.18
865.82	21829.30
865.99	21755.57
866.17	21280.44
866.34	21604.02
866.51	21446.33
866.69	21466.81
866.86	21540.54
867.04	21579.45
867.21	21413.56
867.38	21178.04
867.56	21378.75
867.73	20924.10
867.91	21200.57
868.08	21364.41
868.25	21018.30
868.43	20887.23
868.60	20750.02
868.78	20963.01
868.95	21274.30
869.12	21171.90
869.30	20774.60
869.47	21012.16
869.64	20618.95
869.82	20876.99
869.99	20694.72
870.16	21108.41
870.34	20731.59
870.51	20840.13
870.69	20608.71
870.86	20524.74
871.03	20539.08
871.21	20577.99
871.38	20592.33
871.55	20440.78
871.73	20141.77
871.90	20168.40
872.07	20182.73
872.25	20260.55
872.42	20086.48
872.59	19873.49
872.77	20133.58
872.94	19969.74
873.11	19947.22
873.29	20094.67
873.46	20231.88
873.63	20033.23
873.81	19713.75
873.98	20074.19
874.15	19789.52
874.33	19795.67
874.50	19365.59
874.67	19689.17
874.85	19513.05
875.02	19369.69
875.19	19580.63
875.37	19324.63
875.54	19412.70
875.71	19429.08
875.88	19275.48
876.06	19300.06
876.23	19265.24
876.40	19029.73
876.58	19070.68
876.75	19207.90
876.92	19156.70
877.10	19074.78
877.27	19033.82
877.44	18958.05
877.61	18929.38
877.79	19037.92
877.96	18904.80
878.13	19130.08
878.31	18616.04
878.48	18675.43
878.65	18642.66
878.82	18704.10
879.00	18593.51
879.17	18796.26
879.34	18562.79
879.51	18575.08
879.69	18693.86
879.86	18288.36
880.03	18398.95
880.21	18425.57
880.38	18595.56
880.55	18460.39
880.72	18335.46
880.90	18505.45
881.07	18259.69
881.24	18589.41
881.41	18249.45
881.59	18302.70
881.76	18255.59
881.93	17991.41
882.10	17968.88
882.28	18138.86
882.45	17979.12
882.62	18151.15
882.79	17960.69
882.96	17549.04
883.14	18052.84
883.31	18083.56
883.48	18032.36
883.65	18007.79
883.83	17993.45
884.00	18026.22
884.17	18022.12
884.34	17841.90
884.51	17628.92
884.69	17768.18
884.86	17698.55
885.03	17594.10
885.20	17348.34
885.38	17800.94
885.55	17757.94
885.72	17889.01
885.89	17649.39
886.06	17661.68
886.24	17665.78
886.41	17508.08
886.58	17577.72
886.75	17850.10
886.92	17364.73
887.10	17645.30
887.27	17542.90
887.44	17223.42
887.61	17645.30
887.78	17643.25
887.95	17245.94
888.13	17194.75
888.30	16920.32
888.47	16994.04
888.64	16867.07
888.81	17159.93
888.99	16942.85
889.16	16871.17
889.33	16795.39
889.50	16936.70
889.67	16877.31
889.84	16717.57
890.01	16895.74
890.19	16889.60
890.36	16625.41
890.53	16707.33
890.70	16801.54
890.87	16924.41
891.04	16664.32
891.22	16916.22
891.39	16901.89
891.56	16326.41
891.73	16541.44
891.90	16375.56
892.07	16260.87
892.24	16314.12
892.42	16248.58
892.59	16643.84
892.76	16283.40
892.93	16639.75
893.10	16410.37
893.27	16367.37
893.44	16344.84
893.61	16248.58
893.79	16254.73
893.96	16267.02
894.13	16373.51
894.30	16334.60
894.47	16221.96
894.64	16140.04
894.81	16244.49
894.98	16432.90
895.15	16211.72
895.33	16051.98
895.50	16357.13
895.67	16334.60
895.84	16228.10
896.01	16027.40
896.18	16039.69
896.35	16207.62
896.52	16260.87
896.69	16008.97
896.86	16346.89
897.04	16113.42
897.21	15996.68
897.38	16023.31
897.55	16193.29
897.72	16195.34
897.89	15949.58
898.06	16135.95
898.23	16099.08
898.40	16047.88
898.57	16043.79
898.74	15847.18
898.91	15882.00
899.08	15824.65
899.26	16072.46
899.43	16201.48
899.60	15900.43
899.77	16084.75
899.94	15976.20
900.11	15855.37
900.28	15957.77
900.45	15738.64
900.62	15757.07
900.79	16135.95
900.96	15957.77
901.13	15941.39
901.30	15791.89
901.47	15798.03
901.64	15787.79
901.81	16004.88
901.98	15900.43
902.15	15877.90
902.32	15728.40
902.49	15845.13
902.66	15898.38
902.83	15935.24
903.01	15793.94
903.18	15836.94
903.35	15945.48
903.52	15714.06
903.69	16137.99
903.86	15849.23
904.03	15775.50
904.20	16289.54
904.37	16174.86
904.54	15925.00
904.71	15800.08
904.88	15810.32
905.05	15714.06
905.22	15871.76
905.39	15867.66
905.56	15691.54
905.73	15798.03
905.90	15916.81
906.07	15724.30
906.24	16068.36
906.41	15660.82
906.58	15859.47
906.75	15920.91
906.92	15521.56
907.09	16025.36
907.26	15798.03
907.43	15611.67
907.60	15736.59
907.77	15820.56
907.93	15785.74
908.10	15634.19
908.27	15890.19
908.44	15855.37
908.61	15503.12
908.78	15945.48
908.95	15675.15
909.12	15408.92
909.29	15671.06
909.46	15609.62
909.63	15875.85
909.80	15607.57
909.97	15496.98
910.14	15470.36
910.31	15402.77
910.48	15664.91
910.65	15658.77
910.82	15437.59
910.99	15503.12
911.16	15509.27
911.33	15335.19
911.50	15433.49
911.66	15372.05
911.83	15484.69
912.00	15245.08
912.17	15060.76
912.34	15128.35
912.51	15310.61
912.68	15181.59
912.85	15269.66
913.02	15232.79
913.19	15355.67
913.36	15054.62
913.53	15154.97
913.70	14858.01
913.86	15236.89
914.03	15150.87
914.20	15101.72
914.37	15052.57
914.54	15036.19
914.71	15044.38
914.88	15068.95
915.05	14929.69
915.22	14849.82
915.39	14864.16
915.55	14806.81
915.72	14530.34
915.89	14671.65
916.06	14554.91
916.23	14794.53
916.40	14743.33
916.57	14577.44
916.74	14688.03
916.91	14452.52
917.07	14323.49
917.24	14288.68
917.41	14360.36
917.58	14591.78
917.75	14552.87
917.92	14190.38
918.09	14276.39
918.26	14364.45
918.42	14249.77
918.59	14225.19
918.76	14159.66
918.93	14114.60
919.10	13942.57
919.27	13977.39
919.44	14112.55
919.60	13887.28
919.77	14020.39
919.94	13711.15
920.11	13872.94
920.28	13967.15
920.45	13604.66
920.61	13709.10
920.78	13377.33
920.95	13481.78
921.12	13594.42
921.29	13268.79
921.46	13412.15
921.62	13322.04
921.79	13281.08
921.96	13377.33
922.13	13135.67
922.30	13195.06
922.47	13209.40
922.63	13119.29
922.80	12988.22
922.97	13135.67
923.14	12980.03
923.31	12957.50
923.47	12826.43
923.64	13043.51
923.81	12724.03
923.98	13033.27
924.15	12721.98
924.32	12533.57
924.48	12740.41
924.65	12525.38
924.82	12601.15
924.99	12515.14
925.15	12345.16
925.32	12468.03
925.49	12130.12
925.66	12330.82
925.83	12156.74
925.99	12046.15
926.16	12263.24
926.33	12291.91
926.50	11865.93
926.67	12076.87
926.83	12005.19
927.00	11908.94
927.17	11949.90
927.34	11788.11
927.50	11853.64
927.67	12048.20
927.84	11738.96
928.01	11564.88
928.17	11497.30
928.34	11542.35
928.51	11595.60
928.68	11456.34
928.84	11530.06
929.01	11378.51
929.18	11138.90
929.35	11198.29
929.51	11149.14
929.68	11190.10
929.85	11022.17
930.02	11196.25
930.18	11071.32
930.35	10923.87
930.52	11061.08
930.69	11106.13
930.85	10737.50
931.02	10839.90
931.19	10723.16
931.36	10807.13
931.52	10637.15
931.69	10778.46
931.86	10444.64
932.02	10467.17
932.19	10518.37
932.36	10538.85
932.53	10375.01
932.69	10278.76
932.86	10432.35
933.03	10051.43
933.19	10217.32
933.36	10116.97
933.53	10102.63
933.70	10043.24
933.86	9965.42
934.03	9889.64
934.20	9809.77
934.36	10149.73
934.53	9609.07
934.70	9637.74
934.86	9754.48
935.03	9510.77
935.20	9437.04
935.36	9568.11
935.53	9265.01
935.70	9330.55
935.86	9295.73
936.03	8925.05
936.20	8961.91
936.36	8982.39
936.53	8839.03
936.70	8963.96
936.86	8748.92
937.03	8783.74
937.20	8476.54
937.36	8701.82
937.53	8310.66
937.70	8327.04
937.86	8159.11
938.03	8298.37
938.20	8374.14
938.36	7786.38
938.53	7894.92
938.70	7827.34
938.86	7769.99
939.03	7620.49
939.20	7595.92
939.36	7569.29
939.53	7466.89
939.70	7548.81
939.86	7192.47
940.03	7094.16
940.19	6944.66
940.36	6901.65
940.53	7014.29
940.69	7010.20
940.86	6881.18
941.03	6723.48
941.19	6670.23
941.36	6643.61
941.52	6506.40
941.69	6459.29
941.86	6539.16
942.02	6381.47
942.19	6416.29
942.35	6410.14
942.52	6221.73
942.69	6209.44
942.85	6061.99
943.02	6156.19
943.18	6068.13
943.35	5978.02
943.52	5969.83
943.68	5879.72
943.85	5883.81
944.01	5887.91
944.18	5713.83
944.35	5920.68
944.51	5722.02
944.68	5650.35
944.84	5638.06
945.01	5662.63
945.17	5658.54
945.34	5644.20
945.51	5582.76
945.67	5638.06
945.84	5605.29
946.00	5480.36
946.17	5607.34
946.33	5466.03
946.50	5541.80
946.67	5451.69
946.83	5527.47
947.00	5427.12
947.16	5525.42
947.33	5529.52
947.49	5463.98
947.66	5513.13
947.82	5474.22
947.99	5433.26
948.16	5496.75
948.32	5357.49
948.49	5597.10
948.65	5603.24
948.82	5382.06
948.98	5427.12
949.15	5519.28
949.31	5359.53
949.48	5433.26
949.64	5248.94
949.81	5463.98
949.97	5513.13
950.14	5699.50
950.30	5478.32
950.47	5597.10
950.63	5457.84
950.80	5339.05
950.96	5498.80
951.13	5427.12
951.30	5451.69
951.46	5580.71
951.63	5623.72
951.79	5593.00
951.96	5461.93
952.12	5441.45
952.29	5554.09
952.45	5435.31
952.62	5607.34
952.78	5590.95
952.94	5615.53
953.11	5539.76
953.27	5470.12
953.44	5701.54
953.60	5484.46
953.77	5629.87
953.93	5691.31
954.10	5611.43
954.26	5619.63
954.43	5607.34
954.59	5640.11
954.76	5699.50
954.92	5480.36
955.09	5638.06
955.25	5535.66
955.42	5576.62
955.58	5834.66
955.75	5636.01
955.91	5547.95
956.07	5607.34
956.24	5693.35
956.40	5572.52
956.57	5660.59
956.73	5562.28
956.90	5656.49
957.06	5627.82
957.23	5636.01
957.39	5607.34
957.56	5660.59
957.72	5580.71
957.88	5623.72
958.05	5754.79
958.21	5758.89
958.38	5539.76
958.54	5519.28
958.71	5734.31
958.87	5558.19
959.03	5545.90
959.20	5713.83
959.36	5676.97
959.53	5547.95
959.69	5472.17
959.85	5668.78
960.02	5676.97
960.18	5554.09
960.35	5636.01
960.51	5738.41
960.68	5615.53
960.84	5648.30
961.00	5623.72
961.17	5703.59
961.33	5754.79
961.50	5785.51
961.66	5687.21
961.82	5607.34
961.99	5734.31
962.15	5603.24
962.31	5656.49
962.48	5603.24
962.64	5552.04
962.81	5654.44
962.97	5525.42
963.13	5554.09
963.30	5588.91
963.46	5668.78
963.62	5459.88
963.79	5533.61
963.95	5488.56
964.12	5449.64
964.28	5580.71
964.44	5515.18
964.61	5570.48
964.77	5361.58
964.93	5615.53
965.10	5513.13
965.26	5554.09
965.42	5529.52
965.59	5447.60
965.75	5476.27
965.92	5472.17
966.08	5474.22
966.24	5535.66
966.41	5476.27
966.57	5662.63
966.73	5375.92
966.90	5570.48
967.06	5543.85
967.22	5414.83
967.39	5443.50
967.55	5441.45
967.71	5425.07
967.88	5459.88
968.04	5302.19
968.20	5324.72
968.37	5365.68
968.53	5185.46
968.69	5306.29
968.85	5392.30
969.02	5525.42
969.18	5445.55
969.34	5371.82
969.51	5392.30
969.67	5341.10
969.83	5185.46
970.00	5371.82
970.16	5060.53
970.32	5343.15
970.48	5449.64
970.65	5064.63
970.81	5160.88
970.97	5154.74
971.14	5060.53
971.30	5275.57
971.46	5173.17
971.63	5173.17
971.79	5203.89
971.95	5130.16
972.11	5175.22
972.28	5070.77
972.44	5101.49
972.60	5103.54
972.76	5072.82
972.93	5046.20
973.09	5109.68
973.25	5068.72
973.42	5025.72
973.58	5156.79
973.74	4984.76
973.90	5064.63
974.07	4886.45
974.23	5027.76
974.39	5052.34
974.55	4894.65
974.72	4962.23
974.88	4878.26
975.04	4947.89
975.20	4933.56
975.37	5025.72
975.53	4845.49
975.69	5050.29
975.85	4835.25
976.01	4827.06
976.18	4837.30
976.34	4712.38
976.50	4976.56
976.66	4880.31
976.83	4859.83
976.99	4913.08
977.15	4827.06
977.31	4607.93
977.47	4894.65
977.64	4820.92
977.80	4794.29
977.96	4685.75
978.12	4767.67
978.29	4648.89
978.45	4698.04
978.61	4618.17
978.77	4755.38
978.93	4689.85
979.10	4775.86
979.26	4609.98
979.42	4741.05
979.58	4679.61
979.74	4710.33
979.91	4702.14
980.07	4534.20
980.23	4663.22
980.39	4626.36
980.55	4665.27
980.71	4616.12
980.88	4747.19
981.04	4480.96
981.20	4442.04
981.36	4485.05
981.52	4437.95
981.68	4452.28
981.85	4403.13
982.01	4485.05
982.17	4407.23
982.33	4550.59
982.49	4587.45
982.65	4431.80
982.82	4458.43
982.98	4437.95
983.14	4321.21
983.30	4550.59
983.46	4511.68
983.62	4464.57
983.79	4300.73
983.95	4300.73
984.11	4161.47
984.27	4317.12
984.43	4345.79
984.59	4347.84
984.75	4401.08
984.91	4261.82
985.08	4300.73
985.24	4112.32
985.40	4302.78
985.56	4280.25
985.72	4218.82
985.88	4263.87
986.04	4206.53
986.20	4247.49
986.37	4165.57
986.53	4083.65
986.69	4190.14
986.85	4130.75
987.01	4143.04
987.17	4255.68
987.33	4077.51
987.49	4212.67
987.65	4194.24
987.82	4073.41
987.98	4118.47
988.14	4054.98
988.30	3993.54
988.46	4136.90
988.62	4050.88
988.78	4001.73
988.94	4020.16
989.10	3993.54
989.26	3995.59
989.42	3964.87
989.59	3950.53
989.75	3966.92
989.91	3995.59
990.07	3862.47
990.23	3923.91
990.39	3891.14
990.55	3936.20
990.71	3932.10
990.87	3928.00
991.03	3966.92
991.19	3778.50
991.35	3825.61
991.51	3844.04
991.67	3893.19
991.83	3946.44
992.00	3854.28
992.16	3874.76
992.32	3784.65
992.48	3788.74
992.64	3710.92
992.80	3858.37
992.96	3743.69
993.12	3772.36
993.28	3811.27
993.44	3764.17
993.60	3770.31
993.76	3737.54
993.92	3719.11
994.08	3817.41
994.24	3686.34
994.40	3706.82
994.56	3667.91
994.72	3696.58
994.88	3616.71
995.04	3657.67
995.20	3629.00
995.36	3690.44
995.52	3633.10
995.68	3674.06
995.84	3524.55
996.00	3655.62
996.16	3563.47
996.32	3475.40
996.48	3561.42
996.64	3536.84
996.80	3514.31
996.96	3669.96
997.12	3534.79
997.28	3469.26
997.44	3551.18
997.60	3446.73
997.76	3448.78
997.92	3487.69
998.08	3502.03
998.24	3448.78
998.40	3514.31
998.56	3526.60
998.72	3403.72
998.88	3291.09
999.04	3311.57
999.20	3413.96
999.36	3377.10
999.52	3434.44
999.68	3291.09
999.84	3422.16
1000.00	3391.44
1000.16	3473.36
1000.32	3389.39
1000.48	3393.48
1000.64	3268.56
1000.80	3420.11
1000.95	3334.09
1001.11	3393.48
1001.27	3334.09
1001.43	3356.62
1001.59	3219.41
1001.75	3114.96
1001.91	3196.88
1002.07	3237.84
1002.23	3170.26
1002.39	3127.25
1002.55	3231.69
1002.71	3194.83
1002.87	3149.78
1003.03	3164.11
1003.19	3137.49
1003.34	3162.06
1003.50	3215.31
1003.66	3301.33
1003.82	3088.34
1003.98	3133.39
1004.14	3180.50
1004.30	3069.91
1004.46	3098.58
1004.62	3141.58
1004.78	3035.09
1004.94	3166.16
1005.09	3090.38
1005.25	3088.34
1005.41	3002.32
1005.57	3141.58
1005.73	3020.75
1005.89	2959.31
1006.05	3119.06
1006.21	3024.85
1006.37	2955.22
1006.52	3000.27
1006.68	2983.89
1006.84	3076.05
1007.00	2869.20
1007.16	3119.06
1007.32	2942.93
1007.48	2901.97
1007.64	3043.28
1007.79	3004.37
1007.95	2858.96
1008.11	3074.00
1008.27	2908.12
1008.43	2949.08
1008.59	2828.24
1008.75	2959.31
1008.91	2899.92
1009.06	2926.55
1009.22	2883.54
1009.38	2951.12
1009.54	2756.57
1009.70	2826.20
1009.86	2850.77
1010.01	2912.21
1010.17	2736.09
1010.33	2779.09
1010.49	2822.10
1010.65	2832.34
1010.81	2701.27
1010.96	2725.85
1011.12	2717.65
1011.28	2797.53
1011.44	2760.66
1011.60	2809.81
1011.76	2695.13
1011.91	2883.54
1012.07	2756.57
1012.23	2707.41
1012.39	2695.13
1012.55	2697.17
1012.71	2656.22
1012.86	2703.32
1013.02	2619.35
1013.18	2697.17
1013.34	2701.27
1013.50	2725.85
1013.65	2676.70
1013.81	2633.69
1013.97	2572.25
1014.13	2611.16
1014.29	2639.83
1014.44	2711.51
1014.60	2588.63
1014.76	2605.02
1014.92	2598.87
1015.07	2609.11
1015.23	2639.83
1015.39	2502.62
1015.55	2602.97
1015.71	2596.82
1015.86	2543.58
1016.02	2459.61
1016.18	2527.19
1016.34	2502.62
1016.49	2562.01
1016.65	2566.10
1016.81	2582.49
1016.97	2605.02
1017.12	2576.34
1017.28	2461.66
1017.44	2430.94
1017.60	2539.48
1017.75	2455.51
1017.91	2461.66
1018.07	2480.09
1018.23	2516.95
1018.38	2355.16
1018.54	2396.12
1018.70	2529.24
1018.86	2422.75
1019.01	2461.66
1019.17	2512.86
1019.33	2498.52
1019.49	2424.80
1019.64	2482.14
1019.80	2488.28
1019.96	2490.33
1020.12	2465.75
1020.27	2299.87
1020.43	2400.22
1020.59	2344.92
1020.74	2437.08
1020.90	2383.84
1021.06	2414.56
1021.22	2353.12
1021.37	2379.74
1021.53	2396.12
1021.69	2463.71
1021.84	2365.40
1022.00	2375.64
1022.16	2396.12
1022.31	2328.54
1022.47	2508.76
1022.63	2428.89
1022.79	2170.85
1022.94	2238.43
1023.10	2367.45
1023.26	2349.02
1023.41	2260.96
1023.57	2332.64
1023.73	2334.68
1023.88	2277.34
1024.04	2183.13
1024.20	2297.82
1024.35	2344.92
1024.51	2283.49
1024.67	2260.96
1024.82	2285.53
1024.98	2248.67
1025.14	2326.49
1025.29	2269.15
1025.45	2234.33
1025.61	2224.09
1025.76	2242.53
1025.92	2230.24
1026.08	2217.95
1026.23	2273.25
1026.39	2357.21
1026.55	2187.23
1026.70	2107.36
1026.86	2205.66
1027.02	2244.57
1027.17	2275.29
1027.33	2281.44
1027.48	2265.05
1027.64	2240.48
1027.80	2166.75
1027.95	2185.18
1028.11	2066.40
1028.27	2244.57
1028.42	2209.76
1028.58	2084.83
1028.73	2142.18
1028.89	2127.84
1029.05	2232.29
1029.20	2105.31
>>>>>End Processed Spectral Data<<<<<
