SpectraSuite Data File
++++++++++++++++++++++++++++++++++++
Date: Fri Jun 02 14:41:58 CEST 2017
User: INFO_000
Dark Spectrum Present: No
Reference Spectrum Present: No
Number of Sampled Component Spectra: 1
Spectrometers: USB4H00879
Integration Time (usec): 80000 (USB4H00879)
Spectra Averaged: 1 (USB4H00879)
Boxcar Smoothing: 0 (USB4H00879)
Correct for Electrical Dark: No (USB4H00879)
Strobe/Lamp Enabled: No (USB4H00879)
Correct for Detector Non-linearity: No (USB4H00879)
Correct for Stray Light: No (USB4H00879)
Number of Pixels in Processed Spectrum: 3648
>>>>>Begin Processed Spectral Data<<<<<
345.13	1343.47
345.34	1343.47
345.56	1343.47
345.78	1288.17
345.99	1294.32
346.21	1714.15
346.42	1693.67
346.64	1605.61
346.86	1769.44
347.07	1634.28
347.29	1714.15
347.50	1560.55
347.72	1667.05
347.94	1724.39
348.15	1556.46
348.37	1560.55
348.59	1728.49
348.80	1648.61
349.02	1751.01
349.23	1880.04
349.45	1892.32
349.67	1873.89
349.88	1748.97
350.10	1970.15
350.31	1890.28
350.53	1855.46
350.75	1945.57
350.96	1779.68
351.18	1886.18
351.39	1880.04
351.61	1777.64
351.82	1918.95
352.04	1959.91
352.26	1826.79
352.47	1906.66
352.69	1945.57
352.90	1781.73
353.12	1796.07
353.34	1873.89
353.55	1910.75
353.77	1826.79
353.98	1886.18
354.20	1763.30
354.41	1912.80
354.63	1908.71
354.85	2007.01
355.06	1925.09
355.28	1802.21
355.49	1902.56
355.71	1896.42
355.92	1888.23
356.14	1912.80
356.35	1789.92
356.57	1800.16
356.79	1941.47
357.00	1884.13
357.22	1974.24
357.43	1869.80
357.65	1943.52
357.86	1785.83
358.08	1875.94
358.29	1986.53
358.51	1912.80
358.72	1875.94
358.94	1947.62
359.16	1970.15
359.37	1941.47
359.59	1931.23
359.80	1951.71
360.02	2011.11
360.23	2043.87
360.45	2119.65
360.66	1910.75
360.88	1951.71
361.09	1882.08
361.31	1970.15
361.52	1982.43
361.74	2027.49
361.95	2004.96
362.17	1929.19
362.38	2007.01
362.60	2064.35
362.81	2086.88
363.03	1933.28
363.24	1949.67
363.46	2060.26
363.67	2000.87
363.89	1970.15
364.10	2019.30
364.32	1949.67
364.53	2068.45
364.75	1957.86
364.96	1961.95
365.18	1996.77
365.39	2035.68
365.61	1957.86
365.82	2101.22
366.04	1986.53
366.25	1929.19
366.47	2066.40
366.68	2023.39
366.90	1992.67
367.11	2123.74
367.33	2084.83
367.54	2107.36
367.76	1957.86
367.97	2105.31
368.19	2029.54
368.40	2078.69
368.62	1976.29
368.83	1961.95
369.05	2027.49
369.26	1935.33
369.48	1978.34
369.69	1988.58
369.91	2136.03
370.12	2043.87
370.33	2078.69
370.55	2023.39
370.76	2037.73
370.98	2131.94
371.19	2011.11
371.41	2039.78
371.62	2090.98
371.84	1957.86
372.05	2140.13
372.27	1982.43
372.48	2009.06
372.69	2062.30
372.91	2203.61
373.12	2166.75
373.34	2176.99
373.55	2115.55
373.77	2209.76
373.98	2121.70
374.20	2121.70
374.41	2181.09
374.62	2185.18
374.84	2203.61
375.05	2140.13
375.27	2154.46
375.48	2203.61
375.70	2164.70
375.91	2252.77
376.12	2375.64
376.34	2125.79
376.55	2248.67
376.77	2201.57
376.98	2148.32
377.19	2183.13
377.41	2195.42
377.62	2154.46
377.84	2297.82
378.05	2363.36
378.27	2181.09
378.48	2359.26
378.69	2381.79
378.91	2228.19
379.12	2228.19
379.34	2226.14
379.55	2301.92
379.76	2258.91
379.98	2303.96
380.19	2277.34
380.41	2349.02
380.62	2289.63
380.83	2254.81
381.05	2232.29
381.26	2420.70
381.47	2318.30
381.69	2310.11
381.90	2387.93
382.12	2351.07
382.33	2351.07
382.54	2263.01
382.76	2445.27
382.97	2349.02
383.19	2330.59
383.40	2435.03
383.61	2293.72
383.83	2283.49
384.04	2289.63
384.25	2332.64
384.47	2387.93
384.68	2353.12
384.89	2396.12
385.11	2379.74
385.32	2324.44
385.54	2381.79
385.75	2312.16
385.96	2416.60
386.18	2447.32
386.39	2475.99
386.60	2469.85
386.82	2461.66
387.03	2451.42
387.24	2545.63
387.46	2514.91
387.67	2465.75
387.88	2484.19
388.10	2578.39
388.31	2506.71
388.52	2535.39
388.74	2537.43
388.95	2545.63
389.16	2588.63
389.38	2494.43
389.59	2691.03
389.80	2699.22
390.02	2568.15
390.23	2594.78
390.44	2543.58
390.66	2658.26
390.87	2600.92
391.08	2574.30
391.30	2609.11
391.51	2734.04
391.72	2752.47
391.94	2779.09
392.15	2643.93
392.36	2670.55
392.58	2709.46
392.79	2629.59
393.00	2625.50
393.22	2764.76
393.43	2850.77
393.64	2891.73
393.85	2820.05
394.07	2695.13
394.28	2822.10
394.49	2836.44
394.71	2797.53
394.92	2973.65
395.13	2709.46
395.35	2756.57
395.56	2752.47
395.77	2805.72
395.98	2924.50
396.20	2924.50
396.41	2858.96
396.62	2899.92
396.84	2928.60
397.05	2854.87
397.26	2924.50
397.47	3084.24
397.69	2873.30
397.90	3080.14
398.11	2969.55
398.32	2934.74
398.54	2885.59
398.75	2961.36
398.96	3028.95
399.18	3110.86
399.39	3065.81
399.60	3071.95
399.81	2987.99
400.03	3000.27
400.24	3223.50
400.45	2996.18
400.66	3084.24
400.88	2967.51
401.09	3188.69
401.30	3174.35
401.51	3192.78
401.73	3141.58
401.94	3170.26
402.15	3223.50
402.36	3207.12
402.58	3264.46
402.79	3313.61
403.00	3215.31
403.21	3340.24
403.43	3315.66
403.64	3385.29
403.85	3149.78
404.06	3297.23
404.27	3184.59
404.49	3246.03
404.70	3166.16
404.91	3295.18
405.12	3252.17
405.34	3352.52
405.55	3477.45
405.76	3342.28
405.97	3284.94
406.19	3409.87
406.40	3332.05
406.61	3395.53
406.82	3391.44
407.03	3434.44
407.25	3350.48
407.46	3471.31
407.67	3487.69
407.88	3522.51
408.09	3448.78
408.31	3364.81
408.52	3495.88
408.73	3395.53
408.94	3448.78
409.15	3528.65
409.37	3497.93
409.58	3612.62
409.79	3647.43
410.00	3608.52
410.21	3477.45
410.43	3553.23
410.64	3469.26
410.85	3618.76
411.06	3542.99
411.27	3502.03
411.48	3721.16
411.70	3616.71
411.91	3674.06
412.12	3801.03
412.33	3629.00
412.54	3678.15
412.76	3772.36
412.97	3878.85
413.18	3596.23
413.39	3774.41
413.60	3702.73
413.81	3780.55
414.03	3715.02
414.24	3733.45
414.45	3823.56
414.66	3659.72
414.87	3813.32
415.08	3878.85
415.30	3768.26
415.51	3895.24
415.72	3803.08
415.93	3936.20
416.14	3889.09
416.35	3936.20
416.56	3811.27
416.78	3864.52
416.99	3925.96
417.20	3952.58
417.41	4059.07
417.62	4001.73
417.83	4114.37
418.04	3839.94
418.26	4001.73
418.47	3973.06
418.68	4155.33
418.89	4020.16
419.10	4210.62
419.31	4128.70
419.52	4214.72
419.73	4026.31
419.95	4132.80
420.16	4091.84
420.37	4028.35
420.58	4198.34
420.79	3981.25
421.00	4224.96
421.21	4278.21
421.42	4118.47
421.63	4253.63
421.85	4153.28
422.06	4333.50
422.27	4278.21
422.48	4292.54
422.69	4323.26
422.90	4317.12
423.11	4399.04
423.32	4390.84
423.53	4386.75
423.75	4327.36
423.96	4556.73
424.17	4528.06
424.38	4540.35
424.59	4591.55
424.80	4591.55
425.01	4521.92
425.22	4609.98
425.43	4513.72
425.64	4841.40
425.85	4753.34
426.06	4716.47
426.28	4679.61
426.49	4704.18
426.70	4603.83
426.91	4771.77
427.12	4792.25
427.33	4734.90
427.54	4782.01
427.75	4863.93
427.96	4876.21
428.17	4763.58
428.38	4925.36
428.59	4931.51
428.80	4730.81
429.01	4919.22
429.23	4960.18
429.44	5216.18
429.65	5087.15
429.86	5056.43
430.07	5064.63
430.28	5017.52
430.49	5107.63
430.70	5322.67
430.91	5277.62
431.12	5124.02
431.33	5382.06
431.54	5332.91
431.75	5226.42
431.96	5271.47
432.17	5234.61
432.38	5167.03
432.59	5509.04
432.80	5447.60
433.01	5298.10
433.22	5437.36
433.43	5502.89
433.64	5420.97
433.85	5384.11
434.06	5646.25
434.27	5476.27
434.49	5531.56
434.70	5599.15
434.91	5685.16
435.12	5775.27
435.33	5672.87
435.54	5707.69
435.75	5318.57
435.96	5736.36
436.17	5660.59
436.38	5953.45
436.59	5822.38
436.80	5683.11
437.01	5894.05
437.22	5849.00
437.43	5746.60
437.64	5709.74
437.85	5904.29
438.06	5902.25
438.27	5851.05
438.48	5988.26
438.69	5828.52
438.90	5994.40
439.11	5953.45
439.32	6023.08
439.53	6018.98
439.74	5965.73
439.95	6068.13
440.16	5980.07
440.37	6070.18
440.57	5988.26
440.78	6221.73
440.99	6070.18
441.20	6344.61
441.41	6164.39
441.62	6047.65
441.83	6125.47
442.04	6352.80
442.25	6295.46
442.46	6246.30
442.67	6498.20
442.88	6770.58
443.09	6137.76
443.30	6340.51
443.51	6352.80
443.72	6682.52
443.93	6299.55
444.14	6555.55
444.35	6461.34
444.56	6506.40
444.77	6604.70
444.98	6621.08
445.19	6635.42
445.40	6549.40
445.61	6606.75
445.81	6754.20
446.02	6770.58
446.23	6653.85
446.44	6510.49
446.65	6641.56
446.86	6686.62
447.07	6993.81
447.28	6905.75
447.49	6899.61
447.70	6696.86
447.91	6905.75
448.12	6977.43
448.33	7053.20
448.54	7083.92
448.74	6940.57
448.95	7049.11
449.16	7045.01
449.37	7258.00
449.58	7045.01
449.79	7333.78
450.00	6885.27
450.21	7202.71
450.42	7284.62
450.63	7464.85
450.84	7090.07
451.05	7305.10
451.25	7210.90
451.46	7214.99
451.67	7309.20
451.88	7460.75
452.09	7397.26
452.30	7569.29
452.51	7180.18
452.72	7499.66
452.93	7892.87
453.13	7344.02
453.34	7557.00
453.55	7483.28
453.76	7638.92
453.97	7915.40
454.18	7784.33
454.39	7720.84
454.60	7624.59
454.81	7927.69
455.01	8054.66
455.22	7626.64
455.43	7878.54
455.64	8040.33
455.85	8079.24
456.06	8331.14
456.27	8200.07
456.48	8085.38
456.68	8265.60
456.89	8259.46
457.10	8368.00
457.31	8343.42
457.52	8247.17
457.73	8224.64
457.94	8669.05
458.14	8513.41
458.35	8671.10
458.56	8568.70
458.77	8462.21
458.98	8566.65
459.19	8560.51
459.39	8802.17
459.60	8793.98
459.81	8759.16
460.02	8775.55
460.23	8859.51
460.44	9154.42
460.65	8955.77
460.85	9021.30
461.06	9035.64
461.27	8783.74
461.48	9353.07
461.69	9297.78
461.89	8779.64
462.10	9242.48
462.31	9129.84
462.52	9092.98
462.73	9342.83
462.94	9760.62
463.14	9285.49
463.35	9531.25
463.56	9903.98
463.77	9801.58
463.98	9529.20
464.18	9668.46
464.39	9703.28
464.60	9734.00
464.81	10039.14
465.02	9809.77
465.23	10088.29
465.43	10116.97
465.64	10194.79
465.85	10016.62
466.06	10000.23
466.27	10524.51
466.47	10348.39
466.68	10428.26
466.89	10213.22
467.10	10391.39
467.30	10270.56
467.51	10585.95
467.72	10870.62
467.93	10485.60
468.14	10508.13
468.34	10843.99
468.55	10909.53
468.76	10911.58
468.97	10887.00
469.17	11138.90
469.38	11138.90
469.59	11439.95
469.80	11216.72
470.01	11218.77
470.21	11278.16
470.42	11636.56
470.63	11640.65
470.84	11468.62
471.04	11792.20
471.25	11784.01
471.46	11859.79
471.67	11908.94
471.87	11992.90
472.08	12117.83
472.29	12435.27
472.50	11974.47
472.70	12011.34
472.91	12306.24
473.12	12461.89
473.33	12486.47
473.53	12719.93
473.74	12470.08
473.95	12777.28
474.16	12879.68
474.36	12945.21
474.57	13025.08
474.78	13260.60
474.99	12943.16
475.19	12867.39
475.40	13510.45
475.61	13451.06
475.81	13512.50
476.02	13725.49
476.23	13801.26
476.44	13739.82
476.64	13729.58
476.85	14063.40
477.06	14034.73
477.27	14208.81
477.47	14372.64
477.68	14329.64
477.89	14509.86
478.09	14257.96
478.30	14870.30
478.51	14620.45
478.71	14984.99
478.92	14941.98
479.13	14991.13
479.34	15195.93
479.54	15138.58
479.75	15359.77
479.96	15273.75
480.16	15423.25
480.37	15691.54
480.58	15566.61
480.78	15873.81
480.99	15746.83
481.20	15791.89
481.41	15922.96
481.61	16060.17
481.82	16129.80
482.03	16357.13
482.23	16385.80
482.44	16563.97
482.65	16600.83
482.85	16588.55
483.06	16670.47
483.27	16699.14
483.47	16766.72
483.68	16971.52
483.89	17121.02
484.09	17391.35
484.30	17383.16
484.51	17383.16
484.71	17587.96
484.92	17686.26
485.13	17749.75
485.33	17884.91
485.54	17753.84
485.75	18136.81
485.95	18355.94
486.16	18296.55
486.37	18446.05
486.57	18403.05
486.78	18374.38
486.98	18472.68
487.19	18710.24
487.40	19138.27
487.60	18749.15
487.81	18769.63
488.02	18908.90
488.22	18953.95
488.43	19445.46
488.64	19320.54
488.84	19482.33
489.05	19582.68
489.25	19398.36
489.46	19828.43
489.67	19521.24
489.87	20035.28
490.08	20248.27
490.29	20119.24
490.49	20387.53
490.70	20250.32
490.90	20453.06
491.11	20066.00
491.32	20582.09
491.52	20551.37
491.73	20694.72
491.94	20696.77
492.14	20784.83
492.35	20991.68
492.55	21075.65
492.76	21294.78
492.97	21118.65
493.17	21182.14
493.38	21251.77
493.58	21700.28
493.79	21524.15
494.00	21552.82
494.20	21753.52
494.41	21751.48
494.61	21941.94
494.82	21780.15
495.02	21946.03
495.23	22423.21
495.44	22460.07
495.64	22376.11
495.85	22593.19
496.05	22728.36
496.26	22455.98
496.47	22818.47
496.67	22779.56
496.88	22978.21
497.08	22595.24
497.29	22937.25
497.49	23158.43
497.70	23223.97
497.91	23447.19
498.11	23529.11
498.32	23436.95
498.52	23682.71
498.73	23953.04
498.93	23791.25
499.14	23875.22
499.34	23879.32
499.55	24116.88
499.76	24077.97
499.96	23907.99
500.17	24049.30
500.37	24497.80
500.58	24299.15
500.78	24487.56
500.99	24436.36
501.19	24465.03
501.40	24643.21
501.60	24721.03
501.81	24622.73
502.02	24802.95
502.22	24800.90
502.43	25194.11
502.63	25290.37
502.84	25306.75
503.04	25147.01
503.25	24985.22
503.45	25134.72
503.66	25626.23
503.86	25589.37
504.07	25878.13
504.27	25382.52
504.48	26064.50
504.68	25597.56
504.89	26117.75
505.09	25925.24
505.30	25927.28
505.50	26019.44
505.71	26351.21
505.91	26443.37
506.12	26488.43
506.32	26310.25
506.53	26214.00
506.73	26467.95
506.94	26752.62
507.14	26449.52
507.35	26519.15
507.55	26547.82
507.76	26791.53
507.96	26812.01
508.17	27084.39
508.37	27051.62
508.58	27115.11
508.78	26769.00
508.99	27354.72
509.19	26857.06
509.40	27309.66
509.60	27072.10
509.81	27516.51
510.01	27690.59
510.22	27399.77
510.42	27328.10
510.63	27706.97
510.83	27614.81
511.04	27659.87
511.24	27911.77
511.44	27682.39
511.65	27690.59
511.85	27911.77
512.06	28051.03
512.26	28395.09
512.47	28261.97
512.67	28165.71
512.88	28307.02
513.08	27946.58
513.29	28417.61
513.49	28315.22
513.69	28311.12
513.90	28159.57
514.10	28382.80
514.31	28280.40
514.51	28790.34
514.72	28683.85
514.92	28554.83
515.13	28595.79
515.33	28825.16
515.53	28685.90
515.74	28827.21
515.94	29386.30
516.15	29044.29
516.35	28929.61
516.56	28933.70
516.76	29275.71
516.96	29142.60
517.17	29601.34
517.37	29496.89
517.58	29304.38
517.78	29640.25
517.99	29388.35
518.19	29460.03
518.39	29941.30
518.60	30258.74
518.80	29617.72
519.01	30053.94
519.21	30234.16
519.41	30449.20
519.62	30043.70
519.82	30164.53
520.03	30500.40
520.23	30334.51
520.43	30342.70
520.64	30899.75
520.84	31016.49
521.05	30701.10
521.25	30772.78
521.45	30895.66
521.66	30987.82
521.86	31108.65
522.07	31012.39
522.27	30801.45
522.47	31204.90
522.68	31766.04
522.88	31368.74
523.08	31374.88
523.29	31413.79
523.49	31899.16
523.70	31903.26
523.90	31802.91
524.10	31772.19
524.31	31735.32
524.51	31839.77
524.71	32427.54
524.92	32396.82
525.12	32585.23
525.33	32284.18
525.53	32634.38
525.73	32902.67
525.94	32714.25
526.14	33041.93
526.34	32450.06
526.55	33072.65
526.75	32876.04
526.95	33039.88
527.16	32955.91
527.36	32865.80
527.56	33420.80
527.77	33355.27
527.97	33263.11
528.17	33725.95
528.38	33662.46
528.58	33732.09
528.78	33852.92
528.99	33801.72
529.19	34059.77
529.39	33713.66
529.60	34493.94
529.80	34244.09
530.00	34250.23
530.21	34551.28
530.41	34295.28
530.61	34444.79
530.82	34340.34
531.02	34188.79
531.22	34854.38
531.43	34608.62
531.63	34981.35
531.83	35341.80
532.04	35673.57
532.24	35130.86
532.44	35558.88
532.64	35610.08
532.85	35884.51
533.05	35491.30
533.25	35597.79
533.46	35861.98
533.66	36240.86
533.86	35915.23
534.07	36615.63
534.27	36054.49
534.47	36505.04
534.67	36543.95
534.88	36623.83
535.08	36361.69
535.28	36668.88
535.49	36468.18
535.69	37070.28
535.89	37008.84
536.09	37137.87
536.30	37270.98
536.50	37246.41
536.70	37377.48
536.91	37342.66
537.11	37549.51
537.31	37701.06
537.51	37785.02
537.72	38282.68
537.92	38258.10
538.12	38229.43
538.32	38249.91
538.53	38340.02
538.73	38397.37
538.93	38075.84
539.13	38573.49
539.34	38309.30
539.54	38495.67
539.74	38770.10
539.94	38479.28
540.15	38645.17
540.35	39228.84
540.55	39206.31
540.75	38991.28
540.96	39263.66
541.16	39110.06
541.36	39316.90
541.56	39474.60
541.77	39355.82
541.97	40115.61
542.17	39761.31
542.37	39583.14
542.58	39900.58
542.78	39468.45
542.98	39804.32
543.18	40203.67
543.38	40295.83
543.59	40445.33
543.79	39959.97
543.99	40199.58
544.19	40322.46
544.40	40408.47
544.60	40570.26
544.80	40856.98
545.00	40387.99
545.20	40678.80
545.41	40660.37
545.61	40672.66
545.81	40949.14
546.01	41125.26
546.21	41153.93
546.42	41301.39
546.62	41229.71
546.82	40871.31
547.02	41274.76
547.22	41362.82
547.43	41325.96
547.63	41389.45
547.83	41735.56
548.03	41794.95
548.23	41858.43
548.44	41688.45
548.64	41811.33
548.84	41579.91
549.04	41778.56
549.24	42036.61
549.45	42347.90
549.65	42005.89
549.85	42143.10
550.05	42003.84
550.25	42009.98
550.45	42814.83
550.66	42194.30
550.86	42395.00
551.06	42665.33
551.26	42409.34
551.46	43033.97
551.66	42542.45
551.87	43158.89
552.07	42747.25
552.27	42575.22
552.47	43162.99
552.67	43040.11
552.87	42988.91
553.07	43007.34
553.28	43136.37
553.48	43195.76
553.68	43447.66
553.88	43679.08
554.08	43564.39
554.28	43244.91
554.48	43285.87
554.69	43562.34
554.89	43150.70
555.09	43816.29
555.29	43400.55
555.49	43976.03
555.69	43662.69
555.89	43849.06
556.10	44023.14
556.30	43642.21
556.50	44016.99
556.70	43580.78
556.90	44000.61
557.10	44420.44
557.30	43865.44
557.50	43945.31
557.70	44219.74
557.91	44096.86
558.11	43722.08
558.31	44072.29
558.51	44148.06
558.71	44479.83
558.91	44576.09
559.11	44086.62
559.31	44352.86
559.51	44002.66
559.72	44326.24
559.92	44760.40
560.12	44774.74
560.32	44787.03
560.52	44590.42
560.72	45090.13
560.92	44602.71
561.12	45055.31
561.32	45423.95
561.52	44676.44
561.72	45274.45
561.93	44549.46
562.13	45217.10
562.33	44744.02
562.53	45462.86
562.73	44823.89
562.93	45344.08
563.13	45176.14
563.33	45135.18
563.53	45446.47
563.73	45096.27
563.93	45217.10
564.13	45448.52
564.33	45581.64
564.53	45299.02
564.74	45831.49
564.94	45446.47
565.14	45667.66
565.34	45360.46
565.54	45540.68
565.74	45536.59
565.94	46302.53
566.14	45802.82
566.34	45727.05
566.54	46177.60
566.74	45587.78
566.94	45933.89
567.14	46107.97
567.34	45974.85
567.54	46241.09
567.74	46136.64
567.94	46013.76
568.14	46241.09
568.34	46562.62
568.54	46277.95
568.74	46130.50
568.94	46384.44
569.14	46218.56
569.34	46480.70
569.54	46683.45
569.75	46091.58
569.95	46482.75
570.15	46988.60
570.35	46826.81
570.55	46521.66
570.75	47013.17
570.95	46452.03
571.15	46794.04
571.35	46413.12
571.55	47131.95
571.75	47027.51
571.95	46714.17
572.15	46892.34
572.35	47303.98
572.55	47154.48
572.75	47449.39
572.95	47459.63
573.15	47357.23
573.35	46964.02
573.55	47195.44
573.75	47150.38
573.95	47580.46
574.15	47215.92
574.35	48200.99
574.55	47289.65
574.75	47635.75
574.95	47586.60
575.15	47342.89
575.34	47732.01
575.54	47951.14
575.74	48061.73
575.94	48076.07
576.14	47887.65
576.34	48514.33
576.54	48045.35
576.74	47846.69
576.94	47887.65
577.14	48170.27
577.34	48407.84
577.54	47471.92
577.74	48530.72
577.94	48717.08
578.14	48246.05
578.34	48567.58
578.54	47990.05
578.74	48170.27
578.94	48606.49
579.14	48825.62
579.34	48657.69
579.54	48936.21
579.74	49378.57
579.94	48665.88
580.13	48964.88
580.33	49151.25
580.53	48842.01
580.73	48993.56
580.93	49360.14
581.13	49278.22
581.33	49227.02
581.53	49835.27
581.73	49231.12
581.93	49251.60
582.13	49308.94
582.33	49460.49
582.53	49503.50
582.73	49610.00
582.92	49620.23
583.12	49779.98
583.32	49829.13
583.52	49814.79
583.72	49943.81
583.92	50054.40
584.12	50021.64
584.32	50722.04
584.52	50470.14
584.72	50021.64
584.92	50203.91
585.11	50550.01
585.31	50750.71
585.51	50728.19
585.71	50660.60
585.91	51051.76
586.11	50709.75
586.31	50605.31
586.51	50566.40
586.71	50779.39
586.91	50820.34
587.10	50531.58
587.30	51313.90
587.50	51025.14
587.70	51289.33
587.90	51285.23
588.10	51297.52
588.30	51008.76
588.50	51295.47
588.69	51324.14
588.89	51338.48
589.09	51389.68
589.29	51172.60
589.49	51633.39
589.69	51211.51
589.89	51475.69
590.08	51139.83
590.28	51541.23
590.48	51344.62
590.68	51401.97
590.88	51522.80
591.08	51731.69
591.28	51606.76
591.47	52118.76
591.67	52008.17
591.87	51893.48
592.07	52063.46
592.27	52591.84
592.47	51991.78
592.67	52204.77
592.86	51797.23
593.06	52382.94
593.26	52511.97
593.46	52016.36
593.66	51995.88
593.86	52423.90
594.05	52528.35
594.25	52548.83
594.45	52360.42
594.65	52282.59
594.85	51897.58
595.05	52655.32
595.24	53017.82
595.44	52587.74
595.64	52704.48
595.84	52774.11
596.04	52731.10
596.23	53224.66
596.43	52964.57
596.63	52845.79
596.83	53376.21
597.03	52704.48
597.22	53220.56
597.42	53441.74
597.62	53515.47
597.82	53204.18
598.02	53535.95
598.21	53884.11
598.41	53396.69
598.61	53501.14
598.81	53480.66
599.01	53701.84
599.20	53775.56
599.40	53564.62
599.60	53660.88
599.80	54162.63
600.00	54154.44
600.19	54203.59
600.39	54189.25
600.59	54355.14
600.79	54129.86
600.98	54183.11
601.18	53892.30
601.38	54351.04
601.58	54596.80
601.78	54627.52
601.97	54488.26
602.17	54615.23
602.37	54467.78
602.57	54512.83
602.76	55006.39
602.96	54617.28
603.16	55016.63
603.36	54791.36
603.55	55137.46
603.75	54992.06
603.95	55299.25
604.15	55121.08
604.34	55037.11
604.54	54920.38
604.74	55280.82
604.94	55532.72
605.13	55635.12
605.33	55518.38
605.53	54977.72
605.73	55878.83
605.92	55559.34
606.12	55383.22
606.32	55579.82
606.52	55286.96
606.71	55788.72
606.91	56003.75
607.11	55432.37
607.30	55874.73
607.50	56030.38
607.70	56368.29
607.90	56235.17
608.09	55733.42
608.29	55837.87
608.49	56466.59
608.68	55981.23
608.88	56308.90
609.08	56333.48
609.28	56429.73
609.47	55993.51
609.67	56859.80
609.87	56325.28
610.06	56693.92
610.26	56278.18
610.46	56718.49
610.66	56376.48
610.85	56403.11
611.05	56241.32
611.25	56706.21
611.44	56401.06
611.64	56712.35
611.84	56407.20
612.03	56231.08
612.23	56798.37
612.43	56800.41
612.62	56603.81
612.82	56982.68
613.02	56648.86
613.21	57201.82
613.41	56595.62
613.61	56919.20
613.80	56079.53
614.00	56669.34
614.20	57011.35
614.39	56599.71
614.59	56898.72
614.79	56923.29
614.98	56980.63
615.18	56923.29
615.38	56816.80
615.57	56929.44
615.77	57230.49
615.97	57302.17
616.16	57398.42
616.36	57017.50
616.56	57359.51
616.75	56919.20
616.95	56667.30
617.15	56853.66
617.34	57083.03
617.54	56851.61
617.74	57105.56
617.93	57296.02
618.13	56519.84
618.32	56984.73
618.52	56976.54
618.72	56591.52
618.91	57205.91
619.11	56388.77
619.31	56911.00
619.50	56900.76
619.70	56636.58
619.90	56794.27
620.09	57140.38
620.29	56927.39
620.48	56917.15
620.68	56886.43
620.88	56677.54
621.07	56941.72
621.27	56849.56
621.46	56200.36
621.66	57224.34
621.86	56691.87
622.05	56425.64
622.25	57281.69
622.44	56767.65
622.64	56728.73
622.84	57244.82
623.03	56349.86
623.23	56751.26
623.42	56753.31
623.62	56863.90
623.82	57281.69
624.01	56562.85
624.21	57250.97
624.40	57248.92
624.60	56775.84
624.80	56695.97
624.99	57042.07
625.19	56536.23
625.38	56595.62
625.58	57212.06
625.77	56896.67
625.97	56923.29
626.17	56669.34
626.36	56859.80
626.56	57001.11
626.75	56538.27
626.95	56986.78
627.14	56726.69
627.34	57187.48
627.54	56915.10
627.73	56728.73
627.93	57103.51
628.12	56476.83
628.32	56786.08
628.51	56919.20
628.71	56771.74
628.90	57169.05
629.10	56896.67
629.30	56872.09
629.49	57154.71
629.69	56771.74
629.88	57015.45
630.08	57234.58
630.27	57015.45
630.47	57205.91
630.66	57025.69
630.86	57171.10
631.05	56759.45
631.25	57152.66
631.44	56579.23
631.64	56886.43
631.84	57044.12
632.03	57554.07
632.23	57029.79
632.42	57336.98
632.62	57484.43
632.81	57103.51
633.01	57197.72
633.20	56898.72
633.40	57244.82
633.59	57277.59
633.79	56898.72
633.98	57298.07
634.18	57418.90
634.37	57375.89
634.57	57105.56
634.76	57552.02
634.96	57455.76
635.15	57625.74
635.35	56992.92
635.54	56886.43
635.74	57466.00
635.93	57355.41
636.13	57894.03
636.32	57480.34
636.52	57177.24
636.71	57324.69
636.91	57517.20
637.10	57513.11
637.30	57320.60
637.49	57392.28
637.69	57517.20
637.88	57775.25
638.08	57074.84
638.27	57406.61
638.46	57615.50
638.66	57119.90
638.85	57894.03
639.05	57582.74
639.24	57758.86
639.44	57357.46
639.63	57310.36
639.83	57658.51
640.02	57531.54
640.22	57369.75
640.41	58190.98
640.61	57427.09
640.80	57613.46
640.99	57154.71
641.19	58469.51
641.38	57801.87
641.58	57785.49
641.77	57787.53
641.97	57549.97
642.16	57277.59
642.36	57801.87
642.55	57810.06
642.74	57410.71
642.94	58094.73
643.13	57183.38
643.33	58233.99
643.52	58180.74
643.72	58037.39
643.91	57836.69
644.10	58029.19
644.30	58217.61
644.49	57777.29
644.69	57801.87
644.88	58455.17
645.08	57883.79
645.27	58109.07
645.46	57885.84
645.66	58264.71
645.85	58121.35
646.05	58324.10
646.24	58162.31
646.43	58395.78
646.63	58213.51
646.82	58152.07
647.02	58733.70
647.21	58137.74
647.40	58438.79
647.60	58373.25
647.79	58381.45
647.99	58205.32
648.18	58053.77
648.37	58705.02
648.57	58397.83
648.76	58446.98
648.96	58260.62
649.15	58459.27
649.34	58686.59
649.54	58543.23
649.73	58096.78
649.92	58762.37
650.12	58657.92
650.31	58367.11
650.51	58600.58
650.70	58580.10
650.89	58309.77
651.09	59389.05
651.28	59038.84
651.47	58956.92
651.67	59200.63
651.86	59393.14
652.06	57975.95
652.25	58578.05
652.44	58526.85
652.64	58639.49
652.83	58336.39
653.02	59020.41
653.22	58725.50
653.41	58786.94
653.60	58446.98
653.80	58512.52
653.99	58823.81
654.18	58641.54
654.38	58576.00
654.57	58684.54
654.76	58688.64
654.96	58780.80
655.15	58698.88
655.34	58731.65
655.54	58651.78
655.73	58840.19
655.92	58926.20
656.12	58969.21
656.31	58690.69
656.50	58793.09
656.70	58715.26
656.89	58766.46
657.08	58905.73
657.28	58676.35
657.47	58872.96
657.66	59008.12
657.86	58629.25
658.05	58995.84
658.24	59413.62
658.43	59012.22
658.63	58473.60
658.82	58958.97
659.01	59081.85
659.21	59090.04
659.40	59292.79
659.59	58725.50
659.79	58639.49
659.98	58823.81
660.17	59356.28
660.36	59288.70
660.56	59380.85
660.75	59108.47
660.94	59176.06
661.14	59337.85
661.33	59137.15
661.52	58737.79
661.71	59262.07
661.91	59204.73
662.10	58981.50
662.29	58860.67
662.49	59288.70
662.68	59376.76
662.87	59593.84
663.06	59430.01
663.26	59208.82
663.45	59294.84
663.64	59071.61
663.83	59333.75
664.03	59208.82
664.22	59153.53
664.41	59217.02
664.60	59167.87
664.80	59331.70
664.99	58793.09
665.18	58760.32
665.37	59096.19
665.57	58885.25
665.76	58803.33
665.95	59012.22
666.14	59012.22
666.34	59180.15
666.53	59004.03
666.72	59413.62
666.91	58776.70
667.11	58887.29
667.30	58827.90
667.49	59274.36
667.68	58979.45
667.87	58856.57
668.07	59257.98
668.26	59229.30
668.45	58788.99
668.64	58895.49
668.84	59415.67
669.03	59348.09
669.22	59266.17
669.41	59137.15
669.60	59024.51
669.80	58811.52
669.99	59282.55
670.18	59243.64
670.37	58985.60
670.57	59716.72
670.76	58954.88
670.95	59487.35
671.14	59069.56
671.33	58782.85
671.53	59430.01
671.72	58944.64
671.91	58823.81
672.10	58848.38
672.29	59217.02
672.48	58997.88
672.68	59890.80
672.87	58807.42
673.06	58864.77
673.25	58688.64
673.44	58645.63
673.64	58737.79
673.83	58825.85
674.02	58877.05
674.21	58913.92
674.40	59503.73
674.59	58645.63
674.79	58797.18
674.98	58172.55
675.17	58877.05
675.36	58602.63
675.55	58659.97
675.74	58846.33
675.94	58721.41
676.13	58983.55
676.32	58889.34
676.51	59233.40
676.70	58948.73
676.89	58662.02
677.08	58858.62
677.28	58686.59
677.47	58807.42
677.66	58733.70
677.85	58815.61
678.04	59192.44
678.23	58969.21
678.42	58866.81
678.62	58700.93
678.81	58872.96
679.00	58641.54
679.19	59073.66
679.38	58868.86
679.57	58725.50
679.76	58836.09
679.96	59145.34
680.15	58823.81
680.34	58549.38
680.53	58489.99
680.72	58688.64
680.91	59112.57
681.10	58477.70
681.29	58573.95
681.48	58911.87
681.68	58471.56
681.87	58754.18
682.06	58313.86
682.25	58328.20
682.44	58328.20
682.63	59042.94
682.82	58201.22
683.01	58545.28
683.20	58317.96
683.39	58369.16
683.59	57975.95
683.78	58682.50
683.97	58143.88
684.16	58080.39
684.35	58291.33
684.54	58209.42
684.73	58410.12
684.92	58195.08
685.11	58104.97
685.30	58199.18
685.49	58520.71
685.69	57957.52
685.88	57795.73
686.07	58037.39
686.26	57883.79
686.45	58449.03
686.64	58045.58
686.83	57978.00
687.02	58252.42
687.21	58066.06
687.40	57832.59
687.59	58037.39
687.78	58291.33
687.97	58393.73
688.16	58123.40
688.35	57765.01
688.54	57947.28
688.74	58182.79
688.93	57562.26
689.12	57672.85
689.31	58152.07
689.50	57932.94
689.69	57443.48
689.88	57308.31
690.07	57820.30
690.26	57853.07
690.45	58209.42
690.64	57451.67
690.83	57728.14
691.02	57123.99
691.21	57375.89
691.40	57613.46
691.59	57863.31
691.78	57423.00
691.97	57326.74
692.16	56988.83
692.35	57828.49
692.54	57840.78
692.73	57361.56
692.92	57599.12
693.11	57207.96
693.30	57283.73
693.49	57375.89
693.68	57222.29
693.87	57498.77
694.06	57435.28
694.25	57347.22
694.44	56976.54
694.63	57353.36
694.82	57398.42
695.01	57158.81
695.20	56870.04
695.39	56566.94
695.58	56972.44
695.77	56714.40
695.96	57275.54
696.15	57212.06
696.34	57060.51
696.53	57072.79
696.72	57201.82
696.91	56804.51
697.10	56827.04
697.29	56562.85
697.48	56915.10
697.67	56493.22
697.86	56394.92
698.05	56560.80
698.24	56857.76
698.43	56292.52
698.62	56636.58
698.81	56251.56
699.00	56507.55
699.19	55911.59
699.38	56771.74
699.57	55604.40
699.76	56874.14
699.95	56378.53
700.14	56120.49
700.32	56028.33
700.51	56554.66
700.70	56120.49
700.89	56693.92
701.08	56046.76
701.27	55801.00
701.46	56284.33
701.65	55823.53
701.84	55989.42
702.03	56489.12
702.22	55991.47
702.41	56034.47
702.60	56251.56
702.79	56026.28
702.98	55903.40
703.17	55854.25
703.35	55833.77
703.54	55809.20
703.73	56388.77
703.92	55801.00
704.11	55553.20
704.30	55669.93
704.49	55375.03
704.68	55344.31
704.87	55880.88
705.06	55645.36
705.25	55473.33
705.43	55669.93
705.62	55698.61
705.81	55534.77
706.00	55465.14
706.19	55977.13
706.38	55358.64
706.57	55557.30
706.76	55104.70
706.95	55483.57
707.14	55221.43
707.32	54936.76
707.51	55035.06
707.70	55094.46
707.89	55278.77
708.08	54863.03
708.27	55088.31
708.46	55448.75
708.65	55002.30
708.84	55358.64
709.02	55203.00
709.21	55057.59
709.40	55069.88
709.59	54801.60
709.78	54492.35
709.97	54971.58
710.16	54678.72
710.34	54529.22
710.53	54336.71
710.72	54328.52
710.91	54695.10
711.10	54449.35
711.29	54957.24
711.48	54625.47
711.66	54361.28
711.85	54332.61
712.04	54523.07
712.23	54351.04
712.42	54443.20
712.61	54043.85
712.80	54162.63
712.98	54430.91
713.17	54136.01
713.36	54230.21
713.55	54117.57
713.74	54353.09
713.93	53961.93
714.11	54252.74
714.30	53718.22
714.49	53724.36
714.68	53908.68
714.87	54123.72
715.06	54305.99
715.24	53945.54
715.43	53837.00
715.62	53679.31
715.81	54301.89
716.00	53490.90
716.18	53441.74
716.37	53376.21
716.56	53378.26
716.75	53890.25
716.94	53597.39
717.12	53468.37
717.31	53679.31
717.50	53638.35
717.69	53210.32
717.88	53511.38
718.06	53175.51
718.25	53402.83
718.44	53148.88
718.63	53388.50
718.82	52522.21
719.00	52876.51
719.19	53243.09
719.38	52475.10
719.57	52835.55
719.76	52823.26
719.94	52094.18
720.13	52491.49
720.32	52813.02
720.51	52608.22
720.69	52661.47
720.88	52225.25
721.07	52397.28
721.26	52202.72
721.44	52270.31
721.63	52032.74
721.82	51913.96
722.01	51627.24
722.20	52012.26
722.38	52196.58
722.57	51514.61
722.76	51907.82
722.95	51780.84
723.13	51483.89
723.32	51559.66
723.51	51365.10
723.70	51320.05
723.88	51301.62
724.07	50982.13
724.26	51369.20
724.44	51062.00
724.63	51481.84
724.82	51428.59
725.01	51191.03
725.19	51023.09
725.38	51350.77
725.57	51186.93
725.76	51420.40
725.94	50582.78
726.13	50728.19
726.32	50853.11
726.51	50953.46
726.69	50668.79
726.88	50851.06
727.07	51207.41
727.25	50918.65
727.44	50932.98
727.63	50582.78
727.82	51160.31
728.00	51043.57
728.19	50746.62
728.38	50885.88
728.56	50521.34
728.75	50910.46
728.94	50578.68
729.12	50957.56
729.31	50920.70
729.50	50263.30
729.69	50932.98
729.87	50535.68
730.06	50533.63
730.25	50701.56
730.43	50832.63
730.62	50480.38
730.81	50865.40
730.99	50541.82
731.18	50537.72
731.37	50504.96
731.55	50898.17
731.74	50846.97
731.93	50736.38
732.11	50513.15
732.30	50638.08
732.49	50052.36
732.67	50466.05
732.86	50238.72
733.05	50210.05
733.23	50468.09
733.42	50439.42
733.61	50478.33
733.79	50488.57
733.98	50410.75
734.17	50285.82
734.35	50121.99
734.54	50402.56
734.73	50515.20
734.91	49972.49
735.10	49825.03
735.29	50423.04
735.47	49722.63
735.66	50083.08
735.84	50074.88
736.03	49538.32
736.22	50527.48
736.40	49931.53
736.59	50351.36
736.78	50173.19
736.96	50345.22
737.15	49763.59
737.33	49693.96
737.52	50005.25
737.71	49949.96
737.89	50083.08
738.08	49706.25
738.27	49677.58
738.45	49976.58
738.64	50011.40
738.82	49917.19
739.01	49724.68
739.20	49708.30
739.38	49808.65
739.57	49573.13
739.75	49564.94
739.94	49061.14
740.13	49642.76
740.31	49235.22
740.50	49202.45
740.68	49345.81
740.87	49476.88
741.06	49583.37
741.24	48848.15
741.43	48876.82
741.61	49673.48
741.80	49276.18
741.99	49292.56
742.17	48911.64
742.36	49235.22
742.54	48946.45
742.73	49141.01
742.91	49235.22
743.10	48604.44
743.29	49349.90
743.47	49323.28
743.66	49401.10
743.84	49079.57
744.03	49302.80
744.21	48919.83
744.40	49331.47
744.59	48848.15
744.77	48715.03
744.96	48764.18
745.14	49050.90
745.33	48704.79
745.51	48340.25
745.70	48629.02
745.88	48026.92
746.07	48596.25
746.26	47820.07
746.44	48502.04
746.63	48497.95
746.81	48385.31
747.00	47879.46
747.18	48917.78
747.37	48127.27
747.55	48192.80
747.74	48782.62
747.92	47777.06
748.11	48616.73
748.29	48338.21
748.48	48276.77
748.66	47908.13
748.85	48055.59
749.03	48188.70
749.22	48039.20
749.41	47777.06
749.59	48067.87
749.78	48157.99
749.96	47463.72
750.15	48004.39
750.33	48254.24
750.52	47652.14
750.70	47736.10
750.89	47691.05
751.07	47639.85
751.26	47793.45
751.44	47471.92
751.63	47641.90
751.81	47338.80
752.00	47637.80
752.18	47459.63
752.37	47662.38
752.55	47082.80
752.74	47590.70
752.92	47340.85
753.10	47095.09
753.29	47332.65
753.47	47240.50
753.66	46738.74
753.84	47267.12
754.03	46830.90
754.21	47093.04
754.40	47310.13
754.58	46953.78
754.77	46722.36
754.95	46785.85
755.14	46820.66
755.32	46931.25
755.51	46519.61
755.69	46460.22
755.88	46361.92
756.06	46699.83
756.24	46542.14
756.43	46515.51
756.61	46290.24
756.80	46333.24
756.98	46249.28
757.17	46159.17
757.35	46431.55
757.54	46126.40
757.72	46251.33
757.90	46245.18
758.09	46245.18
758.27	46079.30
758.46	46101.82
758.64	45716.81
758.83	46019.91
759.01	46052.67
759.19	45993.28
759.38	45931.84
759.56	45915.46
759.75	45825.35
759.93	45778.25
760.12	45675.85
760.30	46105.92
760.48	45604.17
760.67	45561.16
760.85	45425.99
761.04	45978.95
761.22	45634.89
761.40	45878.60
761.59	45520.20
761.77	45354.32
761.96	45565.26
762.14	45714.76
762.32	45342.03
762.51	45311.31
762.69	45161.81
762.88	45161.81
763.06	45262.16
763.24	45489.48
763.43	45143.38
763.61	44889.43
763.80	45135.18
763.98	44997.97
764.16	44719.45
764.35	44389.72
764.53	44504.41
764.72	44678.49
764.90	44524.89
765.08	44576.09
765.27	44928.34
765.45	44707.16
765.63	44137.82
765.82	44705.11
766.00	44424.54
766.18	44283.23
766.37	44797.27
766.55	44477.79
766.74	44361.05
766.92	44100.96
767.10	44264.80
767.29	44420.44
767.47	43822.44
767.65	43746.66
767.84	43910.50
768.02	43939.17
768.20	43717.99
768.39	43881.83
768.57	43836.77
768.75	43611.49
768.94	43779.43
769.12	43365.74
769.30	43451.75
769.49	43865.44
769.67	43498.86
769.85	43314.54
770.04	43330.92
770.22	43109.74
770.40	43050.35
770.59	43115.89
770.77	43591.01
770.95	43365.74
771.14	43015.54
771.32	43122.03
771.50	42726.77
771.69	42777.97
771.87	43021.68
772.05	42976.62
772.24	42458.49
772.42	42632.57
772.60	43103.60
772.78	42681.72
772.97	42456.44
773.15	43132.27
773.33	42820.98
773.52	42306.94
773.70	42192.25
773.88	43038.06
774.07	42296.70
774.25	42497.40
774.43	42866.03
774.61	42562.93
774.80	42708.34
774.98	42743.16
775.16	42587.51
775.34	42737.01
775.53	42583.41
775.71	42706.29
775.89	42513.78
776.08	42511.74
776.26	42663.28
776.44	42325.37
776.62	42435.96
776.81	42728.82
776.99	42761.59
777.17	42730.87
777.35	42681.72
777.54	43038.06
777.72	42761.59
777.90	43165.04
778.08	43195.76
778.27	42767.73
778.45	43023.73
778.63	43195.76
778.81	42726.77
779.00	43521.38
779.18	42823.03
779.36	42939.76
779.54	43365.74
779.73	43105.65
779.91	43277.68
780.09	43128.17
780.27	43287.92
780.46	43335.02
780.64	43472.23
780.82	42812.79
781.00	43361.64
781.19	43496.81
781.37	43629.93
781.55	43566.44
781.73	43644.26
781.91	43169.13
782.10	43316.59
782.28	43382.12
782.46	43593.06
782.64	43654.50
782.82	43328.87
783.01	43703.65
783.19	43693.41
783.37	43459.94
783.55	43130.22
783.74	43627.88
783.92	43175.28
784.10	43945.31
784.28	43603.30
784.46	43394.41
784.64	43505.00
784.83	43470.18
785.01	43593.06
785.19	43396.46
785.37	43541.86
785.55	43292.01
785.74	43240.81
785.92	43263.34
786.10	43539.82
786.28	43404.65
786.46	42988.91
786.64	43216.24
786.83	42868.08
787.01	43140.46
787.19	43277.68
787.37	43316.59
787.55	42820.98
787.74	43087.21
787.92	42906.99
788.10	43021.68
788.28	42997.10
788.46	42644.85
788.64	42560.89
788.82	43015.54
789.01	43005.30
789.19	42960.24
789.37	42395.00
789.55	42665.33
789.73	42007.94
789.91	42274.17
790.09	42290.55
790.28	42218.88
790.46	42425.72
790.64	42120.57
790.82	42284.41
791.00	42102.14
791.18	42003.84
791.36	41868.67
791.55	42222.97
791.73	41450.89
791.91	41348.49
792.09	41878.91
792.27	41641.35
792.45	41612.68
792.63	41637.25
792.81	41133.45
793.00	41164.17
793.18	41497.99
793.36	41391.50
793.54	41094.54
793.72	40906.13
793.90	41016.72
794.08	41287.05
794.26	40752.53
794.44	40531.35
794.62	40183.19
794.81	40299.93
794.99	40455.57
795.17	40465.81
795.35	40293.79
795.53	40338.84
795.71	40508.82
795.89	39861.66
796.07	39962.01
796.25	39316.90
796.43	39519.65
796.61	39638.44
796.80	39605.67
796.98	40258.97
797.16	39095.72
797.34	39536.04
797.52	39022.00
797.70	39499.17
797.88	39552.42
798.06	38968.75
798.24	39005.61
798.42	38794.67
798.60	38954.41
798.78	38991.28
798.96	38796.72
799.14	38299.06
799.32	38751.66
799.51	38665.65
799.69	38641.07
799.87	38532.53
800.05	38344.12
800.23	38090.17
800.41	37746.11
800.59	37918.14
800.77	37885.37
800.95	37365.19
801.13	37758.40
801.31	37508.55
801.49	37676.48
801.67	37551.56
801.85	37385.67
802.03	37035.47
802.21	36943.31
802.39	36808.14
802.57	37168.58
802.75	36992.46
802.93	37144.01
803.11	36556.24
803.29	36738.51
803.47	36449.75
803.65	36662.74
803.83	36470.23
804.01	36462.04
804.19	35999.19
804.37	36160.98
804.55	36007.39
804.73	36052.44
804.91	36185.56
805.09	35982.81
805.27	35988.95
805.45	35866.08
805.63	35904.99
805.81	35726.81
805.99	35755.49
806.17	35812.83
806.35	35558.88
806.53	35442.15
806.71	35704.29
806.89	35331.56
807.07	35429.86
807.25	35053.03
807.43	35010.03
807.61	35182.06
807.79	35198.44
807.97	34663.92
808.15	35018.22
808.33	34788.85
808.51	34829.80
808.69	34919.92
808.87	34608.62
809.05	34577.90
809.23	34162.17
809.41	34027.00
809.59	33994.23
809.77	34352.63
809.95	34010.62
810.13	34053.62
810.31	33992.19
810.49	34016.76
810.67	33965.56
810.84	33678.85
811.02	33682.94
811.20	33783.29
811.38	33781.24
811.56	33052.17
811.74	33240.58
811.92	33267.20
812.10	33515.01
812.28	33308.16
812.46	33119.75
812.64	33142.28
812.82	32816.65
813.00	33273.35
813.18	32773.64
813.36	33037.83
813.53	32738.83
813.71	32824.84
813.89	32656.91
814.07	32759.31
814.25	33101.32
814.43	32550.42
814.61	32425.49
814.79	32411.15
814.97	32126.49
815.15	32445.97
815.33	31864.35
815.50	31794.71
815.68	32028.18
815.86	32296.47
816.04	31907.35
816.22	31942.17
816.40	31956.50
816.58	31872.54
816.76	31737.37
816.94	31536.67
817.11	31776.28
817.29	31700.51
817.47	31462.94
817.65	31696.41
817.83	31370.79
818.01	31217.19
818.19	31221.28
818.37	31430.18
818.54	30979.62
818.72	31219.24
818.90	31301.15
819.08	30737.96
819.26	31280.67
819.44	30989.86
819.62	31094.31
819.80	30823.98
819.97	31270.43
820.15	30774.83
820.33	30989.86
820.51	30613.04
820.69	30654.00
820.87	30869.03
821.05	30697.00
821.22	30504.49
821.40	30529.07
821.58	30236.21
821.76	30264.88
821.94	30455.34
822.12	30055.99
822.29	30354.99
822.47	30015.03
822.65	30326.32
822.83	29804.09
823.01	29935.16
823.19	30080.56
823.36	29892.15
823.54	30185.01
823.72	29867.58
823.90	29863.48
824.08	29605.44
824.25	29441.60
824.43	29439.55
824.61	29544.00
824.79	29767.23
824.97	29693.50
825.15	29607.48
825.32	29212.23
825.50	29439.55
825.68	29320.77
825.86	29230.66
826.04	29343.30
826.21	29081.16
826.39	29124.16
826.57	29068.87
826.75	28808.78
826.93	28687.95
827.10	28855.88
827.28	29152.84
827.46	28948.04
827.64	29038.15
827.81	28898.89
827.99	28954.18
828.17	28843.59
828.35	28657.23
828.53	28759.63
828.70	28763.72
828.88	28857.93
829.06	28755.53
829.24	28716.62
829.41	28225.11
829.59	28567.12
829.77	28130.90
829.95	28388.94
830.12	28255.82
830.30	28223.06
830.48	28452.43
830.66	28325.46
830.84	28302.93
831.01	28204.63
831.19	28149.33
831.37	27659.87
831.55	27958.87
831.72	28128.85
831.90	28208.72
832.08	28071.51
832.25	28223.06
832.43	27749.98
832.61	27969.11
832.79	27883.09
832.96	27903.57
833.14	27799.13
833.32	27682.39
833.50	27881.05
833.67	27672.15
833.85	27598.43
834.03	27143.78
834.20	27659.87
834.38	27463.26
834.56	27455.07
834.74	27635.29
834.91	27266.66
835.09	27000.42
835.27	27330.14
835.44	27158.11
835.62	27070.05
835.80	27219.55
835.98	27444.83
836.15	27031.14
836.33	27262.56
836.51	26887.78
836.68	26723.94
836.86	27061.86
837.04	27096.67
837.21	26957.41
837.39	27029.09
837.57	26990.18
837.75	26920.55
837.92	26578.54
838.10	26547.82
838.28	26355.31
838.45	26504.81
838.63	26330.73
838.81	26435.18
838.98	26320.49
839.16	26306.16
839.34	26400.37
839.51	26431.08
839.69	25982.58
839.87	26136.18
840.04	26158.70
840.22	26240.62
840.40	26175.09
840.57	26193.52
840.75	26056.31
840.93	25663.10
841.10	26400.37
841.28	26093.17
841.46	26037.87
841.63	26205.81
841.81	25730.68
841.98	25831.03
842.16	26060.40
842.34	25788.02
842.51	25562.75
842.69	26019.44
842.87	25730.68
843.04	25837.17
843.22	25382.52
843.40	25712.25
843.57	25712.25
843.75	25937.52
843.92	25558.65
844.10	25460.35
844.28	25323.13
844.45	25325.18
844.63	25695.86
844.81	25370.24
844.98	25474.68
845.16	25360.00
845.33	25304.70
845.51	25259.65
845.69	25138.82
845.86	25013.89
846.04	25183.87
846.21	25011.84
846.39	24923.78
846.57	24753.80
846.74	25089.67
846.92	24643.21
847.09	24813.19
847.27	25167.49
847.45	24985.22
847.62	24880.77
847.80	24993.41
847.97	24667.78
848.15	24665.74
848.32	24462.99
848.50	24637.06
848.68	24374.92
848.85	24643.21
849.03	24395.40
849.20	24612.49
849.38	24614.54
849.56	24454.79
849.73	24407.69
849.91	24520.33
850.08	24440.46
850.26	24272.53
850.43	24387.21
850.61	24299.15
850.78	24145.55
850.96	24125.07
851.14	23846.55
851.31	24489.61
851.49	23942.80
851.66	24098.45
851.84	23955.09
852.01	23961.23
852.19	24163.98
852.36	24041.11
852.54	23611.03
852.71	23803.54
852.89	23852.69
853.07	23719.57
853.24	23692.95
853.42	23881.36
853.59	23774.87
853.77	23682.71
853.94	23709.33
854.12	24043.15
854.29	23090.85
854.47	23598.74
854.64	23531.16
854.82	23664.28
854.99	23527.06
855.17	23146.14
855.34	23608.98
855.52	23203.49
855.69	23594.65
855.87	23580.31
856.04	23187.10
856.22	23199.39
856.39	23154.33
856.57	23449.24
856.74	23109.28
856.92	23168.67
857.09	23283.36
857.27	23211.68
857.44	23193.25
857.62	23309.98
857.79	23201.44
857.97	23119.52
858.14	23041.70
858.32	23047.84
858.49	22744.74
858.67	22892.19
858.84	22666.92
859.02	22582.95
859.19	22709.93
859.37	22525.61
859.54	22566.57
859.72	22881.95
859.89	22640.29
860.06	22666.92
860.24	22591.14
860.41	22978.21
860.59	22431.40
860.76	22525.61
860.94	22400.68
861.11	22628.01
861.29	22390.44
861.46	22488.74
861.64	22343.34
861.81	22335.15
861.98	22105.77
862.16	22333.10
862.33	22091.44
862.51	22066.86
862.68	22021.81
862.86	22308.52
863.03	21903.03
863.21	21925.55
863.38	21841.59
863.55	21958.32
863.73	21956.27
863.90	22109.87
864.08	21991.09
864.25	21835.44
864.43	21839.54
864.60	21798.58
864.77	21499.58
864.95	22003.38
865.12	21550.78
865.30	21751.48
865.47	21782.20
865.64	21700.28
865.82	21556.92
865.99	21890.74
866.17	21550.78
866.34	21675.70
866.51	21264.06
866.69	21753.52
866.86	21647.03
867.04	21421.75
867.21	21255.87
867.38	21376.70
867.56	21235.39
867.73	21092.03
867.91	21384.89
868.08	21198.52
868.25	20895.43
868.43	21300.92
868.60	21059.26
868.78	20991.68
868.95	21132.99
869.12	20989.63
869.30	20901.57
869.47	20995.78
869.64	20661.96
869.82	21024.45
869.99	20737.73
870.16	20854.47
870.34	20846.27
870.51	20901.57
870.69	20401.86
870.86	20545.22
871.03	20692.68
871.21	20360.91
871.38	20577.99
871.55	20186.83
871.73	20281.03
871.90	20451.02
872.07	20537.03
872.25	20414.15
872.42	20076.24
872.59	20174.54
872.77	20082.38
872.94	20141.77
873.11	19943.12
873.29	20068.05
873.46	20027.09
873.63	20020.94
873.81	20098.77
873.98	19771.09
874.15	19748.56
874.33	19801.81
874.50	19609.30
874.67	19566.29
874.85	19680.98
875.02	19529.43
875.19	19447.51
875.37	19453.66
875.54	19588.82
875.71	19406.55
875.88	19459.80
876.06	19408.60
876.23	19240.67
876.40	19437.27
876.58	19078.88
876.75	19287.77
876.92	19255.00
877.10	19234.52
877.27	18863.84
877.44	18988.77
877.61	19113.69
877.79	18972.38
877.96	18822.88
878.13	18759.39
878.31	18679.52
878.48	18769.63
878.65	18777.83
878.82	18812.64
879.00	18753.25
879.17	18564.84
879.34	18726.63
879.51	18452.20
879.69	18618.08
879.86	18589.41
880.03	18478.82
880.21	18183.91
880.38	18239.21
880.55	18665.19
880.72	18114.28
880.90	18218.73
881.07	18374.38
881.24	18372.33
881.41	18243.31
881.59	18351.85
881.76	18132.72
881.93	18200.30
882.10	18241.26
882.28	17895.15
882.45	18097.90
882.62	18267.88
882.79	18081.52
882.96	17721.07
883.14	18015.98
883.31	18177.77
883.48	18099.95
883.65	17975.02
883.83	17870.58
884.00	17805.04
884.17	17905.39
884.34	17940.21
884.51	17784.56
884.69	17747.70
884.86	17610.48
885.03	17577.72
885.20	17403.64
885.38	17778.42
885.55	17702.64
885.72	17788.66
885.89	17835.76
886.06	17370.87
886.24	17561.33
886.41	17334.01
886.58	17577.72
886.75	17405.69
886.92	17409.78
887.10	17422.07
887.27	17374.97
887.44	17336.06
887.61	17561.33
887.78	17407.73
887.95	17503.99
888.13	17151.74
888.30	17055.48
888.47	17305.34
888.64	17364.73
888.81	16914.17
888.99	16854.78
889.16	17020.67
889.33	16883.45
889.50	16932.61
889.67	16850.69
889.84	16809.73
890.01	16973.56
890.19	16713.47
890.36	16981.76
890.53	16903.93
890.70	16574.21
890.87	16752.38
891.04	16623.36
891.22	16682.75
891.39	16801.54
891.56	16484.10
891.73	16695.04
891.90	16639.75
892.07	16549.64
892.24	16457.48
892.42	16652.03
892.59	16396.04
892.76	16668.42
892.93	16490.24
893.10	16592.64
893.27	16402.18
893.44	16152.33
893.61	16342.79
893.79	16350.98
893.96	16189.19
894.13	16424.71
894.30	16281.35
894.47	16295.69
894.64	16684.80
894.81	16375.56
894.98	16115.47
895.15	16527.11
895.33	16041.74
895.50	16002.83
895.67	16115.47
895.84	16346.89
896.01	16103.18
896.18	16232.20
896.35	16363.27
896.52	16234.25
896.69	16101.13
896.86	16398.09
897.04	16359.17
897.21	15965.96
897.38	15904.53
897.55	16043.79
897.72	16174.86
897.89	16224.01
898.06	16166.67
898.23	15974.16
898.40	16281.35
898.57	16189.19
898.74	16267.02
898.91	16213.77
899.08	16279.30
899.26	16129.80
899.43	16201.48
899.60	15929.10
899.77	15841.04
899.94	16062.22
900.11	15931.15
900.28	15795.98
900.45	16119.56
900.62	15834.89
900.79	16273.16
900.96	15798.03
901.13	16113.42
901.30	15632.15
901.47	15861.52
901.64	15898.38
901.81	15941.39
901.98	15855.37
902.15	15955.72
902.32	15968.01
902.49	15974.16
902.66	16027.40
902.83	15869.71
903.01	15841.04
903.18	15689.49
903.35	15890.19
903.52	15953.68
903.69	15933.20
903.86	16027.40
904.03	15980.30
904.20	16015.12
904.37	15820.56
904.54	15908.62
904.71	16027.40
904.88	15798.03
905.05	15818.51
905.22	15884.05
905.39	15795.98
905.56	15882.00
905.73	15871.76
905.90	15804.17
906.07	15922.96
906.24	15775.50
906.41	15789.84
906.58	15980.30
906.75	15863.57
906.92	15720.21
907.09	15867.66
907.26	15773.46
907.43	15959.82
907.60	15771.41
907.77	15955.72
907.93	15709.97
908.10	15585.04
908.27	15968.01
908.44	15425.30
908.61	15642.39
908.78	15863.57
908.95	15740.69
909.12	15771.41
909.29	15699.73
909.46	15806.22
909.63	15675.15
909.80	15589.14
909.97	15609.62
910.14	15578.90
910.31	15318.81
910.48	15677.20
910.65	15615.76
910.82	15523.60
910.99	15492.88
911.16	15576.85
911.33	15562.51
911.50	15755.02
911.66	15345.43
911.83	15558.42
912.00	15619.86
912.17	15232.79
912.34	15249.18
912.51	15075.10
912.68	15183.64
912.85	15370.01
913.02	15245.08
913.19	15116.06
913.36	15247.13
913.53	15435.54
913.70	15111.96
913.86	15302.42
914.03	14898.97
914.20	15208.22
914.37	15019.80
914.54	15093.53
914.71	15140.63
914.88	15058.71
915.05	14894.88
915.22	14999.32
915.39	14815.01
915.55	15191.83
915.72	14610.21
915.89	14653.22
916.06	14624.54
916.23	14749.47
916.40	14559.01
916.57	14505.76
916.74	14657.31
916.91	14573.35
917.07	14511.91
917.24	14460.71
917.41	14647.07
917.58	14708.51
917.75	14309.16
917.92	14139.18
918.09	14325.54
918.26	14450.47
918.42	14167.85
918.59	14352.16
918.76	14368.55
918.93	14171.94
919.10	13958.96
919.27	13842.22
919.44	14176.04
919.60	14010.15
919.77	13926.19
919.94	13776.69
920.11	13805.36
920.28	13719.34
920.45	13641.52
920.61	13608.75
920.78	13440.82
920.95	13662.00
921.12	13535.03
921.29	13487.92
921.46	13446.96
921.62	13309.75
921.79	13471.54
921.96	13410.10
922.13	13354.80
922.30	13330.23
922.47	13150.01
922.63	13113.14
922.80	13092.66
922.97	13020.99
923.14	13002.55
923.31	13352.76
923.47	12851.00
923.64	13006.65
923.81	12851.00
923.98	12889.92
924.15	12683.07
924.32	12644.16
924.48	12588.86
924.65	12771.13
924.82	12717.89
924.99	12498.75
925.15	12529.47
925.32	12488.51
925.49	12375.88
925.66	12255.04
925.83	12359.49
925.99	11902.79
926.16	12160.84
926.33	12134.21
926.50	11958.09
926.67	12005.19
926.83	11939.66
927.00	12144.45
927.17	12058.44
927.34	11720.53
927.50	11790.16
927.67	11718.48
927.84	11910.99
928.01	11730.76
928.17	11534.16
928.34	11616.08
928.51	11605.84
928.68	11509.58
928.84	11683.66
929.01	11478.86
929.18	11292.50
929.35	11282.26
929.51	11403.09
929.68	11149.14
929.85	10958.68
930.02	11192.15
930.18	11140.95
930.35	10833.75
930.52	10952.54
930.69	10973.02
930.85	10901.34
931.02	10946.39
931.19	10884.95
931.36	10717.02
931.52	10635.10
931.69	10796.89
931.86	10579.81
932.02	10506.08
932.19	10465.12
932.36	10362.72
932.53	10714.97
932.69	10413.92
932.86	10391.39
933.03	10284.90
933.19	10092.39
933.36	10192.74
933.53	10276.71
933.70	10059.62
933.86	9992.04
934.03	9922.41
934.20	9975.66
934.36	10022.76
934.53	9686.89
934.70	9615.21
934.86	9490.29
935.03	9492.34
935.20	9379.70
935.36	9324.40
935.53	9160.56
935.70	9449.33
935.86	9244.53
936.03	9260.91
936.20	9140.08
936.36	9144.18
936.53	9035.64
936.70	8710.01
936.86	9023.35
937.03	8744.83
937.20	8681.34
937.36	8710.01
937.53	8275.84
937.70	8408.96
937.86	8163.20
938.03	8185.73
938.20	8193.92
938.36	7927.69
938.53	8003.46
938.70	7665.55
938.86	7767.95
939.03	7532.43
939.20	7509.90
939.36	7620.49
939.53	7470.99
939.70	7524.24
939.86	7176.08
940.03	7122.84
940.19	7171.99
940.36	7157.65
940.53	6918.04
940.69	6807.45
940.86	6946.71
941.03	6752.15
941.19	6530.97
941.36	6676.38
941.52	6641.56
941.69	6514.59
941.86	6516.64
942.02	6449.05
942.19	6455.20
942.35	6457.25
942.52	6344.61
942.69	6264.74
942.85	6047.65
943.02	6193.06
943.18	6160.29
943.35	6080.42
943.52	5926.82
943.68	5869.48
943.85	5902.25
944.01	5844.90
944.18	5683.11
944.35	5996.45
944.51	5568.43
944.68	5719.98
944.84	5572.52
945.01	5703.59
945.17	5691.31
945.34	5701.54
945.51	5509.04
945.67	5543.85
945.84	5552.04
946.00	5531.56
946.17	5545.90
946.33	5504.94
946.50	5644.20
946.67	5515.18
946.83	5476.27
947.00	5500.84
947.16	5619.63
947.33	5468.08
947.49	5445.55
947.66	5472.17
947.82	5519.28
947.99	5365.68
948.16	5529.52
948.32	5388.21
948.49	5629.87
948.65	5463.98
948.82	5463.98
948.98	5443.50
949.15	5455.79
949.31	5517.23
949.48	5470.12
949.64	5449.64
949.81	5633.96
949.97	5613.48
950.14	5611.43
950.30	5308.34
950.47	5574.57
950.63	5654.44
950.80	5506.99
950.96	5511.08
951.13	5463.98
951.30	5558.19
951.46	5568.43
951.63	5611.43
951.79	5623.72
951.96	5427.12
952.12	5722.02
952.29	5535.66
952.45	5449.64
952.62	5568.43
952.78	5560.24
952.94	5443.50
953.11	5779.37
953.27	5502.89
953.44	5627.82
953.60	5435.31
953.77	5623.72
953.93	5476.27
954.10	5642.15
954.26	5500.84
954.43	5615.53
954.59	5861.29
954.76	5719.98
954.92	5595.05
955.09	5613.48
955.25	5601.19
955.42	5498.80
955.58	5779.37
955.75	5615.53
955.91	5627.82
956.07	5732.26
956.24	5732.26
956.40	5722.02
956.57	5754.79
956.73	5601.19
956.90	5783.46
957.06	5691.31
957.23	5781.42
957.39	5593.00
957.56	5699.50
957.72	5633.96
957.88	5582.76
958.05	5685.16
958.21	5769.13
958.38	5744.55
958.54	5658.54
958.71	5838.76
958.87	5588.91
959.03	5672.87
959.20	5783.46
959.36	5572.52
959.53	5609.39
959.69	5765.03
959.85	5836.71
960.02	5738.41
960.18	5642.15
960.35	5656.49
960.51	5627.82
960.68	5447.60
960.84	5574.57
961.00	5615.53
961.17	5734.31
961.33	5629.87
961.50	5683.11
961.66	5666.73
961.82	5570.48
961.99	5814.18
962.15	5676.97
962.31	5486.51
962.48	5730.22
962.64	5838.76
962.81	5652.39
962.97	5498.80
963.13	5640.11
963.30	5599.15
963.46	5576.62
963.62	5578.67
963.79	5535.66
963.95	5515.18
964.12	5425.07
964.28	5670.83
964.44	5486.51
964.61	5629.87
964.77	5599.15
964.93	5550.00
965.10	5554.09
965.26	5468.08
965.42	5451.69
965.59	5435.31
965.75	5506.99
965.92	5535.66
966.08	5496.75
966.24	5568.43
966.41	5377.97
966.57	5529.52
966.73	5570.48
966.90	5468.08
967.06	5423.02
967.22	5547.95
967.39	5382.06
967.55	5406.64
967.71	5238.70
967.88	5459.88
968.04	5394.35
968.20	5404.59
968.37	5328.81
968.53	5361.58
968.69	5345.20
968.85	5384.11
969.02	5431.21
969.18	5394.35
969.34	5267.38
969.51	5279.66
969.67	5400.49
969.83	5218.22
970.00	5445.55
970.16	5353.39
970.32	5298.10
970.48	5396.40
970.65	5218.22
970.81	5121.97
970.97	5304.24
971.14	5115.83
971.30	5308.34
971.46	5248.94
971.63	5214.13
971.79	5236.66
971.95	5060.53
972.11	5087.15
972.28	5212.08
972.44	5187.50
972.60	4919.22
972.76	5173.17
972.93	4986.80
973.09	5099.44
973.25	5126.07
973.42	5105.59
973.58	5052.34
973.74	5259.18
973.90	5109.68
974.07	5099.44
974.23	5042.10
974.39	5115.83
974.55	5119.92
974.72	4988.85
974.88	4818.87
975.04	5050.29
975.20	4876.21
975.37	5085.11
975.53	5056.43
975.69	4954.04
975.85	4966.32
976.01	4974.52
976.18	4911.03
976.34	4833.21
976.50	5038.00
976.66	4970.42
976.83	4786.10
976.99	4872.12
977.15	4806.58
977.31	4876.21
977.47	4814.77
977.64	4829.11
977.80	4710.33
977.96	4872.12
978.12	4757.43
978.29	4714.42
978.45	4636.60
978.61	4642.75
978.77	4804.53
978.93	4730.81
979.10	4652.98
979.26	4808.63
979.42	4618.17
979.58	4526.01
979.74	4671.42
979.91	4591.55
980.07	4546.49
980.23	4587.45
980.39	4566.97
980.55	4595.64
980.71	4573.11
980.88	4605.88
981.04	4517.82
981.20	4526.01
981.36	4569.02
981.52	4499.39
981.68	4440.00
981.85	4638.65
982.01	4532.15
982.17	4425.66
982.33	4476.86
982.49	4526.01
982.65	4405.18
982.82	4470.72
982.98	4405.18
983.14	4487.10
983.30	4444.09
983.46	4517.82
983.62	4454.33
983.79	4364.22
983.95	4433.85
984.11	4253.63
984.27	4325.31
984.43	4263.87
984.59	4282.30
984.75	4335.55
984.91	4351.93
985.08	4347.84
985.24	4366.27
985.40	4253.63
985.56	4161.47
985.72	4235.20
985.88	4208.58
986.04	4251.58
986.20	4120.51
986.37	4261.82
986.53	4093.89
986.69	4245.44
986.85	4292.54
987.01	4218.82
987.17	4229.06
987.33	4186.05
987.49	4026.31
987.65	4145.09
987.82	4042.69
987.98	4042.69
988.14	4112.32
988.30	4052.93
988.46	4067.27
988.62	3964.87
988.78	4054.98
988.94	3999.68
989.10	3973.06
989.26	3872.71
989.42	3960.77
989.59	3960.77
989.75	4032.45
989.91	4003.78
990.07	3737.54
990.23	3993.54
990.39	3880.90
990.55	3944.39
990.71	3868.61
990.87	3975.11
991.03	3921.86
991.19	3725.26
991.35	3878.85
991.51	3964.87
991.67	3885.00
991.83	3936.20
992.00	3805.13
992.16	3837.89
992.32	3878.85
992.48	3854.28
992.64	3737.54
992.80	3889.09
992.96	3825.61
993.12	3659.72
993.28	3848.13
993.44	3813.32
993.60	3880.90
993.76	3719.11
993.92	3749.83
994.08	3706.82
994.24	3772.36
994.40	3755.97
994.56	3817.41
994.72	3659.72
994.88	3649.48
995.04	3743.69
995.20	3653.58
995.36	3594.19
995.52	3717.06
995.68	3608.52
995.84	3504.07
996.00	3692.49
996.16	3549.13
996.32	3502.03
996.48	3426.25
996.64	3721.16
996.80	3565.51
996.96	3526.60
997.12	3395.53
997.28	3422.16
997.44	3477.45
997.60	3465.16
997.76	3452.88
997.92	3416.01
998.08	3426.25
998.24	3252.17
998.40	3485.64
998.56	3481.55
998.72	3426.25
998.88	3428.30
999.04	3393.48
999.20	3514.31
999.36	3352.52
999.52	3461.07
999.68	3346.38
999.84	3444.68
1000.00	3321.81
1000.16	3282.89
1000.32	3260.37
1000.48	3377.10
1000.64	3291.09
1000.80	3233.74
1000.95	3291.09
1001.11	3256.27
1001.27	3278.80
1001.43	3377.10
1001.59	3219.41
1001.75	3248.08
1001.91	3311.57
1002.07	3254.22
1002.23	3227.60
1002.39	3231.69
1002.55	3205.07
1002.71	3215.31
1002.87	3094.48
1003.03	3157.97
1003.19	3170.26
1003.34	3215.31
1003.50	3157.97
1003.66	3176.40
1003.82	3227.60
1003.98	3092.43
1004.14	3168.21
1004.30	3186.64
1004.46	3135.44
1004.62	3098.58
1004.78	3157.97
1004.94	3125.20
1005.09	3051.47
1005.25	3090.38
1005.41	3082.19
1005.57	3028.95
1005.73	3082.19
1005.89	3004.37
1006.05	3014.61
1006.21	3061.71
1006.37	2893.78
1006.52	2932.69
1006.68	3114.96
1006.84	3108.82
1007.00	2824.15
1007.16	3104.72
1007.32	2815.96
1007.48	2998.23
1007.64	2996.18
1007.79	2928.60
1007.95	2867.16
1008.11	3028.95
1008.27	2854.87
1008.43	2877.40
1008.59	2967.51
1008.75	2951.12
1008.91	2947.03
1009.06	2779.09
1009.22	2824.15
1009.38	2840.53
1009.54	2891.73
1009.70	2844.63
1009.86	2838.48
1010.01	2922.45
1010.17	2826.20
1010.33	2818.00
1010.49	2781.14
1010.65	2877.40
1010.81	2754.52
1010.96	2752.47
1011.12	2699.22
1011.28	2770.90
1011.44	2869.20
1011.60	2775.00
1011.76	2775.00
1011.91	2848.72
1012.07	2658.26
1012.23	2670.55
1012.39	2678.74
1012.55	2779.09
1012.71	2654.17
1012.86	2574.30
1013.02	2686.94
1013.18	2652.12
1013.34	2684.89
1013.50	2701.27
1013.65	2660.31
1013.81	2643.93
1013.97	2645.98
1014.13	2639.83
1014.29	2574.30
1014.44	2727.89
1014.60	2609.11
1014.76	2564.06
1014.92	2609.11
1015.07	2637.78
1015.23	2547.67
1015.39	2607.06
1015.55	2516.95
1015.71	2551.77
1015.86	2586.58
1016.02	2535.39
1016.18	2424.80
1016.34	2523.10
1016.49	2537.43
1016.65	2688.98
1016.81	2617.30
1016.97	2445.27
1017.12	2514.91
1017.28	2467.80
1017.44	2428.89
1017.60	2504.67
1017.75	2521.05
1017.91	2531.29
1018.07	2469.85
1018.23	2576.34
1018.38	2516.95
1018.54	2475.99
1018.70	2490.33
1018.86	2461.66
1019.01	2371.55
1019.17	2408.41
1019.33	2574.30
1019.49	2373.60
1019.64	2410.46
1019.80	2424.80
1019.96	2498.52
1020.12	2410.46
1020.27	2502.62
1020.43	2451.42
1020.59	2500.57
1020.74	2420.70
1020.90	2414.56
1021.06	2408.41
1021.22	2371.55
1021.37	2398.17
1021.53	2252.77
1021.69	2277.34
1021.84	2215.90
1022.00	2330.59
1022.16	2265.05
1022.31	2371.55
1022.47	2336.73
1022.63	2312.16
1022.79	2312.16
1022.94	2297.82
1023.10	2416.60
1023.26	2248.67
1023.41	2269.15
1023.57	2330.59
1023.73	2469.85
1023.88	2285.53
1024.04	2232.29
1024.20	2193.37
1024.35	2314.20
1024.51	2326.49
1024.67	2310.11
1024.82	2265.05
1024.98	2197.47
1025.14	2269.15
1025.29	2220.00
1025.45	2265.05
1025.61	2246.62
1025.76	2224.09
1025.92	2217.95
1026.08	2265.05
1026.23	2273.25
1026.39	2273.25
1026.55	2154.46
1026.70	2213.85
1026.86	2168.80
1027.02	2170.85
1027.17	2133.98
1027.33	2193.37
1027.48	2105.31
1027.64	2158.56
1027.80	2148.32
1027.95	2334.68
1028.11	2090.98
1028.27	2125.79
1028.42	2230.24
1028.58	2215.90
1028.73	2211.81
1028.89	2166.75
1029.05	2240.48
1029.20	2080.74
>>>>>End Processed Spectral Data<<<<<
