SpectraSuite Data File
++++++++++++++++++++++++++++++++++++
Date: Fri Jun 02 14:41:55 CEST 2017
User: INFO_000
Dark Spectrum Present: No
Reference Spectrum Present: No
Number of Sampled Component Spectra: 1
Spectrometers: USB4H00879
Integration Time (usec): 80000 (USB4H00879)
Spectra Averaged: 1 (USB4H00879)
Boxcar Smoothing: 0 (USB4H00879)
Correct for Electrical Dark: No (USB4H00879)
Strobe/Lamp Enabled: No (USB4H00879)
Correct for Detector Non-linearity: No (USB4H00879)
Correct for Stray Light: No (USB4H00879)
Number of Pixels in Processed Spectrum: 3648
>>>>>Begin Processed Spectral Data<<<<<
345.13	1234.93
345.34	1234.93
345.56	1234.93
345.78	1316.84
345.99	1359.85
346.21	1705.96
346.42	1703.91
346.64	1679.33
346.86	1755.11
347.07	1644.52
347.29	1662.95
347.50	1486.83
347.72	1683.43
347.94	1738.73
348.15	1535.98
348.37	1607.66
348.59	1730.53
348.80	1628.14
349.02	1728.49
349.23	1886.18
349.45	1763.30
349.67	1898.47
349.88	1837.03
350.10	1886.18
350.31	1837.03
350.53	1732.58
350.75	1984.48
350.96	1841.12
351.18	1910.75
351.39	1877.99
351.61	1804.26
351.82	1892.32
352.04	1931.23
352.26	1830.88
352.47	1900.52
352.69	1896.42
352.90	1757.16
353.12	1855.46
353.34	1820.64
353.55	1937.38
353.77	1875.94
353.98	1822.69
354.20	1843.17
354.41	1863.65
354.63	1929.19
354.85	2056.16
355.06	1902.56
355.28	1773.54
355.49	1923.04
355.71	1828.84
355.92	1898.47
356.14	1961.95
356.35	1834.98
356.57	1843.17
356.79	1908.71
357.00	1841.12
357.22	2009.06
357.43	1783.78
357.65	2021.35
357.86	1886.18
358.08	1904.61
358.29	1880.04
358.51	1959.91
358.72	1933.28
358.94	1888.23
359.16	1892.32
359.37	1980.39
359.59	1918.95
359.80	2000.87
360.02	2025.44
360.23	1918.95
360.45	1970.15
360.66	1892.32
360.88	1920.99
361.09	1988.58
361.31	1935.33
361.52	1972.19
361.74	2084.83
361.95	2078.69
362.17	1955.81
362.38	2078.69
362.60	2084.83
362.81	1955.81
363.03	1984.48
363.24	1966.05
363.46	2060.26
363.67	2068.45
363.89	2072.54
364.10	2050.02
364.32	1968.10
364.53	2154.46
364.75	1904.61
364.96	2131.94
365.18	2060.26
365.39	1998.82
365.61	2031.58
365.82	2127.84
366.04	2033.63
366.25	1988.58
366.47	2025.44
366.68	2015.20
366.90	2002.91
367.11	2117.60
367.33	2017.25
367.54	2047.97
367.76	2011.11
367.97	2043.87
368.19	2031.58
368.40	2052.06
368.62	2002.91
368.83	1978.34
369.05	2082.78
369.26	1970.15
369.48	1974.24
369.69	2084.83
369.91	2027.49
370.12	2041.82
370.33	2119.65
370.55	2017.25
370.76	1990.63
370.98	2113.50
371.19	1994.72
371.41	1996.77
371.62	2125.79
371.84	1980.39
372.05	2236.38
372.27	2052.06
372.48	2117.60
372.69	2047.97
372.91	2101.22
373.12	2201.57
373.34	2191.33
373.55	2148.32
373.77	2162.66
373.98	2072.54
374.20	2185.18
374.41	2201.57
374.62	2084.83
374.84	2115.55
375.05	2203.61
375.27	2293.72
375.48	2187.23
375.70	2295.77
375.91	2168.80
376.12	2379.74
376.34	2158.56
376.55	2289.63
376.77	2242.53
376.98	2125.79
377.19	2209.76
377.41	2154.46
377.62	2277.34
377.84	2283.49
378.05	2359.26
378.27	2166.75
378.48	2318.30
378.69	2342.88
378.91	2346.97
379.12	2293.72
379.34	2275.29
379.55	2222.05
379.76	2267.10
379.98	2281.44
380.19	2250.72
380.41	2250.72
380.62	2392.03
380.83	2256.86
381.05	2248.67
381.26	2371.55
381.47	2260.96
381.69	2351.07
381.90	2494.43
382.12	2387.93
382.33	2297.82
382.54	2312.16
382.76	2365.40
382.97	2377.69
383.19	2283.49
383.40	2369.50
383.61	2363.36
383.83	2301.92
384.04	2330.59
384.25	2385.88
384.47	2435.03
384.68	2394.08
384.89	2369.50
385.11	2281.44
385.32	2371.55
385.54	2377.69
385.75	2344.92
385.96	2459.61
386.18	2361.31
386.39	2430.94
386.60	2428.89
386.82	2432.99
387.03	2422.75
387.24	2437.08
387.46	2541.53
387.67	2508.76
387.88	2590.68
388.10	2578.39
388.31	2527.19
388.52	2633.69
388.74	2449.37
388.95	2568.15
389.16	2523.10
389.38	2531.29
389.59	2553.82
389.80	2795.48
390.02	2555.86
390.23	2617.30
390.44	2650.07
390.66	2568.15
390.87	2500.57
391.08	2598.87
391.30	2777.05
391.51	2615.26
391.72	2674.65
391.94	2783.19
392.15	2654.17
392.36	2709.46
392.58	2715.61
392.79	2627.54
393.00	2754.52
393.22	2803.67
393.43	2824.15
393.64	2846.68
393.85	2772.95
394.07	2772.95
394.28	2838.48
394.49	2754.52
394.71	2881.49
394.92	2832.34
395.13	2613.21
395.35	2797.53
395.56	2781.14
395.77	2811.86
395.98	2951.12
396.20	2916.31
396.41	3012.56
396.62	2959.31
396.84	2990.03
397.05	2848.72
397.26	2990.03
397.47	2936.79
397.69	2897.88
397.90	3125.20
398.11	2904.02
398.32	2936.79
398.54	2912.21
398.75	2979.79
398.96	2953.17
399.18	3127.25
399.39	3096.53
399.60	3022.80
399.81	2967.51
400.03	2942.93
400.24	3276.75
400.45	3037.14
400.66	3098.58
400.88	3143.63
401.09	3278.80
401.30	3119.06
401.51	3155.92
401.73	3147.73
401.94	3147.73
402.15	3190.74
402.36	3256.27
402.58	3182.54
402.79	3280.85
403.00	3282.89
403.21	3207.12
403.43	3188.69
403.64	3299.28
403.85	3172.30
404.06	3217.36
404.27	3248.08
404.49	3229.65
404.70	3192.78
404.91	3403.72
405.12	3282.89
405.34	3297.23
405.55	3467.21
405.76	3209.17
405.97	3411.92
406.19	3368.91
406.40	3272.65
406.61	3487.69
406.82	3375.05
407.03	3348.43
407.25	3248.08
407.46	3477.45
407.67	3409.87
407.88	3534.79
408.09	3405.77
408.31	3403.72
408.52	3420.11
408.73	3428.30
408.94	3477.45
409.15	3461.07
409.37	3499.98
409.58	3583.95
409.79	3571.66
410.00	3645.38
410.21	3602.38
410.43	3545.03
410.64	3461.07
410.85	3639.24
411.06	3635.14
411.27	3702.73
411.48	3667.91
411.70	3727.30
411.91	3678.15
412.12	3762.12
412.33	3735.50
412.54	3598.28
412.76	3809.22
412.97	3811.27
413.18	3565.51
413.39	3794.89
413.60	3704.78
413.81	3948.48
414.03	3688.39
414.24	3667.91
414.45	3858.37
414.66	3762.12
414.87	3858.37
415.08	3798.98
415.30	3794.89
415.51	3846.09
415.72	3919.81
415.93	3758.02
416.14	3841.99
416.35	3928.00
416.56	3786.69
416.78	3960.77
416.99	3897.28
417.20	3829.70
417.41	3936.20
417.62	3987.40
417.83	4016.07
418.04	4026.31
418.26	4079.55
418.47	3960.77
418.68	4097.99
418.89	3911.62
419.10	4237.25
419.31	4016.07
419.52	4034.50
419.73	4153.28
419.95	4161.47
420.16	4100.03
420.37	4059.07
420.58	4231.10
420.79	4073.41
421.00	4237.25
421.21	4229.06
421.42	4151.23
421.63	4300.73
421.85	4286.40
422.06	4267.97
422.27	4378.56
422.48	4286.40
422.69	4325.31
422.90	4417.47
423.11	4417.47
423.32	4417.47
423.53	4566.97
423.75	4472.76
423.96	4509.63
424.17	4503.48
424.38	4515.77
424.59	4505.53
424.80	4734.90
425.01	4513.72
425.22	4616.12
425.43	4530.11
425.64	4704.18
425.85	4734.90
426.06	4788.15
426.28	4808.63
426.49	4571.07
426.70	4689.85
426.91	4693.94
427.12	4755.38
427.33	4749.24
427.54	4798.39
427.75	4800.44
427.96	4949.94
428.17	4861.88
428.38	4958.13
428.59	4919.22
428.80	4890.55
429.01	4851.64
429.23	4978.61
429.44	5167.03
429.65	5138.35
429.86	5212.08
430.07	4935.60
430.28	5038.00
430.49	5093.30
430.70	5363.63
430.91	5271.47
431.12	5126.07
431.33	5371.82
431.54	5361.58
431.75	5312.43
431.96	5296.05
432.17	5294.00
432.38	5308.34
432.59	5584.81
432.80	5472.17
433.01	5480.36
433.22	5480.36
433.43	5466.03
433.64	5357.49
433.85	5375.92
434.06	5531.56
434.27	5408.69
434.49	5597.10
434.70	5664.68
434.91	5660.59
435.12	5752.74
435.33	5580.71
435.54	5705.64
435.75	5584.81
435.96	5664.68
436.17	5545.90
436.38	5783.46
436.59	5885.86
436.80	5578.67
437.01	5869.48
437.22	6025.12
437.43	5760.94
437.64	5607.34
437.85	5867.43
438.06	5955.49
438.27	5705.64
438.48	5894.05
438.69	5990.31
438.90	6039.46
439.11	5842.85
439.32	6143.91
439.53	5959.59
439.74	6037.41
439.95	6070.18
440.16	6043.56
440.37	6076.32
440.57	6006.69
440.78	6299.55
440.99	6164.39
441.20	6168.48
441.41	6029.22
441.62	6305.70
441.83	5969.83
442.04	6141.86
442.25	6154.15
442.46	6213.54
442.67	6457.25
442.88	6664.09
443.09	6252.45
443.30	6414.24
443.51	6416.29
443.72	6682.52
443.93	6492.06
444.14	6608.80
444.35	6406.05
444.56	6659.99
444.77	6721.43
444.98	6514.59
445.19	6557.60
445.40	6565.79
445.61	6664.09
445.81	6807.45
446.02	6746.01
446.23	6592.41
446.44	6586.27
446.65	6791.06
446.86	6688.67
447.07	6932.37
447.28	7012.24
447.49	6737.82
447.70	6879.13
447.91	6868.89
448.12	6879.13
448.33	7135.12
448.54	6907.80
448.74	6891.41
448.95	7108.50
449.16	7008.15
449.37	7114.64
449.58	7124.88
449.79	7331.73
450.00	6905.75
450.21	7094.16
450.42	7372.69
450.63	7069.59
450.84	7356.30
451.05	7380.88
451.25	7258.00
451.46	7128.98
451.67	7448.46
451.88	7481.23
452.09	7452.56
452.30	7417.74
452.51	7290.77
452.72	7600.01
452.93	7813.00
453.13	7417.74
453.34	7387.02
453.55	7425.93
453.76	7573.39
453.97	7827.34
454.18	7593.87
454.39	7729.03
454.60	7980.93
454.81	7835.53
455.01	7942.02
455.22	7663.50
455.43	7976.84
455.64	8087.43
455.85	8105.86
456.06	8314.75
456.27	8073.09
456.48	8023.94
456.68	8220.55
456.89	8144.77
457.10	8243.07
457.31	8183.68
457.52	8238.98
457.73	8355.71
457.94	8519.55
458.14	8327.04
458.35	8777.59
458.56	8400.77
458.77	8621.95
458.98	8429.44
459.19	8517.50
459.39	8628.09
459.60	8787.83
459.81	8613.76
460.02	9017.21
460.23	8933.24
460.44	9056.12
460.65	9006.97
460.85	8986.49
461.06	8920.95
461.27	8738.68
461.48	9318.26
461.69	9170.80
461.89	8976.25
462.10	9203.57
462.31	8978.30
462.52	9230.20
462.73	9287.54
462.94	9467.76
463.14	9412.46
463.35	9451.38
463.56	9860.97
463.77	9672.56
463.98	9592.69
464.18	9627.50
464.39	9756.52
464.60	9928.55
464.81	10000.23
465.02	9623.41
465.23	10086.25
465.43	9961.32
465.64	10219.36
465.85	9996.14
466.06	10098.53
466.27	10493.79
466.47	10293.09
466.68	10237.80
466.89	10411.87
467.10	10639.20
467.30	10313.57
467.51	10596.19
467.72	10817.37
467.93	10510.18
468.14	10700.64
468.34	10899.29
468.55	10997.59
468.76	10850.14
468.97	10878.81
469.17	11143.00
469.38	11128.66
469.59	11331.41
469.80	11087.70
470.01	11300.69
470.21	11456.34
470.42	11448.15
470.63	11589.46
470.84	11583.31
471.04	11730.76
471.25	11857.74
471.46	11700.05
471.67	12179.27
471.87	11931.47
472.08	11878.22
472.29	12142.41
472.50	11890.51
472.70	12136.26
472.91	12052.30
473.12	12386.12
473.33	12433.22
473.53	12484.42
473.74	12425.03
473.95	12705.60
474.16	13006.65
474.36	12695.36
474.57	13088.57
474.78	13188.92
474.99	13117.24
475.19	12894.01
475.40	13207.35
475.61	13387.57
475.81	13455.15
476.02	13788.97
476.23	13479.73
476.44	13645.62
476.64	13948.72
476.85	13989.67
477.06	13956.91
477.27	14462.76
477.47	14321.45
477.68	14333.73
477.89	14475.04
478.09	14669.60
478.30	14538.53
478.51	14522.15
478.71	14599.97
478.92	14907.16
479.13	14960.41
479.34	15263.51
479.54	15019.80
479.75	15134.49
479.96	15351.57
480.16	15335.19
480.37	15509.27
480.58	15611.67
480.78	15781.65
480.99	15658.77
481.20	15914.77
481.41	16158.47
481.61	16140.04
481.82	16258.82
482.03	16137.99
482.23	16330.50
482.44	16615.17
482.65	16682.75
482.85	16813.82
483.06	16430.85
483.27	16807.68
483.47	16832.26
483.68	17035.00
483.89	17268.47
484.09	17241.85
484.30	17434.36
484.51	17442.55
484.71	17919.73
484.92	17610.48
485.13	17968.88
485.33	17770.22
485.54	17590.00
485.75	18161.39
485.95	18345.70
486.16	18128.62
486.37	18386.66
486.57	18188.01
486.78	18474.73
486.98	18472.68
487.19	18570.98
487.40	18583.27
487.60	18636.52
487.81	19048.16
488.02	18939.62
488.22	18912.99
488.43	19183.32
488.64	19185.37
488.84	19361.50
489.05	19457.75
489.25	19533.53
489.46	19551.96
489.67	19625.68
489.87	20043.47
490.08	20012.75
490.29	20043.47
490.49	20471.50
490.70	20258.51
490.90	20522.69
491.11	20332.23
491.32	20547.27
491.52	20563.65
491.73	20563.65
491.94	20756.16
492.14	20455.11
492.35	20936.38
492.55	21063.36
492.76	21157.57
492.97	21057.21
493.17	20963.01
493.38	21495.48
493.58	21515.96
493.79	21434.04
494.00	21745.33
494.20	21771.96
494.41	21943.99
494.61	21896.88
494.82	21993.14
495.02	22130.35
495.23	22187.69
495.44	22335.15
495.64	22187.69
495.85	22402.73
496.05	22642.34
496.26	22644.39
496.47	22703.78
496.67	22730.41
496.88	22623.91
497.08	22570.66
497.29	23264.92
497.49	22957.73
497.70	23322.27
497.91	23717.53
498.11	23580.31
498.32	23754.39
498.52	23373.47
498.73	23963.28
498.93	23869.08
499.14	23623.32
499.34	24073.87
499.55	24039.06
499.76	24172.18
499.96	24260.24
500.17	24225.42
500.37	24223.37
500.58	24372.88
500.78	24254.09
500.99	24428.17
501.19	24675.98
501.40	24669.83
501.60	24850.05
501.81	24739.46
502.02	24827.53
502.22	24735.37
502.43	24757.89
502.63	25089.67
502.84	24944.26
503.04	25140.86
503.25	25534.07
503.45	25181.82
503.66	25400.96
503.86	25276.03
504.07	25917.04
504.27	25194.11
504.48	25790.07
504.68	25441.92
504.89	26199.66
505.09	25839.22
505.30	25988.72
505.50	26144.37
505.71	26146.42
505.91	26056.31
506.12	26312.30
506.32	26230.38
506.53	26506.86
506.73	26388.08
506.94	26429.04
507.14	26433.13
507.35	26658.41
507.55	26762.86
507.76	26885.73
507.96	26709.61
508.17	26932.84
508.37	26754.66
508.58	26906.21
508.78	27119.20
508.99	27209.31
509.19	27133.54
509.40	27280.99
509.60	27250.27
509.81	27479.64
510.01	27551.32
510.22	27477.60
510.42	27354.72
510.63	27780.70
510.83	27729.50
511.04	27465.31
511.24	27792.98
511.44	27879.00
511.65	27907.67
511.85	27852.38
512.06	27981.40
512.26	27780.70
512.47	28304.98
512.67	28251.73
512.88	28069.46
513.08	27942.49
513.29	28280.40
513.49	28190.29
513.69	28397.13
513.90	28302.93
514.10	28444.24
514.31	28505.68
514.51	28450.38
514.72	28603.98
514.92	28335.70
515.13	28839.50
515.33	28681.80
515.53	28511.82
515.74	28937.80
515.94	28851.78
516.15	29042.24
516.35	28866.12
516.56	29378.11
516.76	29019.72
516.96	29281.86
517.17	29062.72
517.37	29105.73
517.58	29675.07
517.78	29314.62
517.99	29898.30
518.19	29617.72
518.39	29826.62
518.60	29879.86
518.80	30139.96
519.01	30156.34
519.21	29994.55
519.41	29965.88
519.62	30072.37
519.82	30582.32
520.03	30316.08
520.23	30621.23
520.43	30205.49
520.64	30826.03
520.84	30844.46
521.05	30588.46
521.25	30768.68
521.45	31106.60
521.66	30916.14
521.86	30848.55
522.07	30764.59
522.27	31215.14
522.47	30897.70
522.68	31161.89
522.88	31184.42
523.08	31702.56
523.29	31327.78
523.49	31393.31
523.70	31508.00
523.90	31880.73
524.10	31802.91
524.31	32079.38
524.51	31706.65
524.71	32538.13
524.92	32030.23
525.12	32114.20
525.33	32083.48
525.53	32337.43
525.73	32427.54
525.94	32497.17
526.14	32572.94
526.34	32615.95
526.55	32677.39
526.75	32947.72
526.95	32726.54
527.16	32816.65
527.36	32949.77
527.56	33439.23
527.77	33508.86
527.97	33334.79
528.17	33406.47
528.38	33697.28
528.58	33388.03
528.78	33830.40
528.99	33865.21
529.19	34035.19
529.39	33826.30
529.60	34258.42
529.80	33986.04
530.00	34008.57
530.21	34489.84
530.41	34674.16
530.61	34610.67
530.82	34479.60
531.02	34727.41
531.22	34629.10
531.43	35034.60
531.63	35206.63
531.83	35286.50
532.04	35198.44
532.24	35067.37
532.44	35694.05
532.64	35454.44
532.85	35925.47
533.05	35481.06
533.25	35587.55
533.46	35796.45
533.66	35798.49
533.86	35907.04
534.07	36373.97
534.27	35743.20
534.47	37004.75
534.67	36791.76
534.88	36830.67
535.08	36629.97
535.28	36740.56
535.49	36978.12
535.69	37262.79
535.89	37057.99
536.09	37144.01
536.30	37352.90
536.50	37057.99
536.70	37477.83
536.91	37342.66
537.11	37942.72
537.31	37592.51
537.51	37713.34
537.72	38012.35
537.92	37901.76
538.12	38233.53
538.32	37903.81
538.53	38235.58
538.73	38172.09
538.93	38301.11
539.13	38270.39
539.34	38643.12
539.54	38688.18
539.74	38843.82
539.94	38692.27
540.15	38536.63
540.35	39060.91
540.55	39165.35
540.75	39204.27
540.96	39036.33
541.16	38569.40
541.36	39015.85
541.56	39208.36
541.77	39773.60
541.97	39669.15
542.17	39927.20
542.37	39613.86
542.58	40125.85
542.78	39644.58
542.98	39771.55
543.18	39783.84
543.38	40396.18
543.59	40240.54
543.79	39923.10
543.99	40002.97
544.19	40203.67
544.40	40142.24
544.60	40564.12
544.80	40404.38
545.00	40553.88
545.20	40904.08
545.41	40891.79
545.61	40568.21
545.81	41373.06
546.01	40899.98
546.21	41096.59
546.42	40846.74
546.62	41203.08
546.82	41293.19
547.02	41198.99
547.22	41510.28
547.43	41442.70
547.63	41211.28
547.83	41526.66
548.03	41377.16
548.23	41678.21
548.44	41563.53
548.64	41407.88
548.84	41919.87
549.04	41743.75
549.24	42036.61
549.45	42042.75
549.65	41985.41
549.85	41964.93
550.05	41997.70
550.25	42081.66
550.45	42659.19
550.66	42349.95
550.86	42132.86
551.06	42554.74
551.26	42419.58
551.46	42706.29
551.66	42622.33
551.87	42292.60
552.07	42712.44
552.27	42825.07
552.47	42528.12
552.67	43195.76
552.87	43011.44
553.07	43255.15
553.28	43052.40
553.48	43640.17
553.68	43066.73
553.88	43498.86
554.08	43136.37
554.28	43246.96
554.48	43060.59
554.69	43625.83
554.89	43359.59
555.09	43541.86
555.29	43488.62
555.49	43926.88
555.69	43335.02
555.89	43781.48
556.10	43816.29
556.30	43390.31
556.50	43730.28
556.70	43824.48
556.90	44125.53
557.10	44084.58
557.30	43861.35
557.50	44242.27
557.70	43976.03
557.91	44469.59
558.11	44131.68
558.31	44289.37
558.51	44361.05
558.71	44744.02
558.91	44412.25
559.11	44453.21
559.31	44389.72
559.51	44332.38
559.72	44109.15
559.92	44629.34
560.12	44299.61
560.32	44701.01
560.52	44555.61
560.72	44801.36
560.92	44494.17
561.12	44729.69
561.32	45307.21
561.52	44377.43
561.72	45047.12
561.93	45092.18
562.13	44961.11
562.33	44821.84
562.53	45448.52
562.73	44516.70
562.93	45110.61
563.13	44914.00
563.33	45206.86
563.53	45602.12
563.73	45020.50
563.93	44881.24
564.13	45921.60
564.33	45315.40
564.53	45139.28
564.74	45706.57
564.94	45632.84
565.14	45694.28
565.34	45434.19
565.54	45663.56
565.74	45487.43
565.94	46241.09
566.14	45583.69
566.34	45862.21
566.54	46288.19
566.74	45806.92
566.94	46308.67
567.14	46144.83
567.34	45679.94
567.54	46089.54
567.74	46210.37
567.94	45966.66
568.14	46492.99
568.34	46404.92
568.54	46021.95
568.74	46404.92
568.94	46390.59
569.14	46126.40
569.34	46497.08
569.54	46632.25
569.75	46263.61
569.95	46499.13
570.15	47230.26
570.35	46574.91
570.55	46581.05
570.75	46382.40
570.95	46595.38
571.15	46828.85
571.35	47000.88
571.55	47037.75
571.75	46875.96
571.95	47260.97
572.15	47203.63
572.35	47215.92
572.55	47101.23
572.75	46914.87
572.95	47095.09
573.15	47478.06
573.35	47318.32
573.55	47066.42
573.75	47244.59
573.95	47498.54
574.15	47312.17
574.35	47887.65
574.55	47904.04
574.75	47215.92
574.95	47492.40
575.15	47781.16
575.34	48031.01
575.54	47695.14
575.74	48090.40
575.94	48336.16
576.14	48078.11
576.34	48182.56
576.54	47709.48
576.74	47813.93
576.94	48100.64
577.14	48131.36
577.34	48448.80
577.54	47975.72
577.74	48506.14
577.94	48221.47
578.14	48526.62
578.34	48577.82
578.54	48080.16
578.74	48342.30
578.94	48794.90
579.14	48266.53
579.34	48370.97
579.54	48571.67
579.74	49380.62
579.94	49147.15
580.13	49214.74
580.33	48981.27
580.53	48755.99
580.73	49411.34
580.93	49083.67
581.13	49382.67
581.33	49460.49
581.53	49476.88
581.73	48940.31
581.93	49804.55
582.13	49726.73
582.33	49827.08
582.53	49231.12
582.73	49595.66
582.92	49775.88
583.12	49911.05
583.32	49456.40
583.52	49233.17
583.72	50121.99
583.92	49435.92
584.12	50158.85
584.32	50222.34
584.52	49933.57
584.72	50148.61
584.92	49913.09
585.11	50703.61
585.31	50267.39
585.51	50263.30
585.71	50351.36
585.91	51205.36
586.11	50648.32
586.31	51172.60
586.51	50414.85
586.71	50681.08
586.91	51115.25
587.10	50885.88
587.30	51062.00
587.50	50629.88
587.70	50826.49
587.90	51199.22
588.10	50937.08
588.30	51205.36
588.50	51406.06
588.69	51322.10
588.89	51254.51
589.09	51414.26
589.29	51193.07
589.49	51393.78
589.69	51131.64
589.89	51971.30
590.08	51606.76
590.28	51592.43
590.48	51549.42
590.68	51285.23
590.88	51784.94
591.08	51842.28
591.28	51377.39
591.47	51813.61
591.67	52217.06
591.87	51725.55
592.07	51873.00
592.27	52053.22
592.47	51995.88
592.67	51715.31
592.86	51782.89
593.06	51987.69
593.26	52554.97
593.46	52503.77
593.66	52026.60
593.86	52341.99
594.05	51995.88
594.25	52471.01
594.45	52208.87
594.65	52704.48
594.85	52245.73
595.05	52643.04
595.24	52847.83
595.44	53114.07
595.64	52589.79
595.84	52626.65
596.04	52839.64
596.23	53150.93
596.43	53195.99
596.63	52565.21
596.83	52985.05
597.03	53347.54
597.22	53538.00
597.42	53157.08
597.62	53298.39
597.82	53329.11
598.02	53669.07
598.21	53454.03
598.41	53257.43
598.61	53777.61
598.81	53484.75
599.01	53533.90
599.20	53607.63
599.40	53550.29
599.60	54281.41
599.80	53812.43
600.00	53992.65
600.19	53912.78
600.39	54045.90
600.59	53949.64
600.79	54287.56
600.98	54158.53
601.18	54228.16
601.38	54197.44
601.58	54774.97
601.78	54713.53
601.97	54588.61
602.17	54617.28
602.37	54531.26
602.57	54711.49
602.76	54901.95
602.96	54658.24
603.16	54621.37
603.36	54965.43
603.55	54987.96
603.75	54910.14
603.95	55170.23
604.15	55211.19
604.34	55284.92
604.54	55626.93
604.74	55141.56
604.94	55903.40
605.13	55297.20
605.33	55661.74
605.53	54949.05
605.73	55555.25
605.92	55303.35
606.12	55737.52
606.32	55801.00
606.52	55575.73
606.71	55690.41
606.91	55960.75
607.11	55647.41
607.30	55817.39
607.50	55882.92
607.70	56253.61
607.90	55952.55
608.09	56188.07
608.29	56059.05
608.49	56194.21
608.68	56284.33
608.88	56200.36
609.08	56157.35
609.28	56202.41
609.47	55817.39
609.67	56327.33
609.87	55903.40
610.06	56913.05
610.26	56294.56
610.46	56489.12
610.66	56251.56
610.85	56843.42
611.05	56472.74
611.25	56712.35
611.44	56612.00
611.64	56853.66
611.84	56310.95
612.03	56067.24
612.23	56718.49
612.43	56552.61
612.62	56296.61
612.82	56890.52
613.02	56900.76
613.21	56816.80
613.41	56630.43
613.61	57085.08
613.80	56351.91
614.00	56718.49
614.20	57121.94
614.39	57101.46
614.59	57144.47
614.79	56450.21
614.98	56732.83
615.18	56505.51
615.38	56824.99
615.57	56865.95
615.77	57267.35
615.97	56886.43
616.16	57078.94
616.36	57203.86
616.56	57316.50
616.75	57240.73
616.95	56761.50
617.15	57384.08
617.34	56943.77
617.54	57169.05
617.74	57336.98
617.93	57095.32
618.13	57013.40
618.32	56964.25
618.52	56474.79
618.72	56827.04
618.91	57269.40
619.11	56798.37
619.31	57029.79
619.50	56659.10
619.70	57005.21
619.90	57005.21
620.09	56943.77
620.29	56980.63
620.48	57101.46
620.68	57418.90
620.88	56716.45
621.07	56751.26
621.27	56636.58
621.46	56767.65
621.66	57066.65
621.86	56919.20
622.05	56808.61
622.25	57457.81
622.44	56747.17
622.64	57150.62
622.84	57134.23
623.03	56087.72
623.23	57017.50
623.42	56761.50
623.62	57296.02
623.82	57382.04
624.01	56964.25
624.21	57169.05
624.40	57095.32
624.60	57160.86
624.80	56788.13
624.99	56800.41
625.19	56472.74
625.38	56841.37
625.58	56730.78
625.77	56865.95
625.97	56855.71
626.17	56390.82
626.36	57048.22
626.56	56931.48
626.75	56521.89
626.95	57431.19
627.14	56695.97
627.34	57386.13
627.54	56485.03
627.73	56804.51
627.93	57103.51
628.12	56648.86
628.32	56849.56
628.51	56843.42
628.71	57046.17
628.90	57304.21
629.10	56833.18
629.30	56954.01
629.49	56818.84
629.69	56865.95
629.88	56648.86
630.08	57207.96
630.27	57083.03
630.47	57218.20
630.66	57029.79
630.86	56945.82
631.05	56747.17
631.25	57261.21
631.44	57042.07
631.64	56657.06
631.84	57330.84
632.03	57689.23
632.23	57136.28
632.42	57494.67
632.62	56892.57
632.81	56822.94
633.01	57314.45
633.20	57001.11
633.40	57558.16
633.59	57263.25
633.79	56786.08
633.98	57162.90
634.18	57533.59
634.37	57631.89
634.57	57455.76
634.76	57482.39
634.96	57347.22
635.15	57898.12
635.35	57160.86
635.54	57144.47
635.74	57459.86
635.93	57009.31
636.13	57713.81
636.32	57259.16
636.52	57250.97
636.71	57269.40
636.91	57449.62
637.10	57224.34
637.30	57173.14
637.49	57173.14
637.69	57195.67
637.88	58129.54
638.08	57072.79
638.27	57603.22
638.46	57267.35
638.66	57433.24
638.85	57582.74
639.05	57566.35
639.24	57496.72
639.44	57175.19
639.63	57148.57
639.83	57867.40
640.02	57883.79
640.22	57152.66
640.41	57943.18
640.61	57439.38
640.80	57273.49
640.99	57377.94
641.19	58135.69
641.38	57371.80
641.58	57566.35
641.77	57562.26
641.97	57611.41
642.16	57425.04
642.36	57644.18
642.55	57601.17
642.74	57648.27
642.94	58160.26
643.13	57492.63
643.33	57687.18
643.52	57678.99
643.72	58066.06
643.91	58010.76
644.10	57535.63
644.30	58330.25
644.49	57959.56
644.69	58160.26
644.88	58350.73
645.08	57822.35
645.27	57861.26
645.46	57783.44
645.66	58246.28
645.85	57787.53
646.05	58168.46
646.24	58195.08
646.43	57545.87
646.63	58141.83
646.82	58166.41
647.02	58025.10
647.21	58649.73
647.40	57939.08
647.60	58410.12
647.79	58354.82
647.99	58354.82
648.18	57891.98
648.37	58979.45
648.57	58733.70
648.76	58324.10
648.96	58010.76
649.15	58408.07
649.34	58328.20
649.54	58383.49
649.73	58430.60
649.92	58578.05
650.12	58143.88
650.31	58471.56
650.51	58702.98
650.70	58772.61
650.89	58414.21
651.09	59073.66
651.28	58623.11
651.47	58868.86
651.67	58868.86
651.86	58907.77
652.06	58250.38
652.25	58915.96
652.44	58823.81
652.64	58567.81
652.83	58340.49
653.02	58373.25
653.22	58532.99
653.41	58737.79
653.60	58354.82
653.80	58160.26
653.99	58858.62
654.18	58608.77
654.38	58475.65
654.57	59053.18
654.76	58719.36
654.96	58766.46
655.15	58668.16
655.34	59178.10
655.54	58197.13
655.73	58694.78
655.92	58989.69
656.12	58840.19
656.31	58803.33
656.50	58594.43
656.70	58817.66
656.89	58580.10
657.08	58580.10
657.28	58963.07
657.47	58725.50
657.66	58897.53
657.86	58832.00
658.05	59184.25
658.24	59008.12
658.43	58528.90
658.63	58909.82
658.82	59266.17
659.01	59497.59
659.21	58938.49
659.40	58729.60
659.59	58905.73
659.79	59188.34
659.98	59384.95
660.17	59444.34
660.36	58897.53
660.56	58793.09
660.75	59102.33
660.94	59307.13
661.14	58918.01
661.33	59176.06
661.52	58653.82
661.71	59278.46
661.91	58602.63
662.10	58827.90
662.29	59180.15
662.49	59346.04
662.68	59032.70
662.87	58922.11
663.06	59202.68
663.26	58709.12
663.45	59253.88
663.64	58819.71
663.83	59196.54
664.03	59225.21
664.22	59634.80
664.41	59063.42
664.60	58809.47
664.80	59030.65
664.99	59194.49
665.18	59030.65
665.37	58778.75
665.57	59149.43
665.76	59022.46
665.95	59307.13
666.14	59126.91
666.34	58860.67
666.53	58780.80
666.72	59253.88
666.91	59161.72
667.11	58682.50
667.30	58954.88
667.49	58995.84
667.68	59071.61
667.87	58961.02
668.07	59454.58
668.26	58938.49
668.45	59204.73
668.64	58872.96
668.84	59317.37
669.03	59290.74
669.22	59526.26
669.41	59536.50
669.60	58954.88
669.80	59073.66
669.99	59151.48
670.18	58784.90
670.37	59073.66
670.57	59251.83
670.76	58877.05
670.95	59311.22
671.14	59075.71
671.33	58764.42
671.53	59571.32
671.72	59251.83
671.91	58807.42
672.10	59114.62
672.29	58487.94
672.48	58963.07
672.68	59155.58
672.87	58512.52
673.06	58494.08
673.25	58489.99
673.44	58633.35
673.64	58692.74
673.83	58504.32
674.02	59036.80
674.21	58541.19
674.40	59397.24
674.59	58973.31
674.79	58717.31
674.98	58547.33
675.17	58913.92
675.36	58670.21
675.55	59118.71
675.74	58793.09
675.94	58727.55
676.13	58971.26
676.32	58868.86
676.51	59022.46
676.70	58807.42
676.89	58930.30
677.08	59380.85
677.28	58397.83
677.47	58836.09
677.66	59186.30
677.85	58623.11
678.04	59163.77
678.23	59026.56
678.42	58864.77
678.62	58512.52
678.81	59323.51
679.00	58766.46
679.19	59094.14
679.38	58592.39
679.57	58365.06
679.76	58893.44
679.96	59305.08
680.15	58987.64
680.34	58764.42
680.53	58414.21
680.72	58930.30
680.91	58741.89
681.10	58612.87
681.29	58883.20
681.48	58813.57
681.68	58651.78
681.87	58709.12
682.06	58512.52
682.25	58520.71
682.44	58311.81
682.63	58680.45
682.82	58113.16
683.01	58406.02
683.20	58125.45
683.39	58381.45
683.59	57889.93
683.78	58532.99
683.97	57887.88
684.16	58203.27
684.35	57879.69
684.54	58283.14
684.73	58102.92
684.92	57728.14
685.11	58174.60
685.30	57820.30
685.49	58117.26
685.69	57908.36
685.88	58223.75
686.07	57914.51
686.26	58008.71
686.45	58131.59
686.64	57760.91
686.83	58252.42
687.02	58240.14
687.21	58309.77
687.40	58049.67
687.59	57662.61
687.78	57984.14
687.97	58184.84
688.16	57939.08
688.35	58025.10
688.54	57824.40
688.74	58061.96
688.93	57742.48
689.12	57924.75
689.31	57875.60
689.50	57957.52
689.69	57459.86
689.88	57435.28
690.07	57889.93
690.26	57017.50
690.45	57992.33
690.64	57259.16
690.83	57253.01
691.02	57259.16
691.21	57560.21
691.40	57644.18
691.59	57750.67
691.78	57881.74
691.97	57734.29
692.16	57439.38
692.35	57605.26
692.54	57877.64
692.73	57533.59
692.92	57339.03
693.11	57525.39
693.30	57365.65
693.49	57914.51
693.68	57105.56
693.87	57152.66
694.06	57132.18
694.25	57504.91
694.44	57224.34
694.63	57058.46
694.82	57046.17
695.01	57287.83
695.20	56839.32
695.39	57302.17
695.58	57361.56
695.77	56980.63
695.96	56339.62
696.15	56480.93
696.34	56661.15
696.53	56708.25
696.72	57185.43
696.91	56775.84
697.10	56857.76
697.29	56210.60
697.48	56906.91
697.67	56816.80
697.86	56181.93
698.05	56157.35
698.24	56812.70
698.43	56319.14
698.62	56517.79
698.81	55995.56
699.00	56937.63
699.19	56177.83
699.38	56423.59
699.57	56046.76
699.76	56997.02
699.95	56276.13
700.14	56128.68
700.32	56130.73
700.51	56065.19
700.70	56259.75
700.89	56575.14
701.08	56356.00
701.27	55729.33
701.46	56681.63
701.65	55657.65
701.84	56200.36
702.03	56057.00
702.22	55801.00
702.41	55813.29
702.60	56374.44
702.79	55760.05
702.98	55729.33
703.17	55694.51
703.35	55919.79
703.54	55622.83
703.73	56032.42
703.92	55428.27
704.11	55983.27
704.30	55602.35
704.49	55645.36
704.68	55375.03
704.87	55299.25
705.06	55475.38
705.25	55428.27
705.43	55137.46
705.62	55606.45
705.81	55624.88
706.00	55309.49
706.19	54742.20
706.38	55207.09
706.57	55444.66
706.76	55350.45
706.95	55418.03
707.14	55121.08
707.32	55278.77
707.51	54875.32
707.70	55049.40
707.89	54875.32
708.08	54879.42
708.27	54744.25
708.46	55526.58
708.65	54965.43
708.84	55549.10
709.02	55145.65
709.21	54969.53
709.40	54953.15
709.59	54535.36
709.78	54471.87
709.97	54658.24
710.16	54717.63
710.34	54496.45
710.53	54490.30
710.72	54238.40
710.91	54582.46
711.10	54262.98
711.29	54535.36
711.48	54359.23
711.66	54641.85
711.85	54420.67
712.04	54441.15
712.23	54457.54
712.42	54344.90
712.61	54189.25
712.80	54009.03
712.98	54582.46
713.17	53937.35
713.36	54170.82
713.55	54002.89
713.74	54006.98
713.93	54113.48
714.11	54105.29
714.30	53927.11
714.49	53859.53
714.68	54207.68
714.87	54215.88
715.06	54019.27
715.24	53589.20
715.43	54252.74
715.62	53470.42
715.81	53255.38
716.00	54109.38
716.18	53007.58
716.37	53431.50
716.56	53195.99
716.75	53794.00
716.94	53378.26
717.12	53173.46
717.31	53310.67
717.50	53605.58
717.69	53005.53
717.88	53585.10
718.06	53525.71
718.25	53386.45
718.44	52872.41
718.63	53282.00
718.82	52923.61
719.00	53216.47
719.19	52632.80
719.38	52614.37
719.57	52292.83
719.76	52419.81
719.94	52720.86
720.13	52407.52
720.32	52438.24
720.51	52153.57
720.69	52524.25
720.88	52165.86
721.07	52587.74
721.26	52077.80
721.44	52253.92
721.63	51926.25
721.82	51821.80
722.01	52077.80
722.20	51973.35
722.38	51963.11
722.57	51111.16
722.76	51647.72
722.95	51959.02
723.13	51356.91
723.32	51295.47
723.51	51672.30
723.70	51170.55
723.88	51150.07
724.07	51033.33
724.26	51729.64
724.44	50740.47
724.63	51483.89
724.82	51455.21
725.01	50642.17
725.19	50914.55
725.38	50935.03
725.57	50982.13
725.76	50924.79
725.94	50832.63
726.13	50818.30
726.32	50654.46
726.51	50609.40
726.69	51141.88
726.88	51068.15
727.07	50795.77
727.25	51182.84
727.44	50963.70
727.63	51016.95
727.82	50771.19
728.00	50945.27
728.19	50816.25
728.38	50871.54
728.56	50660.60
728.75	51100.92
728.94	50631.93
729.12	50873.59
729.31	50576.64
729.50	49917.19
729.69	50883.83
729.87	50691.32
730.06	50769.15
730.25	50574.59
730.43	51006.71
730.62	50396.42
730.81	50703.61
730.99	50644.22
731.18	50443.52
731.37	50267.39
731.55	50480.38
731.74	50574.59
731.93	50810.10
732.11	50470.14
732.30	50715.90
732.49	50224.39
732.67	50416.89
732.86	50337.02
733.05	50402.56
733.23	50429.18
733.42	50380.03
733.61	50257.15
733.79	50593.02
733.98	50558.20
734.17	50011.40
734.35	50410.75
734.54	50162.95
734.73	50402.56
734.91	50072.84
735.10	49769.74
735.29	50068.74
735.47	49857.80
735.66	49954.05
735.84	50136.32
736.03	49841.42
736.22	50382.08
736.40	49945.86
736.59	50294.02
736.78	49796.36
736.96	50038.02
737.15	50541.82
737.33	49812.74
737.52	49888.52
737.71	49837.32
737.89	49960.20
738.08	49325.33
738.27	49691.91
738.45	49868.04
738.64	49900.81
738.82	49790.22
739.01	49849.61
739.20	49806.60
739.38	49767.69
739.57	49632.52
739.75	49734.92
739.94	48928.02
740.13	49669.39
740.31	49184.02
740.50	49704.20
740.68	49169.68
740.87	49751.30
741.06	49632.52
741.24	49280.27
741.43	49497.36
741.61	49804.55
741.80	48921.88
741.99	49108.24
742.17	49206.55
742.36	49276.18
742.54	48739.61
742.73	48747.80
742.91	48788.76
743.10	48901.40
743.29	49280.27
743.47	48895.25
743.66	49102.10
743.84	48899.35
744.03	49257.74
744.21	48858.39
744.40	48833.81
744.59	48958.74
744.77	48381.21
744.96	48262.43
745.14	48723.22
745.33	48626.97
745.51	48340.25
745.70	48399.65
745.88	48170.27
746.07	48493.85
746.26	48379.17
746.44	48143.65
746.63	48065.83
746.81	48917.78
747.00	48530.72
747.18	48358.69
747.37	48416.03
747.55	48508.19
747.74	48962.84
747.92	47901.99
748.11	48258.34
748.29	47564.07
748.48	48031.01
748.66	47625.51
748.85	47981.86
749.03	47988.00
749.22	48071.97
749.41	48059.68
749.59	48164.13
749.78	47815.97
749.96	47748.39
750.15	47840.55
750.33	47955.24
750.52	47916.32
750.70	47822.12
750.89	47467.82
751.07	47342.89
751.26	47424.81
751.44	47351.09
751.63	47574.31
751.81	47615.27
752.00	47205.68
752.18	47443.24
752.37	47203.63
752.55	47297.84
752.74	47166.77
752.92	47602.99
753.10	46738.74
753.29	47267.12
753.47	46837.05
753.66	46751.03
753.84	47045.94
754.03	47072.56
754.21	46988.60
754.40	47228.21
754.58	47281.45
754.77	47256.88
754.95	46476.60
755.14	46900.53
755.32	46601.53
755.51	46814.52
755.69	46380.35
755.88	46478.65
756.06	46757.17
756.24	46544.19
756.43	46329.15
756.61	46589.24
756.80	46570.81
756.98	46046.53
757.17	46361.92
757.35	46421.31
757.54	46224.70
757.72	46531.90
757.90	45878.60
758.09	46312.77
758.27	46335.29
758.46	46042.43
758.64	45937.99
758.83	46218.56
759.01	46171.46
759.19	46400.83
759.38	45671.75
759.56	46097.73
759.75	46056.77
759.93	46028.10
760.12	45624.65
760.30	45890.88
760.48	45856.07
760.67	45438.28
760.85	45843.78
761.04	46261.57
761.22	45782.34
761.40	45380.94
761.59	45612.36
761.77	45040.98
761.96	45425.99
762.14	45376.84
762.32	45438.28
762.51	45133.14
762.69	45192.53
762.88	45000.02
763.06	45016.40
763.24	45167.95
763.43	45417.80
763.61	44815.70
763.80	45153.62
763.98	44926.29
764.16	45071.70
764.35	44543.32
764.53	44547.42
764.72	44623.19
764.90	44975.44
765.08	44518.74
765.27	44701.01
765.45	44105.06
765.63	43980.13
765.82	44707.16
766.00	44361.05
766.18	44076.38
766.37	44832.08
766.55	44299.61
766.74	44074.34
766.92	44035.42
767.10	44168.54
767.29	44027.23
767.47	43582.82
767.65	43754.85
767.84	43844.96
768.02	43885.92
768.20	43842.92
768.39	44096.86
768.57	43810.15
768.75	43580.78
768.94	44029.28
769.12	43453.80
769.30	43394.41
769.49	43838.82
769.67	43758.95
769.85	43277.68
770.04	43509.10
770.22	43066.73
770.40	42874.23
770.59	43050.35
770.77	43160.94
770.95	42980.72
771.14	42575.22
771.32	42945.90
771.50	42601.85
771.69	43023.73
771.87	43533.67
772.05	43158.89
772.24	42595.70
772.42	42560.89
772.60	42870.13
772.78	42423.67
772.97	42481.02
773.15	42995.06
773.33	43122.03
773.52	42528.12
773.70	42401.14
773.88	43111.79
774.07	42298.75
774.25	42552.69
774.43	42614.13
774.61	42630.52
774.80	42556.79
774.98	42861.94
775.16	42724.72
775.34	42646.90
775.53	42231.16
775.71	42964.34
775.89	42268.03
776.08	42874.23
776.26	42411.38
776.44	42796.40
776.62	42458.49
776.81	42351.99
776.99	42585.46
777.17	42700.15
777.35	42784.12
777.54	42657.14
777.72	42247.55
777.90	42829.17
778.08	42831.22
778.27	42538.36
778.45	43103.60
778.63	42804.59
778.81	42347.90
779.00	43476.33
779.18	43292.01
779.36	43578.73
779.54	43052.40
779.73	42798.45
779.91	43535.72
780.09	43091.31
780.27	42675.57
780.46	42909.04
780.64	43451.75
780.82	43111.79
781.00	42937.71
781.19	43206.00
781.37	43500.90
781.55	43179.37
781.73	43660.65
781.91	43027.82
782.10	43464.04
782.28	43611.49
782.46	43359.59
782.64	43267.44
782.82	43556.20
783.01	43677.03
783.19	43294.06
783.37	43453.80
783.55	43242.86
783.74	44207.45
783.92	43341.16
784.10	43597.16
784.28	43758.95
784.46	43531.62
784.64	42730.87
784.83	43259.24
785.01	43695.46
785.19	43130.22
785.37	43838.82
785.55	43416.94
785.74	42929.52
785.92	43175.28
786.10	43724.13
786.28	43134.32
786.46	43218.28
786.64	42829.17
786.83	43156.85
787.01	43349.35
787.19	43152.75
787.37	43242.86
787.55	42917.23
787.74	42712.44
787.92	42950.00
788.10	42851.70
788.28	42911.09
788.46	42571.13
788.64	42425.72
788.82	43001.20
789.01	42716.53
789.19	42913.14
789.37	42524.02
789.55	42288.51
789.73	42534.26
789.91	42370.43
790.09	42284.41
790.28	42122.62
790.46	42050.94
790.64	42311.03
790.82	41930.11
791.00	41581.96
791.18	41727.36
791.36	42091.90
791.55	42028.41
791.73	41776.51
791.91	41250.19
792.09	41645.44
792.27	41862.53
792.45	41432.46
792.63	41231.75
792.81	41547.14
793.00	41307.53
793.18	40924.56
793.36	41330.06
793.54	40973.71
793.72	40584.60
793.90	40844.69
794.08	40834.45
794.26	40973.71
794.44	40236.44
794.62	40256.92
794.81	40574.36
794.99	40609.17
795.17	40138.14
795.35	40025.50
795.53	40527.25
795.71	40072.60
795.89	39775.65
796.07	39441.83
796.25	40041.88
796.43	39378.34
796.61	39490.98
796.80	39556.52
796.98	39779.74
797.16	39347.62
797.34	39398.82
797.52	39429.54
797.70	39040.43
797.88	39372.20
798.06	38653.36
798.24	39077.29
798.42	39214.51
798.60	39007.66
798.78	38397.37
798.96	38997.42
799.14	38780.34
799.32	38561.20
799.51	38065.60
799.69	38782.38
799.87	38401.46
800.05	38022.59
800.23	38102.46
800.41	38190.52
800.59	37922.24
800.77	37664.19
800.95	37883.33
801.13	37889.47
801.31	37604.80
801.49	37070.28
801.67	37373.38
801.85	37328.33
802.03	36986.32
802.21	36820.43
802.39	37074.38
802.57	37166.54
802.75	37037.51
802.93	36691.41
803.11	36214.23
803.29	36748.75
803.47	36599.25
803.65	36468.18
803.83	36494.80
804.01	36650.45
804.19	35808.73
804.37	36144.60
804.55	36109.78
804.73	35843.55
804.91	36226.52
805.09	36101.59
805.27	35841.50
805.45	35982.81
805.63	36097.50
805.81	35651.04
805.99	35958.24
806.17	35802.59
806.35	35450.34
806.53	35268.07
806.71	35167.72
806.89	35528.16
807.07	35560.93
807.25	35386.85
807.43	35263.97
807.61	34987.50
807.79	35075.56
807.97	34780.65
808.15	34452.98
808.33	34977.26
808.51	34448.88
808.69	34706.93
808.87	34473.46
809.05	34334.20
809.23	34487.79
809.41	34379.25
809.59	33863.16
809.77	34180.60
809.95	33799.68
810.13	34330.10
810.31	33773.05
810.49	34004.47
810.67	33451.52
810.84	33682.94
811.02	33912.31
811.20	33543.68
811.38	33934.84
811.56	33338.88
811.74	33246.72
811.92	33197.57
812.10	33252.87
812.28	33592.83
812.46	33320.45
812.64	33154.57
812.82	32966.15
813.00	33050.12
813.18	33279.49
813.36	32724.49
813.53	32851.47
813.71	33066.50
813.89	32650.77
814.07	32704.01
814.25	32886.28
814.43	32153.11
814.61	32171.54
814.79	32179.73
814.97	32163.35
815.15	32536.08
815.33	31968.79
815.50	31823.39
815.68	32173.59
815.86	31856.15
816.04	32036.38
816.22	32357.91
816.40	32165.40
816.58	31841.82
816.76	31731.23
816.94	31665.69
817.11	31847.96
817.29	31759.90
817.47	31299.11
817.65	31493.66
817.83	31274.53
818.01	31313.44
818.19	31534.62
818.37	31032.87
818.54	31122.98
818.72	31014.44
818.90	30899.75
819.08	31278.63
819.26	30887.46
819.44	31110.69
819.62	30762.54
819.80	30854.70
819.97	30942.76
820.15	30506.54
820.33	30699.05
820.51	30760.49
820.69	30281.27
820.87	30715.44
821.05	30688.81
821.22	30445.10
821.40	30850.60
821.58	30418.48
821.76	30520.88
821.94	30230.07
822.12	30195.25
822.29	30512.69
822.47	29754.94
822.65	30232.11
822.83	29877.82
823.01	29632.06
823.19	29865.53
823.36	29613.63
823.54	29705.79
823.72	29773.37
823.90	29789.75
824.08	29707.83
824.25	30072.37
824.43	29406.78
824.61	29513.28
824.79	29632.06
824.97	29294.14
825.15	29681.21
825.32	29376.06
825.50	29308.48
825.68	29214.27
825.86	29449.79
826.04	29175.36
826.21	29070.92
826.39	29066.82
826.57	28964.42
826.75	28972.61
826.93	28757.58
827.10	28841.54
827.28	28845.64
827.46	29220.42
827.64	29070.92
827.81	28989.00
827.99	28956.23
828.17	28755.53
828.35	28495.44
828.53	28622.41
828.70	28589.64
828.88	28464.72
829.06	28644.94
829.24	28716.62
829.41	28165.71
829.59	28585.55
829.77	28411.47
829.95	28429.90
830.12	28397.13
830.30	28583.50
830.48	28214.87
830.66	28329.55
830.84	28225.11
831.01	28091.99
831.19	28640.84
831.37	27674.20
831.55	27721.30
831.72	28040.79
831.90	27942.49
832.08	27971.16
832.25	28163.67
832.43	28304.98
832.61	27922.01
832.79	27645.53
832.96	27924.05
833.14	27690.59
833.32	27792.98
833.50	27833.94
833.67	27633.24
833.85	27635.29
834.03	27043.43
834.20	27872.85
834.38	27453.02
834.56	27616.86
834.74	27356.77
834.91	27252.32
835.09	27289.18
835.27	26783.34
835.44	26873.45
835.62	26981.99
835.80	26865.25
835.98	27203.17
836.15	27276.90
836.33	26691.18
836.51	27033.19
836.68	26834.53
836.86	26699.37
837.04	27047.52
837.21	27111.01
837.39	26533.48
837.57	26824.29
837.75	26633.83
837.92	26564.20
838.10	26379.89
838.28	26236.53
838.45	26650.22
838.63	26623.59
838.81	26488.43
838.98	26545.77
839.16	26306.16
839.34	26478.19
839.51	26236.53
839.69	26379.89
839.87	26254.96
840.04	26252.91
840.22	26404.46
840.40	26236.53
840.57	25808.50
840.75	26144.37
840.93	25656.95
841.10	26023.54
841.28	26416.75
841.46	25906.80
841.63	26179.18
841.81	25968.24
841.98	25538.17
842.16	25990.77
842.34	25906.80
842.51	25702.01
842.69	25976.44
842.87	25874.04
843.04	25898.61
843.22	25603.71
843.40	25669.24
843.57	25538.17
843.75	25785.97
843.92	25759.35
844.10	25570.94
844.28	25513.59
844.45	25353.85
844.63	25620.09
844.81	25316.99
844.98	25210.50
845.16	25060.99
845.33	25343.61
845.51	25060.99
845.69	25108.10
845.86	25067.14
846.04	24956.55
846.21	25312.89
846.39	25046.66
846.57	24669.83
846.74	25013.89
846.92	24786.57
847.09	24815.24
847.27	25112.19
847.45	24907.40
847.62	24899.20
847.80	24704.65
847.97	24733.32
848.15	24667.78
848.32	24630.92
848.50	24383.12
848.68	24501.90
848.85	24401.55
849.03	24293.01
849.20	24508.04
849.38	24536.71
849.56	24444.56
849.73	24534.67
849.91	24379.02
850.08	24684.17
850.26	24014.48
850.43	24182.42
850.61	24475.27
850.78	24176.27
850.96	24405.64
851.14	24192.65
851.31	24465.03
851.49	24209.04
851.66	24376.97
851.84	23955.09
852.01	23957.14
852.19	24020.63
852.36	24053.39
852.54	23768.73
852.71	23742.10
852.89	23994.00
853.07	23813.78
853.24	23678.61
853.42	23660.18
853.59	23664.28
853.77	23658.14
853.94	23584.41
854.12	23705.24
854.29	23373.47
854.47	23584.41
854.64	23529.11
854.82	23418.52
854.99	23688.85
855.17	23393.95
855.34	23363.23
855.52	23760.53
855.69	23424.67
855.87	23586.46
856.04	22992.55
856.22	23375.52
856.39	23273.12
856.57	23357.08
856.74	23051.94
856.92	23238.30
857.09	23131.81
857.27	22785.70
857.44	22933.15
857.62	23211.68
857.79	23350.94
857.97	23064.22
858.14	22886.05
858.32	23074.46
858.49	22857.38
858.67	23015.07
858.84	22699.69
859.02	22763.17
859.19	22537.90
859.37	22593.19
859.54	22488.74
859.72	22812.32
859.89	22587.05
860.06	22816.42
860.24	22703.78
860.41	22603.43
860.59	22441.64
860.76	22554.28
860.94	22085.30
861.11	22634.15
861.29	22191.79
861.46	22204.08
861.64	22353.58
861.81	22140.59
861.98	22269.61
862.16	22312.62
862.33	22025.90
862.51	21913.27
862.68	22126.25
862.86	21845.68
863.03	22218.41
863.21	21794.48
863.38	21825.20
863.55	21954.22
863.73	21866.16
863.90	21849.78
864.08	21931.70
864.25	21855.92
864.43	21802.68
864.60	21685.94
864.77	21626.55
864.95	21958.32
865.12	21622.45
865.30	21501.62
865.47	21644.98
865.64	21776.05
865.82	21642.93
865.99	21411.51
866.17	21423.80
866.34	21472.95
866.51	21073.60
866.69	21780.15
866.86	21540.54
867.04	21421.75
867.21	21221.05
867.38	21323.45
867.56	21475.00
867.73	21053.12
867.91	21116.61
868.08	21216.96
868.25	21001.92
868.43	21106.37
868.60	21038.78
868.78	21075.65
868.95	21237.44
869.12	21034.69
869.30	20879.04
869.47	20883.14
869.64	20817.60
869.82	20633.29
869.99	20868.80
870.16	20762.31
870.34	20971.20
870.51	20844.23
870.69	20526.79
870.86	20995.78
871.03	20502.22
871.21	20666.05
871.38	20625.09
871.55	20557.51
871.73	20272.84
871.90	20352.71
872.07	20190.92
872.25	20180.68
872.42	20115.15
872.59	20348.62
872.77	19996.37
872.94	20063.95
873.11	19861.20
873.29	20211.40
873.46	20068.05
873.63	19881.68
873.81	19746.51
873.98	19625.68
874.15	19787.47
874.33	19764.95
874.50	19570.39
874.67	19689.17
874.85	19635.92
875.02	19377.88
875.19	19754.71
875.37	19324.63
875.54	19459.80
875.71	19338.97
875.88	19005.15
876.06	19328.73
876.23	19255.00
876.40	19121.88
876.58	19216.09
876.75	19287.77
876.92	19205.85
877.10	19183.32
877.27	19005.15
877.44	18818.78
877.61	18939.62
877.79	18894.56
877.96	18937.57
878.13	19105.50
878.31	18616.04
878.48	18808.54
878.65	18886.37
878.82	18599.65
879.00	18704.10
879.17	18630.37
879.34	18700.00
879.51	18695.91
879.69	18441.96
879.86	18441.96
880.03	18398.95
880.21	18278.12
880.38	18464.49
880.55	18454.25
880.72	18327.27
880.90	18401.00
881.07	18300.65
881.24	18304.74
881.41	18456.29
881.59	18319.08
881.76	18370.28
881.93	18329.32
882.10	18001.65
882.28	17745.65
882.45	17999.60
882.62	18132.72
882.79	17964.78
882.96	17813.23
883.14	18028.27
883.31	17843.95
883.48	17897.20
883.65	18013.93
883.83	18050.80
884.00	18011.89
884.17	17907.44
884.34	17989.36
884.51	18020.08
884.69	17745.65
884.86	17848.05
885.03	17784.56
885.20	17389.30
885.38	17651.44
885.55	17581.81
885.72	17602.29
885.89	17587.96
886.06	17678.07
886.24	17645.30
886.41	17393.40
886.58	17747.70
886.75	17471.22
886.92	17147.64
887.10	17450.74
887.27	17362.68
887.44	17438.45
887.61	17647.35
887.78	17518.32
887.95	17247.99
888.13	17342.20
888.30	17213.18
888.47	17065.72
888.64	17225.47
888.81	17172.22
888.99	17180.41
889.16	16918.27
889.33	16977.66
889.50	16865.02
889.67	17022.72
889.84	16967.42
890.01	16959.23
890.19	16891.65
890.36	16826.11
890.53	17045.24
890.70	16574.21
890.87	16770.82
891.04	16649.99
891.22	16641.79
891.39	16541.44
891.56	16541.44
891.73	16547.59
891.90	16428.81
892.07	16559.88
892.24	16496.39
892.42	16414.47
892.59	16422.66
892.76	16324.36
892.93	16365.32
893.10	16598.79
893.27	16320.26
893.44	16070.41
893.61	16361.22
893.79	16338.69
893.96	16123.66
894.13	16074.51
894.30	16574.21
894.47	16000.78
894.64	16322.31
894.81	16295.69
894.98	16561.92
895.15	16258.82
895.33	16549.64
895.50	16170.76
895.67	16451.33
895.84	16410.37
896.01	16144.14
896.18	16088.84
896.35	16437.00
896.52	15941.39
896.69	16076.55
896.86	16039.69
897.04	16135.95
897.21	16162.57
897.38	16142.09
897.55	16062.22
897.72	16080.65
897.89	16113.42
898.06	15812.37
898.23	16107.27
898.40	16039.69
898.57	15949.58
898.74	16176.91
898.91	16092.94
899.08	15957.77
899.26	15941.39
899.43	16058.12
899.60	15816.46
899.77	16051.98
899.94	16011.02
900.11	15871.76
900.28	15990.54
900.45	15892.24
900.62	16211.72
900.79	16105.23
900.96	15937.29
901.13	15927.05
901.30	15693.58
901.47	15871.76
901.64	16174.86
901.81	15937.29
901.98	15693.58
902.15	15965.96
902.32	15623.95
902.49	15986.44
902.66	15978.25
902.83	16238.34
903.01	15859.47
903.18	15853.33
903.35	15865.61
903.52	16025.36
903.69	15697.68
903.86	15843.09
904.03	15904.53
904.20	15980.30
904.37	15783.70
904.54	15830.80
904.71	15646.48
904.88	16027.40
905.05	15888.14
905.22	15927.05
905.39	15638.29
905.56	15984.40
905.73	15632.15
905.90	15759.12
906.07	15912.72
906.24	15812.37
906.41	15912.72
906.58	15793.94
906.75	16035.60
906.92	15675.15
907.09	15890.19
907.26	15781.65
907.43	15695.63
907.60	15773.46
907.77	15945.48
907.93	15959.82
908.10	15642.39
908.27	15972.11
908.44	15681.30
908.61	15640.34
908.78	15767.31
908.95	15761.17
909.12	15556.37
909.29	15585.04
909.46	15673.10
909.63	15542.03
909.80	15634.19
909.97	15773.46
910.14	15466.26
910.31	15355.67
910.48	15429.40
910.65	15415.06
910.82	15501.08
910.99	15546.13
911.16	15374.10
911.33	15601.43
911.50	15283.99
911.66	15468.31
911.83	15283.99
912.00	15206.17
912.17	15157.02
912.34	15316.76
912.51	15324.95
912.68	15025.95
912.85	15136.54
913.02	15257.37
913.19	15394.58
913.36	15159.06
913.53	15152.92
913.70	15167.26
913.86	15359.77
914.03	14960.41
914.20	15081.24
914.37	15066.91
914.54	14812.96
914.71	15159.06
914.88	15116.06
915.05	14782.24
915.22	14702.37
915.39	14929.69
915.55	14763.81
915.72	14735.14
915.89	14634.78
916.06	14468.90
916.23	14860.06
916.40	14526.24
916.57	14419.75
916.74	14384.93
916.91	14346.02
917.07	14247.72
917.24	14425.89
917.41	14419.75
917.58	14569.25
917.75	14554.91
917.92	14233.38
918.09	14581.54
918.26	14305.06
918.42	14288.68
918.59	14266.15
918.76	14239.53
918.93	14061.35
919.10	13764.40
919.27	13920.04
919.44	14108.46
919.60	13913.90
919.77	13936.43
919.94	13641.52
920.11	13645.62
920.28	13944.62
920.45	13676.34
920.61	13655.86
920.78	13586.22
920.95	13735.73
921.12	13547.31
921.29	13512.50
921.46	13463.35
921.62	13496.11
921.79	13260.60
921.96	13492.02
922.13	13119.29
922.30	13004.60
922.47	12977.98
922.63	13041.46
922.80	12799.80
922.97	12916.54
923.14	12791.61
923.31	13014.84
923.47	12834.62
923.64	12934.97
923.81	12824.38
923.98	12625.73
924.15	12867.39
924.32	12693.31
924.48	12648.26
924.65	12767.04
924.82	12506.95
924.99	12627.78
925.15	12343.11
925.32	12328.77
925.49	12285.76
925.66	12103.50
925.83	11923.27
925.99	12035.91
926.16	12109.64
926.33	12089.16
926.50	12003.14
926.67	12169.03
926.83	12259.14
927.00	11929.42
927.17	12003.14
927.34	11915.08
927.50	11966.28
927.67	11908.94
927.84	11898.70
928.01	11812.68
928.17	11501.39
928.34	11558.74
928.51	11630.41
928.68	11138.90
928.84	11437.91
929.01	11372.37
929.18	11151.19
929.35	11186.01
929.51	11378.51
929.68	11093.85
929.85	11083.61
930.02	11069.27
930.18	11112.28
930.35	10927.96
930.52	10958.68
930.69	10876.76
930.85	11024.22
931.02	10565.47
931.19	10635.10
931.36	10770.27
931.52	10454.88
931.69	10415.97
931.86	10647.39
932.02	10508.13
932.19	10430.30
932.36	10491.74
932.53	10555.23
932.69	10258.28
932.86	10301.28
933.03	10397.54
933.19	10186.60
933.36	10157.92
933.53	10207.08
933.70	10014.57
933.86	10149.73
934.03	10045.29
934.20	9793.39
934.36	9813.87
934.53	9738.09
934.70	9588.59
934.86	9711.47
935.03	9559.92
935.20	9402.22
935.36	9357.17
935.53	9408.37
935.70	9127.80
935.86	9215.86
936.03	9146.23
936.20	9049.97
936.36	8939.38
936.53	8826.75
936.70	8904.57
936.86	8996.73
937.03	8671.10
937.20	8576.89
937.36	8679.29
937.53	8222.59
937.70	8238.98
937.86	8234.88
938.03	8183.68
938.20	8230.79
938.36	8038.28
938.53	8062.85
938.70	7765.90
938.86	7907.21
939.03	7595.92
939.20	7479.18
939.36	7528.33
939.53	7442.32
939.70	7667.60
939.86	7184.27
940.03	7059.35
940.19	7104.40
940.36	6981.53
940.53	7049.11
940.69	6999.96
940.86	6795.16
941.03	6721.43
941.19	6555.55
941.36	6670.23
941.52	6643.61
941.69	6447.01
941.86	6537.12
942.02	6393.76
942.19	6258.59
942.35	6457.25
942.52	6229.92
942.69	6270.88
942.85	6193.06
943.02	6150.05
943.18	6131.62
943.35	6000.55
943.52	6031.27
943.68	5846.95
943.85	6006.69
944.01	5873.57
944.18	5805.99
944.35	5859.24
944.51	5779.37
944.68	5621.67
944.84	5554.09
945.01	5558.19
945.17	5666.73
945.34	5689.26
945.51	5504.94
945.67	5619.63
945.84	5486.51
946.00	5468.08
946.17	5480.36
946.33	5486.51
946.50	5582.76
946.67	5590.95
946.83	5447.60
947.00	5466.03
947.16	5451.69
947.33	5621.67
947.49	5480.36
947.66	5400.49
947.82	5556.14
947.99	5537.71
948.16	5492.65
948.32	5427.12
948.49	5429.17
948.65	5402.54
948.82	5566.38
948.98	5484.46
949.15	5441.45
949.31	5463.98
949.48	5484.46
949.64	5531.56
949.81	5554.09
949.97	5472.17
950.14	5570.48
950.30	5287.86
950.47	5517.23
950.63	5384.11
950.80	5416.88
950.96	5398.45
951.13	5582.76
951.30	5463.98
951.46	5451.69
951.63	5695.40
951.79	5392.30
951.96	5605.29
952.12	5670.83
952.29	5480.36
952.45	5494.70
952.62	5513.13
952.78	5554.09
952.94	5687.21
953.11	5545.90
953.27	5500.84
953.44	5623.72
953.60	5652.39
953.77	5531.56
953.93	5611.43
954.10	5580.71
954.26	5388.21
954.43	5550.00
954.59	5633.96
954.76	5664.68
954.92	5588.91
955.09	5654.44
955.25	5545.90
955.42	5580.71
955.58	5824.42
955.75	5599.15
955.91	5638.06
956.07	5683.11
956.24	5547.95
956.40	5726.12
956.57	5885.86
956.73	5615.53
956.90	5756.84
957.06	5650.35
957.23	5728.17
957.39	5615.53
957.56	5717.93
957.72	5693.35
957.88	5554.09
958.05	5668.78
958.21	5713.83
958.38	5732.26
958.54	5558.19
958.71	5728.17
958.87	5623.72
959.03	5609.39
959.20	5722.02
959.36	5558.19
959.53	5722.02
959.69	5609.39
959.85	5826.47
960.02	5683.11
960.18	5631.91
960.35	5683.11
960.51	5808.04
960.68	5582.76
960.84	5656.49
961.00	5525.42
961.17	5640.11
961.33	5586.86
961.50	5615.53
961.66	5554.09
961.82	5638.06
961.99	5613.48
962.15	5552.04
962.31	5607.34
962.48	5705.64
962.64	5535.66
962.81	5642.15
962.97	5566.38
963.13	5562.28
963.30	5617.58
963.46	5644.20
963.62	5400.49
963.79	5529.52
963.95	5562.28
964.12	5580.71
964.28	5593.00
964.44	5533.61
964.61	5642.15
964.77	5488.56
964.93	5627.82
965.10	5457.84
965.26	5576.62
965.42	5550.00
965.59	5423.02
965.75	5400.49
965.92	5533.61
966.08	5455.79
966.24	5429.17
966.41	5453.74
966.57	5373.87
966.73	5474.22
966.90	5535.66
967.06	5414.83
967.22	5564.33
967.39	5408.69
967.55	5390.25
967.71	5359.53
967.88	5459.88
968.04	5259.18
968.20	5195.70
968.37	5353.39
968.53	5318.57
968.69	5351.34
968.85	5455.79
969.02	5314.48
969.18	5476.27
969.34	5263.28
969.51	5359.53
969.67	5406.64
969.83	5099.44
970.00	5365.68
970.16	5361.58
970.32	5134.26
970.48	5402.54
970.65	5238.70
970.81	5152.69
970.97	5224.37
971.14	5187.50
971.30	5312.43
971.46	5167.03
971.63	5130.16
971.79	5222.32
971.95	5234.61
972.11	5011.38
972.28	5068.72
972.44	5185.46
972.60	5095.35
972.76	5078.96
972.93	5019.57
973.09	5236.66
973.25	5085.11
973.42	4917.17
973.58	5087.15
973.74	5113.78
973.90	5136.31
974.07	5101.49
974.23	5087.15
974.39	5158.83
974.55	5091.25
974.72	5066.67
974.88	4808.63
975.04	5099.44
975.20	4896.69
975.37	4974.52
975.53	4917.17
975.69	4992.95
975.85	4951.99
976.01	4876.21
976.18	4974.52
976.34	4913.08
976.50	4900.79
976.66	4913.08
976.83	4784.06
976.99	4812.73
977.15	4661.18
977.31	4724.66
977.47	4829.11
977.64	4698.04
977.80	4802.49
977.96	4822.97
978.12	4777.91
978.29	4689.85
978.45	4663.22
978.61	4739.00
978.77	4825.01
978.93	4695.99
979.10	4763.58
979.26	4665.27
979.42	4689.85
979.58	4599.74
979.74	4714.42
979.91	4693.94
980.07	4587.45
980.23	4560.83
980.39	4683.70
980.55	4566.97
980.71	4599.74
980.88	4519.87
981.04	4558.78
981.20	4642.75
981.36	4509.63
981.52	4499.39
981.68	4489.15
981.85	4569.02
982.01	4448.19
982.17	4364.22
982.33	4540.35
982.49	4587.45
982.65	4571.07
982.82	4388.80
982.98	4454.33
983.14	4284.35
983.30	4501.44
983.46	4464.57
983.62	4235.20
983.79	4376.51
983.95	4220.86
984.11	4216.77
984.27	4304.83
984.43	4452.28
984.59	4368.32
984.75	4358.08
984.91	4370.37
985.08	4280.25
985.24	4292.54
985.40	4261.82
985.56	4188.10
985.72	4343.74
985.88	4425.66
986.04	4229.06
986.20	4100.03
986.37	4112.32
986.53	4018.11
986.69	4145.09
986.85	4214.72
987.01	4220.86
987.17	4194.24
987.33	4122.56
987.49	4163.52
987.65	4161.47
987.82	4120.51
987.98	4065.22
988.14	3952.58
988.30	4130.75
988.46	3891.14
988.62	3964.87
988.78	4020.16
988.94	4028.35
989.10	4001.73
989.26	3985.35
989.42	3977.16
989.59	3893.19
989.75	4026.31
989.91	3964.87
990.07	3766.21
990.23	3862.47
990.39	4036.55
990.55	3962.82
990.71	3921.86
990.87	3940.29
991.03	3880.90
991.19	3813.32
991.35	3866.56
991.51	3868.61
991.67	3856.33
991.83	3784.65
992.00	3880.90
992.16	3964.87
992.32	3901.38
992.48	3923.91
992.64	3803.08
992.80	3706.82
992.96	3708.87
993.12	3706.82
993.28	3772.36
993.44	3710.92
993.60	3792.84
993.76	3766.21
993.92	3702.73
994.08	3819.46
994.24	3885.00
994.40	3755.97
994.56	3739.59
994.72	3657.67
994.88	3583.95
995.04	3704.78
995.20	3661.77
995.36	3624.90
995.52	3639.24
995.68	3567.56
995.84	3510.22
996.00	3794.89
996.16	3508.17
996.32	3491.79
996.48	3549.13
996.64	3600.33
996.80	3563.47
996.96	3557.32
997.12	3526.60
997.28	3565.51
997.44	3444.68
997.60	3547.08
997.76	3442.64
997.92	3524.55
998.08	3551.18
998.24	3467.21
998.40	3495.88
998.56	3532.75
998.72	3424.20
998.88	3393.48
999.04	3456.97
999.20	3383.24
999.36	3354.57
999.52	3461.07
999.68	3385.29
999.84	3368.91
1000.00	3452.88
1000.16	3381.20
1000.32	3311.57
1000.48	3581.90
1000.64	3305.42
1000.80	3225.55
1000.95	3123.15
1001.11	3258.32
1001.27	3155.92
1001.43	3303.37
1001.59	3286.99
1001.75	3246.03
1001.91	3270.61
1002.07	3182.54
1002.23	3188.69
1002.39	3307.47
1002.55	3166.16
1002.71	3137.49
1002.87	3291.09
1003.03	3198.93
1003.19	3141.58
1003.34	3186.64
1003.50	3149.78
1003.66	3205.07
1003.82	3235.79
1003.98	3096.53
1004.14	3190.74
1004.30	3067.86
1004.46	2942.93
1004.62	3104.72
1004.78	3071.95
1004.94	2961.36
1005.09	3065.81
1005.25	3014.61
1005.41	3010.51
1005.57	3094.48
1005.73	3039.19
1005.89	2977.75
1006.05	2994.13
1006.21	3084.24
1006.37	3012.56
1006.52	2977.75
1006.68	2936.79
1006.84	3133.39
1007.00	2947.03
1007.16	2987.99
1007.32	3004.37
1007.48	2881.49
1007.64	2912.21
1007.79	2822.10
1007.95	2928.60
1008.11	3049.43
1008.27	2881.49
1008.43	2928.60
1008.59	2916.31
1008.75	3010.51
1008.91	2895.83
1009.06	2899.92
1009.22	2881.49
1009.38	2936.79
1009.54	2854.87
1009.70	2815.96
1009.86	2856.92
1010.01	2783.19
1010.17	2840.53
1010.33	2781.14
1010.49	2791.38
1010.65	2850.77
1010.81	2779.09
1010.96	2842.58
1011.12	2678.74
1011.28	2725.85
1011.44	2764.76
1011.60	2850.77
1011.76	2738.13
1011.91	2869.20
1012.07	2684.89
1012.23	2674.65
1012.39	2631.64
1012.55	2752.47
1012.71	2676.70
1012.86	2811.86
1013.02	2748.37
1013.18	2627.54
1013.34	2725.85
1013.50	2715.61
1013.65	2658.26
1013.81	2674.65
1013.97	2527.19
1014.13	2731.99
1014.29	2615.26
1014.44	2777.05
1014.60	2695.13
1014.76	2639.83
1014.92	2551.77
1015.07	2666.46
1015.23	2586.58
1015.39	2543.58
1015.55	2609.11
1015.71	2568.15
1015.86	2600.92
1016.02	2525.15
1016.18	2572.25
1016.34	2615.26
1016.49	2615.26
1016.65	2600.92
1016.81	2500.57
1016.97	2568.15
1017.12	2510.81
1017.28	2469.85
1017.44	2410.46
1017.60	2469.85
1017.75	2521.05
1017.91	2533.34
1018.07	2447.32
1018.23	2510.81
1018.38	2461.66
1018.54	2519.00
1018.70	2506.71
1018.86	2422.75
1019.01	2355.16
1019.17	2437.08
1019.33	2465.75
1019.49	2461.66
1019.64	2447.32
1019.80	2471.90
1019.96	2463.71
1020.12	2408.41
1020.27	2373.60
1020.43	2453.47
1020.59	2406.36
1020.74	2385.88
1020.90	2443.23
1021.06	2420.70
1021.22	2402.27
1021.37	2363.36
1021.53	2414.56
1021.69	2443.23
1021.84	2281.44
1022.00	2377.69
1022.16	2326.49
1022.31	2277.34
1022.47	2355.16
1022.63	2389.98
1022.79	2185.18
1022.94	2301.92
1023.10	2453.47
1023.26	2310.11
1023.41	2336.73
1023.57	2303.96
1023.73	2256.86
1023.88	2273.25
1024.04	2265.05
1024.20	2265.05
1024.35	2252.77
1024.51	2265.05
1024.67	2279.39
1024.82	2369.50
1024.98	2252.77
1025.14	2228.19
1025.29	2187.23
1025.45	2295.77
1025.61	2084.83
1025.76	2166.75
1025.92	2170.85
1026.08	2269.15
1026.23	2332.64
1026.39	2193.37
1026.55	2181.09
1026.70	2160.61
1026.86	2179.04
1027.02	2226.14
1027.17	2183.13
1027.33	2256.86
1027.48	2093.02
1027.64	2162.66
1027.80	2154.46
1027.95	2168.80
1028.11	2031.58
1028.27	2097.12
1028.42	2088.93
1028.58	2109.41
1028.73	2101.22
1028.89	2080.74
1029.05	2252.77
1029.20	2181.09
>>>>>End Processed Spectral Data<<<<<
