SpectraSuite Data File
++++++++++++++++++++++++++++++++++++
Date: Fri Jun 02 14:41:59 CEST 2017
User: INFO_000
Dark Spectrum Present: No
Reference Spectrum Present: No
Number of Sampled Component Spectra: 1
Spectrometers: USB4H00879
Integration Time (usec): 80000 (USB4H00879)
Spectra Averaged: 1 (USB4H00879)
Boxcar Smoothing: 0 (USB4H00879)
Correct for Electrical Dark: No (USB4H00879)
Strobe/Lamp Enabled: No (USB4H00879)
Correct for Detector Non-linearity: No (USB4H00879)
Correct for Stray Light: No (USB4H00879)
Number of Pixels in Processed Spectrum: 3648
>>>>>Begin Processed Spectral Data<<<<<
345.13	1347.56
345.34	1347.56
345.56	1347.56
345.78	1304.56
345.99	1308.65
346.21	1660.90
346.42	1646.57
346.64	1634.28
346.86	1859.56
347.07	1654.76
347.29	1708.01
347.50	1621.99
347.72	1607.66
347.94	1638.38
348.15	1523.69
348.37	1632.23
348.59	1644.52
348.80	1634.28
349.02	1771.49
349.23	1902.56
349.45	1832.93
349.67	1884.13
349.88	1767.40
350.10	1945.57
350.31	1820.64
350.53	1875.94
350.75	1986.53
350.96	1769.44
351.18	1812.45
351.39	1886.18
351.61	1802.21
351.82	1894.37
352.04	1943.52
352.26	1853.41
352.47	1855.46
352.69	1914.85
352.90	1794.02
353.12	1916.90
353.34	1789.92
353.55	1908.71
353.77	1882.08
353.98	1812.45
354.20	1877.99
354.41	1935.33
354.63	1988.58
354.85	2074.59
355.06	1873.89
355.28	1837.03
355.49	1908.71
355.71	1880.04
355.92	1849.32
356.14	1900.52
356.35	1959.91
356.57	1890.28
356.79	1910.75
357.00	1888.23
357.22	1984.48
357.43	1773.54
357.65	1941.47
357.86	1834.98
358.08	1935.33
358.29	1896.42
358.51	1986.53
358.72	1939.43
358.94	1896.42
359.16	1845.22
359.37	1933.28
359.59	1884.13
359.80	2035.68
360.02	1974.24
360.23	1994.72
360.45	2004.96
360.66	1902.56
360.88	1918.95
361.09	1955.81
361.31	2027.49
361.52	1974.24
361.74	2035.68
361.95	2113.50
362.17	1923.04
362.38	2068.45
362.60	1986.53
362.81	2093.02
363.03	1841.12
363.24	2033.63
363.46	2068.45
363.67	2015.20
363.89	1996.77
364.10	1994.72
364.32	1953.76
364.53	2056.16
364.75	1961.95
364.96	2035.68
365.18	2064.35
365.39	1984.48
365.61	2000.87
365.82	2131.94
366.04	2031.58
366.25	1877.99
366.47	2039.78
366.68	2066.40
366.90	1882.08
367.11	2082.78
367.33	2158.56
367.54	2109.41
367.76	2056.16
367.97	2133.98
368.19	1986.53
368.40	2170.85
368.62	2019.30
368.83	1945.57
369.05	2066.40
369.26	2047.97
369.48	2039.78
369.69	2007.01
369.91	2066.40
370.12	2056.16
370.33	2133.98
370.55	2037.73
370.76	2037.73
370.98	2146.27
371.19	2002.91
371.41	2031.58
371.62	2064.35
371.84	2011.11
372.05	2070.50
372.27	2023.39
372.48	2043.87
372.69	2035.68
372.91	2201.57
373.12	2250.72
373.34	1986.53
373.55	2109.41
373.77	2205.66
373.98	2050.02
374.20	2242.53
374.41	2293.72
374.62	2183.13
374.84	2129.89
375.05	2160.61
375.27	2234.33
375.48	2193.37
375.70	2181.09
375.91	2201.57
376.12	2318.30
376.34	2189.28
376.55	2279.39
376.77	2285.53
376.98	2191.33
377.19	2195.42
377.41	2152.42
377.62	2195.42
377.84	2312.16
378.05	2324.44
378.27	2111.46
378.48	2338.78
378.69	2402.27
378.91	2316.25
379.12	2289.63
379.34	2140.13
379.55	2306.01
379.76	2314.20
379.98	2271.20
380.19	2303.96
380.41	2367.45
380.62	2224.09
380.83	2189.28
381.05	2205.66
381.26	2398.17
381.47	2281.44
381.69	2289.63
381.90	2457.56
382.12	2346.97
382.33	2258.91
382.54	2373.60
382.76	2365.40
382.97	2400.22
383.19	2207.71
383.40	2387.93
383.61	2355.16
383.83	2361.31
384.04	2396.12
384.25	2326.49
384.47	2369.50
384.68	2389.98
384.89	2353.12
385.11	2363.36
385.32	2369.50
385.54	2310.11
385.75	2232.29
385.96	2508.76
386.18	2498.52
386.39	2486.23
386.60	2375.64
386.82	2432.99
387.03	2459.61
387.24	2580.44
387.46	2547.67
387.67	2519.00
387.88	2535.39
388.10	2609.11
388.31	2453.47
388.52	2584.54
388.74	2463.71
388.95	2562.01
389.16	2504.67
389.38	2539.48
389.59	2594.78
389.80	2709.46
390.02	2615.26
390.23	2695.13
390.44	2543.58
390.66	2584.54
390.87	2623.45
391.08	2605.02
391.30	2799.57
391.51	2723.80
391.72	2789.33
391.94	2697.17
392.15	2617.30
392.36	2662.36
392.58	2660.31
392.79	2744.28
393.00	2803.67
393.22	2813.91
393.43	2770.90
393.64	2824.15
393.85	2770.90
394.07	2736.09
394.28	2813.91
394.49	2742.23
394.71	2781.14
394.92	2922.45
395.13	2746.33
395.35	2807.77
395.56	2721.75
395.77	2762.71
395.98	2865.11
396.20	2942.93
396.41	2912.21
396.62	2951.12
396.84	2912.21
397.05	2924.50
397.26	2811.86
397.47	2951.12
397.69	2801.62
397.90	3063.76
398.11	3002.32
398.32	2949.08
398.54	2811.86
398.75	2955.22
398.96	3121.10
399.18	2987.99
399.39	2973.65
399.60	3088.34
399.81	3016.66
400.03	2908.12
400.24	3330.00
400.45	3022.80
400.66	3194.83
400.88	3063.76
401.09	3237.84
401.30	3061.71
401.51	3221.45
401.73	3250.13
401.94	3307.47
402.15	3235.79
402.36	3133.39
402.58	3237.84
402.79	3170.26
403.00	3157.97
403.21	3262.41
403.43	3272.65
403.64	3291.09
403.85	3203.02
404.06	3323.85
404.27	3133.39
404.49	3254.22
404.70	3131.34
404.91	3276.75
405.12	3293.13
405.34	3313.61
405.55	3549.13
405.76	3381.20
405.97	3272.65
406.19	3385.29
406.40	3250.13
406.61	3375.05
406.82	3465.16
407.03	3436.49
407.25	3323.85
407.46	3502.03
407.67	3538.89
407.88	3436.49
408.09	3418.06
408.31	3483.59
408.52	3596.23
408.73	3358.67
408.94	3426.25
409.15	3553.23
409.37	3606.47
409.58	3559.37
409.79	3583.95
410.00	3653.58
410.21	3504.07
410.43	3602.38
410.64	3594.19
410.85	3551.18
411.06	3696.58
411.27	3551.18
411.48	3655.62
411.70	3528.65
411.91	3704.78
412.12	3676.10
412.33	3733.45
412.54	3622.86
412.76	3745.73
412.97	3741.64
413.18	3657.67
413.39	3624.90
413.60	3798.98
413.81	3788.74
414.03	3684.30
414.24	3776.45
414.45	3889.09
414.66	3723.21
414.87	3805.13
415.08	3844.04
415.30	3776.45
415.51	3856.33
415.72	3882.95
415.93	4001.73
416.14	3839.94
416.35	3907.52
416.56	3907.52
416.78	3971.01
416.99	3958.72
417.20	3989.44
417.41	3940.29
417.62	4007.87
417.83	4003.78
418.04	3960.77
418.26	4071.36
418.47	3899.33
418.68	4153.28
418.89	4167.62
419.10	4263.87
419.31	4040.64
419.52	4089.79
419.73	4204.48
419.95	4194.24
420.16	4091.84
420.37	4118.47
420.58	4229.06
420.79	4136.90
421.00	4206.53
421.21	4233.15
421.42	4069.31
421.63	4366.27
421.85	4284.35
422.06	4251.58
422.27	4294.59
422.48	4331.45
422.69	4464.57
422.90	4415.42
423.11	4257.73
423.32	4450.24
423.53	4523.96
423.75	4423.61
423.96	4542.39
424.17	4677.56
424.38	4556.73
424.59	4624.31
424.80	4872.12
425.01	4571.07
425.22	4589.50
425.43	4612.03
425.64	4775.86
425.85	4728.76
426.06	4698.04
426.28	4747.19
426.49	4659.13
426.70	4689.85
426.91	4792.25
427.12	4833.21
427.33	4802.49
427.54	4747.19
427.75	4782.01
427.96	4898.74
428.17	4906.93
428.38	4945.84
428.59	4941.75
428.80	4859.83
429.01	5042.10
429.23	5025.72
429.44	5181.36
429.65	5009.33
429.86	5070.77
430.07	5124.02
430.28	5005.24
430.49	5173.17
430.70	5187.50
430.91	5259.18
431.12	5203.89
431.33	5349.29
431.54	5361.58
431.75	5259.18
431.96	5154.74
432.17	5218.22
432.38	5271.47
432.59	5582.76
432.80	5425.07
433.01	5496.75
433.22	5552.04
433.43	5410.73
433.64	5566.38
433.85	5355.44
434.06	5642.15
434.27	5423.02
434.49	5547.95
434.70	5738.41
434.91	5623.72
435.12	5664.68
435.33	5582.76
435.54	5668.78
435.75	5521.32
435.96	5742.50
436.17	5586.86
436.38	5885.86
436.59	5830.57
436.80	5789.61
437.01	5994.40
437.22	5953.45
437.43	5879.72
437.64	5636.01
437.85	5822.38
438.06	5881.77
438.27	5826.47
438.48	5898.15
438.69	5943.21
438.90	5984.16
439.11	5924.77
439.32	6094.76
439.53	6047.65
439.74	6039.46
439.95	6137.76
440.16	6053.80
440.37	6010.79
440.57	5986.21
440.78	6295.46
440.99	6244.26
441.20	6115.23
441.41	6113.19
441.62	6100.90
441.83	6180.77
442.04	6414.24
442.25	6279.07
442.46	6135.71
442.67	6533.02
442.88	6664.09
443.09	6162.34
443.30	6281.12
443.51	6381.47
443.72	6891.41
443.93	6350.75
444.14	6819.74
444.35	6322.08
444.56	6668.19
444.77	6598.56
444.98	6573.98
445.19	6743.96
445.40	6524.83
445.61	6684.57
445.81	6860.70
446.02	6915.99
446.23	6639.51
446.44	6565.79
446.65	6846.36
446.86	6668.19
447.07	6838.17
447.28	6901.65
447.49	6983.57
447.70	6825.88
447.91	6936.47
448.12	6856.60
448.33	6940.57
448.54	7126.93
448.74	7012.24
448.95	6934.42
449.16	6948.76
449.37	7374.74
449.58	7016.34
449.79	7303.06
450.00	6942.61
450.21	7253.91
450.42	7301.01
450.63	7425.93
450.84	7237.52
451.05	7397.26
451.25	7258.00
451.46	7278.48
451.67	7614.35
451.88	7546.76
452.09	7415.69
452.30	7360.40
452.51	7405.46
452.72	7430.03
452.93	7780.23
453.13	7344.02
453.34	7456.65
453.55	7679.88
453.76	7620.49
453.97	8093.57
454.18	7681.93
454.39	7833.48
454.60	7956.36
454.81	7774.09
455.01	8030.09
455.22	7532.43
455.43	7919.50
455.64	8150.92
455.85	8038.28
456.06	8281.99
456.27	8124.29
456.48	8073.09
456.68	8253.31
456.89	8241.03
457.10	8368.00
457.31	8279.94
457.52	8286.08
457.73	8558.46
457.94	8445.82
458.14	8191.88
458.35	8728.44
458.56	8523.65
458.77	8478.59
458.98	8750.97
459.19	8546.17
459.39	8748.92
459.60	8916.86
459.81	8597.37
460.02	8892.28
460.23	8765.31
460.44	9275.25
460.65	9144.18
460.85	9160.56
461.06	9103.22
461.27	8970.10
461.48	9445.23
461.69	9387.89
461.89	9062.26
462.10	9273.20
462.31	9187.19
462.52	9213.81
462.73	9215.86
462.94	9613.17
463.14	9500.53
463.35	9375.60
463.56	10061.67
463.77	9832.30
463.98	9584.49
464.18	9725.80
464.39	9752.43
464.60	10141.54
464.81	9916.26
465.02	9906.02
465.23	10106.73
465.43	9785.19
465.64	10415.97
465.85	10166.12
466.06	10100.58
466.27	10555.23
466.47	10491.74
466.68	10317.67
466.89	10530.66
467.10	10706.78
467.30	10407.78
467.51	10676.06
467.72	10989.40
467.93	10549.09
468.14	10882.91
468.34	10921.82
468.55	11007.83
468.76	11009.88
468.97	10811.23
469.17	11190.10
469.38	11355.99
469.59	11355.99
469.80	11124.57
470.01	11493.20
470.21	11173.72
470.42	11546.45
470.63	11620.17
470.84	11638.61
471.04	11822.92
471.25	11921.23
471.46	11781.96
471.67	12152.65
471.87	12017.48
472.08	12293.96
472.29	12488.51
472.50	12044.10
472.70	11933.51
472.91	12422.98
473.12	12592.96
473.33	12644.16
473.53	12834.62
473.74	12584.77
473.95	12828.48
474.16	12889.92
474.36	12803.90
474.57	13111.10
474.78	13111.10
474.99	13225.78
475.19	13115.19
475.40	13336.37
475.61	13487.92
475.81	13498.16
476.02	13748.01
476.23	13840.17
476.44	13680.43
476.64	14102.31
476.85	14241.57
477.06	13889.32
477.27	14323.49
477.47	14493.47
477.68	14325.54
477.89	14518.05
478.09	14772.00
478.30	14606.11
478.51	14718.75
478.71	15058.71
478.92	14864.16
479.13	15075.10
479.34	15392.53
479.54	15265.56
479.75	15216.41
479.96	15443.73
480.16	15523.60
480.37	15601.43
480.58	15777.55
480.78	15974.16
480.99	15877.90
481.20	16133.90
481.41	16027.40
481.61	16299.78
481.82	16275.21
482.03	16314.12
482.23	16258.82
482.44	16877.31
482.65	16738.05
482.85	16936.70
483.06	16688.90
483.27	16776.96
483.47	16992.00
483.68	17098.49
483.89	17305.34
484.09	17143.55
484.30	17168.12
484.51	17487.61
484.71	17714.93
484.92	17616.63
485.13	17878.77
485.33	17790.70
485.54	17909.49
485.75	17958.64
485.95	18439.91
486.16	18437.86
486.37	18519.78
486.57	18188.01
486.78	18368.23
486.98	18484.97
487.19	18581.22
487.40	18781.92
487.60	18894.56
487.81	19295.96
488.02	19105.50
488.22	19019.49
488.43	19275.48
488.64	19308.25
488.84	19511.00
489.05	19574.49
489.25	19457.75
489.46	19867.34
489.67	19951.31
489.87	19975.89
490.08	20168.40
490.29	19943.12
490.49	20416.20
490.70	20590.28
490.90	20539.08
491.11	20563.65
491.32	20520.65
491.52	20612.81
491.73	20496.07
491.94	20735.68
492.14	20739.78
492.35	21251.77
492.55	20905.66
492.76	20989.63
492.97	21485.24
493.17	21522.10
493.38	21618.36
493.58	21714.61
493.79	21640.89
494.00	21628.60
494.20	21722.80
494.41	21888.69
494.61	21999.28
494.82	22159.02
495.02	22023.86
495.23	22507.18
495.44	22650.53
495.64	22521.51
495.85	22322.86
496.05	22654.63
496.26	22640.29
496.47	23178.91
496.67	22679.21
496.88	23348.89
497.08	22689.45
497.29	22947.49
497.49	23166.62
497.70	23199.39
497.91	23457.43
498.11	23516.83
498.32	23950.99
498.52	23889.56
498.73	23932.56
498.93	24039.06
499.14	24008.34
499.34	24168.08
499.55	24204.94
499.76	24127.12
499.96	24110.74
500.17	24145.55
500.37	24393.36
500.58	24469.13
500.78	24551.05
500.99	24442.51
501.19	24968.84
501.40	24651.40
501.60	24551.05
501.81	24577.67
502.02	24788.61
502.22	24626.82
502.43	25222.78
502.63	25253.50
502.84	25400.96
503.04	25360.00
503.25	25534.07
503.45	25493.12
503.66	25536.12
503.86	25343.61
504.07	25730.68
504.27	25534.07
504.48	26031.73
504.68	26046.07
504.89	26001.01
505.09	26064.50
505.30	26254.96
505.50	26109.55
505.71	26207.86
505.91	26195.57
506.12	26424.94
506.32	26381.93
506.53	26644.07
506.73	26629.74
506.94	26875.49
507.14	26883.69
507.35	26762.86
507.55	26334.83
507.76	26756.71
507.96	26961.51
508.17	26793.58
508.37	26994.28
508.58	26951.27
508.78	27356.77
508.99	27231.84
509.19	27475.55
509.40	27250.27
509.60	27539.04
509.81	27446.88
510.01	27250.27
510.22	27303.52
510.42	27627.10
510.63	27614.81
510.83	27881.05
511.04	27891.29
511.24	27700.83
511.44	28040.79
511.65	27985.49
511.85	27788.89
512.06	27924.05
512.26	28126.80
512.47	28317.26
512.67	28538.44
512.88	28253.78
513.08	27768.41
513.29	28378.70
513.49	28399.18
513.69	28536.40
513.90	28264.02
514.10	28489.29
514.31	28933.70
514.51	28712.52
514.72	28831.30
514.92	28767.82
515.13	28655.18
515.33	28659.27
515.53	29077.06
515.74	29136.45
515.94	29228.61
516.15	29163.08
516.35	29079.11
516.56	29460.03
516.76	29146.69
516.96	29294.14
517.17	29439.55
517.37	29642.30
517.58	29277.76
517.78	29640.25
517.99	29851.19
518.19	29849.14
518.39	30055.99
518.60	30158.39
518.80	30320.18
519.01	30309.94
519.21	30410.29
519.41	30045.75
519.62	30164.53
519.82	30127.67
520.03	30744.11
520.23	30463.54
520.43	30352.94
520.64	30819.88
520.84	30680.62
521.05	30512.69
521.25	31161.89
521.45	31137.32
521.66	31256.10
521.86	30690.86
522.07	31034.92
522.27	30873.13
522.47	31217.19
522.68	31426.08
522.88	31442.46
523.08	31532.57
523.29	31165.99
523.49	31634.97
523.70	32005.66
523.90	31907.35
524.10	31927.83
524.31	31989.27
524.51	31628.83
524.71	31835.67
524.92	32103.96
525.12	32689.68
525.33	32579.09
525.53	32450.06
525.73	32572.94
525.94	32644.62
526.14	32886.28
526.34	32941.58
526.55	33193.48
526.75	33037.83
526.95	33166.85
527.16	33365.51
527.36	33400.32
527.56	33689.09
527.77	33955.32
527.97	33377.79
528.17	33641.98
528.38	33693.18
528.58	33508.86
528.78	33846.78
528.99	33820.16
529.19	34207.22
529.39	33859.07
529.60	34469.36
529.80	34196.98
530.00	34151.93
530.21	34391.54
530.41	34958.83
530.61	34430.45
530.82	34864.62
531.02	34493.94
531.22	34893.29
531.43	34618.86
531.63	35098.09
531.83	35589.60
532.04	35730.91
532.24	35042.79
532.44	35610.08
532.64	35845.60
532.85	35956.19
533.05	35929.56
533.25	35857.88
533.46	35806.69
533.66	36384.21
533.86	35993.05
534.07	36390.36
534.27	36101.59
534.47	36681.17
534.67	36607.44
534.88	36541.91
535.08	36691.41
535.28	36873.68
535.49	37266.89
535.69	37313.99
535.89	37250.50
536.09	37094.86
536.30	37486.02
536.50	37363.14
536.70	37492.16
536.91	37320.13
537.11	37576.13
537.31	38073.79
537.51	37785.02
537.72	38208.95
537.92	38305.21
538.12	38868.40
538.32	38333.88
538.53	38286.78
538.73	38008.25
538.93	38229.43
539.13	38344.12
539.34	38899.12
539.54	38469.04
539.74	38872.49
539.94	39159.21
540.15	39034.28
540.35	38944.17
540.55	38972.85
540.75	39509.41
540.96	39255.46
541.16	39331.24
541.36	39339.43
541.56	39536.04
541.77	40125.85
541.97	39490.98
542.17	39822.75
542.37	40084.89
542.58	39798.18
542.78	40086.94
542.98	39931.29
543.18	40168.86
543.38	40312.22
543.59	40439.19
543.79	39835.04
543.99	40095.13
544.19	40885.65
544.40	40396.18
544.60	41008.53
544.80	41112.97
545.00	40912.27
545.20	40738.19
545.41	40777.11
545.61	40691.09
545.81	41360.78
546.01	41336.20
546.21	41127.31
546.42	41209.23
546.62	41043.34
546.82	41321.87
547.02	41549.19
547.22	41506.18
547.43	41651.59
547.63	41526.66
547.83	42198.40
548.03	41657.73
548.23	41796.99
548.44	41790.85
548.64	41743.75
548.84	42026.37
549.04	42233.21
549.24	42331.51
549.45	42726.77
549.65	41991.55
549.85	41801.09
550.05	42513.78
550.25	42257.79
550.45	42798.45
550.66	42458.49
550.86	42245.50
551.06	42808.69
551.26	42659.19
551.46	42825.07
551.66	42638.71
551.87	42786.16
552.07	42943.86
552.27	43046.26
552.47	42679.67
552.67	43488.62
552.87	43015.54
553.07	43529.58
553.28	42954.10
553.48	43357.55
553.68	43216.24
553.88	43531.62
554.08	43324.78
554.28	43378.03
554.48	43380.07
554.69	43988.32
554.89	43355.50
555.09	43720.04
555.29	43517.29
555.49	43697.51
555.69	43859.30
555.89	43674.98
556.10	43832.68
556.30	43941.22
556.50	43855.20
556.70	43810.15
556.90	44483.93
557.10	44082.53
557.30	43951.46
557.50	44311.90
557.70	44666.20
557.91	44432.73
558.11	44442.97
558.31	44330.33
558.51	43957.60
558.71	44520.79
558.91	44733.78
559.11	44266.84
559.31	44361.05
559.51	44655.96
559.72	44647.77
559.92	44737.88
560.12	44774.74
560.32	44963.15
560.52	44459.35
560.72	44950.87
560.92	44940.63
561.12	45192.53
561.32	45360.46
561.52	45065.55
561.72	45215.05
561.93	45161.81
562.13	45040.98
562.33	45362.51
562.53	45804.87
562.73	44981.59
562.93	45356.36
563.13	45370.70
563.33	45458.76
563.53	45462.86
563.73	45450.57
563.93	45391.18
564.13	45876.55
564.33	45600.07
564.53	45628.74
564.74	45880.64
564.94	45727.05
565.14	45847.88
565.34	45368.65
565.54	45684.04
565.74	46128.45
565.94	46388.54
566.14	45806.92
566.34	45561.16
566.54	46277.95
566.74	45880.64
566.94	45901.12
567.14	45911.36
567.34	46056.77
567.54	46398.78
567.74	45909.32
567.94	46003.52
568.14	46490.94
568.34	46339.39
568.54	46464.32
568.74	46372.16
568.94	46396.73
569.14	46560.57
569.34	46349.63
569.54	46740.79
569.75	46603.58
569.95	46236.99
570.15	47193.39
570.35	46869.81
570.55	46474.55
570.75	46271.81
570.95	47136.05
571.15	47256.88
571.35	46791.99
571.55	47146.29
571.75	46884.15
571.95	46957.88
572.15	47469.87
572.35	47533.35
572.55	47119.66
572.75	47578.41
572.95	47437.10
573.15	47658.28
573.35	47277.36
573.55	47406.38
573.75	47392.04
573.95	47852.84
574.15	47469.87
574.35	47772.97
574.55	47934.76
574.75	47727.91
574.95	47826.21
575.15	47834.41
575.34	47527.21
575.54	48121.12
575.74	48432.41
575.94	47922.47
576.14	47686.95
576.34	48379.17
576.54	48117.03
576.74	48493.85
576.94	48166.18
577.14	48291.10
577.34	48403.74
577.54	47897.89
577.74	48565.53
577.94	48895.25
578.14	48669.98
578.34	48708.89
578.54	48280.86
578.74	48528.67
578.94	48905.49
579.14	48639.26
579.34	48799.00
579.54	48968.98
579.74	49155.35
579.94	48987.41
580.13	49251.60
580.33	48948.50
580.53	49313.04
580.73	49263.89
580.93	49659.15
581.13	49075.48
581.33	49782.02
581.53	49345.81
581.73	49452.30
581.93	49550.60
582.13	49585.42
582.33	50175.23
582.53	49775.88
582.73	50062.60
582.92	49691.91
583.12	49917.19
583.32	49880.33
583.52	49468.69
583.72	50242.82
583.92	49909.00
584.12	50271.49
584.32	50517.25
584.52	50484.48
584.72	50033.92
584.92	50406.65
585.11	50785.53
585.31	50453.76
585.51	50896.12
585.71	50582.78
585.91	50896.12
586.11	50482.43
586.31	50550.01
586.51	50758.91
586.71	50746.62
586.91	51068.15
587.10	51076.34
587.30	50810.10
587.50	51139.83
587.70	51309.81
587.90	51180.79
588.10	51264.75
588.30	51150.07
588.50	51668.20
588.69	51563.76
588.89	51066.10
589.09	51463.41
589.29	51535.09
589.49	51911.91
589.69	51754.22
589.89	51991.78
590.08	51551.47
590.28	51715.31
590.48	51768.55
590.68	51969.26
590.88	51975.40
591.08	52245.73
591.28	51680.49
591.47	52718.81
591.67	52040.93
591.87	52137.19
592.07	52489.44
592.27	52253.92
592.47	51950.82
592.67	52423.90
592.86	52106.47
593.06	52172.00
593.26	52366.56
593.46	52417.76
593.66	52757.72
593.86	52741.34
594.05	52829.40
594.25	53011.67
594.45	52509.92
594.65	52751.58
594.85	52053.22
595.05	52817.11
595.24	52671.71
595.44	52729.05
595.64	52776.15
595.84	52837.59
596.04	53087.45
596.23	53306.58
596.43	52837.59
596.63	53494.99
596.83	53333.20
597.03	53621.97
597.22	54121.67
597.42	53318.87
597.62	53894.35
597.82	53421.26
598.02	53445.84
598.21	53968.07
598.41	53322.96
598.61	53370.07
598.81	52958.42
599.01	54023.37
599.20	53806.28
599.40	53599.44
599.60	54002.89
599.80	53998.79
600.00	54328.52
600.19	54506.69
600.39	53781.71
600.59	54666.43
600.79	54250.69
600.98	54105.29
601.18	54328.52
601.38	54273.22
601.58	54740.16
601.78	54645.95
601.97	54287.56
602.17	54858.94
602.37	55035.06
602.57	54695.10
602.76	55073.98
602.96	54482.11
603.16	54932.67
603.36	55129.27
603.55	55256.24
603.75	55159.99
603.95	55733.42
604.15	55469.23
604.34	55131.32
604.54	55661.74
604.74	55571.63
604.94	55192.76
605.13	55852.20
605.33	55567.54
605.53	55149.75
605.73	55495.86
605.92	55780.52
606.12	55876.78
606.32	55559.34
606.52	55794.86
606.71	55997.61
606.91	56120.49
607.11	56036.52
607.30	56124.58
607.50	55821.48
607.70	56745.12
607.90	56104.10
608.09	56194.21
608.29	56272.04
608.49	56104.10
608.68	56272.04
608.88	56583.33
609.08	56341.67
609.28	56646.82
609.47	56042.66
609.67	57058.46
609.87	56394.92
610.06	56597.66
610.26	56366.24
610.46	56624.29
610.66	56511.65
610.85	56751.26
611.05	56704.16
611.25	56655.01
611.44	56186.02
611.64	56900.76
611.84	56308.90
612.03	56978.59
612.23	57132.18
612.43	57091.22
612.62	56800.41
612.82	56751.26
613.02	56644.77
613.21	56982.68
613.41	56636.58
613.61	57066.65
613.80	56358.05
614.00	57068.70
614.20	57296.02
614.39	56437.92
614.59	57197.72
614.79	56999.07
614.98	56859.80
615.18	56573.09
615.38	57230.49
615.57	56941.72
615.77	57013.40
615.97	57181.34
616.16	57246.87
616.36	57255.06
616.56	57504.91
616.75	57107.61
616.95	57072.79
617.15	57023.64
617.34	56966.30
617.54	56980.63
617.74	57588.88
617.93	57293.97
618.13	56878.24
618.32	56839.32
618.52	57214.10
618.72	56683.68
618.91	57115.80
619.11	57279.64
619.31	57119.90
619.50	56962.20
619.70	57150.62
619.90	57533.59
620.09	56970.39
620.29	57031.83
620.48	56984.73
620.68	57191.58
620.88	56898.72
621.07	57074.84
621.27	57107.61
621.46	56855.71
621.66	56933.53
621.86	57019.55
622.05	56521.89
622.25	57386.13
622.44	57183.38
622.64	56779.93
622.84	57345.17
623.03	56865.95
623.23	57144.47
623.42	56681.63
623.62	56816.80
623.82	57320.60
624.01	57242.77
624.21	57216.15
624.40	57103.51
624.60	57072.79
624.80	56954.01
624.99	57062.55
625.19	56153.26
625.38	56847.52
625.58	57113.75
625.77	57214.10
625.97	57169.05
626.17	56921.24
626.36	56970.39
626.56	57355.41
626.75	56648.86
626.95	57197.72
627.14	57150.62
627.34	57244.82
627.54	57205.91
627.73	56964.25
627.93	57300.12
628.12	57134.23
628.32	56994.97
628.51	57253.01
628.71	57308.31
628.90	57232.53
629.10	57361.56
629.30	57367.70
629.49	56872.09
629.69	57085.08
629.88	57001.11
630.08	57547.92
630.27	57623.70
630.47	57140.38
630.66	56671.39
630.86	57341.08
631.05	56968.35
631.25	57627.79
631.44	57324.69
631.64	57244.82
631.84	57367.70
632.03	57668.75
632.23	57443.48
632.42	57713.81
632.62	57437.33
632.81	57349.27
633.01	57554.07
633.20	57824.40
633.40	57455.76
633.59	57259.16
633.79	57064.60
633.98	57275.54
634.18	57529.49
634.37	57201.82
634.57	57031.83
634.76	57601.17
634.96	57861.26
635.15	57638.03
635.35	57447.57
635.54	56947.87
635.74	57943.18
635.93	56939.68
636.13	57554.07
636.32	57216.15
636.52	57263.25
636.71	57640.08
636.91	57578.64
637.10	57830.54
637.30	57183.38
637.49	57394.32
637.69	57314.45
637.88	57879.69
638.08	57167.00
638.27	57836.69
638.46	57177.24
638.66	57336.98
638.85	57664.66
639.05	58037.39
639.24	57724.05
639.44	57447.57
639.63	57574.55
639.83	57853.07
640.02	57824.40
640.22	57607.31
640.41	58201.22
640.61	57336.98
640.80	57509.01
640.99	57267.35
641.19	58045.58
641.38	57484.43
641.58	57920.65
641.77	57588.88
641.97	57447.57
642.16	57562.26
642.36	57713.81
642.55	58258.57
642.74	57775.25
642.94	58659.97
643.13	58090.63
643.33	58365.06
643.52	57928.84
643.72	57853.07
643.91	57947.28
644.10	58102.92
644.30	58258.57
644.49	58403.97
644.69	58053.77
644.88	58092.68
645.08	57818.25
645.27	58252.42
645.46	58113.16
645.66	58406.02
645.85	58233.99
646.05	58107.02
646.24	58252.42
646.43	58430.60
646.63	58426.50
646.82	58664.06
647.02	58565.76
647.21	58274.95
647.40	58248.33
647.60	58186.89
647.79	58588.29
647.99	58655.87
648.18	58274.95
648.37	58901.63
648.57	58737.79
648.76	58717.31
648.96	58543.23
649.15	59065.47
649.34	58547.33
649.54	58461.32
649.73	58727.55
649.92	58932.35
650.12	58512.52
650.31	58885.25
650.51	58905.73
650.70	58823.81
650.89	58713.22
651.09	59432.05
651.28	58913.92
651.47	58963.07
651.67	58999.93
651.86	59212.92
652.06	58397.83
652.25	58846.33
652.44	58674.30
652.64	58809.47
652.83	58459.27
653.02	58684.54
653.22	58594.43
653.41	58842.24
653.60	58741.89
653.80	58803.33
653.99	58854.53
654.18	58686.59
654.38	58625.15
654.57	58811.52
654.76	58668.16
654.96	58809.47
655.15	58842.24
655.34	59106.43
655.54	58162.31
655.73	58893.44
655.92	58885.25
656.12	58909.82
656.31	59178.10
656.50	59204.73
656.70	59014.27
656.89	59081.85
657.08	58872.96
657.28	59184.25
657.47	59292.79
657.66	59311.22
657.86	58741.89
658.05	58700.93
658.24	59139.19
658.43	58918.01
658.63	59192.44
658.82	59135.10
659.01	59286.65
659.21	59448.44
659.40	59085.95
659.59	59137.15
659.79	59485.30
659.98	59145.34
660.17	59516.02
660.36	59024.51
660.56	59028.60
660.75	59446.39
660.94	58858.62
661.14	59581.55
661.33	59217.02
661.52	58735.74
661.71	59257.98
661.91	58705.02
662.10	58987.64
662.29	59405.43
662.49	59135.10
662.68	59079.80
662.87	59233.40
663.06	59520.12
663.26	59047.04
663.45	59618.42
663.64	58815.61
663.83	59503.73
664.03	59348.09
664.22	59112.57
664.41	59231.35
664.60	59292.79
664.80	59184.25
664.99	59143.29
665.18	58891.39
665.37	59401.33
665.57	59454.58
665.76	59077.75
665.95	59413.62
666.14	59079.80
666.34	59118.71
666.53	59055.23
666.72	59208.82
666.91	59102.33
667.11	58926.20
667.30	58946.68
667.49	59288.70
667.68	59253.88
667.87	59380.85
668.07	59454.58
668.26	59456.63
668.45	59090.04
668.64	59081.85
668.84	59817.07
669.03	59051.13
669.22	59569.27
669.41	59227.26
669.60	59298.94
669.80	59157.63
669.99	59255.93
670.18	58922.11
670.37	59679.86
670.57	59499.64
670.76	58799.23
670.95	59620.47
671.14	59192.44
671.33	58868.86
671.53	59579.51
671.72	59073.66
671.91	59128.95
672.10	59145.34
672.29	59395.19
672.48	59278.46
672.68	59937.90
672.87	59229.30
673.06	58866.81
673.25	58930.30
673.44	58834.05
673.64	58692.74
673.83	58858.62
674.02	59382.90
674.21	59032.70
674.40	59077.75
674.59	58528.90
674.79	58934.40
674.98	59137.15
675.17	59413.62
675.36	59063.42
675.55	59460.72
675.74	58856.57
675.94	59012.22
676.13	59055.23
676.32	59161.72
676.51	59384.95
676.70	58858.62
676.89	59131.00
677.08	59475.06
677.28	58893.44
677.47	58934.40
677.66	59565.17
677.85	58889.34
678.04	59036.80
678.23	59253.88
678.42	59131.00
678.62	59413.62
678.81	59466.87
679.00	59387.00
679.19	59812.98
679.38	58895.49
679.57	58717.31
679.76	59014.27
679.96	59145.34
680.15	59016.32
680.34	58893.44
680.53	58944.64
680.72	59126.91
680.91	59032.70
681.10	58862.72
681.29	59196.54
681.48	58836.09
681.68	58733.70
681.87	58993.79
682.06	59081.85
682.25	57937.04
682.44	58596.48
682.63	58829.95
682.82	58762.37
683.01	58782.85
683.20	58479.75
683.39	58725.50
683.59	58080.39
683.78	58213.51
683.97	58436.74
684.16	58449.03
684.35	58520.71
684.54	58479.75
684.73	58688.64
684.92	57971.85
685.11	58004.62
685.30	57975.95
685.49	58303.62
685.69	58141.83
685.88	58858.62
686.07	58131.59
686.26	57922.70
686.45	58154.12
686.64	58408.07
686.83	58168.46
687.02	58854.53
687.21	58170.50
687.40	57818.25
687.59	58320.01
687.78	57828.49
687.97	58334.34
688.16	58203.27
688.35	57992.33
688.54	58246.28
688.74	58119.31
688.93	57988.24
689.12	58123.40
689.31	58061.96
689.50	57891.98
689.69	57779.34
689.88	57527.44
690.07	58244.23
690.26	58209.42
690.45	58545.28
690.64	57758.86
690.83	57488.53
691.02	57513.11
691.21	57713.81
691.40	57832.59
691.59	58027.15
691.78	57758.86
691.97	57818.25
692.16	57568.40
692.35	57967.76
692.54	58010.76
692.73	58010.76
692.92	57554.07
693.11	57531.54
693.30	57357.46
693.49	57627.79
693.68	57121.94
693.87	57246.87
694.06	57654.42
694.25	57273.49
694.44	56913.05
694.63	57549.97
694.82	57293.97
695.01	57470.10
695.20	57136.28
695.39	56997.02
695.58	57078.94
695.77	57021.59
695.96	56927.39
696.15	57517.20
696.34	56503.46
696.53	56868.00
696.72	57218.20
696.91	57107.61
697.10	56908.96
697.29	56413.35
697.48	57197.72
697.67	56251.56
697.86	56839.32
698.05	56644.77
698.24	56941.72
698.43	56370.34
698.62	56663.20
698.81	56939.68
699.00	57128.09
699.19	56343.72
699.38	56767.65
699.57	56036.52
699.76	56730.78
699.95	56267.94
700.14	56437.92
700.32	56356.00
700.51	56155.30
700.70	56554.66
700.89	56411.30
701.08	56415.40
701.27	56214.69
701.46	56720.54
701.65	55667.89
701.84	56149.16
702.03	56007.85
702.22	55772.33
702.41	56345.76
702.60	56272.04
702.79	55860.40
702.98	55930.03
703.17	56194.21
703.35	55989.42
703.54	56155.30
703.73	55958.70
703.92	55776.43
704.11	56130.73
704.30	55762.09
704.49	55702.70
704.68	56013.99
704.87	55614.64
705.06	55958.70
705.25	55565.49
705.43	55637.17
705.62	55616.69
705.81	55491.76
706.00	55557.30
706.19	55467.19
706.38	55254.20
706.57	55678.13
706.76	55192.76
706.95	55426.23
707.14	54969.53
707.32	55596.21
707.51	55551.15
707.70	55415.99
707.89	55399.60
708.08	55379.12
708.27	55131.32
708.46	55286.96
708.65	55078.07
708.84	55637.17
709.02	55080.12
709.21	55149.75
709.40	55088.31
709.59	55073.98
709.78	54676.67
709.97	55053.50
710.16	54723.77
710.34	54484.16
710.53	54797.50
710.72	54467.78
710.91	54418.63
711.10	54768.83
711.29	54914.23
711.48	54396.10
711.66	54711.49
711.85	54572.22
712.04	54516.93
712.23	54774.97
712.42	54787.26
712.61	54670.53
712.80	54650.05
712.98	54437.06
713.17	54277.32
713.36	54219.97
713.55	54193.35
713.74	54367.43
713.93	54248.64
714.11	54185.16
714.30	53855.43
714.49	54164.68
714.68	54041.80
714.87	53984.46
715.06	54066.38
715.24	54039.75
715.43	54031.56
715.62	53837.00
715.81	53566.67
716.00	53486.80
716.18	53251.28
716.37	53343.44
716.56	53380.31
716.75	53595.34
716.94	53558.48
717.12	52788.44
717.31	53894.35
717.50	53200.08
717.69	53269.72
717.88	53753.04
718.06	53503.18
718.25	53693.64
718.44	53005.53
718.63	53664.97
718.82	52925.66
719.00	53396.69
719.19	52810.97
719.38	53107.93
719.57	52581.60
719.76	52673.76
719.94	52360.42
720.13	52761.82
720.32	52878.55
720.51	52911.32
720.69	52311.27
720.88	52532.45
721.07	52153.57
721.26	52020.45
721.44	52241.63
721.63	52622.56
721.82	52047.08
722.01	52057.32
722.20	52366.56
722.38	51983.59
722.57	51762.41
722.76	51909.86
722.95	51690.73
723.13	51387.63
723.32	51553.52
723.51	51385.58
723.70	51215.60
723.88	51770.60
724.07	51311.86
724.26	51504.37
724.44	51262.71
724.63	51487.98
724.82	51252.47
725.01	51277.04
725.19	51645.68
725.38	51272.95
725.57	51139.83
725.76	51111.16
725.94	50906.36
726.13	50980.09
726.32	50963.70
726.51	50904.31
726.69	51315.95
726.88	51193.07
727.07	50869.50
727.25	50674.94
727.44	51072.24
727.63	50550.01
727.82	51141.88
728.00	50750.71
728.19	50760.95
728.38	51150.07
728.56	50664.70
728.75	51152.12
728.94	50711.80
729.12	50562.30
729.31	50746.62
729.50	50627.84
729.69	51049.72
729.87	51059.96
730.06	50824.44
730.25	50867.45
730.43	50785.53
730.62	50423.04
730.81	50865.40
730.99	50857.21
731.18	50550.01
731.37	50597.12
731.55	50779.39
731.74	51115.25
731.93	51156.21
732.11	51064.05
732.30	50689.27
732.49	50793.72
732.67	50599.16
732.86	50586.88
733.05	50763.00
733.23	50210.05
733.42	50468.09
733.61	50449.66
733.79	50564.35
733.98	50869.50
734.17	50261.25
734.35	50418.94
734.54	50337.02
734.73	50339.07
734.91	50588.92
735.10	50388.22
735.29	50558.20
735.47	50017.54
735.66	50095.36
735.84	50173.19
736.03	49880.33
736.22	50558.20
736.40	50214.15
736.59	50097.41
736.78	50445.57
736.96	50273.54
737.15	50152.71
737.33	50081.03
737.52	50056.45
737.71	49956.10
737.89	50142.47
738.08	49929.48
738.27	49650.95
738.45	50160.90
738.64	49749.26
738.82	50083.08
739.01	49706.25
739.20	49745.16
739.38	49554.70
739.57	49845.51
739.75	49696.01
739.94	49392.91
740.13	49423.63
740.31	49648.91
740.50	49749.26
740.68	49732.87
740.87	49409.29
741.06	49554.70
741.24	49452.30
741.43	49089.81
741.61	49583.37
741.80	49120.53
741.99	48868.63
742.17	49061.14
742.36	49241.36
742.54	49149.20
742.73	49132.82
742.91	49476.88
743.10	48868.63
743.29	49904.90
743.47	49276.18
743.66	49108.24
743.84	49386.77
744.03	49423.63
744.21	48600.35
744.40	49114.39
744.59	48575.77
744.77	48913.69
744.96	49073.43
745.14	48911.64
745.33	49007.89
745.51	48760.09
745.70	48669.98
745.88	48807.19
746.07	48483.61
746.26	48637.21
746.44	48753.94
746.63	48170.27
746.81	48332.06
747.00	48481.56
747.18	48299.30
747.37	48235.81
747.55	48424.22
747.74	48954.64
747.92	48282.91
748.11	48217.38
748.29	48583.96
748.48	48196.90
748.66	48305.44
748.85	48334.11
749.03	48289.06
749.22	47809.83
749.41	47969.57
749.59	48282.91
749.78	48291.10
749.96	47732.01
750.15	48047.39
750.33	48436.51
750.52	48082.21
750.70	47854.89
750.89	48200.99
751.07	47748.39
751.26	47729.96
751.44	48106.79
751.63	47701.29
751.81	47148.34
752.00	47559.98
752.18	47772.97
752.37	47539.50
752.55	47605.03
752.74	47396.14
752.92	47764.78
753.10	47158.58
753.29	47564.07
753.47	46961.97
753.66	46802.23
753.84	47195.44
754.03	47359.28
754.21	47144.24
754.40	47519.02
754.58	47123.76
754.77	47324.46
754.95	46855.48
755.14	47461.68
755.32	47422.76
755.51	47183.15
755.69	46568.76
755.88	46814.52
756.06	46896.44
756.24	46452.03
756.43	46558.52
756.61	46855.48
756.80	46511.42
756.98	46718.26
757.17	46335.29
757.35	46853.43
757.54	46253.37
757.72	46316.86
757.90	46359.87
758.09	46087.49
758.27	46032.19
758.46	46050.63
758.64	46124.35
758.83	46206.27
759.01	46546.23
759.19	46208.32
759.38	46028.10
759.56	46236.99
759.75	45538.63
759.93	46316.86
760.12	45444.43
760.30	46091.58
760.48	45620.55
760.67	45903.17
760.85	45866.31
761.04	45849.92
761.22	46089.54
761.40	45626.70
761.59	45552.97
761.77	45671.75
761.96	45421.90
762.14	45477.19
762.32	45665.61
762.51	45358.41
762.69	45282.64
762.88	45595.98
763.06	45335.88
763.24	45411.66
763.43	45417.80
763.61	44830.04
763.80	45075.79
763.98	44922.19
764.16	44899.67
764.35	44959.06
764.53	44283.23
764.72	44979.54
764.90	45233.49
765.08	44821.84
765.27	44854.61
765.45	44539.22
765.63	44639.57
765.82	44731.73
766.00	44178.78
766.18	44377.43
766.37	44922.19
766.55	44533.08
766.74	44381.53
766.92	44080.48
767.10	44191.07
767.29	44359.00
767.47	43781.48
767.65	44328.28
767.84	43892.07
768.02	44027.23
768.20	43941.22
768.39	44172.64
768.57	43720.04
768.75	44121.44
768.94	43722.08
769.12	43949.41
769.30	43513.19
769.49	43597.16
769.67	43685.22
769.85	43242.86
770.04	43732.32
770.22	43455.85
770.40	43650.41
770.59	43165.04
770.77	43828.58
770.95	43259.24
771.14	43134.32
771.32	42628.47
771.50	42993.01
771.69	42859.89
771.87	43097.45
772.05	42767.73
772.24	42761.59
772.42	42806.64
772.60	42952.05
772.78	42698.10
772.97	42814.83
773.15	42804.59
773.33	43146.61
773.52	42866.03
773.70	43074.93
773.88	42804.59
774.07	42579.32
774.25	43029.87
774.43	43140.46
774.61	42728.82
774.80	43021.68
774.98	42384.76
775.16	43040.11
775.34	42438.01
775.53	42235.26
775.71	42950.00
775.89	42999.15
776.08	42890.61
776.26	43087.21
776.44	42970.48
776.62	42628.47
776.81	42485.11
776.99	42626.42
777.17	42730.87
777.35	42524.02
777.54	43115.89
777.72	42737.01
777.90	42800.50
778.08	42982.77
778.27	43009.39
778.45	43298.16
778.63	43162.99
778.81	42960.24
779.00	43705.70
779.18	42911.09
779.36	43646.31
779.54	43175.28
779.73	42653.05
779.91	43478.38
780.09	43232.62
780.27	43701.61
780.46	43019.63
780.64	43304.30
780.82	43238.76
781.00	43275.63
781.19	43341.16
781.37	43572.58
781.55	43418.99
781.73	44234.08
781.91	43226.48
782.10	43711.84
782.28	43533.67
782.46	43505.00
782.64	43634.02
782.82	43191.66
783.01	43973.98
783.19	44033.38
783.37	43728.23
783.55	43464.04
783.74	43746.66
783.92	43365.74
784.10	44301.66
784.28	43713.89
784.46	43521.38
784.64	43412.84
784.83	43726.18
785.01	43935.07
785.19	43894.11
785.37	43877.73
785.55	43517.29
785.74	43431.27
785.92	43648.36
786.10	43674.98
786.28	43664.74
786.46	43287.92
786.64	43253.10
786.83	43410.79
787.01	43220.33
787.19	43599.21
787.37	43146.61
787.55	43064.69
787.74	43193.71
787.92	43079.02
788.10	42751.35
788.28	42747.25
788.46	43160.94
788.64	42804.59
788.82	43562.34
789.01	42982.77
789.19	43115.89
789.37	42349.95
789.55	42718.58
789.73	42249.60
789.91	42452.34
790.09	42339.71
790.28	42403.19
790.46	41985.41
790.64	42206.59
790.82	42302.84
791.00	42036.61
791.18	42227.07
791.36	42194.30
791.55	42302.84
791.73	42020.22
791.91	41799.04
792.09	42059.13
792.27	41741.70
792.45	41880.96
792.63	41686.40
792.81	41606.53
793.00	41639.30
793.18	41438.60
793.36	41092.49
793.54	40990.09
793.72	40820.11
793.90	40785.30
794.08	40750.48
794.26	40818.07
794.44	40521.11
794.62	40551.83
794.81	41076.11
794.99	40510.87
795.17	40820.11
795.35	40322.46
795.53	40449.43
795.71	40383.90
795.89	40105.37
796.07	39880.10
796.25	39904.67
796.43	40232.35
796.61	39263.66
796.80	39505.32
796.98	39579.04
797.16	39468.45
797.34	39544.23
797.52	39048.62
797.70	39378.34
797.88	39495.08
798.06	38946.22
798.24	39142.83
798.42	39196.07
798.60	38960.56
798.78	38774.19
798.96	39079.34
799.14	38589.88
799.32	38806.96
799.51	38471.09
799.69	38759.86
799.87	38665.65
800.05	38172.09
800.23	38475.19
800.41	38041.02
800.59	38116.79
800.77	37852.61
800.95	37864.89
801.13	37819.84
801.31	37660.10
801.49	37477.83
801.67	37645.76
801.85	37471.68
802.03	37313.99
802.21	37262.79
802.39	37027.28
802.57	37066.19
802.75	36750.80
802.93	37199.30
803.11	36781.52
803.29	36525.52
803.47	36537.81
803.65	36599.25
803.83	36566.48
804.01	36570.58
804.19	36224.47
804.37	36097.50
804.55	36136.41
804.73	36077.02
804.91	36330.97
805.09	36081.11
805.27	36214.23
805.45	36134.36
805.63	36003.29
805.81	35909.08
805.99	35681.76
806.17	35761.63
806.35	35749.34
806.53	35874.27
806.71	35507.68
806.89	35433.96
807.07	35270.12
807.25	35380.71
807.43	34981.35
807.61	35562.98
807.79	35243.49
807.97	34999.79
808.15	34821.61
808.33	34770.41
808.51	34594.29
808.69	34878.96
808.87	34700.78
809.05	34432.50
809.23	34698.73
809.41	34192.89
809.59	34043.38
809.77	34227.70
809.95	34250.23
810.13	34498.03
810.31	33922.55
810.49	34108.92
810.67	33965.56
810.84	33879.55
811.02	33945.08
811.20	33324.55
811.38	33758.72
811.56	33486.34
811.74	33547.78
811.92	33324.55
812.10	33476.10
812.28	33390.08
812.46	33373.70
812.64	33183.24
812.82	33175.05
813.00	33271.30
813.18	33684.99
813.36	32853.51
813.53	32790.03
813.71	32972.30
813.89	33181.19
814.07	32804.36
814.25	32712.20
814.43	32556.56
814.61	32382.48
814.79	32609.81
814.97	32634.38
815.15	32318.99
815.33	32159.25
815.50	32085.53
815.68	32146.97
815.86	32548.37
816.04	31921.69
816.22	32243.22
816.40	32151.06
816.58	31925.78
816.76	31950.36
816.94	31852.06
817.11	31751.71
817.29	31968.79
817.47	31710.75
817.65	31634.97
817.83	31462.94
818.01	31264.29
818.19	31006.25
818.37	31389.22
818.54	31370.79
818.72	31137.32
818.90	31184.42
819.08	31024.68
819.26	31200.80
819.44	31004.20
819.62	31067.69
819.80	31176.23
819.97	31172.13
820.15	30862.89
820.33	30633.52
820.51	30969.38
820.69	30516.78
820.87	30717.48
821.05	31014.44
821.22	30418.48
821.40	30494.25
821.58	30410.29
821.76	30268.98
821.94	30441.01
822.12	30324.27
822.29	30479.92
822.47	29955.64
822.65	30092.85
822.83	30373.42
823.01	30029.37
823.19	30150.20
823.36	29861.43
823.54	29902.39
823.72	30088.76
823.90	30109.24
824.08	29615.68
824.25	29900.34
824.43	29177.41
824.61	29705.79
824.79	30047.80
824.97	29539.90
825.15	29777.47
825.32	29509.18
825.50	29240.90
825.68	29404.74
825.86	29451.84
826.04	29556.28
826.21	29271.62
826.39	29447.74
826.57	29169.22
826.75	29009.48
826.93	28851.78
827.10	29050.44
827.28	29257.28
827.46	29113.92
827.64	28937.80
827.81	28735.05
827.99	29085.25
828.17	28739.15
828.35	28667.47
828.53	28780.10
828.70	28710.47
828.88	28743.24
829.06	28743.24
829.24	28747.34
829.41	28479.05
829.59	28642.89
829.77	28517.96
829.95	28294.74
830.12	28286.54
830.30	28188.24
830.48	28407.37
830.66	28364.37
830.84	28419.66
831.01	28524.11
831.19	28374.61
831.37	27860.57
831.55	27807.32
831.72	27879.00
831.90	27999.83
832.08	27895.38
832.25	27946.58
832.43	27924.05
832.61	27942.49
832.79	27899.48
832.96	27866.71
833.14	27831.90
833.32	28196.43
833.50	27829.85
833.67	27567.71
833.85	27670.11
834.03	27371.10
834.20	27653.72
834.38	27418.21
834.56	27479.64
834.74	27410.01
834.91	27512.41
835.09	27233.89
835.27	27147.87
835.44	27102.82
835.62	27045.48
835.80	26895.97
835.98	26967.65
836.15	26883.69
836.33	27051.62
836.51	27436.64
836.68	26904.17
836.86	26775.14
837.04	27037.28
837.21	27119.20
837.39	26936.93
837.57	26709.61
837.75	26912.36
837.92	26392.17
838.10	26429.04
838.28	26445.42
838.45	26398.32
838.63	26840.68
838.81	26445.42
838.98	26488.43
839.16	26386.03
839.34	26234.48
839.51	26375.79
839.69	26371.69
839.87	26244.72
840.04	26429.04
840.22	26431.08
840.40	26119.79
840.57	25939.57
840.75	26099.31
840.93	25908.85
841.10	26224.24
841.28	26244.72
841.46	26056.31
841.63	26091.12
841.81	26054.26
841.98	25939.57
842.16	26068.59
842.34	26025.59
842.51	25837.17
842.69	26265.20
842.87	25785.97
843.04	26181.23
843.22	25659.00
843.40	25964.15
843.57	25636.47
843.75	25644.66
843.92	25935.48
844.10	25816.69
844.28	25581.18
844.45	25511.55
844.63	25462.40
844.81	25296.51
844.98	25501.31
845.16	25259.65
845.33	25458.30
845.51	25431.68
845.69	25329.28
845.86	24874.63
846.04	25024.13
846.21	25138.82
846.39	25099.90
846.57	25204.35
846.74	25155.20
846.92	24948.36
847.09	25056.90
847.27	24675.98
847.45	25183.87
847.62	24991.36
847.80	24635.02
847.97	25042.56
848.15	25048.71
848.32	24678.02
848.50	24788.61
848.68	24602.25
848.85	24616.58
849.03	24305.29
849.20	24491.66
849.38	24436.36
849.56	24800.90
849.73	24436.36
849.91	24225.42
850.08	24252.05
850.26	24155.79
850.43	24256.14
850.61	24555.15
850.78	24120.98
850.96	24151.70
851.14	24217.23
851.31	24536.71
851.49	23856.79
851.66	24149.65
851.84	23875.22
852.01	24053.39
852.19	24272.53
852.36	23914.13
852.54	23686.81
852.71	24026.77
852.89	23705.24
853.07	23717.53
853.24	23975.57
853.42	23848.60
853.59	23858.84
853.77	24114.83
853.94	23596.70
854.12	23877.27
854.29	23510.68
854.47	23637.66
854.64	23557.78
854.82	23828.12
854.99	23602.84
855.17	23834.26
855.34	23385.76
855.52	23563.93
855.69	23645.85
855.87	23217.82
856.04	23334.56
856.22	23420.57
856.39	23199.39
856.57	23129.76
856.74	23148.19
856.92	23484.06
857.09	23082.66
857.27	23109.28
857.44	23361.18
857.62	23201.44
857.79	23135.90
857.97	23185.05
858.14	22924.96
858.32	23072.42
858.49	22824.61
858.67	23250.59
858.84	22742.69
859.02	22740.64
859.19	22970.02
859.37	22830.76
859.54	22701.73
859.72	23008.93
859.89	22845.09
860.06	22754.98
860.24	22464.17
860.41	22789.80
860.59	22572.71
860.76	22527.66
860.94	22306.48
861.11	22728.36
861.29	22505.13
861.46	22462.12
861.64	22226.60
861.81	22431.40
861.98	22408.87
862.16	22355.63
862.33	22199.98
862.51	22130.35
862.68	22208.17
862.86	22128.30
863.03	22197.93
863.21	22163.12
863.38	22355.63
863.55	21786.29
863.73	22060.72
863.90	21972.66
864.08	22007.47
864.25	21980.85
864.43	22107.82
864.60	21872.31
864.77	21857.97
864.95	21784.24
865.12	21606.07
865.30	21628.60
865.47	21573.30
865.64	21597.88
865.82	21694.13
865.99	21868.21
866.17	21423.80
866.34	21550.78
866.51	21538.49
866.69	21792.44
866.86	21354.17
867.04	21612.21
867.21	21532.34
867.38	21288.64
867.56	21251.77
867.73	21122.75
867.91	21204.67
868.08	21159.61
868.25	21114.56
868.43	21364.41
868.60	21313.21
868.78	20993.73
868.95	21235.39
869.12	21208.76
869.30	20895.43
869.47	20983.49
869.64	20993.73
869.82	20915.90
869.99	20915.90
870.16	21139.13
870.34	20422.34
870.51	20942.53
870.69	20686.53
870.86	20723.40
871.03	20739.78
871.21	20338.38
871.38	20629.19
871.55	20350.67
871.73	20623.05
871.90	20432.58
872.07	20143.82
872.25	20082.38
872.42	20307.66
872.59	20367.05
872.77	20178.64
872.94	20049.61
873.11	19994.32
873.29	20369.10
873.46	20172.49
873.63	20059.85
873.81	20018.89
873.98	19998.41
874.15	20025.04
874.33	19676.88
874.50	19515.09
874.67	19896.02
874.85	19599.06
875.02	19777.23
875.19	19486.42
875.37	19625.68
875.54	19437.27
875.71	19312.35
875.88	19502.81
876.06	19439.32
876.23	19381.98
876.40	19224.28
876.58	19427.03
876.75	19324.63
876.92	19154.65
877.10	19248.86
877.27	19125.98
877.44	19103.45
877.61	19021.53
877.79	18816.74
877.96	18982.62
878.13	18976.48
878.31	18886.37
878.48	18968.29
878.65	18972.38
878.82	18796.26
879.00	18923.23
879.17	18757.35
879.34	18685.67
879.51	18669.28
879.69	18388.71
879.86	18540.26
880.03	18503.40
880.21	18509.54
880.38	18534.12
880.55	18304.74
880.72	18429.67
880.90	18362.09
881.07	18593.51
881.24	18376.42
881.41	18433.77
881.59	18403.05
881.76	18339.56
881.93	18263.79
882.10	18005.74
882.28	17901.29
882.45	18110.19
882.62	17999.60
882.79	18116.33
882.96	17936.11
883.14	18222.83
883.31	18259.69
883.48	17991.41
883.65	17999.60
883.83	17915.63
884.00	18210.54
884.17	17897.20
884.34	17989.36
884.51	17792.75
884.69	17886.96
884.86	18122.48
885.03	17688.31
885.20	17442.55
885.38	17958.64
885.55	17592.05
885.72	17829.62
885.89	17678.07
886.06	17884.91
886.24	17489.65
886.41	17520.37
886.58	17600.24
886.75	17460.98
886.92	17483.51
887.10	17520.37
887.27	17438.45
887.44	17434.36
887.61	17555.19
887.78	17503.99
887.95	17551.09
888.13	17303.29
888.30	17170.17
888.47	17278.71
888.64	17325.82
888.81	17256.18
888.99	17209.08
889.16	17043.20
889.33	16779.01
889.50	16998.14
889.67	17022.72
889.84	16785.15
890.01	17018.62
890.19	16742.14
890.36	16979.71
890.53	16809.73
890.70	16725.76
890.87	16746.24
891.04	16707.33
891.22	16598.79
891.39	16512.77
891.56	16598.79
891.73	16453.38
891.90	16643.84
892.07	16267.02
892.24	16711.42
892.42	16451.33
892.59	16504.58
892.76	16504.58
892.93	16619.27
893.10	16557.83
893.27	16572.16
893.44	16293.64
893.61	16393.99
893.79	16387.85
893.96	16260.87
894.13	16285.45
894.30	16410.37
894.47	16248.58
894.64	16455.43
894.81	16492.29
894.98	16373.51
895.15	16324.36
895.33	16275.21
895.50	16209.67
895.67	16398.09
895.84	16090.89
896.01	16197.38
896.18	16070.41
896.35	16264.97
896.52	16072.46
896.69	16123.66
896.86	16310.02
897.04	16312.07
897.21	16262.92
897.38	16172.81
897.55	16267.02
897.72	16400.13
897.89	16094.99
898.06	16037.64
898.23	16097.03
898.40	16133.90
898.57	16389.89
898.74	16074.51
898.91	16199.43
899.08	16162.57
899.26	16133.90
899.43	16248.58
899.60	16168.71
899.77	16049.93
899.94	15929.10
900.11	16064.27
900.28	16101.13
900.45	15732.50
900.62	15959.82
900.79	16156.43
900.96	16043.79
901.13	16094.99
901.30	15898.38
901.47	15810.32
901.64	15847.18
901.81	16084.75
901.98	15900.43
902.15	15976.20
902.32	15945.48
902.49	15882.00
902.66	15941.39
902.83	15812.37
903.01	15992.59
903.18	15935.24
903.35	15935.24
903.52	15781.65
903.69	16029.45
903.86	16019.21
904.03	16004.88
904.20	15959.82
904.37	15941.39
904.54	15783.70
904.71	15927.05
904.88	15798.03
905.05	16115.47
905.22	16031.50
905.39	15793.94
905.56	15820.56
905.73	15914.77
905.90	16148.23
906.07	15718.16
906.24	15841.04
906.41	15847.18
906.58	16043.79
906.75	15994.64
906.92	15640.34
907.09	15544.08
907.26	15773.46
907.43	15746.83
907.60	15671.06
907.77	16002.83
907.93	15886.09
908.10	15816.46
908.27	15916.81
908.44	15660.82
908.61	15652.63
908.78	15787.79
908.95	15701.78
909.12	15646.48
909.29	15793.94
909.46	15519.51
909.63	15740.69
909.80	15853.33
909.97	15640.34
910.14	15638.29
910.31	15662.86
910.48	15619.86
910.65	15619.86
910.82	15398.68
910.99	15587.09
911.16	15527.70
911.33	15576.85
911.50	15279.89
911.66	15355.67
911.83	15472.40
912.00	15515.41
912.17	15261.46
912.34	15273.75
912.51	15529.75
912.68	15101.72
912.85	15290.13
913.02	15347.48
913.19	15265.56
913.36	14984.99
913.53	15333.14
913.70	15159.06
913.86	15195.93
914.03	15271.70
914.20	14939.93
914.37	15273.75
914.54	15183.64
914.71	14929.69
914.88	15075.10
915.05	15060.76
915.22	14909.21
915.39	14636.83
915.55	14720.80
915.72	14847.77
915.89	14794.53
916.06	14831.39
916.23	14780.19
916.40	14683.94
916.57	14655.26
916.74	14563.11
916.91	14503.71
917.07	14376.74
917.24	14411.56
917.41	14526.24
917.58	14505.76
917.75	14544.67
917.92	14270.25
918.09	14202.66
918.26	14268.20
918.42	14323.49
918.59	14362.40
918.76	14356.26
918.93	14004.01
919.10	13958.96
919.27	14098.22
919.44	13969.19
919.60	14151.46
919.77	14075.69
919.94	13930.28
920.11	13840.17
920.28	13713.20
920.45	13817.65
920.61	13768.49
920.78	13651.76
920.95	13657.90
921.12	13797.17
921.29	13469.49
921.46	13516.59
921.62	13565.74
921.79	13700.91
921.96	13334.32
922.13	13264.69
922.30	13270.84
922.47	13092.66
922.63	13055.80
922.80	13098.81
922.97	12982.07
923.14	12844.86
923.31	13055.80
923.47	12977.98
923.64	13051.70
923.81	12742.46
923.98	12930.87
924.15	12773.18
924.32	12810.04
924.48	12771.13
924.65	12861.24
924.82	12607.30
924.99	12566.34
925.15	12209.99
925.32	12414.79
925.49	12322.63
925.66	12394.31
925.83	12037.96
925.99	12209.99
926.16	12130.12
926.33	12218.18
926.50	12138.31
926.67	12085.06
926.83	12269.38
927.00	11898.70
927.17	11956.04
927.34	11753.29
927.50	11734.86
927.67	11997.00
927.84	11925.32
928.01	11763.53
928.17	11489.10
928.34	11738.96
928.51	11556.69
928.68	11597.65
928.84	11300.69
929.01	11296.60
929.18	11190.10
929.35	11286.36
929.51	11398.99
929.68	11130.71
929.85	11075.42
930.02	11265.88
930.18	11046.74
930.35	11091.80
930.52	11071.32
930.69	10973.02
930.85	10923.87
931.02	10819.42
931.19	10809.18
931.36	10807.13
931.52	10747.74
931.69	10710.88
931.86	10616.67
932.02	10504.03
932.19	10401.63
932.36	10680.16
932.53	10407.78
932.69	10262.37
932.86	10538.85
933.03	10442.59
933.19	10151.78
933.36	10121.06
933.53	10334.05
933.70	9963.37
933.86	10104.68
934.03	9920.36
934.20	10078.05
934.36	10166.12
934.53	9740.14
934.70	9670.51
934.86	9510.77
935.03	9533.29
935.20	9467.76
935.36	9471.86
935.53	9305.97
935.70	9469.81
935.86	9283.44
936.03	9158.52
936.20	9035.64
936.36	8947.58
936.53	8892.28
936.70	8834.94
936.86	8966.01
937.03	8798.07
937.20	8849.27
937.36	8568.70
937.53	8331.14
937.70	8392.58
937.86	8159.11
938.03	8224.64
938.20	8083.33
938.36	8048.52
938.53	8019.85
938.70	7729.03
938.86	7761.80
939.03	7458.70
939.20	7663.50
939.36	7548.81
939.53	7544.72
939.70	7632.78
939.86	7055.25
940.03	7034.77
940.19	7161.75
940.36	7153.55
940.53	7014.29
940.69	7133.08
940.86	6965.14
941.03	6729.63
941.19	6782.87
941.36	6723.48
941.52	6664.09
941.69	6520.73
941.86	6549.40
942.02	6533.02
942.19	6502.30
942.35	6399.90
942.52	6176.67
942.69	6203.30
942.85	6078.37
943.02	6064.04
943.18	6164.39
943.35	5939.11
943.52	5906.34
943.68	5889.96
943.85	5947.30
944.01	5797.80
944.18	5851.05
944.35	5834.66
944.51	5719.98
944.68	5693.35
944.84	5707.69
945.01	5773.22
945.17	5887.91
945.34	5775.27
945.51	5562.28
945.67	5658.54
945.84	5640.11
946.00	5545.90
946.17	5453.74
946.33	5353.39
946.50	5582.76
946.67	5574.57
946.83	5451.69
947.00	5468.08
947.16	5541.80
947.33	5474.22
947.49	5402.54
947.66	5324.72
947.82	5466.03
947.99	5539.76
948.16	5552.04
948.32	5332.91
948.49	5545.90
948.65	5580.71
948.82	5437.36
948.98	5613.48
949.15	5388.21
949.31	5449.64
949.48	5412.78
949.64	5466.03
949.81	5521.32
949.97	5367.73
950.14	5490.60
950.30	5564.33
950.47	5547.95
950.63	5519.28
950.80	5570.48
950.96	5582.76
951.13	5517.23
951.30	5459.88
951.46	5636.01
951.63	5748.65
951.79	5584.81
951.96	5552.04
952.12	5531.56
952.29	5502.89
952.45	5375.92
952.62	5537.71
952.78	5664.68
952.94	5738.41
953.11	5683.11
953.27	5443.50
953.44	5732.26
953.60	5701.54
953.77	5717.93
953.93	5636.01
954.10	5574.57
954.26	5734.31
954.43	5580.71
954.59	5636.01
954.76	5615.53
954.92	5631.91
955.09	5642.15
955.25	5650.35
955.42	5746.60
955.58	5726.12
955.75	5623.72
955.91	5482.41
956.07	5689.26
956.24	5709.74
956.40	5777.32
956.57	5726.12
956.73	5713.83
956.90	5564.33
957.06	5621.67
957.23	5754.79
957.39	5705.64
957.56	5816.23
957.72	5595.05
957.88	5650.35
958.05	5842.85
958.21	5693.35
958.38	5681.07
958.54	5662.63
958.71	5726.12
958.87	5664.68
959.03	5590.95
959.20	5595.05
959.36	5623.72
959.53	5564.33
959.69	5590.95
959.85	5691.31
960.02	5519.28
960.18	5623.72
960.35	5740.46
960.51	5842.85
960.68	5599.15
960.84	5695.40
961.00	5584.81
961.17	5664.68
961.33	5623.72
961.50	5607.34
961.66	5734.31
961.82	5588.91
961.99	5638.06
962.15	5724.07
962.31	5484.46
962.48	5679.02
962.64	5646.25
962.81	5660.59
962.97	5543.85
963.13	5539.76
963.30	5605.29
963.46	5666.73
963.62	5504.94
963.79	5445.55
963.95	5593.00
964.12	5550.00
964.28	5568.43
964.44	5441.45
964.61	5693.35
964.77	5402.54
964.93	5644.20
965.10	5504.94
965.26	5509.04
965.42	5484.46
965.59	5414.83
965.75	5472.17
965.92	5498.80
966.08	5418.93
966.24	5480.36
966.41	5576.62
966.57	5654.44
966.73	5468.08
966.90	5646.25
967.06	5509.04
967.22	5496.75
967.39	5404.59
967.55	5324.72
967.71	5380.01
967.88	5291.95
968.04	5388.21
968.20	5382.06
968.37	5369.77
968.53	5343.15
968.69	5351.34
968.85	5490.60
969.02	5357.49
969.18	5402.54
969.34	5427.12
969.51	5234.61
969.67	5410.73
969.83	5171.12
970.00	5404.59
970.16	5279.66
970.32	5377.97
970.48	5482.41
970.65	5308.34
970.81	5314.48
970.97	5189.55
971.14	5062.58
971.30	5324.72
971.46	5175.22
971.63	5199.79
971.79	5300.14
971.95	5232.56
972.11	5015.48
972.28	5148.59
972.44	5304.24
972.60	4972.47
972.76	5089.20
972.93	5046.20
973.09	4999.09
973.25	5138.35
973.42	4978.61
973.58	5187.50
973.74	5105.59
973.90	5207.98
974.07	4923.32
974.23	5124.02
974.39	5130.16
974.55	4990.90
974.72	5050.29
974.88	4974.52
975.04	4908.98
975.20	5033.91
975.37	4974.52
975.53	4865.97
975.69	4849.59
975.85	5019.57
976.01	4829.11
976.18	4908.98
976.34	4935.60
976.50	4958.13
976.66	4937.65
976.83	4833.21
976.99	4718.52
977.15	4825.01
977.31	4661.18
977.47	4892.60
977.64	4921.27
977.80	4859.83
977.96	4730.81
978.12	4689.85
978.29	4837.30
978.45	4655.03
978.61	4683.70
978.77	4800.44
978.93	4673.46
979.10	4741.05
979.26	4642.75
979.42	4624.31
979.58	4536.25
979.74	4589.50
979.91	4665.27
980.07	4519.87
980.23	4605.88
980.39	4591.55
980.55	4554.68
980.71	4736.95
980.88	4513.72
981.04	4657.08
981.20	4601.79
981.36	4532.15
981.52	4583.35
981.68	4569.02
981.85	4503.48
982.01	4495.29
982.17	4378.56
982.33	4345.79
982.49	4444.09
982.65	4448.19
982.82	4505.53
982.98	4480.96
983.14	4399.04
983.30	4493.24
983.46	4446.14
983.62	4421.56
983.79	4310.97
983.95	4257.73
984.11	4288.45
984.27	4337.60
984.43	4415.42
984.59	4349.89
984.75	4368.32
984.91	4302.78
985.08	4425.66
985.24	4364.22
985.40	4274.11
985.56	4333.50
985.72	4351.93
985.88	4280.25
986.04	4108.23
986.20	4155.33
986.37	4200.38
986.53	4181.95
986.69	4251.58
986.85	3997.64
987.01	4218.82
987.17	4370.37
987.33	4079.55
987.49	4003.78
987.65	4243.39
987.82	4167.62
987.98	4042.69
988.14	4087.75
988.30	4245.44
988.46	3985.35
988.62	4140.99
988.78	4030.40
988.94	4163.52
989.10	3919.81
989.26	3885.00
989.42	3928.00
989.59	4018.11
989.75	3858.37
989.91	3905.48
990.07	3876.80
990.23	3874.76
990.39	3960.77
990.55	3995.59
990.71	3835.85
990.87	3833.80
991.03	3993.54
991.19	3870.66
991.35	3854.28
991.51	3907.52
991.67	3907.52
991.83	3870.66
992.00	3844.04
992.16	3837.89
992.32	3852.23
992.48	3827.65
992.64	3702.73
992.80	3702.73
992.96	3719.11
993.12	3854.28
993.28	3837.89
993.44	3692.49
993.60	3778.50
993.76	3758.02
993.92	3717.06
994.08	3866.56
994.24	3852.23
994.40	3729.35
994.56	3839.94
994.72	3667.91
994.88	3542.99
995.04	3592.14
995.20	3624.90
995.36	3592.14
995.52	3667.91
995.68	3510.22
995.84	3622.86
996.00	3631.05
996.16	3612.62
996.32	3475.40
996.48	3452.88
996.64	3624.90
996.80	3592.14
996.96	3522.51
997.12	3475.40
997.28	3481.55
997.44	3422.16
997.60	3502.03
997.76	3463.12
997.92	3467.21
998.08	3502.03
998.24	3487.69
998.40	3401.68
998.56	3434.44
998.72	3426.25
998.88	3407.82
999.04	3393.48
999.20	3461.07
999.36	3362.76
999.52	3428.30
999.68	3356.62
999.84	3438.54
1000.00	3399.63
1000.16	3463.12
1000.32	3264.46
1000.48	3424.20
1000.64	3264.46
1000.80	3375.05
1000.95	3243.98
1001.11	3246.03
1001.27	3262.41
1001.43	3303.37
1001.59	3207.12
1001.75	3317.71
1001.91	3215.31
1002.07	3235.79
1002.23	3350.48
1002.39	3237.84
1002.55	3278.80
1002.71	3149.78
1002.87	3229.65
1003.03	3090.38
1003.19	3235.79
1003.34	3276.75
1003.50	3125.20
1003.66	3188.69
1003.82	3104.72
1003.98	3157.97
1004.14	3186.64
1004.30	3076.05
1004.46	3090.38
1004.62	3131.34
1004.78	3162.06
1004.94	3106.77
1005.09	3112.91
1005.25	3082.19
1005.41	3053.52
1005.57	3084.24
1005.73	3076.05
1005.89	2977.75
1006.05	3030.99
1006.21	3088.34
1006.37	2959.31
1006.52	2869.20
1006.68	2920.40
1006.84	3092.43
1007.00	2967.51
1007.16	2979.79
1007.32	2891.73
1007.48	3006.42
1007.64	2959.31
1007.79	2899.92
1007.95	2887.64
1008.11	2932.69
1008.27	2824.15
1008.43	2840.53
1008.59	2897.88
1008.75	2979.79
1008.91	2873.30
1009.06	2844.63
1009.22	2899.92
1009.38	3098.58
1009.54	2846.68
1009.70	2889.68
1009.86	2854.87
1010.01	2918.36
1010.17	2777.05
1010.33	2846.68
1010.49	2824.15
1010.65	2756.57
1010.81	2715.61
1010.96	2781.14
1011.12	2686.94
1011.28	2691.03
1011.44	2777.05
1011.60	2793.43
1011.76	2734.04
1011.91	2826.20
1012.07	2768.85
1012.23	2588.63
1012.39	2666.46
1012.55	2768.85
1012.71	2680.79
1012.86	2600.92
1013.02	2693.08
1013.18	2697.17
1013.34	2664.41
1013.50	2770.90
1013.65	2760.66
1013.81	2658.26
1013.97	2609.11
1014.13	2764.76
1014.29	2652.12
1014.44	2748.37
1014.60	2619.35
1014.76	2600.92
1014.92	2656.22
1015.07	2666.46
1015.23	2674.65
1015.39	2592.73
1015.55	2572.25
1015.71	2615.26
1015.86	2613.21
1016.02	2535.39
1016.18	2426.84
1016.34	2543.58
1016.49	2611.16
1016.65	2570.20
1016.81	2465.75
1016.97	2535.39
1017.12	2648.02
1017.28	2467.80
1017.44	2463.71
1017.60	2516.95
1017.75	2490.33
1017.91	2461.66
1018.07	2539.48
1018.23	2467.80
1018.38	2443.23
1018.54	2492.38
1018.70	2404.32
1018.86	2441.18
1019.01	2455.51
1019.17	2377.69
1019.33	2506.71
1019.49	2492.38
1019.64	2537.43
1019.80	2531.29
1019.96	2387.93
1020.12	2463.71
1020.27	2328.54
1020.43	2400.22
1020.59	2435.03
1020.74	2404.32
1020.90	2467.80
1021.06	2394.08
1021.22	2324.44
1021.37	2277.34
1021.53	2322.40
1021.69	2400.22
1021.84	2303.96
1022.00	2318.30
1022.16	2285.53
1022.31	2381.79
1022.47	2322.40
1022.63	2289.63
1022.79	2238.43
1022.94	2316.25
1023.10	2385.88
1023.26	2265.05
1023.41	2287.58
1023.57	2295.77
1023.73	2330.59
1023.88	2308.06
1024.04	2299.87
1024.20	2154.46
1024.35	2297.82
1024.51	2342.88
1024.67	2230.24
1024.82	2263.01
1024.98	2224.09
1025.14	2236.38
1025.29	2230.24
1025.45	2246.62
1025.61	2222.05
1025.76	2277.34
1025.92	2220.00
1026.08	2310.11
1026.23	2310.11
1026.39	2344.92
1026.55	2207.71
1026.70	2197.47
1026.86	2293.72
1027.02	2248.67
1027.17	2189.28
1027.33	2258.91
1027.48	2207.71
1027.64	2170.85
1027.80	2115.55
1027.95	2267.10
1028.11	2041.82
1028.27	2150.37
1028.42	2285.53
1028.58	2121.70
1028.73	2164.70
1028.89	2088.93
1029.05	2129.89
1029.20	2150.37
>>>>>End Processed Spectral Data<<<<<
