SpectraSuite Data File
++++++++++++++++++++++++++++++++++++
Date: Fri Jun 02 14:41:58 CEST 2017
User: INFO_000
Dark Spectrum Present: No
Reference Spectrum Present: No
Number of Sampled Component Spectra: 1
Spectrometers: USB4H00879
Integration Time (usec): 80000 (USB4H00879)
Spectra Averaged: 1 (USB4H00879)
Boxcar Smoothing: 0 (USB4H00879)
Correct for Electrical Dark: No (USB4H00879)
Strobe/Lamp Enabled: No (USB4H00879)
Correct for Detector Non-linearity: No (USB4H00879)
Correct for Stray Light: No (USB4H00879)
Number of Pixels in Processed Spectrum: 3648
>>>>>Begin Processed Spectral Data<<<<<
345.13	1296.36
345.34	1296.36
345.56	1296.36
345.78	1314.80
345.99	1253.36
346.21	1712.10
346.42	1714.15
346.64	1689.57
346.86	1716.20
347.07	1685.48
347.29	1646.57
347.50	1576.94
347.72	1665.00
347.94	1785.83
348.15	1593.32
348.37	1591.27
348.59	1673.19
348.80	1640.42
349.02	1712.10
349.23	1945.57
349.45	1775.59
349.67	1920.99
349.88	1759.21
350.10	2025.44
350.31	1865.70
350.53	1802.21
350.75	1961.95
350.96	1841.12
351.18	1855.46
351.39	1927.14
351.61	1775.59
351.82	1916.90
352.04	1892.32
352.26	1824.74
352.47	1912.80
352.69	1896.42
352.90	1830.88
353.12	1890.28
353.34	1869.80
353.55	1912.80
353.77	1902.56
353.98	1853.41
354.20	1884.13
354.41	1951.71
354.63	1941.47
354.85	2050.02
355.06	1900.52
355.28	1824.74
355.49	1875.94
355.71	1884.13
355.92	1959.91
356.14	1998.82
356.35	1890.28
356.57	1884.13
356.79	1961.95
357.00	1851.36
357.22	2007.01
357.43	1857.51
357.65	1927.14
357.86	1853.41
358.08	1918.95
358.29	1957.86
358.51	1939.43
358.72	1961.95
358.94	1959.91
359.16	1953.76
359.37	1955.81
359.59	1961.95
359.80	2054.11
360.02	1949.67
360.23	2000.87
360.45	1996.77
360.66	1839.08
360.88	1898.47
361.09	1955.81
361.31	2023.39
361.52	1980.39
361.74	2074.59
361.95	2035.68
362.17	1945.57
362.38	2156.51
362.60	1937.38
362.81	1939.43
363.03	1955.81
363.24	1970.15
363.46	2115.55
363.67	2082.78
363.89	2037.73
364.10	2086.88
364.32	1949.67
364.53	2013.15
364.75	1916.90
364.96	2017.25
365.18	2033.63
365.39	2097.12
365.61	1992.67
365.82	2095.07
366.04	2060.26
366.25	1966.05
366.47	2009.06
366.68	2013.15
366.90	2009.06
367.11	2019.30
367.33	2172.89
367.54	2090.98
367.76	2007.01
367.97	2164.70
368.19	2066.40
368.40	2047.97
368.62	2007.01
368.83	2017.25
369.05	2101.22
369.26	2019.30
369.48	1949.67
369.69	1957.86
369.91	2033.63
370.12	2050.02
370.33	2127.84
370.55	2070.50
370.76	2119.65
370.98	2088.93
371.19	2101.22
371.41	2021.35
371.62	2129.89
371.84	2009.06
372.05	2205.66
372.27	2121.70
372.48	2023.39
372.69	2162.66
372.91	2191.33
373.12	2111.46
373.34	2142.18
373.55	2138.08
373.77	2197.47
373.98	2189.28
374.20	2152.42
374.41	2224.09
374.62	2166.75
374.84	2199.52
375.05	2166.75
375.27	2156.51
375.48	2103.26
375.70	2234.33
375.91	2197.47
376.12	2295.77
376.34	2201.57
376.55	2236.38
376.77	2172.89
376.98	2105.31
377.19	2271.20
377.41	2176.99
377.62	2224.09
377.84	2203.61
378.05	2332.64
378.27	2271.20
378.48	2330.59
378.69	2371.55
378.91	2287.58
379.12	2299.87
379.34	2160.61
379.55	2330.59
379.76	2279.39
379.98	2252.77
380.19	2322.40
380.41	2324.44
380.62	2340.83
380.83	2246.62
381.05	2248.67
381.26	2443.23
381.47	2301.92
381.69	2291.68
381.90	2314.20
382.12	2318.30
382.33	2328.54
382.54	2361.31
382.76	2275.29
382.97	2349.02
383.19	2263.01
383.40	2381.79
383.61	2293.72
383.83	2355.16
384.04	2351.07
384.25	2332.64
384.47	2396.12
384.68	2410.46
384.89	2359.26
385.11	2324.44
385.32	2346.97
385.54	2412.51
385.75	2357.21
385.96	2445.27
386.18	2439.13
386.39	2447.32
386.60	2299.87
386.82	2441.18
387.03	2389.98
387.24	2562.01
387.46	2453.47
387.67	2416.60
387.88	2514.91
388.10	2592.73
388.31	2473.95
388.52	2557.91
388.74	2527.19
388.95	2523.10
389.16	2592.73
389.38	2478.04
389.59	2611.16
389.80	2652.12
390.02	2613.21
390.23	2590.68
390.44	2658.26
390.66	2656.22
390.87	2512.86
391.08	2725.85
391.30	2815.96
391.51	2639.83
391.72	2723.80
391.94	2752.47
392.15	2605.02
392.36	2564.06
392.58	2678.74
392.79	2809.81
393.00	2828.24
393.22	2736.09
393.43	2842.58
393.64	2801.62
393.85	2863.06
394.07	2715.61
394.28	2680.79
394.49	2869.20
394.71	2744.28
394.92	2879.44
395.13	2787.29
395.35	2875.35
395.56	2852.82
395.77	2910.16
395.98	2846.68
396.20	2899.92
396.41	2861.01
396.62	2947.03
396.84	2809.81
397.05	2889.68
397.26	2904.02
397.47	2873.30
397.69	2797.53
397.90	3035.09
398.11	2955.22
398.32	2934.74
398.54	3000.27
398.75	2981.84
398.96	2975.70
399.18	3137.49
399.39	3092.43
399.60	3125.20
399.81	3037.14
400.03	2957.27
400.24	3233.74
400.45	2944.98
400.66	3157.97
400.88	3147.73
401.09	3182.54
401.30	3082.19
401.51	3284.94
401.73	3121.10
401.94	3106.77
402.15	3194.83
402.36	3131.34
402.58	3239.89
402.79	3207.12
403.00	3231.69
403.21	3252.17
403.43	3364.81
403.64	3405.77
403.85	3196.88
404.06	3358.67
404.27	3180.50
404.49	3190.74
404.70	3229.65
404.91	3411.92
405.12	3258.32
405.34	3274.70
405.55	3416.01
405.76	3284.94
405.97	3301.33
406.19	3557.32
406.40	3393.48
406.61	3385.29
406.82	3397.58
407.03	3313.61
407.25	3291.09
407.46	3461.07
407.67	3461.07
407.88	3573.71
408.09	3418.06
408.31	3327.95
408.52	3456.97
408.73	3467.21
408.94	3379.15
409.15	3495.88
409.37	3616.71
409.58	3540.94
409.79	3590.09
410.00	3649.48
410.21	3452.88
410.43	3581.90
410.64	3463.12
410.85	3571.66
411.06	3624.90
411.27	3657.67
411.48	3770.31
411.70	3596.23
411.91	3647.43
412.12	3866.56
412.33	3645.38
412.54	3618.76
412.76	3717.06
412.97	3796.93
413.18	3665.86
413.39	3798.98
413.60	3751.88
413.81	3710.92
414.03	3753.93
414.24	3624.90
414.45	3801.03
414.66	3686.34
414.87	3942.34
415.08	3899.33
415.30	3700.68
415.51	3782.60
415.72	3817.41
415.93	3885.00
416.14	3856.33
416.35	3880.90
416.56	3850.18
416.78	3977.16
416.99	4005.83
417.20	3919.81
417.41	4020.16
417.62	3989.44
417.83	3889.09
418.04	3997.64
418.26	3977.16
418.47	4079.55
418.68	4087.75
418.89	4087.75
419.10	4259.78
419.31	4108.23
419.52	4124.61
419.73	4173.76
419.95	4157.38
420.16	3854.28
420.37	4079.55
420.58	4093.89
420.79	4087.75
421.00	4128.70
421.21	4214.72
421.42	4257.73
421.63	4282.30
421.85	4278.21
422.06	4523.96
422.27	4310.97
422.48	4188.10
422.69	4431.80
422.90	4270.01
423.11	4327.36
423.32	4460.48
423.53	4526.01
423.75	4497.34
423.96	4499.39
424.17	4485.05
424.38	4618.17
424.59	4501.44
424.80	4765.62
425.01	4560.83
425.22	4622.27
425.43	4542.39
425.64	4700.09
425.85	4775.86
426.06	4755.38
426.28	4812.73
426.49	4579.26
426.70	4865.97
426.91	4818.87
427.12	4628.41
427.33	4734.90
427.54	4757.43
427.75	4843.45
427.96	4892.60
428.17	4798.39
428.38	4886.45
428.59	5048.24
428.80	4951.99
429.01	4927.41
429.23	4859.83
429.44	5287.86
429.65	5164.98
429.86	5236.66
430.07	5070.77
430.28	5044.15
430.49	5230.51
430.70	5220.27
430.91	5189.55
431.12	5160.88
431.33	5273.52
431.54	5287.86
431.75	5308.34
431.96	5154.74
432.17	5244.85
432.38	5316.53
432.59	5539.76
432.80	5384.11
433.01	5502.89
433.22	5504.94
433.43	5556.14
433.64	5472.17
433.85	5339.05
434.06	5558.19
434.27	5339.05
434.49	5695.40
434.70	5681.07
434.91	5687.21
435.12	5767.08
435.33	5556.14
435.54	5584.81
435.75	5466.03
435.96	5750.70
436.17	5539.76
436.38	5816.23
436.59	5881.77
436.80	5842.85
437.01	5949.35
437.22	6012.84
437.43	5814.18
437.64	5726.12
437.85	5930.92
438.06	6025.12
438.27	5785.51
438.48	5975.97
438.69	5973.92
438.90	5959.59
439.11	5949.35
439.32	6025.12
439.53	5951.40
439.74	6201.25
439.95	6119.33
440.16	6205.35
440.37	6215.59
440.57	6096.80
440.78	6086.56
440.99	6131.62
441.20	6297.50
441.41	6229.92
441.62	6154.15
441.83	6182.82
442.04	6356.90
442.25	6152.10
442.46	6145.95
442.67	6336.42
442.88	6801.30
443.09	6154.15
443.30	6352.80
443.51	6332.32
443.72	6770.58
443.93	6301.60
444.14	6780.82
444.35	6328.22
444.56	6657.95
444.77	6537.12
444.98	6631.32
445.19	6711.19
445.40	6551.45
445.61	6659.99
445.81	6766.49
446.02	6795.16
446.23	6487.96
446.44	6555.55
446.65	6778.78
446.86	6700.95
447.07	6778.78
447.28	6989.72
447.49	6864.79
447.70	6762.39
447.91	6838.17
448.12	6758.30
448.33	7034.77
448.54	6985.62
448.74	7006.10
448.95	6905.75
449.16	6754.20
449.37	7284.62
449.58	6934.42
449.79	7352.21
450.00	6924.18
450.21	7231.38
450.42	7417.74
450.63	7376.78
450.84	7169.94
451.05	7292.82
451.25	7131.03
451.46	7188.37
451.67	7475.09
451.88	7567.24
452.09	7417.74
452.30	7317.39
452.51	7401.36
452.72	7581.58
452.93	7741.32
453.13	7450.51
453.34	7497.61
453.55	7552.91
453.76	7559.05
453.97	7923.59
454.18	7702.41
454.39	7882.63
454.60	7835.53
454.81	7784.33
455.01	7921.54
455.22	7600.01
455.43	7905.16
455.64	8069.00
455.85	8251.27
456.06	8046.47
456.27	8324.99
456.48	8034.18
456.68	8224.64
456.89	8226.69
457.10	8343.42
457.31	8173.44
457.52	8165.25
457.73	8312.71
457.94	8554.37
458.14	8304.51
458.35	8855.42
458.56	8628.09
458.77	8408.96
458.98	8613.76
459.19	8671.10
459.39	8701.82
459.60	8871.80
459.81	8464.25
460.02	8959.86
460.23	8933.24
460.44	9058.17
460.65	9099.13
460.85	9105.27
461.06	9092.98
461.27	8834.94
461.48	9002.87
461.69	9375.60
461.89	8861.56
462.10	9295.73
462.31	9195.38
462.52	9086.84
462.73	9303.92
462.94	9498.48
463.14	9482.10
463.35	9256.82
463.56	9940.84
463.77	9748.33
463.98	9748.33
464.18	9637.74
464.39	9719.66
464.60	10168.16
464.81	9930.60
465.02	9809.77
465.23	10121.06
465.43	10112.87
465.64	10168.16
465.85	9946.98
466.06	10016.62
466.27	10469.22
466.47	10454.88
466.68	10260.32
466.89	10424.16
467.10	10651.49
467.30	10342.24
467.51	10762.08
467.72	10899.29
467.93	10585.95
468.14	10751.84
468.34	10895.19
468.55	11210.58
468.76	11112.28
468.97	10893.15
469.17	10893.15
469.38	11085.65
469.59	11198.29
469.80	11083.61
470.01	11208.53
470.21	11407.19
470.42	11747.15
470.63	11544.40
470.84	11347.79
471.04	11824.97
471.25	11929.42
471.46	11886.41
471.67	11884.36
471.87	12005.19
472.08	12107.59
472.29	12156.74
472.50	11935.56
472.70	12191.56
472.91	12164.93
473.12	12402.50
473.33	12564.29
473.53	12648.26
473.74	12488.51
473.95	12742.46
474.16	12967.74
474.36	12875.58
474.57	13135.67
474.78	13342.52
474.99	13020.99
475.19	13180.73
475.40	13428.53
475.61	13506.35
475.81	13623.09
476.02	13924.14
476.23	13514.55
476.44	13821.74
476.64	13987.63
476.85	14049.07
477.06	14098.22
477.27	14307.11
477.47	14282.53
477.68	14249.77
477.89	14503.71
478.09	14468.90
478.30	14751.52
478.51	14526.24
478.71	14798.62
478.92	14927.64
479.13	14974.75
479.34	15267.61
479.54	15130.39
479.75	15071.00
479.96	15273.75
480.16	15361.81
480.37	15501.08
480.58	15560.47
480.78	15701.78
480.99	15847.18
481.20	15855.37
481.41	16008.97
481.61	16168.71
481.82	16391.94
482.03	16189.19
482.23	16281.35
482.44	16692.99
482.65	16637.70
482.85	16787.20
483.06	16723.71
483.27	16893.69
483.47	17049.34
483.68	17131.26
483.89	17157.88
484.09	16983.80
484.30	17491.70
484.51	17479.41
484.71	17563.38
484.92	17387.25
485.13	17772.27
485.33	17772.27
485.54	17788.66
485.75	18077.42
485.95	18198.25
486.16	18290.41
486.37	18540.26
486.57	18196.20
486.78	18345.70
486.98	18403.05
487.19	18816.74
487.40	18730.72
487.60	18902.75
487.81	19158.75
488.02	18867.94
488.22	18960.09
488.43	19209.95
488.64	19291.87
488.84	19381.98
489.05	19631.83
489.25	19588.82
489.46	19850.96
489.67	19451.61
489.87	19797.71
490.08	19877.58
490.29	20084.43
490.49	20299.47
490.70	20436.68
490.90	20475.59
491.11	20266.70
491.32	20528.84
491.52	20627.14
491.73	20813.51
491.94	20979.39
492.14	20965.06
492.35	20829.89
492.55	21079.74
492.76	21102.27
492.97	21206.72
493.17	21348.03
493.38	21479.10
493.58	21589.69
493.79	21634.74
494.00	21814.96
494.20	21853.87
494.41	21931.70
494.61	21962.42
494.82	22089.39
495.02	22046.38
495.23	22124.21
495.44	22109.87
495.64	22458.03
495.85	22539.94
496.05	22636.20
496.26	22380.20
496.47	22744.74
496.67	22564.52
496.88	22994.59
497.08	22910.63
497.29	22970.02
497.49	22939.30
497.70	23047.84
497.91	23338.65
498.11	23766.68
498.32	23396.00
498.52	23826.07
498.73	23946.90
498.93	23692.95
499.14	24041.11
499.34	24127.12
499.55	24118.93
499.76	23770.77
499.96	24147.60
500.17	24417.93
500.37	24309.39
500.58	24577.67
500.78	24673.93
500.99	24497.80
501.19	24706.70
501.40	24618.63
501.60	24549.00
501.81	24598.15
502.02	25157.25
502.22	24360.59
502.43	24749.70
502.63	24981.12
502.84	25214.59
503.04	24925.83
503.25	25249.41
503.45	25587.32
503.66	25374.33
503.86	25464.44
504.07	25892.47
504.27	25362.04
504.48	26136.18
504.68	25693.82
504.89	26041.97
505.09	26054.26
505.30	25898.61
505.50	25921.14
505.71	26189.42
505.91	26242.67
506.12	26254.96
506.32	26168.94
506.53	26125.94
506.73	26476.14
506.94	26830.44
507.14	26662.51
507.35	26629.74
507.55	26961.51
507.76	26730.09
507.96	27125.35
508.17	26809.96
508.37	27113.06
508.58	26973.80
508.78	27088.48
508.99	27580.00
509.19	27133.54
509.40	27328.10
509.60	27285.09
509.81	27352.67
510.01	27504.22
510.22	27620.95
510.42	27733.59
510.63	27614.81
510.83	27659.87
511.04	27864.66
511.24	27887.19
511.44	27891.29
511.65	27973.21
511.85	27909.72
512.06	27743.83
512.26	28227.15
512.47	28307.02
512.67	28102.23
512.88	28452.43
513.08	28337.74
513.29	28548.68
513.49	28218.96
513.69	28464.72
513.90	28880.46
514.10	28499.53
514.31	28618.32
514.51	28788.30
514.72	28612.17
514.92	28628.56
515.13	28909.13
515.33	28829.26
515.53	28730.95
515.74	28997.19
515.94	29298.24
516.15	29197.89
516.35	29019.72
516.56	29208.13
516.76	29281.86
516.96	29259.33
517.17	29105.73
517.37	29630.01
517.58	29371.97
517.78	29597.24
517.99	29546.05
518.19	29498.94
518.39	29974.07
518.60	30146.10
518.80	30076.47
519.01	30002.74
519.21	30326.32
519.41	30432.82
519.62	30285.36
519.82	30158.39
520.03	30713.39
520.23	30279.22
520.43	30094.90
520.64	30783.02
520.84	30740.01
521.05	30498.35
521.25	30907.94
521.45	30934.57
521.66	31340.07
521.86	30647.85
522.07	31262.24
522.27	31317.54
522.47	31053.35
522.68	31331.87
522.88	31073.83
523.08	31686.17
523.29	31280.67
523.49	31553.05
523.70	31751.71
523.90	31899.16
524.10	31557.15
524.31	32124.44
524.51	31614.49
524.71	32218.64
524.92	32151.06
525.12	32316.95
525.33	32245.27
525.53	32685.58
525.73	32484.88
525.94	32566.80
526.14	32620.05
526.34	32529.94
526.55	32693.77
526.75	32816.65
526.95	33465.86
527.16	33146.37
527.36	32935.43
527.56	33146.37
527.77	33617.41
527.97	33519.10
528.17	33555.97
528.38	33760.76
528.58	33658.37
528.78	34127.35
528.99	33895.93
529.19	33900.03
529.39	33955.32
529.60	34090.49
529.80	34285.04
530.00	34002.43
530.21	34364.92
530.41	34969.07
530.61	34825.71
530.82	34758.13
531.02	34428.40
531.22	34866.67
531.43	34950.63
531.63	34788.85
531.83	35517.92
532.04	35571.17
532.24	35223.01
532.44	35696.10
532.64	35448.29
532.85	35780.06
533.05	35872.22
533.25	35849.69
533.46	35991.00
533.66	36290.01
533.86	36226.52
534.07	36654.54
534.27	36277.72
534.47	36484.56
534.67	36400.60
534.88	36539.86
535.08	36412.88
535.28	36967.88
535.49	36988.36
535.69	37135.82
535.89	37172.68
536.09	37053.90
536.30	37295.56
536.50	37625.28
536.70	37316.04
536.91	37529.03
537.11	37612.99
537.31	37916.09
537.51	37682.62
537.72	38163.90
537.92	38395.32
538.12	38200.76
538.32	38417.85
538.53	38348.21
538.73	38196.67
538.93	38374.84
539.13	38600.12
539.34	38411.70
539.54	38772.14
539.74	39030.19
539.94	38655.41
540.15	38469.04
540.35	39183.79
540.55	38436.28
540.75	39271.85
540.96	38929.84
541.16	39239.08
541.36	39116.20
541.56	39036.33
541.77	39607.72
541.97	39832.99
542.17	39882.14
542.37	39675.30
542.58	39794.08
542.78	39697.83
542.98	39660.96
543.18	40056.22
543.38	40498.58
543.59	40256.92
543.79	40072.60
543.99	40363.42
544.19	40648.08
544.40	40242.59
544.60	40496.53
544.80	40469.91
545.00	40625.56
545.20	41049.49
545.41	40506.77
545.61	40627.60
545.81	41172.36
546.01	41268.62
546.21	41194.89
546.42	41336.20
546.62	41110.92
546.82	41020.81
547.02	41397.64
547.22	41512.33
547.43	41094.54
547.63	41549.19
547.83	41481.61
548.03	41411.98
548.23	41942.40
548.44	41676.16
548.64	41590.15
548.84	41958.78
549.04	41579.91
549.24	42046.85
549.45	42124.67
549.65	42325.37
549.85	41989.50
550.05	42446.20
550.25	42048.89
550.45	42536.31
550.66	42159.48
550.86	42401.14
551.06	42675.57
551.26	42784.12
551.46	42603.89
551.66	42859.89
551.87	43169.13
552.07	42698.10
552.27	42806.64
552.47	43015.54
552.67	43119.98
552.87	43122.03
553.07	43087.21
553.28	42831.22
553.48	43167.09
553.68	43046.26
553.88	43353.45
554.08	43414.89
554.28	43152.75
554.48	43468.14
554.69	43169.13
554.89	43480.42
555.09	43677.03
555.29	43271.53
555.49	43826.53
555.69	43828.58
555.89	43572.58
556.10	44348.76
556.30	43449.70
556.50	43933.03
556.70	43664.74
556.90	43609.45
557.10	43906.40
557.30	44139.87
557.50	44154.21
557.70	44383.58
557.91	44584.28
558.11	44637.53
558.31	44746.07
558.51	44737.88
558.71	44318.04
558.91	44584.28
559.11	44297.56
559.31	44242.27
559.51	44031.33
559.72	44567.90
559.92	45057.36
560.12	44430.68
560.32	44674.39
560.52	45030.74
560.72	44715.35
560.92	44864.85
561.12	45096.27
561.32	44957.01
561.52	45172.05
561.72	44901.71
561.93	44692.82
562.13	44950.87
562.33	44950.87
562.53	45671.75
562.73	44625.24
562.93	45382.99
563.13	45763.91
563.33	44934.48
563.53	45657.42
563.73	45053.26
563.93	45780.29
564.13	45995.33
564.33	45239.63
564.53	45495.63
564.74	45997.38
564.94	45405.52
565.14	46120.26
565.34	45628.74
565.54	45690.18
565.74	45815.11
565.94	46257.47
566.14	45864.26
566.34	45725.00
566.54	46392.64
566.74	45835.59
566.94	46298.43
567.14	46454.08
567.34	45733.19
567.54	46224.70
567.74	45622.60
567.94	45942.08
568.14	46206.27
568.34	46427.45
568.54	46353.72
568.74	46296.38
568.94	46087.49
569.14	46560.57
569.34	46452.03
569.54	46847.29
569.75	46200.13
569.95	46447.93
570.15	46695.74
570.35	46748.98
570.55	46791.99
570.75	46677.30
570.95	46964.02
571.15	46968.12
571.35	46617.91
571.55	47117.62
571.75	47138.10
571.95	47260.97
572.15	46914.87
572.35	47805.73
572.55	46925.11
572.75	47215.92
572.95	47609.13
573.15	47664.42
573.35	47361.33
573.55	47031.60
573.75	47203.63
573.95	47142.19
574.15	47453.48
574.35	47691.05
574.55	47375.66
574.75	47605.03
574.95	47484.20
575.15	47568.17
575.34	47549.74
575.54	47842.60
575.74	48059.68
575.94	48323.87
576.14	48041.25
576.34	48315.68
576.54	48112.93
576.74	47961.38
576.94	47910.18
577.14	48383.26
577.34	48760.09
577.54	47824.17
577.74	48760.09
577.94	48356.64
578.14	48305.44
578.34	49030.42
578.54	47848.74
578.74	48489.76
578.94	48786.71
579.14	48381.21
579.34	48325.92
579.54	48799.00
579.74	49659.15
579.94	49212.69
580.13	49394.96
580.33	49153.30
580.53	49450.25
580.73	49165.59
580.93	49321.23
581.13	49265.94
581.33	49081.62
581.53	49310.99
581.73	49394.96
581.93	49259.79
582.13	49718.54
582.33	49675.53
582.53	49390.86
582.73	49630.47
582.92	49595.66
583.12	50107.65
583.32	49865.99
583.52	49677.58
583.72	49878.28
583.92	50224.39
584.12	49722.63
584.32	50269.44
584.52	50251.01
584.72	50308.35
584.92	49954.05
585.11	50844.92
585.31	50672.89
585.51	50517.25
585.71	50568.44
585.91	50822.39
586.11	50619.64
586.31	50588.92
586.51	50965.75
586.71	50648.32
586.91	51002.61
587.10	51053.81
587.30	51117.30
587.50	51025.14
587.70	51084.53
587.90	51195.12
588.10	50836.73
588.30	51158.26
588.50	51717.35
588.69	51369.20
588.89	50971.89
589.09	51524.85
589.29	51610.86
589.49	51516.65
589.69	51180.79
589.89	51678.44
590.08	51330.29
590.28	51803.37
590.48	51617.00
590.68	51750.12
590.88	51662.06
591.08	51924.20
591.28	51754.22
591.47	52012.26
591.67	51868.90
591.87	52153.57
592.07	52282.59
592.27	52227.30
592.47	52016.36
592.67	52190.44
592.86	51973.35
593.06	52430.05
593.26	52264.16
593.46	52403.42
593.66	52139.24
593.86	52335.84
594.05	52868.31
594.25	52827.35
594.45	52178.15
594.65	52817.11
594.85	51971.30
595.05	52737.24
595.24	52937.94
595.44	52939.99
595.64	52942.04
595.84	53013.72
596.04	53144.79
596.23	53370.07
596.43	53152.98
596.63	53144.79
596.83	52774.11
597.03	53236.95
597.22	53392.59
597.42	53378.26
597.62	53499.09
597.82	53482.70
598.02	53499.09
598.21	53935.30
598.41	53736.65
598.61	53576.91
598.81	53542.10
599.01	53742.80
599.20	53828.81
599.40	53658.83
599.60	53482.70
599.80	54080.71
600.00	53794.00
600.19	54430.91
600.39	54154.44
600.59	54531.26
600.79	54387.91
600.98	54412.48
601.18	54695.10
601.38	54222.02
601.58	54346.95
601.78	54580.42
601.97	54910.14
602.17	55026.87
602.37	54959.29
602.57	54746.30
602.76	54930.62
602.96	54721.72
603.16	54672.57
603.36	54580.42
603.55	55456.95
603.75	55153.85
603.95	55293.11
604.15	55155.89
604.34	55194.81
604.54	54891.71
604.74	55688.37
604.94	55055.54
605.13	55837.87
605.33	55774.38
605.53	55278.77
605.73	55815.34
605.92	55901.36
606.12	55657.65
606.32	56044.71
606.52	55436.47
606.71	55792.81
606.91	56042.66
607.11	55395.51
607.30	56005.80
607.50	56145.06
607.70	56087.72
607.90	56143.02
608.09	55825.58
608.29	56464.55
608.49	56013.99
608.68	56134.82
608.88	56169.64
609.08	56659.10
609.28	56175.78
609.47	55745.71
609.67	56792.22
609.87	56505.51
610.06	56485.03
610.26	56833.18
610.46	56796.32
610.66	56442.02
610.85	56521.89
611.05	56362.15
611.25	56767.65
611.44	56315.04
611.64	56583.33
611.84	56620.19
612.03	56472.74
612.23	56890.52
612.43	56923.29
612.62	56497.31
612.82	56958.11
613.02	56243.37
613.21	56841.37
613.41	56870.04
613.61	56474.79
613.80	56140.97
614.00	57197.72
614.20	57037.98
614.39	56333.48
614.59	56802.46
614.79	56757.41
614.98	57226.39
615.18	57160.86
615.38	56820.89
615.57	56597.66
615.77	57078.94
615.97	57181.34
616.16	57238.68
616.36	56585.38
616.56	56915.10
616.75	57021.59
616.95	56913.05
617.15	56908.96
617.34	57136.28
617.54	56884.38
617.74	57654.42
617.93	56947.87
618.13	56423.59
618.32	56288.42
618.52	57203.86
618.72	57009.31
618.91	57128.09
619.11	56859.80
619.31	57048.22
619.50	56712.35
619.70	56337.57
619.90	57201.82
620.09	57132.18
620.29	57005.21
620.48	57009.31
620.68	57318.55
620.88	57009.31
621.07	56644.77
621.27	57093.27
621.46	56421.54
621.66	56888.48
621.86	56802.46
622.05	56831.13
622.25	57066.65
622.44	56947.87
622.64	57322.65
622.84	56982.68
623.03	56870.04
623.23	57015.45
623.42	57162.90
623.62	57179.29
623.82	56771.74
624.01	56546.47
624.21	57500.82
624.40	57222.29
624.60	57132.18
624.80	56620.19
624.99	57132.18
625.19	56513.70
625.38	57265.30
625.58	56452.26
625.77	56898.72
625.97	57111.70
626.17	56323.24
626.36	56710.30
626.56	57281.69
626.75	56073.38
626.95	57001.11
627.14	56917.15
627.34	57287.83
627.54	56683.68
627.73	56972.44
627.93	57373.84
628.12	56554.66
628.32	56818.84
628.51	57320.60
628.71	57154.71
628.90	56681.63
629.10	57291.93
629.30	57308.31
629.49	57431.19
629.69	56534.18
629.88	57359.51
630.08	57244.82
630.27	56829.08
630.47	56925.34
630.66	57066.65
630.86	57341.08
631.05	56861.85
631.25	57568.40
631.44	57222.29
631.64	57052.31
631.84	57336.98
632.03	57285.78
632.23	57138.33
632.42	57908.36
632.62	57463.96
632.81	57025.69
633.01	57529.49
633.20	57466.00
633.40	57289.88
633.59	57105.56
633.79	56837.28
633.98	57296.02
634.18	57638.03
634.37	57531.54
634.57	57242.77
634.76	57326.74
634.96	57416.85
635.15	57353.36
635.35	57404.56
635.54	57205.91
635.74	57853.07
635.93	57056.41
636.13	57703.57
636.32	57722.00
636.52	57382.04
636.71	57627.79
636.91	57566.35
637.10	57447.57
637.30	57298.07
637.49	57259.16
637.69	57222.29
637.88	57574.55
638.08	57148.57
638.27	57740.43
638.46	57463.96
638.66	57652.37
638.85	57644.18
639.05	57762.96
639.24	57736.34
639.44	57771.15
639.63	57801.87
639.83	57709.71
640.02	57746.57
640.22	57701.52
640.41	58012.81
640.61	57269.40
640.80	57492.63
640.99	57382.04
641.19	58213.51
641.38	57623.70
641.58	57748.62
641.77	57517.20
641.97	57554.07
642.16	57662.61
642.36	57875.60
642.55	58291.33
642.74	57869.45
642.94	58277.00
643.13	57607.31
643.33	58113.16
643.52	57783.44
643.72	58057.87
643.91	57906.32
644.10	57908.36
644.30	58629.25
644.49	57670.80
644.69	58168.46
644.88	58152.07
645.08	57615.50
645.27	58195.08
645.46	57982.09
645.66	58473.60
645.85	57871.50
646.05	58381.45
646.24	58256.52
646.43	58258.57
646.63	58246.28
646.82	58696.83
647.02	58176.65
647.21	58162.31
647.40	58651.78
647.60	58496.13
647.79	58410.12
647.99	58602.63
648.18	58117.26
648.37	58684.54
648.57	58481.80
648.76	58547.33
648.96	58145.93
649.15	58451.08
649.34	58956.92
649.54	58604.67
649.73	58205.32
649.92	58471.56
650.12	58367.11
650.31	58422.40
650.51	58709.12
650.70	58692.74
650.89	58473.60
651.09	59513.97
651.28	58610.82
651.47	59110.52
651.67	58659.97
651.86	59104.38
652.06	58461.32
652.25	58913.92
652.44	58733.70
652.64	58786.94
652.83	58864.77
653.02	58752.13
653.22	58797.18
653.41	58582.15
653.60	58780.80
653.80	58662.02
653.99	58643.59
654.18	58254.47
654.38	58737.79
654.57	58676.35
654.76	58606.72
654.96	58659.97
655.15	58571.91
655.34	58743.94
655.54	58270.85
655.73	58832.00
655.92	58788.99
656.12	58913.92
656.31	58770.56
656.50	58877.05
656.70	59276.41
656.89	59065.47
657.08	58901.63
657.28	59069.56
657.47	58588.29
657.66	59614.32
657.86	58705.02
658.05	59255.93
658.24	58852.48
658.43	58905.73
658.63	59452.53
658.82	59028.60
659.01	59186.30
659.21	59034.75
659.40	59284.60
659.59	58823.81
659.79	59219.06
659.98	59348.09
660.17	59192.44
660.36	59100.28
660.56	58952.83
660.75	59430.01
660.94	58897.53
661.14	59274.36
661.33	59135.10
661.52	58993.79
661.71	59362.42
661.91	58717.31
662.10	58946.68
662.29	59462.77
662.49	59040.89
662.68	59225.21
662.87	59112.57
663.06	59354.23
663.26	59507.83
663.45	59489.40
663.64	59329.65
663.83	59446.39
664.03	59235.45
664.22	59339.89
664.41	59374.71
664.60	59004.03
664.80	58881.15
664.99	59167.87
665.18	58864.77
665.37	59274.36
665.57	59282.55
665.76	58938.49
665.95	59280.50
666.14	58702.98
666.34	58965.12
666.53	59098.23
666.72	59141.24
666.91	59006.08
667.11	58848.38
667.30	58743.94
667.49	59036.80
667.68	59008.12
667.87	59143.29
668.07	59178.10
668.26	59321.46
668.45	59210.87
668.64	59077.75
668.84	59765.87
669.03	59217.02
669.22	59155.58
669.41	59042.94
669.60	59225.21
669.80	59143.29
669.99	59389.05
670.18	59094.14
670.37	59569.27
670.57	59065.47
670.76	58975.36
670.95	59227.26
671.14	59161.72
671.33	58754.18
671.53	59511.92
671.72	59098.23
671.91	59210.87
672.10	58967.16
672.29	59159.67
672.48	59167.87
672.68	59479.16
672.87	59176.06
673.06	58909.82
673.25	58653.82
673.44	59102.33
673.64	59143.29
673.83	59102.33
674.02	59417.72
674.21	59006.08
674.40	58971.26
674.59	58698.88
674.79	58610.82
674.98	58717.31
675.17	58999.93
675.36	58877.05
675.55	59026.56
675.74	58659.97
675.94	58735.74
676.13	59014.27
676.32	59229.30
676.51	59733.10
676.70	58848.38
676.89	59016.32
677.08	59034.75
677.28	58809.47
677.47	59024.51
677.66	59171.96
677.85	58872.96
678.04	59155.58
678.23	59382.90
678.42	58995.84
678.62	58776.70
678.81	59118.71
679.00	58725.50
679.19	59466.87
679.38	58688.64
679.57	59094.14
679.76	58948.73
679.96	58844.29
680.15	58834.05
680.34	58688.64
680.53	58641.54
680.72	59141.24
680.91	59077.75
681.10	58711.17
681.29	59065.47
681.48	58610.82
681.68	58961.02
681.87	58844.29
682.06	59001.98
682.25	58832.00
682.44	58721.41
682.63	58604.67
682.82	58457.22
683.01	58541.19
683.20	58274.95
683.39	58815.61
683.59	58489.99
683.78	58629.25
683.97	58068.11
684.16	58315.91
684.35	58053.77
684.54	58168.46
684.73	58434.69
684.92	58270.85
685.11	58332.29
685.30	58242.18
685.49	58520.71
685.69	58311.81
685.88	58229.90
686.07	57855.12
686.26	57920.65
686.45	57971.85
686.64	58246.28
686.83	57765.01
687.02	58172.55
687.21	58686.59
687.40	58053.77
687.59	57932.94
687.78	57965.71
687.97	58442.88
688.16	57838.73
688.35	58076.30
688.54	57791.63
688.74	57816.21
688.93	57472.15
689.12	58027.15
689.31	58094.73
689.50	58000.52
689.69	57742.48
689.88	57625.74
690.07	58156.17
690.26	57924.75
690.45	58057.87
690.64	57506.96
690.83	57558.16
691.02	57498.77
691.21	57363.60
691.40	57787.53
691.59	57529.49
691.78	57418.90
691.97	57455.76
692.16	57883.79
692.35	57992.33
692.54	57640.08
692.73	57713.81
692.92	57773.20
693.11	57466.00
693.30	57425.04
693.49	57443.48
693.68	57070.75
693.87	57185.43
694.06	57095.32
694.25	57310.36
694.44	57027.74
694.63	56849.56
694.82	57414.80
695.01	57386.13
695.20	56943.77
695.39	57126.04
695.58	57144.47
695.77	56857.76
695.96	56931.48
696.15	57033.88
696.34	56968.35
696.53	56845.47
696.72	57044.12
696.91	56734.88
697.10	57185.43
697.29	56833.18
697.48	57275.54
697.67	56577.18
697.86	56806.56
698.05	56396.96
698.24	57394.32
698.43	56143.02
698.62	56751.26
698.81	56335.52
699.00	56743.07
699.19	56337.57
699.38	56837.28
699.57	56005.80
699.76	56710.30
699.95	56290.47
700.14	56337.57
700.32	56386.72
700.51	56505.51
700.70	56642.72
700.89	56335.52
701.08	56673.44
701.27	56313.00
701.46	56583.33
701.65	55776.43
701.84	55958.70
702.03	55917.74
702.22	55981.23
702.41	56083.62
702.60	55975.08
702.79	55940.27
702.98	55923.88
703.17	56026.28
703.35	55987.37
703.54	55678.13
703.73	56171.69
703.92	56155.30
704.11	56153.26
704.30	55557.30
704.49	55624.88
704.68	55450.80
704.87	55497.91
705.06	55522.48
705.25	55370.93
705.43	56208.55
705.62	55983.27
705.81	55270.58
706.00	55555.25
706.19	54834.36
706.38	55172.28
706.57	55252.15
706.76	55381.17
706.95	55538.86
707.14	55309.49
707.32	55260.34
707.51	55112.89
707.70	54908.09
707.89	55016.63
708.08	54971.58
708.27	55159.99
708.46	55694.51
708.65	55112.89
708.84	55512.24
709.02	54754.49
709.21	54957.24
709.40	54627.52
709.59	54936.76
709.78	54596.80
709.97	55180.47
710.16	54639.81
710.34	54871.23
710.53	54621.37
710.72	54383.81
710.91	54353.09
711.10	54662.33
711.29	54734.01
711.48	54721.72
711.66	54762.68
711.85	54686.91
712.04	54691.01
712.23	54357.19
712.42	54623.42
712.61	54240.45
712.80	54424.77
712.98	54484.16
713.17	54371.52
713.36	54400.19
713.55	54305.99
713.74	54211.78
713.93	54088.90
714.11	53683.40
714.30	53953.74
714.49	54004.94
714.68	54047.94
714.87	54293.70
715.06	53966.02
715.24	54172.87
715.43	53669.07
715.62	53597.39
715.81	53480.66
716.00	54211.78
716.18	53361.87
716.37	53462.22
716.56	53705.93
716.75	53820.62
716.94	53519.57
717.12	53351.63
717.31	53619.92
717.50	53456.08
717.69	53386.45
717.88	53384.40
718.06	53517.52
718.25	53226.71
718.44	52962.52
718.63	52917.46
718.82	52819.16
719.00	53044.44
719.19	52757.72
719.38	53015.77
719.57	53064.92
719.76	52298.98
719.94	52184.29
720.13	52710.62
720.32	52919.51
720.51	52614.37
720.69	52696.28
720.88	52235.49
721.07	52540.64
721.26	51999.97
721.44	52372.70
721.63	51936.49
721.82	51893.48
722.01	52163.81
722.20	51944.68
722.38	52063.46
722.57	51494.13
722.76	51602.67
722.95	52159.72
723.13	51510.51
723.32	51684.59
723.51	51373.30
723.70	51420.40
723.88	51274.99
724.07	50824.44
724.26	51363.06
724.44	50795.77
724.63	51178.74
724.82	51377.39
725.01	51432.69
725.19	50916.60
725.38	51322.10
725.57	51049.72
725.76	51274.99
725.94	50756.86
726.13	50978.04
726.32	51121.40
726.51	50621.69
726.69	51371.25
726.88	51074.29
727.07	51143.92
727.25	50775.29
727.44	51066.10
727.63	50627.84
727.82	50971.89
728.00	50865.40
728.19	50427.13
728.38	50873.59
728.56	50466.05
728.75	50867.45
728.94	50660.60
729.12	51047.67
729.31	50515.20
729.50	50416.89
729.69	50867.45
729.87	50609.40
730.06	50150.66
730.25	50484.48
730.43	51053.81
730.62	50562.30
730.81	50918.65
730.99	50668.79
731.18	50496.77
731.37	50951.41
731.55	50902.26
731.74	50910.46
731.93	50580.73
732.11	51135.73
732.30	50447.61
732.49	50529.53
732.67	50777.34
732.86	50234.63
733.05	50644.22
733.23	50267.39
733.42	50502.91
733.61	50357.50
733.79	50492.67
733.98	50846.97
734.17	50181.38
734.35	50287.87
734.54	50197.76
734.73	50486.53
734.91	50076.93
735.10	50181.38
735.29	50730.23
735.47	50410.75
735.66	50064.64
735.84	49972.49
736.03	49483.02
736.22	50801.91
736.40	50025.73
736.59	50285.82
736.78	49939.72
736.96	49765.64
737.15	49816.84
737.33	49773.83
737.52	49927.43
737.71	50017.54
737.89	49876.23
738.08	49724.68
738.27	49888.52
738.45	49986.82
738.64	49573.13
738.82	49919.24
739.01	49691.91
739.20	49411.34
739.38	49904.90
739.57	49732.87
739.75	49581.32
739.94	49216.78
740.13	49667.34
740.31	49374.48
740.50	49657.10
740.68	49779.98
740.87	49833.22
741.06	49749.26
741.24	49263.89
741.43	49323.28
741.61	49452.30
741.80	48710.94
741.99	49046.80
742.17	49089.81
742.36	49653.00
742.54	49038.61
742.73	49177.87
742.91	49286.42
743.10	49038.61
743.29	49222.93
743.47	49550.60
743.66	48901.40
743.84	49202.45
744.03	49374.48
744.21	49003.80
744.40	49489.16
744.59	48891.16
744.77	48059.68
744.96	48620.83
745.14	48708.89
745.33	48706.84
745.51	48749.85
745.70	49020.18
745.88	48424.22
746.07	48315.68
746.26	48237.86
746.44	48424.22
746.63	48096.55
746.81	48266.53
747.00	47932.71
747.18	48340.25
747.37	48213.28
747.55	48315.68
747.74	48731.42
747.92	47959.33
748.11	48418.08
748.29	48051.49
748.48	48258.34
748.66	48174.37
748.85	48053.54
749.03	48239.90
749.22	48051.49
749.41	48076.07
749.59	48293.15
749.78	48119.07
749.96	47158.58
750.15	47961.38
750.33	48241.95
750.52	47748.39
750.70	47635.75
750.89	47543.59
751.07	47433.00
751.26	47547.69
751.44	47435.05
751.63	47818.02
751.81	47277.36
752.00	47273.26
752.18	47543.59
752.37	47217.97
752.55	47594.79
752.74	47453.48
752.92	47355.18
753.10	47240.50
753.29	47469.87
753.47	47369.52
753.66	47068.47
753.84	47572.27
754.03	47220.02
754.21	47168.82
754.40	46869.81
754.58	47379.76
754.77	46927.16
754.95	46605.62
755.14	46935.35
755.32	47066.42
755.51	46906.68
755.69	46802.23
755.88	46732.60
756.06	46820.66
756.24	46671.16
756.43	46550.33
756.61	46904.63
756.80	46552.38
756.98	46384.44
757.17	46327.10
757.35	46447.93
757.54	46425.40
757.72	46603.58
757.90	46449.98
758.09	46046.53
758.27	46224.70
758.46	45915.46
758.64	45782.34
758.83	46302.53
759.01	45905.22
759.19	45835.59
759.38	45937.99
759.56	46218.56
759.75	46118.21
759.93	46007.62
760.12	45380.94
760.30	45915.46
760.48	46017.86
760.67	45643.08
760.85	46120.26
761.04	45843.78
761.22	45507.91
761.40	45788.49
761.59	45411.66
761.77	45415.76
761.96	45475.15
762.14	45675.85
762.32	45364.56
762.51	45847.88
762.69	45303.12
762.88	45438.28
763.06	45331.79
763.24	45213.01
763.43	45581.64
763.61	45063.50
763.80	45239.63
763.98	44944.72
764.16	45110.61
764.35	44676.44
764.53	44313.95
764.72	44879.19
764.90	44526.94
765.08	44852.56
765.27	44940.63
765.45	44354.91
765.63	44154.21
765.82	44967.25
766.00	43900.26
766.18	44377.43
766.37	44574.04
766.55	44322.14
766.74	44299.61
766.92	44479.83
767.10	44123.49
767.29	44242.27
767.47	43922.79
767.65	44211.55
767.84	44010.85
768.02	43791.72
768.20	43593.06
768.39	43627.88
768.57	43615.59
768.75	43965.79
768.94	44170.59
769.12	43744.61
769.30	43765.09
769.49	43160.94
769.67	43369.83
769.85	43515.24
770.04	43484.52
770.22	43273.58
770.40	43273.58
770.59	43119.98
770.77	43181.42
770.95	43349.35
771.14	42630.52
771.32	42927.47
771.50	42669.43
771.69	42853.75
771.87	43251.05
772.05	43148.65
772.24	42896.75
772.42	43013.49
772.60	42835.31
772.78	42933.62
772.97	42452.34
773.15	43414.89
773.33	42567.03
773.52	42499.45
773.70	42820.98
773.88	42960.24
774.07	42622.33
774.25	42589.56
774.43	42882.42
774.61	42677.62
774.80	42587.51
774.98	42976.62
775.16	43019.63
775.34	43074.93
775.53	42435.96
775.71	42974.58
775.89	42761.59
776.08	42700.15
776.26	42737.01
776.44	42870.13
776.62	42800.50
776.81	42464.63
776.99	42730.87
777.17	42448.25
777.35	42886.51
777.54	42808.69
777.72	42728.82
777.90	42890.61
778.08	43058.54
778.27	42493.30
778.45	43048.30
778.63	42962.29
778.81	42575.22
779.00	43500.90
779.18	43386.22
779.36	43369.83
779.54	43087.21
779.73	43177.33
779.91	43441.51
780.09	43273.58
780.27	43232.62
780.46	43375.98
780.64	43185.52
780.82	43242.86
781.00	43203.95
781.19	43521.38
781.37	43507.05
781.55	43631.97
781.73	43478.38
781.91	43709.80
782.10	43244.91
782.28	43572.58
782.46	43586.92
782.64	43670.89
782.82	43533.67
783.01	43689.32
783.19	43257.20
783.37	43777.38
783.55	43539.82
783.74	43537.77
783.92	43621.73
784.10	44143.97
784.28	43861.35
784.46	43418.99
784.64	43132.27
784.83	43791.72
785.01	43613.54
785.19	43660.65
785.37	43726.18
785.55	43222.38
785.74	43300.20
785.92	43560.30
786.10	43638.12
786.28	43369.83
786.46	43249.00
786.64	43009.39
786.83	43570.54
787.01	43363.69
787.19	43195.76
787.37	43582.82
787.55	43167.09
787.74	43183.47
787.92	42982.77
788.10	42868.08
788.28	42653.05
788.46	42933.62
788.64	42784.12
788.82	43513.19
789.01	42638.71
789.19	42935.66
789.37	42638.71
789.55	42775.92
789.73	42104.19
789.91	42435.96
790.09	42333.56
790.28	42059.13
790.46	42018.17
790.64	42255.74
790.82	42513.78
791.00	42024.32
791.18	42108.29
791.36	42116.48
791.55	41899.39
791.73	41811.33
791.91	41620.87
792.09	41975.17
792.27	41563.53
792.45	41538.95
792.63	41819.52
792.81	41567.62
793.00	41330.06
793.18	41358.73
793.36	41315.72
793.54	41518.47
793.72	40953.23
793.90	41178.51
794.08	41055.63
794.26	41029.01
794.44	40689.04
794.62	40146.33
794.81	40426.90
794.99	40312.22
795.17	40435.10
795.35	40011.17
795.53	40207.77
795.71	40320.41
795.89	39728.55
796.07	39638.44
796.25	39718.31
796.43	40218.01
796.61	39708.07
796.80	39484.84
796.98	39828.90
797.16	39789.98
797.34	39513.51
797.52	39103.92
797.70	39433.64
797.88	38962.61
798.06	38776.24
798.24	38989.23
798.42	38782.38
798.60	39079.34
798.78	38641.07
798.96	39167.40
799.14	38536.63
799.32	38495.67
799.51	38477.24
799.69	38426.04
799.87	38510.00
800.05	38153.66
800.23	38178.23
800.41	37928.38
800.59	37924.29
800.77	37600.71
800.95	37594.56
801.13	37684.67
801.31	37496.26
801.49	37756.35
801.67	37248.46
801.85	37518.79
802.03	37187.02
802.21	37072.33
802.39	36912.59
802.57	36652.50
802.75	37266.89
802.93	36998.60
803.11	36740.56
803.29	36515.28
803.47	36511.19
803.65	36316.63
803.83	36754.90
804.01	36619.73
804.19	35933.66
804.37	36257.24
804.55	35864.03
804.73	36459.99
804.91	35849.69
805.09	36189.66
805.27	35599.84
805.45	35882.46
805.63	35816.93
805.81	35671.52
805.99	35653.09
806.17	35882.46
806.35	35587.55
806.53	35141.10
806.71	35540.45
806.89	35722.72
807.07	35501.54
807.25	35286.50
807.43	34747.89
807.61	35347.94
807.79	35345.89
807.97	35079.66
808.15	35151.34
808.33	34620.91
808.51	34797.04
808.69	34391.54
808.87	34485.75
809.05	34332.15
809.23	34113.02
809.41	34285.04
809.59	34192.89
809.77	34401.78
809.95	34352.63
810.13	34074.10
810.31	34010.62
810.49	33920.51
810.67	33867.26
810.84	33601.02
811.02	33940.99
811.20	33609.22
811.38	33807.87
811.56	33545.73
811.74	33603.07
811.92	32882.19
812.10	33805.82
812.28	33068.55
812.46	33435.14
812.64	32890.38
812.82	32880.14
813.00	33318.40
813.18	33220.10
813.36	33115.65
813.53	32955.91
813.71	33072.65
813.89	32607.76
814.07	32900.62
814.25	32769.55
814.43	32407.06
814.61	32624.14
814.79	32452.11
814.97	32675.34
815.15	32179.73
815.33	32171.54
815.50	31872.54
815.68	32407.06
815.86	32441.87
816.04	31968.79
816.22	31716.89
816.40	32151.06
816.58	31952.41
816.76	31911.45
816.94	31424.03
817.11	31718.94
817.29	31901.21
817.47	31456.80
817.65	31446.56
817.83	31553.05
818.01	31092.26
818.19	31082.02
818.37	31221.28
818.54	31090.21
818.72	31034.92
818.90	31274.53
819.08	31546.91
819.26	31039.01
819.44	31088.17
819.62	31055.40
819.80	31055.40
819.97	30785.07
820.15	30864.94
820.33	30719.53
820.51	30889.51
820.69	30492.21
820.87	30680.62
821.05	30645.80
821.22	30852.65
821.40	30610.99
821.58	30582.32
821.76	30307.89
821.94	30180.92
822.12	30420.53
822.29	30279.22
822.47	30092.85
822.65	30334.51
822.83	30217.78
823.01	30115.38
823.19	29929.02
823.36	29949.50
823.54	29941.30
823.72	29871.67
823.90	29898.30
824.08	29466.17
824.25	29605.44
824.43	29580.86
824.61	29713.98
824.79	29613.63
824.97	29576.76
825.15	29582.91
825.32	29531.71
825.50	29355.58
825.68	29171.27
825.86	29333.06
826.04	29417.02
826.21	29015.62
826.39	29095.49
826.57	28929.61
826.75	29062.72
826.93	28784.20
827.10	28972.61
827.28	29072.96
827.46	28837.45
827.64	29138.50
827.81	28890.70
827.99	29089.35
828.17	28659.27
828.35	28481.10
828.53	28491.34
828.70	28591.69
828.88	28378.70
829.06	28567.12
829.24	28782.15
829.41	28538.44
829.59	28751.43
829.77	28606.03
829.95	28417.61
830.12	28427.85
830.30	28233.30
830.48	28374.61
830.66	28204.63
830.84	28431.95
831.01	28405.33
831.19	28124.75
831.37	28065.36
831.55	27911.77
831.72	28055.12
831.90	27946.58
832.08	28218.96
832.25	28053.08
832.43	27831.90
832.61	27670.11
832.79	27453.02
832.96	28079.70
833.14	27913.81
833.32	27930.20
833.50	27911.77
833.67	27901.53
833.85	27569.76
834.03	27393.63
834.20	27752.02
834.38	27760.22
834.56	27739.74
834.74	27297.38
834.91	27426.40
835.09	27053.67
835.27	27041.38
835.44	27188.83
835.62	27008.61
835.80	26791.53
835.98	27266.66
836.15	26842.73
836.33	26998.37
836.51	27088.48
836.68	26830.44
836.86	26975.84
837.04	26865.25
837.21	26955.36
837.39	27248.22
837.57	26822.25
837.75	26807.91
837.92	26629.74
838.10	26494.57
838.28	26578.54
838.45	26306.16
838.63	26330.73
838.81	26398.32
838.98	26332.78
839.16	26592.87
839.34	26334.83
839.51	26214.00
839.69	26308.21
839.87	25906.80
840.04	26396.27
840.22	26416.75
840.40	26287.73
840.57	25953.91
840.75	26293.87
840.93	25710.20
841.10	25902.71
841.28	26138.23
841.46	25982.58
841.63	26345.07
841.81	26119.79
841.98	26019.44
842.16	26021.49
842.34	25910.90
842.51	25736.82
842.69	26287.73
842.87	25800.31
843.04	25990.77
843.22	26056.31
843.40	25519.74
843.57	26211.95
843.75	25855.61
843.92	25769.59
844.10	25640.57
844.28	25456.25
844.45	25560.70
844.63	25615.99
844.81	25312.89
844.98	25476.73
845.16	25249.41
845.33	25562.75
845.51	25247.36
845.69	25255.55
845.86	25122.43
846.04	25038.47
846.21	25030.27
846.39	25071.23
846.57	24925.83
846.74	25083.52
846.92	24985.22
847.09	24974.98
847.27	24882.82
847.45	24917.64
847.62	24860.29
847.80	25001.60
847.97	24796.81
848.15	24981.12
848.32	24354.44
848.50	24667.78
848.68	24475.27
848.85	24772.23
849.03	24327.82
849.20	24600.20
849.38	24505.99
849.56	24460.94
849.73	24409.74
849.91	24571.53
850.08	24501.90
850.26	24090.26
850.43	24047.25
850.61	24325.77
850.78	24219.28
850.96	24350.35
851.14	24233.61
851.31	24266.38
851.49	24047.25
851.66	23994.00
851.84	24352.40
852.01	24395.40
852.19	24090.26
852.36	24008.34
852.54	23805.59
852.71	23834.26
852.89	23953.04
853.07	23770.77
853.24	23813.78
853.42	23725.72
853.59	23686.81
853.77	23565.98
853.94	23756.44
854.12	23936.66
854.29	23590.55
854.47	23488.15
854.64	23692.95
854.82	23522.97
854.99	23430.81
855.17	23733.91
855.34	23643.80
855.52	23381.66
855.69	23672.47
855.87	23391.90
856.04	23344.80
856.22	23352.99
856.39	23291.55
856.57	23131.81
856.74	23123.62
856.92	23447.19
857.09	23049.89
857.27	23146.14
857.44	23387.80
857.62	23056.03
857.79	23060.13
857.97	23260.83
858.14	23154.33
858.32	22933.15
858.49	22924.96
858.67	22724.26
858.84	22980.26
859.02	22974.11
859.19	22863.52
859.37	22904.48
859.54	22574.76
859.72	22822.56
859.89	22709.93
860.06	22730.41
860.24	22783.65
860.41	22607.53
860.59	22507.18
860.76	22548.14
860.94	22308.52
861.11	22638.25
861.29	22394.54
861.46	22664.87
861.64	22195.89
861.81	22128.30
861.98	22468.27
862.16	22288.04
862.33	22189.74
862.51	22367.91
862.68	22341.29
862.86	22085.30
863.03	22095.53
863.21	22204.08
863.38	21976.75
863.55	22058.67
863.73	22126.25
863.90	22232.75
864.08	21960.37
864.25	21968.56
864.43	21833.39
864.60	21696.18
864.77	21667.51
864.95	21845.68
865.12	21595.83
865.30	21694.13
865.47	21587.64
865.64	21812.92
865.82	21792.44
865.99	21589.69
866.17	21616.31
866.34	21778.10
866.51	21059.26
866.69	21714.61
866.86	21436.09
867.04	21257.92
867.21	21499.58
867.38	21237.44
867.56	21411.51
867.73	21051.07
867.91	21167.80
868.08	21450.42
868.25	21083.84
868.43	20971.20
868.60	20920.00
868.78	20870.85
868.95	21262.01
869.12	20891.33
869.30	20739.78
869.47	21061.31
869.64	20790.98
869.82	20702.92
869.99	20502.22
870.16	20881.09
870.34	20606.66
870.51	20524.74
870.69	20127.44
870.86	20608.71
871.03	20465.35
871.21	20401.86
871.38	20420.30
871.55	20354.76
871.73	20326.09
871.90	20094.67
872.07	20209.36
872.25	19875.54
872.42	20098.77
872.59	20307.66
872.77	19775.19
872.94	19898.06
873.11	20053.71
873.29	20014.80
873.46	20092.62
873.63	20098.77
873.81	19953.36
873.98	19832.53
874.15	19766.99
874.33	19646.16
874.50	19508.95
874.67	19861.20
874.85	19705.56
875.02	19644.12
875.19	19318.49
875.37	19775.19
875.54	19318.49
875.71	19365.59
875.88	19429.08
876.06	19273.43
876.23	19467.99
876.40	19164.89
876.58	19144.41
876.75	19230.43
876.92	19318.49
877.10	19162.84
877.27	18958.05
877.44	18810.59
877.61	18689.76
877.79	18962.14
877.96	18921.18
878.13	18994.91
878.31	18919.14
878.48	18779.87
878.65	18749.15
878.82	18646.76
879.00	18673.38
879.17	18757.35
879.34	18777.83
879.51	18274.03
879.69	18646.76
879.86	18323.18
880.03	18554.60
880.21	18431.72
880.38	18501.35
880.55	18781.92
880.72	18298.60
880.90	18405.10
881.07	18120.43
881.24	18175.72
881.41	18497.25
881.59	18302.70
881.76	18179.82
881.93	18165.48
882.10	17997.55
882.28	18173.67
882.45	18327.27
882.62	18128.62
882.79	18042.60
882.96	18007.79
883.14	18093.80
883.31	18327.27
883.48	17979.12
883.65	18167.53
883.83	18161.39
884.00	18085.61
884.17	17960.69
884.34	17911.53
884.51	17796.85
884.69	17774.32
884.86	17891.06
885.03	17796.85
885.20	17573.62
885.38	17731.31
885.55	17764.08
885.72	17530.61
885.89	17534.71
886.06	17774.32
886.24	17647.35
886.41	17458.93
886.58	17866.48
886.75	17688.31
886.92	17342.20
887.10	17573.62
887.27	17321.72
887.44	17323.77
887.61	17682.16
887.78	17460.98
887.95	17483.51
888.13	17348.34
888.30	17200.89
888.47	17164.03
888.64	17245.94
888.81	17116.92
888.99	17151.74
889.16	16801.54
889.33	16912.13
889.50	16869.12
889.67	16680.71
889.84	16793.34
890.01	17024.76
890.19	16854.78
890.36	16852.73
890.53	16946.94
890.70	16889.60
890.87	16719.62
891.04	16719.62
891.22	16647.94
891.39	16733.95
891.56	16606.98
891.73	16451.33
891.90	16543.49
892.07	16574.21
892.24	16744.19
892.42	16547.59
892.59	16307.98
892.76	16367.37
892.93	16541.44
893.10	16451.33
893.27	16391.94
893.44	16082.70
893.61	16150.28
893.79	16328.45
893.96	16283.40
894.13	16275.21
894.30	16242.44
894.47	16297.74
894.64	16420.61
894.81	16289.54
894.98	16320.26
895.15	16459.52
895.33	16166.67
895.50	16197.38
895.67	16365.32
895.84	16191.24
896.01	16262.92
896.18	16125.71
896.35	16348.93
896.52	16221.96
896.69	16363.27
896.86	16176.91
897.04	16314.12
897.21	16224.01
897.38	16113.42
897.55	16271.11
897.72	16350.98
897.89	16135.95
898.06	16101.13
898.23	16129.80
898.40	16039.69
898.57	16189.19
898.74	16156.43
898.91	15896.33
899.08	16137.99
899.26	15912.72
899.43	16361.22
899.60	16037.64
899.77	16094.99
899.94	15810.32
900.11	15910.67
900.28	16140.04
900.45	15998.73
900.62	15916.81
900.79	16277.26
900.96	16062.22
901.13	15884.05
901.30	16027.40
901.47	15988.49
901.64	16092.94
901.81	15908.62
901.98	15814.41
902.15	16113.42
902.32	15595.28
902.49	16056.08
902.66	15861.52
902.83	15789.84
903.01	15808.27
903.18	15861.52
903.35	15836.94
903.52	15892.24
903.69	16195.34
903.86	16033.55
904.03	15939.34
904.20	16070.41
904.37	16047.88
904.54	15879.95
904.71	15994.64
904.88	16056.08
905.05	15853.33
905.22	16021.26
905.39	15634.19
905.56	15906.57
905.73	16015.12
905.90	15902.48
906.07	15826.70
906.24	15904.53
906.41	15771.41
906.58	15795.98
906.75	15552.27
906.92	15570.71
907.09	15671.06
907.26	15830.80
907.43	15709.97
907.60	15722.26
907.77	15918.86
907.93	15830.80
908.10	15658.77
908.27	16021.26
908.44	15660.82
908.61	15759.12
908.78	15810.32
908.95	15722.26
909.12	15630.10
909.29	15714.06
909.46	15746.83
909.63	15773.46
909.80	15636.24
909.97	15861.52
910.14	15783.70
910.31	15650.58
910.48	15615.76
910.65	15836.94
910.82	15609.62
910.99	15490.84
911.16	15488.79
911.33	15585.04
911.50	15298.33
911.66	15283.99
911.83	15640.34
912.00	15331.09
912.17	15228.70
912.34	15374.10
912.51	15175.45
912.68	15308.57
912.85	15195.93
913.02	15220.50
913.19	15144.73
913.36	15341.33
913.53	15251.22
913.70	15144.73
913.86	15304.47
914.03	15163.16
914.20	15283.99
914.37	15009.56
914.54	15097.63
914.71	15136.54
914.88	15122.20
915.05	14864.16
915.22	14755.61
915.39	14774.05
915.55	14862.11
915.72	14702.37
915.89	14800.67
916.06	14597.92
916.23	14935.84
916.40	14860.06
916.57	14593.83
916.74	14542.63
916.91	14473.00
917.07	14460.71
917.24	14278.44
917.41	14737.18
917.58	14624.54
917.75	14429.99
917.92	14343.97
918.09	14173.99
918.26	14407.46
918.42	14233.38
918.59	14378.79
918.76	14120.74
918.93	13889.32
919.10	13926.19
919.27	14157.61
919.44	14346.02
919.60	14112.55
919.77	14157.61
919.94	13750.06
920.11	13854.51
920.28	13819.69
920.45	13918.00
920.61	13629.23
920.78	13823.79
920.95	13750.06
921.12	13543.22
921.29	13639.47
921.46	13399.86
921.62	13492.02
921.79	13311.80
921.96	13371.19
922.13	13586.22
922.30	13162.30
922.47	13172.54
922.63	13281.08
922.80	13031.23
922.97	12873.53
923.14	12910.40
923.31	13119.29
923.47	12904.25
923.64	13041.46
923.81	12891.96
923.98	12945.21
924.15	12787.52
924.32	12750.65
924.48	12670.78
924.65	12676.93
924.82	12447.55
924.99	12508.99
925.15	12298.05
925.32	12519.23
925.49	12089.16
925.66	12371.78
925.83	12175.17
925.99	12214.09
926.16	12152.65
926.33	12263.24
926.50	12056.39
926.67	12253.00
926.83	11921.23
927.00	12191.56
927.17	11861.84
927.34	11878.22
927.50	11677.52
927.67	11779.92
927.84	11927.37
928.01	11841.36
928.17	11751.24
928.34	11560.78
928.51	11566.93
928.68	11634.51
928.84	11278.16
929.01	11552.59
929.18	11323.22
929.35	11255.64
929.51	11306.84
929.68	11190.10
929.85	11124.57
930.02	11073.37
930.18	11181.91
930.35	11044.70
930.52	10827.61
930.69	11054.94
930.85	10633.05
931.02	10899.29
931.19	10798.94
931.36	10727.26
931.52	10757.98
931.69	10735.45
931.86	10725.21
932.02	10547.04
932.19	10487.65
932.36	10346.34
932.53	10704.73
932.69	10250.08
932.86	10528.61
933.03	10356.58
933.19	10100.58
933.36	10141.54
933.53	10092.39
933.70	10045.29
933.86	10088.29
934.03	9797.48
934.20	9942.89
934.36	9920.36
934.53	9660.27
934.70	9701.23
934.86	9631.60
935.03	9400.18
935.20	9471.86
935.36	9391.98
935.53	9324.40
935.70	9254.77
935.86	9287.54
936.03	9189.24
936.20	8988.53
936.36	9004.92
936.53	8929.14
936.70	8824.70
936.86	9029.49
937.03	8697.72
937.20	8779.64
937.36	8703.87
937.53	8267.65
937.70	8300.42
937.86	8142.72
938.03	8232.83
938.20	8296.32
938.36	7989.13
938.53	8099.72
938.70	7710.60
938.86	7851.91
939.03	7597.96
939.20	7722.89
939.36	7534.48
939.53	7499.66
939.70	7497.61
939.86	7391.12
940.03	7333.78
940.19	7008.15
940.36	7034.77
940.53	6956.95
940.69	6866.84
940.86	6936.47
941.03	6809.50
941.19	6557.60
941.36	6647.71
941.52	6637.47
941.69	6545.31
941.86	6516.64
942.02	6477.73
942.19	6283.17
942.35	6188.96
942.52	6295.46
942.69	6215.59
942.85	6154.15
943.02	6074.28
943.18	6068.13
943.35	5992.36
943.52	5892.01
943.68	5984.16
943.85	5857.19
944.01	5754.79
944.18	5849.00
944.35	5762.98
944.51	5734.31
944.68	5574.57
944.84	5676.97
945.01	5515.18
945.17	5828.52
945.34	5566.38
945.51	5640.11
945.67	5545.90
945.84	5681.07
946.00	5420.97
946.17	5490.60
946.33	5406.64
946.50	5562.28
946.67	5541.80
946.83	5496.75
947.00	5500.84
947.16	5633.96
947.33	5529.52
947.49	5451.69
947.66	5545.90
947.82	5545.90
947.99	5390.25
948.16	5590.95
948.32	5394.35
948.49	5468.08
948.65	5603.24
948.82	5486.51
948.98	5447.60
949.15	5384.11
949.31	5412.78
949.48	5609.39
949.64	5431.21
949.81	5513.13
949.97	5384.11
950.14	5429.17
950.30	5345.20
950.47	5576.62
950.63	5361.58
950.80	5521.32
950.96	5420.97
951.13	5500.84
951.30	5474.22
951.46	5474.22
951.63	5566.38
951.79	5685.16
951.96	5627.82
952.12	5523.37
952.29	5595.05
952.45	5582.76
952.62	5646.25
952.78	5648.30
952.94	5478.32
953.11	5533.61
953.27	5697.45
953.44	5593.00
953.60	5689.26
953.77	5638.06
953.93	5629.87
954.10	5533.61
954.26	5611.43
954.43	5535.66
954.59	5851.05
954.76	5715.88
954.92	5640.11
955.09	5593.00
955.25	5541.80
955.42	5504.94
955.58	5683.11
955.75	5615.53
955.91	5611.43
956.07	5754.79
956.24	5656.49
956.40	5633.96
956.57	5601.19
956.73	5599.15
956.90	5728.17
957.06	5664.68
957.23	5625.77
957.39	5636.01
957.56	5756.84
957.72	5584.81
957.88	5588.91
958.05	5779.37
958.21	5762.98
958.38	5588.91
958.54	5664.68
958.71	5726.12
958.87	5586.86
959.03	5722.02
959.20	5672.87
959.36	5576.62
959.53	5482.41
959.69	5531.56
959.85	5703.59
960.02	5588.91
960.18	5685.16
960.35	5636.01
960.51	5570.48
960.68	5566.38
960.84	5672.87
961.00	5689.26
961.17	5539.76
961.33	5785.51
961.50	5685.16
961.66	5625.77
961.82	5609.39
961.99	5681.07
962.15	5519.28
962.31	5613.48
962.48	5574.57
962.64	5644.20
962.81	5564.33
962.97	5496.75
963.13	5652.39
963.30	5670.83
963.46	5521.32
963.62	5490.60
963.79	5572.52
963.95	5582.76
964.12	5615.53
964.28	5574.57
964.44	5474.22
964.61	5644.20
964.77	5570.48
964.93	5785.51
965.10	5474.22
965.26	5617.58
965.42	5484.46
965.59	5629.87
965.75	5529.52
965.92	5455.79
966.08	5443.50
966.24	5443.50
966.41	5343.15
966.57	5445.55
966.73	5580.71
966.90	5455.79
967.06	5574.57
967.22	5392.30
967.39	5441.45
967.55	5310.38
967.71	5447.60
967.88	5427.12
968.04	5343.15
968.20	5433.26
968.37	5283.76
968.53	5361.58
968.69	5212.08
968.85	5492.65
969.02	5433.26
969.18	5435.31
969.34	5377.97
969.51	5322.67
969.67	5488.56
969.83	5259.18
970.00	5447.60
970.16	5246.90
970.32	5228.46
970.48	5263.28
970.65	5271.47
970.81	5109.68
970.97	5236.66
971.14	5136.31
971.30	5320.62
971.46	5181.36
971.63	5173.17
971.79	5359.53
971.95	5144.50
972.11	4958.13
972.28	5150.64
972.44	5162.93
972.60	5064.63
972.76	5160.88
972.93	5169.07
973.09	5275.57
973.25	5121.97
973.42	5009.33
973.58	5113.78
973.74	5031.86
973.90	5083.06
974.07	4968.37
974.23	4927.41
974.39	5085.11
974.55	5074.87
974.72	5066.67
974.88	4906.93
975.04	4911.03
975.20	4886.45
975.37	5064.63
975.53	4990.90
975.69	4945.84
975.85	4751.29
976.01	4898.74
976.18	4843.45
976.34	4927.41
976.50	4974.52
976.66	4984.76
976.83	4843.45
976.99	4794.29
977.15	4923.32
977.31	4730.81
977.47	4906.93
977.64	4659.13
977.80	4835.25
977.96	4726.71
978.12	4880.31
978.29	4790.20
978.45	4718.52
978.61	4718.52
978.77	4700.09
978.93	4745.14
979.10	4724.66
979.26	4655.03
979.42	4761.53
979.58	4566.97
979.74	4665.27
979.91	4702.14
980.07	4638.65
980.23	4583.35
980.39	4495.29
980.55	4622.27
980.71	4601.79
980.88	4581.31
981.04	4411.32
981.20	4550.59
981.36	4464.57
981.52	4607.93
981.68	4431.80
981.85	4646.84
982.01	4534.20
982.17	4491.20
982.33	4489.15
982.49	4599.74
982.65	4374.46
982.82	4435.90
982.98	4427.71
983.14	4259.78
983.30	4446.14
983.46	4493.24
983.62	4349.89
983.79	4513.72
983.95	4341.69
984.11	4227.01
984.27	4349.89
984.43	4382.65
984.59	4337.60
984.75	4489.15
984.91	4331.45
985.08	4382.65
985.24	4218.82
985.40	4206.53
985.56	4153.28
985.72	4329.41
985.88	4333.50
986.04	4130.75
986.20	4153.28
986.37	4251.58
986.53	4089.79
986.69	4149.18
986.85	4147.14
987.01	4028.35
987.17	4282.30
987.33	4220.86
987.49	4089.79
987.65	4177.86
987.82	4118.47
987.98	4128.70
988.14	4116.42
988.30	4149.18
988.46	4081.60
988.62	3997.64
988.78	4059.07
988.94	3901.38
989.10	4011.97
989.26	4059.07
989.42	3925.96
989.59	3921.86
989.75	3952.58
989.91	3950.53
990.07	3966.92
990.23	3852.23
990.39	3895.24
990.55	3928.00
990.71	3911.62
990.87	3944.39
991.03	3819.46
991.19	3805.13
991.35	3858.37
991.51	3882.95
991.67	3930.05
991.83	3780.55
992.00	3844.04
992.16	3811.27
992.32	3829.70
992.48	3919.81
992.64	3706.82
992.80	3786.69
992.96	3698.63
993.12	3768.26
993.28	3907.52
993.44	3819.46
993.60	3784.65
993.76	3768.26
993.92	3788.74
994.08	3868.61
994.24	3747.78
994.40	3788.74
994.56	3770.31
994.72	3665.86
994.88	3583.95
995.04	3600.33
995.20	3506.12
995.36	3612.62
995.52	3676.10
995.68	3530.70
995.84	3622.86
996.00	3674.06
996.16	3581.90
996.32	3495.88
996.48	3487.69
996.64	3629.00
996.80	3547.08
996.96	3557.32
997.12	3528.65
997.28	3547.08
997.44	3518.41
997.60	3504.07
997.76	3502.03
997.92	3493.83
998.08	3639.24
998.24	3264.46
998.40	3479.50
998.56	3524.55
998.72	3389.39
998.88	3370.96
999.04	3323.85
999.20	3553.23
999.36	3383.24
999.52	3504.07
999.68	3399.63
999.84	3346.38
1000.00	3395.53
1000.16	3473.36
1000.32	3248.08
1000.48	3438.54
1000.64	3235.79
1000.80	3200.98
1000.95	3270.61
1001.11	3321.81
1001.27	3289.04
1001.43	3352.52
1001.59	3157.97
1001.75	3239.89
1001.91	3321.81
1002.07	3207.12
1002.23	3203.02
1002.39	3190.74
1002.55	3231.69
1002.71	3190.74
1002.87	3168.21
1003.03	3121.10
1003.19	3219.41
1003.34	3117.01
1003.50	3147.73
1003.66	3194.83
1003.82	3117.01
1003.98	3145.68
1004.14	3098.58
1004.30	3065.81
1004.46	3022.80
1004.62	3061.71
1004.78	3063.76
1004.94	3035.09
1005.09	3100.62
1005.25	3112.91
1005.41	2983.89
1005.57	3028.95
1005.73	3022.80
1005.89	3030.99
1006.05	3014.61
1006.21	3010.51
1006.37	3016.66
1006.52	3051.47
1006.68	2922.45
1006.84	3022.80
1007.00	3000.27
1007.16	3010.51
1007.32	2871.25
1007.48	2875.35
1007.64	3043.28
1007.79	2887.64
1007.95	2809.81
1008.11	3092.43
1008.27	2897.88
1008.43	2965.46
1008.59	2793.43
1008.75	2895.83
1008.91	2863.06
1009.06	2803.67
1009.22	2871.25
1009.38	2865.11
1009.54	2910.16
1009.70	2871.25
1009.86	2852.82
1010.01	2879.44
1010.17	2764.76
1010.33	2805.72
1010.49	2877.40
1010.65	2822.10
1010.81	2785.24
1010.96	2770.90
1011.12	2736.09
1011.28	2678.74
1011.44	2820.05
1011.60	2811.86
1011.76	2803.67
1011.91	2826.20
1012.07	2631.64
1012.23	2666.46
1012.39	2697.17
1012.55	2830.29
1012.71	2754.52
1012.86	2752.47
1013.02	2729.94
1013.18	2723.80
1013.34	2645.98
1013.50	2770.90
1013.65	2648.02
1013.81	2682.84
1013.97	2576.34
1014.13	2670.55
1014.29	2605.02
1014.44	2715.61
1014.60	2617.30
1014.76	2645.98
1014.92	2516.95
1015.07	2590.68
1015.23	2568.15
1015.39	2539.48
1015.55	2568.15
1015.71	2645.98
1015.86	2531.29
1016.02	2527.19
1016.18	2473.95
1016.34	2605.02
1016.49	2633.69
1016.65	2590.68
1016.81	2498.52
1016.97	2465.75
1017.12	2557.91
1017.28	2445.27
1017.44	2459.61
1017.60	2469.85
1017.75	2508.76
1017.91	2451.42
1018.07	2455.51
1018.23	2467.80
1018.38	2430.94
1018.54	2392.03
1018.70	2502.62
1018.86	2539.48
1019.01	2404.32
1019.17	2404.32
1019.33	2502.62
1019.49	2439.13
1019.64	2506.71
1019.80	2344.92
1019.96	2498.52
1020.12	2437.08
1020.27	2387.93
1020.43	2387.93
1020.59	2342.88
1020.74	2306.01
1020.90	2365.40
1021.06	2328.54
1021.22	2414.56
1021.37	2430.94
1021.53	2355.16
1021.69	2449.37
1021.84	2314.20
1022.00	2336.73
1022.16	2357.21
1022.31	2353.12
1022.47	2455.51
1022.63	2349.02
1022.79	2199.52
1022.94	2367.45
1023.10	2408.41
1023.26	2263.01
1023.41	2281.44
1023.57	2336.73
1023.73	2334.68
1023.88	2301.92
1024.04	2287.58
1024.20	2170.85
1024.35	2314.20
1024.51	2357.21
1024.67	2295.77
1024.82	2351.07
1024.98	2113.50
1025.14	2230.24
1025.29	2269.15
1025.45	2363.36
1025.61	2158.56
1025.76	2197.47
1025.92	2217.95
1026.08	2228.19
1026.23	2248.67
1026.39	2228.19
1026.55	2213.85
1026.70	2187.23
1026.86	2224.09
1027.02	2215.90
1027.17	2158.56
1027.33	2252.77
1027.48	2179.04
1027.64	2213.85
1027.80	2086.88
1027.95	2285.53
1028.11	2082.78
1028.27	2123.74
1028.42	2189.28
1028.58	2129.89
1028.73	2047.97
1028.89	2072.54
1029.05	2217.95
1029.20	2170.85
>>>>>End Processed Spectral Data<<<<<
