SpectraSuite Data File
++++++++++++++++++++++++++++++++++++
Date: Fri Jun 02 14:41:53 CEST 2017
User: INFO_000
Dark Spectrum Present: No
Reference Spectrum Present: No
Number of Sampled Component Spectra: 1
Spectrometers: USB4H00879
Integration Time (usec): 80000 (USB4H00879)
Spectra Averaged: 1 (USB4H00879)
Boxcar Smoothing: 0 (USB4H00879)
Correct for Electrical Dark: No (USB4H00879)
Strobe/Lamp Enabled: No (USB4H00879)
Correct for Detector Non-linearity: No (USB4H00879)
Correct for Stray Light: No (USB4H00879)
Number of Pixels in Processed Spectrum: 3648
>>>>>Begin Processed Spectral Data<<<<<
345.13	1288.17
345.34	1288.17
345.56	1288.17
345.78	1296.36
345.99	1265.64
346.21	1683.43
346.42	1679.33
346.64	1632.23
346.86	1779.68
347.07	1617.90
347.29	1699.81
347.50	1585.13
347.72	1691.62
347.94	1763.30
348.15	1562.60
348.37	1529.83
348.59	1720.29
348.80	1642.47
349.02	1744.87
349.23	1798.12
349.45	1765.35
349.67	1863.65
349.88	1779.68
350.10	1947.62
350.31	1888.23
350.53	1796.07
350.75	2009.06
350.96	1841.12
351.18	1802.21
351.39	1912.80
351.61	1902.56
351.82	1875.94
352.04	1898.47
352.26	1851.36
352.47	1863.65
352.69	1886.18
352.90	1775.59
353.12	1808.36
353.34	1882.08
353.55	1896.42
353.77	1886.18
353.98	1804.26
354.20	1884.13
354.41	1920.99
354.63	1912.80
354.85	2023.39
355.06	1902.56
355.28	1783.78
355.49	1947.62
355.71	1857.51
355.92	1894.37
356.14	1920.99
356.35	1857.51
356.57	1892.32
356.79	1964.00
357.00	1824.74
357.22	1988.58
357.43	1847.27
357.65	1990.63
357.86	1861.60
358.08	1826.79
358.29	1902.56
358.51	1968.10
358.72	1937.38
358.94	1943.52
359.16	1863.65
359.37	1920.99
359.59	1992.67
359.80	2021.35
360.02	2111.46
360.23	2013.15
360.45	2052.06
360.66	1888.23
360.88	1839.08
361.09	1949.67
361.31	1970.15
361.52	1961.95
361.74	1988.58
361.95	2070.50
362.17	2009.06
362.38	2056.16
362.60	2025.44
362.81	1888.23
363.03	1927.14
363.24	2043.87
363.46	2152.42
363.67	2074.59
363.89	2037.73
364.10	2004.96
364.32	1851.36
364.53	2031.58
364.75	1906.66
364.96	2072.54
365.18	1925.09
365.39	2099.17
365.61	1978.34
365.82	2150.37
366.04	2033.63
366.25	1992.67
366.47	2060.26
366.68	2084.83
366.90	1931.23
367.11	2002.91
367.33	2064.35
367.54	2084.83
367.76	1998.82
367.97	2154.46
368.19	2058.21
368.40	2093.02
368.62	1953.76
368.83	1988.58
369.05	2093.02
369.26	2007.01
369.48	1994.72
369.69	1941.47
369.91	2115.55
370.12	1988.58
370.33	2142.18
370.55	1998.82
370.76	2066.40
370.98	2074.59
371.19	2019.30
371.41	2027.49
371.62	2025.44
371.84	1955.81
372.05	2142.18
372.27	2072.54
372.48	2111.46
372.69	2084.83
372.91	2101.22
373.12	2174.94
373.34	2052.06
373.55	2220.00
373.77	2230.24
373.98	2068.45
374.20	2174.94
374.41	2207.71
374.62	2158.56
374.84	2156.51
375.05	2226.14
375.27	2236.38
375.48	2232.29
375.70	2220.00
375.91	2250.72
376.12	2238.43
376.34	2146.27
376.55	2164.70
376.77	2295.77
376.98	2099.17
377.19	2199.52
377.41	2234.33
377.62	2240.48
377.84	2209.76
378.05	2353.12
378.27	2203.61
378.48	2279.39
378.69	2392.03
378.91	2412.51
379.12	2238.43
379.34	2256.86
379.55	2289.63
379.76	2275.29
379.98	2271.20
380.19	2297.82
380.41	2328.54
380.62	2277.34
380.83	2314.20
381.05	2205.66
381.26	2342.88
381.47	2289.63
381.69	2275.29
381.90	2445.27
382.12	2330.59
382.33	2383.84
382.54	2330.59
382.76	2361.31
382.97	2326.49
383.19	2279.39
383.40	2344.92
383.61	2279.39
383.83	2297.82
384.04	2418.65
384.25	2324.44
384.47	2385.88
384.68	2371.55
384.89	2332.64
385.11	2377.69
385.32	2297.82
385.54	2330.59
385.75	2424.80
385.96	2478.04
386.18	2394.08
386.39	2432.99
386.60	2371.55
386.82	2463.71
387.03	2467.80
387.24	2553.82
387.46	2439.13
387.67	2506.71
387.88	2568.15
388.10	2496.47
388.31	2547.67
388.52	2551.77
388.74	2590.68
388.95	2519.00
389.16	2553.82
389.38	2471.90
389.59	2590.68
389.80	2639.83
390.02	2539.48
390.23	2650.07
390.44	2508.76
390.66	2613.21
390.87	2576.34
391.08	2582.49
391.30	2727.89
391.51	2707.41
391.72	2752.47
391.94	2682.84
392.15	2731.99
392.36	2662.36
392.58	2637.78
392.79	2652.12
393.00	2717.65
393.22	2775.00
393.43	2873.30
393.64	2856.92
393.85	2850.77
394.07	2731.99
394.28	2777.05
394.49	2738.13
394.71	2797.53
394.92	2924.50
395.13	2795.48
395.35	2705.37
395.56	2752.47
395.77	2815.96
395.98	2863.06
396.20	2901.97
396.41	2869.20
396.62	3010.51
396.84	2965.46
397.05	2854.87
397.26	2912.21
397.47	2967.51
397.69	2836.44
397.90	3063.76
398.11	2955.22
398.32	2815.96
398.54	2932.69
398.75	2983.89
398.96	2971.60
399.18	2992.08
399.39	2990.03
399.60	3057.62
399.81	3030.99
400.03	3010.51
400.24	3231.69
400.45	3074.00
400.66	3088.34
400.88	3047.38
401.09	3305.42
401.30	3067.86
401.51	3264.46
401.73	3205.07
401.94	3149.78
402.15	3225.55
402.36	3246.03
402.58	3200.98
402.79	3243.98
403.00	3194.83
403.21	3233.74
403.43	3213.26
403.64	3352.52
403.85	3223.50
404.06	3336.14
404.27	3213.26
404.49	3342.28
404.70	3184.59
404.91	3356.62
405.12	3178.45
405.34	3223.50
405.55	3534.79
405.76	3241.93
405.97	3356.62
406.19	3452.88
406.40	3295.18
406.61	3377.10
406.82	3469.26
407.03	3413.96
407.25	3276.75
407.46	3565.51
407.67	3612.62
407.88	3514.31
408.09	3381.20
408.31	3409.87
408.52	3454.92
408.73	3420.11
408.94	3446.73
409.15	3549.13
409.37	3635.14
409.58	3491.79
409.79	3430.35
410.00	3626.95
410.21	3475.40
410.43	3600.33
410.64	3563.47
410.85	3674.06
411.06	3608.52
411.27	3676.10
411.48	3698.63
411.70	3647.43
411.91	3643.34
412.12	3680.20
412.33	3682.25
412.54	3606.47
412.76	3796.93
412.97	3774.41
413.18	3461.07
413.39	3731.40
413.60	3776.45
413.81	3647.43
414.03	3684.30
414.24	3760.07
414.45	3901.38
414.66	3686.34
414.87	3764.17
415.08	3801.03
415.30	3805.13
415.51	3805.13
415.72	3846.09
415.93	3807.17
416.14	3858.37
416.35	3887.04
416.56	3862.47
416.78	3952.58
416.99	3968.96
417.20	4001.73
417.41	3837.89
417.62	4011.97
417.83	4024.26
418.04	3999.68
418.26	4050.88
418.47	4110.27
418.68	4118.47
418.89	3997.64
419.10	4245.44
419.31	4134.85
419.52	4018.11
419.73	4116.42
419.95	4171.71
420.16	4030.40
420.37	4122.56
420.58	4136.90
420.79	4016.07
421.00	4200.38
421.21	4292.54
421.42	4143.04
421.63	4190.14
421.85	4227.01
422.06	4382.65
422.27	4403.13
422.48	4329.41
422.69	4399.04
422.90	4270.01
423.11	4294.59
423.32	4378.56
423.53	4511.68
423.75	4210.62
423.96	4698.04
424.17	4415.42
424.38	4609.98
424.59	4521.92
424.80	4599.74
425.01	4655.03
425.22	4571.07
425.43	4526.01
425.64	4837.30
425.85	4870.07
426.06	4689.85
426.28	4794.29
426.49	4794.29
426.70	4628.41
426.91	4728.76
427.12	4851.64
427.33	4818.87
427.54	4841.40
427.75	4739.00
427.96	4939.70
428.17	4921.27
428.38	4919.22
428.59	5097.39
428.80	4890.55
429.01	5066.67
429.23	4921.27
429.44	5203.89
429.65	5144.50
429.86	5185.46
430.07	4954.04
430.28	5013.43
430.49	5136.31
430.70	5220.27
430.91	5267.38
431.12	5238.70
431.33	5351.34
431.54	5377.97
431.75	5308.34
431.96	5334.96
432.17	5207.98
432.38	5275.57
432.59	5410.73
432.80	5322.67
433.01	5451.69
433.22	5474.22
433.43	5283.76
433.64	5347.25
433.85	5367.73
434.06	5533.61
434.27	5341.10
434.49	5427.12
434.70	5572.52
434.91	5613.48
435.12	5496.75
435.33	5640.11
435.54	5689.26
435.75	5517.23
435.96	5603.24
436.17	5496.75
436.38	5689.26
436.59	5627.82
436.80	5709.74
437.01	5990.31
437.22	5838.76
437.43	5912.49
437.64	5611.43
437.85	5988.26
438.06	5797.80
438.27	5805.99
438.48	5840.81
438.69	5990.31
438.90	5914.53
439.11	5836.71
439.32	6102.95
439.53	5943.21
439.74	6053.80
439.95	6090.66
440.16	5898.15
440.37	6029.22
440.57	6080.42
440.78	6207.39
440.99	6051.75
441.20	6270.88
441.41	6029.22
441.62	6234.02
441.83	6135.71
442.04	6191.01
442.25	6238.11
442.46	6272.93
442.67	6379.42
442.88	6834.07
443.09	6229.92
443.30	6377.37
443.51	6395.81
443.72	6651.80
443.93	6195.11
444.14	6639.51
444.35	6438.81
444.56	6580.12
444.77	6582.17
444.98	6680.47
445.19	6616.99
445.40	6514.59
445.61	6492.06
445.81	6606.75
446.02	6606.75
446.23	6694.81
446.44	6502.30
446.65	6965.14
446.86	6670.23
447.07	6778.78
447.28	6977.43
447.49	6819.74
447.70	6821.78
447.91	6971.29
448.12	7014.29
448.33	7008.15
448.54	7055.25
448.74	6866.84
448.95	6959.00
449.16	6795.16
449.37	7268.24
449.58	6963.09
449.79	7141.27
450.00	7016.34
450.21	7243.67
450.42	7210.90
450.63	7270.29
450.84	7212.95
451.05	7229.33
451.25	7135.12
451.46	7180.18
451.67	7397.26
451.88	7331.73
452.09	7413.65
452.30	7301.01
452.51	7423.89
452.72	7608.20
452.93	7784.33
453.13	7520.14
453.34	7368.59
453.55	7579.53
453.76	7606.16
453.97	7712.65
454.18	7655.31
454.39	7737.23
454.60	7790.47
454.81	7745.42
455.01	8007.56
455.22	7708.55
455.43	7765.90
455.64	8062.85
455.85	8175.49
456.06	8368.00
456.27	7999.37
456.48	8019.85
456.68	8103.81
456.89	8228.74
457.10	8210.31
457.31	8284.03
457.52	8120.20
457.73	8294.27
457.94	8644.48
458.14	8107.91
458.35	8564.61
458.56	8433.54
458.77	8290.18
458.98	8791.93
459.19	8523.65
459.39	8638.33
459.60	8750.97
459.81	8523.65
460.02	8916.86
460.23	8681.34
460.44	9013.11
460.65	8951.67
460.85	8951.67
461.06	9021.30
461.27	9013.11
461.48	9170.80
461.69	9232.24
461.89	9035.64
462.10	9299.83
462.31	9086.84
462.52	9234.29
462.73	9318.26
462.94	9658.22
463.14	9494.38
463.35	9234.29
463.56	9699.18
463.77	9842.54
463.98	9607.02
464.18	9561.97
464.39	9793.39
464.60	10051.43
464.81	9928.55
465.02	9826.15
465.23	9955.18
465.43	9912.17
465.64	10123.11
465.85	10153.83
466.06	10139.49
466.27	10463.07
466.47	10207.08
466.68	10293.09
466.89	10375.01
467.10	10600.29
467.30	10301.28
467.51	10631.01
467.72	10805.08
467.93	10342.24
468.14	10661.73
468.34	10788.70
468.55	10880.86
468.76	10919.77
468.97	10839.90
469.17	11097.94
469.38	10966.87
469.59	11308.88
469.80	11061.08
470.01	11206.48
470.21	11337.56
470.42	11542.35
470.63	11513.68
470.84	11317.08
471.04	11665.23
471.25	11798.35
471.46	11732.81
471.67	12007.24
471.87	11802.44
472.08	12001.10
472.29	12318.53
472.50	11820.88
472.70	12097.35
472.91	12103.50
473.12	12590.91
473.33	12468.03
473.53	12629.82
473.74	12308.29
473.95	12957.50
474.16	12840.76
474.36	12779.32
474.57	13086.52
474.78	13221.69
474.99	12926.78
475.19	13143.86
475.40	13410.10
475.61	13154.10
475.81	13655.86
476.02	13670.19
476.23	13510.45
476.44	13600.56
476.64	13836.08
476.85	14104.36
477.06	13772.59
477.27	14366.50
477.47	14249.77
477.68	14083.88
477.89	14604.07
478.09	14276.39
478.30	14534.43
478.51	14630.69
478.71	15009.56
478.92	14997.28
479.13	14808.86
479.34	15107.87
479.54	14925.60
479.75	15273.75
479.96	15302.42
480.16	15216.41
480.37	15505.17
480.58	15705.87
480.78	15822.61
480.99	15716.11
481.20	16049.93
481.41	15941.39
481.61	16105.23
481.82	16418.57
482.03	16049.93
482.23	16320.26
482.44	16369.41
482.65	16520.96
482.85	16527.11
483.06	16684.80
483.27	16434.95
483.47	16895.74
483.68	16658.18
483.89	17090.30
484.09	17157.88
484.30	17110.78
484.51	17301.24
484.71	17618.68
484.92	17518.32
485.13	17850.10
485.33	17874.67
485.54	17753.84
485.75	17874.67
485.95	18380.52
486.16	18327.27
486.37	18159.34
486.57	18171.63
486.78	18435.81
486.98	18501.35
487.19	18671.33
487.40	18644.71
487.60	18804.45
487.81	18986.72
488.02	18849.50
488.22	18910.94
488.43	19138.27
488.64	19330.78
488.84	19349.21
489.05	19476.18
489.25	19435.22
489.46	19920.59
489.67	19627.73
489.87	20117.20
490.08	19779.28
490.29	19730.13
490.49	20014.80
490.70	20176.59
490.90	20526.79
491.11	20346.57
491.32	20477.64
491.52	20414.15
491.73	20405.96
491.94	20750.02
492.14	20500.17
492.35	20995.78
492.55	21038.78
492.76	20909.76
492.97	21386.94
493.17	21280.44
493.38	21288.64
493.58	21399.23
493.79	21368.51
494.00	21370.55
494.20	21696.18
494.41	21792.44
494.61	21966.51
494.82	22156.97
495.02	21989.04
495.23	22320.81
495.44	22359.72
495.64	22390.44
495.85	22550.18
496.05	22787.75
496.26	22550.18
496.47	22800.04
496.67	22636.20
496.88	23008.93
497.08	22705.83
497.29	23080.61
497.49	23043.74
497.70	23152.29
497.91	23068.32
498.11	23352.99
498.32	23514.78
498.52	23641.75
498.73	23684.76
498.93	23615.13
499.14	23731.86
499.34	23883.41
499.55	23994.00
499.76	23901.84
499.96	24319.63
500.17	24131.22
500.37	24364.68
500.58	24137.36
500.78	24333.96
500.99	24446.60
501.19	24417.93
501.40	24583.82
501.60	24616.58
501.81	24807.05
502.02	24686.22
502.22	24678.02
502.43	24921.73
502.63	25507.45
502.84	25251.45
503.04	25056.90
503.25	25261.69
503.45	25556.60
503.66	25366.14
503.86	25366.14
504.07	25554.55
504.27	25421.44
504.48	26084.98
504.68	25708.15
504.89	26195.57
505.09	25847.41
505.30	25642.62
505.50	25921.14
505.71	26211.95
505.91	26136.18
506.12	26269.30
506.32	26066.55
506.53	26408.56
506.73	26668.65
506.94	26844.77
507.14	26513.00
507.35	26568.30
507.55	27047.52
507.76	26592.87
507.96	26367.60
508.17	26740.33
508.37	26984.04
508.58	27016.80
508.78	27301.47
508.99	27248.22
509.19	26949.22
509.40	27387.49
509.60	27090.53
509.81	27485.79
510.01	27549.28
510.22	27278.94
510.42	27401.82
510.63	27532.89
510.83	27532.89
511.04	27678.30
511.24	27717.21
511.44	27801.18
511.65	28036.69
511.85	27369.05
512.06	28313.17
512.26	28081.75
512.47	28372.56
512.67	27874.90
512.88	27973.21
513.08	28159.57
513.29	28180.05
513.49	28335.70
513.69	28243.54
513.90	28374.61
514.10	28479.05
514.31	28614.22
514.51	28477.01
514.72	28874.31
514.92	28470.86
515.13	28489.29
515.33	28677.71
515.53	28706.38
515.74	28806.73
515.94	28821.06
516.15	29122.12
516.35	28991.05
516.56	29369.92
516.76	29032.00
516.96	28909.13
517.17	29527.61
517.37	29507.13
517.58	29441.60
517.78	29603.39
517.99	29734.46
518.19	29963.83
518.39	29855.29
518.60	29738.55
518.80	29898.30
519.01	29990.45
519.21	29998.65
519.41	29834.81
519.62	29724.22
519.82	29939.26
520.03	30311.99
520.23	30479.92
520.43	30021.17
520.64	30527.02
520.84	30342.70
521.05	30719.53
521.25	30805.55
521.45	31045.16
521.66	30735.92
521.86	31170.08
522.07	30443.06
522.27	30887.46
522.47	31190.56
522.68	31393.31
522.88	31073.83
523.08	31401.50
523.29	31209.00
523.49	31434.27
523.70	31569.44
523.90	31833.63
524.10	31698.46
524.31	31927.83
524.51	31899.16
524.71	32499.22
524.92	32116.25
525.12	32095.77
525.33	32529.94
525.53	32265.75
525.73	32445.97
525.94	32515.60
526.14	32798.22
526.34	32857.61
526.55	32611.85
526.75	32765.45
526.95	33150.47
527.16	32906.76
527.36	33173.00
527.56	33263.11
527.77	33455.62
527.97	33166.85
528.17	33515.01
528.38	33670.65
528.58	33529.34
528.78	34147.83
528.99	33582.59
529.19	34242.04
529.39	33605.12
529.60	34385.40
529.80	34262.52
530.00	34092.54
530.21	34289.14
530.41	34401.78
530.61	34229.75
530.82	34506.23
531.02	35014.12
531.22	34573.81
531.43	34815.47
531.63	34741.74
531.83	34862.57
532.04	35284.45
532.24	34956.78
532.44	35644.90
532.64	35452.39
532.85	35390.95
533.05	35462.63
533.25	35497.44
533.46	35993.05
533.66	35968.48
533.86	36341.21
534.07	36435.41
534.27	36177.37
534.47	36345.30
534.67	36595.15
534.88	36283.86
535.08	36257.24
535.28	36386.26
535.49	36785.61
535.69	37021.13
535.89	36875.73
536.09	37377.48
536.30	37205.45
536.50	37340.61
536.70	37670.34
536.91	37344.71
537.11	37510.60
537.31	37524.93
537.51	37553.60
537.72	37754.30
537.92	37864.89
538.12	38002.11
538.32	37647.81
538.53	38587.83
538.73	37848.51
538.93	38225.34
539.13	38114.75
539.34	38036.92
539.54	38278.58
539.74	38671.79
539.94	38583.73
540.15	38587.83
540.35	38741.42
540.55	38729.14
540.75	38608.31
540.96	39263.66
541.16	39085.48
541.36	39294.38
541.56	39077.29
541.77	39650.72
541.97	39038.38
542.17	39775.65
542.37	39710.11
542.58	40050.08
542.78	39531.94
542.98	39663.01
543.18	39976.35
543.38	40269.21
543.59	40070.56
543.79	39663.01
543.99	40070.56
544.19	40562.07
544.40	40187.29
544.60	40592.79
544.80	40076.70
545.00	40519.06
545.20	41049.49
545.41	40447.38
545.61	40519.06
545.81	41117.07
546.01	41125.26
546.21	40687.00
546.42	40842.64
546.62	41391.50
546.82	40983.95
547.02	41188.75
547.22	41461.13
547.43	41029.01
547.63	41569.67
547.83	41735.56
548.03	41248.14
548.23	41729.41
548.44	41196.94
548.64	41604.49
548.84	41745.80
549.04	41880.96
549.24	41842.05
549.45	42155.39
549.65	42220.92
549.85	42182.01
550.05	41952.64
550.25	42182.01
550.45	42438.01
550.66	42114.43
550.86	41993.60
551.06	42429.82
551.26	42237.31
551.46	42755.44
551.66	42458.49
551.87	42515.83
552.07	42642.81
552.27	43122.03
552.47	42605.94
552.67	43064.69
552.87	42825.07
553.07	43162.99
553.28	43160.94
553.48	43287.92
553.68	43040.11
553.88	43328.87
554.08	43607.40
554.28	43083.12
554.48	42882.42
554.69	43218.28
554.89	43167.09
555.09	43292.01
555.29	43543.91
555.49	43627.88
555.69	43187.56
555.89	43423.08
556.10	43554.15
556.30	43636.07
556.50	44373.34
556.70	43726.18
556.90	43963.75
557.10	44164.45
557.30	43804.00
557.50	44103.01
557.70	44150.11
557.91	44242.27
558.11	43828.58
558.31	43965.79
558.51	43914.59
558.71	44447.07
558.91	44260.70
559.11	44174.69
559.31	44184.93
559.51	44649.81
559.72	44434.78
559.92	44631.38
560.12	44551.51
560.32	44889.43
560.52	44348.76
560.72	45225.29
560.92	44817.75
561.12	44827.99
561.32	44832.08
561.52	44418.39
561.72	45176.14
561.93	44524.89
562.13	44782.93
562.33	44647.77
562.53	45684.04
562.73	45004.11
562.93	44963.15
563.13	44926.29
563.33	44995.92
563.53	45290.83
563.73	45135.18
563.93	45268.30
564.13	45806.92
564.33	45460.81
564.53	45364.56
564.74	45659.46
564.94	45575.50
565.14	45512.01
565.34	45282.64
565.54	45391.18
565.74	45978.95
565.94	45694.28
566.14	45794.63
566.34	45665.61
566.54	46218.56
566.74	45573.45
566.94	46007.62
567.14	45882.69
567.34	45931.84
567.54	45942.08
567.74	45999.43
567.94	45849.92
568.14	46249.28
568.34	46306.62
568.54	46406.97
568.74	46376.25
568.94	46445.88
569.14	46646.58
569.34	46085.44
569.54	46564.67
569.75	45854.02
569.95	46089.54
570.15	47355.18
570.35	46591.29
570.55	46542.14
570.75	46445.88
570.95	46652.73
571.15	46822.71
571.35	46929.20
571.55	46777.65
571.75	46998.83
571.95	47056.18
572.15	46898.48
572.35	47303.98
572.55	47035.70
572.75	46751.03
572.95	47084.85
573.15	47379.76
573.35	47017.27
573.55	47047.99
573.75	47226.16
573.95	47488.30
574.15	47232.30
574.35	47361.33
574.55	47578.41
574.75	47486.25
574.95	47846.69
575.15	47279.41
575.34	48008.48
575.54	47772.97
575.74	47930.66
575.94	47967.52
576.14	47807.78
576.34	48090.40
576.54	48182.56
576.74	47867.17
576.94	47891.75
577.14	48266.53
577.34	48862.49
577.54	47772.97
577.74	48192.80
577.94	48178.46
578.14	48631.07
578.34	48862.49
578.54	47867.17
578.74	48182.56
578.94	48737.56
579.14	48614.68
579.34	48467.23
579.54	48395.55
579.74	48790.81
579.94	48745.75
580.13	48907.54
580.33	48766.23
580.53	48960.79
580.73	49425.68
580.93	49100.05
581.13	49186.07
581.33	49526.03
581.53	49368.33
581.73	49284.37
581.93	49759.50
582.13	49274.13
582.33	49433.87
582.53	49046.80
582.73	49513.74
582.92	49523.98
583.12	49552.65
583.32	49585.42
583.52	49730.83
583.72	49980.68
583.92	49685.77
584.12	49939.72
584.32	50152.71
584.52	49935.62
584.72	49872.14
584.92	50328.83
585.11	51070.20
585.31	50371.84
585.51	50310.40
585.71	50224.39
585.91	50648.32
586.11	50494.72
586.31	50255.11
586.51	50812.15
586.71	50730.23
586.91	50873.59
587.10	50857.21
587.30	50967.80
587.50	50713.85
587.70	50928.89
587.90	50836.73
588.10	51131.64
588.30	51174.64
588.50	51090.68
588.69	51545.33
588.89	51330.29
589.09	50844.92
589.29	51287.28
589.49	51649.77
589.69	51438.83
589.89	51647.72
590.08	51404.02
590.28	51152.12
590.48	51246.32
590.68	51240.18
590.88	52053.22
591.08	52014.31
591.28	51559.66
591.47	51746.03
591.67	51657.96
591.87	51901.67
592.07	52270.31
592.27	52217.06
592.47	52151.52
592.67	51805.42
592.86	51752.17
593.06	51813.61
593.26	52638.94
593.46	52026.60
593.66	52221.16
593.86	52497.63
594.05	52532.45
594.25	52581.60
594.45	52204.77
594.65	52780.25
594.85	52079.85
595.05	52688.09
595.24	52481.25
595.44	52624.60
595.64	52792.54
595.84	52548.83
596.04	52636.89
596.23	52831.45
596.43	53179.60
596.63	52720.86
596.83	52901.08
597.03	53327.06
597.22	53533.90
597.42	52851.93
597.62	53572.81
597.82	53388.50
598.02	53255.38
598.21	53654.73
598.41	53087.45
598.61	53578.96
598.81	53986.50
599.01	53556.43
599.20	53087.45
599.40	53439.70
599.60	53396.69
599.80	53888.20
600.00	53667.02
600.19	53755.08
600.39	53767.37
600.59	53910.73
600.79	54113.48
600.98	53753.04
601.18	54328.52
601.38	54475.97
601.58	54078.66
601.78	54633.66
601.97	54299.84
602.17	55000.25
602.37	54830.27
602.57	54486.21
602.76	54781.12
602.96	54326.47
603.16	54508.74
603.36	54621.37
603.55	55096.50
603.75	55092.41
603.95	55411.89
604.15	54985.91
604.34	54944.95
604.54	55059.64
604.74	55108.79
604.94	55493.81
605.13	55174.33
605.33	55098.55
605.53	55014.58
605.73	55768.24
605.92	55555.25
606.12	55483.57
606.32	55704.75
606.52	55354.55
606.71	55913.64
606.91	55960.75
607.11	55706.80
607.30	55633.07
607.50	55770.28
607.70	56016.04
607.90	55737.52
608.09	55809.20
608.29	55901.36
608.49	56368.29
608.68	56122.54
608.88	56036.52
609.08	55979.18
609.28	56114.34
609.47	55903.40
609.67	56859.80
609.87	56216.74
610.06	55970.99
610.26	56411.30
610.46	56372.39
610.66	55979.18
610.85	56456.35
611.05	56089.77
611.25	56433.83
611.44	56259.75
611.64	56593.57
611.84	56011.95
612.03	56474.79
612.23	56552.61
612.43	56548.51
612.62	56364.20
612.82	56450.21
613.02	56755.36
613.21	56683.68
613.41	56300.71
613.61	56814.75
613.80	55958.70
614.00	56898.72
614.20	56966.30
614.39	56466.59
614.59	56800.41
614.79	57076.89
614.98	56652.96
615.18	56575.14
615.38	56693.92
615.57	56513.70
615.77	56767.65
615.97	56923.29
616.16	56829.08
616.36	56888.48
616.56	56757.41
616.75	57148.57
616.95	56718.49
617.15	56620.19
617.34	56939.68
617.54	56394.92
617.74	56515.75
617.93	57158.81
618.13	56609.95
618.32	57117.85
618.52	56857.76
618.72	56599.71
618.91	56970.39
619.11	56272.04
619.31	56988.83
619.50	56833.18
619.70	56788.13
619.90	57119.90
620.09	56736.93
620.29	56906.91
620.48	56763.55
620.68	57060.51
620.88	56521.89
621.07	57181.34
621.27	57009.31
621.46	56431.78
621.66	57148.57
621.86	56693.92
622.05	56661.15
622.25	56980.63
622.44	56472.74
622.64	56439.97
622.84	56700.06
623.03	56593.57
623.23	56612.00
623.42	56966.30
623.62	56990.87
623.82	56964.25
624.01	56505.51
624.21	57095.32
624.40	56857.76
624.60	56822.94
624.80	56902.81
624.99	56759.45
625.19	56745.12
625.38	56857.76
625.58	56878.24
625.77	57107.61
625.97	57201.82
626.17	56591.52
626.36	56878.24
626.56	56863.90
626.75	56102.06
626.95	57046.17
627.14	56521.89
627.34	57185.43
627.54	56802.46
627.73	57087.13
627.93	57175.19
628.12	56663.20
628.32	56792.22
628.51	57011.35
628.71	56958.11
628.90	56808.61
629.10	57101.46
629.30	56890.52
629.49	57261.21
629.69	56781.98
629.88	57068.70
630.08	57167.00
630.27	56964.25
630.47	57062.55
630.66	56816.80
630.86	57537.68
631.05	56671.39
631.25	57173.14
631.44	56878.24
631.64	57021.59
631.84	57121.94
632.03	57406.61
632.23	57134.23
632.42	57457.81
632.62	56976.54
632.81	56980.63
633.01	56777.89
633.20	56874.14
633.40	57318.55
633.59	57054.36
633.79	56616.10
633.98	57138.33
634.18	57488.53
634.37	57578.64
634.57	57058.46
634.76	57287.83
634.96	57320.60
635.15	57480.34
635.35	57236.63
635.54	57474.20
635.74	57527.44
635.93	56937.63
636.13	57390.23
636.32	57447.57
636.52	56745.12
636.71	57087.13
636.91	57185.43
637.10	57322.65
637.30	57025.69
637.49	57189.53
637.69	57365.65
637.88	57369.75
638.08	57056.41
638.27	57502.87
638.46	57531.54
638.66	57205.91
638.85	57193.62
639.05	57291.93
639.24	57463.96
639.44	57291.93
639.63	57316.50
639.83	57795.73
640.02	57382.04
640.22	57255.06
640.41	57783.44
640.61	56859.80
640.80	57382.04
640.99	57713.81
641.19	57535.63
641.38	57529.49
641.58	57345.17
641.77	57664.66
641.97	57308.31
642.16	57781.39
642.36	57654.42
642.55	58152.07
642.74	57586.83
642.94	58309.77
643.13	57431.19
643.33	58090.63
643.52	57668.75
643.72	58006.67
643.91	57889.93
644.10	57691.28
644.30	58084.49
644.49	57750.67
644.69	58193.03
644.88	57967.76
645.08	57668.75
645.27	57728.14
645.46	57605.26
645.66	58014.86
645.85	57783.44
646.05	57914.51
646.24	57980.04
646.43	58203.27
646.63	58326.15
646.82	58137.74
647.02	57996.43
647.21	58385.54
647.40	58012.81
647.60	58113.16
647.79	58195.08
647.99	58215.56
648.18	58309.77
648.37	58485.89
648.57	58465.41
648.76	58184.84
648.96	58104.97
649.15	58827.90
649.34	58664.06
649.54	58227.85
649.73	58170.50
649.92	58455.17
650.12	58324.10
650.31	58436.74
650.51	58356.87
650.70	59047.04
650.89	58221.70
651.09	58446.98
651.28	58322.05
651.47	58625.15
651.67	58479.75
651.86	59081.85
652.06	58035.34
652.25	58565.76
652.44	58293.38
652.64	58680.45
652.83	58631.30
653.02	58418.31
653.22	58731.65
653.41	58299.53
653.60	58725.50
653.80	58246.28
653.99	58473.60
654.18	58647.68
654.38	58365.06
654.57	58989.69
654.76	58442.88
654.96	58481.80
655.15	58428.55
655.34	58758.27
655.54	58356.87
655.73	58864.77
655.92	58307.72
656.12	58580.10
656.31	58709.12
656.50	58791.04
656.70	58713.22
656.89	58788.99
657.08	58690.69
657.28	58805.37
657.47	58885.25
657.66	58647.68
657.86	58934.40
658.05	58815.61
658.24	58856.57
658.43	58721.41
658.63	58881.15
658.82	59131.00
659.01	59169.91
659.21	58875.01
659.40	58395.78
659.59	58258.57
659.79	59008.12
659.98	59229.30
660.17	59202.68
660.36	59087.99
660.56	58711.17
660.75	59145.34
660.94	58768.51
661.14	59151.48
661.33	58889.34
661.52	58489.99
661.71	59155.58
661.91	58619.01
662.10	58477.70
662.29	59077.75
662.49	58700.93
662.68	58524.80
662.87	58848.38
663.06	58629.25
663.26	58856.57
663.45	59393.14
663.64	58707.07
663.83	59016.32
664.03	58823.81
664.22	58397.83
664.41	58875.01
664.60	58940.54
664.80	58537.09
664.99	59169.91
665.18	58684.54
665.37	59069.56
665.57	59176.06
665.76	58477.70
665.95	58987.64
666.14	58836.09
666.34	58643.59
666.53	58852.48
666.72	59227.26
666.91	58436.74
667.11	58834.05
667.30	59169.91
667.49	58606.72
667.68	58659.97
667.87	58557.57
668.07	59028.60
668.26	58979.45
668.45	59081.85
668.64	58381.45
668.84	59618.42
669.03	58999.93
669.22	58737.79
669.41	59411.57
669.60	58619.01
669.80	58545.28
669.99	59022.46
670.18	58948.73
670.37	58893.44
670.57	59159.67
670.76	58629.25
670.95	59061.37
671.14	58862.72
671.33	58897.53
671.53	59069.56
671.72	59335.80
671.91	59102.33
672.10	58797.18
672.29	58621.06
672.48	58766.46
672.68	59087.99
672.87	58659.97
673.06	58971.26
673.25	59004.03
673.44	58610.82
673.64	59014.27
673.83	58807.42
674.02	58711.17
674.21	58733.70
674.40	59225.21
674.59	58514.56
674.79	58664.06
674.98	58891.39
675.17	58741.89
675.36	58635.39
675.55	58987.64
675.74	59012.22
675.94	58602.63
676.13	58995.84
676.32	58758.27
676.51	58913.92
676.70	58846.33
676.89	58557.57
677.08	58901.63
677.28	58717.31
677.47	58930.30
677.66	58684.54
677.85	58619.01
678.04	58727.55
678.23	59317.37
678.42	58696.83
678.62	58678.40
678.81	58811.52
679.00	58631.30
679.19	59237.50
679.38	58481.80
679.57	58539.14
679.76	58754.18
679.96	59036.80
680.15	58979.45
680.34	58571.91
680.53	58397.83
680.72	58678.40
680.91	58610.82
681.10	58049.67
681.29	58668.16
681.48	58803.33
681.68	58795.13
681.87	58637.44
682.06	58442.88
682.25	57990.28
682.44	58342.53
682.63	58285.19
682.82	58274.95
683.01	58514.56
683.20	58367.11
683.39	58760.32
683.59	57750.67
683.78	58043.53
683.97	57785.49
684.16	58045.58
684.35	58139.78
684.54	58156.17
684.73	58135.69
684.92	57965.71
685.11	57590.93
685.30	57844.88
685.49	58078.35
685.69	57877.64
685.88	57758.86
686.07	57906.32
686.26	57957.52
686.45	57891.98
686.64	58102.92
686.83	57908.36
687.02	58064.01
687.21	58317.96
687.40	57820.30
687.59	58084.49
687.78	58033.29
687.97	58315.91
688.16	57619.60
688.35	57756.81
688.54	57797.77
688.74	57932.94
688.93	57765.01
689.12	57891.98
689.31	57848.97
689.50	57726.10
689.69	57402.52
689.88	57826.45
690.07	57666.70
690.26	57517.20
690.45	58203.27
690.64	57574.55
690.83	57138.33
691.02	57351.32
691.21	57433.24
691.40	57302.17
691.59	57672.85
691.78	57496.72
691.97	57236.63
692.16	57488.53
692.35	57808.01
692.54	57463.96
692.73	57267.35
692.92	57128.09
693.11	57207.96
693.30	57420.95
693.49	57451.67
693.68	57312.41
693.87	56990.87
694.06	57099.42
694.25	57320.60
694.44	56753.31
694.63	57250.97
694.82	56747.17
695.01	57095.32
695.20	56601.76
695.39	57212.06
695.58	56710.30
695.77	56659.10
695.96	56110.25
696.15	56755.36
696.34	56612.00
696.53	56947.87
696.72	57074.84
696.91	56855.71
697.10	56503.46
697.29	56335.52
697.48	56994.97
697.67	56458.40
697.86	56052.90
698.05	56022.19
698.24	57099.42
698.43	56063.14
698.62	56659.10
698.81	56376.48
699.00	56689.82
699.19	56085.67
699.38	56452.26
699.57	55608.50
699.76	56741.02
699.95	56145.06
700.14	56122.54
700.32	56165.54
700.51	55917.74
700.70	56427.68
700.89	56022.19
701.08	56450.21
701.27	55889.07
701.46	56173.73
701.65	55512.24
701.84	55815.34
702.03	56071.34
702.22	55919.79
702.41	55776.43
702.60	56374.44
702.79	55473.33
702.98	55514.29
703.17	55475.38
703.35	55399.60
703.54	55360.69
703.73	55891.12
703.92	55489.71
704.11	55731.37
704.30	55680.17
704.49	55768.24
704.68	55096.50
704.87	55678.13
705.06	55686.32
705.25	55440.56
705.43	55368.88
705.62	55307.44
705.81	55706.80
706.00	55264.44
706.19	55219.38
706.38	54932.67
706.57	55051.45
706.76	55170.23
706.95	55100.60
707.14	55080.12
707.32	55252.15
707.51	54441.15
707.70	55059.64
707.89	54985.91
708.08	54695.10
708.27	55229.62
708.46	55104.70
708.65	54936.76
708.84	55418.03
709.02	54621.37
709.21	54772.92
709.40	55162.04
709.59	54578.37
709.78	54355.14
709.97	55010.49
710.16	54269.12
710.34	54250.69
710.53	54695.10
710.72	54553.79
710.91	54539.46
711.10	54170.82
711.29	54637.76
711.48	54502.59
711.66	54269.12
711.85	54236.36
712.04	54754.49
712.23	54256.84
712.42	54181.06
712.61	53908.68
712.80	53859.53
712.98	53957.83
713.17	53746.89
713.36	54015.18
713.55	53712.08
713.74	54088.90
713.93	53898.44
714.11	54025.42
714.30	53642.45
714.49	53834.95
714.68	54269.12
714.87	53626.06
715.06	53890.25
715.24	53863.63
715.43	53869.77
715.62	53662.93
715.81	53621.97
716.00	53892.30
716.18	53394.64
716.37	53210.32
716.56	53337.30
716.75	53632.21
716.94	53343.44
717.12	52729.05
717.31	53597.39
717.50	53308.63
717.69	53265.62
717.88	53408.98
718.06	53386.45
718.25	53482.70
718.44	53136.60
718.63	52870.36
718.82	52573.41
719.00	52745.44
719.19	52843.74
719.38	52325.60
719.57	52540.64
719.76	52217.06
719.94	51969.26
720.13	52331.75
720.32	52772.06
720.51	52393.18
720.69	52452.58
720.88	52569.31
721.07	51940.58
721.26	51463.41
721.44	52114.66
721.63	52051.17
721.82	51975.40
722.01	51596.52
722.20	52114.66
722.38	52055.27
722.57	51524.85
722.76	51999.97
722.95	51832.04
723.13	51152.12
723.32	51334.38
723.51	51541.23
723.70	51125.49
723.88	51053.81
724.07	51438.83
724.26	51662.06
724.44	50904.31
724.63	51145.97
724.82	51066.10
725.01	50742.52
725.19	50644.22
725.38	50697.47
725.57	51066.10
725.76	50918.65
725.94	50599.16
726.13	50732.28
726.32	51098.87
726.51	50914.55
726.69	50996.47
726.88	50685.18
727.07	50828.54
727.25	51000.57
727.44	50849.02
727.63	50738.43
727.82	50736.38
728.00	50404.61
728.19	50773.24
728.38	50779.39
728.56	50615.55
728.75	50601.21
728.94	50255.11
729.12	51012.85
729.31	50857.21
729.50	50212.10
729.69	50994.42
729.87	50408.70
730.06	50392.32
730.25	50541.82
730.43	50787.58
730.62	50025.73
730.81	50623.74
730.99	50287.87
731.18	50007.30
731.37	50138.37
731.55	50660.60
731.74	50861.30
731.93	50558.20
732.11	50214.15
732.30	50496.77
732.49	50394.37
732.67	50593.02
732.86	50261.25
733.05	50507.01
733.23	49870.09
733.42	50189.57
733.61	50191.62
733.79	50357.50
733.98	50365.70
734.17	49890.57
734.35	50248.96
734.54	50140.42
734.73	50111.75
734.91	50171.14
735.10	49610.00
735.29	49968.39
735.47	49587.47
735.66	49906.95
735.84	50054.40
736.03	49587.47
736.22	50533.63
736.40	49693.96
736.59	50111.75
736.78	49861.90
736.96	49874.18
737.15	49792.26
737.33	49968.39
737.52	49804.55
737.71	49861.90
737.89	49714.44
738.08	49558.80
738.27	49536.27
738.45	50017.54
738.64	49671.43
738.82	49431.82
739.01	49687.82
739.20	49513.74
739.38	49591.56
739.57	49319.18
739.75	49429.77
739.94	49493.26
740.13	49571.08
740.31	49347.86
740.50	49229.07
740.68	49286.42
740.87	49659.15
741.06	49173.78
741.24	49417.49
741.43	48899.35
741.61	49116.43
741.80	48827.67
741.99	48887.06
742.17	48620.83
742.36	49327.38
742.54	49136.91
742.73	48799.00
742.91	48747.80
743.10	48917.78
743.29	49229.07
743.47	49511.69
743.66	49157.39
743.84	49210.64
744.03	48856.34
744.21	48256.29
744.40	49292.56
744.59	48407.84
744.77	48338.21
744.96	48192.80
745.14	48776.47
745.33	48549.15
745.51	48624.92
745.70	48915.73
745.88	48624.92
746.07	48561.44
746.26	48227.62
746.44	48620.83
746.63	48291.10
746.81	47828.26
747.00	47754.54
747.18	48393.50
747.37	48059.68
747.55	48266.53
747.74	48256.29
747.92	47895.85
748.11	48215.33
748.29	48086.31
748.48	47928.61
748.66	48006.44
748.85	48008.48
749.03	47822.12
749.22	48114.98
749.41	48397.60
749.59	47815.97
749.78	47555.88
749.96	47424.81
750.15	48110.88
750.33	47797.54
750.52	47803.69
750.70	47801.64
750.89	47807.78
751.07	47353.13
751.26	47203.63
751.44	46822.71
751.63	47617.32
751.81	47361.33
752.00	47365.42
752.18	47007.03
752.37	47412.52
752.55	47209.78
752.74	47113.52
752.92	47172.91
753.10	46978.36
753.29	46789.94
753.47	46791.99
753.66	46849.33
753.84	46953.78
754.03	47027.51
754.21	46916.92
754.40	46710.07
754.58	47054.13
754.77	47240.50
754.95	46587.19
755.14	46468.41
755.32	46417.21
755.51	46497.08
755.69	46458.17
755.88	46486.84
756.06	46705.98
756.24	46519.61
756.43	46284.09
756.61	46128.45
756.80	46617.91
756.98	46353.72
757.17	46413.12
757.35	46503.23
757.54	46243.13
757.72	46751.03
757.90	46118.21
758.09	46077.25
758.27	46122.30
758.46	45669.70
758.64	45778.25
758.83	45905.22
759.01	45989.19
759.19	45874.50
759.38	45471.05
759.56	46021.95
759.75	45368.65
759.93	45718.85
760.12	45481.29
760.30	45673.80
760.48	45616.46
760.67	45774.15
760.85	45239.63
761.04	45833.54
761.22	45632.84
761.40	45485.39
761.59	45745.48
761.77	44983.63
761.96	45399.37
762.14	45296.97
762.32	44877.14
762.51	45098.32
762.69	45358.41
762.88	45002.07
763.06	44975.44
763.24	45135.18
763.43	45030.74
763.61	44635.48
763.80	44932.43
763.98	45077.84
764.16	44916.05
764.35	44696.92
764.53	44266.84
764.72	44635.48
764.90	44617.05
765.08	44598.62
765.27	44705.11
765.45	44299.61
765.63	44270.94
765.82	44569.94
766.00	44221.79
766.18	43990.37
766.37	44817.75
766.55	44189.02
766.74	44123.49
766.92	43568.49
767.10	43779.43
767.29	44053.86
767.47	43859.30
767.65	44139.87
767.84	43494.76
768.02	43871.59
768.20	43355.50
768.39	43988.32
768.57	43359.59
768.75	43818.34
768.94	43584.87
769.12	43560.30
769.30	43351.40
769.49	43468.14
769.67	43185.52
769.85	43079.02
770.04	43654.50
770.22	42917.23
770.40	42747.25
770.59	43124.08
770.77	43058.54
770.95	43064.69
771.14	43013.49
771.32	42798.45
771.50	42773.88
771.69	42802.55
771.87	43111.79
772.05	42933.62
772.24	42653.05
772.42	42954.10
772.60	42628.47
772.78	42886.51
772.97	42139.00
773.15	42804.59
773.33	42564.98
773.52	42591.61
773.70	42655.09
773.88	42759.54
774.07	42433.91
774.25	42704.24
774.43	42775.92
774.61	42458.49
774.80	42802.55
774.98	42716.53
775.16	42515.83
775.34	42286.46
775.53	42372.47
775.71	43021.68
775.89	42618.23
776.08	42630.52
776.26	42132.86
776.44	42261.88
776.62	42536.31
776.81	42468.73
776.99	42636.66
777.17	42634.61
777.35	42644.85
777.54	42943.86
777.72	42413.43
777.90	42734.96
778.08	42679.67
778.27	42937.71
778.45	43197.80
778.63	42933.62
778.81	42296.70
779.00	43324.78
779.18	42782.07
779.36	43171.18
779.54	43031.92
779.73	42786.16
779.91	42747.25
780.09	43013.49
780.27	43404.65
780.46	42745.20
780.64	43109.74
780.82	43263.34
781.00	43009.39
781.19	43769.19
781.37	43132.27
781.55	43375.98
781.73	43271.53
781.91	43156.85
782.10	43418.99
782.28	43302.25
782.46	43505.00
782.64	43410.79
782.82	43388.27
783.01	43314.54
783.19	43691.37
783.37	43226.48
783.55	43634.02
783.74	43507.05
783.92	43173.23
784.10	43990.37
784.28	43416.94
784.46	43021.68
784.64	43173.23
784.83	43134.32
785.01	43672.93
785.19	43201.90
785.37	43128.17
785.55	43009.39
785.74	42847.60
785.92	43242.86
786.10	43337.07
786.28	42904.95
786.46	42626.42
786.64	43177.33
786.83	42833.27
787.01	42728.82
787.19	42927.47
787.37	42962.29
787.55	42890.61
787.74	42737.01
787.92	43038.06
788.10	42804.59
788.28	42272.12
788.46	42917.23
788.64	42317.18
788.82	42831.22
789.01	42808.69
789.19	42407.29
789.37	42339.71
789.55	42192.25
789.73	42036.61
789.91	42573.17
790.09	42485.11
790.28	42360.19
790.46	42403.19
790.64	42401.14
790.82	42347.90
791.00	41715.08
791.18	42167.68
791.36	41817.47
791.55	42071.42
791.73	41368.97
791.91	41674.12
792.09	41829.76
792.27	41190.80
792.45	41817.47
792.63	41551.24
792.81	41301.39
793.00	41416.07
793.18	41219.47
793.36	41145.74
793.54	41258.38
793.72	41153.93
793.90	40703.38
794.08	41006.48
794.26	40641.94
794.44	40281.50
794.62	40461.72
794.81	40742.29
794.99	40549.78
795.17	40256.92
795.35	40086.94
795.53	40201.63
795.71	40566.16
795.89	39869.86
796.07	39722.40
796.25	39482.79
796.43	39372.20
796.61	39290.28
796.80	39634.34
796.98	39527.84
797.16	39112.11
797.34	39282.09
797.52	39171.50
797.70	39351.72
797.88	39071.15
798.06	38546.87
798.24	38669.75
798.42	38598.07
798.60	38940.08
798.78	38348.21
798.96	38833.58
799.14	38092.22
799.32	38409.65
799.51	38141.37
799.69	38612.40
799.87	38421.94
800.05	38092.22
800.23	38118.84
800.41	38098.36
800.59	37877.18
800.77	37635.52
800.95	37680.58
801.13	37516.74
801.31	37381.57
801.49	37285.32
801.67	37332.42
801.85	37340.61
802.03	37178.82
802.21	37070.28
802.39	36648.40
802.57	36920.78
802.75	37107.15
802.93	36863.44
803.11	36871.63
803.29	36437.46
803.47	36179.42
803.65	36312.53
803.83	36693.46
804.01	36263.38
804.19	35948.00
804.37	35806.69
804.55	36091.35
804.73	36163.03
804.91	36158.94
805.09	35960.28
805.27	35968.48
805.45	36142.55
805.63	35935.71
805.81	35644.90
805.99	35614.18
806.17	35747.29
806.35	35517.92
806.53	35194.34
806.71	35524.07
806.89	35427.81
807.07	35108.33
807.25	35440.10
807.43	34729.45
807.61	35251.69
807.79	34940.39
807.97	34962.92
808.15	34977.26
808.33	34860.52
808.51	34463.22
808.69	34254.33
808.87	34158.07
809.05	34260.47
809.23	34360.82
809.41	33906.17
809.59	34274.80
809.77	34401.78
809.95	33836.54
810.13	34125.30
810.31	33644.03
810.49	33887.74
810.67	33779.20
810.84	33859.07
811.02	33928.70
811.20	33416.71
811.38	33814.01
811.56	33588.74
811.74	33502.72
811.92	33388.03
812.10	33230.34
812.28	33154.57
812.46	33261.06
812.64	33173.00
812.82	33177.09
813.00	33398.27
813.18	32710.16
813.36	32806.41
813.53	32603.66
813.71	32884.23
813.89	32642.57
814.07	32642.57
814.25	32605.71
814.43	32704.01
814.61	32421.39
814.79	32357.91
814.97	32155.16
815.15	32486.93
815.33	31976.98
815.50	31964.70
815.68	32208.40
815.86	31989.27
816.04	31956.50
816.22	31757.85
816.40	31979.03
816.58	31776.28
816.76	31778.33
816.94	31610.40
817.11	31342.11
817.29	31716.89
817.47	31344.16
817.65	31370.79
817.83	31464.99
818.01	31075.88
818.19	31155.75
818.37	31405.60
818.54	30996.01
818.72	30926.38
818.90	31301.15
819.08	31096.36
819.26	31237.67
819.44	30993.96
819.62	30823.98
819.80	30762.54
819.97	31100.45
820.15	30912.04
820.33	30629.42
820.51	30674.48
820.69	30322.23
820.87	30744.11
821.05	30318.13
821.22	30469.68
821.40	30641.71
821.58	30137.91
821.76	30223.92
821.94	30244.40
822.12	29955.64
822.29	30385.71
822.47	30131.76
822.65	30336.56
822.83	30006.84
823.01	30017.08
823.19	29988.41
823.36	29818.42
823.54	29818.42
823.72	29521.47
823.90	29568.57
824.08	29406.78
824.25	29341.25
824.43	29464.13
824.61	29255.23
824.79	29376.06
824.97	29460.03
825.15	29713.98
825.32	29623.87
825.50	29077.06
825.68	29324.86
825.86	29294.14
826.04	29320.77
826.21	29220.42
826.39	29212.23
826.57	29079.11
826.75	28765.77
826.93	28999.24
827.10	29032.00
827.28	28976.71
827.46	29173.31
827.64	28980.81
827.81	28792.39
827.99	28810.82
828.17	28661.32
828.35	28464.72
828.53	28470.86
828.70	28497.49
828.88	28603.98
829.06	29017.67
829.24	28493.39
829.41	28366.42
829.59	28673.61
829.77	28350.03
829.95	28169.81
830.12	28380.75
830.30	28063.32
830.48	28456.53
830.66	28100.18
830.84	28202.58
831.01	27766.36
831.19	28153.43
831.37	27979.35
831.55	28024.40
831.72	28048.98
831.90	28087.89
832.08	28216.91
832.25	27977.30
832.43	27895.38
832.61	27659.87
832.79	27737.69
832.96	27922.01
833.14	27596.38
833.32	27666.01
833.50	27514.46
833.67	27907.67
833.85	27528.80
834.03	27268.70
834.20	27555.42
834.38	27731.54
834.56	27717.21
834.74	27463.26
834.91	27293.28
835.09	27336.29
835.27	27174.50
835.44	27151.97
835.62	26943.08
835.80	26773.10
835.98	27072.10
836.15	27203.17
836.33	27033.19
836.51	27008.61
836.68	26451.56
836.86	27217.50
837.04	26883.69
837.21	27070.05
837.39	27117.15
837.57	26715.75
837.75	26760.81
837.92	26474.09
838.10	26670.70
838.28	25871.99
838.45	26553.96
838.63	26103.41
838.81	26682.98
838.98	26404.46
839.16	26359.41
839.34	26189.42
839.51	26105.46
839.69	26146.42
839.87	25874.04
840.04	25943.67
840.22	26257.01
840.40	26082.93
840.57	25847.41
840.75	26394.22
840.93	25923.19
841.10	26011.25
841.28	26166.90
841.46	25996.92
841.63	26087.03
841.81	26099.31
841.98	25943.67
842.16	25671.29
842.34	25859.70
842.51	25652.86
842.69	25847.41
842.87	25890.42
843.04	25745.02
843.22	25667.19
843.40	25867.89
843.57	25192.06
843.75	25398.91
843.92	25693.82
844.10	25501.31
844.28	25636.47
844.45	25454.20
844.63	25409.15
844.81	25376.38
844.98	25185.92
845.16	25493.12
845.33	25273.98
845.51	25298.56
845.69	25112.19
845.86	25040.51
846.04	25173.63
846.21	25022.08
846.39	25167.49
846.57	24815.24
846.74	24897.16
846.92	24831.62
847.09	24843.91
847.27	24915.59
847.45	24743.56
847.62	25003.65
847.80	24856.20
847.97	24880.77
848.15	24727.17
848.32	24731.27
848.50	24706.70
848.68	24503.95
848.85	24612.49
849.03	24264.33
849.20	24329.87
849.38	24532.62
849.56	24508.04
849.73	24243.85
849.91	24405.64
850.08	24557.19
850.26	24266.38
850.43	24362.64
850.61	24206.99
850.78	24211.09
850.96	23994.00
851.14	23985.81
851.31	23975.57
851.49	24340.11
851.66	24012.43
851.84	23910.04
852.01	23797.40
852.19	24188.56
852.36	24010.39
852.54	23983.76
852.71	23821.97
852.89	23643.80
853.07	23977.62
853.24	23565.98
853.42	23907.99
853.59	23742.10
853.77	23701.14
853.94	23633.56
854.12	23862.93
854.29	23545.50
854.47	23488.15
854.64	23559.83
854.82	23496.35
854.99	23596.70
855.17	23535.26
855.34	23367.32
855.52	23275.16
855.69	23510.68
855.87	23348.89
856.04	23099.04
856.22	23451.29
856.39	23352.99
856.57	23254.69
856.74	23033.50
856.92	23410.33
857.09	23000.74
857.27	22955.68
857.44	23180.96
857.62	23154.33
857.79	22998.69
857.97	23109.28
858.14	22851.24
858.32	22841.00
858.49	22945.44
858.67	22744.74
858.84	22656.68
859.02	23037.60
859.19	22767.27
859.37	22701.73
859.54	22734.50
859.72	22558.38
859.89	22453.93
860.06	22773.41
860.24	22351.53
860.41	22687.40
860.59	22378.15
860.76	22568.62
860.94	22433.45
861.11	22693.54
861.29	22193.84
861.46	22380.20
861.64	22083.25
861.81	22339.24
861.98	22320.81
862.16	21989.04
862.33	22089.39
862.51	21900.98
862.68	22187.69
862.86	21884.59
863.03	22075.06
863.21	21923.51
863.38	22097.58
863.55	21886.64
863.73	22056.62
863.90	21874.35
864.08	21970.61
864.25	21995.18
864.43	21745.33
864.60	21866.16
864.77	21612.21
864.95	21624.50
865.12	21622.45
865.30	21563.06
865.47	21458.62
865.64	21565.11
865.82	21722.80
865.99	21571.25
866.17	21268.16
866.34	21542.58
866.51	21448.38
866.69	21399.23
866.86	21579.45
867.04	21419.71
867.21	21405.37
867.38	21137.09
867.56	21098.17
867.73	21155.52
867.91	20926.14
868.08	20942.53
868.25	21067.45
868.43	20930.24
868.60	20893.38
868.78	20930.24
868.95	21399.23
869.12	20868.80
869.30	20870.85
869.47	21137.09
869.64	20616.90
869.82	20596.42
869.99	20590.28
870.16	20907.71
870.34	20471.50
870.51	20659.91
870.69	20401.86
870.86	20330.19
871.03	20516.55
871.21	20369.10
871.38	20436.68
871.55	20319.95
871.73	20231.88
871.90	20268.75
872.07	19951.31
872.25	20158.16
872.42	20123.34
872.59	20109.01
872.77	20137.68
872.94	19990.22
873.11	19691.22
873.29	20039.37
873.46	19900.11
873.63	19965.65
873.81	19820.24
873.98	19703.51
874.15	19816.15
874.33	19691.22
874.50	19662.55
874.67	19822.29
874.85	19556.05
875.02	19689.17
875.19	19384.02
875.37	19357.40
875.54	19515.09
875.71	19355.35
875.88	19162.84
876.06	19416.79
876.23	19476.18
876.40	19267.29
876.58	19136.22
876.75	19238.62
876.92	19171.04
877.10	19203.80
877.27	18917.09
877.44	19027.68
877.61	18994.91
877.79	18931.42
877.96	19144.41
878.13	18958.05
878.31	18925.28
878.48	18566.88
878.65	18814.69
878.82	18630.37
879.00	18904.80
879.17	18814.69
879.34	18646.76
879.51	18695.91
879.69	18626.28
879.86	18173.67
880.03	18212.59
880.21	18339.56
880.38	18419.43
880.55	18319.08
880.72	18384.62
880.90	18493.16
881.07	18212.59
881.24	18292.46
881.41	18312.94
881.59	18317.03
881.76	18175.72
881.93	18134.76
882.10	17843.95
882.28	17948.40
882.45	18073.32
882.62	18083.56
882.79	18124.52
882.96	17743.60
883.14	18171.63
883.31	18206.44
883.48	17721.07
883.65	18087.66
883.83	18011.89
884.00	17737.46
884.17	17762.03
884.34	17983.21
884.51	17886.96
884.69	17772.27
884.86	17940.21
885.03	17770.22
885.20	17370.87
885.38	17614.58
885.55	17463.03
885.72	17686.26
885.89	17614.58
886.06	17432.31
886.24	17426.17
886.41	17553.14
886.58	17651.44
886.75	17567.48
886.92	17342.20
887.10	17587.96
887.27	17344.25
887.44	17215.23
887.61	17344.25
887.78	17524.47
887.95	17207.03
888.13	17266.42
888.30	17118.97
888.47	17092.35
888.64	17159.93
888.81	17032.96
888.99	16934.65
889.16	16781.06
889.33	16793.34
889.50	16981.76
889.67	16942.85
889.84	16631.55
890.01	16781.06
890.19	16758.53
890.36	16832.26
890.53	16662.27
890.70	16682.75
890.87	16746.24
891.04	16805.63
891.22	16555.78
891.39	16658.18
891.56	16348.93
891.73	16785.15
891.90	16670.47
892.07	16269.06
892.24	16500.48
892.42	16404.23
892.59	16584.45
892.76	16531.20
892.93	16475.91
893.10	16400.13
893.27	16232.20
893.44	15955.72
893.61	16264.97
893.79	16512.77
893.96	16101.13
894.13	16381.70
894.30	16344.84
894.47	16049.93
894.64	16342.79
894.81	16520.96
894.98	16183.05
895.15	16457.48
895.33	16023.31
895.50	16074.51
895.67	16342.79
895.84	16039.69
896.01	16017.16
896.18	16037.64
896.35	16344.84
896.52	16043.79
896.69	15939.34
896.86	16017.16
897.04	15961.87
897.21	16174.86
897.38	15841.04
897.55	15998.73
897.72	16074.51
897.89	16224.01
898.06	16031.50
898.23	16123.66
898.40	16258.82
898.57	16070.41
898.74	15836.94
898.91	15957.77
899.08	16117.51
899.26	15982.35
899.43	15879.95
899.60	15879.95
899.77	16041.74
899.94	15906.57
900.11	16076.55
900.28	16076.55
900.45	15746.83
900.62	15720.21
900.79	15771.41
900.96	16078.60
901.13	15738.64
901.30	15812.37
901.47	15863.57
901.64	15890.19
901.81	15961.87
901.98	15814.41
902.15	15972.11
902.32	15828.75
902.49	15748.88
902.66	15884.05
902.83	15783.70
903.01	16082.70
903.18	15904.53
903.35	15771.41
903.52	15943.44
903.69	15906.57
903.86	15873.81
904.03	15834.89
904.20	16062.22
904.37	15953.68
904.54	15798.03
904.71	15998.73
904.88	15961.87
905.05	15843.09
905.22	15933.20
905.39	15687.44
905.56	15892.24
905.73	15759.12
905.90	16056.08
906.07	15906.57
906.24	15707.92
906.41	15955.72
906.58	15900.43
906.75	15683.34
906.92	15564.56
907.09	15709.97
907.26	15800.08
907.43	15564.56
907.60	15734.54
907.77	15806.22
907.93	15738.64
908.10	15795.98
908.27	15929.10
908.44	15984.40
908.61	15568.66
908.78	15605.52
908.95	15501.08
909.12	15816.46
909.29	15449.88
909.46	15597.33
909.63	15642.39
909.80	15449.88
909.97	15892.24
910.14	15628.05
910.31	15785.74
910.48	15539.99
910.65	15595.28
910.82	15519.51
910.99	15339.29
911.16	15273.75
911.33	15257.37
911.50	15367.96
911.66	15191.83
911.83	15388.44
912.00	15320.85
912.17	15077.15
912.34	15290.13
912.51	15181.59
912.68	15226.65
912.85	15214.36
913.02	15441.68
913.19	15382.29
913.36	15163.16
913.53	15257.37
913.70	15179.54
913.86	15243.03
914.03	15413.01
914.20	14937.88
914.37	15126.30
914.54	14804.77
914.71	15111.96
914.88	14946.08
915.05	14794.53
915.22	14751.52
915.39	14917.40
915.55	14665.50
915.72	14677.79
915.89	14583.59
916.06	14810.91
916.23	14518.05
916.40	14485.28
916.57	14354.21
916.74	14550.82
916.91	14636.83
917.07	14421.80
917.24	14518.05
917.41	14405.41
917.58	14366.50
917.75	14151.46
917.92	14442.28
918.09	14253.86
918.26	14190.38
918.42	14241.57
918.59	14337.83
918.76	13987.63
918.93	14085.93
919.10	13872.94
919.27	13883.18
919.44	13868.84
919.60	13705.01
919.77	13713.20
919.94	13655.86
920.11	13774.64
920.28	13782.83
920.45	13944.62
920.61	13811.50
920.78	13580.08
920.95	13573.94
921.12	13575.98
921.29	13532.98
921.46	13242.17
921.62	13074.23
921.79	13102.90
921.96	13281.08
922.13	13340.47
922.30	13051.70
922.47	12951.35
922.63	12896.06
922.80	12947.26
922.97	13084.47
923.14	12812.09
923.31	12758.85
923.47	12668.73
923.64	13049.66
923.81	12955.45
923.98	12828.48
924.15	12631.87
924.32	12758.85
924.48	12584.77
924.65	12644.16
924.82	12789.56
924.99	12504.90
925.15	12318.53
925.32	12445.51
925.49	12123.98
925.66	12257.09
925.83	12017.48
925.99	11968.33
926.16	12201.80
926.33	12154.69
926.50	11917.13
926.67	12382.02
926.83	12011.34
927.00	12164.93
927.17	11929.42
927.34	11738.96
927.50	11902.79
927.67	11796.30
927.84	11773.77
928.01	11661.13
928.17	11452.24
928.34	11550.54
928.51	11528.02
928.68	11497.30
928.84	11448.15
929.01	11204.44
929.18	11149.14
929.35	11312.98
929.51	11114.33
929.68	11177.81
929.85	11149.14
930.02	11116.37
930.18	11167.57
930.35	10952.54
930.52	10942.30
930.69	10839.90
930.85	10821.47
931.02	10692.44
931.19	10815.32
931.36	10569.57
931.52	10813.28
931.69	10674.01
931.86	10692.44
932.02	10559.33
932.19	10471.26
932.36	10370.91
932.53	10418.02
932.69	10223.46
932.86	10295.14
933.03	10278.76
933.19	10112.87
933.36	10239.84
933.53	10258.28
933.70	9963.37
933.86	9869.16
934.03	10016.62
934.20	9731.95
934.36	9817.96
934.53	9826.15
934.70	9445.23
934.86	9564.01
935.03	9619.31
935.20	9400.18
935.36	9441.14
935.53	9484.14
935.70	9121.65
935.86	9252.72
936.03	9215.86
936.20	8910.71
936.36	8910.71
936.53	8839.03
936.70	8763.26
936.86	8742.78
937.03	8707.96
937.20	8644.48
937.36	8677.24
937.53	8429.44
937.70	8208.26
937.86	8243.07
938.03	8028.04
938.20	8318.85
938.36	7978.89
938.53	8163.20
938.70	7876.49
938.86	7821.19
939.03	7651.21
939.20	7524.24
939.36	7487.37
939.53	7346.06
939.70	7493.52
939.86	7227.28
940.03	7229.33
940.19	7081.88
940.36	7026.58
940.53	7163.79
940.69	6924.18
940.86	6932.37
941.03	6709.15
941.19	6700.95
941.36	6623.13
941.52	6533.02
941.69	6500.25
941.86	6377.37
942.02	6389.66
942.19	6406.05
942.35	6338.46
942.52	6240.16
942.69	6287.26
942.85	6080.42
943.02	6166.43
943.18	6164.39
943.35	5941.16
943.52	6053.80
943.68	5943.21
943.85	5980.07
944.01	5842.85
944.18	5898.15
944.35	6041.51
944.51	5613.48
944.68	5537.71
944.84	5537.71
945.01	5662.63
945.17	5724.07
945.34	5752.74
945.51	5681.07
945.67	5638.06
945.84	5656.49
946.00	5416.88
946.17	5521.32
946.33	5468.08
946.50	5629.87
946.67	5570.48
946.83	5472.17
947.00	5638.06
947.16	5468.08
947.33	5400.49
947.49	5474.22
947.66	5392.30
947.82	5373.87
947.99	5453.74
948.16	5414.83
948.32	5480.36
948.49	5382.06
948.65	5498.80
948.82	5543.85
948.98	5429.17
949.15	5474.22
949.31	5488.56
949.48	5347.25
949.64	5496.75
949.81	5433.26
949.97	5543.85
950.14	5588.91
950.30	5457.84
950.47	5533.61
950.63	5484.46
950.80	5488.56
950.96	5357.49
951.13	5496.75
951.30	5500.84
951.46	5521.32
951.63	5607.34
951.79	5597.10
951.96	5562.28
952.12	5558.19
952.29	5531.56
952.45	5586.86
952.62	5492.65
952.78	5550.00
952.94	5537.71
953.11	5466.03
953.27	5488.56
953.44	5685.16
953.60	5443.50
953.77	5560.24
953.93	5627.82
954.10	5541.80
954.26	5529.52
954.43	5599.15
954.59	5722.02
954.76	5812.14
954.92	5648.30
955.09	5617.58
955.25	5701.54
955.42	5601.19
955.58	5689.26
955.75	5638.06
955.91	5570.48
956.07	5715.88
956.24	5550.00
956.40	5617.58
956.57	5689.26
956.73	5627.82
956.90	5668.78
957.06	5681.07
957.23	5644.20
957.39	5625.77
957.56	5709.74
957.72	5457.84
957.88	5578.67
958.05	5738.41
958.21	5695.40
958.38	5785.51
958.54	5631.91
958.71	5758.89
958.87	5617.58
959.03	5674.92
959.20	5621.67
959.36	5781.42
959.53	5607.34
959.69	5568.43
959.85	5762.98
960.02	5568.43
960.18	5746.60
960.35	5851.05
960.51	5752.74
960.68	5578.67
960.84	5566.38
961.00	5769.13
961.17	5550.00
961.33	5781.42
961.50	5627.82
961.66	5490.60
961.82	5572.52
961.99	5656.49
962.15	5650.35
962.31	5644.20
962.48	5658.54
962.64	5554.09
962.81	5560.24
962.97	5570.48
963.13	5660.59
963.30	5629.87
963.46	5435.31
963.62	5492.65
963.79	5513.13
963.95	5515.18
964.12	5394.35
964.28	5506.99
964.44	5560.24
964.61	5599.15
964.77	5425.07
964.93	5656.49
965.10	5646.25
965.26	5554.09
965.42	5439.40
965.59	5400.49
965.75	5597.10
965.92	5386.16
966.08	5593.00
966.24	5517.23
966.41	5537.71
966.57	5441.45
966.73	5648.30
966.90	5441.45
967.06	5429.17
967.22	5316.53
967.39	5466.03
967.55	5193.65
967.71	5304.24
967.88	5265.33
968.04	5351.34
968.20	5201.84
968.37	5218.22
968.53	5332.91
968.69	5312.43
968.85	5382.06
969.02	5359.53
969.18	5404.59
969.34	5263.28
969.51	5316.53
969.67	5312.43
969.83	5171.12
970.00	5326.77
970.16	5345.20
970.32	5308.34
970.48	5296.05
970.65	5304.24
970.81	5189.55
970.97	5244.85
971.14	5169.07
971.30	5349.29
971.46	5142.45
971.63	5195.70
971.79	5156.79
971.95	5156.79
972.11	5115.83
972.28	5121.97
972.44	5115.83
972.60	5003.19
972.76	5191.60
972.93	5013.43
973.09	5140.40
973.25	5128.11
973.42	5115.83
973.58	5033.91
973.74	5035.96
973.90	5029.81
974.07	5011.38
974.23	4958.13
974.39	4984.76
974.55	4997.04
974.72	4886.45
974.88	4982.71
975.04	5001.14
975.20	4808.63
975.37	4958.13
975.53	4751.29
975.69	5044.15
975.85	5005.24
976.01	4847.54
976.18	4900.79
976.34	4892.60
976.50	4947.89
976.66	4931.51
976.83	4935.60
976.99	4878.26
977.15	4882.36
977.31	4591.55
977.47	4722.62
977.64	4749.24
977.80	4798.39
977.96	4763.58
978.12	4886.45
978.29	4773.82
978.45	4624.31
978.61	4558.78
978.77	4739.00
978.93	4681.66
979.10	4679.61
979.26	4538.30
979.42	4698.04
979.58	4521.92
979.74	4575.16
979.91	4526.01
980.07	4612.03
980.23	4708.28
980.39	4511.68
980.55	4544.44
980.71	4616.12
980.88	4566.97
981.04	4491.20
981.20	4571.07
981.36	4532.15
981.52	4540.35
981.68	4433.85
981.85	4618.17
982.01	4523.96
982.17	4304.83
982.33	4440.00
982.49	4462.52
982.65	4435.90
982.82	4366.27
982.98	4341.69
983.14	4282.30
983.30	4384.70
983.46	4517.82
983.62	4468.67
983.79	4358.08
983.95	4315.07
984.11	4302.78
984.27	4231.10
984.43	4249.54
984.59	4366.27
984.75	4329.41
984.91	4249.54
985.08	4384.70
985.24	4124.61
985.40	4231.10
985.56	4251.58
985.72	4370.37
985.88	4292.54
986.04	4071.36
986.20	4136.90
986.37	4249.54
986.53	4149.18
986.69	4032.45
986.85	4218.82
987.01	3983.30
987.17	4251.58
987.33	3942.34
987.49	4067.27
987.65	4083.65
987.82	4077.51
987.98	4124.61
988.14	4106.18
988.30	4138.94
988.46	4085.70
988.62	4071.36
988.78	4016.07
988.94	3993.54
989.10	4005.83
989.26	3962.82
989.42	4003.78
989.59	3964.87
989.75	3979.20
989.91	3948.48
990.07	3887.04
990.23	3882.95
990.39	3981.25
990.55	3895.24
990.71	3887.04
990.87	3940.29
991.03	3868.61
991.19	3784.65
991.35	3852.23
991.51	3860.42
991.67	3987.40
991.83	3848.13
992.00	3774.41
992.16	3852.23
992.32	3901.38
992.48	3866.56
992.64	3868.61
992.80	3768.26
992.96	3868.61
993.12	3694.54
993.28	3755.97
993.44	3764.17
993.60	3770.31
993.76	3729.35
993.92	3794.89
994.08	3854.28
994.24	3616.71
994.40	3745.73
994.56	3688.39
994.72	3579.85
994.88	3727.30
995.04	3600.33
995.20	3643.34
995.36	3596.23
995.52	3624.90
995.68	3536.84
995.84	3563.47
996.00	3665.86
996.16	3551.18
996.32	3592.14
996.48	3600.33
996.64	3518.41
996.80	3528.65
996.96	3590.09
997.12	3512.27
997.28	3522.51
997.44	3479.50
997.60	3508.17
997.76	3442.64
997.92	3407.82
998.08	3551.18
998.24	3397.58
998.40	3403.72
998.56	3522.51
998.72	3319.76
998.88	3362.76
999.04	3278.80
999.20	3545.03
999.36	3252.17
999.52	3401.68
999.68	3424.20
999.84	3381.20
1000.00	3258.32
1000.16	3420.11
1000.32	3278.80
1000.48	3432.40
1000.64	3256.27
1000.80	3383.24
1000.95	3239.89
1001.11	3262.41
1001.27	3153.87
1001.43	3227.60
1001.59	3157.97
1001.75	3172.30
1001.91	3252.17
1002.07	3149.78
1002.23	3178.45
1002.39	3114.96
1002.55	3303.37
1002.71	3239.89
1002.87	3166.16
1003.03	3059.67
1003.19	3237.84
1003.34	3211.22
1003.50	3137.49
1003.66	3170.26
1003.82	3104.72
1003.98	3084.24
1004.14	3127.25
1004.30	3090.38
1004.46	3104.72
1004.62	3155.92
1004.78	3117.01
1004.94	3108.82
1005.09	3153.87
1005.25	3133.39
1005.41	2983.89
1005.57	3076.05
1005.73	3071.95
1005.89	2992.08
1006.05	3114.96
1006.21	3041.23
1006.37	2885.59
1006.52	2953.17
1006.68	2965.46
1006.84	3119.06
1007.00	2930.64
1007.16	2996.18
1007.32	2889.68
1007.48	3014.61
1007.64	2942.93
1007.79	2865.11
1007.95	2844.63
1008.11	2934.74
1008.27	2920.40
1008.43	2944.98
1008.59	2992.08
1008.75	3078.10
1008.91	2926.55
1009.06	2852.82
1009.22	2973.65
1009.38	2858.96
1009.54	2916.31
1009.70	2707.41
1009.86	2871.25
1010.01	2885.59
1010.17	2781.14
1010.33	2908.12
1010.49	2820.05
1010.65	2926.55
1010.81	2674.65
1010.96	2801.62
1011.12	2729.94
1011.28	2715.61
1011.44	2783.19
1011.60	2752.47
1011.76	2801.62
1011.91	2820.05
1012.07	2684.89
1012.23	2729.94
1012.39	2656.22
1012.55	2777.05
1012.71	2701.27
1012.86	2723.80
1013.02	2715.61
1013.18	2580.44
1013.34	2680.79
1013.50	2678.74
1013.65	2719.70
1013.81	2572.25
1013.97	2631.64
1014.13	2619.35
1014.29	2629.59
1014.44	2770.90
1014.60	2674.65
1014.76	2584.54
1014.92	2672.60
1015.07	2551.77
1015.23	2713.56
1015.39	2510.81
1015.55	2598.87
1015.71	2541.53
1015.86	2549.72
1016.02	2568.15
1016.18	2441.18
1016.34	2650.07
1016.49	2529.24
1016.65	2596.82
1016.81	2537.43
1016.97	2551.77
1017.12	2578.39
1017.28	2498.52
1017.44	2457.56
1017.60	2508.76
1017.75	2449.37
1017.91	2455.51
1018.07	2475.99
1018.23	2492.38
1018.38	2373.60
1018.54	2453.47
1018.70	2527.19
1018.86	2430.94
1019.01	2523.10
1019.17	2508.76
1019.33	2580.44
1019.49	2432.99
1019.64	2480.09
1019.80	2467.80
1019.96	2414.56
1020.12	2490.33
1020.27	2340.83
1020.43	2414.56
1020.59	2428.89
1020.74	2379.74
1020.90	2359.26
1021.06	2351.07
1021.22	2377.69
1021.37	2303.96
1021.53	2377.69
1021.69	2443.23
1021.84	2287.58
1022.00	2318.30
1022.16	2248.67
1022.31	2387.93
1022.47	2461.66
1022.63	2416.60
1022.79	2213.85
1022.94	2285.53
1023.10	2392.03
1023.26	2248.67
1023.41	2248.67
1023.57	2254.81
1023.73	2314.20
1023.88	2217.95
1024.04	2283.49
1024.20	2207.71
1024.35	2314.20
1024.51	2291.68
1024.67	2207.71
1024.82	2312.16
1024.98	2095.07
1025.14	2281.44
1025.29	2179.04
1025.45	2306.01
1025.61	2201.57
1025.76	2181.09
1025.92	2191.33
1026.08	2240.48
1026.23	2199.52
1026.39	2201.57
1026.55	2238.43
1026.70	2125.79
1026.86	2144.22
1027.02	2197.47
1027.17	2215.90
1027.33	2260.96
1027.48	2199.52
1027.64	2205.66
1027.80	2140.13
1027.95	2199.52
1028.11	2090.98
1028.27	2170.85
1028.42	2097.12
1028.58	2144.22
1028.73	2107.36
1028.89	2097.12
1029.05	2183.13
1029.20	2115.55
>>>>>End Processed Spectral Data<<<<<
