SpectraSuite Data File
++++++++++++++++++++++++++++++++++++
Date: Fri Jun 02 14:41:59 CEST 2017
User: INFO_000
Dark Spectrum Present: No
Reference Spectrum Present: No
Number of Sampled Component Spectra: 1
Spectrometers: USB4H00879
Integration Time (usec): 80000 (USB4H00879)
Spectra Averaged: 1 (USB4H00879)
Boxcar Smoothing: 0 (USB4H00879)
Correct for Electrical Dark: No (USB4H00879)
Strobe/Lamp Enabled: No (USB4H00879)
Correct for Detector Non-linearity: No (USB4H00879)
Correct for Stray Light: No (USB4H00879)
Number of Pixels in Processed Spectrum: 3648
>>>>>Begin Processed Spectral Data<<<<<
345.13	1282.03
345.34	1282.03
345.56	1282.03
345.78	1312.75
345.99	1331.18
346.21	1701.86
346.42	1679.33
346.64	1628.14
346.86	1826.79
347.07	1634.28
347.29	1710.05
347.50	1683.43
347.72	1662.95
347.94	1771.49
348.15	1578.98
348.37	1642.47
348.59	1722.34
348.80	1640.42
349.02	1814.50
349.23	1927.14
349.45	1880.04
349.67	1834.98
349.88	1798.12
350.10	1910.75
350.31	1781.73
350.53	1808.36
350.75	1986.53
350.96	1816.55
351.18	1834.98
351.39	1863.65
351.61	1814.50
351.82	1871.84
352.04	1941.47
352.26	1814.50
352.47	1912.80
352.69	1951.71
352.90	1703.91
353.12	1861.60
353.34	1830.88
353.55	1925.09
353.77	1877.99
353.98	1841.12
354.20	1804.26
354.41	1882.08
354.63	1920.99
354.85	1970.15
355.06	1939.43
355.28	1861.60
355.49	1859.56
355.71	1918.95
355.92	1875.94
356.14	1923.04
356.35	1828.84
356.57	1898.47
356.79	1935.33
357.00	1828.84
357.22	1992.67
357.43	1812.45
357.65	1976.29
357.86	1834.98
358.08	1994.72
358.29	1886.18
358.51	1964.00
358.72	1968.10
358.94	1914.85
359.16	1970.15
359.37	1970.15
359.59	2002.91
359.80	1990.63
360.02	1918.95
360.23	2004.96
360.45	1984.48
360.66	2011.11
360.88	1923.04
361.09	1972.19
361.31	1992.67
361.52	1943.52
361.74	2111.46
361.95	2058.21
362.17	1931.23
362.38	2031.58
362.60	2009.06
362.81	1994.72
363.03	1970.15
363.24	1990.63
363.46	2109.41
363.67	2000.87
363.89	2019.30
364.10	2064.35
364.32	1961.95
364.53	2084.83
364.75	1912.80
364.96	2007.01
365.18	2009.06
365.39	1943.52
365.61	1951.71
365.82	2086.88
366.04	2023.39
366.25	1994.72
366.47	2074.59
366.68	2029.54
366.90	1988.58
367.11	2019.30
367.33	2152.42
367.54	2103.26
367.76	2107.36
367.97	1994.72
368.19	2017.25
368.40	2009.06
368.62	2047.97
368.83	2045.92
369.05	2017.25
369.26	1974.24
369.48	2019.30
369.69	2021.35
369.91	2031.58
370.12	1978.34
370.33	2125.79
370.55	2062.30
370.76	2127.84
370.98	2129.89
371.19	2082.78
371.41	2031.58
371.62	2002.91
371.84	2099.17
372.05	2111.46
372.27	2076.64
372.48	2095.07
372.69	2009.06
372.91	2154.46
373.12	2191.33
373.34	2090.98
373.55	2105.31
373.77	2191.33
373.98	2064.35
374.20	2183.13
374.41	2254.81
374.62	2107.36
374.84	2111.46
375.05	2146.27
375.27	2203.61
375.48	2140.13
375.70	2101.22
375.91	2220.00
376.12	2297.82
376.34	2154.46
376.55	2150.37
376.77	2172.89
376.98	2015.20
377.19	2168.80
377.41	2129.89
377.62	2164.70
377.84	2283.49
378.05	2398.17
378.27	2179.04
378.48	2285.53
378.69	2416.60
378.91	2330.59
379.12	2265.05
379.34	2297.82
379.55	2250.72
379.76	2230.24
379.98	2230.24
380.19	2260.96
380.41	2324.44
380.62	2271.20
380.83	2263.01
381.05	2226.14
381.26	2449.37
381.47	2260.96
381.69	2385.88
381.90	2443.23
382.12	2340.83
382.33	2273.25
382.54	2295.77
382.76	2389.98
382.97	2365.40
383.19	2260.96
383.40	2416.60
383.61	2375.64
383.83	2260.96
384.04	2426.84
384.25	2414.56
384.47	2371.55
384.68	2414.56
384.89	2373.60
385.11	2389.98
385.32	2332.64
385.54	2342.88
385.75	2418.65
385.96	2449.37
386.18	2389.98
386.39	2475.99
386.60	2379.74
386.82	2551.77
387.03	2492.38
387.24	2486.23
387.46	2406.36
387.67	2527.19
387.88	2631.64
388.10	2414.56
388.31	2519.00
388.52	2656.22
388.74	2510.81
388.95	2500.57
389.16	2572.25
389.38	2598.87
389.59	2613.21
389.80	2660.31
390.02	2635.74
390.23	2703.32
390.44	2500.57
390.66	2613.21
390.87	2582.49
391.08	2670.55
391.30	2600.92
391.51	2648.02
391.72	2664.41
391.94	2660.31
392.15	2645.98
392.36	2693.08
392.58	2549.72
392.79	2805.72
393.00	2772.95
393.22	2684.89
393.43	2867.16
393.64	2854.87
393.85	2834.39
394.07	2754.52
394.28	2707.41
394.49	2811.86
394.71	2727.89
394.92	2934.74
395.13	2783.19
395.35	2846.68
395.56	2793.43
395.77	2754.52
395.98	2877.40
396.20	2934.74
396.41	2797.53
396.62	2944.98
396.84	2889.68
397.05	2906.07
397.26	2899.92
397.47	3043.28
397.69	2938.84
397.90	3026.90
398.11	2953.17
398.32	2852.82
398.54	2875.35
398.75	2959.31
398.96	2992.08
399.18	3178.45
399.39	3016.66
399.60	3018.71
399.81	2961.36
400.03	2994.13
400.24	3373.00
400.45	2955.22
400.66	3092.43
400.88	3129.30
401.09	3209.17
401.30	3241.93
401.51	3209.17
401.73	3180.50
401.94	3117.01
402.15	3268.56
402.36	3178.45
402.58	3250.13
402.79	3321.81
403.00	3231.69
403.21	3182.54
403.43	3221.45
403.64	3237.84
403.85	3080.14
404.06	3303.37
404.27	3028.95
404.49	3231.69
404.70	3223.50
404.91	3317.71
405.12	3237.84
405.34	3330.00
405.55	3428.30
405.76	3264.46
405.97	3246.03
406.19	3418.06
406.40	3352.52
406.61	3401.68
406.82	3403.72
407.03	3252.17
407.25	3319.76
407.46	3454.92
407.67	3499.98
407.88	3518.41
408.09	3465.16
408.31	3426.25
408.52	3508.17
408.73	3407.82
408.94	3508.17
409.15	3540.94
409.37	3608.52
409.58	3620.81
409.79	3575.75
410.00	3737.54
410.21	3651.53
410.43	3588.04
410.64	3407.82
410.85	3608.52
411.06	3622.86
411.27	3563.47
411.48	3780.55
411.70	3669.96
411.91	3717.06
412.12	3848.13
412.33	3678.15
412.54	3651.53
412.76	3788.74
412.97	3772.36
413.18	3469.26
413.39	3839.94
413.60	3782.60
413.81	3719.11
414.03	3780.55
414.24	3729.35
414.45	3864.52
414.66	3653.58
414.87	3790.79
415.08	3864.52
415.30	3772.36
415.51	3936.20
415.72	3952.58
415.93	3839.94
416.14	3936.20
416.35	3909.57
416.56	3944.39
416.78	3893.19
416.99	3979.20
417.20	3862.47
417.41	4018.11
417.62	4001.73
417.83	4059.07
418.04	4001.73
418.26	3995.59
418.47	4059.07
418.68	4020.16
418.89	4059.07
419.10	4138.94
419.31	4048.83
419.52	4204.48
419.73	4122.56
419.95	4265.92
420.16	3985.35
420.37	4050.88
420.58	4198.34
420.79	3979.20
421.00	4145.09
421.21	4218.82
421.42	4218.82
421.63	4206.53
421.85	4245.44
422.06	4331.45
422.27	4276.16
422.48	4329.41
422.69	4440.00
422.90	4308.93
423.11	4456.38
423.32	4450.24
423.53	4526.01
423.75	4480.96
423.96	4607.93
424.17	4509.63
424.38	4728.76
424.59	4628.41
424.80	4671.42
425.01	4587.45
425.22	4577.21
425.43	4589.50
425.64	4827.06
425.85	4786.10
426.06	4657.08
426.28	4661.18
426.49	4601.79
426.70	4681.66
426.91	4698.04
427.12	4779.96
427.33	4755.38
427.54	4753.34
427.75	4712.38
427.96	4859.83
428.17	4921.27
428.38	4861.88
428.59	4833.21
428.80	4923.32
429.01	4773.82
429.23	4929.46
429.44	5214.13
429.65	4982.71
429.86	5097.39
430.07	4935.60
430.28	4980.66
430.49	5214.13
430.70	5326.77
430.91	5285.81
431.12	5187.50
431.33	5320.62
431.54	5287.86
431.75	5332.91
431.96	5181.36
432.17	5386.16
432.38	5244.85
432.59	5470.12
432.80	5513.13
433.01	5599.15
433.22	5574.57
433.43	5494.70
433.64	5554.09
433.85	5408.69
434.06	5654.44
434.27	5570.48
434.49	5406.64
434.70	5605.29
434.91	5588.91
435.12	5674.92
435.33	5670.83
435.54	5728.17
435.75	5556.14
435.96	5736.36
436.17	5590.95
436.38	5824.42
436.59	5801.90
436.80	5601.19
437.01	6059.94
437.22	5978.02
437.43	5810.09
437.64	5662.63
437.85	5896.10
438.06	6008.74
438.27	5730.22
438.48	5920.68
438.69	5967.78
438.90	5855.14
439.11	5949.35
439.32	6162.34
439.53	5961.64
439.74	6029.22
439.95	6184.87
440.16	5998.50
440.37	6096.80
440.57	6090.66
440.78	6152.10
440.99	6182.82
441.20	6172.58
441.41	6053.80
441.62	6209.44
441.83	5990.31
442.04	6371.23
442.25	6260.64
442.46	6340.51
442.67	6457.25
442.88	6666.14
443.09	6012.84
443.30	6377.37
443.51	6530.97
443.72	6457.25
443.93	6320.03
444.14	6780.82
444.35	6299.55
444.56	6490.01
444.77	6490.01
444.98	6602.65
445.19	6610.84
445.40	6778.78
445.61	6678.43
445.81	6721.43
446.02	6649.75
446.23	6719.39
446.44	6561.69
446.65	6686.62
446.86	6651.80
447.07	6748.06
447.28	7004.05
447.49	6918.04
447.70	6807.45
447.91	6942.61
448.12	6868.89
448.33	7155.60
448.54	6942.61
448.74	6852.50
448.95	6868.89
449.16	6860.70
449.37	7298.96
449.58	7088.02
449.79	7270.29
450.00	6942.61
450.21	7194.51
450.42	7337.87
450.63	7317.39
450.84	7235.47
451.05	7464.85
451.25	7040.92
451.46	7204.75
451.67	7430.03
451.88	7413.65
452.09	7454.61
452.30	7401.36
452.51	7497.61
452.72	7495.57
452.93	7810.95
453.13	7589.77
453.34	7489.42
453.55	7692.17
453.76	7495.57
453.97	7948.17
454.18	7516.05
454.39	7692.17
454.60	7683.98
454.81	7552.91
455.01	7921.54
455.22	7712.65
455.43	8021.89
455.64	8056.71
455.85	8226.69
456.06	8284.03
456.27	7997.32
456.48	8087.43
456.68	7978.89
456.89	8146.82
457.10	8365.95
457.31	8378.24
457.52	8247.17
457.73	8284.03
457.94	8570.75
458.14	8263.55
458.35	8822.65
458.56	8337.28
458.77	8406.91
458.98	8552.32
459.19	8621.95
459.39	8753.02
459.60	8974.20
459.81	8638.33
460.02	8857.46
460.23	8755.07
460.44	9090.93
460.65	9056.12
460.85	8968.06
461.06	9230.20
461.27	8916.86
461.48	9340.79
461.69	9312.11
461.89	9023.35
462.10	9152.37
462.31	9217.91
462.52	9183.09
462.73	9260.91
462.94	9373.55
463.14	9594.73
463.35	9439.09
463.56	9768.81
463.77	9650.03
463.98	9693.04
464.18	9875.31
464.39	9635.69
464.60	10076.01
464.81	9787.24
465.02	9992.04
465.23	10241.89
465.43	10000.23
465.64	10391.39
465.85	10215.27
466.06	9946.98
466.27	10446.69
466.47	10624.86
466.68	10575.71
466.89	10299.23
467.10	10647.39
467.30	10274.66
467.51	10506.08
467.72	10782.56
467.93	10442.59
468.14	10626.91
468.34	10940.25
468.55	11071.32
468.76	10964.82
468.97	10899.29
469.17	11046.74
469.38	11261.78
469.59	11226.96
469.80	11243.35
470.01	11290.45
470.21	11226.96
470.42	11669.33
470.63	11702.09
470.84	11501.39
471.04	11722.57
471.25	11691.85
471.46	11841.36
471.67	12048.20
471.87	12023.62
472.08	11968.33
472.29	12367.68
472.50	11833.16
472.70	12132.17
472.91	12308.29
473.12	12488.51
473.33	12609.34
473.53	12660.54
473.74	12674.88
473.95	12595.01
474.16	13008.70
474.36	12859.20
474.57	12908.35
474.78	13254.45
474.99	13010.75
475.19	13043.51
475.40	13295.41
475.61	13279.03
475.81	13559.60
476.02	13653.81
476.23	13430.58
476.44	13887.28
476.64	13774.64
476.85	14018.35
477.06	13811.50
477.27	14329.64
477.47	14446.37
477.68	14270.25
477.89	14677.79
478.09	14507.81
478.30	14659.36
478.51	14679.84
478.71	14782.24
478.92	15003.42
479.13	15148.82
479.34	15243.03
479.54	15181.59
479.75	15212.31
479.96	15261.46
480.16	15429.40
480.37	15531.80
480.58	15597.33
480.78	15836.94
480.99	15867.66
481.20	15945.48
481.41	16213.77
481.61	16289.54
481.82	16471.81
482.03	16217.86
482.23	16283.40
482.44	16606.98
482.65	16647.94
482.85	16848.64
483.06	16717.57
483.27	16871.17
483.47	16961.28
483.68	16928.51
483.89	17258.23
484.09	17100.54
484.30	17452.79
484.51	17571.57
484.71	17620.72
484.92	17448.69
485.13	17823.47
485.33	17784.56
485.54	17950.45
485.75	18237.16
485.95	18188.01
486.16	18288.36
486.37	18409.19
486.57	18190.06
486.78	18417.38
486.98	18310.89
487.19	18456.29
487.40	18691.81
487.60	18908.90
487.81	19082.97
488.02	18829.02
488.22	19070.68
488.43	19007.20
488.64	19289.82
488.84	19470.04
489.05	19568.34
489.25	19713.75
489.46	19564.25
489.67	19900.11
489.87	20014.80
490.08	20014.80
490.29	19787.47
490.49	20526.79
490.70	20385.48
490.90	20625.09
491.11	20461.26
491.32	20303.56
491.52	20510.41
491.73	20410.06
491.94	21020.35
492.14	21014.21
492.35	21132.99
492.55	21288.64
492.76	21274.30
492.97	21298.88
493.17	21268.16
493.38	21341.88
493.58	21700.28
493.79	22015.66
494.00	21726.90
494.20	21870.26
494.41	21808.82
494.61	22224.56
494.82	21872.31
495.02	22152.88
495.23	22007.47
495.44	22376.11
495.64	22689.45
495.85	22441.64
496.05	22587.05
496.26	22498.98
496.47	22677.16
496.67	22701.73
496.88	23269.02
497.08	22666.92
497.29	23398.04
497.49	23189.15
497.70	23377.56
497.91	23606.94
498.11	23328.41
498.32	23412.38
498.52	23608.98
498.73	23828.12
498.93	23910.04
499.14	23981.71
499.34	24188.56
499.55	24106.64
499.76	24184.46
499.96	24159.89
500.17	24178.32
500.37	24217.23
500.58	24221.33
500.78	24379.02
500.99	24542.86
501.19	24819.33
501.40	24632.97
501.60	24805.00
501.81	24956.55
502.02	24845.96
502.22	24606.34
502.43	25187.97
502.63	25265.79
502.84	25190.02
503.04	25214.59
503.25	25173.63
503.45	25546.36
503.66	25456.25
503.86	25509.50
504.07	25755.26
504.27	25427.58
504.48	26035.83
504.68	25699.96
504.89	26189.42
505.09	26197.62
505.30	26025.59
505.50	25980.53
505.71	26273.39
505.91	26336.88
506.12	26166.90
506.32	26508.91
506.53	26662.51
506.73	26304.11
506.94	26685.03
507.14	26527.34
507.35	26599.02
507.55	26840.68
507.76	26715.75
507.96	26945.12
508.17	26748.52
508.37	27027.04
508.58	27205.22
508.78	27012.71
508.99	27108.96
509.19	27266.66
509.40	27434.59
509.60	27485.79
509.81	27653.72
510.01	27444.83
510.22	27393.63
510.42	27590.24
510.63	27776.60
510.83	27516.51
511.04	28073.56
511.24	28153.43
511.44	27752.02
511.65	28161.62
511.85	27721.30
512.06	28003.92
512.26	28194.39
512.47	28325.46
512.67	27903.57
512.88	28241.49
513.08	28167.76
513.29	28520.01
513.49	28429.90
513.69	28560.97
513.90	28646.99
514.10	28767.82
514.31	28569.16
514.51	28761.67
514.72	28411.47
514.92	28386.89
515.13	28788.30
515.33	28747.34
515.53	28847.69
515.74	29075.01
515.94	28943.94
516.15	29109.83
516.35	29156.93
516.56	29273.67
516.76	29128.26
516.96	29044.29
517.17	29627.96
517.37	29351.49
517.58	29412.93
517.78	29308.48
517.99	29597.24
518.19	30064.18
518.39	29818.42
518.60	29978.17
518.80	29865.53
519.01	30254.64
519.21	30258.74
519.41	30156.34
519.62	30275.12
519.82	30068.28
520.03	30438.96
520.23	30307.89
520.43	30006.84
520.64	30625.32
520.84	30733.87
521.05	30592.56
521.25	30737.96
521.45	30756.39
521.66	31307.30
521.86	30748.20
522.07	31010.34
522.27	31086.12
522.47	31247.91
522.68	31311.39
522.88	31225.38
523.08	31770.14
523.29	31634.97
523.49	31723.04
523.70	31735.32
523.90	31829.53
524.10	31608.35
524.31	32079.38
524.51	32024.09
524.71	32179.73
524.92	32128.53
525.12	32114.20
525.33	32259.60
525.53	32458.26
525.73	32683.53
525.94	32648.72
526.14	32957.96
526.34	32878.09
526.55	33187.33
526.75	32800.27
526.95	33052.17
527.16	32804.36
527.36	33240.58
527.56	33203.72
527.77	33297.92
527.97	32980.49
528.17	33572.35
528.38	33824.25
528.58	33351.17
528.78	33973.75
528.99	33895.93
529.19	33977.85
529.39	33580.54
529.60	34272.76
529.80	33871.36
530.00	34309.62
530.21	34760.17
530.41	34547.18
530.61	34364.92
530.82	34657.78
531.02	34504.18
531.22	34504.18
531.43	34844.14
531.63	34770.41
531.83	35319.27
532.04	35597.79
532.24	35239.40
532.44	35591.65
532.64	35769.82
532.85	35532.26
533.05	35282.41
533.25	35825.12
533.46	35923.42
533.66	36011.48
533.86	35769.82
534.07	36290.01
534.27	35872.22
534.47	36269.53
534.67	36574.67
534.88	36773.33
535.08	36879.82
535.28	36705.74
535.49	36900.30
535.69	37416.39
535.89	36904.40
536.09	36802.00
536.30	37793.22
536.50	37340.61
536.70	37817.79
536.91	37195.21
537.11	37512.64
537.31	37905.85
537.51	37604.80
537.72	37598.66
537.92	38213.05
538.12	38241.72
538.32	38507.96
538.53	38440.37
538.73	37975.48
538.93	38329.78
539.13	38528.44
539.34	38579.64
539.54	38329.78
539.74	38921.65
539.94	38792.62
540.15	38745.52
540.35	39022.00
540.55	38960.56
540.75	38954.41
540.96	39024.04
541.16	39273.90
541.36	39290.28
541.56	39191.98
541.77	39378.34
541.97	39396.77
542.17	39693.73
542.37	39642.53
542.58	39845.28
542.78	40199.58
542.98	39947.68
543.18	40336.79
543.38	40404.38
543.59	40138.14
543.79	39880.10
543.99	40269.21
544.19	40400.28
544.40	40220.06
544.60	40832.40
544.80	40410.52
545.00	40707.47
545.20	40629.65
545.41	40832.40
545.61	40783.25
545.81	41264.52
546.01	41131.40
546.21	40924.56
546.42	41301.39
546.62	41207.18
546.82	41192.84
547.02	41104.78
547.22	41600.39
547.43	41121.16
547.63	41592.20
547.83	41571.72
548.03	41379.21
548.23	42046.85
548.44	41559.43
548.64	41852.29
548.84	41928.06
549.04	41993.60
549.24	42030.46
549.45	42431.86
549.65	42182.01
549.85	42046.85
550.05	42317.18
550.25	41934.21
550.45	42597.75
550.66	42231.16
550.86	42220.92
551.06	42777.97
551.26	42153.34
551.46	42661.24
551.66	42784.12
551.87	42786.16
552.07	42749.30
552.27	42710.39
552.47	42788.21
552.67	42710.39
552.87	42966.38
553.07	43208.04
553.28	43173.23
553.48	43015.54
553.68	43122.03
553.88	43357.55
554.08	43148.65
554.28	43124.08
554.48	43335.02
554.69	43124.08
554.89	43476.33
555.09	43566.44
555.29	43386.22
555.49	43808.10
555.69	43742.56
555.89	43795.81
556.10	43869.54
556.30	43414.89
556.50	43941.22
556.70	43730.28
556.90	44307.80
557.10	44068.19
557.30	43902.31
557.50	44422.49
557.70	44412.25
557.91	44096.86
558.11	44311.90
558.31	44326.24
558.51	44150.11
558.71	44510.55
558.91	44332.38
559.11	44301.66
559.31	44311.90
559.51	44434.78
559.72	44381.53
559.92	44948.82
560.12	44590.42
560.32	44963.15
560.52	44791.12
560.72	44733.78
560.92	44971.35
561.12	44799.32
561.32	45313.36
561.52	44766.55
561.72	45421.90
561.93	44916.05
562.13	45262.16
562.33	44526.94
562.53	45514.06
562.73	44703.06
562.93	45184.33
563.13	45239.63
563.33	45385.04
563.53	45446.47
563.73	44946.77
563.93	45612.36
564.13	45215.05
564.33	45585.74
564.53	45034.83
564.74	45808.96
564.94	45696.33
565.14	45643.08
565.34	45860.16
565.54	45583.69
565.74	45940.04
565.94	46060.87
566.14	45466.95
566.34	45790.53
566.54	46343.48
566.74	45479.24
566.94	46095.68
567.14	46261.57
567.34	46112.06
567.54	46148.93
567.74	46263.61
567.94	46038.34
568.14	46304.57
568.34	46292.29
568.54	46134.59
568.74	46116.16
568.94	46132.54
569.14	46533.95
569.34	46802.23
569.54	46632.25
569.75	46460.22
569.95	46572.86
570.15	46957.88
570.35	46564.67
570.55	46863.67
570.75	46732.60
570.95	46705.98
571.15	46878.00
571.35	46542.14
571.55	47318.32
571.75	46781.75
571.95	46665.02
572.15	46974.26
572.35	47187.25
572.55	47330.61
572.75	47318.32
572.95	47523.11
573.15	47447.34
573.35	47396.14
573.55	47281.45
573.75	47453.48
573.95	47267.12
574.15	47314.22
574.35	47840.55
574.55	47717.67
574.75	47672.62
574.95	47627.56
575.15	47738.15
575.34	47916.32
575.54	47889.70
575.74	47924.52
575.94	47723.82
576.14	47879.46
576.34	48272.67
576.54	48543.00
576.74	48299.30
576.94	47957.28
577.14	48485.66
577.34	48456.99
577.54	48035.11
577.74	48375.07
577.94	48239.90
578.14	48624.92
578.34	49005.84
578.54	48184.61
578.74	48424.22
578.94	48813.34
579.14	48442.65
579.34	48581.91
579.54	48624.92
579.74	49149.20
579.94	49112.34
580.13	49284.37
580.33	49161.49
580.53	49063.19
580.73	49114.39
580.93	49489.16
581.13	49331.47
581.33	49435.92
581.53	49208.59
581.73	49278.22
581.93	49610.00
582.13	49614.09
582.33	49401.10
582.53	49429.77
582.73	49487.12
582.92	50042.12
583.12	49665.29
583.32	49480.97
583.52	49706.25
583.72	50396.42
583.92	50001.16
584.12	49812.74
584.32	50427.13
584.52	50275.58
584.72	50314.50
584.92	50089.22
585.11	50918.65
585.31	50320.64
585.51	50859.26
585.71	50451.71
585.91	51180.79
586.11	50472.19
586.31	50556.16
586.51	50664.70
586.71	50752.76
586.91	50920.70
587.10	50683.13
587.30	50885.88
587.50	51277.04
587.70	51223.79
587.90	51242.23
588.10	50945.27
588.30	50754.81
588.50	51123.44
588.69	51404.02
588.89	51526.89
589.09	51557.61
589.29	51750.12
589.49	52397.28
589.69	50808.06
589.89	51739.88
590.08	51477.74
590.28	51254.51
590.48	51647.72
590.68	51498.22
590.88	51930.34
591.08	51881.19
591.28	51412.21
591.47	51846.38
591.67	51655.92
591.87	52307.17
592.07	51453.17
592.27	52290.79
592.47	52004.07
592.67	52425.95
592.86	52071.65
593.06	52145.38
593.26	52305.12
593.46	52262.11
593.66	52370.66
593.86	52432.10
594.05	52565.21
594.25	52896.98
594.45	52464.86
594.65	52483.30
594.85	52665.56
595.05	52778.20
595.24	53107.93
595.44	52739.29
595.64	52970.71
595.84	53017.82
596.04	52804.83
596.23	53193.94
596.43	53480.66
596.63	53122.26
596.83	53380.31
597.03	53208.28
597.22	53527.76
597.42	52896.98
597.62	53658.83
597.82	53515.47
598.02	52954.33
598.21	53935.30
598.41	53251.28
598.61	53538.00
598.81	53902.54
599.01	53730.51
599.20	53759.18
599.40	53355.73
599.60	53998.79
599.80	53667.02
600.00	53978.31
600.19	53882.06
600.39	53556.43
600.59	54074.57
600.79	54303.94
600.98	53992.65
601.18	54445.25
601.38	54074.57
601.58	54518.98
601.78	54607.04
601.97	54222.02
602.17	54824.12
602.37	54727.87
602.57	54580.42
602.76	55250.10
602.96	53986.50
603.16	54957.24
603.36	54949.05
603.55	55471.28
603.75	55071.93
603.95	55567.54
604.15	54992.06
604.34	54836.41
604.54	55028.92
604.74	55698.61
604.94	55317.68
605.13	55665.84
605.33	55645.36
605.53	55139.51
605.73	56013.99
605.92	55819.44
606.12	55297.20
606.32	55821.48
606.52	55706.80
606.71	55788.72
606.91	56140.97
607.11	56173.73
607.30	56177.83
607.50	56452.26
607.70	56067.24
607.90	55710.89
608.09	55911.59
608.29	55905.45
608.49	55923.88
608.68	56581.28
608.88	56054.95
609.08	56470.69
609.28	56603.81
609.47	56063.14
609.67	56652.96
609.87	56231.08
610.06	56710.30
610.26	56761.50
610.46	56738.97
610.66	56538.27
610.85	56681.63
611.05	56077.48
611.25	56509.60
611.44	56235.17
611.64	56448.16
611.84	56388.77
612.03	56450.21
612.23	56704.16
612.43	56767.65
612.62	56446.11
612.82	56773.79
613.02	56583.33
613.21	56474.79
613.41	56345.76
613.61	57140.38
613.80	56401.06
614.00	56435.87
614.20	56761.50
614.39	56689.82
614.59	57267.35
614.79	57023.64
614.98	56761.50
615.18	57005.21
615.38	56718.49
615.57	57027.74
615.77	57035.93
615.97	57103.51
616.16	56798.37
616.36	56876.19
616.56	57111.70
616.75	57130.14
616.95	56726.69
617.15	57162.90
617.34	57177.24
617.54	56583.33
617.74	57300.12
617.93	57138.33
618.13	56820.89
618.32	56853.66
618.52	56890.52
618.72	56968.35
618.91	56724.64
619.11	56908.96
619.31	56853.66
619.50	56614.05
619.70	56677.54
619.90	56671.39
620.09	56738.97
620.29	56728.73
620.48	57230.49
620.68	57140.38
620.88	56824.99
621.07	56747.17
621.27	56911.00
621.46	56630.43
621.66	56761.50
621.86	56736.93
622.05	56274.09
622.25	57130.14
622.44	56990.87
622.64	56904.86
622.84	57009.31
623.03	56663.20
623.23	56634.53
623.42	57064.60
623.62	57130.14
623.82	57320.60
624.01	57025.69
624.21	56915.10
624.40	57359.51
624.60	57242.77
624.80	56626.34
624.99	56726.69
625.19	56669.34
625.38	57111.70
625.58	57078.94
625.77	56741.02
625.97	57117.85
626.17	56851.61
626.36	57109.66
626.56	56804.51
626.75	56130.73
626.95	57296.02
627.14	56722.59
627.34	57320.60
627.54	56800.41
627.73	57052.31
627.93	57257.11
628.12	56597.66
628.32	57097.37
628.51	57009.31
628.71	56837.28
628.90	56984.73
629.10	57205.91
629.30	56960.15
629.49	57216.15
629.69	56755.36
629.88	56824.99
630.08	57439.38
630.27	57250.97
630.47	57638.03
630.66	57021.59
630.86	57107.61
631.05	57113.75
631.25	57119.90
631.44	57326.74
631.64	56681.63
631.84	57689.23
632.03	57398.42
632.23	57250.97
632.42	57480.34
632.62	57316.50
632.81	56786.08
633.01	57152.66
633.20	57339.03
633.40	57277.59
633.59	57173.14
633.79	56970.39
633.98	57326.74
634.18	57504.91
634.37	57308.31
634.57	56669.34
634.76	57423.00
634.96	57349.27
635.15	57603.22
635.35	57031.83
635.54	56911.00
635.74	57652.37
635.93	56755.36
636.13	57117.85
636.32	57320.60
636.52	56982.68
636.71	57293.97
636.91	57549.97
637.10	57476.24
637.30	57431.19
637.49	57384.08
637.69	57066.65
637.88	57943.18
638.08	57146.52
638.27	57558.16
638.46	57056.41
638.66	57093.27
638.85	58051.72
639.05	57777.29
639.24	58256.52
639.44	57117.85
639.63	57521.30
639.83	57668.75
640.02	57709.71
640.22	57638.03
640.41	57633.94
640.61	57552.02
640.80	57640.08
640.99	57287.83
641.19	57851.02
641.38	57785.49
641.58	57318.55
641.77	57242.77
641.97	57662.61
642.16	57474.20
642.36	57486.48
642.55	58086.54
642.74	57250.97
642.94	58152.07
643.13	57818.25
643.33	57717.90
643.52	58104.97
643.72	58332.29
643.91	58252.42
644.10	57971.85
644.30	58043.53
644.49	58203.27
644.69	58324.10
644.88	58156.17
645.08	57599.12
645.27	58023.05
645.46	57783.44
645.66	58395.78
645.85	58100.87
646.05	57922.70
646.24	58012.81
646.43	58324.10
646.63	58610.82
646.82	58457.22
647.02	58363.01
647.21	58047.63
647.40	57808.01
647.60	58381.45
647.79	58262.66
647.99	58317.96
648.18	58307.72
648.37	58887.29
648.57	58717.31
648.76	58522.76
648.96	58320.01
649.15	58455.17
649.34	58905.73
649.54	59104.38
649.73	58053.77
649.92	58639.49
650.12	58807.42
650.31	58823.81
650.51	58475.65
650.70	59001.98
650.89	58160.26
651.09	59530.36
651.28	58846.33
651.47	58897.53
651.67	58684.54
651.86	58879.10
652.06	58291.33
652.25	59006.08
652.44	58770.56
652.64	58594.43
652.83	58811.52
653.02	58616.96
653.22	59217.02
653.41	58627.20
653.60	58375.30
653.80	58690.69
653.99	58657.92
654.18	58832.00
654.38	58903.68
654.57	58664.06
654.76	58692.74
654.96	58655.87
655.15	58827.90
655.34	58883.20
655.54	58633.35
655.73	58911.87
655.92	58872.96
656.12	59247.74
656.31	58795.13
656.50	58324.10
656.70	58803.33
656.89	58930.30
657.08	58995.84
657.28	58803.33
657.47	58817.66
657.66	58887.29
657.86	58569.86
658.05	58829.95
658.24	58950.78
658.43	58782.85
658.63	59081.85
658.82	59464.82
659.01	59290.74
659.21	58836.09
659.40	59454.58
659.59	59061.37
659.79	58938.49
659.98	59053.18
660.17	58973.31
660.36	58938.49
660.56	59155.58
660.75	59020.41
660.94	59565.17
661.14	59194.49
661.33	59100.28
661.52	58674.30
661.71	59724.91
661.91	58891.39
662.10	59061.37
662.29	59268.22
662.49	59049.08
662.68	59098.23
662.87	59057.27
663.06	59184.25
663.26	59290.74
663.45	59327.61
663.64	58711.17
663.83	59438.20
664.03	59352.18
664.22	59145.34
664.41	59167.87
664.60	59012.22
664.80	58997.88
664.99	59303.03
665.18	58872.96
665.37	59200.63
665.57	59106.43
665.76	58776.70
665.95	59167.87
666.14	58662.02
666.34	58991.74
666.53	59405.43
666.72	59112.57
666.91	59266.17
667.11	58950.78
667.30	59421.81
667.49	58973.31
667.68	58848.38
667.87	58860.67
668.07	59290.74
668.26	59200.63
668.45	59434.10
668.64	58473.60
668.84	59731.06
669.03	59405.43
669.22	59565.17
669.41	59018.36
669.60	59149.43
669.80	58827.90
669.99	59452.53
670.18	59217.02
670.37	58965.12
670.57	59503.73
670.76	58782.85
670.95	59382.90
671.14	59362.42
671.33	58752.13
671.53	59343.99
671.72	59208.82
671.91	58991.74
672.10	58653.82
672.29	59018.36
672.48	59114.62
672.68	59200.63
672.87	58993.79
673.06	59028.60
673.25	58731.65
673.44	58786.94
673.64	58936.44
673.83	59350.13
674.02	58856.57
674.21	58373.25
674.40	58725.50
674.59	58881.15
674.79	58516.61
674.98	59108.47
675.17	59071.61
675.36	59155.58
675.55	58852.48
675.74	58987.64
675.94	58956.92
676.13	59063.42
676.32	58922.11
676.51	59366.52
676.70	59036.80
676.89	58989.69
677.08	58760.32
677.28	58381.45
677.47	59430.01
677.66	59028.60
677.85	58991.74
678.04	58758.27
678.23	59198.58
678.42	59245.69
678.62	58727.55
678.81	59196.54
679.00	58918.01
679.19	59653.23
679.38	58813.57
679.57	58999.93
679.76	58750.08
679.96	59071.61
680.15	58948.73
680.34	58893.44
680.53	58973.31
680.72	58864.77
680.91	58977.40
681.10	58877.05
681.29	58930.30
681.48	58752.13
681.68	58573.95
681.87	58766.46
682.06	58999.93
682.25	58152.07
682.44	58778.75
682.63	58569.86
682.82	58795.13
683.01	58854.53
683.20	58076.30
683.39	58832.00
683.59	58729.60
683.78	58270.85
683.97	58414.21
684.16	58432.64
684.35	58098.83
684.54	58410.12
684.73	58098.83
684.92	58129.54
685.11	58111.11
685.30	58227.85
685.49	58565.76
685.69	58131.59
685.88	58457.22
686.07	57672.85
686.26	57951.37
686.45	57898.12
686.64	58481.80
686.83	58315.91
687.02	58178.70
687.21	58141.83
687.40	57961.61
687.59	58119.31
687.78	58215.56
687.97	58211.46
688.16	58010.76
688.35	58055.82
688.54	57889.93
688.74	58320.01
688.93	58094.73
689.12	58209.42
689.31	57719.95
689.50	58119.31
689.69	57681.04
689.88	57482.39
690.07	57730.19
690.26	57447.57
690.45	58500.23
690.64	57783.44
690.83	57461.91
691.02	57212.06
691.21	57543.83
691.40	57765.01
691.59	58051.72
691.78	57607.31
691.97	57607.31
692.16	57760.91
692.35	57801.87
692.54	57375.89
692.73	57621.65
692.92	57369.75
693.11	57451.67
693.30	57085.08
693.49	57865.36
693.68	57197.72
693.87	57273.49
694.06	57054.36
694.25	57085.08
694.44	56661.15
694.63	57242.77
694.82	57459.86
695.01	57316.50
695.20	57070.75
695.39	56794.27
695.58	57148.57
695.77	56913.05
695.96	56792.22
696.15	56978.59
696.34	56677.54
696.53	56718.49
696.72	57154.71
696.91	56796.32
697.10	56857.76
697.29	56593.57
697.48	56978.59
697.67	56763.55
697.86	56505.51
698.05	56431.78
698.24	57177.24
698.43	55989.42
698.62	56554.66
698.81	56333.48
699.00	56693.92
699.19	56163.50
699.38	56245.41
699.57	55719.09
699.76	56550.56
699.95	55995.56
700.14	55985.32
700.32	56394.92
700.51	56194.21
700.70	56333.48
700.89	56472.74
701.08	56482.98
701.27	56267.94
701.46	56378.53
701.65	55563.44
701.84	56462.50
702.03	55977.13
702.22	55985.32
702.41	56386.72
702.60	55925.93
702.79	56071.34
702.98	55915.69
703.17	55747.76
703.35	55870.64
703.54	55301.30
703.73	55960.75
703.92	56239.27
704.11	56026.28
704.30	55520.43
704.49	55714.99
704.68	55653.55
704.87	56186.02
705.06	55532.72
705.25	55751.85
705.43	56005.80
705.62	55506.10
705.81	55415.99
706.00	55553.20
706.19	55352.50
706.38	55561.39
706.57	55276.72
706.76	55221.43
706.95	54932.67
707.14	55112.89
707.32	55262.39
707.51	54762.68
707.70	55553.20
707.89	55159.99
708.08	54951.10
708.27	54879.42
708.46	55633.07
708.65	54856.89
708.84	55280.82
709.02	55112.89
709.21	55354.55
709.40	55215.29
709.59	54871.23
709.78	54695.10
709.97	54883.51
710.16	54674.62
710.34	54842.56
710.53	54899.90
710.72	54236.36
710.91	54299.84
711.10	54478.02
711.29	54895.80
711.48	54664.38
711.66	54645.95
711.85	54662.33
712.04	54736.06
712.23	54580.42
712.42	54187.21
712.61	54486.21
712.80	54138.05
712.98	54568.13
713.17	53990.60
713.36	53920.97
713.55	54115.53
713.74	53957.83
713.93	54029.51
714.11	54045.90
714.30	53984.46
714.49	53974.22
714.68	54088.90
714.87	53894.35
715.06	54531.26
715.24	53707.98
715.43	53959.88
715.62	53572.81
715.81	53288.15
716.00	53628.11
716.18	53310.67
716.37	53499.09
716.56	53564.62
716.75	54086.85
716.94	53277.91
717.12	53384.40
717.31	53716.17
717.50	53570.77
717.69	53124.31
717.88	53337.30
718.06	53527.76
718.25	53644.49
718.44	53066.97
718.63	53038.29
718.82	52733.15
719.00	53099.73
719.19	52630.75
719.38	52870.36
719.57	52583.65
719.76	52724.96
719.94	52630.75
720.13	52653.28
720.32	52847.83
720.51	52655.32
720.69	52501.73
720.88	51983.59
721.07	52221.16
721.26	51795.18
721.44	52188.39
721.63	52452.58
721.82	52028.65
722.01	51877.10
722.20	51969.26
722.38	51553.52
722.57	51498.22
722.76	51664.11
722.95	51852.52
723.13	51621.10
723.32	51651.82
723.51	51289.33
723.70	51578.09
723.88	51545.33
724.07	51387.63
724.26	51498.22
724.44	50803.96
724.63	51397.87
724.82	51528.94
725.01	51027.19
725.19	51348.72
725.38	50937.08
725.57	51297.52
725.76	51272.95
725.94	50785.53
726.13	50744.57
726.32	50822.39
726.51	50642.17
726.69	51025.14
726.88	51250.42
727.07	50947.32
727.25	50949.37
727.44	51035.38
727.63	51162.36
727.82	51123.44
728.00	50578.68
728.19	51029.24
728.38	51223.79
728.56	50799.86
728.75	50859.26
728.94	50738.43
729.12	50922.74
729.31	50494.72
729.50	50556.16
729.69	50740.47
729.87	50615.55
730.06	50660.60
730.25	50595.07
730.43	50955.51
730.62	50535.68
730.81	50674.94
730.99	50775.29
731.18	50398.46
731.37	50666.75
731.55	50715.90
731.74	50734.33
731.93	50844.92
732.11	50756.86
732.30	50572.54
732.49	50404.61
732.67	50812.15
732.86	50156.80
733.05	50515.20
733.23	49986.82
733.42	50490.62
733.61	50201.86
733.79	50742.52
733.98	50781.43
734.17	50212.10
734.35	49941.77
734.54	50355.46
734.73	50926.84
734.91	50052.36
735.10	50222.34
735.29	50177.28
735.47	50173.19
735.66	50265.34
735.84	50334.98
736.03	49747.21
736.22	50484.48
736.40	49923.33
736.59	50181.38
736.78	49999.11
736.96	50464.00
737.15	49906.95
737.33	49988.87
737.52	49831.18
737.71	49847.56
737.89	49769.74
738.08	49784.07
738.27	49585.42
738.45	50019.59
738.64	49653.00
738.82	49650.95
739.01	49831.18
739.20	49814.79
739.38	49839.37
739.57	49825.03
739.75	49857.80
739.94	49444.11
740.13	49483.02
740.31	49468.69
740.50	49073.43
740.68	49462.54
740.87	49534.22
741.06	49798.41
741.24	49612.04
741.43	48944.41
741.61	49202.45
741.80	48772.38
741.99	48817.43
742.17	48801.05
742.36	49263.89
742.54	48727.32
742.73	49399.05
742.91	49429.77
743.10	48727.32
743.29	49693.96
743.47	49093.91
743.66	48856.34
743.84	49534.22
744.03	49372.43
744.21	48721.18
744.40	49083.67
744.59	48573.72
744.77	48549.15
744.96	48962.84
745.14	48710.94
745.33	48858.39
745.51	48428.32
745.70	48612.63
745.88	48219.42
746.07	48811.29
746.26	47942.95
746.44	48553.24
746.63	48301.34
746.81	48080.16
747.00	48338.21
747.18	48504.09
747.37	48346.40
747.55	48211.23
747.74	48424.22
747.92	48399.65
748.11	48266.53
748.29	48491.80
748.48	48575.77
748.66	48192.80
748.85	48166.18
749.03	48280.86
749.22	48082.21
749.41	47971.62
749.59	48452.89
749.78	47686.95
749.96	47779.11
750.15	47815.97
750.33	48252.19
750.52	47623.47
750.70	47746.34
750.89	47705.38
751.07	47361.33
751.26	47367.47
751.44	47625.51
751.63	47590.70
751.81	47453.48
752.00	47494.44
752.18	47777.06
752.37	47285.55
752.55	47019.31
752.74	47289.65
752.92	47381.80
753.10	47379.76
753.29	47318.32
753.47	47363.37
753.66	46830.90
753.84	47267.12
754.03	46990.64
754.21	46921.01
754.40	47244.59
754.58	46691.64
754.77	46896.44
754.95	46515.51
755.14	46806.33
755.32	47287.60
755.51	46851.38
755.69	46781.75
755.88	46835.00
756.06	46755.13
756.24	46935.35
756.43	46677.30
756.61	46640.44
756.80	46353.72
756.98	46081.34
757.17	46331.20
757.35	46417.21
757.54	46087.49
757.72	46576.95
757.90	46486.84
758.09	46341.44
758.27	46073.15
758.46	45663.56
758.64	46017.86
758.83	46241.09
759.01	46208.32
759.19	46007.62
759.38	45919.56
759.56	46611.77
759.75	46200.13
759.93	45704.52
760.12	45581.64
760.30	46019.91
760.48	45890.88
760.67	45438.28
760.85	45704.52
761.04	45972.80
761.22	45745.48
761.40	45999.43
761.59	45722.95
761.77	45387.08
761.96	45409.61
762.14	45442.38
762.32	45116.75
762.51	45284.68
762.69	45448.52
762.88	45577.54
763.06	45567.30
763.24	45075.79
763.43	45436.23
763.61	45356.36
763.80	45145.42
763.98	45227.34
764.16	44903.76
764.35	44545.37
764.53	44643.67
764.72	44787.03
764.90	44895.57
765.08	44725.59
765.27	44879.19
765.45	44637.53
765.63	43916.64
765.82	44522.84
766.00	44275.04
766.18	44014.94
766.37	44563.80
766.55	44701.01
766.74	44711.25
766.92	44080.48
767.10	44193.12
767.29	44111.20
767.47	43214.19
767.65	44412.25
767.84	43787.62
768.02	43976.03
768.20	43468.14
768.39	43883.87
768.57	44158.30
768.75	43572.58
768.94	43935.07
769.12	43472.23
769.30	43726.18
769.49	43380.07
769.67	43836.77
769.85	43455.85
770.04	43580.78
770.22	43435.37
770.40	43769.19
770.59	43599.21
770.77	43552.10
770.95	43591.01
771.14	42841.46
771.32	42878.32
771.50	42792.31
771.69	43095.41
771.87	43410.79
772.05	42886.51
772.24	42468.73
772.42	43101.55
772.60	43064.69
772.78	42530.17
772.97	42661.24
773.15	43386.22
773.33	42866.03
773.52	42528.12
773.70	42542.45
773.88	42872.18
774.07	42534.26
774.25	42622.33
774.43	42689.91
774.61	42753.40
774.80	42993.01
774.98	42816.88
775.16	42841.46
775.34	42679.67
775.53	42661.24
775.71	42726.77
775.89	42726.77
776.08	42571.13
776.26	42915.19
776.44	42614.13
776.62	42349.95
776.81	42571.13
776.99	42638.71
777.17	42765.68
777.35	42691.96
777.54	42911.09
777.72	42204.54
777.90	42669.43
778.08	42880.37
778.27	42935.66
778.45	43249.00
778.63	43627.88
778.81	43089.26
779.00	43181.42
779.18	43040.11
779.36	43193.71
779.54	43033.97
779.73	42902.90
779.91	43412.84
780.09	43126.13
780.27	43738.47
780.46	43230.57
780.64	43398.51
780.82	43255.15
781.00	43312.49
781.19	43543.91
781.37	43521.38
781.55	43668.84
781.73	43677.03
781.91	43480.42
782.10	43484.52
782.28	43730.28
782.46	43357.55
782.64	43793.76
782.82	43451.75
783.01	43922.79
783.19	43664.74
783.37	43836.77
783.55	43474.28
783.74	43713.89
783.92	43193.71
784.10	44299.61
784.28	43996.51
784.46	42999.15
784.64	43316.59
784.83	43732.32
785.01	43619.69
785.19	43926.88
785.37	43558.25
785.55	43836.77
785.74	42829.17
785.92	43529.58
786.10	43476.33
786.28	43685.22
786.46	42980.72
786.64	42765.68
786.83	43242.86
787.01	43277.68
787.19	43351.40
787.37	42931.57
787.55	43017.58
787.74	42743.16
787.92	43023.73
788.10	43183.47
788.28	43050.35
788.46	42630.52
788.64	42388.86
788.82	42968.43
789.01	43169.13
789.19	42612.09
789.37	42446.20
789.55	42440.06
789.73	42243.45
789.91	42638.71
790.09	42216.83
790.28	42321.27
790.46	42012.03
790.64	42460.54
790.82	42288.51
791.00	41815.43
791.18	41969.02
791.36	42395.00
791.55	41823.62
791.73	41620.87
791.91	42012.03
792.09	41639.30
792.27	41700.74
792.45	41743.75
792.63	41645.44
792.81	41401.74
793.00	41600.39
793.18	41409.93
793.36	41076.11
793.54	41334.15
793.72	41018.77
793.90	41026.96
794.08	40983.95
794.26	41033.10
794.44	40535.45
794.62	40218.01
794.81	40654.23
794.99	40506.77
795.17	40304.02
795.35	40304.02
795.53	40242.59
795.71	40525.21
795.89	40037.79
796.07	39769.51
796.25	39490.98
796.43	39517.60
796.61	39796.13
796.80	39763.36
796.98	39736.74
797.16	39607.72
797.34	39697.83
797.52	39110.06
797.70	39255.46
797.88	39112.11
798.06	38350.26
798.24	39017.90
798.42	38868.40
798.60	38981.04
798.78	38589.88
798.96	38809.01
799.14	38258.10
799.32	38806.96
799.51	38540.72
799.69	38430.13
799.87	38460.85
800.05	38018.49
800.23	38282.68
800.41	38178.23
800.59	38036.92
800.77	37717.44
800.95	37348.81
801.13	37434.82
801.31	37635.52
801.49	37596.61
801.67	37432.77
801.85	37248.46
802.03	37055.95
802.21	37213.64
802.39	37082.57
802.57	37301.70
802.75	36849.10
802.93	36928.97
803.11	36599.25
803.29	36589.01
803.47	36849.10
803.65	36701.65
803.83	36656.59
804.01	36638.16
804.19	36218.33
804.37	36263.38
804.55	36224.47
804.73	36195.80
804.91	36083.16
805.09	36138.46
805.27	35962.33
805.45	35927.52
805.63	35646.94
805.81	35673.57
805.99	35788.25
806.17	35878.36
806.35	35616.22
806.53	35276.26
806.71	35708.38
806.89	35522.02
807.07	35538.40
807.25	34991.59
807.43	34719.21
807.61	35188.20
807.79	34932.20
807.97	34772.46
808.15	35014.12
808.33	34735.60
808.51	34899.44
808.69	34461.17
808.87	34725.36
809.05	34541.04
809.23	34399.73
809.41	34375.16
809.59	34211.32
809.77	34862.57
809.95	33922.55
810.13	34035.19
810.31	33699.33
810.49	34463.22
810.67	33986.04
810.84	34143.74
811.02	33897.98
811.20	33607.17
811.38	33146.37
811.56	33449.47
811.74	33664.51
811.92	33345.03
812.10	33283.59
812.28	33537.54
812.46	33558.02
812.64	33295.88
812.82	33250.82
813.00	33238.53
813.18	33132.04
813.36	33267.20
813.53	32769.55
813.71	32986.63
813.89	32323.09
814.07	32280.08
814.25	32632.33
814.43	32323.09
814.61	32388.63
814.79	32200.21
814.97	32294.42
815.15	32515.60
815.33	32167.45
815.50	31923.74
815.68	32538.13
815.86	32298.52
816.04	32214.55
816.22	32202.26
816.40	32030.23
816.58	31929.88
816.76	31792.67
816.94	31764.00
817.11	31735.32
817.29	32007.70
817.47	31628.83
817.65	31512.10
817.83	31407.65
818.01	31284.77
818.19	31104.55
818.37	31702.56
818.54	31186.47
818.72	31198.76
818.90	31258.15
819.08	30881.32
819.26	31194.66
819.44	30993.96
819.62	31090.21
819.80	30924.33
819.97	31092.26
820.15	30768.68
820.33	30496.30
820.51	30760.49
820.69	30443.06
820.87	30633.52
821.05	30877.22
821.22	30740.01
821.40	30324.27
821.58	30322.23
821.76	30471.73
821.94	30133.81
822.12	30445.10
822.29	30438.96
822.47	29937.21
822.65	30350.90
822.83	30537.26
823.01	29992.50
823.19	30080.56
823.36	29492.80
823.54	29892.15
823.72	29718.07
823.90	29771.32
824.08	29511.23
824.25	29752.89
824.43	29120.07
824.61	29511.23
824.79	29609.53
824.97	29460.03
825.15	29826.62
825.32	29677.12
825.50	29388.35
825.68	29279.81
825.86	29767.23
826.04	29537.85
826.21	29107.78
826.39	29310.53
826.57	29093.44
826.75	28767.82
826.93	28993.09
827.10	29115.97
827.28	28841.54
827.46	29236.80
827.64	29144.64
827.81	29060.68
827.99	28714.57
828.17	28638.80
828.35	28300.88
828.53	28587.60
828.70	28544.59
828.88	28403.28
829.06	28743.24
829.24	29003.33
829.41	28802.63
829.59	28978.76
829.77	28448.33
829.95	28622.41
830.12	28319.31
830.30	28159.57
830.48	28382.80
830.66	28051.03
830.84	28444.24
831.01	27987.54
831.19	27991.64
831.37	27805.27
831.55	28231.25
831.72	28071.51
831.90	28216.91
832.08	28130.90
832.25	27944.53
832.43	28208.72
832.61	27715.16
832.79	28096.08
832.96	27543.13
833.14	27631.19
833.32	27833.94
833.50	27780.70
833.67	27995.73
833.85	27524.70
834.03	27123.30
834.20	27848.28
834.38	27729.50
834.56	27823.70
834.74	27027.04
834.91	27600.47
835.09	27145.83
835.27	27012.71
835.44	27426.40
835.62	27006.56
835.80	27027.04
835.98	27440.73
836.15	27047.52
836.33	27020.90
836.51	27151.97
836.68	27178.59
836.86	26834.53
837.04	26844.77
837.21	27029.09
837.39	26809.96
837.57	26842.73
837.75	26910.31
837.92	26369.65
838.10	26537.58
838.28	26396.27
838.45	26492.52
838.63	26355.31
838.81	26666.60
838.98	26343.02
839.16	26402.41
839.34	26478.19
839.51	26705.51
839.69	26084.98
839.87	26191.47
840.04	26211.95
840.22	26379.89
840.40	26381.93
840.57	26003.06
840.75	25998.96
840.93	25648.76
841.10	25931.38
841.28	26138.23
841.46	25796.21
841.63	26279.54
841.81	26023.54
841.98	26130.03
842.16	25665.14
842.34	26152.56
842.51	25615.99
842.69	26097.27
842.87	26175.09
843.04	25835.13
843.22	25443.96
843.40	25753.21
843.57	25769.59
843.75	25384.57
843.92	25851.51
844.10	25745.02
844.28	25534.07
844.45	25366.14
844.63	25249.41
844.81	25202.30
844.98	25273.98
845.16	25163.39
845.33	24944.26
845.51	25056.90
845.69	25007.75
845.86	24901.25
846.04	24968.84
846.21	25206.40
846.39	25038.47
846.57	25046.66
846.74	24936.07
846.92	24686.22
847.09	25108.10
847.27	24848.00
847.45	25144.96
847.62	24905.35
847.80	24688.26
847.97	24807.05
848.15	24688.26
848.32	24626.82
848.50	24723.08
848.68	24606.34
848.85	24645.26
849.03	24350.35
849.20	24637.06
849.38	24465.03
849.56	24733.32
849.73	24252.05
849.91	24331.92
850.08	24608.39
850.26	24223.37
850.43	24188.56
850.61	24379.02
850.78	24110.74
850.96	24102.54
851.14	24118.93
851.31	24471.18
851.49	23647.90
851.66	24374.92
851.84	24280.72
852.01	24401.55
852.19	24219.28
852.36	24141.46
852.54	24006.29
852.71	24118.93
852.89	23600.79
853.07	23938.71
853.24	23742.10
853.42	23760.53
853.59	23797.40
853.77	23688.85
853.94	24026.77
854.12	23975.57
854.29	23592.60
854.47	23877.27
854.64	23398.04
854.82	23561.88
854.99	23434.91
855.17	23459.48
855.34	23473.82
855.52	23715.48
855.69	23570.07
855.87	23352.99
856.04	23172.77
856.22	23236.25
856.39	22886.05
856.57	23238.30
856.74	23295.64
856.92	23246.49
857.09	22994.59
857.27	22947.49
857.44	23230.11
857.62	23078.56
857.79	23096.99
857.97	23060.13
858.14	22859.43
858.32	22851.24
858.49	22998.69
858.67	23008.93
858.84	22890.15
859.02	22896.29
859.19	22877.86
859.37	22660.77
859.54	22619.81
859.72	22967.97
859.89	22863.52
860.06	22644.39
860.24	22527.66
860.41	22720.17
860.59	22240.94
860.76	22318.76
860.94	22398.63
861.11	22353.58
861.29	22400.68
861.46	22242.99
861.64	22283.95
861.81	22056.62
861.98	22283.95
862.16	22222.51
862.33	22042.29
862.51	21886.64
862.68	22134.45
862.86	22232.75
863.03	21980.85
863.21	22009.52
863.38	21710.52
863.55	21909.17
863.73	21907.12
863.90	22021.81
864.08	21835.44
864.25	21845.68
864.43	21737.14
864.60	21855.92
864.77	21784.24
864.95	21860.02
865.12	21687.99
865.30	21489.34
865.47	21505.72
865.64	21821.11
865.82	21735.09
865.99	21563.06
866.17	21757.62
866.34	21475.00
866.51	21464.76
866.69	21384.89
866.86	21530.30
867.04	21350.07
867.21	21370.55
867.38	21403.32
867.56	21448.38
867.73	20944.58
867.91	21053.12
868.08	21259.96
868.25	21057.21
868.43	20989.63
868.60	20920.00
868.78	20817.60
868.95	21337.79
869.12	20969.15
869.30	20778.69
869.47	20901.57
869.64	20649.67
869.82	20895.43
869.99	20811.46
870.16	20975.30
870.34	20537.03
870.51	20762.31
870.69	20338.38
870.86	20621.00
871.03	20498.12
871.21	20426.44
871.38	20643.52
871.55	20418.25
871.73	20256.46
871.90	20399.82
872.07	20575.94
872.25	20031.18
872.42	20029.13
872.59	19920.59
872.77	19853.01
872.94	20029.13
873.11	19826.39
873.29	20053.71
873.46	19818.19
873.63	20098.77
873.81	19961.55
873.98	19789.52
874.15	20008.65
874.33	19566.29
874.50	19826.39
874.67	19680.98
874.85	19578.58
875.02	19472.09
875.19	19611.35
875.37	19801.81
875.54	19508.95
875.71	19365.59
875.88	19353.30
876.06	19308.25
876.23	19271.39
876.40	19357.40
876.58	19205.85
876.75	19195.61
876.92	19101.40
877.10	19275.48
877.27	19074.78
877.44	18976.48
877.61	19144.41
877.79	19289.82
877.96	18898.66
878.13	18990.81
878.31	18939.62
878.48	18949.85
878.65	18847.46
878.82	18790.11
879.00	18507.49
879.17	18835.17
879.34	18673.38
879.51	18593.51
879.69	18687.71
879.86	18454.25
880.03	18470.63
880.21	18423.53
880.38	18468.58
880.55	18372.33
880.72	18308.84
880.90	18312.94
881.07	18306.79
881.24	18282.22
881.41	18259.69
881.59	18226.92
881.76	18206.44
881.93	18241.26
882.10	18089.71
882.28	18030.32
882.45	18171.63
882.62	17983.21
882.79	18259.69
882.96	17684.21
883.14	18036.46
883.31	18020.08
883.48	18015.98
883.65	17940.21
883.83	18058.99
884.00	17975.02
884.17	17743.60
884.34	18003.69
884.51	17944.30
884.69	17723.12
884.86	17800.94
885.03	17733.36
885.20	17592.05
885.38	17745.65
885.55	17497.84
885.72	17637.11
885.89	17669.87
886.06	17770.22
886.24	17663.73
886.41	17426.17
886.58	17606.39
886.75	17807.09
886.92	17385.21
887.10	17563.38
887.27	17313.53
887.44	17583.86
887.61	17340.15
887.78	17413.88
887.95	17426.17
888.13	17272.57
888.30	17149.69
888.47	17217.27
888.64	17112.83
888.81	17356.54
888.99	17084.16
889.16	16908.03
889.33	16756.48
889.50	17098.49
889.67	16969.47
889.84	17096.44
890.01	16942.85
890.19	17071.87
890.36	16875.26
890.53	16656.13
890.70	16817.92
890.87	17063.68
891.04	16758.53
891.22	16658.18
891.39	16781.06
891.56	16437.00
891.73	16426.76
891.90	16520.96
892.07	16459.52
892.24	16492.29
892.42	16592.64
892.59	16586.50
892.76	16531.20
892.93	16600.83
893.10	16639.75
893.27	16502.53
893.44	16250.63
893.61	16162.57
893.79	16322.31
893.96	16287.50
894.13	16226.06
894.30	16127.75
894.47	16137.99
894.64	16426.76
894.81	16404.23
894.98	16527.11
895.15	16252.68
895.33	16350.98
895.50	16146.19
895.67	15957.77
895.84	16201.48
896.01	16162.57
896.18	16310.02
896.35	16426.76
896.52	16174.86
896.69	16082.70
896.86	16078.60
897.04	16203.53
897.21	16178.95
897.38	16047.88
897.55	16080.65
897.72	16150.28
897.89	16002.83
898.06	16275.21
898.23	16174.86
898.40	16152.33
898.57	15892.24
898.74	16056.08
898.91	15998.73
899.08	15951.63
899.26	16154.38
899.43	16062.22
899.60	16201.48
899.77	16232.20
899.94	16211.72
900.11	15712.02
900.28	15955.72
900.45	15697.68
900.62	15691.54
900.79	16006.92
900.96	15861.52
901.13	16088.84
901.30	15978.25
901.47	15959.82
901.64	15922.96
901.81	16248.58
901.98	15638.29
902.15	15869.71
902.32	15775.50
902.49	15787.79
902.66	15992.59
902.83	15773.46
903.01	15714.06
903.18	15845.13
903.35	15904.53
903.52	15968.01
903.69	15939.34
903.86	16062.22
904.03	16054.03
904.20	16191.24
904.37	16023.31
904.54	15873.81
904.71	15695.63
904.88	15982.35
905.05	16011.02
905.22	16019.21
905.39	15871.76
905.56	15800.08
905.73	15652.63
905.90	15814.41
906.07	15671.06
906.24	15636.24
906.41	15857.42
906.58	15781.65
906.75	15931.15
906.92	15814.41
907.09	15828.75
907.26	15994.64
907.43	15675.15
907.60	15728.40
907.77	15882.00
907.93	15701.78
908.10	15716.11
908.27	15986.44
908.44	15533.84
908.61	15814.41
908.78	15888.14
908.95	15806.22
909.12	15712.02
909.29	15630.10
909.46	15720.21
909.63	15763.22
909.80	15613.71
909.97	15888.14
910.14	15587.09
910.31	15632.15
910.48	15572.75
910.65	15730.45
910.82	15382.29
910.99	15863.57
911.16	15388.44
911.33	15382.29
911.50	15312.66
911.66	15410.96
911.83	15652.63
912.00	15349.53
912.17	15169.30
912.34	15339.29
912.51	15527.70
912.68	15210.26
912.85	15339.29
913.02	15128.35
913.19	15236.89
913.36	15247.13
913.53	15357.72
913.70	15013.66
913.86	15435.54
914.03	15081.24
914.20	14952.22
914.37	15116.06
914.54	15130.39
914.71	14970.65
914.88	15175.45
915.05	14851.87
915.22	14843.68
915.39	14874.40
915.55	14864.16
915.72	14679.84
915.89	14434.08
916.06	14786.33
916.23	14544.67
916.40	14702.37
916.57	14696.22
916.74	14659.36
916.91	14620.45
917.07	14423.84
917.24	14655.26
917.41	14358.31
917.58	14536.48
917.75	14442.28
917.92	14380.84
918.09	14173.99
918.26	14325.54
918.42	14384.93
918.59	14257.96
918.76	14270.25
918.93	14032.68
919.10	13899.56
919.27	13784.88
919.44	14024.49
919.60	14051.11
919.77	13887.28
919.94	13733.68
920.11	13950.76
920.28	13901.61
920.45	13768.49
920.61	13655.86
920.78	13526.83
920.95	13494.07
921.12	13512.50
921.29	13602.61
921.46	13483.83
921.62	13457.20
921.79	13535.03
921.96	13301.56
922.13	13207.35
922.30	12977.98
922.47	12943.16
922.63	13172.54
922.80	13012.79
922.97	13018.94
923.14	12658.49
923.31	13063.99
923.47	12689.21
923.64	13162.30
923.81	12767.04
923.98	12937.02
924.15	12586.82
924.32	12652.35
924.48	12691.26
924.65	12742.46
924.82	12601.15
924.99	12648.26
925.15	12601.15
925.32	12560.19
925.49	12185.41
925.66	12369.73
925.83	12236.61
925.99	12349.25
926.16	12328.77
926.33	11960.14
926.50	12019.53
926.67	12339.01
926.83	11968.33
927.00	12132.17
927.17	11943.75
927.34	11796.30
927.50	11843.40
927.67	12005.19
927.84	11710.29
928.01	11693.90
928.17	11702.09
928.34	11476.82
928.51	11396.95
928.68	11507.54
928.84	11437.91
929.01	11171.67
929.18	11081.56
929.35	11364.18
929.51	11407.19
929.68	11261.78
929.85	11190.10
930.02	11108.18
930.18	11075.42
930.35	11032.41
930.52	10942.30
930.69	11099.99
930.85	10995.54
931.02	10856.28
931.19	10729.31
931.36	10891.10
931.52	10899.29
931.69	10678.11
931.86	10723.16
932.02	10475.36
932.19	10469.22
932.36	10551.14
932.53	10573.66
932.69	10479.46
932.86	10428.26
933.03	10286.95
933.19	10092.39
933.36	10166.12
933.53	10336.10
933.70	10291.04
933.86	10033.00
934.03	10166.12
934.20	9840.49
934.36	9916.26
934.53	9850.73
934.70	9371.50
934.86	9617.26
935.03	9473.90
935.20	9557.87
935.36	9389.94
935.53	9336.69
935.70	9166.71
935.86	9480.05
936.03	9017.21
936.20	8945.53
936.36	8879.99
936.53	8843.13
936.70	8966.01
936.86	9006.97
937.03	8750.97
937.20	8548.22
937.36	8636.28
937.53	8511.36
937.70	8374.14
937.86	8327.04
938.03	8216.45
938.20	8183.68
938.36	7991.17
938.53	7995.27
938.70	7784.33
938.86	7669.64
939.03	7651.21
939.20	7497.61
939.36	7669.64
939.53	7552.91
939.70	7577.48
939.86	7090.07
940.03	7253.91
940.19	7221.14
940.36	7071.64
940.53	6883.22
940.69	6897.56
940.86	6842.26
941.03	6686.62
941.19	6662.04
941.36	6614.94
941.52	6430.62
941.69	6457.25
941.86	6516.64
942.02	6385.57
942.19	6303.65
942.35	6379.42
942.52	6285.22
942.69	6141.86
942.85	6176.67
943.02	6168.48
943.18	6117.28
943.35	6006.69
943.52	5918.63
943.68	5988.26
943.85	5877.67
944.01	5859.24
944.18	5781.42
944.35	5975.97
944.51	5775.27
944.68	5750.70
944.84	5681.07
945.01	5537.71
945.17	5619.63
945.34	5693.35
945.51	5689.26
945.67	5578.67
945.84	5595.05
946.00	5498.80
946.17	5568.43
946.33	5412.78
946.50	5619.63
946.67	5478.32
946.83	5580.71
947.00	5570.48
947.16	5455.79
947.33	5359.53
947.49	5525.42
947.66	5474.22
947.82	5498.80
947.99	5353.39
948.16	5609.39
948.32	5408.69
948.49	5547.95
948.65	5511.08
948.82	5287.86
948.98	5572.52
949.15	5392.30
949.31	5308.34
949.48	5509.04
949.64	5349.29
949.81	5525.42
949.97	5455.79
950.14	5582.76
950.30	5384.11
950.47	5533.61
950.63	5416.88
950.80	5392.30
950.96	5547.95
951.13	5416.88
951.30	5504.94
951.46	5488.56
951.63	5560.24
951.79	5537.71
951.96	5644.20
952.12	5539.76
952.29	5617.58
952.45	5437.36
952.62	5558.19
952.78	5506.99
952.94	5595.05
953.11	5615.53
953.27	5427.12
953.44	5805.99
953.60	5556.14
953.77	5801.90
953.93	5656.49
954.10	5500.84
954.26	5691.31
954.43	5726.12
954.59	5799.85
954.76	5838.76
954.92	5738.41
955.09	5652.39
955.25	5547.95
955.42	5636.01
955.58	5701.54
955.75	5713.83
955.91	5597.10
956.07	5625.77
956.24	5705.64
956.40	5658.54
956.57	5670.83
956.73	5728.17
956.90	5738.41
957.06	5568.43
957.23	5623.72
957.39	5719.98
957.56	5670.83
957.72	5687.21
957.88	5664.68
958.05	5777.32
958.21	5889.96
958.38	5808.04
958.54	5652.39
958.71	5826.47
958.87	5695.40
959.03	5683.11
959.20	5492.65
959.36	5660.59
959.53	5636.01
959.69	5644.20
959.85	5691.31
960.02	5550.00
960.18	5726.12
960.35	5822.38
960.51	5730.22
960.68	5627.82
960.84	5767.08
961.00	5685.16
961.17	5506.99
961.33	5760.94
961.50	5697.45
961.66	5593.00
961.82	5660.59
961.99	5644.20
962.15	5713.83
962.31	5418.93
962.48	5640.11
962.64	5633.96
962.81	5697.45
962.97	5734.31
963.13	5543.85
963.30	5676.97
963.46	5470.12
963.62	5527.47
963.79	5588.91
963.95	5560.24
964.12	5650.35
964.28	5590.95
964.44	5599.15
964.61	5513.13
964.77	5672.87
964.93	5713.83
965.10	5584.81
965.26	5406.64
965.42	5621.67
965.59	5506.99
965.75	5623.72
965.92	5545.90
966.08	5453.74
966.24	5429.17
966.41	5459.88
966.57	5476.27
966.73	5373.87
966.90	5404.59
967.06	5408.69
967.22	5398.45
967.39	5550.00
967.55	5349.29
967.71	5384.11
967.88	5332.91
968.04	5337.01
968.20	5386.16
968.37	5287.86
968.53	5357.49
968.69	5431.21
968.85	5412.78
969.02	5320.62
969.18	5476.27
969.34	5351.34
969.51	5320.62
969.67	5337.01
969.83	5242.80
970.00	5367.73
970.16	5353.39
970.32	5271.47
970.48	5429.17
970.65	5248.94
970.81	5279.66
970.97	5078.96
971.14	5119.92
971.30	5330.86
971.46	5179.31
971.63	5164.98
971.79	5253.04
971.95	5291.95
972.11	5179.31
972.28	5148.59
972.44	5275.57
972.60	5048.24
972.76	5066.67
972.93	5070.77
973.09	5191.60
973.25	5162.93
973.42	5068.72
973.58	5119.92
973.74	4997.04
973.90	4972.47
974.07	5005.24
974.23	5031.86
974.39	4984.76
974.55	5017.52
974.72	5027.76
974.88	4880.31
975.04	5019.57
975.20	4992.95
975.37	4978.61
975.53	4888.50
975.69	4966.32
975.85	4872.12
976.01	4802.49
976.18	4947.89
976.34	4886.45
976.50	4978.61
976.66	4908.98
976.83	4810.68
976.99	4792.25
977.15	4786.10
977.31	4769.72
977.47	4906.93
977.64	4695.99
977.80	4808.63
977.96	4788.15
978.12	4671.42
978.29	4724.66
978.45	4679.61
978.61	4677.56
978.77	4790.20
978.93	4761.53
979.10	4800.44
979.26	4616.12
979.42	4550.59
979.58	4626.36
979.74	4534.20
979.91	4614.07
980.07	4595.64
980.23	4566.97
980.39	4419.52
980.55	4573.11
980.71	4601.79
980.88	4523.96
981.04	4581.31
981.20	4476.86
981.36	4562.87
981.52	4493.24
981.68	4450.24
981.85	4540.35
982.01	4435.90
982.17	4399.04
982.33	4458.43
982.49	4616.12
982.65	4358.08
982.82	4356.03
982.98	4419.52
983.14	4302.78
983.30	4476.86
983.46	4501.44
983.62	4290.49
983.79	4374.46
983.95	4278.21
984.11	4253.63
984.27	4339.65
984.43	4300.73
984.59	4310.97
984.75	4396.99
984.91	4300.73
985.08	4171.71
985.24	4218.82
985.40	4239.30
985.56	4274.11
985.72	4255.68
985.88	4329.41
986.04	4296.64
986.20	4089.79
986.37	4231.10
986.53	4138.94
986.69	4212.67
986.85	4097.99
987.01	4188.10
987.17	4216.77
987.33	4161.47
987.49	4132.80
987.65	4255.68
987.82	4069.31
987.98	4112.32
988.14	4102.08
988.30	4181.95
988.46	4069.31
988.62	4009.92
988.78	4169.66
988.94	4044.74
989.10	3987.40
989.26	3885.00
989.42	3975.11
989.59	3960.77
989.75	3915.72
989.91	3846.09
990.07	3700.68
990.23	3934.15
990.39	3977.16
990.55	3852.23
990.71	3887.04
990.87	3923.91
991.03	3942.34
991.19	3999.68
991.35	3825.61
991.51	3944.39
991.67	3936.20
991.83	3977.16
992.00	3860.42
992.16	3905.48
992.32	3794.89
992.48	3868.61
992.64	3776.45
992.80	3786.69
992.96	3784.65
993.12	3725.26
993.28	3772.36
993.44	3741.64
993.60	3731.40
993.76	3715.02
993.92	3772.36
994.08	3755.97
994.24	3770.31
994.40	3674.06
994.56	3727.30
994.72	3635.14
994.88	3653.58
995.04	3626.95
995.20	3717.06
995.36	3690.44
995.52	3590.09
995.68	3577.80
995.84	3434.44
996.00	3723.21
996.16	3608.52
996.32	3518.41
996.48	3542.99
996.64	3704.78
996.80	3610.57
996.96	3610.57
997.12	3522.51
997.28	3534.79
997.44	3373.00
997.60	3393.48
997.76	3434.44
997.92	3407.82
998.08	3481.55
998.24	3461.07
998.40	3493.83
998.56	3499.98
998.72	3352.52
998.88	3477.45
999.04	3395.53
999.20	3508.17
999.36	3278.80
999.52	3456.97
999.68	3459.02
999.84	3387.34
1000.00	3377.10
1000.16	3370.96
1000.32	3338.19
1000.48	3395.53
1000.64	3205.07
1000.80	3348.43
1000.95	3231.69
1001.11	3354.57
1001.27	3221.45
1001.43	3305.42
1001.59	3264.46
1001.75	3338.19
1001.91	3305.42
1002.07	3182.54
1002.23	3119.06
1002.39	3239.89
1002.55	3164.11
1002.71	3166.16
1002.87	3217.36
1003.03	3200.98
1003.19	3200.98
1003.34	3147.73
1003.50	3086.29
1003.66	3196.88
1003.82	3133.39
1003.98	3117.01
1004.14	3153.87
1004.30	3096.53
1004.46	2994.13
1004.62	3071.95
1004.78	3147.73
1004.94	3182.54
1005.09	3170.26
1005.25	3110.86
1005.41	3020.75
1005.57	3094.48
1005.73	3000.27
1005.89	2981.84
1006.05	3018.71
1006.21	2977.75
1006.37	2951.12
1006.52	2918.36
1006.68	2891.73
1006.84	3114.96
1007.00	2961.36
1007.16	3028.95
1007.32	2922.45
1007.48	2971.60
1007.64	2891.73
1007.79	2901.97
1007.95	2899.92
1008.11	3022.80
1008.27	2910.16
1008.43	2850.77
1008.59	2914.26
1008.75	2932.69
1008.91	2967.51
1009.06	2801.62
1009.22	2850.77
1009.38	2899.92
1009.54	2908.12
1009.70	2883.54
1009.86	2785.24
1010.01	2848.72
1010.17	2795.48
1010.33	2873.30
1010.49	2828.24
1010.65	2820.05
1010.81	2719.70
1010.96	2801.62
1011.12	2787.29
1011.28	2666.46
1011.44	2740.18
1011.60	2652.12
1011.76	2654.17
1011.91	2811.86
1012.07	2736.09
1012.23	2629.59
1012.39	2617.30
1012.55	2807.77
1012.71	2670.55
1012.86	2738.13
1013.02	2670.55
1013.18	2648.02
1013.34	2719.70
1013.50	2703.32
1013.65	2688.98
1013.81	2625.50
1013.97	2623.45
1014.13	2664.41
1014.29	2658.26
1014.44	2688.98
1014.60	2619.35
1014.76	2600.92
1014.92	2557.91
1015.07	2547.67
1015.23	2574.30
1015.39	2623.45
1015.55	2578.39
1015.71	2557.91
1015.86	2564.06
1016.02	2510.81
1016.18	2471.90
1016.34	2531.29
1016.49	2643.93
1016.65	2578.39
1016.81	2482.14
1016.97	2562.01
1017.12	2588.63
1017.28	2500.57
1017.44	2432.99
1017.60	2488.28
1017.75	2486.23
1017.91	2439.13
1018.07	2557.91
1018.23	2480.09
1018.38	2467.80
1018.54	2537.43
1018.70	2519.00
1018.86	2428.89
1019.01	2367.45
1019.17	2463.71
1019.33	2582.49
1019.49	2349.02
1019.64	2424.80
1019.80	2439.13
1019.96	2490.33
1020.12	2389.98
1020.27	2349.02
1020.43	2351.07
1020.59	2398.17
1020.74	2471.90
1020.90	2351.07
1021.06	2355.16
1021.22	2367.45
1021.37	2443.23
1021.53	2283.49
1021.69	2381.79
1021.84	2263.01
1022.00	2318.30
1022.16	2279.39
1022.31	2318.30
1022.47	2455.51
1022.63	2369.50
1022.79	2275.29
1022.94	2361.31
1023.10	2394.08
1023.26	2267.10
1023.41	2308.06
1023.57	2281.44
1023.73	2365.40
1023.88	2383.84
1024.04	2273.25
1024.20	2328.54
1024.35	2248.67
1024.51	2349.02
1024.67	2287.58
1024.82	2285.53
1024.98	2242.53
1025.14	2314.20
1025.29	2183.13
1025.45	2293.72
1025.61	2201.57
1025.76	2215.90
1025.92	2275.29
1026.08	2217.95
1026.23	2179.04
1026.39	2236.38
1026.55	2260.96
1026.70	2213.85
1026.86	2256.86
1027.02	2201.57
1027.17	2293.72
1027.33	2248.67
1027.48	2211.81
1027.64	2154.46
1027.80	2121.70
1027.95	2164.70
1028.11	2052.06
1028.27	2123.74
1028.42	2183.13
1028.58	2146.27
1028.73	2162.66
1028.89	2017.25
1029.05	2181.09
1029.20	2222.05
>>>>>End Processed Spectral Data<<<<<
