SpectraSuite Data File
++++++++++++++++++++++++++++++++++++
Date: Fri Jun 02 14:49:30 CEST 2017
User: INFO_000
Dark Spectrum Present: No
Reference Spectrum Present: No
Number of Sampled Component Spectra: 1
Spectrometers: USB4H00879
Integration Time (usec): 80000 (USB4H00879)
Spectra Averaged: 1 (USB4H00879)
Boxcar Smoothing: 0 (USB4H00879)
Correct for Electrical Dark: No (USB4H00879)
Strobe/Lamp Enabled: No (USB4H00879)
Correct for Detector Non-linearity: No (USB4H00879)
Correct for Stray Light: No (USB4H00879)
Number of Pixels in Processed Spectrum: 3648
>>>>>Begin Processed Spectral Data<<<<<
345.13	1296.36
345.34	1296.36
345.56	1296.36
345.78	1271.79
345.99	1241.07
346.21	1697.77
346.42	1712.10
346.64	1667.05
346.86	1839.08
347.07	1660.90
347.29	1789.92
347.50	1638.38
347.72	1683.43
347.94	1722.34
348.15	1581.03
348.37	1589.22
348.59	1626.09
348.80	1665.00
349.02	1773.54
349.23	1886.18
349.45	1769.44
349.67	1978.34
349.88	1757.16
350.10	1908.71
350.31	1837.03
350.53	1779.68
350.75	1966.05
350.96	1841.12
351.18	1837.03
351.39	1918.95
351.61	1769.44
351.82	1904.61
352.04	1892.32
352.26	1814.50
352.47	1867.75
352.69	1791.97
352.90	1767.40
353.12	1808.36
353.34	1826.79
353.55	1892.32
353.77	1812.45
353.98	1814.50
354.20	1812.45
354.41	1953.76
354.63	1918.95
354.85	2072.54
355.06	1904.61
355.28	1816.55
355.49	1898.47
355.71	1812.45
355.92	1949.67
356.14	1871.84
356.35	1849.32
356.57	1798.12
356.79	1990.63
357.00	1904.61
357.22	1929.19
357.43	1869.80
357.65	2062.30
357.86	1902.56
358.08	2004.96
358.29	1943.52
358.51	2004.96
358.72	1970.15
358.94	1847.27
359.16	1910.75
359.37	1933.28
359.59	1904.61
359.80	2035.68
360.02	1900.52
360.23	1990.63
360.45	2002.91
360.66	1951.71
360.88	1925.09
361.09	1896.42
361.31	1970.15
361.52	2045.92
361.74	1978.34
361.95	2060.26
362.17	2050.02
362.38	2021.35
362.60	2009.06
362.81	1994.72
363.03	1980.39
363.24	1933.28
363.46	2127.84
363.67	1918.95
363.89	1980.39
364.10	1961.95
364.32	1953.76
364.53	2121.70
364.75	1959.91
364.96	2007.01
365.18	2119.65
365.39	2017.25
365.61	1994.72
365.82	2095.07
366.04	1998.82
366.25	1978.34
366.47	1994.72
366.68	2021.35
366.90	1931.23
367.11	2058.21
367.33	2117.60
367.54	2093.02
367.76	2002.91
367.97	2054.11
368.19	2056.16
368.40	2068.45
368.62	2002.91
368.83	2082.78
369.05	2041.82
369.26	2007.01
369.48	2009.06
369.69	2080.74
369.91	1957.86
370.12	2011.11
370.33	2160.61
370.55	1988.58
370.76	2035.68
370.98	2154.46
371.19	2086.88
371.41	2027.49
371.62	2076.64
371.84	1939.43
372.05	2244.57
372.27	2107.36
372.48	1982.43
372.69	2164.70
372.91	2187.23
373.12	2152.42
373.34	2062.30
373.55	2125.79
373.77	2189.28
373.98	2062.30
374.20	2211.81
374.41	2248.67
374.62	2168.80
374.84	2123.74
375.05	2183.13
375.27	2082.78
375.48	2113.50
375.70	2203.61
375.91	2199.52
376.12	2281.44
376.34	2234.33
376.55	2258.91
376.77	2193.37
376.98	2041.82
377.19	2174.94
377.41	2201.57
377.62	2193.37
377.84	2236.38
378.05	2222.05
378.27	2170.85
378.48	2334.68
378.69	2316.25
378.91	2248.67
379.12	2263.01
379.34	2228.19
379.55	2394.08
379.76	2246.62
379.98	2179.04
380.19	2240.48
380.41	2281.44
380.62	2287.58
380.83	2289.63
381.05	2228.19
381.26	2351.07
381.47	2191.33
381.69	2222.05
381.90	2418.65
382.12	2303.96
382.33	2295.77
382.54	2273.25
382.76	2273.25
382.97	2404.32
383.19	2170.85
383.40	2359.26
383.61	2342.88
383.83	2273.25
384.04	2355.16
384.25	2383.84
384.47	2359.26
384.68	2312.16
384.89	2291.68
385.11	2447.32
385.32	2351.07
385.54	2367.45
385.75	2377.69
385.96	2437.08
386.18	2519.00
386.39	2336.73
386.60	2392.03
386.82	2471.90
387.03	2478.04
387.24	2496.47
387.46	2412.51
387.67	2496.47
387.88	2490.33
388.10	2504.67
388.31	2451.42
388.52	2473.95
388.74	2551.77
388.95	2465.75
389.16	2492.38
389.38	2426.84
389.59	2562.01
389.80	2541.53
390.02	2535.39
390.23	2709.46
390.44	2469.85
390.66	2584.54
390.87	2463.71
391.08	2660.31
391.30	2783.19
391.51	2768.85
391.72	2736.09
391.94	2582.49
392.15	2596.82
392.36	2611.16
392.58	2568.15
392.79	2682.84
393.00	2727.89
393.22	2729.94
393.43	2770.90
393.64	2846.68
393.85	2756.57
394.07	2582.49
394.28	2727.89
394.49	2711.51
394.71	2748.37
394.92	2742.23
395.13	2805.72
395.35	2711.51
395.56	2824.15
395.77	2719.70
395.98	2856.92
396.20	2861.01
396.41	2846.68
396.62	2953.17
396.84	2803.67
397.05	2789.33
397.26	2791.38
397.47	2922.45
397.69	2791.38
397.90	2959.31
398.11	2889.68
398.32	2869.20
398.54	2842.58
398.75	2848.72
398.96	2936.79
399.18	3047.38
399.39	2897.88
399.60	3024.85
399.81	2969.55
400.03	2992.08
400.24	3235.79
400.45	2936.79
400.66	3074.00
400.88	3102.67
401.09	3299.28
401.30	3106.77
401.51	3053.52
401.73	3084.24
401.94	3108.82
402.15	3213.26
402.36	3139.54
402.58	3164.11
402.79	3143.63
403.00	3133.39
403.21	3174.35
403.43	3217.36
403.64	3223.50
403.85	3088.34
404.06	3229.65
404.27	3114.96
404.49	3274.70
404.70	3170.26
404.91	3133.39
405.12	3268.56
405.34	3239.89
405.55	3399.63
405.76	3088.34
405.97	3346.38
406.19	3383.24
406.40	3239.89
406.61	3225.55
406.82	3221.45
407.03	3307.47
407.25	3198.93
407.46	3370.96
407.67	3426.25
407.88	3426.25
408.09	3268.56
408.31	3373.00
408.52	3395.53
408.73	3418.06
408.94	3360.72
409.15	3311.57
409.37	3530.70
409.58	3483.59
409.79	3436.49
410.00	3524.55
410.21	3319.76
410.43	3385.29
410.64	3391.44
410.85	3620.81
411.06	3522.51
411.27	3626.95
411.48	3641.29
411.70	3450.83
411.91	3522.51
412.12	3727.30
412.33	3538.89
412.54	3616.71
412.76	3661.77
412.97	3624.90
413.18	3530.70
413.39	3569.61
413.60	3798.98
413.81	3629.00
414.03	3690.44
414.24	3731.40
414.45	3784.65
414.66	3645.38
414.87	3776.45
415.08	3735.50
415.30	3731.40
415.51	3788.74
415.72	3715.02
415.93	3760.07
416.14	3833.80
416.35	3700.68
416.56	3706.82
416.78	3768.26
416.99	3809.22
417.20	3747.78
417.41	3973.06
417.62	3887.04
417.83	4108.23
418.04	3727.30
418.26	4038.59
418.47	3948.48
418.68	3971.01
418.89	4016.07
419.10	4108.23
419.31	3958.72
419.52	4075.46
419.73	4032.45
419.95	4128.70
420.16	4026.31
420.37	4067.27
420.58	3997.64
420.79	3962.82
421.00	3995.59
421.21	4151.23
421.42	3985.35
421.63	4095.94
421.85	4206.53
422.06	4218.82
422.27	4108.23
422.48	4245.44
422.69	4310.97
422.90	4173.76
423.11	4327.36
423.32	4310.97
423.53	4366.27
423.75	4257.73
423.96	4450.24
424.17	4356.03
424.38	4517.82
424.59	4450.24
424.80	4652.98
425.01	4431.80
425.22	4403.13
425.43	4370.37
425.64	4474.81
425.85	4708.28
426.06	4552.63
426.28	4530.11
426.49	4452.28
426.70	4548.54
426.91	4591.55
427.12	4552.63
427.33	4509.63
427.54	4655.03
427.75	4681.66
427.96	4722.62
428.17	4691.90
428.38	4833.21
428.59	4747.19
428.80	4714.42
429.01	4775.86
429.23	4853.69
429.44	4974.52
429.65	4921.27
429.86	4853.69
430.07	4788.15
430.28	4755.38
430.49	4868.02
430.70	5048.24
430.91	5058.48
431.12	4960.18
431.33	5101.49
431.54	5140.40
431.75	5117.87
431.96	5066.67
432.17	5085.11
432.38	5007.28
432.59	5218.22
432.80	5228.46
433.01	5351.34
433.22	5345.20
433.43	5193.65
433.64	5218.22
433.85	5183.41
434.06	5382.06
434.27	5197.74
434.49	5433.26
434.70	5470.12
434.91	5455.79
435.12	5435.31
435.33	5476.27
435.54	5410.73
435.75	5302.19
435.96	5423.02
436.17	5296.05
436.38	5504.94
436.59	5476.27
436.80	5496.75
437.01	5687.21
437.22	5851.05
437.43	5619.63
437.64	5373.87
437.85	5597.10
438.06	5640.11
438.27	5543.85
438.48	5633.96
438.69	5861.29
438.90	5859.24
439.11	5664.68
439.32	5785.51
439.53	5709.74
439.74	5855.14
439.95	5877.67
440.16	5924.77
440.37	5900.20
440.57	5603.24
440.78	5914.53
440.99	6039.46
441.20	5797.80
441.41	5812.14
441.62	5951.40
441.83	5826.47
442.04	5959.59
442.25	5889.96
442.46	5959.59
442.67	6068.13
442.88	6428.57
443.09	5869.48
443.30	6111.14
443.51	6004.64
443.72	6238.11
443.93	6143.91
444.14	6418.33
444.35	6113.19
444.56	6330.27
444.77	6309.79
444.98	6274.98
445.19	6451.10
445.40	6285.22
445.61	6262.69
445.81	6387.61
446.02	6307.74
446.23	6344.61
446.44	6279.07
446.65	6616.99
446.86	6295.46
447.07	6692.76
447.28	6696.86
447.49	6700.95
447.70	6500.25
447.91	6637.47
448.12	6795.16
448.33	6657.95
448.54	6741.91
448.74	6520.73
448.95	6758.30
449.16	6762.39
449.37	6868.89
449.58	6672.28
449.79	6866.84
450.00	6723.48
450.21	6959.00
450.42	7092.12
450.63	7094.16
450.84	6854.55
451.05	6848.41
451.25	7118.74
451.46	6948.76
451.67	7149.46
451.88	7241.62
452.09	6989.72
452.30	6995.86
452.51	7108.50
452.72	7327.63
452.93	7569.29
453.13	7174.03
453.34	7208.85
453.55	7266.19
453.76	7276.43
453.97	7823.24
454.18	7309.20
454.39	7446.41
454.60	7440.27
454.81	7251.86
455.01	7546.76
455.22	7260.05
455.43	7483.28
455.64	7718.79
455.85	7813.00
456.06	7921.54
456.27	7737.23
456.48	7872.39
456.68	7866.25
456.89	7841.67
457.10	7880.58
457.31	7862.15
457.52	7925.64
457.73	7982.98
457.94	8224.64
458.14	7831.43
458.35	8238.98
458.56	8105.86
458.77	8087.43
458.98	8462.21
459.19	8376.19
459.39	8394.62
459.60	8556.41
459.81	8281.99
460.02	8628.09
460.23	8298.37
460.44	8697.72
460.65	8626.04
460.85	8877.94
461.06	8732.54
461.27	8503.17
461.48	9015.16
461.69	9138.04
461.89	8644.48
462.10	8902.52
462.31	8578.94
462.52	8992.63
462.73	8857.46
462.94	9183.09
463.14	8961.91
463.35	9113.46
463.56	9406.32
463.77	9537.39
463.98	9179.00
464.18	9215.86
464.39	9449.33
464.60	9744.24
464.81	9617.26
465.02	9324.40
465.23	9842.54
465.43	9588.59
465.64	9836.39
465.85	9889.64
466.06	9752.43
466.27	10133.35
466.47	10151.78
466.68	10055.53
466.89	10033.00
467.10	10178.40
467.30	9967.46
467.51	10159.97
467.72	10473.31
467.93	10184.55
468.14	10258.28
468.34	10350.43
468.55	10553.18
468.76	10420.06
468.97	10393.44
469.17	10516.32
469.38	10682.20
469.59	10895.19
469.80	10524.51
470.01	10876.76
470.21	11005.78
470.42	11272.02
470.63	11065.18
470.84	11044.70
471.04	11304.79
471.25	11398.99
471.46	11202.39
471.67	11429.71
471.87	11442.00
472.08	11501.39
472.29	11669.33
472.50	11331.41
472.70	11663.18
472.91	11734.86
473.12	11718.48
473.33	11732.81
473.53	11994.95
473.74	11816.78
473.95	12222.28
474.16	12332.87
474.36	12191.56
474.57	12404.55
474.78	12658.49
474.99	12627.78
475.19	12369.73
475.40	12668.73
475.61	12697.41
475.81	12748.61
476.02	12887.87
476.23	12973.88
476.44	12918.59
476.64	13379.38
476.85	13406.00
477.06	13338.42
477.27	13543.22
477.47	13848.36
477.68	13674.29
477.89	13944.62
478.09	13596.46
478.30	13809.45
478.51	13633.33
478.71	14108.46
478.92	14030.63
479.13	14020.39
479.34	14419.75
479.54	14313.25
479.75	14321.45
479.96	14524.19
480.16	14546.72
480.37	14667.55
480.58	14806.81
480.78	15105.82
480.99	14939.93
481.20	15036.19
481.41	15181.59
481.61	15283.99
481.82	15341.33
482.03	15275.80
482.23	15331.09
482.44	15662.86
482.65	15834.89
482.85	15988.49
483.06	15884.05
483.27	16035.60
483.47	15937.29
483.68	16047.88
483.89	16158.47
484.09	16205.58
484.30	16283.40
484.51	16756.48
484.71	16451.33
484.92	16723.71
485.13	16762.62
485.33	16783.10
485.54	16883.45
485.75	17123.07
485.95	17180.41
486.16	17217.27
486.37	17190.65
486.57	16996.09
486.78	17506.04
486.98	17581.81
487.19	17755.89
487.40	17977.07
487.60	17776.37
487.81	17874.67
488.02	18046.70
488.22	18120.43
488.43	18026.22
488.64	18255.59
488.84	18294.50
489.05	18226.92
489.25	18661.09
489.46	18728.67
489.67	18841.31
489.87	19009.25
490.08	18882.27
490.29	18779.87
490.49	19371.74
490.70	19308.25
490.90	19480.28
491.11	19255.00
491.32	19306.20
491.52	19619.54
491.73	19261.15
491.94	19822.29
492.14	19787.47
492.35	20078.29
492.55	20029.13
492.76	20043.47
492.97	20205.26
493.17	20117.20
493.38	20225.74
493.58	20543.17
493.79	20461.26
494.00	20473.54
494.20	20635.33
494.41	20629.19
494.61	20817.60
494.82	20885.19
495.02	21069.50
495.23	21300.92
495.44	21083.84
495.64	21333.69
495.85	21409.47
496.05	21540.54
496.26	21505.72
496.47	21589.69
496.67	21567.16
496.88	21989.04
497.08	21575.35
497.29	22027.95
497.49	21952.18
497.70	21948.08
497.91	22255.28
498.11	22417.07
498.32	22208.17
498.52	22419.11
498.73	22578.86
498.93	22886.05
499.14	22836.90
499.34	22636.20
499.55	22845.09
499.76	22826.66
499.96	23017.12
500.17	23254.69
500.37	23101.09
500.58	23152.29
500.78	23451.29
500.99	23447.19
501.19	23443.10
501.40	23625.37
501.60	23633.56
501.81	23426.71
502.02	23717.53
502.22	23312.03
502.43	24047.25
502.63	24053.39
502.84	24039.06
503.04	23903.89
503.25	24010.39
503.45	24233.61
503.66	24219.28
503.86	24465.03
504.07	24714.89
504.27	24297.10
504.48	24639.11
504.68	24460.94
504.89	24753.80
505.09	24698.50
505.30	24708.74
505.50	24776.33
505.71	24823.43
505.91	24747.65
506.12	24913.54
506.32	24805.00
506.53	25394.81
506.73	25071.23
506.94	25048.71
507.14	25511.55
507.35	25792.12
507.55	25534.07
507.76	25632.38
507.96	25628.28
508.17	25796.21
508.37	25706.10
508.58	25681.53
508.78	25941.62
508.99	26093.17
509.19	26001.01
509.40	26160.75
509.60	26166.90
509.81	26058.35
510.01	26093.17
510.22	26437.23
510.42	26470.00
510.63	26281.58
510.83	26832.49
511.04	26594.92
511.24	26838.63
511.44	26275.44
511.65	26625.64
511.85	26599.02
512.06	26588.78
512.26	26979.94
512.47	26938.98
512.67	27006.56
512.88	26828.39
513.08	26844.77
513.29	27354.72
513.49	27106.91
513.69	27098.72
513.90	27467.36
514.10	27625.05
514.31	27450.97
514.51	27465.31
514.72	27547.23
514.92	27385.44
515.13	27395.68
515.33	27580.00
515.53	27809.37
515.74	27569.76
515.94	27606.62
516.15	27815.51
516.35	27672.15
516.56	27919.96
516.76	28001.88
516.96	27985.49
517.17	27876.95
517.37	28100.18
517.58	28116.56
517.78	28194.39
517.99	28423.76
518.19	28229.20
518.39	28722.76
518.60	28546.64
518.80	28513.87
519.01	28788.30
519.21	28536.40
519.41	28921.41
519.62	28771.91
519.82	28984.90
520.03	29400.64
520.23	29079.11
520.43	29060.68
520.64	29036.10
520.84	29247.04
521.05	29095.49
521.25	29326.91
521.45	29169.22
521.66	29779.51
521.86	29462.08
522.07	29392.45
522.27	29478.46
522.47	29636.16
522.68	29843.00
522.88	29709.88
523.08	29845.05
523.29	29976.12
523.49	29855.29
523.70	30387.76
523.90	30250.55
524.10	30465.58
524.31	30420.53
524.51	30207.54
524.71	30610.99
524.92	30461.49
525.12	30744.11
525.33	30502.45
525.53	30596.65
525.73	30834.22
525.94	31069.73
526.14	30774.83
526.34	31010.34
526.55	31069.73
526.75	31002.15
526.95	31196.71
527.16	31303.20
527.36	31417.89
527.56	31604.25
527.77	31657.50
527.97	31620.64
528.17	31706.65
528.38	31931.93
528.58	32065.05
528.78	32206.36
528.99	31796.76
529.19	32149.01
529.39	31931.93
529.60	32392.72
529.80	32507.41
530.00	32546.32
530.21	32796.17
530.41	32609.81
530.61	32880.14
530.82	32843.27
531.02	32869.90
531.22	32933.39
531.43	32765.45
531.63	33111.56
531.83	33254.92
532.04	33338.88
532.24	33150.47
532.44	33351.17
532.64	33869.31
532.85	33963.51
533.05	33807.87
533.25	33895.93
533.46	33711.61
533.66	34059.77
533.86	34334.20
534.07	34416.11
534.27	34354.68
534.47	34733.55
534.67	34385.40
534.88	34186.74
535.08	34549.23
535.28	34803.18
535.49	34852.33
535.69	35059.18
535.89	35292.65
536.09	35108.33
536.30	35415.52
536.50	35026.41
536.70	35388.90
536.91	35194.34
537.11	35507.68
537.31	35689.95
537.51	35728.86
537.72	35921.37
537.92	35849.69
538.12	36392.40
538.32	35718.62
538.53	36285.91
538.73	36097.50
538.93	36072.92
539.13	36251.09
539.34	36410.84
539.54	36484.56
539.74	36713.94
539.94	36365.78
540.15	36730.32
540.35	36986.32
540.55	36799.95
540.75	36902.35
540.96	37139.91
541.16	37135.82
541.36	37393.86
541.56	37006.80
541.77	37561.79
541.97	37215.69
542.17	37696.96
542.37	37299.65
542.58	37324.23
542.78	37778.88
542.98	37985.72
543.18	37993.92
543.38	38507.96
543.59	38467.00
543.79	38077.88
543.99	38110.65
544.19	38067.64
544.40	38360.50
544.60	38729.14
544.80	38501.81
545.00	38540.72
545.20	38790.58
545.41	38796.72
545.61	39069.10
545.81	38852.02
546.01	38989.23
546.21	38532.53
546.42	38970.80
546.62	39089.58
546.82	39263.66
547.02	39122.35
547.22	39685.54
547.43	39466.41
547.63	39130.54
547.83	39259.56
548.03	39335.34
548.23	39673.25
548.44	39550.37
548.64	39658.91
548.84	39447.97
549.04	39310.76
549.24	39787.94
549.45	39941.53
549.65	39998.88
549.85	39976.35
550.05	40230.30
550.25	39937.44
550.45	40885.65
550.66	40203.67
550.86	40023.45
551.06	40351.13
551.26	40703.38
551.46	40555.93
551.66	40541.59
551.87	40261.02
552.07	40488.34
552.27	40529.30
552.47	40742.29
552.67	41061.77
552.87	40588.69
553.07	40779.15
553.28	40942.99
553.48	41338.25
553.68	41033.10
553.88	41174.41
554.08	41528.71
554.28	41518.47
554.48	41436.55
554.69	41358.73
554.89	41594.25
555.09	41629.06
555.29	41321.87
555.49	41522.57
555.69	41624.96
555.89	41627.01
556.10	42163.58
556.30	41674.12
556.50	41932.16
556.70	41670.02
556.90	42016.13
557.10	41923.97
557.30	41530.76
557.50	41919.87
557.70	42165.63
557.91	42317.18
558.11	42409.34
558.31	42278.27
558.51	42329.47
558.71	41952.64
558.91	43015.54
559.11	42351.99
559.31	42435.96
559.51	42374.52
559.72	42546.55
559.92	42558.84
560.12	42292.60
560.32	42941.81
560.52	42407.29
560.72	42534.26
560.92	42929.52
561.12	43011.44
561.32	42956.14
561.52	42618.23
561.72	43353.45
561.93	43015.54
562.13	43369.83
562.33	42888.56
562.53	43763.04
562.73	43349.35
562.93	43013.49
563.13	43480.42
563.33	43619.69
563.53	43267.44
563.73	42906.99
563.93	43539.82
564.13	43873.63
564.33	43410.79
564.53	43367.79
564.74	43677.03
564.94	43253.10
565.14	43464.04
565.34	43392.36
565.54	43808.10
565.74	43789.67
565.94	44148.06
566.14	43863.39
566.34	43509.10
566.54	44588.38
566.74	43867.49
566.94	44066.14
567.14	43892.07
567.34	43711.84
567.54	44293.47
567.74	44197.21
567.94	44127.58
568.14	44375.39
568.34	44610.90
568.54	43816.29
568.74	44635.48
568.94	44170.59
569.14	44576.09
569.34	44778.84
569.54	44592.47
569.75	44524.89
569.95	44596.57
570.15	44893.52
570.35	44615.00
570.55	44766.55
570.75	44969.30
570.95	44762.45
571.15	44688.73
571.35	44715.35
571.55	45131.09
571.75	44907.86
571.95	45395.28
572.15	44729.69
572.35	45342.03
572.55	45231.44
572.75	45362.51
572.95	45331.79
573.15	45241.68
573.35	45569.35
573.55	45116.75
573.75	45327.69
573.95	45282.64
574.15	45172.05
574.35	45610.31
574.55	45393.23
574.75	45466.95
574.95	45559.11
575.15	45544.78
575.34	45786.44
575.54	45628.74
575.74	45778.25
575.94	45933.89
576.14	45880.64
576.34	46087.49
576.54	46546.23
576.74	46585.15
576.94	46114.11
577.14	46851.38
577.34	46490.94
577.54	46218.56
577.74	46374.20
577.94	46241.09
578.14	46294.33
578.34	46665.02
578.54	45860.16
578.74	46089.54
578.94	46650.68
579.14	46218.56
579.34	46652.73
579.54	46665.02
579.74	46814.52
579.94	46941.49
580.13	47236.40
580.33	47230.26
580.53	47394.09
580.73	46871.86
580.93	46970.16
581.13	46773.56
581.33	47433.00
581.53	47205.68
581.73	47252.78
581.93	47453.48
582.13	47457.58
582.33	47324.46
582.53	47228.21
582.73	47310.13
582.92	47641.90
583.12	47727.91
583.32	47682.86
583.52	47160.62
583.72	47723.82
583.92	47519.02
584.12	48078.11
584.32	48207.14
584.52	47451.44
584.72	47887.65
584.92	48229.66
585.11	48284.96
585.31	47891.75
585.51	48022.82
585.71	47945.00
585.91	48264.48
586.11	48121.12
586.31	48274.72
586.51	48289.06
586.71	47953.19
586.91	48635.16
587.10	48164.13
587.30	48583.96
587.50	48549.15
587.70	48747.80
587.90	48973.08
588.10	48581.91
588.30	48545.05
588.50	48686.36
588.69	48588.06
588.89	48747.80
589.09	49055.00
589.29	49087.76
589.49	49360.14
589.69	48694.55
589.89	49011.99
590.08	49065.24
590.28	48807.19
590.48	48506.14
590.68	49198.35
590.88	48987.41
591.08	48897.30
591.28	49487.12
591.47	49470.73
591.67	49448.21
591.87	49534.22
592.07	49347.86
592.27	49354.00
592.47	49583.37
592.67	49272.08
592.86	49351.95
593.06	49437.97
593.26	49345.81
593.46	49917.19
593.66	49655.05
593.86	49378.57
594.05	49614.09
594.25	50001.16
594.45	49665.29
594.65	49485.07
594.85	49644.81
595.05	49605.90
595.24	49896.71
595.44	49855.75
595.64	49917.19
595.84	49849.61
596.04	50101.51
596.23	50132.23
596.43	50369.79
596.63	50021.64
596.83	50003.20
597.03	50455.81
597.22	50812.15
597.42	50560.25
597.62	50611.45
597.82	50533.63
598.02	50697.47
598.21	50449.66
598.41	50363.65
598.61	50590.97
598.81	50861.30
599.01	50734.33
599.20	50990.33
599.40	50765.05
599.60	51037.43
599.80	51096.82
600.00	50818.30
600.19	52020.45
600.39	51379.44
600.59	51662.06
600.79	50693.37
600.98	51090.68
601.18	51764.46
601.38	51498.22
601.58	51537.13
601.78	51909.86
601.97	51385.58
602.17	52022.50
602.37	51541.23
602.57	51758.31
602.76	51856.62
602.96	51477.74
603.16	52249.83
603.36	51813.61
603.55	52262.11
603.75	51465.45
603.95	52131.04
604.15	51786.99
604.34	52094.18
604.54	52081.89
604.74	52827.35
604.94	52813.02
605.13	52524.25
605.33	52636.89
605.53	52278.50
605.73	52491.49
605.92	52538.59
606.12	52851.93
606.32	52630.75
606.52	52325.60
606.71	52511.97
606.91	52704.48
607.11	52847.83
607.30	52950.23
607.50	52870.36
607.70	53056.73
607.90	53249.24
608.09	53044.44
608.29	53232.85
608.49	53327.06
608.68	52909.27
608.88	53605.58
609.08	53202.13
609.28	53159.12
609.47	53171.41
609.67	53523.66
609.87	53656.78
610.06	53791.95
610.26	53320.91
610.46	53687.50
610.66	53425.36
610.85	53556.43
611.05	53601.49
611.25	53613.77
611.44	53253.33
611.64	53443.79
611.84	53503.18
612.03	53771.47
612.23	53474.51
612.43	54062.28
612.62	53482.70
612.82	54351.04
613.02	53824.71
613.21	53791.95
613.41	53507.28
613.61	53976.26
613.80	53292.24
614.00	54156.49
614.20	53927.11
614.39	54154.44
614.59	54213.83
614.79	53667.02
614.98	53810.38
615.18	54002.89
615.38	54129.86
615.57	54162.63
615.77	54158.53
615.97	53912.78
616.16	53961.93
616.36	53859.53
616.56	54093.00
616.75	54711.49
616.95	53443.79
617.15	54136.01
617.34	54150.34
617.54	53992.65
617.74	54949.05
617.93	54222.02
618.13	54027.46
618.32	54344.90
618.52	54224.07
618.72	54080.71
618.91	53949.64
619.11	54148.29
619.31	54111.43
619.50	53943.50
619.70	53834.95
619.90	54017.22
620.09	54492.35
620.29	54437.06
620.48	54195.40
620.68	54267.08
620.88	53966.02
621.07	54518.98
621.27	54514.88
621.46	54097.09
621.66	54187.21
621.86	53972.17
622.05	54365.38
622.25	54885.56
622.44	54549.70
622.64	54095.05
622.84	54475.97
623.03	54224.07
623.23	54101.19
623.42	54254.79
623.62	54338.75
623.82	54703.29
624.01	54482.11
624.21	54863.03
624.40	53949.64
624.60	54256.84
624.80	54449.35
624.99	54326.47
625.19	54303.94
625.38	54545.60
625.58	54441.15
625.77	54627.52
625.97	54156.49
626.17	54195.40
626.36	54252.74
626.56	54949.05
626.75	54287.56
626.95	54781.12
627.14	54189.25
627.34	54887.61
627.54	54455.49
627.73	54521.02
627.93	54537.41
628.12	54238.40
628.32	54686.91
628.51	54514.88
628.71	54344.90
628.90	54455.49
629.10	54498.50
629.30	54369.47
629.49	54797.50
629.69	54320.32
629.88	54596.80
630.08	54842.56
630.27	54719.68
630.47	54660.29
630.66	54746.30
630.86	54897.85
631.05	54197.44
631.25	54985.91
631.44	54897.85
631.64	54936.76
631.84	54801.60
632.03	55516.34
632.23	54965.43
632.42	55358.64
632.62	55010.49
632.81	54516.93
633.01	54623.42
633.20	55219.38
633.40	55022.78
633.59	54932.67
633.79	54983.86
633.98	55198.90
634.18	55354.55
634.37	54953.15
634.57	54822.08
634.76	55581.87
634.96	55313.59
635.15	55174.33
635.35	54795.45
635.54	55106.74
635.74	55479.47
635.93	54793.40
636.13	55637.17
636.32	55387.31
636.52	55387.31
636.71	54961.34
636.91	55391.41
637.10	55526.58
637.30	55194.81
637.49	55045.30
637.69	55596.21
637.88	55291.06
638.08	55481.52
638.27	55809.20
638.46	55252.15
638.66	54985.91
638.85	55186.61
639.05	55499.95
639.24	55923.88
639.44	55362.74
639.63	55108.79
639.83	55293.11
640.02	55710.89
640.22	55205.05
640.41	56116.39
640.61	55028.92
640.80	55508.14
640.99	55153.85
641.19	56313.00
641.38	55827.63
641.58	55262.39
641.77	55661.74
641.97	55721.13
642.16	55553.20
642.36	56102.06
642.55	56282.28
642.74	55504.05
642.94	56153.26
643.13	55764.14
643.33	55872.68
643.52	56112.30
643.72	56087.72
643.91	55829.68
644.10	56251.56
644.30	56034.47
644.49	56024.23
644.69	55952.55
644.88	56026.28
645.08	55833.77
645.27	56005.80
645.46	55835.82
645.66	56071.34
645.85	55913.64
646.05	55506.10
646.24	55887.02
646.43	56399.01
646.63	56399.01
646.82	56399.01
647.02	56112.30
647.21	56278.18
647.40	55934.12
647.60	56136.87
647.79	56003.75
647.99	56138.92
648.18	56007.85
648.37	56622.24
648.57	56546.47
648.76	55938.22
648.96	56308.90
649.15	56628.38
649.34	56530.08
649.54	56442.02
649.73	55792.81
649.92	56716.45
650.12	56112.30
650.31	56345.76
650.51	56253.61
650.70	56669.34
650.89	56317.09
651.09	57173.14
651.28	56464.55
651.47	56370.34
651.67	56577.18
651.86	56964.25
652.06	56249.51
652.25	56439.97
652.44	56468.64
652.64	56353.96
652.83	56222.89
653.02	55979.18
653.22	56304.80
653.41	56278.18
653.60	56202.41
653.80	56026.28
653.99	56374.44
654.18	56509.60
654.38	56480.93
654.57	56401.06
654.76	56829.08
654.96	56378.53
655.15	56370.34
655.34	56210.60
655.54	56030.38
655.73	56614.05
655.92	56775.84
656.12	56374.44
656.31	56577.18
656.50	56779.93
656.70	56583.33
656.89	56413.35
657.08	56444.07
657.28	56661.15
657.47	56489.12
657.66	56937.63
657.86	56452.26
658.05	56609.95
658.24	56341.67
658.43	56349.86
658.63	56253.61
658.82	56353.96
659.01	56362.15
659.21	56880.28
659.40	56587.42
659.59	56210.60
659.79	57011.35
659.98	56384.68
660.17	56841.37
660.36	56710.30
660.56	56724.64
660.75	56620.19
660.94	56743.07
661.14	56833.18
661.33	56495.27
661.52	56325.28
661.71	57078.94
661.91	56294.56
662.10	56824.99
662.29	56616.10
662.49	56841.37
662.68	56657.06
662.87	56755.36
663.06	56933.53
663.26	56517.79
663.45	57359.51
663.64	56616.10
663.83	56960.15
664.03	56536.23
664.22	56665.25
664.41	57007.26
664.60	56640.67
664.80	56542.37
664.99	56026.28
665.18	56693.92
665.37	56779.93
665.57	56693.92
665.76	56378.53
665.95	57285.78
666.14	56988.83
666.34	56503.46
666.53	56581.28
666.72	56149.16
666.91	56016.04
667.11	56423.59
667.30	56501.41
667.49	56497.31
667.68	56337.57
667.87	55940.27
668.07	56767.65
668.26	56143.02
668.45	56501.41
668.64	56024.23
668.84	57146.52
669.03	56626.34
669.22	56294.56
669.41	56378.53
669.60	56401.06
669.80	55999.66
669.99	56454.31
670.18	56259.75
670.37	56292.52
670.57	56624.29
670.76	56177.83
670.95	56642.72
671.14	56757.41
671.33	55884.97
671.53	56800.41
671.72	56415.40
671.91	56335.52
672.10	56042.66
672.29	56364.20
672.48	56100.01
672.68	56863.90
672.87	55981.23
673.06	56179.88
673.25	55760.05
673.44	55991.47
673.64	56054.95
673.83	55880.88
674.02	56071.34
674.21	55422.13
674.40	56181.93
674.59	55669.93
674.79	55784.62
674.98	55760.05
675.17	56036.52
675.36	55655.60
675.55	56116.39
675.74	55817.39
675.94	55952.55
676.13	56077.48
676.32	55786.67
676.51	56261.80
676.70	55813.29
676.89	55688.37
677.08	56540.32
677.28	55542.96
677.47	56063.14
677.66	55796.91
677.85	55565.49
678.04	55997.61
678.23	55723.18
678.42	56038.57
678.62	55899.31
678.81	55768.24
679.00	55764.14
679.19	56282.28
679.38	55340.21
679.57	55540.91
679.76	55805.10
679.96	55526.58
680.15	55782.57
680.34	55436.47
680.53	56134.82
680.72	55530.67
680.91	55905.45
681.10	54996.15
681.29	55719.09
681.48	55231.67
681.68	55399.60
681.87	55723.18
682.06	55438.51
682.25	55248.05
682.44	55526.58
682.63	55571.63
682.82	54738.11
683.01	55264.44
683.20	55153.85
683.39	55280.82
683.59	55051.45
683.78	55223.48
683.97	55014.58
684.16	55313.59
684.35	54666.43
684.54	54875.32
684.73	54996.15
684.92	55172.28
685.11	54992.06
685.30	54879.42
685.49	55342.26
685.69	54811.84
685.88	55106.74
686.07	54910.14
686.26	54678.72
686.45	54744.25
686.64	54924.47
686.83	54893.75
687.02	54512.83
687.21	54664.38
687.40	54834.36
687.59	54645.95
687.78	54869.18
687.97	55043.26
688.16	54785.21
688.35	54688.96
688.54	54639.81
688.74	54746.30
688.93	55125.17
689.12	54326.47
689.31	54615.23
689.50	55071.93
689.69	54416.58
689.88	54121.67
690.07	54471.87
690.26	53853.39
690.45	54981.82
690.64	54572.22
690.83	54267.08
691.02	53853.39
691.21	53992.65
691.40	54160.58
691.59	54148.29
691.78	54199.49
691.97	54215.88
692.16	54224.07
692.35	54205.64
692.54	54211.78
692.73	54310.08
692.92	54035.66
693.11	54103.24
693.30	54629.57
693.49	54082.76
693.68	54199.49
693.87	54164.68
694.06	54203.59
694.25	53550.29
694.44	53546.19
694.63	53976.26
694.82	53726.41
695.01	53744.84
695.20	53548.24
695.39	53671.12
695.58	54037.70
695.77	53834.95
695.96	53490.90
696.15	53886.15
696.34	53408.98
696.53	53796.04
696.72	53695.69
696.91	53697.74
697.10	53703.88
697.29	53607.63
697.48	53941.45
697.67	53400.79
697.86	53312.72
698.05	53302.48
698.24	54088.90
698.43	52845.79
698.62	54070.47
698.81	53132.50
699.00	53212.37
699.19	53251.28
699.38	53664.97
699.57	52993.24
699.76	53832.91
699.95	52749.53
700.14	52792.54
700.32	53380.31
700.51	52983.00
700.70	53640.40
700.89	53224.66
701.08	53560.53
701.27	52880.60
701.46	53511.38
701.65	52489.44
701.84	53105.88
702.03	53150.93
702.22	53050.58
702.41	53146.84
702.60	53347.54
702.79	52792.54
702.98	52894.94
703.17	52810.97
703.35	52731.10
703.54	52600.03
703.73	53513.42
703.92	52843.74
704.11	52903.13
704.30	52774.11
704.49	52792.54
704.68	52430.05
704.87	52737.24
705.06	52712.67
705.25	52221.16
705.43	52892.89
705.62	52313.31
705.81	52892.89
706.00	52878.55
706.19	52569.31
706.38	52466.91
706.57	52618.46
706.76	52507.87
706.95	52522.21
707.14	52245.73
707.32	52554.97
707.51	51834.09
707.70	51971.30
707.89	52067.56
708.08	52282.59
708.27	52690.14
708.46	52669.66
708.65	52319.46
708.84	52290.79
709.02	51995.88
709.21	52516.06
709.40	52421.86
709.59	52421.86
709.78	52116.71
709.97	52208.87
710.16	51850.47
710.34	52098.28
710.53	52083.94
710.72	51999.97
710.91	51614.96
711.10	52071.65
711.29	52262.11
711.48	51977.45
711.66	52028.65
711.85	51715.31
712.04	51772.65
712.23	51418.35
712.42	51688.68
712.61	51561.71
712.80	51559.66
712.98	51414.26
713.17	51944.68
713.36	51637.48
713.55	51494.13
713.74	51920.10
713.93	51748.07
714.11	51590.38
714.30	51533.04
714.49	51660.01
714.68	51416.30
714.87	51461.36
715.06	51303.67
715.24	51223.79
715.43	51408.11
715.62	51203.31
715.81	50967.80
716.00	51465.45
716.18	51062.00
716.37	50943.22
716.56	50873.59
716.75	51365.10
716.94	50990.33
717.12	50689.27
717.31	51838.18
717.50	51307.76
717.69	50926.84
717.88	50992.37
718.06	50894.07
718.25	51418.35
718.44	51043.57
718.63	51080.44
718.82	50820.34
719.00	50984.18
719.19	50459.90
719.38	50601.21
719.57	50351.36
719.76	50464.00
719.94	50412.80
720.13	50033.92
720.32	49822.98
720.51	50148.61
720.69	49984.77
720.88	50099.46
721.07	50560.25
721.26	49710.35
721.44	50279.68
721.63	49757.45
721.82	49624.33
722.01	49587.47
722.20	49784.07
722.38	49321.23
722.57	49341.71
722.76	49882.37
722.95	49362.19
723.13	49292.56
723.32	49499.40
723.51	49331.47
723.70	48958.74
723.88	49224.98
724.07	49134.87
724.26	49478.92
724.44	48966.93
724.63	49855.75
724.82	49351.95
725.01	49075.48
725.19	49089.81
725.38	48850.20
725.57	49284.37
725.76	49278.22
725.94	48878.87
726.13	48874.77
726.32	48772.38
726.51	48852.25
726.69	49167.63
726.88	49005.84
727.07	48577.82
727.25	48684.31
727.44	48764.18
727.63	49110.29
727.82	48577.82
728.00	48567.58
728.19	48586.01
728.38	49085.72
728.56	48602.39
728.75	49149.20
728.94	48801.05
729.12	48768.28
729.31	48364.83
729.50	48733.46
729.69	48899.35
729.87	48758.04
730.06	48149.79
730.25	48882.97
730.43	48641.31
730.62	48246.05
730.81	48891.16
730.99	48788.76
731.18	48139.55
731.37	48792.86
731.55	48835.86
731.74	49165.59
731.93	48915.73
732.11	48878.87
732.30	48837.91
732.49	48649.50
732.67	48729.37
732.86	48661.79
733.05	48811.29
733.23	48198.94
733.42	48737.56
733.61	48409.89
733.79	48479.52
733.98	48575.77
734.17	48735.51
734.35	48504.09
734.54	48467.23
734.73	48553.24
734.91	48377.12
735.10	48196.90
735.29	48487.71
735.47	48078.11
735.66	48553.24
735.84	48710.94
736.03	48160.03
736.22	49055.00
736.40	48139.55
736.59	48616.73
736.78	48624.92
736.96	48569.63
737.15	48117.03
737.33	48141.60
737.52	48006.44
737.71	48452.89
737.89	48059.68
738.08	47809.83
738.27	48192.80
738.45	48645.40
738.64	48430.36
738.82	48481.56
739.01	48016.68
739.20	47758.63
739.38	48225.57
739.57	48207.14
739.75	47996.20
739.94	47693.10
740.13	47858.98
740.31	47940.90
740.50	47650.09
740.68	47826.21
740.87	47852.84
741.06	47936.80
741.24	47594.79
741.43	47707.43
741.61	47586.60
741.80	47494.44
741.99	47652.14
742.17	47396.14
742.36	47934.76
742.54	47146.29
742.73	47469.87
742.91	47504.68
743.10	47168.82
743.29	47836.45
743.47	47672.62
743.66	47629.61
743.84	47725.86
744.03	47480.11
744.21	47365.42
744.40	47519.02
744.59	46851.38
744.77	47009.07
744.96	47172.91
745.14	47166.77
745.33	47267.12
745.51	47418.67
745.70	47150.38
745.88	47119.66
746.07	47105.33
746.26	46767.41
746.44	47004.98
746.63	46902.58
746.81	47060.27
747.00	46871.86
747.18	47064.37
747.37	46904.63
747.55	47129.90
747.74	46759.22
747.92	46722.36
748.11	46845.24
748.29	46376.25
748.48	46894.39
748.66	46525.75
748.85	46439.74
749.03	46843.19
749.22	46452.03
749.41	46333.24
749.59	46873.91
749.78	46333.24
749.96	45837.64
750.15	46470.46
750.33	46419.26
750.52	46245.18
750.70	46212.41
750.89	46406.97
751.07	45937.99
751.26	46275.90
751.44	46067.01
751.63	46009.67
751.81	46095.68
752.00	45919.56
752.18	46265.66
752.37	45778.25
752.55	45507.91
752.74	45841.73
752.92	45595.98
753.10	45370.70
753.29	45647.18
753.47	45737.29
753.66	45430.09
753.84	45751.62
754.03	45704.52
754.21	45167.95
754.40	45899.08
754.58	45534.54
754.77	45313.36
754.95	45176.14
755.14	45053.26
755.32	45110.61
755.51	44729.69
755.69	45317.45
755.88	45213.01
756.06	45270.35
756.24	45002.07
756.43	44891.48
756.61	45143.38
756.80	44557.66
756.98	44815.70
757.17	44612.95
757.35	45292.88
757.54	44725.59
757.72	44885.33
757.90	44989.78
758.09	44201.31
758.27	44721.49
758.46	44160.35
758.64	44483.93
758.83	44643.67
759.01	44791.12
759.19	44651.86
759.38	44385.63
759.56	44897.62
759.75	44451.16
759.93	44569.94
760.12	43838.82
760.30	44037.47
760.48	43828.58
760.67	44080.48
760.85	44285.28
761.04	44234.08
761.22	43914.59
761.40	44148.06
761.59	44135.77
761.77	43623.78
761.96	43640.17
762.14	44016.99
762.32	43265.39
762.51	43353.45
762.69	43896.16
762.88	43500.90
763.06	43482.47
763.24	43480.42
763.43	43801.96
763.61	43136.37
763.80	43423.08
763.98	43246.96
764.16	43394.41
764.35	43025.78
764.53	43228.52
764.72	43189.61
764.90	43337.07
765.08	42911.09
765.27	43079.02
765.45	42718.58
765.63	42694.00
765.82	42843.51
766.00	42706.29
766.18	42689.91
766.37	43115.89
766.55	42554.74
766.74	42823.03
766.92	42493.30
767.10	42882.42
767.29	42503.54
767.47	42313.08
767.65	42446.20
767.84	42218.88
768.02	42249.60
768.20	41885.06
768.39	42552.69
768.57	41756.03
768.75	42368.38
768.94	41866.63
769.12	42059.13
769.30	41637.25
769.49	41868.67
769.67	41457.03
769.85	41713.03
770.04	41686.40
770.22	41774.47
770.40	41276.81
770.59	41178.51
770.77	41911.68
770.95	41819.52
771.14	41268.62
771.32	41280.91
771.50	40871.31
771.69	41266.57
771.87	41422.22
772.05	41328.01
772.24	40807.83
772.42	41268.62
772.60	41039.25
772.78	40867.22
772.97	40777.11
773.15	41160.08
773.33	40965.52
773.52	41076.11
773.70	40922.51
773.88	40816.02
774.07	40426.90
774.25	40834.45
774.43	41102.73
774.61	41041.29
774.80	40486.29
774.98	40502.68
775.16	40746.39
775.34	41108.88
775.53	40371.61
775.71	40936.85
775.89	41082.25
776.08	40852.88
776.26	41047.44
776.44	41100.68
776.62	40756.63
776.81	40603.03
776.99	41088.40
777.17	41248.14
777.35	41141.64
777.54	41045.39
777.72	40809.87
777.90	41006.48
778.08	41094.54
778.27	40566.16
778.45	40998.29
778.63	41448.84
778.81	41274.76
779.00	41805.19
779.18	40764.82
779.36	41252.23
779.54	41039.25
779.73	40959.38
779.91	41207.18
780.09	41192.84
780.27	40883.60
780.46	41207.18
780.64	41420.17
780.82	41323.91
781.00	41381.26
781.19	41571.72
781.37	41958.78
781.55	41520.52
781.73	41657.73
781.91	41160.08
782.10	41313.67
782.28	41254.28
782.46	41532.81
782.64	41395.59
782.82	41133.45
783.01	41567.62
783.19	41559.43
783.37	41561.48
783.55	41411.98
783.74	41622.92
783.92	40818.07
784.10	41852.29
784.28	41710.98
784.46	41301.39
784.64	41207.18
784.83	41346.44
785.01	41569.67
785.19	41342.35
785.37	41422.22
785.55	41270.67
785.74	41106.83
785.92	40947.09
786.10	41467.27
786.28	41096.59
786.46	41219.47
786.64	40998.29
786.83	41065.87
787.01	41131.40
787.19	41084.30
787.37	41121.16
787.55	41190.80
787.74	40768.91
787.92	40711.57
788.10	40748.43
788.28	40297.88
788.46	41086.35
788.64	40316.31
788.82	41129.36
789.01	40416.66
789.19	41014.67
789.37	40281.50
789.55	40760.72
789.73	40416.66
789.91	40197.53
790.09	40129.95
790.28	40041.88
790.46	39900.58
790.64	40211.87
790.82	39785.89
791.00	39568.80
791.18	39919.01
791.36	39544.23
791.55	39427.49
791.73	39585.19
791.91	39200.17
792.09	39335.34
792.27	38909.36
792.45	39599.52
792.63	39249.32
792.81	38940.08
793.00	38966.70
793.18	38950.32
793.36	39118.25
793.54	38856.11
793.72	38856.11
793.90	38710.71
794.08	38317.50
794.26	38700.47
794.44	38319.54
794.62	38065.60
794.81	38612.40
794.99	38280.63
795.17	37967.29
795.35	38335.93
795.53	38163.90
795.71	38102.46
795.89	37473.73
796.07	37778.88
796.25	37963.20
796.43	37680.58
796.61	37369.29
796.80	37346.76
796.98	37275.08
797.16	37199.30
797.34	37334.47
797.52	37258.70
797.70	36847.05
797.88	37141.96
798.06	36597.20
798.24	36789.71
798.42	36644.30
798.60	36885.97
798.78	36218.33
798.96	36564.43
799.14	36339.16
799.32	36445.65
799.51	36128.22
799.69	36541.91
799.87	36185.56
800.05	35986.91
800.23	35454.44
800.41	35954.14
800.59	35839.45
800.77	35565.03
800.95	35456.48
801.13	35550.69
801.31	35567.07
801.49	35833.31
801.67	35030.51
801.85	35204.58
802.03	34831.85
802.21	34928.11
802.39	34973.16
802.57	34635.25
802.75	34559.47
802.93	34602.48
803.11	35239.40
803.29	34813.42
803.47	34311.67
803.65	34483.70
803.83	34323.96
804.01	34403.83
804.19	34022.90
804.37	33857.02
804.55	34287.09
804.73	34080.25
804.91	34010.62
805.09	33928.70
805.27	34194.93
805.45	33857.02
805.63	33934.84
805.81	34094.58
805.99	33943.03
806.17	33824.25
806.35	33349.12
806.53	33504.77
806.71	33598.98
806.89	33355.27
807.07	33070.60
807.25	33443.33
807.43	33242.63
807.61	33175.05
807.79	33156.61
807.97	32726.54
808.15	32738.83
808.33	32605.71
808.51	32519.70
808.69	32372.24
808.87	32513.55
809.05	32161.30
809.23	32114.20
809.41	31925.78
809.59	32001.56
809.77	32312.85
809.95	32071.19
810.13	32351.76
810.31	31983.13
810.49	32179.73
810.67	31807.00
810.84	31579.68
811.02	31858.20
811.20	31530.53
811.38	31604.25
811.56	31165.99
811.74	31491.62
811.92	31600.16
812.10	31233.57
812.28	31520.29
812.46	31391.26
812.64	31331.87
812.82	31329.83
813.00	31028.77
813.18	31424.03
813.36	30981.67
813.53	30686.76
813.71	30748.20
813.89	30746.15
814.07	31008.29
814.25	30705.20
814.43	30594.61
814.61	30432.82
814.79	30725.68
814.97	30619.18
815.15	30543.41
815.33	29877.82
815.50	29922.87
815.68	30592.56
815.86	30311.99
816.04	30092.85
816.22	29986.36
816.40	30021.17
816.58	29978.17
816.76	29677.12
816.94	29664.83
817.11	29931.06
817.29	30080.56
817.47	29515.33
817.65	29453.89
817.83	29550.14
818.01	29617.72
818.19	29515.33
818.37	29554.24
818.54	29541.95
818.72	29232.71
818.90	29595.20
819.08	29224.51
819.26	29408.83
819.44	29206.08
819.62	29204.03
819.80	29091.40
819.97	28964.42
820.15	28833.35
820.33	28798.54
820.51	28843.59
820.69	28694.09
820.87	28907.08
821.05	28622.41
821.22	28677.71
821.40	28509.77
821.58	28634.70
821.76	28714.57
821.94	28321.36
822.12	28671.56
822.29	28620.36
822.47	28315.22
822.65	28499.53
822.83	28526.16
823.01	28268.11
823.19	28530.25
823.36	27979.35
823.54	27975.25
823.72	28227.15
823.90	28188.24
824.08	27965.01
824.25	28188.24
824.43	27733.59
824.61	28450.38
824.79	28036.69
824.97	27694.68
825.15	27780.70
825.32	27985.49
825.50	27414.11
825.68	27496.03
825.86	27643.48
826.04	27666.01
826.21	27477.60
826.39	27565.66
826.57	27620.95
826.75	27539.04
826.93	27309.66
827.10	27518.56
827.28	27418.21
827.46	27307.62
827.64	27410.01
827.81	27481.69
827.99	27246.18
828.17	27336.29
828.35	26902.12
828.53	27227.74
828.70	27053.67
828.88	27127.39
829.06	27104.87
829.24	27111.01
829.41	27065.96
829.59	27074.15
829.77	26682.98
829.95	27004.52
830.12	26639.98
830.30	26551.91
830.48	26764.90
830.66	26789.48
830.84	26793.58
831.01	26695.27
831.19	26527.34
831.37	26422.89
831.55	26357.36
831.72	26457.71
831.90	26609.26
832.08	26410.60
832.25	26330.73
832.43	26330.73
832.61	26457.71
832.79	26001.01
832.96	26396.27
833.14	26117.75
833.32	26195.57
833.50	26003.06
833.67	26134.13
833.85	26138.23
834.03	25857.65
834.20	26041.97
834.38	26259.06
834.56	26193.52
834.74	26056.31
834.91	25771.64
835.09	25878.13
835.27	25570.94
835.44	25687.67
835.62	25396.86
835.80	25425.53
835.98	25568.89
836.15	25765.49
836.33	25517.69
836.51	25642.62
836.68	25382.52
836.86	25486.97
837.04	25486.97
837.21	25636.47
837.39	25583.23
837.57	25204.35
837.75	25360.00
837.92	25251.45
838.10	25415.29
838.28	24993.41
838.45	25663.10
838.63	24909.44
838.81	25097.86
838.98	25112.19
839.16	24888.96
839.34	24800.90
839.51	24884.87
839.69	24542.86
839.87	24735.37
840.04	25093.76
840.22	25089.67
840.40	25017.99
840.57	24733.32
840.75	24714.89
840.93	24426.12
841.10	24784.52
841.28	25116.29
841.46	24850.05
841.63	24821.38
841.81	24544.91
841.98	24925.83
842.16	24819.33
842.34	24643.21
842.51	24202.89
842.69	24632.97
842.87	24538.76
843.04	24524.43
843.22	24385.16
843.40	24356.49
843.57	24032.91
843.75	24446.60
843.92	24293.01
844.10	24186.51
844.28	24628.87
844.45	24204.94
844.63	24194.70
844.81	24014.48
844.98	24268.43
845.16	24329.87
845.33	23996.05
845.51	23858.84
845.69	23848.60
845.86	24161.94
846.04	23948.95
846.21	23703.19
846.39	23977.62
846.57	23707.29
846.74	23918.23
846.92	23731.86
847.09	23912.08
847.27	23776.92
847.45	23631.51
847.62	24245.90
847.80	23721.62
847.97	23953.04
848.15	23725.72
848.32	23422.62
848.50	23674.52
848.68	23420.57
848.85	23305.88
849.03	23555.74
849.20	23453.34
849.38	23348.89
849.56	23346.84
849.73	23082.66
849.91	23541.40
850.08	23551.64
850.26	23189.15
850.43	23299.74
850.61	23305.88
850.78	22898.34
850.96	23129.76
851.14	22879.91
851.31	23166.62
851.49	22918.82
851.66	23039.65
851.84	23058.08
852.01	22998.69
852.19	23170.72
852.36	22771.36
852.54	22787.75
852.71	22533.80
852.89	22599.34
853.07	22916.77
853.24	23031.46
853.42	22890.15
853.59	23111.33
853.77	22994.59
853.94	23119.52
854.12	22834.85
854.29	22648.49
854.47	22605.48
854.64	22486.70
854.82	22523.56
854.99	22679.21
855.17	22548.14
855.34	22578.86
855.52	22638.25
855.69	22857.38
855.87	22703.78
856.04	22308.52
856.22	22560.42
856.39	22099.63
856.57	22302.38
856.74	22126.25
856.92	22415.02
857.09	22140.59
857.27	21892.79
857.44	22646.44
857.62	22417.07
857.79	22062.77
857.97	22279.85
858.14	22073.01
858.32	22136.49
858.49	22005.42
858.67	21978.80
858.84	21821.11
859.02	21927.60
859.19	21995.18
859.37	21937.84
859.54	21788.34
859.72	22083.25
859.89	21890.74
860.06	21907.12
860.24	21765.81
860.41	21714.61
860.59	21878.45
860.76	21886.64
860.94	21706.42
861.11	21954.22
861.29	21612.21
861.46	21468.86
861.64	21212.86
861.81	21360.31
861.98	21561.02
862.16	21362.36
862.33	21159.61
862.51	21251.77
862.68	21444.28
862.86	21196.48
863.03	21501.62
863.21	21427.90
863.38	21208.76
863.55	21108.41
863.73	21200.57
863.90	21155.52
864.08	20983.49
864.25	21118.65
864.43	21270.20
864.60	20987.58
864.77	20790.98
864.95	21061.31
865.12	20983.49
865.30	20983.49
865.47	20883.14
865.64	20766.40
865.82	20545.22
865.99	20967.10
866.17	20694.72
866.34	21014.21
866.51	20371.15
866.69	20829.89
866.86	20547.27
867.04	20582.09
867.21	20764.36
867.38	20551.37
867.56	20303.56
867.73	20559.56
867.91	20369.10
868.08	20262.60
868.25	20342.47
868.43	20209.36
868.60	20244.17
868.78	20240.08
868.95	20430.54
869.12	20346.57
869.30	19934.93
869.47	20274.89
869.64	20006.61
869.82	20262.60
869.99	20117.20
870.16	20221.64
870.34	20203.21
870.51	20166.35
870.69	19855.06
870.86	20117.20
871.03	20309.71
871.21	19734.23
871.38	20051.66
871.55	19875.54
871.73	19900.11
871.90	19633.88
872.07	19674.84
872.25	19623.64
872.42	19545.81
872.59	19760.85
872.77	19666.64
872.94	19906.26
873.11	19750.61
873.29	19343.06
873.46	19404.50
873.63	19394.26
873.81	19500.76
873.98	19265.24
874.15	19310.30
874.33	19046.11
874.50	19246.81
874.67	19300.06
874.85	19015.39
875.02	18947.81
875.19	18829.02
875.37	18743.01
875.54	18966.24
875.71	18833.12
875.88	18540.26
876.06	18818.78
876.23	18917.09
876.40	18740.96
876.58	18941.66
876.75	18697.95
876.92	18466.53
877.10	18816.74
877.27	18482.92
877.44	18644.71
877.61	18482.92
877.79	18583.27
877.96	18323.18
878.13	18028.27
878.31	18425.57
878.48	18214.63
878.65	18314.98
878.82	18120.43
879.00	18239.21
879.17	17977.07
879.34	18274.03
879.51	17987.31
879.69	18095.85
879.86	17917.68
880.03	18222.83
880.21	18087.66
880.38	17884.91
880.55	17966.83
880.72	17929.97
880.90	17819.38
881.07	17815.28
881.24	17856.24
881.41	17694.45
881.59	17819.38
881.76	17737.46
881.93	17688.31
882.10	17721.07
882.28	17456.89
882.45	17872.62
882.62	17534.71
882.79	17301.24
882.96	17581.81
883.14	17612.53
883.31	17821.42
883.48	17485.56
883.65	17438.45
883.83	17659.63
884.00	17280.76
884.17	17356.54
884.34	17547.00
884.51	17231.61
884.69	17331.96
884.86	17274.62
885.03	17204.99
885.20	16877.31
885.38	17315.58
885.55	17157.88
885.72	17217.27
885.89	16905.98
886.06	17092.35
886.24	17153.79
886.41	17071.87
886.58	17221.37
886.75	17311.48
886.92	16828.16
887.10	17053.44
887.27	17018.62
887.44	17049.34
887.61	17022.72
887.78	17200.89
887.95	16996.09
888.13	16760.58
888.30	16566.02
888.47	16895.74
888.64	16807.68
888.81	16695.04
888.99	16748.29
889.16	16525.06
889.33	16412.42
889.50	16645.89
889.67	16523.01
889.84	16211.72
890.01	16592.64
890.19	16486.15
890.36	16324.36
890.53	16498.44
890.70	16285.45
890.87	16455.43
891.04	16207.62
891.22	16297.74
891.39	16133.90
891.56	16107.27
891.73	16416.52
891.90	16027.40
892.07	15996.68
892.24	16019.21
892.42	16058.12
892.59	15974.16
892.76	15959.82
892.93	16019.21
893.10	16146.19
893.27	16074.51
893.44	16117.51
893.61	15791.89
893.79	16127.75
893.96	15736.59
894.13	16002.83
894.30	15937.29
894.47	15988.49
894.64	15998.73
894.81	15890.19
894.98	15867.66
895.15	16129.80
895.33	15732.50
895.50	15806.22
895.67	15888.14
895.84	15998.73
896.01	15857.42
896.18	15462.16
896.35	15937.29
896.52	15679.25
896.69	15503.12
896.86	15904.53
897.04	15822.61
897.21	15931.15
897.38	15386.39
897.55	15609.62
897.72	15736.59
897.89	15742.74
898.06	15789.84
898.23	15343.38
898.40	15599.38
898.57	15896.33
898.74	15732.50
898.91	15814.41
899.08	15507.22
899.26	15632.15
899.43	15671.06
899.60	15574.80
899.77	15501.08
899.94	15669.01
900.11	15593.23
900.28	15365.91
900.45	15494.93
900.62	15578.90
900.79	15746.83
900.96	15542.03
901.13	15570.71
901.30	15367.96
901.47	15560.47
901.64	15511.32
901.81	15773.46
901.98	15472.40
902.15	15775.50
902.32	15619.86
902.49	15697.68
902.66	15478.55
902.83	15795.98
903.01	15304.47
903.18	15634.19
903.35	15652.63
903.52	15271.70
903.69	15718.16
903.86	15738.64
904.03	15396.63
904.20	15392.53
904.37	15847.18
904.54	15367.96
904.71	15677.20
904.88	15490.84
905.05	15472.40
905.22	15456.02
905.39	15327.00
905.56	15380.25
905.73	15283.99
905.90	15439.64
906.07	15380.25
906.24	15757.07
906.41	15259.42
906.58	15439.64
906.75	15335.19
906.92	15114.01
907.09	15318.81
907.26	15513.36
907.43	15197.98
907.60	15327.00
907.77	15488.79
907.93	15490.84
908.10	15255.32
908.27	15306.52
908.44	15109.91
908.61	15298.33
908.78	15163.16
908.95	15378.20
909.12	15056.67
909.29	15288.09
909.46	15400.72
909.63	15460.12
909.80	15357.72
909.97	15281.94
910.14	15255.32
910.31	15296.28
910.48	15154.97
910.65	15396.63
910.82	15279.89
910.99	15263.51
911.16	15128.35
911.33	15273.75
911.50	15019.80
911.66	14921.50
911.83	15329.05
912.00	14880.54
912.17	14870.30
912.34	14978.84
912.51	14894.88
912.68	14815.01
912.85	14870.30
913.02	14671.65
913.19	14794.53
913.36	14894.88
913.53	14774.05
913.70	14716.70
913.86	14591.78
914.03	14757.66
914.20	14495.52
914.37	14851.87
914.54	14636.83
914.71	14659.36
914.88	14612.26
915.05	14642.98
915.22	14499.62
915.39	14487.33
915.55	14550.82
915.72	14466.85
915.89	14196.52
916.06	14303.01
916.23	14270.25
916.40	14190.38
916.57	14219.05
916.74	14292.77
916.91	13995.82
917.07	13983.53
917.24	14176.04
917.41	14034.73
917.58	13952.81
917.75	13981.48
917.92	13633.33
918.09	14061.35
918.26	13774.64
918.42	13979.43
918.59	13664.05
918.76	13524.79
918.93	13774.64
919.10	13551.41
919.27	13444.91
919.44	13616.94
919.60	13614.90
919.77	13526.83
919.94	13324.08
920.11	13469.49
920.28	13494.07
920.45	13285.17
920.61	13221.69
920.78	13090.62
920.95	13246.26
921.12	13059.90
921.29	13113.14
921.46	13121.34
921.62	12953.40
921.79	13027.13
921.96	12828.48
922.13	12998.46
922.30	12877.63
922.47	12769.09
922.63	12900.16
922.80	12764.99
922.97	12619.58
923.14	12322.63
923.31	12543.81
923.47	12443.46
923.64	12789.56
923.81	12316.48
923.98	12355.40
924.15	12230.47
924.32	12201.80
924.48	12316.48
924.65	12269.38
924.82	12091.21
924.99	12216.13
925.15	12177.22
925.32	12195.65
925.49	11837.26
925.66	11808.59
925.83	11726.67
925.99	11816.78
926.16	11900.75
926.33	11638.61
926.50	11640.65
926.67	11839.31
926.83	11673.42
927.00	11634.51
927.17	11528.02
927.34	11310.93
927.50	11519.82
927.67	11632.46
927.84	11513.68
928.01	11398.99
928.17	11122.52
928.34	11355.99
928.51	11257.68
928.68	11022.17
928.84	11079.51
929.01	10876.76
929.18	10839.90
929.35	10647.39
929.51	10911.58
929.68	10532.70
929.85	10698.59
930.02	10565.47
930.18	10686.30
930.35	10534.75
930.52	10698.59
930.69	10528.61
930.85	10542.94
931.02	10450.78
931.19	10385.25
931.36	10385.25
931.52	10487.65
931.69	10211.17
931.86	10340.19
932.02	10121.06
932.19	10108.77
932.36	10006.38
932.53	10108.77
932.69	9979.75
932.86	10162.02
933.03	9873.26
933.19	9758.57
933.36	9793.39
933.53	9906.02
933.70	9711.47
933.86	9613.17
934.03	9504.62
934.20	9432.94
934.36	9568.11
934.53	9246.58
934.70	9285.49
934.86	9275.25
935.03	9254.77
935.20	8914.81
935.36	9074.55
935.53	9004.92
935.70	8994.68
935.86	9006.97
936.03	8834.94
936.20	8736.63
936.36	8677.24
936.53	8597.37
936.70	8595.32
936.86	8554.37
937.03	8464.25
937.20	8185.73
937.36	8232.83
937.53	8025.99
937.70	8124.29
937.86	7997.32
938.03	7911.30
938.20	7907.21
938.36	7702.41
938.53	7606.16
938.70	7659.40
938.86	7575.44
939.03	7514.00
939.20	7225.23
939.36	7296.91
939.53	7198.61
939.70	7284.62
939.86	6997.91
940.03	7122.84
940.19	6936.47
940.36	6784.92
940.53	6866.84
940.69	6594.46
940.86	6604.70
941.03	6502.30
941.19	6381.47
941.36	6420.38
941.52	6381.47
941.69	6231.97
941.86	6289.31
942.02	6008.74
942.19	6094.76
942.35	6211.49
942.52	6074.28
942.69	6004.64
942.85	5828.52
943.02	5939.11
943.18	5859.24
943.35	5863.33
943.52	5748.65
943.68	5646.25
943.85	5642.15
944.01	5607.34
944.18	5550.00
944.35	5683.11
944.51	5443.50
944.68	5449.64
944.84	5455.79
945.01	5420.97
945.17	5365.68
945.34	5482.41
945.51	5511.08
945.67	5312.43
945.84	5388.21
946.00	5343.15
946.17	5294.00
946.33	5259.18
946.50	5492.65
946.67	5328.81
946.83	5377.97
947.00	5326.77
947.16	5263.28
947.33	5373.87
947.49	5263.28
947.66	5326.77
947.82	5396.40
947.99	5218.22
948.16	5343.15
948.32	5187.50
948.49	5218.22
948.65	5314.48
948.82	5275.57
948.98	5128.11
949.15	5124.02
949.31	5334.96
949.48	5244.85
949.64	5275.57
949.81	5119.92
949.97	5212.08
950.14	5369.77
950.30	5294.00
950.47	5267.38
950.63	5234.61
950.80	5228.46
950.96	5265.33
951.13	5210.03
951.30	5201.84
951.46	5222.32
951.63	5306.29
951.79	5361.58
951.96	5463.98
952.12	5191.60
952.29	5425.07
952.45	5255.09
952.62	5427.12
952.78	5406.64
952.94	5425.07
953.11	5365.68
953.27	5332.91
953.44	5402.54
953.60	5302.19
953.77	5461.93
953.93	5259.18
954.10	5431.21
954.26	5363.63
954.43	5398.45
954.59	5453.74
954.76	5478.32
954.92	5463.98
955.09	5369.77
955.25	5326.77
955.42	5361.58
955.58	5525.42
955.75	5396.40
955.91	5365.68
956.07	5496.75
956.24	5412.78
956.40	5433.26
956.57	5404.59
956.73	5461.93
956.90	5363.63
957.06	5355.44
957.23	5373.87
957.39	5298.10
957.56	5437.36
957.72	5253.04
957.88	5339.05
958.05	5496.75
958.21	5466.03
958.38	5461.93
958.54	5492.65
958.71	5519.28
958.87	5384.11
959.03	5369.77
959.20	5355.44
959.36	5345.20
959.53	5392.30
959.69	5365.68
959.85	5324.72
960.02	5558.19
960.18	5574.57
960.35	5392.30
960.51	5527.47
960.68	5334.96
960.84	5349.29
961.00	5371.82
961.17	5398.45
961.33	5470.12
961.50	5425.07
961.66	5337.01
961.82	5382.06
961.99	5488.56
962.15	5402.54
962.31	5398.45
962.48	5308.34
962.64	5547.95
962.81	5423.02
962.97	5275.57
963.13	5394.35
963.30	5472.17
963.46	5474.22
963.62	5210.03
963.79	5367.73
963.95	5312.43
964.12	5337.01
964.28	5298.10
964.44	5306.29
964.61	5361.58
964.77	5398.45
964.93	5418.93
965.10	5412.78
965.26	5265.33
965.42	5191.60
965.59	5250.99
965.75	5107.63
965.92	5349.29
966.08	5287.86
966.24	5255.09
966.41	5259.18
966.57	5185.46
966.73	5187.50
966.90	5332.91
967.06	5296.05
967.22	5171.12
967.39	5117.87
967.55	5169.07
967.71	5111.73
967.88	5207.98
968.04	5031.86
968.20	5189.55
968.37	5078.96
968.53	5097.39
968.69	5152.69
968.85	5263.28
969.02	4997.04
969.18	5072.82
969.34	5130.16
969.51	5253.04
969.67	5160.88
969.83	4962.23
970.00	5160.88
970.16	5162.93
970.32	5124.02
970.48	5029.81
970.65	4949.94
970.81	4939.70
970.97	5070.77
971.14	5038.00
971.30	5095.35
971.46	4882.36
971.63	4939.70
971.79	4972.47
971.95	5001.14
972.11	4865.97
972.28	4878.26
972.44	5085.11
972.60	4880.31
972.76	4958.13
972.93	4906.93
973.09	5054.39
973.25	4878.26
973.42	4745.14
973.58	4812.73
973.74	4851.64
973.90	4734.90
974.07	4663.22
974.23	4812.73
974.39	4868.02
974.55	4814.77
974.72	4734.90
974.88	4736.95
975.04	4755.38
975.20	4614.07
975.37	4814.77
975.53	4747.19
975.69	4743.10
975.85	4644.79
976.01	4583.35
976.18	4614.07
976.34	4626.36
976.50	4802.49
976.66	4779.96
976.83	4657.08
976.99	4618.17
977.15	4583.35
977.31	4511.68
977.47	4587.45
977.64	4554.68
977.80	4538.30
977.96	4460.48
978.12	4491.20
978.29	4526.01
978.45	4554.68
978.61	4353.98
978.77	4589.50
978.93	4431.80
979.10	4497.34
979.26	4317.12
979.42	4437.95
979.58	4351.93
979.74	4382.65
979.91	4485.05
980.07	4419.52
980.23	4372.41
980.39	4335.55
980.55	4450.24
980.71	4380.61
980.88	4341.69
981.04	4267.97
981.20	4384.70
981.36	4409.28
981.52	4394.94
981.68	4284.35
981.85	4364.22
982.01	4396.99
982.17	4366.27
982.33	4227.01
982.49	4386.75
982.65	4167.62
982.82	4202.43
982.98	4302.78
983.14	4216.77
983.30	4337.60
983.46	4179.90
983.62	4210.62
983.79	4145.09
983.95	4116.42
984.11	4016.07
984.27	4188.10
984.43	4157.38
984.59	4095.94
984.75	4179.90
984.91	4200.38
985.08	4188.10
985.24	4018.11
985.40	3911.62
985.56	4063.17
985.72	4083.65
985.88	4071.36
986.04	3954.63
986.20	3940.29
986.37	3923.91
986.53	3989.44
986.69	3936.20
986.85	3960.77
987.01	3999.68
987.17	3866.56
987.33	3891.14
987.49	3973.06
987.65	3911.62
987.82	3932.10
987.98	3973.06
988.14	3872.71
988.30	3829.70
988.46	3837.89
988.62	3882.95
988.78	3891.14
988.94	3934.15
989.10	3815.37
989.26	3805.13
989.42	3698.63
989.59	3565.51
989.75	3725.26
989.91	3815.37
990.07	3768.26
990.23	3604.42
990.39	3751.88
990.55	3796.93
990.71	3770.31
990.87	3696.58
991.03	3715.02
991.19	3571.66
991.35	3637.19
991.51	3825.61
991.67	3917.76
991.83	3731.40
992.00	3588.04
992.16	3674.06
992.32	3733.45
992.48	3696.58
992.64	3549.13
992.80	3598.28
992.96	3702.73
993.12	3782.60
993.28	3649.48
993.44	3571.66
993.60	3545.03
993.76	3567.56
993.92	3553.23
994.08	3647.43
994.24	3629.00
994.40	3495.88
994.56	3614.66
994.72	3440.59
994.88	3450.83
995.04	3516.36
995.20	3612.62
995.36	3413.96
995.52	3442.64
995.68	3481.55
995.84	3434.44
996.00	3567.56
996.16	3405.77
996.32	3481.55
996.48	3483.59
996.64	3497.93
996.80	3373.00
996.96	3444.68
997.12	3454.92
997.28	3317.71
997.44	3338.19
997.60	3446.73
997.76	3309.52
997.92	3385.29
998.08	3430.35
998.24	3196.88
998.40	3213.26
998.56	3479.50
998.72	3299.28
998.88	3241.93
999.04	3280.85
999.20	3278.80
999.36	3229.65
999.52	3370.96
999.68	3336.14
999.84	3411.92
1000.00	3286.99
1000.16	3145.68
1000.32	3192.78
1000.48	3276.75
1000.64	3074.00
1000.80	3157.97
1000.95	3192.78
1001.11	3184.59
1001.27	3155.92
1001.43	3196.88
1001.59	3121.10
1001.75	3067.86
1001.91	3278.80
1002.07	3141.58
1002.23	3117.01
1002.39	3057.62
1002.55	3067.86
1002.71	3061.71
1002.87	3074.00
1003.03	2994.13
1003.19	2977.75
1003.34	3137.49
1003.50	3012.56
1003.66	3182.54
1003.82	3059.67
1003.98	2977.75
1004.14	3016.66
1004.30	2983.89
1004.46	2977.75
1004.62	3008.47
1004.78	2922.45
1004.94	3043.28
1005.09	2910.16
1005.25	3106.77
1005.41	2944.98
1005.57	2918.36
1005.73	2957.27
1005.89	2918.36
1006.05	2975.70
1006.21	2875.35
1006.37	2867.16
1006.52	2901.97
1006.68	2830.29
1006.84	2897.88
1007.00	2789.33
1007.16	2951.12
1007.32	2873.30
1007.48	2832.34
1007.64	2854.87
1007.79	2877.40
1007.95	2770.90
1008.11	2826.20
1008.27	2793.43
1008.43	2928.60
1008.59	2721.75
1008.75	2842.58
1008.91	2781.14
1009.06	2828.24
1009.22	2764.76
1009.38	2729.94
1009.54	2775.00
1009.70	2787.29
1009.86	2760.66
1010.01	2820.05
1010.17	2740.18
1010.33	2861.01
1010.49	2789.33
1010.65	2727.89
1010.81	2723.80
1010.96	2707.41
1011.12	2631.64
1011.28	2668.50
1011.44	2717.65
1011.60	2688.98
1011.76	2637.78
1011.91	2893.78
1012.07	2652.12
1012.23	2637.78
1012.39	2578.39
1012.55	2580.44
1012.71	2678.74
1012.86	2625.50
1013.02	2586.58
1013.18	2631.64
1013.34	2611.16
1013.50	2602.97
1013.65	2590.68
1013.81	2521.05
1013.97	2568.15
1014.13	2521.05
1014.29	2564.06
1014.44	2682.84
1014.60	2590.68
1014.76	2596.82
1014.92	2564.06
1015.07	2633.69
1015.23	2613.21
1015.39	2500.57
1015.55	2529.24
1015.71	2549.72
1015.86	2494.43
1016.02	2371.55
1016.18	2394.08
1016.34	2519.00
1016.49	2465.75
1016.65	2549.72
1016.81	2514.91
1016.97	2512.86
1017.12	2588.63
1017.28	2375.64
1017.44	2465.75
1017.60	2430.94
1017.75	2498.52
1017.91	2439.13
1018.07	2441.18
1018.23	2428.89
1018.38	2328.54
1018.54	2432.99
1018.70	2439.13
1018.86	2441.18
1019.01	2363.36
1019.17	2437.08
1019.33	2562.01
1019.49	2344.92
1019.64	2359.26
1019.80	2426.84
1019.96	2396.12
1020.12	2412.51
1020.27	2346.97
1020.43	2336.73
1020.59	2404.32
1020.74	2469.85
1020.90	2410.46
1021.06	2267.10
1021.22	2447.32
1021.37	2322.40
1021.53	2248.67
1021.69	2416.60
1021.84	2195.42
1022.00	2328.54
1022.16	2189.28
1022.31	2295.77
1022.47	2236.38
1022.63	2269.15
1022.79	2250.72
1022.94	2215.90
1023.10	2408.41
1023.26	2312.16
1023.41	2267.10
1023.57	2174.94
1023.73	2234.33
1023.88	2291.68
1024.04	2185.18
1024.20	2117.60
1024.35	2275.29
1024.51	2222.05
1024.67	2199.52
1024.82	2306.01
1024.98	2176.99
1025.14	2242.53
1025.29	2269.15
1025.45	2301.92
1025.61	2109.41
1025.76	2224.09
1025.92	2211.81
1026.08	2226.14
1026.23	2123.74
1026.39	2195.42
1026.55	2129.89
1026.70	2088.93
1026.86	2232.29
1027.02	2203.61
1027.17	2179.04
1027.33	2207.71
1027.48	2117.60
1027.64	2041.82
1027.80	2088.93
1027.95	2133.98
1028.11	2037.73
1028.27	2217.95
1028.42	2154.46
1028.58	2062.30
1028.73	2047.97
1028.89	1974.24
1029.05	2191.33
1029.20	2045.92
>>>>>End Processed Spectral Data<<<<<
