SpectraSuite Data File
++++++++++++++++++++++++++++++++++++
Date: Fri Jun 02 14:49:24 CEST 2017
User: INFO_000
Dark Spectrum Present: No
Reference Spectrum Present: No
Number of Sampled Component Spectra: 1
Spectrometers: USB4H00879
Integration Time (usec): 80000 (USB4H00879)
Spectra Averaged: 1 (USB4H00879)
Boxcar Smoothing: 0 (USB4H00879)
Correct for Electrical Dark: No (USB4H00879)
Strobe/Lamp Enabled: No (USB4H00879)
Correct for Detector Non-linearity: No (USB4H00879)
Correct for Stray Light: No (USB4H00879)
Number of Pixels in Processed Spectrum: 3648
>>>>>Begin Processed Spectral Data<<<<<
345.13	1273.84
345.34	1273.84
345.56	1273.84
345.78	1273.84
345.99	1304.56
346.21	1705.96
346.42	1724.39
346.64	1675.24
346.86	1732.58
347.07	1687.53
347.29	1685.48
347.50	1638.38
347.72	1628.14
347.94	1771.49
348.15	1548.26
348.37	1540.07
348.59	1783.78
348.80	1662.95
349.02	1761.25
349.23	1859.56
349.45	1826.79
349.67	1877.99
349.88	1787.88
350.10	1990.63
350.31	1816.55
350.53	1742.82
350.75	1947.62
350.96	1679.33
351.18	1871.84
351.39	1886.18
351.61	1773.54
351.82	1937.38
352.04	1794.02
352.26	1748.97
352.47	1900.52
352.69	1875.94
352.90	1748.97
353.12	1802.21
353.34	1900.52
353.55	1822.69
353.77	1853.41
353.98	1839.08
354.20	1753.06
354.41	1880.04
354.63	1892.32
354.85	2007.01
355.06	1841.12
355.28	1789.92
355.49	1880.04
355.71	1865.70
355.92	1802.21
356.14	1880.04
356.35	1865.70
356.57	1791.97
356.79	1996.77
357.00	1765.35
357.22	1953.76
357.43	1753.06
357.65	1935.33
357.86	1912.80
358.08	1914.85
358.29	1957.86
358.51	2009.06
358.72	1937.38
358.94	1925.09
359.16	1898.47
359.37	1890.28
359.59	1914.85
359.80	1978.34
360.02	1949.67
360.23	1978.34
360.45	1994.72
360.66	1845.22
360.88	1771.49
361.09	1974.24
361.31	1851.36
361.52	1947.62
361.74	1986.53
361.95	2062.30
362.17	1949.67
362.38	2052.06
362.60	2066.40
362.81	1961.95
363.03	2007.01
363.24	2023.39
363.46	2086.88
363.67	1935.33
363.89	1933.28
364.10	1929.19
364.32	1978.34
364.53	1945.57
364.75	1941.47
364.96	1902.56
365.18	2056.16
365.39	1884.13
365.61	1937.38
365.82	2150.37
366.04	1939.43
366.25	1961.95
366.47	2170.85
366.68	1978.34
366.90	1988.58
367.11	2090.98
367.33	2103.26
367.54	2064.35
367.76	2015.20
367.97	2107.36
368.19	1976.29
368.40	2088.93
368.62	1877.99
368.83	1992.67
369.05	2043.87
369.26	1998.82
369.48	1988.58
369.69	1916.90
369.91	2093.02
370.12	2027.49
370.33	2095.07
370.55	1961.95
370.76	2007.01
370.98	2097.12
371.19	1974.24
371.41	1955.81
371.62	2025.44
371.84	2029.54
372.05	2203.61
372.27	2039.78
372.48	2113.50
372.69	2074.59
372.91	2138.08
373.12	2179.04
373.34	2060.26
373.55	2181.09
373.77	2123.74
373.98	2045.92
374.20	2105.31
374.41	2254.81
374.62	2058.21
374.84	2140.13
375.05	2133.98
375.27	2172.89
375.48	2119.65
375.70	2097.12
375.91	2215.90
376.12	2197.47
376.34	2117.60
376.55	2133.98
376.77	2152.42
376.98	2076.64
377.19	2148.32
377.41	2105.31
377.62	2164.70
377.84	2291.68
378.05	2316.25
378.27	2119.65
378.48	2314.20
378.69	2371.55
378.91	2195.42
379.12	2197.47
379.34	2250.72
379.55	2260.96
379.76	2273.25
379.98	2289.63
380.19	2283.49
380.41	2308.06
380.62	2285.53
380.83	2156.51
381.05	2258.91
381.26	2379.74
381.47	2303.96
381.69	2389.98
381.90	2375.64
382.12	2285.53
382.33	2236.38
382.54	2242.53
382.76	2297.82
382.97	2326.49
383.19	2160.61
383.40	2389.98
383.61	2271.20
383.83	2256.86
384.04	2334.68
384.25	2318.30
384.47	2314.20
384.68	2326.49
384.89	2328.54
385.11	2361.31
385.32	2369.50
385.54	2349.02
385.75	2351.07
385.96	2338.78
386.18	2451.42
386.39	2281.44
386.60	2385.88
386.82	2459.61
387.03	2367.45
387.24	2469.85
387.46	2402.27
387.67	2402.27
387.88	2533.34
388.10	2519.00
388.31	2408.41
388.52	2545.63
388.74	2365.40
388.95	2463.71
389.16	2469.85
389.38	2484.19
389.59	2508.76
389.80	2609.11
390.02	2527.19
390.23	2596.82
390.44	2510.81
390.66	2555.86
390.87	2402.27
391.08	2473.95
391.30	2691.03
391.51	2627.54
391.72	2705.37
391.94	2562.01
392.15	2566.10
392.36	2590.68
392.58	2580.44
392.79	2625.50
393.00	2736.09
393.22	2750.42
393.43	2727.89
393.64	2744.28
393.85	2682.84
394.07	2654.17
394.28	2697.17
394.49	2674.65
394.71	2699.22
394.92	2863.06
395.13	2682.84
395.35	2754.52
395.56	2639.83
395.77	2723.80
395.98	2801.62
396.20	2879.44
396.41	2852.82
396.62	2840.53
396.84	2930.64
397.05	2727.89
397.26	2858.96
397.47	2981.84
397.69	2834.39
397.90	2959.31
398.11	2957.27
398.32	2807.77
398.54	2879.44
398.75	2830.29
398.96	3100.62
399.18	3053.52
399.39	2830.29
399.60	2985.94
399.81	3000.27
400.03	2926.55
400.24	3229.65
400.45	3069.91
400.66	3106.77
400.88	3061.71
401.09	3026.90
401.30	2996.18
401.51	3160.02
401.73	3141.58
401.94	3164.11
402.15	3108.82
402.36	3102.67
402.58	3121.10
402.79	3164.11
403.00	3186.64
403.21	3131.34
403.43	3168.21
403.64	3254.22
403.85	3129.30
404.06	3117.01
404.27	3082.19
404.49	3174.35
404.70	3168.21
404.91	3272.65
405.12	3241.93
405.34	3229.65
405.55	3375.05
405.76	3178.45
405.97	3135.44
406.19	3336.14
406.40	3213.26
406.61	3323.85
406.82	3231.69
407.03	3346.38
407.25	3305.42
407.46	3430.35
407.67	3307.47
407.88	3436.49
408.09	3317.71
408.31	3399.63
408.52	3346.38
408.73	3383.24
408.94	3303.37
409.15	3416.01
409.37	3424.20
409.58	3403.72
409.79	3403.72
410.00	3571.66
410.21	3473.36
410.43	3407.82
410.64	3338.19
410.85	3493.83
411.06	3542.99
411.27	3485.64
411.48	3485.64
411.70	3551.18
411.91	3542.99
412.12	3639.24
412.33	3559.37
412.54	3493.83
412.76	3731.40
412.97	3604.42
413.18	3571.66
413.39	3616.71
413.60	3678.15
413.81	3657.67
414.03	3579.85
414.24	3532.75
414.45	3745.73
414.66	3583.95
414.87	3770.31
415.08	3715.02
415.30	3737.54
415.51	3743.69
415.72	3692.49
415.93	3780.55
416.14	3846.09
416.35	3841.99
416.56	3741.64
416.78	3788.74
416.99	3694.54
417.20	3778.50
417.41	3786.69
417.62	3868.61
417.83	3948.48
418.04	3835.85
418.26	3934.15
418.47	3975.11
418.68	4016.07
418.89	3940.29
419.10	4106.18
419.31	3958.72
419.52	4077.51
419.73	3966.92
419.95	4095.94
420.16	3868.61
420.37	3993.54
420.58	4218.82
420.79	3813.32
421.00	4138.94
421.21	4106.18
421.42	3985.35
421.63	4128.70
421.85	4095.94
422.06	4208.58
422.27	4184.00
422.48	4177.86
422.69	4321.21
422.90	4267.97
423.11	4085.70
423.32	4194.24
423.53	4270.01
423.75	4300.73
423.96	4607.93
424.17	4308.93
424.38	4425.66
424.59	4493.24
424.80	4497.34
425.01	4429.76
425.22	4423.61
425.43	4394.94
425.64	4566.97
425.85	4628.41
426.06	4532.15
426.28	4575.16
426.49	4456.38
426.70	4550.59
426.91	4485.05
427.12	4673.46
427.33	4595.64
427.54	4523.96
427.75	4648.89
427.96	4825.01
428.17	4743.10
428.38	4708.28
428.59	4825.01
428.80	4638.65
429.01	4816.82
429.23	4739.00
429.44	5099.44
429.65	4921.27
429.86	5023.67
430.07	4865.97
430.28	4788.15
430.49	5052.34
430.70	5060.53
430.91	5207.98
431.12	4968.37
431.33	5064.63
431.54	5265.33
431.75	5228.46
431.96	5089.20
432.17	5017.52
432.38	5201.84
432.59	5281.71
432.80	5197.74
433.01	5271.47
433.22	5232.56
433.43	5138.35
433.64	5015.48
433.85	5201.84
434.06	5416.88
434.27	5234.61
434.49	5334.96
434.70	5273.52
434.91	5412.78
435.12	5570.48
435.33	5509.04
435.54	5527.47
435.75	5226.42
435.96	5367.73
436.17	5365.68
436.38	5525.42
436.59	5660.59
436.80	5486.51
437.01	5785.51
437.22	5842.85
437.43	5621.67
437.64	5511.08
437.85	5760.94
438.06	5810.09
438.27	5451.69
438.48	5660.59
438.69	5730.22
438.90	5681.07
439.11	5650.35
439.32	5775.27
439.53	5685.16
439.74	5748.65
439.95	5746.60
440.16	5883.81
440.37	5824.42
440.57	5713.83
440.78	6086.56
440.99	5930.92
441.20	5978.02
441.41	5892.01
441.62	6033.32
441.83	5640.11
442.04	5998.50
442.25	6037.41
442.46	6143.91
442.67	6125.47
442.88	6424.48
443.09	6010.79
443.30	6023.08
443.51	5902.25
443.72	6375.33
443.93	6018.98
444.14	6535.07
444.35	6059.94
444.56	6248.35
444.77	6254.50
444.98	6320.03
445.19	6358.94
445.40	6240.16
445.61	6274.98
445.81	6459.29
446.02	6510.49
446.23	6356.90
446.44	6201.25
446.65	6571.93
446.86	6438.81
447.07	6465.44
447.28	6672.28
447.49	6698.91
447.70	6487.96
447.91	6711.19
448.12	6596.51
448.33	6600.60
448.54	6733.72
448.74	6684.57
448.95	6842.26
449.16	6541.21
449.37	7098.26
449.58	6639.51
449.79	6965.14
450.00	6604.70
450.21	6815.64
450.42	7085.97
450.63	6913.94
450.84	6926.23
451.05	6999.96
451.25	6963.09
451.46	6776.73
451.67	7118.74
451.88	7268.24
452.09	7139.22
452.30	7178.13
452.51	7036.82
452.72	7088.02
452.93	7499.66
453.13	7053.20
453.34	7137.17
453.55	7204.75
453.76	7262.10
453.97	7636.88
454.18	7387.02
454.39	7632.78
454.60	7360.40
454.81	7481.23
455.01	7645.07
455.22	7470.99
455.43	7540.62
455.64	7899.02
455.85	7749.51
456.06	7931.78
456.27	7784.33
456.48	7692.17
456.68	7868.30
456.89	7712.65
457.10	7890.82
457.31	7982.98
457.52	7905.16
457.73	8118.15
457.94	8310.66
458.14	8046.47
458.35	8447.87
458.56	8214.40
458.77	8081.28
458.98	8259.46
459.19	8300.42
459.39	8337.28
459.60	8550.27
459.81	8288.13
460.02	8374.14
460.23	8277.89
460.44	8736.63
460.65	8685.44
460.85	8624.00
461.06	8615.80
461.27	8517.50
461.48	9004.92
461.69	8777.59
461.89	8609.66
462.10	8759.16
462.31	8718.20
462.52	8699.77
462.73	8744.83
462.94	9039.73
463.14	8902.52
463.35	8931.19
463.56	9473.90
463.77	9455.47
463.98	9179.00
464.18	9301.87
464.39	9385.84
464.60	9592.69
464.81	9391.98
465.02	9533.29
465.23	9566.06
465.43	9469.81
465.64	9617.26
465.85	9658.22
466.06	9656.17
466.27	10078.05
466.47	9842.54
466.68	10102.63
466.89	9949.03
467.10	10022.76
467.30	9777.00
467.51	10143.59
467.72	10381.15
467.93	9828.20
468.14	10211.17
468.34	10565.47
468.55	10465.12
468.76	10274.66
468.97	10280.80
469.17	10585.95
469.38	10526.56
469.59	10909.53
469.80	10618.72
470.01	10645.34
470.21	10823.51
470.42	11093.85
470.63	11036.50
470.84	10872.67
471.04	11132.76
471.25	11183.96
471.46	11190.10
471.67	11403.09
471.87	11347.79
472.08	11491.15
472.29	11611.98
472.50	11329.36
472.70	11538.26
472.91	11513.68
473.12	11786.06
473.33	11870.03
473.53	12107.59
473.74	12033.86
473.95	12140.36
474.16	12293.96
474.36	12050.25
474.57	12422.98
474.78	12386.12
474.99	12404.55
475.19	12345.16
475.40	12889.92
475.61	12711.74
475.81	13010.75
476.02	12957.50
476.23	12961.59
476.44	13016.89
476.64	13422.39
476.85	13459.25
477.06	13119.29
477.27	13594.42
477.47	13539.12
477.68	13727.53
477.89	13868.84
478.09	13776.69
478.30	13887.28
478.51	13979.43
478.71	14151.46
478.92	14012.20
479.13	14274.34
479.34	14585.63
479.54	14479.14
479.75	14389.03
479.96	14389.03
480.16	14675.74
480.37	14815.01
480.58	15021.85
480.78	14935.84
480.99	15152.92
481.20	15511.32
481.41	15169.30
481.61	15527.70
481.82	15505.17
482.03	15513.36
482.23	15445.78
482.44	15626.00
482.65	15769.36
482.85	15910.67
483.06	15998.73
483.27	16025.36
483.47	15929.10
483.68	16549.64
483.89	16258.82
484.09	16332.55
484.30	16445.19
484.51	16873.21
484.71	16862.97
484.92	16781.06
485.13	16885.50
485.33	17024.76
485.54	17082.11
485.75	17450.74
485.95	17493.75
486.16	17473.27
486.37	17405.69
486.57	17444.60
486.78	17331.96
486.98	17575.67
487.19	17762.03
487.40	17737.46
487.60	17819.38
487.81	18339.56
488.02	17807.09
488.22	17964.78
488.43	18280.17
488.64	18493.16
488.84	18179.82
489.05	18824.93
489.25	18566.88
489.46	18896.61
489.67	18898.66
489.87	19052.25
490.08	18919.14
490.29	19123.93
490.49	19363.54
490.70	19347.16
490.90	19394.26
491.11	19349.21
491.32	19719.89
491.52	19680.98
491.73	19717.84
491.94	19621.59
492.14	19758.80
492.35	20098.77
492.55	20135.63
492.76	20199.12
492.97	20334.28
493.17	19992.27
493.38	20416.20
493.58	20686.53
493.79	20547.27
494.00	20473.54
494.20	20559.56
494.41	20752.07
494.61	20809.41
494.82	20930.24
495.02	20903.62
495.23	20950.72
495.44	21653.17
495.64	21575.35
495.85	21429.94
496.05	21569.21
496.26	21286.59
496.47	21604.02
496.67	21507.77
496.88	21843.63
497.08	21522.10
497.29	21968.56
497.49	21831.35
497.70	21956.27
497.91	22019.76
498.11	22412.97
498.32	22374.06
498.52	22355.63
498.73	22720.17
498.93	22675.11
499.14	22345.39
499.34	22609.58
499.55	22924.96
499.76	22582.95
499.96	22668.97
500.17	22845.09
500.37	22990.50
500.58	22937.25
500.78	23103.14
500.99	23641.75
501.19	23412.38
501.40	23213.73
501.60	23125.66
501.81	23420.57
502.02	23608.98
502.22	23439.00
502.43	23520.92
502.63	23885.46
502.84	23871.12
503.04	23864.98
503.25	23824.02
503.45	23912.08
503.66	24080.02
503.86	24184.46
504.07	24645.26
504.27	24272.53
504.48	24505.99
504.68	24194.70
504.89	24561.29
505.09	24688.26
505.30	24403.60
505.50	24620.68
505.71	24454.79
505.91	24721.03
506.12	25230.98
506.32	24641.16
506.53	24610.44
506.73	25155.20
506.94	24903.30
507.14	25294.46
507.35	25159.30
507.55	24972.93
507.76	25278.08
507.96	25175.68
508.17	25456.25
508.37	25370.24
508.58	25634.42
508.78	25319.04
508.99	25839.22
509.19	25620.09
509.40	25464.44
509.60	25745.02
509.81	25886.32
510.01	25542.27
510.22	25736.82
510.42	25949.81
510.63	26205.81
510.83	26199.66
511.04	26187.38
511.24	25853.56
511.44	26412.65
511.65	26441.32
511.85	26353.26
512.06	26257.01
512.26	26480.24
512.47	26728.04
512.67	26701.42
512.88	26377.84
513.08	26457.71
513.29	26639.98
513.49	26656.36
513.69	26709.61
513.90	26758.76
514.10	26730.09
514.31	27133.54
514.51	27149.92
514.72	26887.78
514.92	27485.79
515.13	27233.89
515.33	27258.46
515.53	27166.31
515.74	27305.57
515.94	27491.93
516.15	27819.61
516.35	27655.77
516.56	27600.47
516.76	27772.50
516.96	27487.84
517.17	27885.14
517.37	27915.86
517.58	28206.67
517.78	28116.56
517.99	27956.82
518.19	28194.39
518.39	28259.92
518.60	28393.04
518.80	28413.52
519.01	28483.15
519.21	28681.80
519.41	28444.24
519.62	28610.12
519.82	28825.16
520.03	28614.22
520.23	28915.27
520.43	29013.57
520.64	29271.62
520.84	28962.37
521.05	29275.71
521.25	29326.91
521.45	29799.99
521.66	29498.94
521.86	29554.24
522.07	29341.25
522.27	29570.62
522.47	29427.26
522.68	29623.87
522.88	29814.33
523.08	30158.39
523.29	30082.61
523.49	30021.17
523.70	29986.36
523.90	30268.98
524.10	30131.76
524.31	30457.39
524.51	30121.52
524.71	30864.94
524.92	30719.53
525.12	30856.75
525.33	31053.35
525.53	30996.01
525.73	31499.81
525.94	31129.12
526.14	31241.76
526.34	31096.36
526.55	31333.92
526.75	31421.98
526.95	31487.52
527.16	31143.46
527.36	31317.54
527.56	31751.71
527.77	31974.94
527.97	32065.05
528.17	32085.53
528.38	32155.16
528.58	31850.01
528.78	32390.67
528.99	32257.56
529.19	32642.57
529.39	32183.83
529.60	32884.23
529.80	32611.85
530.00	32478.74
530.21	32927.24
530.41	32873.99
530.61	32943.63
530.82	33003.02
531.02	33177.09
531.22	33242.63
531.43	33097.22
531.63	33240.58
531.83	33897.98
532.04	33826.30
532.24	33488.38
532.44	33809.92
532.64	33914.36
532.85	34211.32
533.05	33908.22
533.25	34203.13
533.46	34311.67
533.66	34444.79
533.86	34092.54
534.07	34647.54
534.27	34508.27
534.47	34848.24
534.67	34715.12
534.88	34790.89
535.08	34887.15
535.28	35137.00
535.49	34964.97
535.69	35470.82
535.89	35429.86
536.09	35442.15
536.30	35755.49
536.50	35542.50
536.70	35728.86
536.91	35513.83
537.11	35630.56
537.31	35816.93
537.51	36185.56
537.72	36218.33
537.92	36173.27
538.12	36437.46
538.32	36191.70
538.53	36431.32
538.73	36165.08
538.93	36255.19
539.13	36386.26
539.34	36406.74
539.54	36750.80
539.74	36916.68
539.94	36711.89
540.15	36498.90
540.35	37025.23
540.55	36935.12
540.75	36873.68
540.96	37203.40
541.16	37154.25
541.36	37295.56
541.56	37094.86
541.77	37404.10
541.97	37426.63
542.17	37772.74
542.37	38108.60
542.58	37629.38
542.78	37379.53
542.98	37424.58
543.18	37494.21
543.38	38237.62
543.59	38122.94
543.79	38100.41
543.99	38116.79
544.19	38120.89
544.40	37885.37
544.60	38516.15
544.80	38391.22
545.00	38710.71
545.20	38639.03
545.41	38448.57
545.61	38188.47
545.81	38651.31
546.01	39032.24
546.21	38692.27
546.42	38813.10
546.62	39022.00
546.82	39009.71
547.02	39069.10
547.22	39187.88
547.43	39019.95
547.63	39187.88
547.83	39114.16
548.03	39198.12
548.23	39142.83
548.44	39114.16
548.64	39159.21
548.84	39755.17
549.04	39339.43
549.24	39533.99
549.45	39882.14
549.65	39368.10
549.85	39757.22
550.05	40013.21
550.25	39572.90
550.45	40234.39
550.66	39919.01
550.86	39556.52
551.06	40138.14
551.26	39890.34
551.46	40265.11
551.66	40269.21
551.87	40093.08
552.07	40369.56
552.27	40431.00
552.47	40150.43
552.67	41037.20
552.87	40072.60
553.07	40398.23
553.28	40590.74
553.48	40746.39
553.68	40590.74
553.88	41237.90
554.08	40990.09
554.28	40963.47
554.48	41135.50
554.69	41010.57
554.89	40926.61
555.09	41088.40
555.29	41055.63
555.49	41260.43
555.69	41285.00
555.89	41319.82
556.10	41407.88
556.30	41198.99
556.50	41405.83
556.70	41170.32
556.90	41729.41
557.10	41557.38
557.30	41694.60
557.50	41690.50
557.70	42040.70
557.91	42143.10
558.11	41979.26
558.31	41880.96
558.51	41661.83
558.71	42046.85
558.91	42096.00
559.11	42100.09
559.31	42208.64
559.51	41672.07
559.72	42091.90
559.92	42261.88
560.12	42149.24
560.32	42423.67
560.52	42296.70
560.72	42503.54
560.92	42718.58
561.12	42806.64
561.32	43136.37
561.52	42624.37
561.72	42997.10
561.93	42399.10
562.13	43083.12
562.33	42452.34
562.53	43160.94
562.73	42532.22
562.93	42947.95
563.13	43036.02
563.33	42837.36
563.53	43322.73
563.73	43021.68
563.93	42923.38
564.13	43292.01
564.33	43359.59
564.53	43380.07
564.74	43693.41
564.94	42941.81
565.14	43382.12
565.34	43447.66
565.54	43611.49
565.74	43695.46
565.94	43457.90
566.14	43152.75
566.34	43206.00
566.54	43814.24
566.74	43808.10
566.94	44070.24
567.14	43959.65
567.34	43369.83
567.54	43998.56
567.74	43627.88
567.94	44047.71
568.14	44008.80
568.34	44213.60
568.54	44213.60
568.74	44352.86
568.94	44594.52
569.14	44973.39
569.34	44062.05
569.54	44438.87
569.75	44193.12
569.95	44305.76
570.15	44858.71
570.35	44678.49
570.55	44422.49
570.75	44809.56
570.95	44643.67
571.15	45008.21
571.35	44584.28
571.55	44606.81
571.75	45065.55
571.95	44885.33
572.15	44518.74
572.35	45387.08
572.55	45335.88
572.75	44918.10
572.95	45196.62
573.15	45385.04
573.35	44805.46
573.55	44954.96
573.75	45208.91
573.95	45393.23
574.15	45598.02
574.35	45602.12
574.55	45157.71
574.75	45305.16
574.95	45991.23
575.15	45104.46
575.34	45854.02
575.54	45751.62
575.74	46167.36
575.94	46142.78
576.14	45518.15
576.34	45968.71
576.54	46224.70
576.74	46265.66
576.94	45471.05
577.14	46421.31
577.34	46335.29
577.54	46093.63
577.74	46587.19
577.94	46443.84
578.14	46329.15
578.34	46425.40
578.54	45968.71
578.74	46378.30
578.94	47123.76
579.14	46509.37
579.34	46615.86
579.54	46619.96
579.74	47121.71
579.94	46662.97
580.13	46757.17
580.33	46869.81
580.53	46890.29
580.73	47400.24
580.93	46783.80
581.13	47281.45
581.33	47154.48
581.53	47197.49
581.73	47349.04
581.93	47320.37
582.13	47582.51
582.33	47441.20
582.53	47144.24
582.73	47594.79
582.92	47748.39
583.12	47938.85
583.32	47654.18
583.52	47027.51
583.72	47945.00
583.92	47824.17
584.12	47357.23
584.32	48067.87
584.52	47850.79
584.72	48112.93
584.92	47904.04
585.11	48319.77
585.31	47875.37
585.51	48241.95
585.71	48264.48
585.91	48256.29
586.11	48098.59
586.31	48348.45
586.51	48088.35
586.71	48180.51
586.91	48432.41
587.10	48407.84
587.30	48633.11
587.50	49048.85
587.70	48401.69
587.90	48074.02
588.10	48938.26
588.30	48708.89
588.50	48805.14
588.69	48934.17
588.89	48686.36
589.09	48602.39
589.29	49235.22
589.49	49145.11
589.69	48706.84
589.89	49091.86
590.08	48491.80
590.28	49018.13
590.48	48846.10
590.68	48809.24
590.88	48848.15
591.08	48964.88
591.28	48700.70
591.47	49372.43
591.67	49235.22
591.87	49304.85
592.07	49419.53
592.27	49237.26
592.47	49399.05
592.67	49321.23
592.86	49032.47
593.06	49155.35
593.26	49595.66
593.46	49562.89
593.66	49630.47
593.86	49591.56
594.05	49837.32
594.25	49616.14
594.45	49325.33
594.65	49816.84
594.85	49476.88
595.05	49814.79
595.24	50164.99
595.44	49648.91
595.64	49784.07
595.84	49732.87
596.04	50072.84
596.23	50121.99
596.43	50345.22
596.63	50085.12
596.83	50208.00
597.03	50568.44
597.22	50689.27
597.42	50515.20
597.62	50525.44
597.82	50928.89
598.02	50484.48
598.21	50679.03
598.41	49923.33
598.61	50433.28
598.81	50560.25
599.01	50599.16
599.20	50558.20
599.40	50593.02
599.60	51066.10
599.80	51019.00
600.00	50853.11
600.19	51025.14
600.39	50924.79
600.59	51545.33
600.79	51764.46
600.98	51174.64
601.18	51363.06
601.38	51035.38
601.58	51623.15
601.78	51698.92
601.97	51373.30
602.17	51668.20
602.37	51410.16
602.57	51469.55
602.76	51829.99
602.96	51393.78
603.16	51967.21
603.36	51629.29
603.55	52092.13
603.75	51758.31
603.95	51928.30
604.15	52016.36
604.34	51705.07
604.54	52110.56
604.74	52145.38
604.94	51977.45
605.13	51729.64
605.33	52538.59
605.53	52145.38
605.73	52718.81
605.92	52217.06
606.12	52554.97
606.32	52413.66
606.52	52428.00
606.71	52561.12
606.91	52546.78
607.11	52679.90
607.30	52884.70
607.50	52845.79
607.70	52968.66
607.90	52894.94
608.09	52626.65
608.29	53128.41
608.49	53286.10
608.68	52876.51
608.88	53550.29
609.08	53019.86
609.28	53269.72
609.47	52833.50
609.67	53738.70
609.87	53298.39
610.06	53523.66
610.26	53578.96
610.46	53525.71
610.66	53376.21
610.85	53595.34
611.05	53572.81
611.25	53892.30
611.44	53216.47
611.64	53691.60
611.84	53351.63
612.03	53703.88
612.23	53847.24
612.43	54093.00
612.62	53466.32
612.82	54117.57
613.02	53732.56
613.21	53769.42
613.41	53800.14
613.61	53826.76
613.80	53738.70
614.00	53955.78
614.20	53994.70
614.39	54222.02
614.59	54332.61
614.79	54162.63
614.98	53923.02
615.18	54002.89
615.38	53988.55
615.57	54437.06
615.77	54398.15
615.97	54357.19
616.16	53923.02
616.36	53900.49
616.56	54537.41
616.75	54322.37
616.95	53826.76
617.15	54187.21
617.34	54600.89
617.54	54189.25
617.74	54850.75
617.93	54561.98
618.13	54394.05
618.32	54641.85
618.52	54394.05
618.72	54469.82
618.91	54412.48
619.11	54262.98
619.31	54559.94
619.50	54260.93
619.70	54176.97
619.90	54484.16
620.09	54103.24
620.29	54490.30
620.48	54531.26
620.68	55063.74
620.88	54000.84
621.07	54432.96
621.27	54723.77
621.46	54584.51
621.66	54731.96
621.86	54654.14
622.05	54342.85
622.25	55336.12
622.44	54744.25
622.64	54269.12
622.84	54441.15
623.03	54490.30
623.23	54445.25
623.42	54392.00
623.62	54539.46
623.82	54994.10
624.01	54674.62
624.21	54408.39
624.40	54674.62
624.60	54533.31
624.80	54662.33
624.99	54629.57
625.19	54289.60
625.38	55413.94
625.58	54863.03
625.77	54586.56
625.97	54764.73
626.17	54424.77
626.36	54582.46
626.56	55352.50
626.75	54117.57
626.95	54766.78
627.14	54650.05
627.34	55215.29
627.54	54539.46
627.73	54820.03
627.93	54805.69
628.12	54392.00
628.32	54246.60
628.51	54568.13
628.71	54805.69
628.90	54660.29
629.10	54738.11
629.30	54990.01
629.49	54990.01
629.69	54854.84
629.88	54838.46
630.08	55139.51
630.27	55262.39
630.47	54621.37
630.66	55211.19
630.86	55116.98
631.05	54774.97
631.25	55317.68
631.44	55194.81
631.64	54973.63
631.84	55225.53
632.03	55342.26
632.23	54926.52
632.42	55405.75
632.62	55338.16
632.81	54883.51
633.01	54936.76
633.20	55051.45
633.40	54920.38
633.59	55092.41
633.79	55106.74
633.98	55424.18
634.18	55088.31
634.37	54934.71
634.57	55315.64
634.76	55121.08
634.96	54619.33
635.15	54994.10
635.35	55157.94
635.54	54971.58
635.74	55049.40
635.93	54854.84
636.13	55246.00
636.32	55301.30
636.52	55022.78
636.71	54820.03
636.91	55596.21
637.10	55284.92
637.30	55348.40
637.49	55510.19
637.69	55178.42
637.88	55327.92
638.08	54871.23
638.27	55495.86
638.46	55006.39
638.66	55012.54
638.85	55116.98
639.05	55162.04
639.24	54854.84
639.44	55014.58
639.63	55624.88
639.83	55057.59
640.02	55248.05
640.22	55067.83
640.41	55524.53
640.61	54684.86
640.80	54934.71
640.99	55411.89
641.19	55403.70
641.38	55348.40
641.58	54965.43
641.77	55116.98
641.97	54537.41
642.16	55241.91
642.36	55456.95
642.55	55372.98
642.74	55084.22
642.94	55635.12
643.13	54998.20
643.33	55325.88
643.52	55499.95
643.72	55616.69
643.91	55096.50
644.10	55467.19
644.30	55678.13
644.49	55246.00
644.69	55751.85
644.88	55493.81
645.08	54981.82
645.27	55475.38
645.46	55110.84
645.66	55473.33
645.85	55106.74
646.05	55905.45
646.24	55407.79
646.43	55426.23
646.63	55856.30
646.82	55657.65
647.02	55506.10
647.21	55702.70
647.40	55571.63
647.60	55301.30
647.79	55592.11
647.99	55678.13
648.18	55391.41
648.37	56153.26
648.57	55633.07
648.76	55401.65
648.96	55196.85
649.15	55391.41
649.34	55473.33
649.54	55512.24
649.73	55841.96
649.92	55655.60
650.12	55309.49
650.31	55805.10
650.51	55903.40
650.70	55997.61
650.89	55301.30
651.09	56067.24
651.28	55491.76
651.47	55633.07
651.67	55923.88
651.86	55940.27
652.06	54932.67
652.25	55250.10
652.44	55606.45
652.64	55530.67
652.83	55579.82
653.02	55309.49
653.22	55676.08
653.41	54967.48
653.60	55129.27
653.80	55141.56
653.99	55680.17
654.18	55778.48
654.38	55184.57
654.57	55653.55
654.76	55645.36
654.96	55514.29
655.15	55121.08
655.34	54994.10
655.54	55155.89
655.73	55461.04
655.92	55850.16
656.12	55534.77
656.31	55721.13
656.50	55706.80
656.70	55053.50
656.89	55526.58
657.08	55583.92
657.28	55463.09
657.47	55461.04
657.66	55506.10
657.86	55315.64
658.05	55280.82
658.24	55870.64
658.43	55358.64
658.63	55581.87
658.82	55835.82
659.01	55827.63
659.21	55729.33
659.40	55485.62
659.59	55499.95
659.79	55784.62
659.98	55590.06
660.17	55739.57
660.36	55973.03
660.56	55702.70
660.75	56087.72
660.94	55915.69
661.14	55465.14
661.33	55950.51
661.52	55641.26
661.71	56013.99
661.91	55596.21
662.10	55291.06
662.29	55772.33
662.49	55653.55
662.68	55946.41
662.87	55649.45
663.06	55739.57
663.26	55657.65
663.45	56198.31
663.64	55514.29
663.83	56210.60
664.03	55997.61
664.22	55923.88
664.41	55868.59
664.60	55706.80
664.80	55835.82
664.99	55970.99
665.18	55622.83
665.37	55479.47
665.57	55598.26
665.76	55827.63
665.95	55366.84
666.14	55440.56
666.34	55999.66
666.53	55645.36
666.72	55491.76
666.91	55450.80
667.11	55669.93
667.30	55823.53
667.49	55594.16
667.68	55149.75
667.87	55581.87
668.07	55776.43
668.26	55721.13
668.45	55686.32
668.64	55506.10
668.84	56013.99
669.03	55530.67
669.22	55602.35
669.41	55628.98
669.60	55770.28
669.80	55702.70
669.99	55852.20
670.18	55510.19
670.37	55950.51
670.57	56040.62
670.76	55641.26
670.95	56038.57
671.14	56001.71
671.33	55841.96
671.53	56179.88
671.72	56134.82
671.91	55835.82
672.10	55493.81
672.29	56077.48
672.48	55624.88
672.68	55979.18
672.87	55835.82
673.06	56108.20
673.25	55778.48
673.44	55917.74
673.64	55743.66
673.83	55907.50
674.02	55866.54
674.21	55762.09
674.40	55801.00
674.59	55694.51
674.79	55579.82
674.98	55575.73
675.17	55788.72
675.36	55805.10
675.55	55549.10
675.74	55391.41
675.94	55694.51
676.13	56087.72
676.32	56028.33
676.51	56067.24
676.70	56319.14
676.89	56183.97
677.08	55981.23
677.28	55528.62
677.47	56491.17
677.66	56095.91
677.85	56151.21
678.04	55975.08
678.23	56263.85
678.42	56259.75
678.62	55997.61
678.81	56554.66
679.00	55801.00
679.19	56517.79
679.38	56077.48
679.57	55833.77
679.76	56220.84
679.96	56143.02
680.15	55975.08
680.34	55846.06
680.53	56145.06
680.72	56304.80
680.91	55768.24
681.10	55749.81
681.29	56239.27
681.48	55981.23
681.68	55901.36
681.87	55868.59
682.06	55897.26
682.25	55772.33
682.44	56057.00
682.63	56112.30
682.82	55669.93
683.01	55399.60
683.20	55219.38
683.39	55981.23
683.59	55846.06
683.78	55915.69
683.97	55465.14
684.16	55555.25
684.35	55698.61
684.54	55581.87
684.73	55727.28
684.92	55473.33
685.11	55796.91
685.30	55559.34
685.49	56036.52
685.69	55547.06
685.88	55540.91
686.07	55712.94
686.26	55743.66
686.45	55827.63
686.64	55934.12
686.83	55612.59
687.02	55723.18
687.21	56120.49
687.40	55325.88
687.59	55555.25
687.78	55530.67
687.97	55551.15
688.16	55997.61
688.35	55301.30
688.54	55649.45
688.74	55588.02
688.93	55383.22
689.12	55149.75
689.31	55862.44
689.50	55841.96
689.69	55235.77
689.88	55121.08
690.07	55473.33
690.26	55624.88
690.45	55813.29
690.64	55395.51
690.83	55452.85
691.02	54926.52
691.21	55088.31
691.40	55219.38
691.59	55342.26
691.78	54779.07
691.97	55616.69
692.16	55420.08
692.35	55497.91
692.54	54940.86
692.73	55362.74
692.92	55180.47
693.11	55278.77
693.30	55571.63
693.49	55506.10
693.68	55295.16
693.87	55053.50
694.06	55080.12
694.25	55076.02
694.44	55174.33
694.63	55555.25
694.82	55469.23
695.01	55280.82
695.20	54914.23
695.39	54928.57
695.58	54899.90
695.77	54738.11
695.96	54680.77
696.15	54963.39
696.34	54881.47
696.53	54617.28
696.72	55227.57
696.91	55039.16
697.10	54867.13
697.29	55209.14
697.48	54848.70
697.67	54510.78
697.86	54658.24
698.05	54572.22
698.24	55295.16
698.43	54498.50
698.62	54828.22
698.81	54275.27
699.00	54854.84
699.19	54580.42
699.38	54514.88
699.57	54504.64
699.76	55096.50
699.95	54523.07
700.14	54768.83
700.32	53933.26
700.51	54736.06
700.70	54701.25
700.89	54500.54
701.08	54668.48
701.27	54498.50
701.46	54179.01
701.65	53761.23
701.84	54262.98
702.03	53925.07
702.22	54082.76
702.41	53769.42
702.60	54248.64
702.79	53593.29
702.98	53748.94
703.17	54127.81
703.35	53771.47
703.54	53427.41
703.73	54367.43
703.92	53859.53
704.11	53970.12
704.30	54023.37
704.49	53730.51
704.68	53380.31
704.87	53529.81
705.06	53439.70
705.25	53314.77
705.43	53607.63
705.62	53546.19
705.81	53677.26
706.00	53497.04
706.19	53091.54
706.38	53052.63
706.57	53134.55
706.76	53083.35
706.95	53191.89
707.14	53255.38
707.32	52872.41
707.51	53124.31
707.70	52761.82
707.89	52985.05
708.08	52872.41
708.27	53345.49
708.46	53294.29
708.65	52839.64
708.84	52993.24
709.02	52999.38
709.21	53056.73
709.40	52745.44
709.59	53064.92
709.78	52679.90
709.97	53013.72
710.16	52452.58
710.34	52677.85
710.53	53077.21
710.72	51993.83
710.91	52411.62
711.10	52495.58
711.29	52016.36
711.48	52202.72
711.66	52382.94
711.85	52124.90
712.04	52405.47
712.23	52763.87
712.42	52296.93
712.61	52384.99
712.80	52020.45
712.98	52473.06
713.17	51795.18
713.36	52325.60
713.55	51748.07
713.74	51985.64
713.93	51690.73
714.11	51754.22
714.30	51500.27
714.49	51721.45
714.68	51909.86
714.87	51553.52
715.06	51510.51
715.24	51723.50
715.43	51516.65
715.62	51455.21
715.81	50777.34
716.00	51999.97
716.18	50822.39
716.37	51012.85
716.56	50693.37
716.75	51223.79
716.94	51258.61
717.12	50978.04
717.31	51453.17
717.50	50795.77
717.69	51137.78
717.88	50918.65
718.06	51279.09
718.25	51080.44
718.44	50734.33
718.63	51184.88
718.82	50304.26
719.00	50789.62
719.19	50164.99
719.38	50437.37
719.57	50001.16
719.76	49876.23
719.94	49753.35
720.13	49446.16
720.32	50009.35
720.51	49804.55
720.69	49601.80
720.88	49941.77
721.07	49980.68
721.26	49476.88
721.44	49816.84
721.63	49421.58
721.82	49263.89
722.01	49444.11
722.20	49878.28
722.38	49628.43
722.57	49145.11
722.76	49313.04
722.95	48837.91
723.13	49016.08
723.32	48551.20
723.51	48704.79
723.70	48618.78
723.88	48723.22
724.07	48762.14
724.26	49011.99
724.44	48473.37
724.63	48774.42
724.82	48796.95
725.01	48549.15
725.19	48626.97
725.38	48342.30
725.57	48354.59
725.76	48246.05
725.94	47764.78
726.13	48016.68
726.32	48055.59
726.51	47844.65
726.69	48330.01
726.88	48307.49
727.07	48282.91
727.25	48219.42
727.44	47750.44
727.63	47715.62
727.82	48059.68
728.00	47992.10
728.19	47695.14
728.38	47756.58
728.56	47461.68
728.75	47815.97
728.94	47672.62
729.12	47961.38
729.31	47490.35
729.50	47858.98
729.69	48194.85
729.87	47901.99
730.06	47430.96
730.25	47693.10
730.43	47576.36
730.62	47519.02
730.81	47830.31
730.99	47887.65
731.18	47574.31
731.37	47494.44
731.55	47899.94
731.74	47871.27
731.93	47140.14
732.11	47519.02
732.30	47363.37
732.49	47789.35
732.67	47506.73
732.86	47461.68
733.05	47691.05
733.23	47551.79
733.42	47701.29
733.61	47146.29
733.79	47637.80
733.98	47867.17
734.17	47392.04
734.35	47174.96
734.54	47361.33
734.73	47699.24
734.91	47334.70
735.10	47074.61
735.29	47504.68
735.47	47041.84
735.66	47293.74
735.84	46957.88
736.03	47013.17
736.22	47361.33
736.40	47441.20
736.59	47152.43
736.78	46859.57
736.96	46787.89
737.15	46775.61
737.33	47203.63
737.52	46908.72
737.71	46683.45
737.89	46779.70
738.08	46435.64
738.27	46282.05
738.45	47074.61
738.64	46452.03
738.82	46703.93
739.01	46863.67
739.20	46642.49
739.38	46685.50
739.57	46947.64
739.75	46935.35
739.94	47017.27
740.13	46804.28
740.31	46611.77
740.50	46441.79
740.68	46138.69
740.87	46390.59
741.06	46585.15
741.24	46179.65
741.43	46011.71
741.61	46734.65
741.80	45929.80
741.99	46112.06
742.17	45964.61
742.36	46187.84
742.54	46503.23
742.73	46318.91
742.91	45980.99
743.10	45849.92
743.29	46048.58
743.47	46044.48
743.66	46167.36
743.84	46212.41
744.03	46011.71
744.21	46169.41
744.40	46140.74
744.59	46026.05
744.77	45980.99
744.96	45968.71
745.14	45741.38
745.33	46034.24
745.51	45923.65
745.70	45856.07
745.88	46089.54
746.07	45638.98
746.26	45374.80
746.44	45360.46
746.63	45552.97
746.81	45989.19
747.00	45937.99
747.18	46294.33
747.37	45540.68
747.55	45851.97
747.74	45614.41
747.92	45348.17
748.11	45407.56
748.29	45118.80
748.48	45684.04
748.66	45462.86
748.85	45356.36
749.03	45204.81
749.22	45798.73
749.41	45217.10
749.59	45561.16
749.78	45276.49
749.96	44967.25
750.15	45075.79
750.33	45239.63
750.52	45073.74
750.70	45053.26
750.89	45176.14
751.07	45000.02
751.26	45008.21
751.44	44696.92
751.63	44946.77
751.81	44766.55
752.00	44883.28
752.18	45122.90
752.37	44762.45
752.55	44907.86
752.74	44731.73
752.92	44533.08
753.10	44782.93
753.29	44684.63
753.47	44508.50
753.66	43830.63
753.84	44877.14
754.03	44539.22
754.21	44488.03
754.40	44598.62
754.58	44559.70
754.77	44469.59
754.95	44299.61
755.14	44176.73
755.32	44465.50
755.51	44137.82
755.69	44277.08
755.88	44160.35
756.06	44270.94
756.24	43808.10
756.43	44182.88
756.61	44201.31
756.80	44053.86
756.98	43935.07
757.17	43914.59
757.35	43955.55
757.54	43793.76
757.72	44103.01
757.90	43799.91
758.09	43773.28
758.27	44084.58
758.46	43763.04
758.64	43804.00
758.83	44051.81
759.01	44086.62
759.19	43689.32
759.38	43961.70
759.56	44148.06
759.75	43609.45
759.93	43457.90
760.12	43601.25
760.30	43740.52
760.48	43619.69
760.67	43533.67
760.85	43773.28
761.04	43531.62
761.22	43765.09
761.40	43388.27
761.59	43521.38
761.77	43382.12
761.96	43523.43
762.14	43541.86
762.32	43289.96
762.51	42995.06
762.69	43439.47
762.88	43042.16
763.06	43296.11
763.24	43185.52
763.43	43373.93
763.61	43165.04
763.80	42947.95
763.98	42958.19
764.16	43298.16
764.35	42814.83
764.53	42651.00
764.72	42669.43
764.90	43031.92
765.08	42579.32
765.27	42739.06
765.45	42675.57
765.63	42585.46
765.82	42841.46
766.00	42278.27
766.18	42286.46
766.37	42648.95
766.55	42351.99
766.74	42743.16
766.92	42571.13
767.10	42227.07
767.29	42118.53
767.47	41946.50
767.65	42270.08
767.84	42059.13
768.02	42165.63
768.20	41999.74
768.39	42249.60
768.57	42630.52
768.75	42208.64
768.94	42296.70
769.12	42399.10
769.30	42034.56
769.49	42091.90
769.67	41811.33
769.85	41692.55
770.04	41637.25
770.22	41676.16
770.40	41358.73
770.59	41270.67
770.77	41524.61
770.95	41657.73
771.14	41444.74
771.32	41170.32
771.50	41002.38
771.69	40969.61
771.87	41561.48
772.05	41674.12
772.24	41461.13
772.42	41285.00
772.60	41444.74
772.78	41002.38
772.97	40897.94
773.15	41198.99
773.33	41137.55
773.52	41321.87
773.70	41375.11
773.88	41311.63
774.07	40801.68
774.25	41006.48
774.43	41422.22
774.61	40838.54
774.80	41131.40
774.98	41295.24
775.16	40910.22
775.34	41012.62
775.53	40750.48
775.71	41278.86
775.89	40932.75
776.08	41203.08
776.26	41422.22
776.44	41141.64
776.62	41090.44
776.81	41254.28
776.99	41518.47
777.17	41627.01
777.35	41538.95
777.54	41739.65
777.72	41538.95
777.90	41260.43
778.08	41416.07
778.27	41344.39
778.45	41594.25
778.63	41975.17
778.81	41276.81
779.00	42071.42
779.18	41704.84
779.36	42040.70
779.54	41645.44
779.73	41721.22
779.91	41909.63
780.09	41792.90
780.27	41856.39
780.46	41928.06
780.64	42333.56
780.82	41854.34
781.00	41872.77
781.19	42409.34
781.37	42022.27
781.55	42165.63
781.73	42677.62
781.91	42057.09
782.10	42007.94
782.28	42091.90
782.46	42249.60
782.64	42212.73
782.82	41971.07
783.01	42333.56
783.19	42282.36
783.37	42126.72
783.55	42194.30
783.74	42702.20
783.92	42222.97
784.10	42741.11
784.28	42472.82
784.46	41964.93
784.64	42167.68
784.83	42403.19
785.01	42556.79
785.19	42124.67
785.37	42323.32
785.55	42249.60
785.74	41948.54
785.92	42204.54
786.10	42302.84
786.28	41809.28
786.46	42182.01
786.64	41665.92
786.83	42100.09
787.01	42225.02
787.19	41928.06
787.37	41805.19
787.55	42173.82
787.74	41788.80
787.92	41663.88
788.10	41745.80
788.28	41303.43
788.46	41823.62
788.64	41147.79
788.82	42067.33
789.01	41221.52
789.19	41612.68
789.37	41287.05
789.55	41530.76
789.73	41260.43
789.91	41014.67
790.09	41067.92
790.28	41057.68
790.46	40867.22
790.64	40945.04
790.82	40981.90
791.00	40191.39
791.18	40840.59
791.36	40564.12
791.55	40508.82
791.73	40672.66
791.91	39892.38
792.09	40408.47
792.27	40410.52
792.45	40056.22
792.63	40261.02
792.81	39765.41
793.00	39783.84
793.18	39878.05
793.36	39656.87
793.54	39765.41
793.72	39626.15
793.90	39622.05
794.08	39536.04
794.26	39531.94
794.44	39298.47
794.62	38890.93
794.81	39091.63
794.99	39318.95
795.17	39241.13
795.35	38770.10
795.53	39222.70
795.71	39046.57
795.89	38618.55
796.07	38079.93
796.25	38542.77
796.43	38573.49
796.61	37946.81
796.80	38094.27
796.98	38086.07
797.16	37864.89
797.34	38180.28
797.52	38098.36
797.70	38454.71
797.88	38043.07
798.06	37580.23
798.24	37615.04
798.42	37912.00
798.60	37488.07
798.78	37129.67
798.96	37678.53
799.14	37295.56
799.32	37105.10
799.51	36926.92
799.69	37082.57
799.87	36949.45
800.05	36615.63
800.23	36879.82
800.41	36500.95
800.59	36879.82
800.77	36359.64
800.95	36195.80
801.13	36451.80
801.31	36238.81
801.49	36177.37
801.67	35935.71
801.85	35802.59
802.03	35519.97
802.21	35741.15
802.39	35554.79
802.57	35651.04
802.75	35442.15
802.93	35585.50
803.11	35362.28
803.29	35335.65
803.47	34821.61
803.65	35362.28
803.83	35251.69
804.01	34872.81
804.19	34438.64
804.37	34625.01
804.55	34620.91
804.73	34649.58
804.91	34479.60
805.09	34780.65
805.27	34489.84
805.45	34477.55
805.63	34180.60
805.81	34276.85
805.99	34186.74
806.17	34452.98
806.35	34256.37
806.53	33764.86
806.71	33906.17
806.89	34135.54
807.07	33828.35
807.25	34104.82
807.43	33541.63
807.61	34117.11
807.79	33275.40
807.97	33152.52
808.15	33340.93
808.33	33005.06
808.51	32937.48
808.69	32716.30
808.87	32568.85
809.05	33105.41
809.23	32540.18
809.41	32300.56
809.59	32540.18
809.77	32951.82
809.95	32460.30
810.13	32732.68
810.31	32615.95
810.49	32540.18
810.67	32398.87
810.84	32491.02
811.02	32247.32
811.20	31839.77
811.38	32130.58
811.56	31919.64
811.74	31821.34
811.92	31274.53
812.10	31860.25
812.28	31764.00
812.46	31671.84
812.64	31749.66
812.82	31483.42
813.00	31606.30
813.18	31456.80
813.36	31419.94
813.53	31481.38
813.71	31032.87
813.89	30967.34
814.07	31272.48
814.25	31333.92
814.43	30445.10
814.61	30996.01
814.79	30909.99
814.97	30883.37
815.15	30993.96
815.33	30352.94
815.50	30504.49
815.68	30729.77
815.86	30772.78
816.04	30424.62
816.22	30477.87
816.40	30213.68
816.58	30232.11
816.76	30488.11
816.94	29961.78
817.11	30113.33
817.29	30109.24
817.47	29879.86
817.65	30125.62
817.83	29920.82
818.01	29695.55
818.19	29894.20
818.37	29537.85
818.54	29660.73
818.72	29562.43
818.90	29658.68
819.08	29656.64
819.26	29777.47
819.44	29335.10
819.62	29298.24
819.80	29312.58
819.97	28948.04
820.15	29017.67
820.33	28655.18
820.51	29120.07
820.69	28864.07
820.87	29081.16
821.05	29085.25
821.22	28571.21
821.40	28722.76
821.58	28726.86
821.76	28581.45
821.94	28331.60
822.12	28485.20
822.29	28585.55
822.47	28386.89
822.65	28630.60
822.83	28579.40
823.01	28335.70
823.19	28042.84
823.36	28188.24
823.54	28483.15
823.72	27897.43
823.90	27995.73
824.08	27924.05
824.25	28395.09
824.43	27649.63
824.61	27919.96
824.79	28130.90
824.97	27833.94
825.15	27612.76
825.32	28046.93
825.50	27643.48
825.68	27555.42
825.86	27489.88
826.04	27557.47
826.21	27536.99
826.39	27326.05
826.57	27555.42
826.75	27516.51
826.93	27385.44
827.10	27244.13
827.28	27340.38
827.46	27586.14
827.64	27160.16
827.81	27020.90
827.99	27129.44
828.17	27317.86
828.35	27059.81
828.53	27229.79
828.70	26687.08
828.88	26877.54
829.06	26945.12
829.24	27043.43
829.41	26494.57
829.59	27047.52
829.77	27000.42
829.95	26517.10
830.12	26572.39
830.30	26738.28
830.48	26664.55
830.66	26553.96
830.84	26531.44
831.01	26445.42
831.19	26445.42
831.37	26375.79
831.55	26191.47
831.72	26101.36
831.90	26310.25
832.08	25968.24
832.25	25998.96
832.43	26138.23
832.61	25747.06
832.79	25845.37
832.96	26039.92
833.14	26076.79
833.32	25970.29
833.50	26052.21
833.67	26091.12
833.85	25880.18
834.03	25763.45
834.20	25800.31
834.38	25728.63
834.56	25927.28
834.74	25564.79
834.91	25734.78
835.09	25597.56
835.27	25218.69
835.44	25257.60
835.62	24938.12
835.80	25214.59
835.98	25628.28
836.15	25585.27
836.33	25370.24
836.51	25640.57
836.68	25347.71
836.86	25140.86
837.04	25343.61
837.21	24999.55
837.39	25523.83
837.57	25480.83
837.75	25198.21
837.92	24688.26
838.10	24805.00
838.28	25009.79
838.45	25032.32
838.63	24913.54
838.81	24835.72
838.98	25069.19
839.16	24348.30
839.34	24624.78
839.51	24692.36
839.69	24555.15
839.87	24626.82
840.04	24317.58
840.22	24602.25
840.40	24313.48
840.57	24278.67
840.75	24254.09
840.93	23989.91
841.10	24407.69
841.28	24686.22
841.46	24172.18
841.63	24741.51
841.81	24479.37
841.98	24293.01
842.16	24489.61
842.34	24612.49
842.51	23944.85
842.69	24358.54
842.87	24221.33
843.04	24225.42
843.22	24241.81
843.40	23989.91
843.57	23783.06
843.75	23973.52
843.92	24080.02
844.10	24028.82
844.28	24096.40
844.45	24266.38
844.63	23998.10
844.81	24026.77
844.98	24106.64
845.16	23598.74
845.33	23801.49
845.51	23875.22
845.69	23727.77
845.86	23408.28
846.04	23522.97
846.21	23596.70
846.39	23279.26
846.57	23367.32
846.74	23623.32
846.92	23451.29
847.09	23608.98
847.27	23248.54
847.45	23631.51
847.62	23821.97
847.80	23414.43
847.97	23496.35
848.15	23520.92
848.32	23254.69
848.50	23232.16
848.68	22972.07
848.85	23049.89
849.03	22965.92
849.20	23279.26
849.38	23051.94
849.56	23127.71
849.73	22613.67
849.91	22898.34
850.08	23094.94
850.26	22949.54
850.43	23219.87
850.61	23031.46
850.78	22439.59
850.96	22988.45
851.14	22800.04
851.31	22734.50
851.49	22646.44
851.66	22773.41
851.84	22693.54
852.01	22738.60
852.19	22560.42
852.36	22554.28
852.54	22556.33
852.71	22468.27
852.89	22740.64
853.07	22365.87
853.24	22552.23
853.42	22720.17
853.59	22591.14
853.77	22466.22
853.94	22611.62
854.12	22267.56
854.29	22095.53
854.47	22202.03
854.64	22331.05
854.82	22265.52
854.99	22218.41
855.17	22310.57
855.34	22386.35
855.52	22394.54
855.69	22269.61
855.87	21794.48
856.04	22009.52
856.22	21997.23
856.39	22136.49
856.57	22204.08
856.74	21827.25
856.92	22070.96
857.09	21939.89
857.27	21823.16
857.44	21685.94
857.62	21806.77
857.79	22085.30
857.97	21958.32
858.14	22027.95
858.32	21919.41
858.49	21614.26
858.67	21612.21
858.84	21653.17
859.02	21677.75
859.19	21749.43
859.37	21462.71
859.54	21620.41
859.72	21739.19
859.89	21632.69
860.06	21866.16
860.24	21241.53
860.41	21288.64
860.59	21438.14
860.76	21397.18
860.94	21075.65
861.11	21614.26
861.29	21567.16
861.46	21210.81
861.64	21153.47
861.81	20956.86
861.98	21141.18
862.16	20926.14
862.33	21135.04
862.51	21085.89
862.68	21245.63
862.86	20797.12
863.03	21243.58
863.21	21046.97
863.38	20889.28
863.55	21221.05
863.73	21026.50
863.90	21010.11
864.08	21049.02
864.25	21063.36
864.43	21018.30
864.60	20623.05
864.77	20618.95
864.95	20876.99
865.12	20446.92
865.30	20518.60
865.47	20704.96
865.64	20627.14
865.82	20907.71
865.99	20784.83
866.17	20866.75
866.34	20674.24
866.51	20416.20
866.69	20621.00
866.86	20410.06
867.04	20639.43
867.21	20434.63
867.38	20442.82
867.56	20522.69
867.73	20315.85
867.91	20395.72
868.08	20346.57
868.25	20176.59
868.43	20356.81
868.60	20088.53
868.78	19928.78
868.95	20057.81
869.12	19863.25
869.30	20055.76
869.47	20088.53
869.64	19723.99
869.82	19810.00
869.99	19939.02
870.16	20057.81
870.34	19760.85
870.51	20192.97
870.69	19826.39
870.86	19889.87
871.03	19941.07
871.21	19810.00
871.38	19730.13
871.55	19527.38
871.73	19676.88
871.90	19623.64
872.07	19494.61
872.25	19250.91
872.42	19453.66
872.59	19447.51
872.77	19361.50
872.94	19388.12
873.11	19455.70
873.29	19318.49
873.46	19525.33
873.63	19279.58
873.81	19214.04
873.98	19138.27
874.15	18994.91
874.33	18564.84
874.50	18773.73
874.67	19007.20
874.85	18753.25
875.02	18894.56
875.19	18702.05
875.37	18812.64
875.54	18538.21
875.71	18818.78
875.88	18859.74
876.06	18792.16
876.23	18513.64
876.40	18622.18
876.58	18444.01
876.75	18540.26
876.92	18433.77
877.10	18790.11
877.27	18562.79
877.44	18495.21
877.61	18151.15
877.79	18294.50
877.96	18136.81
878.13	18376.42
878.31	18198.25
878.48	18042.60
878.65	18102.00
878.82	17833.71
879.00	17944.30
879.17	17876.72
879.34	18128.62
879.51	17964.78
879.69	17874.67
879.86	17641.20
880.03	18110.19
880.21	17647.35
880.38	17854.19
880.55	17852.14
880.72	17825.52
880.90	17968.88
881.07	17753.84
881.24	17790.70
881.41	17723.12
881.59	17491.70
881.76	17575.67
881.93	17499.89
882.10	17733.36
882.28	17712.88
882.45	17579.76
882.62	17430.26
882.79	17633.01
882.96	17264.38
883.14	17526.52
883.31	17630.96
883.48	17417.97
883.65	17217.27
883.83	17510.13
884.00	17526.52
884.17	17260.28
884.34	17207.03
884.51	17317.62
884.69	17317.62
884.86	17090.30
885.03	17114.87
885.20	16805.63
885.38	17172.22
885.55	16955.13
885.72	17159.93
885.89	16994.04
886.06	17331.96
886.24	17094.40
886.41	16801.54
886.58	17157.88
886.75	17436.41
886.92	16766.72
887.10	17436.41
887.27	16803.58
887.44	16951.04
887.61	16985.85
887.78	17047.29
887.95	16697.09
888.13	16772.86
888.30	16807.68
888.47	16502.53
888.64	16889.60
888.81	16658.18
888.99	16574.21
889.16	16461.57
889.33	16416.52
889.50	16578.31
889.67	16568.07
889.84	16480.00
890.01	16496.39
890.19	16240.39
890.36	16680.71
890.53	16457.48
890.70	16224.01
890.87	16244.49
891.04	16404.23
891.22	16312.07
891.39	16391.94
891.56	16228.10
891.73	15877.90
891.90	16365.32
892.07	16058.12
892.24	15888.14
892.42	16082.70
892.59	16119.56
892.76	15970.06
892.93	15990.54
893.10	15998.73
893.27	15980.30
893.44	15746.83
893.61	15863.57
893.79	16019.21
893.96	15888.14
894.13	15894.29
894.30	16035.60
894.47	16168.71
894.64	15894.29
894.81	15699.73
894.98	15687.44
895.15	15955.72
895.33	15863.57
895.50	15750.93
895.67	15916.81
895.84	15480.60
896.01	15871.76
896.18	15501.08
896.35	15943.44
896.52	15664.91
896.69	15503.12
896.86	15394.58
897.04	15535.89
897.21	15855.37
897.38	15626.00
897.55	15644.43
897.72	15724.30
897.89	15748.88
898.06	15806.22
898.23	15806.22
898.40	15640.34
898.57	15845.13
898.74	15865.61
898.91	15685.39
899.08	15623.95
899.26	15593.23
899.43	15626.00
899.60	15511.32
899.77	15597.33
899.94	15408.92
900.11	15433.49
900.28	15499.03
900.45	15685.39
900.62	15544.08
900.79	15615.76
900.96	15566.61
901.13	15648.53
901.30	15511.32
901.47	15388.44
901.64	15607.57
901.81	15765.26
901.98	15439.64
902.15	15691.54
902.32	15273.75
902.49	15748.88
902.66	15607.57
902.83	15353.62
903.01	15712.02
903.18	15501.08
903.35	15474.45
903.52	15126.30
903.69	15810.32
903.86	15736.59
904.03	15236.89
904.20	15294.23
904.37	15576.85
904.54	15623.95
904.71	15556.37
904.88	15349.53
905.05	15521.56
905.22	15437.59
905.39	15398.68
905.56	15294.23
905.73	15171.35
905.90	15738.64
906.07	15382.29
906.24	15413.01
906.41	15261.46
906.58	15466.26
906.75	15499.03
906.92	15167.26
907.09	15200.02
907.26	15660.82
907.43	15175.45
907.60	15103.77
907.77	15496.98
907.93	15306.52
908.10	15259.42
908.27	15597.33
908.44	15144.73
908.61	15208.22
908.78	15157.02
908.95	15374.10
909.12	15226.65
909.29	15175.45
909.46	15214.36
909.63	15390.49
909.80	15372.05
909.97	15343.38
910.14	15271.70
910.31	15054.62
910.48	15064.86
910.65	15521.56
910.82	15148.82
910.99	15232.79
911.16	14997.28
911.33	14872.35
911.50	15085.34
911.66	14954.27
911.83	15081.24
912.00	14929.69
912.17	14577.44
912.34	14905.12
912.51	14511.91
912.68	14698.27
912.85	14810.91
913.02	14841.63
913.19	14733.09
913.36	14657.31
913.53	14962.46
913.70	14710.56
913.86	14907.16
914.03	14788.38
914.20	14571.30
914.37	14606.11
914.54	14571.30
914.71	14563.11
914.88	14403.36
915.05	14323.49
915.22	14231.33
915.39	14454.56
915.55	14749.47
915.72	14595.87
915.89	14210.86
916.06	14407.46
916.23	14139.18
916.40	14102.31
916.57	14116.65
916.74	13971.24
916.91	13969.19
917.07	13803.31
917.24	13784.88
917.41	14004.01
917.58	13862.70
917.75	13707.05
917.92	13895.47
918.09	13860.65
918.26	13856.56
918.42	14073.64
918.59	13709.10
918.76	13512.50
918.93	13485.87
919.10	13471.54
919.27	13432.63
919.44	13594.42
919.60	13356.85
919.77	13420.34
919.94	13240.12
920.11	13289.27
920.28	13444.91
920.45	13186.87
920.61	13180.73
920.78	13092.66
920.95	13186.87
921.12	12996.41
921.29	13000.51
921.46	12869.44
921.62	12840.76
921.79	12900.16
921.96	12726.08
922.13	12928.83
922.30	12791.61
922.47	12812.09
922.63	12629.82
922.80	12603.20
922.97	12564.29
923.14	12390.21
923.31	12547.90
923.47	12259.14
923.64	12523.33
923.81	12093.26
923.98	12396.35
924.15	12183.37
924.32	12197.70
924.48	12242.76
924.65	12410.69
924.82	12023.62
924.99	11835.21
925.15	11712.33
925.32	11997.00
925.49	11677.52
925.66	11816.78
925.83	11640.65
925.99	11669.33
926.16	11568.98
926.33	11712.33
926.50	11519.82
926.67	11700.05
926.83	11632.46
927.00	11583.31
927.17	11349.84
927.34	11437.91
927.50	11327.32
927.67	11456.34
927.84	11108.18
928.01	11274.07
928.17	11018.07
928.34	11140.95
928.51	11061.08
928.68	10909.53
928.84	11122.52
929.01	10925.91
929.18	10831.71
929.35	10766.17
929.51	10815.32
929.68	10561.37
929.85	10680.16
930.02	10596.19
930.18	10655.58
930.35	10436.45
930.52	10725.21
930.69	10477.41
930.85	10444.64
931.02	10311.52
931.19	10332.00
931.36	10229.60
931.52	10196.84
931.69	10291.04
931.86	10037.09
932.02	9885.55
932.19	10012.52
932.36	9754.48
932.53	10090.34
932.69	9983.85
932.86	10110.82
933.03	9811.82
933.19	9652.08
933.36	9770.86
933.53	9705.32
933.70	9498.48
933.86	9715.56
934.03	9510.77
934.20	9252.72
934.36	9514.86
934.53	9197.43
934.70	9160.56
934.86	9250.67
935.03	9154.42
935.20	9095.03
935.36	9086.84
935.53	8959.86
935.70	8945.53
935.86	8902.52
936.03	8816.51
936.20	8517.50
936.36	8669.05
936.53	8601.47
936.70	8583.04
936.86	8306.56
937.03	8251.27
937.20	8079.24
937.36	8368.00
937.53	7847.82
937.70	7933.83
937.86	7815.05
938.03	7858.06
938.20	7813.00
938.36	7702.41
938.53	7796.62
938.70	7409.55
938.86	7325.58
939.03	7415.69
939.20	7247.76
939.36	7255.95
939.53	7075.73
939.70	7380.88
939.86	6905.75
940.03	6893.46
940.19	6748.06
940.36	6807.45
940.53	6817.69
940.69	6473.63
940.86	6561.69
941.03	6508.44
941.19	6508.44
941.36	6442.91
941.52	6279.07
941.69	6250.40
941.86	6199.20
942.02	6049.70
942.19	6168.48
942.35	6090.66
942.52	5865.38
942.69	5836.71
942.85	5715.88
943.02	5799.85
943.18	5883.81
943.35	5732.26
943.52	5599.15
943.68	5644.20
943.85	5719.98
944.01	5679.02
944.18	5599.15
944.35	5547.95
944.51	5441.45
944.68	5361.58
944.84	5435.31
945.01	5511.08
945.17	5496.75
945.34	5304.24
945.51	5367.73
945.67	5384.11
945.84	5441.45
946.00	5271.47
946.17	5232.56
946.33	5246.90
946.50	5345.20
946.67	5298.10
946.83	5390.25
947.00	5377.97
947.16	5285.81
947.33	5349.29
947.49	5156.79
947.66	5121.97
947.82	5347.25
947.99	5224.37
948.16	5212.08
948.32	5113.78
948.49	5294.00
948.65	5175.22
948.82	5234.61
948.98	5179.31
949.15	5074.87
949.31	5230.51
949.48	5240.75
949.64	5357.49
949.81	5187.50
949.97	5171.12
950.14	5244.85
950.30	5257.14
950.47	5248.94
950.63	5349.29
950.80	5248.94
950.96	5291.95
951.13	5304.24
951.30	5289.90
951.46	5236.66
951.63	5398.45
951.79	5242.80
951.96	5349.29
952.12	5343.15
952.29	5343.15
952.45	5324.72
952.62	5197.74
952.78	5404.59
952.94	5361.58
953.11	5269.42
953.27	5124.02
953.44	5445.55
953.60	5289.90
953.77	5332.91
953.93	5205.94
954.10	5345.20
954.26	5308.34
954.43	5261.23
954.59	5435.31
954.76	5375.92
954.92	5300.14
955.09	5357.49
955.25	5255.09
955.42	5386.16
955.58	5537.71
955.75	5529.52
955.91	5224.37
956.07	5361.58
956.24	5300.14
956.40	5447.60
956.57	5480.36
956.73	5416.88
956.90	5377.97
957.06	5386.16
957.23	5451.69
957.39	5226.42
957.56	5308.34
957.72	5171.12
957.88	5296.05
958.05	5392.30
958.21	5392.30
958.38	5418.93
958.54	5390.25
958.71	5394.35
958.87	5480.36
959.03	5386.16
959.20	5359.53
959.36	5361.58
959.53	5246.90
959.69	5267.38
959.85	5468.08
960.02	5275.57
960.18	5420.97
960.35	5377.97
960.51	5466.03
960.68	5250.99
960.84	5451.69
961.00	5382.06
961.17	5238.70
961.33	5357.49
961.50	5279.66
961.66	5400.49
961.82	5345.20
961.99	5296.05
962.15	5269.42
962.31	5316.53
962.48	5187.50
962.64	5353.39
962.81	5326.77
962.97	5291.95
963.13	5398.45
963.30	5373.87
963.46	5359.53
963.62	5298.10
963.79	5306.29
963.95	5210.03
964.12	5300.14
964.28	5207.98
964.44	5183.41
964.61	5363.63
964.77	5248.94
964.93	5466.03
965.10	5140.40
965.26	5230.51
965.42	5296.05
965.59	5312.43
965.75	5136.31
965.92	5113.78
966.08	5255.09
966.24	5210.03
966.41	5146.55
966.57	5171.12
966.73	5263.28
966.90	5304.24
967.06	5246.90
967.22	5035.96
967.39	5218.22
967.55	5040.05
967.71	5076.91
967.88	5025.72
968.04	5070.77
968.20	5119.92
968.37	5040.05
968.53	5189.55
968.69	5099.44
968.85	5113.78
969.02	4976.56
969.18	5128.11
969.34	5007.28
969.51	5099.44
969.67	5052.34
969.83	5007.28
970.00	5158.83
970.16	4999.09
970.32	4904.89
970.48	5130.16
970.65	4958.13
970.81	4865.97
970.97	5083.06
971.14	4884.41
971.30	4945.84
971.46	4763.58
971.63	4976.56
971.79	4984.76
971.95	4913.08
972.11	4913.08
972.28	4878.26
972.44	4960.18
972.60	4792.25
972.76	4802.49
972.93	4847.54
973.09	4861.88
973.25	4931.51
973.42	4937.65
973.58	4794.29
973.74	4728.76
973.90	4792.25
974.07	4757.43
974.23	4720.57
974.39	4825.01
974.55	4761.53
974.72	4816.82
974.88	4655.03
975.04	4739.00
975.20	4782.01
975.37	4652.98
975.53	4802.49
975.69	4630.46
975.85	4677.56
976.01	4677.56
976.18	4591.55
976.34	4605.88
976.50	4681.66
976.66	4614.07
976.83	4728.76
976.99	4614.07
977.15	4464.57
977.31	4517.82
977.47	4579.26
977.64	4583.35
977.80	4560.83
977.96	4597.69
978.12	4573.11
978.29	4417.47
978.45	4497.34
978.61	4515.77
978.77	4642.75
978.93	4501.44
979.10	4583.35
979.26	4403.13
979.42	4583.35
979.58	4491.20
979.74	4419.52
979.91	4483.00
980.07	4212.67
980.23	4341.69
980.39	4351.93
980.55	4419.52
980.71	4460.48
980.88	4280.25
981.04	4259.78
981.20	4335.55
981.36	4249.54
981.52	4448.19
981.68	4222.91
981.85	4333.50
982.01	4241.34
982.17	4251.58
982.33	4212.67
982.49	4437.95
982.65	4204.48
982.82	4229.06
982.98	4274.11
983.14	4214.72
983.30	4169.66
983.46	4304.83
983.62	4224.96
983.79	4022.21
983.95	4136.90
984.11	4014.02
984.27	4077.51
984.43	4245.44
984.59	4104.13
984.75	4231.10
984.91	4014.02
985.08	4161.47
985.24	4009.92
985.40	3989.44
985.56	4085.70
985.72	4147.14
985.88	4042.69
986.04	3975.11
986.20	4104.13
986.37	4048.83
986.53	3983.30
986.69	3958.72
986.85	3966.92
987.01	4065.22
987.17	4030.40
987.33	3997.64
987.49	3948.48
987.65	3899.33
987.82	3889.09
987.98	3833.80
988.14	3887.04
988.30	3905.48
988.46	3856.33
988.62	3848.13
988.78	3815.37
988.94	3878.85
989.10	3758.02
989.26	3811.27
989.42	3770.31
989.59	3805.13
989.75	3835.85
989.91	3868.61
990.07	3755.97
990.23	3715.02
990.39	3647.43
990.55	3788.74
990.71	3667.91
990.87	3698.63
991.03	3815.37
991.19	3846.09
991.35	3653.58
991.51	3737.54
991.67	3706.82
991.83	3651.53
992.00	3751.88
992.16	3753.93
992.32	3702.73
992.48	3620.81
992.64	3629.00
992.80	3674.06
992.96	3692.49
993.12	3704.78
993.28	3686.34
993.44	3686.34
993.60	3569.61
993.76	3655.62
993.92	3657.67
994.08	3454.92
994.24	3600.33
994.40	3602.38
994.56	3635.14
994.72	3557.32
994.88	3491.79
995.04	3518.41
995.20	3571.66
995.36	3461.07
995.52	3647.43
995.68	3487.69
995.84	3491.79
996.00	3463.12
996.16	3348.43
996.32	3377.10
996.48	3567.56
996.64	3579.85
996.80	3420.11
996.96	3442.64
997.12	3379.15
997.28	3420.11
997.44	3315.66
997.60	3450.83
997.76	3440.59
997.92	3411.92
998.08	3424.20
998.24	3305.42
998.40	3405.77
998.56	3317.71
998.72	3278.80
998.88	3268.56
999.04	3338.19
999.20	3342.28
999.36	3217.36
999.52	3303.37
999.68	3368.91
999.84	3282.89
1000.00	3278.80
1000.16	3262.41
1000.32	3278.80
1000.48	3352.52
1000.64	3180.50
1000.80	3151.82
1000.95	3117.01
1001.11	3276.75
1001.27	3246.03
1001.43	3145.68
1001.59	3153.87
1001.75	3059.67
1001.91	3248.08
1002.07	3141.58
1002.23	3067.86
1002.39	3094.48
1002.55	3139.54
1002.71	3090.38
1002.87	3131.34
1003.03	3057.62
1003.19	3112.91
1003.34	3172.30
1003.50	3145.68
1003.66	3086.29
1003.82	3086.29
1003.98	3043.28
1004.14	2971.60
1004.30	3051.47
1004.46	2969.55
1004.62	3076.05
1004.78	3004.37
1004.94	3039.19
1005.09	3018.71
1005.25	3055.57
1005.41	2916.31
1005.57	2942.93
1005.73	3035.09
1005.89	2926.55
1006.05	3069.91
1006.21	2934.74
1006.37	2914.26
1006.52	2879.44
1006.68	2887.64
1006.84	3082.19
1007.00	2920.40
1007.16	2940.88
1007.32	2961.36
1007.48	2799.57
1007.64	2934.74
1007.79	2740.18
1007.95	2797.53
1008.11	2942.93
1008.27	2906.07
1008.43	2756.57
1008.59	2805.72
1008.75	2873.30
1008.91	2828.24
1009.06	2785.24
1009.22	2775.00
1009.38	2897.88
1009.54	2813.91
1009.70	2768.85
1009.86	2809.81
1010.01	2793.43
1010.17	2768.85
1010.33	2789.33
1010.49	2803.67
1010.65	2781.14
1010.81	2688.98
1010.96	2820.05
1011.12	2711.51
1011.28	2717.65
1011.44	2766.81
1011.60	2684.89
1011.76	2658.26
1011.91	2764.76
1012.07	2686.94
1012.23	2602.97
1012.39	2668.50
1012.55	2715.61
1012.71	2684.89
1012.86	2578.39
1013.02	2654.17
1013.18	2643.93
1013.34	2625.50
1013.50	2662.36
1013.65	2727.89
1013.81	2568.15
1013.97	2555.86
1014.13	2625.50
1014.29	2600.92
1014.44	2658.26
1014.60	2586.58
1014.76	2529.24
1014.92	2572.25
1015.07	2615.26
1015.23	2670.55
1015.39	2519.00
1015.55	2547.67
1015.71	2490.33
1015.86	2539.48
1016.02	2377.69
1016.18	2467.80
1016.34	2586.58
1016.49	2496.47
1016.65	2602.97
1016.81	2455.51
1016.97	2463.71
1017.12	2590.68
1017.28	2414.56
1017.44	2437.08
1017.60	2461.66
1017.75	2359.26
1017.91	2496.47
1018.07	2340.83
1018.23	2471.90
1018.38	2412.51
1018.54	2488.28
1018.70	2371.55
1018.86	2365.40
1019.01	2502.62
1019.17	2424.80
1019.33	2486.23
1019.49	2467.80
1019.64	2428.89
1019.80	2367.45
1019.96	2402.27
1020.12	2525.15
1020.27	2301.92
1020.43	2424.80
1020.59	2383.84
1020.74	2406.36
1020.90	2410.46
1021.06	2312.16
1021.22	2375.64
1021.37	2367.45
1021.53	2379.74
1021.69	2338.78
1021.84	2299.87
1022.00	2215.90
1022.16	2361.31
1022.31	2310.11
1022.47	2396.12
1022.63	2301.92
1022.79	2197.47
1022.94	2269.15
1023.10	2328.54
1023.26	2267.10
1023.41	2281.44
1023.57	2260.96
1023.73	2236.38
1023.88	2314.20
1024.04	2195.42
1024.20	2279.39
1024.35	2260.96
1024.51	2295.77
1024.67	2299.87
1024.82	2359.26
1024.98	2185.18
1025.14	2207.71
1025.29	2220.00
1025.45	2258.91
1025.61	2213.85
1025.76	2174.94
1025.92	2185.18
1026.08	2224.09
1026.23	2187.23
1026.39	2246.62
1026.55	2138.08
1026.70	2138.08
1026.86	2166.75
1027.02	2199.52
1027.17	2146.27
1027.33	2191.33
1027.48	2029.54
1027.64	2281.44
1027.80	2123.74
1027.95	2174.94
1028.11	2136.03
1028.27	2131.94
1028.42	2084.83
1028.58	2088.93
1028.73	2076.64
1028.89	2041.82
1029.05	2105.31
1029.20	2148.32
>>>>>End Processed Spectral Data<<<<<
