SpectraSuite Data File
++++++++++++++++++++++++++++++++++++
Date: Fri Jun 02 14:49:29 CEST 2017
User: INFO_000
Dark Spectrum Present: No
Reference Spectrum Present: No
Number of Sampled Component Spectra: 1
Spectrometers: USB4H00879
Integration Time (usec): 80000 (USB4H00879)
Spectra Averaged: 1 (USB4H00879)
Boxcar Smoothing: 0 (USB4H00879)
Correct for Electrical Dark: No (USB4H00879)
Strobe/Lamp Enabled: No (USB4H00879)
Correct for Detector Non-linearity: No (USB4H00879)
Correct for Stray Light: No (USB4H00879)
Number of Pixels in Processed Spectrum: 3648
>>>>>Begin Processed Spectral Data<<<<<
345.13	1298.41
345.34	1298.41
345.56	1298.41
345.78	1228.78
345.99	1208.30
346.21	1726.44
346.42	1705.96
346.64	1671.14
346.86	1777.64
347.07	1634.28
347.29	1654.76
347.50	1609.70
347.72	1669.09
347.94	1753.06
348.15	1587.18
348.37	1568.74
348.59	1640.42
348.80	1621.99
349.02	1781.73
349.23	1816.55
349.45	1851.36
349.67	1920.99
349.88	1769.44
350.10	1886.18
350.31	1814.50
350.53	1796.07
350.75	1867.75
350.96	1742.82
351.18	1875.94
351.39	1875.94
351.61	1859.56
351.82	1882.08
352.04	1902.56
352.26	1853.41
352.47	1890.28
352.69	1908.71
352.90	1818.60
353.12	1796.07
353.34	1845.22
353.55	1937.38
353.77	1912.80
353.98	1839.08
354.20	1869.80
354.41	1974.24
354.63	1931.23
354.85	2035.68
355.06	1974.24
355.28	1794.02
355.49	1908.71
355.71	1882.08
355.92	1867.75
356.14	1941.47
356.35	1871.84
356.57	1802.21
356.79	1931.23
357.00	1818.60
357.22	1978.34
357.43	1896.42
357.65	1959.91
357.86	1855.46
358.08	1908.71
358.29	1937.38
358.51	1959.91
358.72	1939.43
358.94	1974.24
359.16	1871.84
359.37	1976.29
359.59	1964.00
359.80	2066.40
360.02	1904.61
360.23	1935.33
360.45	2029.54
360.66	1982.43
360.88	1798.12
361.09	1945.57
361.31	1970.15
361.52	2007.01
361.74	2060.26
361.95	2105.31
362.17	1871.84
362.38	2072.54
362.60	2023.39
362.81	2039.78
363.03	1949.67
363.24	1982.43
363.46	2080.74
363.67	2004.96
363.89	1994.72
364.10	1976.29
364.32	1929.19
364.53	2054.11
364.75	1964.00
364.96	1994.72
365.18	2039.78
365.39	1957.86
365.61	1937.38
365.82	2191.33
366.04	1996.77
366.25	1949.67
366.47	2072.54
366.68	2041.82
366.90	1886.18
367.11	2047.97
367.33	2076.64
367.54	2052.06
367.76	1976.29
367.97	2150.37
368.19	2039.78
368.40	2086.88
368.62	1914.85
368.83	1986.53
369.05	2054.11
369.26	2029.54
369.48	1945.57
369.69	2007.01
369.91	2117.60
370.12	1957.86
370.33	2043.87
370.55	1959.91
370.76	1949.67
370.98	2117.60
371.19	2070.50
371.41	1939.43
371.62	2019.30
371.84	1976.29
372.05	2199.52
372.27	2054.11
372.48	2062.30
372.69	2047.97
372.91	2273.25
373.12	2166.75
373.34	2080.74
373.55	2088.93
373.77	2099.17
373.98	2088.93
374.20	2088.93
374.41	2269.15
374.62	2121.70
374.84	2174.94
375.05	2142.18
375.27	2179.04
375.48	2197.47
375.70	2224.09
375.91	2215.90
376.12	2291.68
376.34	2164.70
376.55	2152.42
376.77	2168.80
376.98	2150.37
377.19	2103.26
377.41	2183.13
377.62	2187.23
377.84	2203.61
378.05	2357.21
378.27	2215.90
378.48	2303.96
378.69	2478.04
378.91	2281.44
379.12	2203.61
379.34	2250.72
379.55	2312.16
379.76	2220.00
379.98	2164.70
380.19	2207.71
380.41	2215.90
380.62	2281.44
380.83	2209.76
381.05	2224.09
381.26	2410.46
381.47	2203.61
381.69	2217.95
381.90	2379.74
382.12	2383.84
382.33	2289.63
382.54	2269.15
382.76	2279.39
382.97	2273.25
383.19	2205.66
383.40	2375.64
383.61	2326.49
383.83	2267.10
384.04	2256.86
384.25	2385.88
384.47	2371.55
384.68	2328.54
384.89	2273.25
385.11	2328.54
385.32	2398.17
385.54	2369.50
385.75	2289.63
385.96	2330.59
386.18	2402.27
386.39	2445.27
386.60	2367.45
386.82	2463.71
387.03	2338.78
387.24	2428.89
387.46	2529.24
387.67	2463.71
387.88	2500.57
388.10	2549.72
388.31	2441.18
388.52	2529.24
388.74	2621.40
388.95	2475.99
389.16	2600.92
389.38	2553.82
389.59	2496.47
389.80	2645.98
390.02	2584.54
390.23	2699.22
390.44	2576.34
390.66	2502.62
390.87	2541.53
391.08	2654.17
391.30	2707.41
391.51	2693.08
391.72	2709.46
391.94	2654.17
392.15	2535.39
392.36	2602.97
392.58	2576.34
392.79	2545.63
393.00	2748.37
393.22	2674.65
393.43	2742.23
393.64	2858.96
393.85	2740.18
394.07	2641.88
394.28	2711.51
394.49	2803.67
394.71	2772.95
394.92	2858.96
395.13	2791.38
395.35	2756.57
395.56	2727.89
395.77	2772.95
395.98	2836.44
396.20	2787.29
396.41	2775.00
396.62	2910.16
396.84	2826.20
397.05	2742.23
397.26	2924.50
397.47	2938.84
397.69	2881.49
397.90	3014.61
398.11	2836.44
398.32	2824.15
398.54	2944.98
398.75	2973.65
398.96	2869.20
399.18	3035.09
399.39	2973.65
399.60	3090.38
399.81	2889.68
400.03	3086.29
400.24	3262.41
400.45	3018.71
400.66	3117.01
400.88	3057.62
401.09	3166.16
401.30	3016.66
401.51	3028.95
401.73	3053.52
401.94	3117.01
402.15	3110.86
402.36	3004.37
402.58	3135.44
402.79	3067.86
403.00	3135.44
403.21	3196.88
403.43	3139.54
403.64	3246.03
403.85	3053.52
404.06	3182.54
404.27	2994.13
404.49	3139.54
404.70	3129.30
404.91	3295.18
405.12	3235.79
405.34	3334.09
405.55	3436.49
405.76	3223.50
405.97	3176.40
406.19	3348.43
406.40	3145.68
406.61	3301.33
406.82	3291.09
407.03	3370.96
407.25	3336.14
407.46	3502.03
407.67	3409.87
407.88	3549.13
408.09	3260.37
408.31	3313.61
408.52	3305.42
408.73	3350.48
408.94	3297.23
409.15	3387.34
409.37	3418.06
409.58	3364.81
409.79	3401.68
410.00	3469.26
410.21	3428.30
410.43	3493.83
410.64	3321.81
410.85	3520.46
411.06	3526.60
411.27	3485.64
411.48	3631.05
411.70	3395.53
411.91	3463.12
412.12	3639.24
412.33	3583.95
412.54	3647.43
412.76	3805.13
412.97	3702.73
413.18	3485.64
413.39	3463.12
413.60	3676.10
413.81	3600.33
414.03	3737.54
414.24	3620.81
414.45	3809.22
414.66	3559.37
414.87	3669.96
415.08	3704.78
415.30	3635.14
415.51	3784.65
415.72	3645.38
415.93	3768.26
416.14	3719.11
416.35	3837.89
416.56	3809.22
416.78	3776.45
416.99	3852.23
417.20	3762.12
417.41	3911.62
417.62	3960.77
417.83	3915.72
418.04	3907.52
418.26	3917.76
418.47	3909.57
418.68	3897.28
418.89	3975.11
419.10	4229.06
419.31	3999.68
419.52	4061.12
419.73	4102.08
419.95	4057.03
420.16	3915.72
420.37	4073.41
420.58	4245.44
420.79	4018.11
421.00	4059.07
421.21	4173.76
421.42	4054.98
421.63	4057.03
421.85	4071.36
422.06	4194.24
422.27	4239.30
422.48	4077.51
422.69	4368.32
422.90	4091.84
423.11	4227.01
423.32	4272.06
423.53	4310.97
423.75	4220.86
423.96	4472.76
424.17	4437.95
424.38	4569.02
424.59	4454.33
424.80	4495.29
425.01	4411.32
425.22	4505.53
425.43	4349.89
425.64	4583.35
425.85	4663.22
426.06	4558.78
426.28	4519.87
426.49	4548.54
426.70	4507.58
426.91	4556.73
427.12	4636.60
427.33	4605.88
427.54	4620.22
427.75	4749.24
427.96	4818.87
428.17	4695.99
428.38	4605.88
428.59	4868.02
428.80	4726.71
429.01	4876.21
429.23	4773.82
429.44	5140.40
429.65	4908.98
429.86	4929.46
430.07	4763.58
430.28	4763.58
430.49	5035.96
430.70	5054.39
430.91	5078.96
431.12	4992.95
431.33	5093.30
431.54	5152.69
431.75	5093.30
431.96	5222.32
432.17	5038.00
432.38	5087.15
432.59	5277.62
432.80	5285.81
433.01	5216.18
433.22	5250.99
433.43	5355.44
433.64	5345.20
433.85	5132.21
434.06	5244.85
434.27	5232.56
434.49	5443.50
434.70	5443.50
434.91	5398.45
435.12	5349.29
435.33	5431.21
435.54	5468.08
435.75	5361.58
435.96	5435.31
436.17	5310.38
436.38	5500.84
436.59	5496.75
436.80	5502.89
437.01	5738.41
437.22	5705.64
437.43	5619.63
437.64	5506.99
437.85	5728.17
438.06	5668.78
438.27	5492.65
438.48	5658.54
438.69	5502.89
438.90	5609.39
439.11	5623.72
439.32	5924.77
439.53	5754.79
439.74	5785.51
439.95	5881.77
440.16	5803.94
440.37	5834.66
440.57	5676.97
440.78	5908.39
440.99	5898.15
441.20	5975.97
441.41	5797.80
441.62	5928.87
441.83	5787.56
442.04	5967.78
442.25	6047.65
442.46	5930.92
442.67	6170.53
442.88	6494.11
443.09	6053.80
443.30	6049.70
443.51	6215.59
443.72	6260.64
443.93	6117.28
444.14	6320.03
444.35	6168.48
444.56	6195.11
444.77	6305.70
444.98	6320.03
445.19	6250.40
445.40	6236.06
445.61	6367.13
445.81	6416.29
446.02	6418.33
446.23	6344.61
446.44	6309.79
446.65	6348.70
446.86	6580.12
447.07	6551.45
447.28	6561.69
447.49	6797.21
447.70	6514.59
447.91	6657.95
448.12	6483.87
448.33	6541.21
448.54	6860.70
448.74	6633.37
448.95	6705.05
449.16	6686.62
449.37	6959.00
449.58	6770.58
449.79	6985.62
450.00	6807.45
450.21	6997.91
450.42	7163.79
450.63	6991.77
450.84	7139.22
451.05	6961.05
451.25	7022.48
451.46	6963.09
451.67	7210.90
451.88	7339.92
452.09	7131.03
452.30	7022.48
452.51	7057.30
452.72	7231.38
452.93	7524.24
453.13	7159.70
453.34	7307.15
453.55	7452.56
453.76	7251.86
453.97	7657.36
454.18	7358.35
454.39	7370.64
454.60	7417.74
454.81	7620.49
455.01	7708.55
455.22	7366.54
455.43	7655.31
455.64	7839.62
455.85	7774.09
456.06	8052.61
456.27	7776.14
456.48	7729.03
456.68	7761.80
456.89	7765.90
457.10	7880.58
457.31	7976.84
457.52	8056.71
457.73	8030.09
457.94	8286.08
458.14	7856.01
458.35	8339.33
458.56	8298.37
458.77	8181.64
458.98	8314.75
459.19	8251.27
459.39	8470.40
459.60	8470.40
459.81	8327.04
460.02	8433.54
460.23	8411.01
460.44	8761.21
460.65	8730.49
460.85	8570.75
461.06	8609.66
461.27	8492.93
461.48	9037.69
461.69	8886.14
461.89	8601.47
462.10	8843.13
462.31	8787.83
462.52	8750.97
462.73	8873.85
462.94	9011.06
463.14	9019.25
463.35	9064.31
463.56	9439.09
463.77	9228.15
463.98	9095.03
464.18	9416.56
464.39	9441.14
464.60	9781.10
464.81	9641.84
465.02	9357.17
465.23	9807.72
465.43	9512.81
465.64	9848.68
465.85	9781.10
466.06	9561.97
466.27	9893.74
466.47	9887.59
466.68	9983.85
466.89	9820.01
467.10	9989.99
467.30	9828.20
467.51	9994.09
467.72	10305.38
467.93	10227.56
468.14	10057.57
468.34	10418.02
468.55	10172.26
468.76	10540.90
468.97	10395.49
469.17	10694.49
469.38	10446.69
469.59	10864.47
469.80	10473.31
470.01	10653.53
470.21	10655.58
470.42	11075.42
470.63	11106.13
470.84	10878.81
471.04	11040.60
471.25	11151.19
471.46	11003.74
471.67	11288.40
471.87	11226.96
472.08	11276.12
472.29	11542.35
472.50	11259.73
472.70	11456.34
472.91	11671.37
473.12	11824.97
473.33	11798.35
473.53	11927.37
473.74	11882.31
473.95	12027.72
474.16	12005.19
474.36	12244.81
474.57	12181.32
474.78	12379.97
474.99	12595.01
475.19	12339.01
475.40	12726.08
475.61	12990.27
475.81	12902.20
476.02	12937.02
476.23	12910.40
476.44	13068.09
476.64	13246.26
476.85	13414.20
477.06	13309.75
477.27	13309.75
477.47	13520.69
477.68	13483.83
477.89	13481.78
478.09	13680.43
478.30	13795.12
478.51	13868.84
478.71	14059.31
478.92	14075.69
479.13	13999.91
479.34	14274.34
479.54	14470.95
479.75	14434.08
479.96	14511.91
480.16	14591.78
480.37	14630.69
480.58	14694.18
480.78	15007.52
480.99	15030.04
481.20	15206.17
481.41	15202.07
481.61	15331.09
481.82	15511.32
482.03	15212.31
482.23	15306.52
482.44	15451.92
482.65	15738.64
482.85	15890.19
483.06	15720.21
483.27	15896.33
483.47	15859.47
483.68	16031.50
483.89	16355.08
484.09	16058.12
484.30	16234.25
484.51	16566.02
484.71	16475.91
484.92	16430.85
485.13	16652.03
485.33	16824.06
485.54	16867.07
485.75	17084.16
485.95	17065.72
486.16	17356.54
486.37	17299.19
486.57	17346.30
486.78	17356.54
486.98	17442.55
487.19	17661.68
487.40	17950.45
487.60	17802.99
487.81	18249.45
488.02	17956.59
488.22	18276.07
488.43	18188.01
488.64	18368.23
488.84	18237.16
489.05	18597.60
489.25	18601.70
489.46	18818.78
489.67	18788.07
489.87	18890.46
490.08	18947.81
490.29	18896.61
490.49	19162.84
490.70	19437.27
490.90	19285.72
491.11	19551.96
491.32	19744.47
491.52	19941.07
491.73	19597.01
491.94	19586.77
492.14	19760.85
492.35	19928.78
492.55	20039.37
492.76	20092.62
492.97	20252.36
493.17	20254.41
493.38	20747.97
493.58	20819.65
493.79	20584.13
494.00	20942.53
494.20	20963.01
494.41	20596.42
494.61	21155.52
494.82	21202.62
495.02	20999.87
495.23	21302.97
495.44	21292.73
495.64	21438.14
495.85	21679.80
496.05	21706.42
496.26	21610.17
496.47	21907.12
496.67	21894.83
496.88	22251.18
497.08	21970.61
497.29	22281.90
497.49	21952.18
497.70	22236.84
497.91	22527.66
498.11	22922.91
498.32	22601.38
498.52	22447.79
498.73	23070.37
498.93	22797.99
499.14	23203.49
499.34	22812.32
499.55	23041.70
499.76	23160.48
499.96	23029.41
500.17	23346.84
500.37	23113.38
500.58	23398.04
500.78	23223.97
500.99	23565.98
501.19	23940.75
501.40	23676.57
501.60	23637.66
501.81	23670.42
502.02	23711.38
502.22	23957.14
502.43	23973.52
502.63	24270.48
502.84	24223.37
503.04	24168.08
503.25	24233.61
503.45	24247.95
503.66	24620.68
503.86	24366.73
504.07	24522.38
504.27	24041.11
504.48	24825.48
504.68	24927.88
504.89	24925.83
505.09	24977.03
505.30	24956.55
505.50	25116.29
505.71	25065.09
505.91	25280.13
506.12	25097.86
506.32	25372.28
506.53	25347.71
506.73	25331.33
506.94	25388.67
507.14	25548.41
507.35	25134.72
507.55	25572.99
507.76	25806.45
507.96	25769.59
508.17	25781.88
508.37	25310.85
508.58	25702.01
508.78	25783.93
508.99	26048.11
509.19	25933.43
509.40	26340.97
509.60	26209.90
509.81	26005.11
510.01	25857.65
510.22	26154.61
510.42	26146.42
510.63	26320.49
510.83	26066.55
511.04	26498.67
511.24	26492.52
511.44	26379.89
511.65	26611.31
511.85	26496.62
512.06	26515.05
512.26	26711.66
512.47	26642.03
512.67	26777.19
512.88	26787.43
513.08	26961.51
513.29	26883.69
513.49	26695.27
513.69	26986.08
513.90	26961.51
514.10	26994.28
514.31	27233.89
514.51	27211.36
514.72	27111.01
514.92	27104.87
515.13	27180.64
515.33	27463.26
515.53	27356.77
515.74	27367.01
515.94	27465.31
516.15	27571.80
516.35	27627.10
516.56	27342.43
516.76	27756.12
516.96	27428.45
517.17	27633.24
517.37	27803.22
517.58	27709.02
517.78	27766.36
517.99	27733.59
518.19	28094.04
518.39	28243.54
518.60	28008.02
518.80	28178.00
519.01	28585.55
519.21	28284.50
519.41	28591.69
519.62	28341.84
519.82	28546.64
520.03	28907.08
520.23	28898.89
520.43	28425.81
520.64	28630.60
520.84	29036.10
521.05	28857.93
521.25	28993.09
521.45	29357.63
521.66	29118.02
521.86	29009.48
522.07	29095.49
522.27	29242.95
522.47	29500.99
522.68	29431.36
522.88	29206.08
523.08	29648.44
523.29	29482.56
523.49	29589.05
523.70	29695.55
523.90	30096.95
524.10	29986.36
524.31	30242.35
524.51	29759.03
524.71	30371.38
524.92	30236.21
525.12	30580.27
525.33	30484.01
525.53	30457.39
525.73	30803.50
525.94	30604.84
526.14	30858.79
526.34	30627.37
526.55	30756.39
526.75	30881.32
526.95	30887.46
527.16	30948.90
527.36	31036.97
527.56	31428.13
527.77	31401.50
527.97	31430.18
528.17	31493.66
528.38	31313.44
528.58	31606.30
528.78	32007.70
528.99	31630.88
529.19	32024.09
529.39	31538.72
529.60	31925.78
529.80	32200.21
530.00	32118.29
530.21	32378.39
530.41	32253.46
530.61	32527.89
530.82	32749.07
531.02	32556.56
531.22	32837.13
531.43	32957.96
531.63	32929.29
531.83	32910.86
532.04	33723.90
532.24	33125.89
532.44	33515.01
532.64	33650.17
532.85	33959.42
533.05	33756.67
533.25	33725.95
533.46	33705.47
533.66	34096.63
533.86	34104.82
534.07	34260.47
534.27	34213.37
534.47	34319.86
534.67	34397.68
534.88	34455.03
535.08	34508.27
535.28	35108.33
535.49	34930.16
535.69	35263.97
535.89	34971.11
536.09	35378.66
536.30	35087.85
536.50	35423.72
536.70	35382.76
536.91	35306.98
537.11	35536.35
537.31	35530.21
537.51	35767.77
537.72	36369.88
537.92	36107.74
538.12	36548.05
538.32	35851.74
538.53	36625.87
538.73	36218.33
538.93	36255.19
539.13	36601.30
539.34	36425.17
539.54	36931.02
539.74	36806.09
539.94	36783.57
540.15	36996.56
540.35	37123.53
540.55	37021.13
540.75	37094.86
540.96	37105.10
541.16	37225.93
541.36	37596.61
541.56	37557.70
541.77	38077.88
541.97	37778.88
542.17	37789.12
542.37	37909.95
542.58	37846.46
542.78	37813.70
542.98	38100.41
543.18	38114.75
543.38	38741.42
543.59	38245.82
543.79	38413.75
543.99	38288.82
544.19	38925.74
544.40	38565.30
544.60	38798.77
544.80	38780.34
545.00	38888.88
545.20	39458.21
545.41	38983.09
545.61	38591.92
545.81	39341.48
546.01	39484.84
546.21	39470.50
546.42	39378.34
546.62	39802.27
546.82	39323.05
547.02	39533.99
547.22	39822.75
547.43	39798.18
547.63	39830.94
547.83	39916.96
548.03	39484.84
548.23	40209.82
548.44	39908.77
548.64	40170.91
548.84	40377.75
549.04	40340.89
549.24	41045.39
549.45	40750.48
549.65	40355.22
549.85	40326.55
550.05	40770.96
550.25	41037.20
550.45	41145.74
550.66	41018.77
550.86	40969.61
551.06	41039.25
551.26	41059.73
551.46	40957.33
551.66	41375.11
551.87	40942.99
552.07	41235.85
552.27	41203.08
552.47	41479.56
552.67	41655.68
552.87	41389.45
553.07	41530.76
553.28	41420.17
553.48	41745.80
553.68	41262.47
553.88	41915.78
554.08	42091.90
554.28	41602.44
554.48	41723.27
554.69	41737.60
554.89	41934.21
555.09	41776.51
555.29	41930.11
555.49	41942.40
555.69	41985.41
555.89	42083.71
556.10	42464.63
556.30	42147.20
556.50	42030.46
556.70	42143.10
556.90	42231.16
557.10	42364.28
557.30	42460.54
557.50	42362.23
557.70	42407.29
557.91	42487.16
558.11	42712.44
558.31	43095.41
558.51	42638.71
558.71	42554.74
558.91	42767.73
559.11	42708.34
559.31	42435.96
559.51	42915.19
559.72	42507.64
559.92	42884.47
560.12	42890.61
560.32	43066.73
560.52	42982.77
560.72	42999.15
560.92	42657.14
561.12	43320.68
561.32	43167.09
561.52	42681.72
561.72	43357.55
561.93	43257.20
562.13	43275.63
562.33	43398.51
562.53	44139.87
562.73	43079.02
562.93	43122.03
563.13	43517.29
563.33	43414.89
563.53	43621.73
563.73	42931.57
563.93	43636.07
564.13	43982.18
564.33	43492.71
564.53	43840.87
564.74	43806.05
564.94	43461.99
565.14	43767.14
565.34	43349.35
565.54	44094.82
565.74	43763.04
565.94	43902.31
566.14	43855.20
566.34	43447.66
566.54	44359.00
566.74	43717.99
566.94	43988.32
567.14	44295.52
567.34	43885.92
567.54	44184.93
567.74	43636.07
567.94	43943.27
568.14	44473.69
568.34	43609.45
568.54	43804.00
568.74	44307.80
568.94	43763.04
569.14	44135.77
569.34	44135.77
569.54	44522.84
569.75	44060.00
569.95	44135.77
570.15	44567.90
570.35	44170.59
570.55	44381.53
570.75	44592.47
570.95	44696.92
571.15	45118.80
571.35	44207.45
571.55	44709.21
571.75	44199.26
571.95	44934.48
572.15	44561.75
572.35	44647.77
572.55	44680.53
572.75	44311.90
572.95	44694.87
573.15	44916.05
573.35	44784.98
573.55	44768.60
573.75	44578.14
573.95	45266.25
574.15	44948.82
574.35	44729.69
574.55	44774.74
574.75	44602.71
574.95	45137.23
575.15	44942.67
575.34	44963.15
575.54	45051.22
575.74	45708.61
575.94	45118.80
576.14	45522.25
576.34	44836.18
576.54	45528.39
576.74	45434.19
576.94	45192.53
577.14	45524.30
577.34	46185.79
577.54	45325.64
577.74	45737.29
577.94	45600.07
578.14	45675.85
578.34	45512.01
578.54	45284.68
578.74	45227.34
578.94	45692.23
579.14	45360.46
579.34	45624.65
579.54	45725.00
579.74	46529.85
579.94	45819.20
580.13	46169.41
580.33	46253.37
580.53	45929.80
580.73	46409.02
580.93	46314.81
581.13	46386.49
581.33	46576.95
581.53	46452.03
581.73	46642.49
581.93	46665.02
582.13	46540.09
582.33	46505.27
582.53	46579.00
582.73	46714.17
582.92	46568.76
583.12	46695.74
583.32	46892.34
583.52	46591.29
583.72	47111.47
583.92	46861.62
584.12	47054.13
584.32	47240.50
584.52	46964.02
584.72	47222.06
584.92	47187.25
585.11	47660.33
585.31	46996.79
585.51	47633.71
585.71	47035.70
585.91	47703.34
586.11	47224.11
586.31	47222.06
586.51	47355.18
586.71	47473.96
586.91	47744.30
587.10	47775.02
587.30	47856.93
587.50	47940.90
587.70	48477.47
587.90	48274.72
588.10	47781.16
588.30	48094.50
588.50	48219.42
588.69	48174.37
588.89	47940.90
589.09	48092.45
589.29	48706.84
589.49	48753.94
589.69	48373.02
589.89	48569.63
590.08	48416.03
590.28	48366.88
590.48	48207.14
590.68	48407.84
590.88	48624.92
591.08	48626.97
591.28	48528.67
591.47	49106.19
591.67	48717.08
591.87	48911.64
592.07	48710.94
592.27	48817.43
592.47	48842.01
592.67	49079.57
592.86	48964.88
593.06	49224.98
593.26	49235.22
593.46	49624.33
593.66	49216.78
593.86	49249.55
594.05	49501.45
594.25	49984.77
594.45	49583.37
594.65	49423.63
594.85	49300.75
595.05	49642.76
595.24	50021.64
595.44	49329.42
595.64	49741.06
595.84	49540.36
596.04	50267.39
596.23	50246.91
596.43	50480.38
596.63	50119.94
596.83	49802.50
597.03	50650.36
597.22	50511.10
597.42	50064.64
597.62	50586.88
597.82	50808.06
598.02	50513.15
598.21	50881.78
598.41	50666.75
598.61	50674.94
598.81	50799.86
599.01	51086.58
599.20	50887.93
599.40	50887.93
599.60	51377.39
599.80	50717.95
600.00	51305.71
600.19	51608.81
600.39	51090.68
600.59	52047.08
600.79	51514.61
600.98	51633.39
601.18	51530.99
601.38	51809.51
601.58	51633.39
601.78	51864.81
601.97	51995.88
602.17	52161.76
602.37	52200.68
602.57	52198.63
602.76	52419.81
602.96	52032.74
603.16	52237.54
603.36	52401.38
603.55	52270.31
603.75	52511.97
603.95	52704.48
604.15	52309.22
604.34	52516.06
604.54	52661.47
604.74	53124.31
604.94	53038.29
605.13	52688.09
605.33	53126.36
605.53	53003.48
605.73	53499.09
605.92	52741.34
606.12	53607.63
606.32	53550.29
606.52	52989.14
606.71	53376.21
606.91	53597.39
607.11	53298.39
607.30	53650.64
607.50	53628.11
607.70	53810.38
607.90	53494.99
608.09	53755.08
608.29	53900.49
608.49	53900.49
608.68	53728.46
608.88	53984.46
609.08	54463.68
609.28	54486.21
609.47	53775.56
609.67	54498.50
609.87	54207.68
610.06	54203.59
610.26	54445.25
610.46	54600.89
610.66	54209.73
610.85	54369.47
611.05	54023.37
611.25	54549.70
611.44	54363.33
611.64	54348.99
611.84	54439.11
612.03	54467.78
612.23	54631.61
612.43	54181.06
612.62	54518.98
612.82	54867.13
613.02	54744.25
613.21	54940.86
613.41	54402.24
613.61	55147.70
613.80	54547.65
614.00	54983.86
614.20	54711.49
614.39	54922.43
614.59	54871.23
614.79	54891.71
614.98	55139.51
615.18	54985.91
615.38	55043.26
615.57	55045.30
615.77	54971.58
615.97	55346.36
616.16	55198.90
616.36	54916.28
616.56	54932.67
616.75	55096.50
616.95	54707.39
617.15	55004.34
617.34	55246.00
617.54	55243.96
617.74	55512.24
617.93	55420.08
618.13	54990.01
618.32	55153.85
618.52	54906.04
618.72	54998.20
618.91	55356.60
619.11	54973.63
619.31	55293.11
619.50	55383.22
619.70	54979.77
619.90	55399.60
620.09	55260.34
620.29	55268.53
620.48	55409.84
620.68	55260.34
620.88	55385.27
621.07	55174.33
621.27	55504.05
621.46	55020.73
621.66	55393.46
621.86	55037.11
622.05	54809.79
622.25	55147.70
622.44	55252.15
622.64	55026.87
622.84	55078.07
623.03	54959.29
623.23	55080.12
623.42	54772.92
623.62	55325.88
623.82	55465.14
624.01	54977.72
624.21	55434.42
624.40	55305.40
624.60	55139.51
624.80	55209.14
624.99	55006.39
625.19	55153.85
625.38	55420.08
625.58	55262.39
625.77	55393.46
625.97	55229.62
626.17	54916.28
626.36	54803.64
626.56	55635.12
626.75	54838.46
626.95	55739.57
627.14	55162.04
627.34	55598.26
627.54	55135.41
627.73	55098.55
627.93	55104.70
628.12	54897.85
628.32	54973.63
628.51	55073.98
628.71	55272.63
628.90	54901.95
629.10	55022.78
629.30	55002.30
629.49	55090.36
629.69	54713.53
629.88	55452.85
630.08	55301.30
630.27	54967.48
630.47	55254.20
630.66	55030.97
630.86	55057.59
631.05	55006.39
631.25	55538.86
631.44	55301.30
631.64	55121.08
631.84	54922.43
632.03	55538.86
632.23	54715.58
632.42	55610.54
632.62	55125.17
632.81	54678.72
633.01	55235.77
633.20	55260.34
633.40	55194.81
633.59	55317.68
633.79	54715.58
633.98	55411.89
634.18	55106.74
634.37	54936.76
634.57	54934.71
634.76	55125.17
634.96	55026.87
635.15	55092.41
635.35	54957.24
635.54	54742.20
635.74	55491.76
635.93	54613.18
636.13	55549.10
636.32	55268.53
636.52	54488.26
636.71	54947.00
636.91	54858.94
637.10	55121.08
637.30	54967.48
637.49	54881.47
637.69	54658.24
637.88	55145.65
638.08	54572.22
638.27	55026.87
638.46	54955.19
638.66	54703.29
638.85	55033.02
639.05	54951.10
639.24	55389.36
639.44	54940.86
639.63	55098.55
639.83	54680.77
640.02	54764.73
640.22	54875.32
640.41	55049.40
640.61	54701.25
640.80	54791.36
640.99	54869.18
641.19	55418.03
641.38	54752.44
641.58	54777.02
641.77	55135.41
641.97	54932.67
642.16	54822.08
642.36	55258.29
642.55	55317.68
642.74	54523.07
642.94	55809.20
643.13	55131.32
643.33	55385.27
643.52	54867.13
643.72	54971.58
643.91	55104.70
644.10	55209.14
644.30	55440.56
644.49	54842.56
644.69	55299.25
644.88	54918.33
645.08	54492.35
645.27	55000.25
645.46	54627.52
645.66	54811.84
645.85	55196.85
646.05	55035.06
646.24	55235.77
646.43	55260.34
646.63	55284.92
646.82	55469.23
647.02	55157.94
647.21	55329.97
647.40	55319.73
647.60	55291.06
647.79	55098.55
647.99	55182.52
648.18	54809.79
648.37	55456.95
648.57	55469.23
648.76	55137.46
648.96	54654.14
649.15	55731.37
649.34	55555.25
649.54	55512.24
649.73	54682.81
649.92	55153.85
650.12	55583.92
650.31	55301.30
650.51	55172.28
650.70	55575.73
650.89	55149.75
651.09	56005.80
651.28	55409.84
651.47	55436.47
651.67	55344.31
651.86	55483.57
652.06	55002.30
652.25	55303.35
652.44	55090.36
652.64	55065.78
652.83	55325.88
653.02	55383.22
653.22	55071.93
653.41	54992.06
653.60	55174.33
653.80	55205.05
653.99	55340.21
654.18	55100.60
654.38	55329.97
654.57	55706.80
654.76	55147.70
654.96	55211.19
655.15	55018.68
655.34	55420.08
655.54	54809.79
655.73	55252.15
655.92	55377.08
656.12	55166.13
656.31	55327.92
656.50	55084.22
656.70	55141.56
656.89	55243.96
657.08	55661.74
657.28	55604.40
657.47	55192.76
657.66	55006.39
657.86	55043.26
658.05	55237.81
658.24	55411.89
658.43	55174.33
658.63	55590.06
658.82	55624.88
659.01	55499.95
659.21	55260.34
659.40	55669.93
659.59	55321.78
659.79	55119.03
659.98	55268.53
660.17	55471.28
660.36	55131.32
660.56	55307.44
660.75	55805.10
660.94	55235.77
661.14	55456.95
661.33	55276.72
661.52	55309.49
661.71	55633.07
661.91	55252.15
662.10	55268.53
662.29	55430.32
662.49	55225.53
662.68	55387.31
662.87	55516.34
663.06	55592.11
663.26	55184.57
663.45	55614.64
663.64	55481.52
663.83	55653.55
664.03	55698.61
664.22	55608.50
664.41	55362.74
664.60	55444.66
664.80	55690.41
664.99	55499.95
665.18	55215.29
665.37	55733.42
665.57	55579.82
665.76	55440.56
665.95	55735.47
666.14	55338.16
666.34	55850.16
666.53	55469.23
666.72	55166.13
666.91	55438.51
667.11	55182.52
667.30	55491.76
667.49	55184.57
667.68	55561.39
667.87	55927.98
668.07	55682.22
668.26	55014.58
668.45	55764.14
668.64	54879.42
668.84	56038.57
669.03	55964.84
669.22	55465.14
669.41	55909.55
669.60	56143.02
669.80	55538.86
669.99	55747.76
670.18	55735.47
670.37	56177.83
670.57	56161.45
670.76	55551.15
670.95	55782.57
671.14	55432.37
671.33	55471.28
671.53	56065.19
671.72	55837.87
671.91	55950.51
672.10	55862.44
672.29	55334.07
672.48	55252.15
672.68	55686.32
672.87	55671.98
673.06	55514.29
673.25	55495.86
673.44	55487.67
673.64	55448.75
673.83	55633.07
674.02	55182.52
674.21	55389.36
674.40	55534.77
674.59	55502.00
674.79	55159.99
674.98	55401.65
675.17	55594.16
675.36	55542.96
675.55	55897.26
675.74	55149.75
675.94	55379.12
676.13	55825.58
676.32	55751.85
676.51	56378.53
676.70	55913.64
676.89	55893.16
677.08	55635.12
677.28	55471.28
677.47	56075.43
677.66	55760.05
677.85	55776.43
678.04	55956.65
678.23	56323.24
678.42	56114.34
678.62	55696.56
678.81	56153.26
679.00	55477.43
679.19	56423.59
679.38	55796.91
679.57	55645.36
679.76	55776.43
679.96	56110.25
680.15	56186.02
680.34	56022.19
680.53	55311.54
680.72	56200.36
680.91	56063.14
681.10	55506.10
681.29	56018.09
681.48	55893.16
681.68	56071.34
681.87	55766.19
682.06	55891.12
682.25	55493.81
682.44	55770.28
682.63	55702.70
682.82	55504.05
683.01	55766.19
683.20	55493.81
683.39	56009.90
683.59	55235.77
683.78	55336.12
683.97	55325.88
684.16	55301.30
684.35	55506.10
684.54	55741.61
684.73	55512.24
684.92	55362.74
685.11	55479.47
685.30	55741.61
685.49	55876.78
685.69	55387.31
685.88	55534.77
686.07	55917.74
686.26	55456.95
686.45	55803.05
686.64	55864.49
686.83	56007.85
687.02	55606.45
687.21	55956.65
687.40	55614.64
687.59	55868.59
687.78	55506.10
687.97	55690.41
688.16	55577.78
688.35	55340.21
688.54	55276.72
688.74	55866.54
688.93	55682.22
689.12	55235.77
689.31	55729.33
689.50	55964.84
689.69	55489.71
689.88	55336.12
690.07	55602.35
690.26	55047.35
690.45	55688.37
690.64	55377.08
690.83	55729.33
691.02	55196.85
691.21	55561.39
691.40	55268.53
691.59	55635.12
691.78	55159.99
691.97	56011.95
692.16	55418.03
692.35	55616.69
692.54	55504.05
692.73	55731.37
692.92	55772.33
693.11	55555.25
693.30	55397.55
693.49	55788.72
693.68	55301.30
693.87	55434.42
694.06	54971.58
694.25	55129.27
694.44	55301.30
694.63	55299.25
694.82	55776.43
695.01	55141.56
695.20	55063.74
695.39	55151.80
695.58	55121.08
695.77	54918.33
695.96	54789.31
696.15	55194.81
696.34	54979.77
696.53	54604.99
696.72	55407.79
696.91	55284.92
697.10	55162.04
697.29	55155.89
697.48	55452.85
697.67	54953.15
697.86	54736.06
698.05	54514.88
698.24	54916.28
698.43	54815.93
698.62	54645.95
698.81	54682.81
699.00	55088.31
699.19	54435.01
699.38	54969.53
699.57	54445.25
699.76	55047.35
699.95	54990.01
700.14	54727.87
700.32	54613.18
700.51	54957.24
700.70	55483.57
700.89	55188.66
701.08	54834.36
701.27	54860.99
701.46	54815.93
701.65	54058.18
701.84	54404.29
702.03	54590.66
702.22	54342.85
702.41	54447.30
702.60	54531.26
702.79	54645.95
702.98	54127.81
703.17	54273.22
703.35	54584.51
703.54	54674.62
703.73	54199.49
703.92	54383.81
704.11	54318.28
704.30	53916.87
704.49	54043.85
704.68	53822.67
704.87	53963.98
705.06	54133.96
705.25	53994.70
705.43	54219.97
705.62	54150.34
705.81	54099.14
706.00	54383.81
706.19	53707.98
706.38	53963.98
706.57	53552.33
706.76	53769.42
706.95	54019.27
707.14	53718.22
707.32	53437.65
707.51	53660.88
707.70	53830.86
707.89	53492.94
708.08	53736.65
708.27	53912.78
708.46	54215.88
708.65	53738.70
708.84	53554.38
709.02	53826.76
709.21	53779.66
709.40	53220.56
709.59	53613.77
709.78	52956.38
709.97	53648.59
710.16	53423.31
710.34	52972.76
710.53	53777.61
710.72	52915.42
710.91	53159.12
711.10	53218.52
711.29	53093.59
711.48	53228.76
711.66	53097.69
711.85	53224.66
712.04	53142.74
712.23	53048.53
712.42	52704.48
712.61	52622.56
712.80	52884.70
712.98	53109.97
713.17	52727.00
713.36	52704.48
713.55	52782.30
713.74	52813.02
713.93	52808.92
714.11	52544.73
714.30	52507.87
714.49	52284.64
714.68	52282.59
714.87	52763.87
715.06	52983.00
715.24	52452.58
715.43	52790.49
715.62	51795.18
715.81	52196.58
716.00	52319.46
716.18	51795.18
716.37	51711.21
716.56	51580.14
716.75	52106.47
716.94	51860.71
717.12	51768.55
717.31	51971.30
717.50	51530.99
717.69	51799.27
717.88	51539.18
718.06	51586.28
718.25	51668.20
718.44	51352.82
718.63	51606.76
718.82	51365.10
719.00	51627.24
719.19	51307.76
719.38	51430.64
719.57	50631.93
719.76	50668.79
719.94	51100.92
720.13	51260.66
720.32	51199.22
720.51	50732.28
720.69	50636.03
720.88	50552.06
721.07	50662.65
721.26	49939.72
721.44	50314.50
721.63	50353.41
721.82	50332.93
722.01	50255.11
722.20	50740.47
722.38	50386.18
722.57	50003.20
722.76	50316.54
722.95	49646.86
723.13	49333.52
723.32	49501.45
723.51	49468.69
723.70	49919.24
723.88	49870.09
724.07	49632.52
724.26	49773.83
724.44	49358.09
724.63	50031.88
724.82	49458.45
725.01	49526.03
725.19	49362.19
725.38	49446.16
725.57	49042.71
725.76	49532.17
725.94	48997.65
726.13	48985.36
726.32	48940.31
726.51	48667.93
726.69	49118.48
726.88	49063.19
727.07	48966.93
727.25	48801.05
727.44	48858.39
727.63	48989.46
727.82	48645.40
728.00	48346.40
728.19	48676.12
728.38	48739.61
728.56	48174.37
728.75	48659.74
728.94	48760.09
729.12	48715.03
729.31	48762.14
729.50	48821.53
729.69	48858.39
729.87	48461.08
730.06	48442.65
730.25	48334.11
730.43	48792.86
730.62	48260.38
730.81	48346.40
730.99	48481.56
731.18	48323.87
731.37	48407.84
731.55	48612.63
731.74	48633.11
731.93	48278.82
732.11	48143.65
732.30	47969.57
732.49	48039.20
732.67	48190.75
732.86	48092.45
733.05	48280.86
733.23	47965.48
733.42	48080.16
733.61	48147.75
733.79	48168.22
733.98	47910.18
734.17	48078.11
734.35	47836.45
734.54	47879.46
734.73	48121.12
734.91	47760.68
735.10	47754.54
735.29	48114.98
735.47	47852.84
735.66	47875.37
735.84	47856.93
736.03	47306.03
736.22	48381.21
736.40	47469.87
736.59	47557.93
736.78	47439.15
736.96	47754.54
737.15	47670.57
737.33	47179.06
737.52	47299.89
737.71	47191.34
737.89	47187.25
738.08	47338.80
738.27	46945.59
738.45	47365.42
738.64	47322.41
738.82	47033.65
739.01	47381.80
739.20	47090.99
739.38	47398.19
739.57	47459.63
739.75	47256.88
739.94	46929.20
740.13	46603.58
740.31	46744.89
740.50	46812.47
740.68	46961.97
740.87	46906.68
741.06	46785.85
741.24	46331.20
741.43	46513.47
741.61	46525.75
741.80	46695.74
741.99	46574.91
742.17	46302.53
742.36	46218.56
742.54	46161.22
742.73	46415.16
742.91	46456.12
743.10	46175.55
743.29	46718.26
743.47	46644.54
743.66	46314.81
743.84	46495.03
744.03	45950.27
744.21	46077.25
744.40	46280.00
744.59	45921.60
744.77	45632.84
744.96	46060.87
745.14	45907.27
745.33	46130.50
745.51	45577.54
745.70	46175.55
745.88	45784.39
746.07	45722.95
746.26	45493.58
746.44	45708.61
746.63	45968.71
746.81	45774.15
747.00	45454.67
747.18	45806.92
747.37	45532.49
747.55	45772.10
747.74	45890.88
747.92	45372.75
748.11	45870.40
748.29	45751.62
748.48	45438.28
748.66	45329.74
748.85	45073.74
749.03	45106.51
749.22	44979.54
749.41	44979.54
749.59	44860.76
749.78	44752.21
749.96	44356.96
750.15	44926.29
750.33	44590.42
750.52	44811.60
750.70	44922.19
750.89	44404.06
751.07	44586.33
751.26	44776.79
751.44	44318.04
751.63	44100.96
751.81	44567.90
752.00	44225.89
752.18	44731.73
752.37	44270.94
752.55	44148.06
752.74	44156.25
752.92	43928.93
753.10	43957.60
753.29	44453.21
753.47	44078.43
753.66	43615.59
753.84	44062.05
754.03	43564.39
754.21	44021.09
754.40	44207.45
754.58	43734.37
754.77	43664.74
754.95	43689.32
755.14	43572.58
755.32	43564.39
755.51	43257.20
755.69	43136.37
755.88	43482.47
756.06	43865.44
756.24	43265.39
756.43	43404.65
756.61	43734.37
756.80	43335.02
756.98	43494.76
757.17	43449.70
757.35	43474.28
757.54	43310.44
757.72	43390.31
757.90	43189.61
758.09	43255.15
758.27	43717.99
758.46	43285.87
758.64	43173.23
758.83	43230.57
759.01	42941.81
759.19	43152.75
759.38	42851.70
759.56	43345.26
759.75	42796.40
759.93	43044.21
760.12	42626.42
760.30	42655.09
760.48	42966.38
760.67	42550.65
760.85	42698.10
761.04	42704.24
761.22	42734.96
761.40	42661.24
761.59	42515.83
761.77	42335.61
761.96	42362.23
762.14	42329.47
762.32	42063.23
762.51	41915.78
762.69	42149.24
762.88	42481.02
763.06	42460.54
763.24	42376.57
763.43	42190.20
763.61	41854.34
763.80	41815.43
763.98	41899.39
764.16	42261.88
764.35	42042.75
764.53	41696.64
764.72	41911.68
764.90	41823.62
765.08	42014.08
765.27	42177.92
765.45	41211.28
765.63	41346.44
765.82	42089.85
766.00	41334.15
766.18	41489.80
766.37	41940.35
766.55	41686.40
766.74	41633.16
766.92	41432.46
767.10	41493.89
767.29	41397.64
767.47	40994.19
767.65	41250.19
767.84	41049.49
768.02	41452.94
768.20	40969.61
768.39	41434.50
768.57	41217.42
768.75	41209.23
768.94	41037.20
769.12	40932.75
769.30	40742.29
769.49	40625.56
769.67	40910.22
769.85	40050.08
770.04	40811.92
770.22	40668.56
770.40	40547.73
770.59	40451.48
770.77	40574.36
770.95	40938.90
771.14	40013.21
771.32	40175.00
771.50	40177.05
771.69	40238.49
771.87	40555.93
772.05	40002.97
772.24	40099.23
772.42	40418.71
772.60	40263.07
772.78	39724.45
772.97	39732.64
773.15	39880.10
773.33	40017.31
773.52	40019.36
773.70	40293.79
773.88	40148.38
774.07	40129.95
774.25	39765.41
774.43	40172.96
774.61	40082.84
774.80	40002.97
774.98	40160.67
775.16	40177.05
775.34	39804.32
775.53	39796.13
775.71	40154.52
775.89	40240.54
776.08	40172.96
776.26	40039.84
776.44	39902.62
776.62	40142.24
776.81	39867.81
776.99	40314.26
777.17	40414.62
777.35	40342.94
777.54	40625.56
777.72	39933.34
777.90	40519.06
778.08	40986.00
778.27	40304.02
778.45	40494.49
778.63	40504.73
778.81	40273.31
779.00	40981.90
779.18	40811.92
779.36	40865.17
779.54	40433.05
779.73	40543.64
779.91	40555.93
780.09	40689.04
780.27	40824.21
780.46	40897.94
780.64	40873.36
780.82	41072.01
781.00	40723.86
781.19	40928.66
781.37	41233.80
781.55	41141.64
781.73	41481.61
781.91	40691.09
782.10	41024.91
782.28	41246.09
782.46	41049.49
782.64	41520.52
782.82	41096.59
783.01	41518.47
783.19	41416.07
783.37	41244.04
783.55	41139.60
783.74	41966.98
783.92	41213.32
784.10	41426.31
784.28	41469.32
784.46	41145.74
784.64	41272.71
784.83	41313.67
785.01	41549.19
785.19	41649.54
785.37	40990.09
785.55	41117.07
785.74	41069.97
785.92	40953.23
786.10	41411.98
786.28	41125.26
786.46	41158.03
786.64	40940.94
786.83	41325.96
787.01	41354.63
787.19	41442.70
787.37	41198.99
787.55	40672.66
787.74	41096.59
787.92	41063.82
788.10	40910.22
788.28	40912.27
788.46	41080.21
788.64	40832.40
788.82	40951.18
789.01	40879.50
789.19	40607.12
789.37	40662.42
789.55	40758.67
789.73	40353.18
789.91	40562.07
790.09	40574.36
790.28	40449.43
790.46	40218.01
790.64	40947.09
790.82	40267.16
791.00	40246.68
791.18	40082.84
791.36	39798.18
791.55	40209.82
791.73	39908.77
791.91	39667.11
792.09	39857.57
792.27	39824.80
792.45	39732.64
792.63	39511.46
792.81	39646.63
793.00	39507.37
793.18	39466.41
793.36	39390.63
793.54	39275.94
793.72	39226.79
793.90	39132.59
794.08	38905.26
794.26	39259.56
794.44	39155.11
794.62	38708.66
794.81	39060.91
794.99	38722.99
795.17	38987.18
795.35	39151.02
795.53	38722.99
795.71	39038.38
795.89	38366.65
796.07	38428.09
796.25	38370.74
796.43	38141.37
796.61	37719.49
796.80	37772.74
796.98	38294.97
797.16	38018.49
797.34	38190.52
797.52	37821.89
797.70	38006.20
797.88	37752.26
798.06	37262.79
798.24	37524.93
798.42	37563.84
798.60	37572.03
798.78	37090.76
798.96	37440.96
799.14	37379.53
799.32	37107.15
799.51	36845.01
799.69	37295.56
799.87	37125.58
800.05	36627.92
800.23	37105.10
800.41	36789.71
800.59	36785.61
800.77	36576.72
800.95	36429.27
801.13	36720.08
801.31	35892.70
801.49	36396.50
801.67	36007.39
801.85	36142.55
802.03	35755.49
802.21	35956.19
802.39	35886.56
802.57	35907.04
802.75	35669.47
802.93	36019.67
803.11	35620.32
803.29	35679.71
803.47	35294.69
803.65	35347.94
803.83	35339.75
804.01	35272.17
804.19	35210.73
804.37	35048.94
804.55	34883.05
804.73	34723.31
804.91	35050.99
805.09	34936.30
805.27	34788.85
805.45	35005.93
805.63	34772.46
805.81	34645.49
805.99	34825.71
806.17	35022.31
806.35	34737.65
806.53	34375.16
806.71	34670.06
806.89	34743.79
807.07	34524.66
807.25	34555.38
807.43	34031.10
807.61	34465.27
807.79	33525.25
807.97	33957.37
808.15	33838.59
808.33	33740.29
808.51	33578.50
808.69	33633.79
808.87	33404.42
809.05	33351.17
809.23	33232.39
809.41	33080.84
809.59	33220.10
809.77	33969.66
809.95	33273.35
810.13	32787.98
810.31	32927.24
810.49	33080.84
810.67	33138.18
810.84	33183.24
811.02	32826.89
811.20	32747.02
811.38	32790.03
811.56	32511.50
811.74	32538.13
811.92	32730.64
812.10	32482.83
812.28	32830.99
812.46	32376.34
812.64	32226.84
812.82	32679.44
813.00	32476.69
813.18	32247.32
813.36	32300.56
813.53	32056.85
813.71	32003.61
813.89	32214.55
814.07	32149.01
814.25	32169.49
814.43	31807.00
814.61	31346.21
814.79	31428.13
814.97	31714.84
815.15	31852.06
815.33	31129.12
815.50	31583.77
815.68	31608.35
815.86	31428.13
816.04	31370.79
816.22	31163.94
816.40	31110.69
816.58	31204.90
816.76	30975.53
816.94	30778.92
817.11	31002.15
817.29	31114.79
817.47	30858.79
817.65	30752.30
817.83	30678.57
818.01	30768.68
818.19	30789.16
818.37	30883.37
818.54	30484.01
818.72	30377.52
818.90	30598.70
819.08	30582.32
819.26	30369.33
819.44	30060.09
819.62	30342.70
819.80	30238.26
819.97	30221.87
820.15	29978.17
820.33	29924.92
820.51	30080.56
820.69	29474.37
820.87	30086.71
821.05	30066.23
821.22	29851.19
821.40	29902.39
821.58	29496.89
821.76	29601.34
821.94	29595.20
822.12	29722.17
822.29	29697.59
822.47	29621.82
822.65	29830.71
822.83	29627.96
823.01	29525.57
823.19	29445.69
823.36	29283.91
823.54	29449.79
823.72	29210.18
823.90	28950.09
824.08	29208.13
824.25	29077.06
824.43	29122.12
824.61	28872.26
824.79	29023.81
824.97	29068.87
825.15	29101.64
825.32	28976.71
825.50	28595.79
825.68	28765.77
825.86	28845.64
826.04	28862.02
826.21	28178.00
826.39	28915.27
826.57	28468.81
826.75	28651.08
826.93	28038.74
827.10	28319.31
827.28	28214.87
827.46	28403.28
827.64	28233.30
827.81	28415.57
827.99	28302.93
828.17	28249.68
828.35	27723.35
828.53	27778.65
828.70	27739.74
828.88	28018.26
829.06	27838.04
829.24	28251.73
829.41	27770.46
829.59	27766.36
829.77	27803.22
829.95	27690.59
830.12	27651.67
830.30	27666.01
830.48	27850.33
830.66	27362.91
830.84	27455.07
831.01	27743.83
831.19	27582.04
831.37	27713.11
831.55	27147.87
831.72	27256.42
831.90	27254.37
832.08	27358.81
832.25	27289.18
832.43	27367.01
832.61	27186.79
832.79	26912.36
832.96	27000.42
833.14	26902.12
833.32	27453.02
833.50	27274.85
833.67	26955.36
833.85	27207.26
834.03	26492.52
834.20	26824.29
834.38	26650.22
834.56	26873.45
834.74	26955.36
834.91	26873.45
835.09	26345.07
835.27	26519.15
835.44	26734.18
835.62	26056.31
835.80	26168.94
835.98	26435.18
836.15	26291.82
836.33	26551.91
836.51	26472.04
836.68	26211.95
836.86	26265.20
837.04	26304.11
837.21	26271.34
837.39	26001.01
837.57	26107.51
837.75	26351.21
837.92	25845.37
838.10	25863.80
838.28	25880.18
838.45	25960.05
838.63	25392.76
838.81	25849.46
838.98	25693.82
839.16	25726.58
839.34	25347.71
839.51	25691.77
839.69	25529.98
839.87	25470.59
840.04	25374.33
840.22	25751.16
840.40	25595.51
840.57	25036.42
840.75	25486.97
840.93	24884.87
841.10	25345.66
841.28	25646.71
841.46	25454.20
841.63	25368.19
841.81	25089.67
841.98	25163.39
842.16	25075.33
842.34	25054.85
842.51	24512.14
842.69	25437.82
842.87	24925.83
843.04	25177.73
843.22	24751.75
843.40	24817.29
843.57	24583.82
843.75	24624.78
843.92	24565.39
844.10	25026.18
844.28	24708.74
844.45	24575.62
844.63	24647.30
844.81	24630.92
844.98	24790.66
845.16	24471.18
845.33	24563.34
845.51	24536.71
845.69	24370.83
845.86	24280.72
846.04	24401.55
846.21	24405.64
846.39	24407.69
846.57	24254.09
846.74	24290.96
846.92	24204.94
847.09	24139.41
847.27	23873.17
847.45	24168.08
847.62	24008.34
847.80	23938.71
847.97	23844.50
848.15	23735.96
848.32	24098.45
848.50	23789.20
848.68	23717.53
848.85	23795.35
849.03	23465.63
849.20	23613.08
849.38	24063.63
849.56	23496.35
849.73	23084.70
849.91	23611.03
850.08	23864.98
850.26	23518.87
850.43	23512.73
850.61	23352.99
850.78	22914.72
850.96	23342.75
851.14	23273.12
851.31	23209.63
851.49	23137.95
851.66	23445.15
851.84	23166.62
852.01	23326.36
852.19	23105.18
852.36	23135.90
852.54	22945.44
852.71	23271.07
852.89	22877.86
853.07	22906.53
853.24	23213.73
853.42	22845.09
853.59	22982.31
853.77	22771.36
853.94	23008.93
854.12	22976.16
854.29	22793.89
854.47	22769.32
854.64	22462.12
854.82	22625.96
854.99	22857.38
855.17	22449.83
855.34	22556.33
855.52	22490.79
855.69	22607.53
855.87	22535.85
856.04	22365.87
856.22	22533.80
856.39	22019.76
856.57	22429.35
856.74	22337.20
856.92	22306.48
857.09	22148.78
857.27	21802.68
857.44	22089.39
857.62	22089.39
857.79	22240.94
857.97	21829.30
858.14	22056.62
858.32	22193.84
858.49	22167.21
858.67	21986.99
858.84	22073.01
859.02	21628.60
859.19	21907.12
859.37	21685.94
859.54	21843.63
859.72	21753.52
859.89	21538.49
860.06	21751.48
860.24	21700.28
860.41	21440.18
860.59	21558.97
860.76	21601.97
860.94	21573.30
861.11	21204.67
861.29	21458.62
861.46	21401.27
861.64	21235.39
861.81	20930.24
861.98	21038.78
862.16	20881.09
862.33	21124.80
862.51	21077.69
862.68	21128.89
862.86	20958.91
863.03	21053.12
863.21	20846.27
863.38	20881.09
863.55	20747.97
863.73	20735.68
863.90	20846.27
864.08	20864.71
864.25	20907.71
864.43	20963.01
864.60	20649.67
864.77	20553.41
864.95	20637.38
865.12	20387.53
865.30	20616.90
865.47	20543.17
865.64	20682.44
865.82	20590.28
865.99	20545.22
866.17	20551.37
866.34	20432.58
866.51	20240.08
866.69	20438.73
866.86	20481.74
867.04	20154.06
867.21	20307.66
867.38	19863.25
867.56	20098.77
867.73	19926.74
867.91	19939.02
868.08	19822.29
868.25	19994.32
868.43	19803.86
868.60	19746.51
868.78	19672.79
868.95	19992.27
869.12	19910.35
869.30	19660.50
869.47	19838.67
869.64	19379.93
869.82	19838.67
869.99	19562.20
870.16	19674.84
870.34	19564.25
870.51	19777.23
870.69	19375.83
870.86	19465.94
871.03	19599.06
871.21	19232.47
871.38	19515.09
871.55	19404.50
871.73	18992.86
871.90	19168.99
872.07	19125.98
872.25	18923.23
872.42	19121.88
872.59	18874.08
872.77	19082.97
872.94	18939.62
873.11	18943.71
873.29	19187.42
873.46	18945.76
873.63	18927.33
873.81	18933.47
873.98	18448.10
874.15	18632.42
874.33	18460.39
874.50	18255.59
874.67	18468.58
874.85	18501.35
875.02	18394.86
875.19	18364.14
875.37	18429.67
875.54	18439.91
875.71	18093.80
875.88	18247.40
876.06	18237.16
876.23	18226.92
876.40	18239.21
876.58	18032.36
876.75	18124.52
876.92	18009.84
877.10	17868.53
877.27	17874.67
877.44	17940.21
877.61	17907.44
877.79	17778.42
877.96	17592.05
878.13	17700.59
878.31	17661.68
878.48	17518.32
878.65	17639.15
878.82	17585.91
879.00	17567.48
879.17	17540.85
879.34	17641.20
879.51	17170.17
879.69	17663.73
879.86	17340.15
880.03	17454.84
880.21	17354.49
880.38	17647.35
880.55	17506.04
880.72	17223.42
880.90	17458.93
881.07	17168.12
881.24	16987.90
881.41	17135.35
881.59	17121.02
881.76	17129.21
881.93	17051.39
882.10	16826.11
882.28	16910.08
882.45	16989.95
882.62	16801.54
882.79	17000.19
882.96	16508.68
883.14	16910.08
883.31	16928.51
883.48	16541.44
883.65	16828.16
883.83	17080.06
884.00	16748.29
884.17	16662.27
884.34	16654.08
884.51	16641.79
884.69	16869.12
884.86	16740.10
885.03	16523.01
885.20	16506.63
885.38	16439.05
885.55	16387.85
885.72	16471.81
885.89	16316.17
886.06	16295.69
886.24	16369.41
886.41	16437.00
886.58	16467.72
886.75	16576.26
886.92	16281.35
887.10	16471.81
887.27	16195.34
887.44	16250.63
887.61	16457.48
887.78	16434.95
887.95	16428.81
888.13	16043.79
888.30	16140.04
888.47	16129.80
888.64	16154.38
888.81	16021.26
888.99	16000.78
889.16	15935.24
889.33	15843.09
889.50	15990.54
889.67	16115.47
889.84	15812.37
890.01	15664.91
890.19	15761.17
890.36	15783.70
890.53	15787.79
890.70	15757.07
890.87	15834.89
891.04	15539.99
891.22	15576.85
891.39	15449.88
891.56	15355.67
891.73	15630.10
891.90	15570.71
892.07	15421.20
892.24	15550.23
892.42	15283.99
892.59	15224.60
892.76	15267.61
892.93	15310.61
893.10	15400.72
893.27	15245.08
893.44	15423.25
893.61	15257.37
893.79	15476.50
893.96	15071.00
894.13	15480.60
894.30	15410.96
894.47	15331.09
894.64	15509.27
894.81	15261.46
894.98	15120.15
895.15	15157.02
895.33	15173.40
895.50	15144.73
895.67	15251.22
895.84	15118.11
896.01	15197.98
896.18	14890.78
896.35	15150.87
896.52	15423.25
896.69	14890.78
896.86	14972.70
897.04	15052.57
897.21	14860.06
897.38	14911.26
897.55	14837.53
897.72	15013.66
897.89	15015.71
898.06	14888.73
898.23	14829.34
898.40	14966.56
898.57	15058.71
898.74	15079.19
898.91	14987.04
899.08	15050.52
899.26	15060.76
899.43	15163.16
899.60	14786.33
899.77	14933.79
899.94	14808.86
900.11	14769.95
900.28	15116.06
900.45	14948.12
900.62	14950.17
900.79	15087.39
900.96	15068.95
901.13	14894.88
901.30	14866.21
901.47	14657.31
901.64	15042.33
901.81	15027.99
901.98	15130.39
902.15	15191.83
902.32	14726.94
902.49	14782.24
902.66	14937.88
902.83	15101.72
903.01	15019.80
903.18	14954.27
903.35	15124.25
903.52	14782.24
903.69	14989.08
903.86	14958.36
904.03	14925.60
904.20	15095.58
904.37	15060.76
904.54	14982.94
904.71	14772.00
904.88	14962.46
905.05	14886.68
905.22	14952.22
905.39	14831.39
905.56	14823.20
905.73	14726.94
905.90	14984.99
906.07	14941.98
906.24	14806.81
906.41	15081.24
906.58	14898.97
906.75	14995.23
906.92	14843.68
907.09	14737.18
907.26	14821.15
907.43	14911.26
907.60	14800.67
907.77	15120.15
907.93	14909.21
908.10	14452.52
908.27	14778.14
908.44	14587.68
908.61	14642.98
908.78	14909.21
908.95	14896.92
909.12	14741.28
909.29	14929.69
909.46	14772.00
909.63	14743.33
909.80	14827.29
909.97	14812.96
910.14	14892.83
910.31	14774.05
910.48	14659.36
910.65	14792.48
910.82	14739.23
910.99	14776.09
911.16	14630.69
911.33	14563.11
911.50	14593.83
911.66	14477.09
911.83	14683.94
912.00	14599.97
912.17	14378.79
912.34	14452.52
912.51	14294.82
912.68	14419.75
912.85	14391.08
913.02	14221.10
913.19	14276.39
913.36	14415.65
913.53	14612.26
913.70	14008.11
913.86	14468.90
914.03	14327.59
914.20	14241.57
914.37	14264.10
914.54	14081.83
914.71	14155.56
914.88	14038.83
915.05	14231.33
915.22	14110.50
915.39	14143.27
915.55	14081.83
915.72	13889.32
915.89	14004.01
916.06	13727.53
916.23	13823.79
916.40	13705.01
916.57	13758.25
916.74	13545.27
916.91	13809.45
917.07	13535.03
917.24	13553.46
917.41	13604.66
917.58	13625.14
917.75	13694.77
917.92	13512.50
918.09	13555.51
918.26	13549.36
918.42	13436.72
918.59	13422.39
918.76	13424.44
918.93	13004.60
919.10	13283.13
919.27	13283.13
919.44	13242.17
919.60	13229.88
919.77	13203.25
919.94	13059.90
920.11	13107.00
920.28	13162.30
920.45	12963.64
920.61	12801.85
920.78	12877.63
920.95	12621.63
921.12	12908.35
921.29	12840.76
921.46	12627.78
921.62	12511.04
921.79	12517.18
921.96	12613.44
922.13	12468.03
922.30	12296.00
922.47	12529.47
922.63	12494.66
922.80	12601.15
922.97	12564.29
923.14	12296.00
923.31	12341.06
923.47	12250.95
923.64	12470.08
923.81	11956.04
923.98	12271.43
924.15	11861.84
924.32	12166.98
924.48	12052.30
924.65	11814.73
924.82	12095.30
924.99	11849.55
925.15	11865.93
925.32	11984.71
925.49	11620.17
925.66	11628.37
925.83	11601.74
925.99	11646.80
926.16	11673.42
926.33	11458.39
926.50	11290.45
926.67	11689.81
926.83	11239.25
927.00	11302.74
927.17	11413.33
927.34	11429.71
927.50	11224.92
927.67	11452.24
927.84	11323.22
928.01	11110.23
928.17	11075.42
928.34	11038.55
928.51	10772.32
928.68	11112.28
928.84	10880.86
929.01	10721.12
929.18	10893.15
929.35	10760.03
929.51	10717.02
929.68	10522.46
929.85	10772.32
930.02	10516.32
930.18	10518.37
930.35	10544.99
930.52	10469.22
930.69	10407.78
930.85	10522.46
931.02	10352.48
931.19	10383.20
931.36	10221.41
931.52	10084.20
931.69	10235.75
931.86	10037.09
932.02	10157.92
932.19	10014.57
932.36	9871.21
932.53	10006.38
932.69	9709.42
932.86	9893.74
933.03	9863.02
933.19	9594.73
933.36	9678.70
933.53	9598.83
933.70	9738.09
933.86	9570.16
934.03	9615.21
934.20	9502.58
934.36	9564.01
934.53	9330.55
934.70	9228.15
934.86	9222.00
935.03	9142.13
935.20	9152.37
935.36	8920.95
935.53	8806.27
935.70	9013.11
935.86	8744.83
936.03	8802.17
936.20	8580.99
936.36	8583.04
936.53	8669.05
936.70	8396.67
936.86	8454.02
937.03	8439.68
937.20	8263.55
937.36	8347.52
937.53	7907.21
937.70	7915.40
937.86	7860.10
938.03	7896.97
938.20	8042.37
938.36	7726.99
938.53	7667.60
938.70	7466.89
938.86	7634.83
939.03	7286.67
939.20	7397.26
939.36	7520.14
939.53	7249.81
939.70	7325.58
939.86	6952.85
940.03	6856.60
940.19	6696.86
940.36	6856.60
940.53	6971.29
940.69	6586.27
940.86	6731.67
941.03	6461.34
941.19	6258.59
941.36	6512.54
941.52	6428.57
941.69	6332.32
941.86	6344.61
942.02	6049.70
942.19	6287.26
942.35	6088.61
942.52	5922.73
942.69	6107.04
942.85	6043.56
943.02	5867.43
943.18	5865.38
943.35	5900.20
943.52	5883.81
943.68	5767.08
943.85	5633.96
944.01	5652.39
944.18	5566.38
944.35	5736.36
944.51	5709.74
944.68	5490.60
944.84	5498.80
945.01	5590.95
945.17	5666.73
945.34	5484.46
945.51	5509.04
945.67	5531.56
945.84	5482.41
946.00	5306.29
946.17	5359.53
946.33	5412.78
946.50	5420.97
946.67	5459.88
946.83	5453.74
947.00	5400.49
947.16	5418.93
947.33	5275.57
947.49	5162.93
947.66	5285.81
947.82	5375.92
947.99	5343.15
948.16	5533.61
948.32	5228.46
948.49	5330.86
948.65	5296.05
948.82	5418.93
948.98	5388.21
949.15	5181.36
949.31	5380.01
949.48	5312.43
949.64	5287.86
949.81	5218.22
949.97	5195.70
950.14	5275.57
950.30	5289.90
950.47	5431.21
950.63	5328.81
950.80	5384.11
950.96	5425.07
951.13	5384.11
951.30	5371.82
951.46	5382.06
951.63	5597.10
951.79	5328.81
951.96	5418.93
952.12	5203.89
952.29	5345.20
952.45	5480.36
952.62	5451.69
952.78	5289.90
952.94	5390.25
953.11	5445.55
953.27	5437.36
953.44	5609.39
953.60	5416.88
953.77	5562.28
953.93	5515.18
954.10	5500.84
954.26	5423.02
954.43	5347.25
954.59	5519.28
954.76	5607.34
954.92	5492.65
955.09	5470.12
955.25	5228.46
955.42	5640.11
955.58	5586.86
955.75	5517.23
955.91	5590.95
956.07	5502.89
956.24	5640.11
956.40	5425.07
956.57	5619.63
956.73	5623.72
956.90	5545.90
957.06	5459.88
957.23	5685.16
957.39	5476.27
957.56	5521.32
957.72	5494.70
957.88	5509.04
958.05	5576.62
958.21	5638.06
958.38	5556.14
958.54	5531.56
958.71	5670.83
958.87	5539.76
959.03	5590.95
959.20	5547.95
959.36	5525.42
959.53	5484.46
959.69	5359.53
959.85	5658.54
960.02	5599.15
960.18	5521.32
960.35	5578.67
960.51	5576.62
960.68	5484.46
960.84	5619.63
961.00	5517.23
961.17	5468.08
961.33	5441.45
961.50	5461.93
961.66	5593.00
961.82	5513.13
961.99	5447.60
962.15	5574.57
962.31	5486.51
962.48	5500.84
962.64	5640.11
962.81	5504.94
962.97	5631.91
963.13	5396.40
963.30	5435.31
963.46	5341.10
963.62	5509.04
963.79	5459.88
963.95	5482.41
964.12	5476.27
964.28	5369.77
964.44	5357.49
964.61	5529.52
964.77	5545.90
964.93	5455.79
965.10	5463.98
965.26	5316.53
965.42	5504.94
965.59	5398.45
965.75	5459.88
965.92	5468.08
966.08	5406.64
966.24	5414.83
966.41	5320.62
966.57	5410.73
966.73	5396.40
966.90	5392.30
967.06	5271.47
967.22	5367.73
967.39	5345.20
967.55	5257.14
967.71	5291.95
967.88	5423.02
968.04	5431.21
968.20	5263.28
968.37	5267.38
968.53	5228.46
968.69	5167.03
968.85	5412.78
969.02	5330.86
969.18	5238.70
969.34	5228.46
969.51	5148.59
969.67	5384.11
969.83	5146.55
970.00	5257.14
970.16	5238.70
970.32	5140.40
970.48	5269.42
970.65	5121.97
970.81	5109.68
970.97	5156.79
971.14	5074.87
971.30	5271.47
971.46	5111.73
971.63	5083.06
971.79	5214.13
971.95	5111.73
972.11	5033.91
972.28	5083.06
972.44	5255.09
972.60	5021.62
972.76	4894.65
972.93	5060.53
973.09	5009.33
973.25	5097.39
973.42	5009.33
973.58	5011.38
973.74	4847.54
973.90	4939.70
974.07	4925.36
974.23	4921.27
974.39	4945.84
974.55	4978.61
974.72	4812.73
974.88	4753.34
975.04	4964.28
975.20	4841.40
975.37	4773.82
975.53	4816.82
975.69	4827.06
975.85	4882.36
976.01	4906.93
976.18	4890.55
976.34	4884.41
976.50	4849.59
976.66	4896.69
976.83	4853.69
976.99	4700.09
977.15	4784.06
977.31	4710.33
977.47	4712.38
977.64	4702.14
977.80	4689.85
977.96	4691.90
978.12	4722.62
978.29	4659.13
978.45	4640.70
978.61	4648.89
978.77	4751.29
978.93	4564.92
979.10	4718.52
979.26	4644.79
979.42	4620.22
979.58	4546.49
979.74	4560.83
979.91	4605.88
980.07	4544.44
980.23	4571.07
980.39	4597.69
980.55	4382.65
980.71	4513.72
980.88	4509.63
981.04	4413.37
981.20	4411.32
981.36	4474.81
981.52	4433.85
981.68	4288.45
981.85	4595.64
982.01	4276.16
982.17	4444.09
982.33	4407.23
982.49	4452.28
982.65	4358.08
982.82	4507.58
982.98	4372.41
983.14	4407.23
983.30	4282.30
983.46	4415.42
983.62	4386.75
983.79	4276.16
983.95	4386.75
984.11	4329.41
984.27	4310.97
984.43	4358.08
984.59	4265.92
984.75	4212.67
984.91	4227.01
985.08	4267.97
985.24	4179.90
985.40	4138.94
985.56	4190.14
985.72	4272.06
985.88	4222.91
986.04	4079.55
986.20	4081.60
986.37	4069.31
986.53	4018.11
986.69	4073.41
986.85	4097.99
987.01	4151.23
987.17	4095.94
987.33	4052.93
987.49	4065.22
987.65	4155.33
987.82	4028.35
987.98	4143.04
988.14	4087.75
988.30	4151.23
988.46	3921.86
988.62	4155.33
988.78	3989.44
988.94	4009.92
989.10	3895.24
989.26	3968.96
989.42	3827.65
989.59	3930.05
989.75	3841.99
989.91	3868.61
990.07	3848.13
990.23	3735.50
990.39	3784.65
990.55	3893.19
990.71	3815.37
990.87	3784.65
991.03	3854.28
991.19	3745.73
991.35	3872.71
991.51	3829.70
991.67	3928.00
991.83	3827.65
992.00	3737.54
992.16	3831.75
992.32	3788.74
992.48	3874.76
992.64	3624.90
992.80	3751.88
992.96	3715.02
993.12	3755.97
993.28	3839.94
993.44	3841.99
993.60	3786.69
993.76	3702.73
993.92	3661.77
994.08	3733.45
994.24	3575.75
994.40	3669.96
994.56	3678.15
994.72	3577.80
994.88	3649.48
995.04	3547.08
995.20	3590.09
995.36	3518.41
995.52	3579.85
995.68	3559.37
995.84	3502.03
996.00	3661.77
996.16	3524.55
996.32	3463.12
996.48	3559.37
996.64	3608.52
996.80	3428.30
996.96	3448.78
997.12	3381.20
997.28	3385.29
997.44	3424.20
997.60	3477.45
997.76	3409.87
997.92	3420.11
998.08	3481.55
998.24	3362.76
998.40	3354.57
998.56	3485.64
998.72	3403.72
998.88	3395.53
999.04	3205.07
999.20	3387.34
999.36	3346.38
999.52	3428.30
999.68	3352.52
999.84	3444.68
1000.00	3317.71
1000.16	3379.15
1000.32	3293.13
1000.48	3430.35
1000.64	3239.89
1000.80	3295.18
1000.95	3018.71
1001.11	3299.28
1001.27	3309.52
1001.43	3344.33
1001.59	3143.63
1001.75	3061.71
1001.91	3272.65
1002.07	3135.44
1002.23	3166.16
1002.39	3170.26
1002.55	3229.65
1002.71	3125.20
1002.87	3129.30
1003.03	3155.92
1003.19	3108.82
1003.34	3172.30
1003.50	3186.64
1003.66	3153.87
1003.82	3168.21
1003.98	3061.71
1004.14	3078.10
1004.30	3041.23
1004.46	3008.47
1004.62	3016.66
1004.78	3069.91
1004.94	3121.10
1005.09	3114.96
1005.25	3080.14
1005.41	3030.99
1005.57	3026.90
1005.73	3020.75
1005.89	2977.75
1006.05	3035.09
1006.21	2973.65
1006.37	3002.32
1006.52	2873.30
1006.68	2863.06
1006.84	3112.91
1007.00	2899.92
1007.16	3067.86
1007.32	2965.46
1007.48	2965.46
1007.64	2871.25
1007.79	2834.39
1007.95	2748.37
1008.11	3002.32
1008.27	2899.92
1008.43	2854.87
1008.59	2838.48
1008.75	2861.01
1008.91	2932.69
1009.06	2863.06
1009.22	2914.26
1009.38	2801.62
1009.54	2869.20
1009.70	2846.68
1009.86	2719.70
1010.01	2955.22
1010.17	2742.23
1010.33	2797.53
1010.49	2791.38
1010.65	2756.57
1010.81	2682.84
1010.96	2764.76
1011.12	2742.23
1011.28	2697.17
1011.44	2846.68
1011.60	2721.75
1011.76	2703.32
1011.91	2742.23
1012.07	2639.83
1012.23	2611.16
1012.39	2697.17
1012.55	2703.32
1012.71	2691.03
1012.86	2674.65
1013.02	2736.09
1013.18	2691.03
1013.34	2705.37
1013.50	2697.17
1013.65	2592.73
1013.81	2566.10
1013.97	2625.50
1014.13	2598.87
1014.29	2664.41
1014.44	2750.42
1014.60	2545.63
1014.76	2570.20
1014.92	2578.39
1015.07	2600.92
1015.23	2535.39
1015.39	2633.69
1015.55	2553.82
1015.71	2539.48
1015.86	2408.41
1016.02	2457.56
1016.18	2516.95
1016.34	2553.82
1016.49	2498.52
1016.65	2549.72
1016.81	2508.76
1016.97	2535.39
1017.12	2562.01
1017.28	2486.23
1017.44	2404.32
1017.60	2297.82
1017.75	2471.90
1017.91	2400.22
1018.07	2463.71
1018.23	2412.51
1018.38	2412.51
1018.54	2385.88
1018.70	2424.80
1018.86	2461.66
1019.01	2367.45
1019.17	2351.07
1019.33	2498.52
1019.49	2492.38
1019.64	2469.85
1019.80	2428.89
1019.96	2492.38
1020.12	2447.32
1020.27	2248.67
1020.43	2346.97
1020.59	2463.71
1020.74	2435.03
1020.90	2400.22
1021.06	2324.44
1021.22	2320.35
1021.37	2297.82
1021.53	2297.82
1021.69	2404.32
1021.84	2287.58
1022.00	2326.49
1022.16	2285.53
1022.31	2389.98
1022.47	2412.51
1022.63	2314.20
1022.79	2244.57
1022.94	2322.40
1023.10	2406.36
1023.26	2297.82
1023.41	2293.72
1023.57	2240.48
1023.73	2299.87
1023.88	2254.81
1024.04	2209.76
1024.20	2201.57
1024.35	2252.77
1024.51	2260.96
1024.67	2269.15
1024.82	2248.67
1024.98	2217.95
1025.14	2277.34
1025.29	2263.01
1025.45	2246.62
1025.61	2205.66
1025.76	2209.76
1025.92	2197.47
1026.08	2310.11
1026.23	2166.75
1026.39	2217.95
1026.55	2203.61
1026.70	2191.33
1026.86	2170.85
1027.02	2277.34
1027.17	2107.36
1027.33	2289.63
1027.48	2158.56
1027.64	2232.29
1027.80	2105.31
1027.95	2248.67
1028.11	2125.79
1028.27	2119.65
1028.42	2168.80
1028.58	2119.65
1028.73	2058.21
1028.89	2076.64
1029.05	2148.32
1029.20	2099.17
>>>>>End Processed Spectral Data<<<<<
