SpectraSuite Data File
++++++++++++++++++++++++++++++++++++
Date: Fri Jun 02 14:49:31 CEST 2017
User: INFO_000
Dark Spectrum Present: No
Reference Spectrum Present: No
Number of Sampled Component Spectra: 1
Spectrometers: USB4H00879
Integration Time (usec): 80000 (USB4H00879)
Spectra Averaged: 1 (USB4H00879)
Boxcar Smoothing: 0 (USB4H00879)
Correct for Electrical Dark: No (USB4H00879)
Strobe/Lamp Enabled: No (USB4H00879)
Correct for Detector Non-linearity: No (USB4H00879)
Correct for Stray Light: No (USB4H00879)
Number of Pixels in Processed Spectrum: 3648
>>>>>Begin Processed Spectral Data<<<<<
345.13	1306.60
345.34	1306.60
345.56	1306.60
345.78	1314.80
345.99	1273.84
346.21	1757.16
346.42	1716.20
346.64	1615.85
346.86	1847.27
347.07	1669.09
347.29	1673.19
347.50	1595.37
347.72	1740.77
347.94	1769.44
348.15	1576.94
348.37	1589.22
348.59	1687.53
348.80	1583.08
349.02	1804.26
349.23	1871.84
349.45	1798.12
349.67	1880.04
349.88	1755.11
350.10	1957.86
350.31	1845.22
350.53	1773.54
350.75	1984.48
350.96	1781.73
351.18	1843.17
351.39	1871.84
351.61	1695.72
351.82	1898.47
352.04	1853.41
352.26	1781.73
352.47	1959.91
352.69	1951.71
352.90	1744.87
353.12	1857.51
353.34	1871.84
353.55	1863.65
353.77	1912.80
353.98	1824.74
354.20	1869.80
354.41	1867.75
354.63	1869.80
354.85	2076.64
355.06	1882.08
355.28	1837.03
355.49	1953.76
355.71	1873.89
355.92	1894.37
356.14	1953.76
356.35	1855.46
356.57	1898.47
356.79	1845.22
357.00	1886.18
357.22	1929.19
357.43	1849.32
357.65	1941.47
357.86	1882.08
358.08	1902.56
358.29	1933.28
358.51	1984.48
358.72	1980.39
358.94	1906.66
359.16	1927.14
359.37	1867.75
359.59	1941.47
359.80	1994.72
360.02	1961.95
360.23	1959.91
360.45	1986.53
360.66	1949.67
360.88	1779.68
361.09	1918.95
361.31	2033.63
361.52	1986.53
361.74	1994.72
361.95	2095.07
362.17	1908.71
362.38	2099.17
362.60	2015.20
362.81	1978.34
363.03	1937.38
363.24	1998.82
363.46	2066.40
363.67	2076.64
363.89	2021.35
364.10	2009.06
364.32	2050.02
364.53	2109.41
364.75	1859.56
364.96	1978.34
365.18	1920.99
365.39	2017.25
365.61	1964.00
365.82	2101.22
366.04	1998.82
366.25	2041.82
366.47	2056.16
366.68	2029.54
366.90	1984.48
367.11	2052.06
367.33	1994.72
367.54	2097.12
367.76	1970.15
367.97	2099.17
368.19	2062.30
368.40	2101.22
368.62	1970.15
368.83	1920.99
369.05	2074.59
369.26	1916.90
369.48	1970.15
369.69	2019.30
369.91	2011.11
370.12	1982.43
370.33	2170.85
370.55	1968.10
370.76	2066.40
370.98	2131.94
371.19	2058.21
371.41	2052.06
371.62	2009.06
371.84	2029.54
372.05	2133.98
372.27	2064.35
372.48	2021.35
372.69	2205.66
372.91	2080.74
373.12	2127.84
373.34	2109.41
373.55	2115.55
373.77	2138.08
373.98	2095.07
374.20	2181.09
374.41	2195.42
374.62	2084.83
374.84	2127.84
375.05	2181.09
375.27	2152.42
375.48	2170.85
375.70	2140.13
375.91	2236.38
376.12	2254.81
376.34	2076.64
376.55	2189.28
376.77	2230.24
376.98	2113.50
377.19	2140.13
377.41	2144.22
377.62	2222.05
377.84	2234.33
378.05	2306.01
378.27	2197.47
378.48	2279.39
378.69	2295.77
378.91	2234.33
379.12	2248.67
379.34	2285.53
379.55	2312.16
379.76	2246.62
379.98	2248.67
380.19	2277.34
380.41	2220.00
380.62	2258.91
380.83	2244.57
381.05	2287.58
381.26	2334.68
381.47	2293.72
381.69	2224.09
381.90	2387.93
382.12	2295.77
382.33	2371.55
382.54	2314.20
382.76	2211.81
382.97	2377.69
383.19	2344.92
383.40	2334.68
383.61	2330.59
383.83	2336.73
384.04	2279.39
384.25	2412.51
384.47	2406.36
384.68	2303.96
384.89	2248.67
385.11	2283.49
385.32	2332.64
385.54	2344.92
385.75	2367.45
385.96	2371.55
386.18	2381.79
386.39	2402.27
386.60	2396.12
386.82	2338.78
387.03	2355.16
387.24	2529.24
387.46	2455.51
387.67	2359.26
387.88	2549.72
388.10	2502.62
388.31	2504.67
388.52	2478.04
388.74	2566.10
388.95	2469.85
389.16	2572.25
389.38	2500.57
389.59	2537.43
389.80	2592.73
390.02	2510.81
390.23	2709.46
390.44	2486.23
390.66	2580.44
390.87	2545.63
391.08	2506.71
391.30	2764.76
391.51	2666.46
391.72	2697.17
391.94	2699.22
392.15	2648.02
392.36	2562.01
392.58	2553.82
392.79	2666.46
393.00	2703.32
393.22	2697.17
393.43	2705.37
393.64	2803.67
393.85	2807.77
394.07	2766.81
394.28	2795.48
394.49	2727.89
394.71	2727.89
394.92	2844.63
395.13	2637.78
395.35	2756.57
395.56	2721.75
395.77	2750.42
395.98	2828.24
396.20	2820.05
396.41	2770.90
396.62	2895.83
396.84	2721.75
397.05	2752.47
397.26	2893.78
397.47	2889.68
397.69	2822.10
397.90	3069.91
398.11	2904.02
398.32	2820.05
398.54	2842.58
398.75	2836.44
398.96	2934.74
399.18	3151.82
399.39	2883.54
399.60	2990.03
399.81	3016.66
400.03	2895.83
400.24	3217.36
400.45	2953.17
400.66	3123.15
400.88	2899.92
401.09	3147.73
401.30	2891.73
401.51	3178.45
401.73	3106.77
401.94	3121.10
402.15	3110.86
402.36	3012.56
402.58	3127.25
402.79	3147.73
403.00	3170.26
403.21	3137.49
403.43	3123.15
403.64	3295.18
403.85	3102.67
404.06	3297.23
404.27	3147.73
404.49	3133.39
404.70	3100.62
404.91	3270.61
405.12	3237.84
405.34	3258.32
405.55	3391.44
405.76	3231.69
405.97	3149.78
406.19	3360.72
406.40	3170.26
406.61	3411.92
406.82	3299.28
407.03	3266.51
407.25	3227.60
407.46	3375.05
407.67	3538.89
407.88	3379.15
408.09	3364.81
408.31	3327.95
408.52	3325.90
408.73	3383.24
408.94	3309.52
409.15	3379.15
409.37	3530.70
409.58	3499.98
409.79	3438.54
410.00	3510.22
410.21	3456.97
410.43	3428.30
410.64	3366.86
410.85	3510.22
411.06	3461.07
411.27	3491.79
411.48	3520.46
411.70	3553.23
411.91	3588.04
412.12	3682.25
412.33	3516.36
412.54	3667.91
412.76	3678.15
412.97	3661.77
413.18	3499.98
413.39	3573.71
413.60	3684.30
413.81	3583.95
414.03	3735.50
414.24	3641.29
414.45	3819.46
414.66	3518.41
414.87	3792.84
415.08	3784.65
415.30	3643.34
415.51	3725.26
415.72	3696.58
415.93	3680.20
416.14	3657.67
416.35	3815.37
416.56	3735.50
416.78	3710.92
416.99	3885.00
417.20	3772.36
417.41	3968.96
417.62	3813.32
417.83	3903.43
418.04	3870.66
418.26	3815.37
418.47	3897.28
418.68	3909.57
418.89	3993.54
419.10	4059.07
419.31	4071.36
419.52	4120.51
419.73	4036.55
419.95	4132.80
420.16	3977.16
420.37	3948.48
420.58	4024.26
420.79	3870.66
421.00	4073.41
421.21	4179.90
421.42	3999.68
421.63	4134.85
421.85	4206.53
422.06	4216.77
422.27	4237.25
422.48	4128.70
422.69	4243.39
422.90	4198.34
423.11	4366.27
423.32	4224.96
423.53	4425.66
423.75	4196.29
423.96	4419.52
424.17	4308.93
424.38	4523.96
424.59	4257.73
424.80	4458.43
425.01	4407.23
425.22	4386.75
425.43	4288.45
425.64	4526.01
425.85	4581.31
426.06	4530.11
426.28	4509.63
426.49	4503.48
426.70	4546.49
426.91	4538.30
427.12	4564.92
427.33	4579.26
427.54	4640.70
427.75	4648.89
427.96	4835.25
428.17	4612.03
428.38	4886.45
428.59	4908.98
428.80	4751.29
429.01	4714.42
429.23	4784.06
429.44	5023.67
429.65	4739.00
429.86	4941.75
430.07	4804.53
430.28	4849.59
430.49	4970.42
430.70	4992.95
430.91	5048.24
431.12	5021.62
431.33	5021.62
431.54	5033.91
431.75	5324.72
431.96	5195.70
432.17	5015.48
432.38	5078.96
432.59	5369.77
432.80	5193.65
433.01	5199.79
433.22	5275.57
433.43	5279.66
433.64	5171.12
433.85	5201.84
434.06	5334.96
434.27	5255.09
434.49	5236.66
434.70	5351.34
434.91	5390.25
435.12	5447.60
435.33	5332.91
435.54	5390.25
435.75	5146.55
435.96	5490.60
436.17	5416.88
436.38	5517.23
436.59	5631.91
436.80	5461.93
437.01	5726.12
437.22	5644.20
437.43	5578.67
437.64	5451.69
437.85	5812.14
438.06	5834.66
438.27	5672.87
438.48	5697.45
438.69	5789.61
438.90	5758.89
439.11	5732.26
439.32	5760.94
439.53	5654.44
439.74	5842.85
439.95	5914.53
440.16	5693.35
440.37	5791.66
440.57	5740.46
440.78	5988.26
440.99	5959.59
441.20	6080.42
441.41	5918.63
441.62	5988.26
441.83	5869.48
442.04	6049.70
442.25	6098.85
442.46	6148.00
442.67	6360.99
442.88	6365.09
443.09	6000.55
443.30	6164.39
443.51	6051.75
443.72	6348.70
443.93	6121.38
444.14	6426.53
444.35	6059.94
444.56	6234.02
444.77	6279.07
444.98	6305.70
445.19	6397.85
445.40	6436.77
445.61	6291.36
445.81	6377.37
446.02	6416.29
446.23	6487.96
446.44	6133.67
446.65	6504.35
446.86	6528.92
447.07	6522.78
447.28	6717.34
447.49	6662.04
447.70	6520.73
447.91	6643.61
448.12	6524.83
448.33	6631.32
448.54	6756.25
448.74	6662.04
448.95	6852.50
449.16	6694.81
449.37	7096.21
449.58	6852.50
449.79	6961.05
450.00	6891.41
450.21	6864.79
450.42	6942.61
450.63	7120.79
450.84	6875.03
451.05	7094.16
451.25	6961.05
451.46	6782.87
451.67	7049.11
451.88	7208.85
452.09	7032.72
452.30	6983.57
452.51	7051.16
452.72	7229.33
452.93	7587.72
453.13	7061.40
453.34	7333.78
453.55	7403.41
453.76	7305.10
453.97	7643.02
454.18	7307.15
454.39	7563.15
454.60	7389.07
454.81	7442.32
455.01	7464.85
455.22	7452.56
455.43	7466.89
455.64	7720.84
455.85	7516.05
456.06	7872.39
456.27	7806.86
456.48	7726.99
456.68	7919.50
456.89	7786.38
457.10	8013.70
457.31	7892.87
457.52	7845.77
457.73	8025.99
457.94	8195.97
458.14	7911.30
458.35	8388.48
458.56	8099.72
458.77	8042.37
458.98	8124.29
459.19	8161.16
459.39	8392.58
459.60	8427.39
459.81	8329.09
460.02	8755.07
460.23	8488.83
460.44	8669.05
460.65	8746.87
460.85	8695.68
461.06	8685.44
461.27	8501.12
461.48	8875.90
461.69	8937.34
461.89	8675.20
462.10	8793.98
462.31	8791.93
462.52	8800.12
462.73	8933.24
462.94	8912.76
463.14	8939.38
463.35	9029.49
463.56	9414.51
463.77	9387.89
463.98	9072.50
464.18	9144.18
464.39	9473.90
464.60	9576.30
464.81	9496.43
465.02	9447.28
465.23	9795.43
465.43	9596.78
465.64	9725.80
465.85	9805.67
466.06	9547.63
466.27	9992.04
466.47	9791.34
466.68	10037.09
466.89	9901.93
467.10	10153.83
467.30	9760.62
467.51	9877.35
467.72	10354.53
467.93	9891.69
468.14	10405.73
468.34	10260.32
468.55	10395.49
468.76	10387.30
468.97	10241.89
469.17	10649.44
469.38	10905.43
469.59	10723.16
469.80	10602.33
470.01	10663.77
470.21	10723.16
470.42	11077.46
470.63	10911.58
470.84	10921.82
471.04	11253.59
471.25	11247.44
471.46	11263.83
471.67	11552.59
471.87	11198.29
472.08	11413.33
472.29	11730.76
472.50	11433.81
472.70	11433.81
472.91	11757.39
473.12	11974.47
473.33	11642.70
473.53	11999.05
473.74	11886.41
473.95	12230.47
474.16	12238.66
474.36	12234.57
474.57	12416.83
474.78	12584.77
474.99	12457.79
475.19	12398.40
475.40	12642.11
475.61	12851.00
475.81	12926.78
476.02	13055.80
476.23	13166.39
476.44	12988.22
476.64	13340.47
476.85	13532.98
477.06	13303.60
477.27	13434.68
477.47	13659.95
477.68	13791.02
477.89	13954.86
478.09	13877.04
478.30	13997.87
478.51	13758.25
478.71	14243.62
478.92	14262.05
479.13	14278.44
479.34	14305.06
479.54	14327.59
479.75	14483.24
479.96	14466.85
480.16	14776.09
480.37	14767.90
480.58	15015.71
480.78	15286.04
480.99	15179.54
481.20	15027.99
481.41	15224.60
481.61	15509.27
481.82	15425.30
482.03	15433.49
482.23	15216.41
482.44	15867.66
482.65	15882.00
482.85	16031.50
483.06	16062.22
483.27	16178.95
483.47	16119.56
483.68	16004.88
483.89	16281.35
484.09	16486.15
484.30	16488.20
484.51	16703.23
484.71	16891.65
484.92	16619.27
485.13	17112.83
485.33	16916.22
485.54	16936.70
485.75	17303.29
485.95	17327.86
486.16	17325.82
486.37	17622.77
486.57	17307.38
486.78	17716.98
486.98	17469.17
487.19	17759.98
487.40	17946.35
487.60	17934.06
487.81	18185.96
488.02	17970.93
488.22	17964.78
488.43	18409.19
488.64	18493.16
488.84	18507.49
489.05	18525.93
489.25	18464.49
489.46	19021.53
489.67	18867.94
489.87	18929.38
490.08	19138.27
490.29	19187.42
490.49	19554.01
490.70	19664.60
490.90	19482.33
491.11	19566.29
491.32	19588.82
491.52	19433.18
491.73	19998.41
491.94	20184.78
492.14	20027.09
492.35	20174.54
492.55	20235.98
492.76	20186.83
492.97	20215.50
493.17	20344.52
493.38	20510.41
493.58	20422.34
493.79	20395.72
494.00	20844.23
494.20	20920.00
494.41	20711.11
494.61	20899.52
494.82	20952.77
495.02	21012.16
495.23	21294.78
495.44	21489.34
495.64	21587.64
495.85	21305.02
496.05	21550.78
496.26	21417.66
496.47	21657.27
496.67	21798.58
496.88	21989.04
497.08	21710.52
497.29	22144.69
497.49	22251.18
497.70	22058.67
497.91	22228.65
498.11	22400.68
498.32	22507.18
498.52	22531.75
498.73	22746.79
498.93	22806.18
499.14	22793.89
499.34	22716.07
499.55	23008.93
499.76	22881.95
499.96	22935.20
500.17	23156.38
500.37	22898.34
500.58	23174.81
500.78	23017.12
500.99	23772.82
501.19	23649.94
501.40	23875.22
501.60	23408.28
501.81	23529.11
502.02	23850.64
502.22	23420.57
502.43	24096.40
502.63	23819.92
502.84	24071.82
503.04	24235.66
503.25	24352.40
503.45	24086.16
503.66	24395.40
503.86	24405.64
504.07	24700.55
504.27	24131.22
504.48	24608.39
504.68	24456.84
504.89	24815.24
505.09	24874.63
505.30	24567.43
505.50	24927.88
505.71	25003.65
505.91	25116.29
506.12	24731.27
506.32	24979.07
506.53	25220.74
506.73	25235.07
506.94	25280.13
507.14	25114.24
507.35	25296.51
507.55	25106.05
507.76	25618.04
507.96	25345.66
508.17	25495.16
508.37	25462.40
508.58	25560.70
508.78	25708.15
508.99	26121.84
509.19	25708.15
509.40	25998.96
509.60	25896.56
509.81	25892.47
510.01	25843.32
510.22	25935.48
510.42	26189.42
510.63	26031.73
510.83	26426.99
511.04	26127.99
511.24	26480.24
511.44	26361.45
511.65	26648.17
511.85	26455.66
512.06	26480.24
512.26	26721.90
512.47	26820.20
512.67	26543.72
512.88	26580.59
513.08	26177.14
513.29	27168.35
513.49	26848.87
513.69	26689.13
513.90	26644.07
514.10	27031.14
514.31	26959.46
514.51	26914.41
514.72	26979.94
514.92	27207.26
515.13	27246.18
515.33	27203.17
515.53	27692.63
515.74	27524.70
515.94	27530.84
516.15	27485.79
516.35	27328.10
516.56	27821.66
516.76	27647.58
516.96	27848.28
517.17	28085.84
517.37	27821.66
517.58	28030.55
517.78	27827.80
517.99	28161.62
518.19	28272.21
518.39	28153.43
518.60	28278.35
518.80	28044.88
519.01	28483.15
519.21	28364.37
519.41	28524.11
519.62	28278.35
519.82	28536.40
520.03	28868.17
520.23	28610.12
520.43	28712.52
520.64	28880.46
520.84	29052.48
521.05	29032.00
521.25	29279.81
521.45	29062.72
521.66	29609.53
521.86	28931.65
522.07	29328.96
522.27	29558.33
522.47	29378.11
522.68	29974.07
522.88	29441.60
523.08	29910.58
523.29	29804.09
523.49	29853.24
523.70	29793.85
523.90	30232.11
524.10	29871.67
524.31	30336.56
524.51	30215.73
524.71	30561.84
524.92	30266.93
525.12	30897.70
525.33	30864.94
525.53	30684.72
525.73	30936.62
525.94	30936.62
526.14	30852.65
526.34	31194.66
526.55	31059.49
526.75	31082.02
526.95	31252.00
527.16	31395.36
527.36	31235.62
527.56	31325.73
527.77	31581.73
527.97	31663.64
528.17	31559.20
528.38	32022.04
528.58	31782.43
528.78	32237.08
528.99	32179.73
529.19	32130.58
529.39	32028.18
529.60	32413.20
529.80	32466.45
530.00	32511.50
530.21	32837.13
530.41	32933.39
530.61	32722.44
530.82	33064.46
531.02	32357.91
531.22	32955.91
531.43	33170.95
531.63	33127.94
531.83	33320.45
532.04	33738.24
532.24	33644.03
532.44	33660.41
532.64	33797.63
532.85	33893.88
533.05	34037.24
533.25	34291.19
533.46	33836.54
533.66	34371.06
533.86	34074.10
534.07	34377.20
534.27	34735.60
534.47	34973.16
534.67	34719.21
534.88	34838.00
535.08	34774.51
535.28	35485.15
535.49	35098.09
535.69	35263.97
535.89	35227.11
536.09	35356.13
536.30	35743.20
536.50	35618.27
536.70	35716.58
536.91	35464.67
537.11	35788.25
537.31	36242.90
537.51	35966.43
537.72	36324.82
537.92	36333.01
538.12	36861.39
538.32	36175.32
538.53	36767.18
538.73	36470.23
538.93	36572.63
539.13	36459.99
539.34	36392.40
539.54	36685.26
539.74	37078.47
539.94	37080.52
540.15	36916.68
540.35	37252.55
540.55	37084.62
540.75	37035.47
540.96	37672.39
541.16	37502.40
541.36	37461.44
541.56	37619.14
541.77	37815.74
541.97	37852.61
542.17	38010.30
542.37	38196.67
542.58	37928.38
542.78	38045.12
542.98	38301.11
543.18	38073.79
543.38	38700.47
543.59	38546.87
543.79	38245.82
543.99	38669.75
544.19	38655.41
544.40	38534.58
544.60	38639.03
544.80	38624.69
545.00	38829.49
545.20	39220.65
545.41	38911.41
545.61	39081.39
545.81	39349.67
546.01	39499.17
546.21	39581.09
546.42	39349.67
546.62	39464.36
546.82	39327.14
547.02	39257.51
547.22	39646.63
547.43	39804.32
547.63	39824.80
547.83	39810.46
548.03	39241.13
548.23	39816.61
548.44	39810.46
548.64	40121.76
548.84	40015.26
549.04	40236.44
549.24	40263.07
549.45	40914.32
549.65	40338.84
549.85	40283.55
550.05	40492.44
550.25	40756.63
550.45	40899.98
550.66	40756.63
550.86	40492.44
551.06	40699.28
551.26	41139.60
551.46	41055.63
551.66	40865.17
551.87	41241.99
552.07	41053.58
552.27	40889.74
552.47	41309.58
552.67	41313.67
552.87	41026.96
553.07	41471.37
553.28	41121.16
553.48	41291.15
553.68	41383.30
553.88	42038.65
554.08	41684.36
554.28	41551.24
554.48	41438.60
554.69	41803.14
554.89	41919.87
555.09	41831.81
555.29	41864.58
555.49	41651.59
555.69	41596.29
555.89	41905.54
556.10	42005.89
556.30	42186.11
556.50	42288.51
556.70	41727.36
556.90	42096.00
557.10	41956.74
557.30	41774.47
557.50	42368.38
557.70	42319.23
557.91	42382.71
558.11	42354.04
558.31	42327.42
558.51	41989.50
558.71	42313.08
558.91	42718.58
559.11	42153.34
559.31	42630.52
559.51	42206.59
559.72	42104.19
559.92	42370.43
560.12	42483.06
560.32	42640.76
560.52	42483.06
560.72	42972.53
560.92	42915.19
561.12	42427.77
561.32	43341.16
561.52	43029.87
561.72	43588.97
561.93	42739.06
562.13	42872.18
562.33	43083.12
562.53	43378.03
562.73	43056.50
562.93	43238.76
563.13	43093.36
563.33	43070.83
563.53	43439.47
563.73	43072.88
563.93	43240.81
564.13	43609.45
564.33	43130.22
564.53	43394.41
564.74	43343.21
564.94	43246.96
565.14	43206.00
565.34	43375.98
565.54	43734.37
565.74	43513.19
565.94	43941.22
566.14	43406.70
566.34	43595.11
566.54	43537.77
566.74	43285.87
566.94	43943.27
567.14	43933.03
567.34	43595.11
567.54	44006.75
567.74	43771.24
567.94	43740.52
568.14	43982.18
568.34	43777.38
568.54	44004.70
568.74	43789.67
568.94	43988.32
569.14	44414.30
569.34	43865.44
569.54	44164.45
569.75	43734.37
569.95	43894.11
570.15	44346.72
570.35	44485.98
570.55	44182.88
570.75	44242.27
570.95	44139.87
571.15	44342.62
571.35	44275.04
571.55	44453.21
571.75	44531.03
571.95	44881.24
572.15	44639.57
572.35	44500.31
572.55	44596.57
572.75	44619.10
572.95	44299.61
573.15	44836.18
573.35	44690.77
573.55	44612.95
573.75	45200.72
573.95	44965.20
574.15	44502.36
574.35	45135.18
574.55	45231.44
574.75	45151.57
574.95	45075.79
575.15	45241.68
575.34	45028.69
575.54	45313.36
575.74	45147.47
575.94	45659.46
576.14	44778.84
576.34	45700.42
576.54	45759.81
576.74	45100.37
576.94	45311.31
577.14	45759.81
577.34	45725.00
577.54	45534.54
577.74	45716.81
577.94	46087.49
578.14	45872.45
578.34	46187.84
578.54	45571.40
578.74	45434.19
578.94	45933.89
579.14	45958.47
579.34	46142.78
579.54	46355.77
579.74	46216.51
579.94	46470.46
580.13	46478.65
580.33	46060.87
580.53	46290.24
580.73	46050.63
580.93	46603.58
581.13	46726.46
581.33	46683.45
581.53	46507.32
581.73	46613.82
581.93	46601.53
582.13	46990.64
582.33	46726.46
582.53	46884.15
582.73	46859.57
582.92	47015.22
583.12	47101.23
583.32	47117.62
583.52	46730.55
583.72	47138.10
583.92	47260.97
584.12	47449.39
584.32	48196.90
584.52	47478.06
584.72	47457.58
584.92	47805.73
585.11	48164.13
585.31	47689.00
585.51	47666.47
585.71	47781.16
585.91	47805.73
586.11	47693.10
586.31	47555.88
586.51	48057.63
586.71	47674.66
586.91	48135.46
587.10	48039.20
587.30	48002.34
587.50	48250.14
587.70	48545.05
587.90	48198.94
588.10	47953.19
588.30	48780.57
588.50	48770.33
588.69	48581.91
588.89	48338.21
589.09	48487.71
589.29	48684.31
589.49	48796.95
589.69	48522.52
589.89	49210.64
590.08	48811.29
590.28	48614.68
590.48	48897.30
590.68	49134.87
590.88	48981.27
591.08	49046.80
591.28	48868.63
591.47	49382.67
591.67	48960.79
591.87	49093.91
592.07	49085.72
592.27	48989.46
592.47	49489.16
592.67	49286.42
592.86	49358.09
593.06	49634.57
593.26	49577.23
593.46	49249.55
593.66	49358.09
593.86	49786.12
594.05	49513.74
594.25	50269.44
594.45	49620.23
594.65	50072.84
594.85	49382.67
595.05	49786.12
595.24	50181.38
595.44	50124.04
595.64	50081.03
595.84	49911.05
596.04	50140.42
596.23	50291.97
596.43	50576.64
596.63	50511.10
596.83	50345.22
597.03	50806.01
597.22	50877.69
597.42	50377.98
597.62	50623.74
597.82	50492.67
598.02	51066.10
598.21	50699.51
598.41	50705.66
598.61	50838.78
598.81	50937.08
599.01	51293.43
599.20	50906.36
599.40	51371.25
599.60	51426.54
599.80	51594.48
600.00	51434.74
600.19	51369.20
600.39	51393.78
600.59	51547.37
600.79	51893.48
600.98	51604.72
601.18	51961.06
601.38	51883.24
601.58	52008.17
601.78	52022.50
601.97	52012.26
602.17	52409.57
602.37	52223.20
602.57	52120.80
602.76	52241.63
602.96	51946.73
603.16	52524.25
603.36	52452.58
603.55	52868.31
603.75	52493.54
603.95	52626.65
604.15	52571.36
604.34	52632.80
604.54	52843.74
604.74	53011.67
604.94	52739.29
605.13	52960.47
605.33	52565.21
605.53	52800.73
605.73	53259.48
605.92	53204.18
606.12	53337.30
606.32	53427.41
606.52	53494.99
606.71	53490.90
606.91	53871.82
607.11	53255.38
607.30	53572.81
607.50	53343.44
607.70	53634.25
607.90	53628.11
608.09	53185.75
608.29	53642.45
608.49	53353.68
608.68	53470.42
608.88	53939.40
609.08	53896.39
609.28	54039.75
609.47	53810.38
609.67	54387.91
609.87	54170.82
610.06	54594.75
610.26	54039.75
610.46	54181.06
610.66	54197.44
610.85	54250.69
611.05	53904.59
611.25	54688.96
611.44	54115.53
611.64	54633.66
611.84	54244.55
612.03	54326.47
612.23	54596.80
612.43	54287.56
612.62	54467.78
612.82	54457.54
613.02	54426.82
613.21	54506.69
613.41	54140.10
613.61	54414.53
613.80	54416.58
614.00	54858.94
614.20	54555.84
614.39	54432.96
614.59	55016.63
614.79	54625.47
614.98	54375.62
615.18	54287.56
615.38	54817.98
615.57	54817.98
615.77	54879.42
615.97	54983.86
616.16	54926.52
616.36	54707.39
616.56	55059.64
616.75	54682.81
616.95	54850.75
617.15	54992.06
617.34	55006.39
617.54	54555.84
617.74	55135.41
617.93	54607.04
618.13	54736.06
618.32	55180.47
618.52	54834.36
618.72	54674.62
618.91	55162.04
619.11	55022.78
619.31	54754.49
619.50	54916.28
619.70	54916.28
619.90	54654.14
620.09	54934.71
620.29	54660.29
620.48	55213.24
620.68	55694.51
620.88	54525.12
621.07	54858.94
621.27	55102.65
621.46	54592.70
621.66	55401.65
621.86	54768.83
622.05	54629.57
622.25	55825.58
622.44	54600.89
622.64	54510.78
622.84	55313.59
623.03	54408.39
623.23	55342.26
623.42	54918.33
623.62	55096.50
623.82	55286.96
624.01	55162.04
624.21	55514.29
624.40	55030.97
624.60	55108.79
624.80	54924.47
624.99	55086.26
625.19	54248.64
625.38	54867.13
625.58	54858.94
625.77	54885.56
625.97	54813.88
626.17	54664.38
626.36	55026.87
626.56	54953.15
626.75	54967.48
626.95	55293.11
627.14	54944.95
627.34	55358.64
627.54	55114.94
627.73	55141.56
627.93	55123.13
628.12	54574.27
628.32	54879.42
628.51	55254.20
628.71	54754.49
628.90	55047.35
629.10	54928.57
629.30	54838.46
629.49	55211.19
629.69	55127.22
629.88	54924.47
630.08	55463.09
630.27	55491.76
630.47	55024.82
630.66	54928.57
630.86	55067.83
631.05	54523.07
631.25	55432.37
631.44	54994.10
631.64	54944.95
631.84	55184.57
632.03	55737.52
632.23	55049.40
632.42	55229.62
632.62	54623.42
632.81	54774.97
633.01	55149.75
633.20	55207.09
633.40	54949.05
633.59	55209.14
633.79	55012.54
633.98	55600.30
634.18	55456.95
634.37	55170.23
634.57	55137.46
634.76	54908.09
634.96	54932.67
635.15	55342.26
635.35	54777.02
635.54	54887.61
635.74	55284.92
635.93	54688.96
636.13	55243.96
636.32	55510.19
636.52	54580.42
636.71	54691.01
636.91	54969.53
637.10	55262.39
637.30	55166.13
637.49	54848.70
637.69	54777.02
637.88	55418.03
638.08	55127.22
638.27	55522.48
638.46	55080.12
638.66	55030.97
638.85	55227.57
639.05	55104.70
639.24	54981.82
639.44	54957.24
639.63	55139.51
639.83	55514.29
640.02	55286.96
640.22	54977.72
640.41	55332.02
640.61	55000.25
640.80	55440.56
640.99	54965.43
641.19	55870.64
641.38	54992.06
641.58	55319.73
641.77	54893.75
641.97	54793.40
642.16	55452.85
642.36	55477.43
642.55	55491.76
642.74	55502.00
642.94	55645.36
643.13	54832.32
643.33	55506.10
643.52	55776.43
643.72	55276.72
643.91	55157.94
644.10	55538.86
644.30	56151.21
644.49	55825.58
644.69	55485.62
644.88	55467.19
645.08	54842.56
645.27	55678.13
645.46	55366.84
645.66	55575.73
645.85	55162.04
646.05	55325.88
646.24	55655.60
646.43	55669.93
646.63	55829.68
646.82	55901.36
647.02	55477.43
647.21	55178.42
647.40	55336.12
647.60	55659.69
647.79	55551.15
647.99	55542.96
648.18	55415.99
648.37	56028.33
648.57	55536.82
648.76	55479.47
648.96	55489.71
649.15	55850.16
649.34	55514.29
649.54	55768.24
649.73	55348.40
649.92	55583.92
650.12	56104.10
650.31	55815.34
650.51	55942.31
650.70	55932.07
650.89	55827.63
651.09	56104.10
651.28	55776.43
651.47	55835.82
651.67	56011.95
651.86	56061.10
652.06	55200.95
652.25	55717.04
652.44	55379.12
652.64	55571.63
652.83	55495.86
653.02	55461.04
653.22	55491.76
653.41	55612.59
653.60	55260.34
653.80	55383.22
653.99	55758.00
654.18	56013.99
654.38	55030.97
654.57	55780.52
654.76	55497.91
654.96	55809.20
655.15	55735.47
655.34	55710.89
655.54	55186.61
655.73	55573.68
655.92	56083.62
656.12	56149.16
656.31	55727.28
656.50	55743.66
656.70	55588.02
656.89	55784.62
657.08	55868.59
657.28	55884.97
657.47	55358.64
657.66	55913.64
657.86	55270.58
658.05	56081.58
658.24	56079.53
658.43	55659.69
658.63	55846.06
658.82	55778.48
659.01	56155.30
659.21	55946.41
659.40	55903.40
659.59	55600.30
659.79	55792.81
659.98	56128.68
660.17	55932.07
660.36	55815.34
660.56	55551.15
660.75	56122.54
660.94	55858.35
661.14	55379.12
661.33	55606.45
661.52	55538.86
661.71	56231.08
661.91	55499.95
662.10	55252.15
662.29	56106.15
662.49	55284.92
662.68	55620.78
662.87	55936.17
663.06	55788.72
663.26	55850.16
663.45	56063.14
663.64	55821.48
663.83	55805.10
664.03	55958.70
664.22	56061.10
664.41	55602.35
664.60	55905.45
664.80	55684.27
664.99	55784.62
665.18	55678.13
665.37	55837.87
665.57	56411.30
665.76	55510.19
665.95	56054.95
666.14	55862.44
666.34	55860.40
666.53	55596.21
666.72	55878.83
666.91	55264.44
667.11	55465.14
667.30	55616.69
667.49	55284.92
667.68	55407.79
667.87	55231.67
668.07	55733.42
668.26	55413.94
668.45	55616.69
668.64	55280.82
668.84	55952.55
669.03	56161.45
669.22	55858.35
669.41	56022.19
669.60	55921.83
669.80	55465.14
669.99	56001.71
670.18	55538.86
670.37	55518.38
670.57	55850.16
670.76	55549.10
670.95	56003.75
671.14	55696.56
671.33	55966.89
671.53	56325.28
671.72	56110.25
671.91	55923.88
672.10	55663.79
672.29	55377.08
672.48	55483.57
672.68	56126.63
672.87	55934.12
673.06	55829.68
673.25	55637.17
673.44	55420.08
673.64	55712.94
673.83	55858.35
674.02	55739.57
674.21	55430.32
674.40	55758.00
674.59	55254.20
674.79	54965.43
674.98	54936.76
675.17	55559.34
675.36	55325.88
675.55	55741.61
675.74	55645.36
675.94	55260.34
676.13	55792.81
676.32	55758.00
676.51	56079.53
676.70	56054.95
676.89	55596.21
677.08	56054.95
677.28	55383.22
677.47	55704.75
677.66	55764.14
677.85	55530.67
678.04	55622.83
678.23	56063.14
678.42	55717.04
678.62	55461.04
678.81	55841.96
679.00	55704.75
679.19	55917.74
679.38	54957.24
679.57	55319.73
679.76	55510.19
679.96	55669.93
680.15	55387.31
680.34	55108.79
680.53	55383.22
680.72	55768.24
680.91	55655.60
681.10	55446.71
681.29	55465.14
681.48	55309.49
681.68	55424.18
681.87	55387.31
682.06	55082.17
682.25	54875.32
682.44	55383.22
682.63	55289.01
682.82	54891.71
683.01	55526.58
683.20	54916.28
683.39	55391.41
683.59	55168.18
683.78	55268.53
683.97	55092.41
684.16	55073.98
684.35	54899.90
684.54	55223.48
684.73	54809.79
684.92	55235.77
685.11	55016.63
685.30	55049.40
685.49	55778.48
685.69	55166.13
685.88	54973.63
686.07	54934.71
686.26	55094.46
686.45	55415.99
686.64	55268.53
686.83	54867.13
687.02	54992.06
687.21	55461.04
687.40	55313.59
687.59	55026.87
687.78	55006.39
687.97	55350.45
688.16	55209.14
688.35	55006.39
688.54	54504.64
688.74	55035.06
688.93	55037.11
689.12	55119.03
689.31	55506.10
689.50	55254.20
689.69	54660.29
689.88	54455.49
690.07	54754.49
690.26	54740.16
690.45	55073.98
690.64	55020.73
690.83	54617.28
691.02	54574.27
691.21	54187.21
691.40	54965.43
691.59	55164.09
691.78	54809.79
691.97	54858.94
692.16	55252.15
692.35	55080.12
692.54	54977.72
692.73	54346.95
692.92	54777.02
693.11	55045.30
693.30	54619.33
693.49	54744.25
693.68	54645.95
693.87	54723.77
694.06	54422.72
694.25	54801.60
694.44	54187.21
694.63	54895.80
694.82	54471.87
695.01	54406.34
695.20	54443.20
695.39	54287.56
695.58	54518.98
695.77	54351.04
695.96	54060.23
696.15	54547.65
696.34	54344.90
696.53	54457.54
696.72	54602.94
696.91	54248.64
697.10	54125.77
697.29	54619.33
697.48	54518.98
697.67	54383.81
697.86	54146.25
698.05	53773.52
698.24	54572.22
698.43	54174.92
698.62	54553.79
698.81	54088.90
699.00	54500.54
699.19	53834.95
699.38	54121.67
699.57	53228.76
699.76	54746.30
699.95	53996.74
700.14	53968.07
700.32	54019.27
700.51	53753.04
700.70	54654.14
700.89	54191.30
701.08	53998.79
701.27	53849.29
701.46	54570.18
701.65	53376.21
701.84	53867.72
702.03	53865.67
702.22	53703.88
702.41	53920.97
702.60	54074.57
702.79	53544.14
702.98	53859.53
703.17	53642.45
703.35	53439.70
703.54	53212.37
703.73	54213.83
703.92	53884.11
704.11	53429.46
704.30	53329.11
704.49	53249.24
704.68	53560.53
704.87	53683.40
705.06	53122.26
705.25	53060.82
705.43	53581.01
705.62	53609.68
705.81	53408.98
706.00	53312.72
706.19	53310.67
706.38	53044.44
706.57	53179.60
706.76	53064.92
706.95	52782.30
707.14	53398.74
707.32	53310.67
707.51	52901.08
707.70	52882.65
707.89	53142.74
708.08	52827.35
708.27	53263.57
708.46	53679.31
708.65	53159.12
708.84	53021.91
709.02	53183.70
709.21	53124.31
709.40	52690.14
709.59	52956.38
709.78	52655.32
709.97	53023.96
710.16	52651.23
710.34	52550.88
710.53	52724.96
710.72	52630.75
710.91	52909.27
711.10	52749.53
711.29	52806.87
711.48	52378.85
711.66	52727.00
711.85	52346.08
712.04	52720.86
712.23	52581.60
712.42	52663.52
712.61	52614.37
712.80	52522.21
712.98	52511.97
713.17	52507.87
713.36	52348.13
713.55	52511.97
713.74	52477.15
713.93	52616.41
714.11	52319.46
714.30	52290.79
714.49	52178.15
714.68	52247.78
714.87	52266.21
715.06	52401.38
715.24	52526.30
715.43	52016.36
715.62	52018.41
715.81	51999.97
716.00	52589.79
716.18	52034.79
716.37	51739.88
716.56	51229.94
716.75	51848.42
716.94	51778.79
717.12	51406.06
717.31	52243.68
717.50	52085.99
717.69	51676.40
717.88	51713.26
718.06	51594.48
718.25	51991.78
718.44	51674.35
718.63	51602.67
718.82	51207.41
719.00	51539.18
719.19	51209.46
719.38	51533.04
719.57	50740.47
719.76	50650.36
719.94	50320.64
720.13	51215.60
720.32	51080.44
720.51	50932.98
720.69	50660.60
720.88	50883.83
721.07	50582.78
721.26	50091.27
721.44	50666.75
721.63	50404.61
721.82	50390.27
722.01	50062.60
722.20	50541.82
722.38	49968.39
722.57	50306.30
722.76	50099.46
722.95	50380.03
723.13	49767.69
723.32	50164.99
723.51	49978.63
723.70	49777.93
723.88	50308.35
724.07	49675.53
724.26	49868.04
724.44	49261.84
724.63	49610.00
724.82	49655.05
725.01	49632.52
725.19	49550.60
725.38	49394.96
725.57	49278.22
725.76	49736.97
725.94	49272.08
726.13	49452.30
726.32	49489.16
726.51	49272.08
726.69	49822.98
726.88	49315.09
727.07	49296.66
727.25	49136.91
727.44	48923.93
727.63	49214.74
727.82	49425.68
728.00	49435.92
728.19	48950.55
728.38	49397.01
728.56	48526.62
728.75	49186.07
728.94	48807.19
729.12	49038.61
729.31	49265.94
729.50	49224.98
729.69	49069.33
729.87	49061.14
730.06	48817.43
730.25	48985.36
730.43	48848.15
730.62	48801.05
730.81	49034.52
730.99	49118.48
731.18	48981.27
731.37	48942.36
731.55	49337.62
731.74	49272.08
731.93	49177.87
732.11	48807.19
732.30	48991.51
732.49	48725.27
732.67	48678.17
732.86	48428.32
733.05	48755.99
733.23	48674.07
733.42	48682.27
733.61	48825.62
733.79	48942.36
733.98	48592.15
734.17	48186.66
734.35	48682.27
734.54	48788.76
734.73	48596.25
734.91	48416.03
735.10	48287.01
735.29	48936.21
735.47	48182.56
735.66	48690.46
735.84	48629.02
736.03	48256.29
736.22	49048.85
736.40	48301.34
736.59	48409.89
736.78	48381.21
736.96	48237.86
737.15	48170.27
737.33	48223.52
737.52	48133.41
737.71	48166.18
737.89	48018.72
738.08	47869.22
738.27	47930.66
738.45	48235.81
738.64	48006.44
738.82	47957.28
739.01	47750.44
739.20	47867.17
739.38	48168.22
739.57	47822.12
739.75	48086.31
739.94	47621.42
740.13	47924.52
740.31	47383.85
740.50	47891.75
740.68	47584.55
740.87	47666.47
741.06	47842.60
741.24	47396.14
741.43	47103.28
741.61	47762.73
741.80	47600.94
741.99	47549.74
742.17	47346.99
742.36	47566.12
742.54	47275.31
742.73	47453.48
742.91	47390.00
743.10	47439.15
743.29	47490.35
743.47	47566.12
743.66	47162.67
743.84	46955.83
744.03	47326.51
744.21	46972.21
744.40	47224.11
744.59	46896.44
744.77	46525.75
744.96	47224.11
745.14	46949.68
745.33	47027.51
745.51	47027.51
745.70	46685.50
745.88	46953.78
746.07	46826.81
746.26	46683.45
746.44	46908.72
746.63	46634.30
746.81	46961.97
747.00	46517.56
747.18	46972.21
747.37	46716.22
747.55	46150.98
747.74	46867.76
747.92	46368.06
748.11	46527.80
748.29	46372.16
748.48	46329.15
748.66	45905.22
748.85	46110.02
749.03	46005.57
749.22	46003.52
749.41	46253.37
749.59	46341.44
749.78	45964.61
749.96	45987.14
750.15	46236.99
750.33	46177.60
750.52	45563.21
750.70	45645.13
750.89	45339.98
751.07	45729.09
751.26	45729.09
751.44	45532.49
751.63	45870.40
751.81	45243.73
752.00	45481.29
752.18	45370.70
752.37	45276.49
752.55	45219.15
752.74	45100.37
752.92	44989.78
753.10	45223.25
753.29	45229.39
753.47	44971.35
753.66	44922.19
753.84	44852.56
754.03	45256.01
754.21	44600.66
754.40	44666.20
754.58	44989.78
754.77	45004.11
754.95	44500.31
755.14	44602.71
755.32	44805.46
755.51	44191.07
755.69	44393.82
755.88	44676.44
756.06	44682.58
756.24	44014.94
756.43	44328.28
756.61	44303.71
756.80	44209.50
756.98	44502.36
757.17	44154.21
757.35	44479.83
757.54	44250.46
757.72	44277.08
757.90	43855.20
758.09	43912.55
758.27	43808.10
758.46	44148.06
758.64	44023.14
758.83	44395.87
759.01	44023.14
759.19	43900.26
759.38	43973.98
759.56	44019.04
759.75	43488.62
759.93	43543.91
760.12	43472.23
760.30	43558.25
760.48	43568.49
760.67	43203.95
760.85	43312.49
761.04	43685.22
761.22	43613.54
761.40	43148.65
761.59	43064.69
761.77	42804.59
761.96	43064.69
762.14	43122.03
762.32	43201.90
762.51	42737.01
762.69	42808.69
762.88	43320.68
763.06	42816.88
763.24	43011.44
763.43	42745.20
763.61	42589.56
763.80	42820.98
763.98	42444.15
764.16	42833.27
764.35	42784.12
764.53	42222.97
764.72	42685.81
764.90	42372.47
765.08	42327.42
765.27	42521.98
765.45	42421.62
765.63	41751.94
765.82	42358.14
766.00	42208.64
766.18	42272.12
766.37	42102.14
766.55	41923.97
766.74	42186.11
766.92	42034.56
767.10	42026.37
767.29	41741.70
767.47	41178.51
767.65	41739.65
767.84	41524.61
768.02	41272.71
768.20	41198.99
768.39	41428.36
768.57	41246.09
768.75	41723.27
768.94	41317.77
769.12	41381.26
769.30	40742.29
769.49	41358.73
769.67	40889.74
769.85	40490.39
770.04	40836.50
770.22	41049.49
770.40	41125.26
770.59	41037.20
770.77	41000.33
770.95	40832.40
771.14	40340.89
771.32	40209.82
771.50	39992.73
771.69	40119.71
771.87	40834.45
772.05	40742.29
772.24	40222.11
772.42	40486.29
772.60	40318.36
772.78	40291.74
772.97	39605.67
773.15	40299.93
773.33	40179.10
773.52	40086.94
773.70	40314.26
773.88	40269.21
774.07	39900.58
774.25	40222.11
774.43	40596.88
774.61	40191.39
774.80	40082.84
774.98	40064.41
775.16	40021.41
775.34	39912.86
775.53	40211.87
775.71	40408.47
775.89	40035.74
776.08	40269.21
776.26	40674.71
776.44	40424.86
776.62	40154.52
776.81	40088.99
776.99	40113.56
777.17	40418.71
777.35	40443.29
777.54	40367.51
777.72	40267.16
777.90	40246.68
778.08	40846.74
778.27	40080.80
778.45	40654.23
778.63	40746.39
778.81	40109.47
779.00	41151.88
779.18	40713.62
779.36	40695.19
779.54	40261.02
779.73	40121.76
779.91	40426.90
780.09	40799.63
780.27	40256.92
780.46	40404.38
780.64	40684.95
780.82	40254.87
781.00	40105.37
781.19	40762.77
781.37	40797.59
781.55	40773.01
781.73	40791.44
781.91	40744.34
782.10	41188.75
782.28	40371.61
782.46	40940.94
782.64	40693.14
782.82	40727.95
783.01	40879.50
783.19	41135.50
783.37	40969.61
783.55	40902.03
783.74	41291.15
783.92	40912.27
784.10	40947.09
784.28	40920.46
784.46	40689.04
784.64	40965.52
784.83	41274.76
785.01	40799.63
785.19	40875.41
785.37	41080.21
785.55	40613.27
785.74	40813.97
785.92	40564.12
786.10	40957.33
786.28	40736.15
786.46	40447.38
786.64	40179.10
786.83	40805.78
787.01	40482.20
787.19	40310.17
787.37	40695.19
787.55	40539.54
787.74	40426.90
787.92	40637.84
788.10	40353.18
788.28	40443.29
788.46	40015.26
788.64	40242.59
788.82	40252.83
789.01	40324.50
789.19	40449.43
789.37	39988.64
789.55	40424.86
789.73	39931.29
789.91	39601.57
790.09	39718.31
790.28	39849.38
790.46	39540.13
790.64	39695.78
790.82	39822.75
791.00	39533.99
791.18	38974.89
791.36	39398.82
791.55	39443.88
791.73	39259.56
791.91	38989.23
792.09	39517.60
792.27	39056.81
792.45	39372.20
792.63	39138.73
792.81	39056.81
793.00	38639.03
793.18	38643.12
793.36	38788.53
793.54	38481.33
793.72	38356.41
793.90	38286.78
794.08	38204.86
794.26	38294.97
794.44	38010.30
794.62	37846.46
794.81	38186.43
794.99	37897.66
795.17	37973.44
795.35	37805.50
795.53	37934.53
795.71	38149.56
795.89	37719.49
796.07	37354.95
796.25	37492.16
796.43	37389.77
796.61	37291.46
796.80	37021.13
796.98	37369.29
797.16	36859.34
797.34	36865.49
797.52	36982.22
797.70	37340.61
797.88	36529.62
798.06	36947.40
798.24	36689.36
798.42	36619.73
798.60	36586.96
798.78	36875.73
798.96	36574.67
799.14	36240.86
799.32	36525.52
799.51	36179.42
799.69	36040.15
799.87	36349.40
800.05	35724.77
800.23	35741.15
800.41	35696.10
800.59	35915.23
800.77	35399.14
800.95	35384.80
801.13	35700.19
801.31	35349.99
801.49	35530.21
801.67	34919.92
801.85	34971.11
802.03	34934.25
802.21	34735.60
802.39	34999.79
802.57	34727.41
802.75	34665.97
802.93	34606.58
803.11	34928.11
803.29	34653.68
803.47	34579.95
803.65	34221.56
803.83	34627.06
804.01	34055.67
804.19	34403.83
804.37	34119.16
804.55	34213.37
804.73	34285.04
804.91	33912.31
805.09	34143.74
805.27	34178.55
805.45	33631.74
805.63	34027.00
805.81	34055.67
805.99	33703.42
806.17	33805.82
806.35	33543.68
806.53	33543.68
806.71	33551.87
806.89	33244.68
807.07	33439.23
807.25	33646.08
807.43	33048.07
807.61	33486.34
807.79	32894.47
807.97	32884.23
808.15	32943.63
808.33	32830.99
808.51	32706.06
808.69	32755.21
808.87	32556.56
809.05	32329.23
809.23	32497.17
809.41	32101.91
809.59	32063.00
809.77	32415.25
809.95	31995.42
810.13	32294.42
810.31	31950.36
810.49	32540.18
810.67	31729.18
810.84	32192.02
811.02	31966.74
811.20	31522.34
811.38	31686.17
811.56	31460.90
811.74	31714.84
811.92	31712.80
812.10	31616.54
812.28	31946.26
812.46	31505.95
812.64	31383.07
812.82	31489.57
813.00	31442.46
813.18	31485.47
813.36	31000.10
813.53	30977.58
813.71	31149.60
813.89	31317.54
814.07	31061.54
814.25	31241.76
814.43	30903.85
814.61	30877.22
814.79	30680.62
814.97	30699.05
815.15	30436.91
815.33	30268.98
815.50	30256.69
815.68	30725.68
815.86	30539.31
816.04	30481.97
816.22	30477.87
816.40	30395.95
816.58	30217.78
816.76	30338.61
816.94	30295.60
817.11	30041.65
817.29	30340.66
817.47	29988.41
817.65	29994.55
817.83	30340.66
818.01	29992.50
818.19	29550.14
818.37	29902.39
818.54	29597.24
818.72	29462.08
818.90	29804.09
819.08	29685.31
819.26	29517.37
819.44	29427.26
819.62	29503.04
819.80	29308.48
819.97	29668.92
820.15	29255.23
820.33	28956.23
820.51	29335.10
820.69	28833.35
820.87	29218.37
821.05	29267.52
821.22	29310.53
821.40	29232.71
821.58	29015.62
821.76	28913.22
821.94	28689.99
822.12	28704.33
822.29	29179.46
822.47	28679.75
822.65	28997.19
822.83	28835.40
823.01	28927.56
823.19	28857.93
823.36	28450.38
823.54	28474.96
823.72	28550.73
823.90	28712.52
824.08	28335.70
824.25	28536.40
824.43	28343.89
824.61	28538.44
824.79	28556.88
824.97	28038.74
825.15	28137.04
825.32	28053.08
825.50	28147.28
825.68	28151.38
825.86	27942.49
826.04	28360.27
826.21	27870.81
826.39	28216.91
826.57	28108.37
826.75	27604.57
826.93	27209.31
827.10	27631.19
827.28	27594.33
827.46	27872.85
827.64	27659.87
827.81	27696.73
827.99	27786.84
828.17	27416.16
828.35	27217.50
828.53	27696.73
828.70	27457.12
828.88	27166.31
829.06	27655.77
829.24	27688.54
829.41	27377.25
829.59	27469.40
829.77	27233.89
829.95	27225.70
830.12	27268.70
830.30	27203.17
830.48	27297.38
830.66	27086.43
830.84	27266.66
831.01	27043.43
831.19	27182.69
831.37	27162.21
831.55	26754.66
831.72	27106.91
831.90	26873.45
832.08	27008.61
832.25	26812.01
832.43	26754.66
832.61	26648.17
832.79	26392.17
832.96	26820.20
833.14	26973.80
833.32	26910.31
833.50	26584.68
833.67	26496.62
833.85	26502.76
834.03	26437.23
834.20	26472.04
834.38	26678.89
834.56	26707.56
834.74	26295.92
834.91	26357.36
835.09	26234.48
835.27	25941.62
835.44	26138.23
835.62	25990.77
835.80	25931.38
835.98	26271.34
836.15	26465.90
836.33	26035.83
836.51	26285.68
836.68	25935.48
836.86	26050.16
837.04	26054.26
837.21	25955.96
837.39	25884.28
837.57	26064.50
837.75	26046.07
837.92	25663.10
838.10	25910.90
838.28	25609.85
838.45	25773.69
838.63	25558.65
838.81	25716.34
838.98	25411.20
839.16	25400.96
839.34	25452.16
839.51	25525.88
839.69	25028.23
839.87	25241.21
840.04	25347.71
840.22	25560.70
840.40	25349.76
840.57	24864.39
840.75	25273.98
840.93	25026.18
841.10	25337.47
841.28	25245.31
841.46	25058.95
841.63	25192.06
841.81	25149.06
841.98	25360.00
842.16	25167.49
842.34	24675.98
842.51	24843.91
842.69	25114.24
842.87	24743.56
843.04	24743.56
843.22	24866.44
843.40	24716.93
843.57	24571.53
843.75	24837.76
843.92	24751.75
844.10	24899.20
844.28	24579.72
844.45	24825.48
844.63	24659.59
844.81	24544.91
844.98	24823.43
845.16	24733.32
845.33	24565.39
845.51	24690.31
845.69	24336.01
845.86	24082.06
846.04	24487.56
846.21	24282.77
846.39	24151.70
846.57	24006.29
846.74	24698.50
846.92	24039.06
847.09	24032.91
847.27	24020.63
847.45	24051.34
847.62	24510.09
847.80	24262.29
847.97	24290.96
848.15	24413.84
848.32	24047.25
848.50	23795.35
848.68	23735.96
848.85	23928.47
849.03	23555.74
849.20	23959.19
849.38	23979.67
849.56	23778.97
849.73	23656.09
849.91	23641.75
850.08	23922.32
850.26	23320.22
850.43	23281.31
850.61	23531.16
850.78	23393.95
850.96	23408.28
851.14	23127.71
851.31	23514.78
851.49	23318.17
851.66	23639.70
851.84	23393.95
852.01	23322.27
852.19	23625.37
852.36	23309.98
852.54	23387.80
852.71	23357.08
852.89	23197.34
853.07	23221.92
853.24	23207.58
853.42	23096.99
853.59	23176.86
853.77	23105.18
853.94	23203.49
854.12	23303.84
854.29	22816.42
854.47	22949.54
854.64	23180.96
854.82	23111.33
854.99	23088.80
855.17	23074.46
855.34	22806.18
855.52	23129.76
855.69	23072.42
855.87	22714.02
856.04	22636.20
856.22	22978.21
856.39	22425.26
856.57	22425.26
856.74	22511.27
856.92	22763.17
857.09	22367.91
857.27	22722.21
857.44	22652.58
857.62	22480.55
857.79	22781.60
857.97	22574.76
858.14	22372.01
858.32	22267.56
858.49	22458.03
858.67	22607.53
858.84	22232.75
859.02	22359.72
859.19	22030.00
859.37	22134.45
859.54	22093.49
859.72	22111.92
859.89	22275.76
860.06	22122.16
860.24	22107.82
860.41	22197.93
860.59	21909.17
860.76	22064.82
860.94	21798.58
861.11	22034.10
861.29	21827.25
861.46	22007.47
861.64	21898.93
861.81	21573.30
861.98	21466.81
862.16	21434.04
862.33	21661.37
862.51	21800.63
862.68	21757.62
862.86	21509.82
863.03	21528.25
863.21	21626.55
863.38	21513.91
863.55	21511.86
863.73	21358.27
863.90	21393.08
864.08	21470.90
864.25	21546.68
864.43	21341.88
864.60	21247.68
864.77	20987.58
864.95	21382.84
865.12	20969.15
865.30	21083.84
865.47	20797.12
865.64	21102.27
865.82	21135.04
865.99	21153.47
866.17	21065.41
866.34	21055.17
866.51	20494.02
866.69	20891.33
866.86	20977.34
867.04	20948.67
867.21	20971.20
867.38	20657.86
867.56	20686.53
867.73	20731.59
867.91	20780.74
868.08	20647.62
868.25	20164.30
868.43	20504.26
868.60	20223.69
868.78	20541.13
868.95	20549.32
869.12	20377.29
869.30	20244.17
869.47	20440.78
869.64	20211.40
869.82	20475.59
869.99	20199.12
870.16	20432.58
870.34	20080.33
870.51	20403.91
870.69	19994.32
870.86	20016.85
871.03	20149.96
871.21	20074.19
871.38	20127.44
871.55	19793.62
871.73	19967.70
871.90	19740.37
872.07	19742.42
872.25	19644.12
872.42	19742.42
872.59	19705.56
872.77	19629.78
872.94	19805.91
873.11	19730.13
873.29	19752.66
873.46	19558.10
873.63	19672.79
873.81	19324.63
873.98	19095.26
874.15	19211.99
874.33	18978.53
874.50	18894.56
874.67	19441.37
874.85	19214.04
875.02	18988.77
875.19	19058.40
875.37	19046.11
875.54	18824.93
875.71	18697.95
875.88	18925.28
876.06	18652.90
876.23	18788.07
876.40	18843.36
876.58	18861.79
876.75	18908.90
876.92	18556.64
877.10	18671.33
877.27	18530.02
877.44	18579.17
877.61	18335.46
877.79	18781.92
877.96	18239.21
878.13	18525.93
878.31	18450.15
878.48	18429.67
878.65	18192.11
878.82	18036.46
879.00	18167.53
879.17	18206.44
879.34	18388.71
879.51	18099.95
879.69	17743.60
879.86	18122.48
880.03	17835.76
880.21	17975.02
880.38	17921.77
880.55	17901.29
880.72	17874.67
880.90	17946.35
881.07	17821.42
881.24	17819.38
881.41	17831.66
881.59	17651.44
881.76	17843.95
881.93	17649.39
882.10	17673.97
882.28	17555.19
882.45	17723.12
882.62	17569.52
882.79	17483.51
882.96	17237.75
883.14	17647.35
883.31	17643.25
883.48	17422.07
883.65	17520.37
883.83	17647.35
884.00	17213.18
884.17	17368.82
884.34	17420.02
884.51	17256.18
884.69	17098.49
884.86	17172.22
885.03	17225.47
885.20	17121.02
885.38	17090.30
885.55	17037.05
885.72	17159.93
885.89	16889.60
886.06	17084.16
886.24	16981.76
886.41	17026.81
886.58	16934.65
886.75	17278.71
886.92	16897.79
887.10	16908.03
887.27	16965.37
887.44	16813.82
887.61	17106.68
887.78	16783.10
887.95	16932.61
888.13	16905.98
888.30	16813.82
888.47	16695.04
888.64	16623.36
888.81	16717.57
888.99	16707.33
889.16	16373.51
889.33	16500.48
889.50	16258.82
889.67	16416.52
889.84	16369.41
890.01	16496.39
890.19	16232.20
890.36	16443.14
890.53	16289.54
890.70	16322.31
890.87	16543.49
891.04	16277.26
891.22	16107.27
891.39	16314.12
891.56	16277.26
891.73	16056.08
891.90	15929.10
892.07	16181.00
892.24	15937.29
892.42	15933.20
892.59	16086.79
892.76	15834.89
892.93	15740.69
893.10	16013.07
893.27	15949.58
893.44	15675.15
893.61	15804.17
893.79	15841.04
893.96	15587.09
894.13	15781.65
894.30	15892.24
894.47	15679.25
894.64	16226.06
894.81	15628.05
894.98	15611.67
895.15	15648.53
895.33	15818.51
895.50	15486.74
895.67	15773.46
895.84	15802.13
896.01	15570.71
896.18	15599.38
896.35	15879.95
896.52	15812.37
896.69	15511.32
896.86	15697.68
897.04	15587.09
897.21	15652.63
897.38	15742.74
897.55	15335.19
897.72	15570.71
897.89	15589.14
898.06	15578.90
898.23	15646.48
898.40	15507.22
898.57	15441.68
898.74	15255.32
898.91	15281.94
899.08	15363.86
899.26	15386.39
899.43	15562.51
899.60	15492.88
899.77	15456.02
899.94	15568.66
900.11	15163.16
900.28	15613.71
900.45	15097.63
900.62	15488.79
900.79	15560.47
900.96	15400.72
901.13	15349.53
901.30	15560.47
901.47	15208.22
901.64	15492.88
901.81	15429.40
901.98	15210.26
902.15	15525.65
902.32	15327.00
902.49	15410.96
902.66	15365.91
902.83	15464.21
903.01	15271.70
903.18	15533.84
903.35	15386.39
903.52	15556.37
903.69	15380.25
903.86	15200.02
904.03	15341.33
904.20	15523.60
904.37	15347.48
904.54	15429.40
904.71	15091.48
904.88	15339.29
905.05	15257.37
905.22	15230.74
905.39	15259.42
905.56	15011.61
905.73	15261.46
905.90	15003.42
906.07	15148.82
906.24	15386.39
906.41	15236.89
906.58	15349.53
906.75	15292.18
906.92	15150.87
907.09	14915.36
907.26	15300.37
907.43	14909.21
907.60	15208.22
907.77	15193.88
907.93	15087.39
908.10	15226.65
908.27	15150.87
908.44	14966.56
908.61	14946.08
908.78	14872.35
908.95	15030.04
909.12	14911.26
909.29	14790.43
909.46	14995.23
909.63	14765.85
909.80	15243.03
909.97	15071.00
910.14	14841.63
910.31	14931.74
910.48	14878.49
910.65	15081.24
910.82	14860.06
910.99	14901.02
911.16	14937.88
911.33	14868.25
911.50	14837.53
911.66	14960.41
911.83	14927.64
912.00	14665.50
912.17	14645.02
912.34	14548.77
912.51	14481.19
912.68	14675.74
912.85	14602.02
913.02	14640.93
913.19	14522.15
913.36	14573.35
913.53	14499.62
913.70	14456.61
913.86	14520.10
914.03	14528.29
914.20	14323.49
914.37	14329.64
914.54	14350.12
914.71	14384.93
914.88	14243.62
915.05	14376.74
915.22	14391.08
915.39	14272.29
915.55	14364.45
915.72	14104.36
915.89	14341.93
916.06	13848.36
916.23	13983.53
916.40	14178.09
916.57	13874.99
916.74	14026.54
916.91	13803.31
917.07	13784.88
917.24	13684.53
917.41	13801.26
917.58	13649.71
917.75	13686.58
917.92	13471.54
918.09	13727.53
918.26	13707.05
918.42	13762.35
918.59	13643.57
918.76	13270.84
918.93	13457.20
919.10	13299.51
919.27	13199.16
919.44	13442.87
919.60	13203.25
919.77	13244.21
919.94	13121.34
920.11	13182.77
920.28	13244.21
920.45	13086.52
920.61	13000.51
920.78	13172.54
920.95	13037.37
921.12	12881.72
921.29	12693.31
921.46	12842.81
921.62	12873.53
921.79	12779.32
921.96	12808.00
922.13	12642.11
922.30	12642.11
922.47	12504.90
922.63	12545.86
922.80	12635.97
922.97	12412.74
923.14	12207.94
923.31	12277.57
923.47	12296.00
923.64	12455.75
923.81	11970.38
923.98	12095.30
924.15	11921.23
924.32	11953.99
924.48	12068.68
924.65	11978.57
924.82	12009.29
924.99	11816.78
925.15	11876.17
925.32	11759.44
925.49	11669.33
925.66	11921.23
925.83	11738.96
925.99	11487.06
926.16	11657.04
926.33	11360.08
926.50	11194.20
926.67	11542.35
926.83	11540.30
927.00	11462.48
927.17	11192.15
927.34	11149.14
927.50	11319.12
927.67	11321.17
927.84	11067.22
928.01	11108.18
928.17	10927.96
928.34	10991.45
928.51	11013.98
928.68	11005.78
928.84	10962.78
929.01	10741.60
929.18	10710.88
929.35	10694.49
929.51	10651.49
929.68	10510.18
929.85	10563.42
930.02	10506.08
930.18	10508.13
930.35	10534.75
930.52	10399.59
930.69	10393.44
930.85	10319.71
931.02	10289.00
931.19	10256.23
931.36	10215.27
931.52	10045.29
931.69	10114.92
931.86	10061.67
932.02	9899.88
932.19	9957.22
932.36	9731.95
932.53	10039.14
932.69	9805.67
932.86	9760.62
933.03	9879.40
933.19	9678.70
933.36	9643.88
933.53	9629.55
933.70	9408.37
933.86	9465.71
934.03	9361.27
934.20	9314.16
934.36	9447.28
934.53	9131.89
934.70	9033.59
934.86	9146.23
935.03	9123.70
935.20	9056.12
935.36	8939.38
935.53	8865.66
935.70	8816.51
935.86	8720.25
936.03	8750.97
936.20	8492.93
936.36	8470.40
936.53	8533.89
936.70	8531.84
936.86	8509.31
937.03	8427.39
937.20	8114.05
937.36	8124.29
937.53	7899.02
937.70	7874.44
937.86	7872.39
938.03	7745.42
938.20	7733.13
938.36	7470.99
938.53	7606.16
938.70	7423.89
938.86	7262.10
939.03	7337.87
939.20	7196.56
939.36	7114.64
939.53	7079.83
939.70	7124.88
939.86	6942.61
940.03	6825.88
940.19	6786.97
940.36	6844.31
940.53	6776.73
940.69	6555.55
940.86	6430.62
941.03	6352.80
941.19	6211.49
941.36	6475.68
941.52	6328.22
941.69	6270.88
941.86	6188.96
942.02	6131.62
942.19	5988.26
942.35	6158.24
942.52	5961.64
942.69	5871.53
942.85	5775.27
943.02	5818.28
943.18	5734.31
943.35	5787.56
943.52	5648.30
943.68	5638.06
943.85	5765.03
944.01	5478.32
944.18	5361.58
944.35	5580.71
944.51	5468.08
944.68	5273.52
944.84	5339.05
945.01	5326.77
945.17	5236.66
945.34	5326.77
945.51	5412.78
945.67	5392.30
945.84	5341.10
946.00	5230.51
946.17	5277.62
946.33	5203.89
946.50	5375.92
946.67	5269.42
946.83	5226.42
947.00	5343.15
947.16	5285.81
947.33	5263.28
947.49	5142.45
947.66	5101.49
947.82	5328.81
947.99	5154.74
948.16	5175.22
948.32	5199.79
948.49	5318.57
948.65	5291.95
948.82	5271.47
948.98	5248.94
949.15	5078.96
949.31	5152.69
949.48	5228.46
949.64	5250.99
949.81	5156.79
949.97	5078.96
950.14	5242.80
950.30	5144.50
950.47	5320.62
950.63	5326.77
950.80	5320.62
950.96	5232.56
951.13	5175.22
951.30	5101.49
951.46	5384.11
951.63	5425.07
951.79	5244.85
951.96	5318.57
952.12	5140.40
952.29	5318.57
952.45	5199.79
952.62	5357.49
952.78	5298.10
952.94	5310.38
953.11	5275.57
953.27	5218.22
953.44	5328.81
953.60	5332.91
953.77	5418.93
953.93	5267.38
954.10	5212.08
954.26	5310.38
954.43	5296.05
954.59	5267.38
954.76	5668.78
954.92	5277.62
955.09	5357.49
955.25	5392.30
955.42	5392.30
955.58	5425.07
955.75	5519.28
955.91	5242.80
956.07	5359.53
956.24	5347.25
956.40	5371.82
956.57	5359.53
956.73	5316.53
956.90	5339.05
957.06	5418.93
957.23	5193.65
957.39	5287.86
957.56	5285.81
957.72	5279.66
957.88	5230.51
958.05	5398.45
958.21	5533.61
958.38	5468.08
958.54	5312.43
958.71	5578.67
958.87	5294.00
959.03	5420.97
959.20	5322.67
959.36	5355.44
959.53	5494.70
959.69	5296.05
959.85	5390.25
960.02	5257.14
960.18	5312.43
960.35	5332.91
960.51	5449.64
960.68	5308.34
960.84	5220.27
961.00	5316.53
961.17	5392.30
961.33	5359.53
961.50	5302.19
961.66	5298.10
961.82	5210.03
961.99	5369.77
962.15	5400.49
962.31	5261.23
962.48	5433.26
962.64	5302.19
962.81	5238.70
962.97	5236.66
963.13	5310.38
963.30	5312.43
963.46	5253.04
963.62	5253.04
963.79	5271.47
963.95	5156.79
964.12	5361.58
964.28	5197.74
964.44	5203.89
964.61	5246.90
964.77	5228.46
964.93	5318.57
965.10	5128.11
965.26	5193.65
965.42	5203.89
965.59	5285.81
965.75	5193.65
965.92	5214.13
966.08	5302.19
966.24	5314.48
966.41	5191.60
966.57	5197.74
966.73	5277.62
966.90	5259.18
967.06	5152.69
967.22	5212.08
967.39	5054.39
967.55	5009.33
967.71	5222.32
967.88	4925.36
968.04	4997.04
968.20	5058.48
968.37	4911.03
968.53	5099.44
968.69	5091.25
968.85	5109.68
969.02	5205.94
969.18	5193.65
969.34	5007.28
969.51	5124.02
969.67	5009.33
969.83	4872.12
970.00	5111.73
970.16	5046.20
970.32	4968.37
970.48	5197.74
970.65	4943.80
970.81	4808.63
970.97	5081.01
971.14	4814.77
971.30	5124.02
971.46	4988.85
971.63	4958.13
971.79	5021.62
971.95	4810.68
972.11	4853.69
972.28	4956.08
972.44	4925.36
972.60	4849.59
972.76	4908.98
972.93	4761.53
973.09	4857.78
973.25	4976.56
973.42	4708.28
973.58	4919.22
973.74	4966.32
973.90	4833.21
974.07	4792.25
974.23	4921.27
974.39	4779.96
974.55	4786.10
974.72	4698.04
974.88	4708.28
975.04	4624.31
975.20	4796.34
975.37	4669.37
975.53	4716.47
975.69	4728.76
975.85	4636.60
976.01	4638.65
976.18	4579.26
976.34	4765.62
976.50	4638.65
976.66	4777.91
976.83	4648.89
976.99	4571.07
977.15	4675.51
977.31	4470.72
977.47	4593.59
977.64	4505.53
977.80	4480.96
977.96	4618.17
978.12	4569.02
978.29	4521.92
978.45	4392.89
978.61	4542.39
978.77	4566.97
978.93	4401.08
979.10	4431.80
979.26	4532.15
979.42	4304.83
979.58	4308.93
979.74	4409.28
979.91	4386.75
980.07	4435.90
980.23	4394.94
980.39	4360.13
980.55	4302.78
980.71	4413.37
980.88	4306.88
981.04	4186.05
981.20	4417.47
981.36	4415.42
981.52	4335.55
981.68	4272.06
981.85	4339.65
982.01	4263.87
982.17	4181.95
982.33	4224.96
982.49	4296.64
982.65	4235.20
982.82	4310.97
982.98	4245.44
983.14	4124.61
983.30	4306.88
983.46	4276.16
983.62	4202.43
983.79	4155.33
983.95	4251.58
984.11	4132.80
984.27	4198.34
984.43	4163.52
984.59	4091.84
984.75	4122.56
984.91	4069.31
985.08	4091.84
985.24	3975.11
985.40	4054.98
985.56	4149.18
985.72	4145.09
985.88	4247.49
986.04	4042.69
986.20	4085.70
986.37	4093.89
986.53	4040.64
986.69	4095.94
986.85	4050.88
987.01	3999.68
987.17	4016.07
987.33	3891.14
987.49	3999.68
987.65	4030.40
987.82	3913.67
987.98	3885.00
988.14	3948.48
988.30	3885.00
988.46	3862.47
988.62	3954.63
988.78	3913.67
988.94	3815.37
989.10	3887.04
989.26	3770.31
989.42	3829.70
989.59	3819.46
989.75	3682.25
989.91	3749.83
990.07	3741.64
990.23	3747.78
990.39	3696.58
990.55	3796.93
990.71	3846.09
990.87	3676.10
991.03	3792.84
991.19	3776.45
991.35	3690.44
991.51	3690.44
991.67	3684.30
991.83	3598.28
992.00	3620.81
992.16	3614.66
992.32	3686.34
992.48	3688.39
992.64	3590.09
992.80	3616.71
992.96	3698.63
993.12	3674.06
993.28	3688.39
993.44	3493.83
993.60	3672.01
993.76	3706.82
993.92	3549.13
994.08	3504.07
994.24	3612.62
994.40	3598.28
994.56	3626.95
994.72	3616.71
994.88	3491.79
995.04	3497.93
995.20	3538.89
995.36	3471.31
995.52	3522.51
995.68	3518.41
995.84	3432.40
996.00	3524.55
996.16	3452.88
996.32	3424.20
996.48	3477.45
996.64	3510.22
996.80	3442.64
996.96	3401.68
997.12	3487.69
997.28	3420.11
997.44	3418.06
997.60	3346.38
997.76	3315.66
997.92	3354.57
998.08	3379.15
998.24	3295.18
998.40	3428.30
998.56	3348.43
998.72	3153.87
998.88	3330.00
999.04	3315.66
999.20	3344.33
999.36	3311.57
999.52	3327.95
999.68	3278.80
999.84	3213.26
1000.00	3254.22
1000.16	3350.48
1000.32	3209.17
1000.48	3358.67
1000.64	3112.91
1000.80	3303.37
1000.95	3157.97
1001.11	3225.55
1001.27	3135.44
1001.43	3213.26
1001.59	3080.14
1001.75	3194.83
1001.91	3170.26
1002.07	3117.01
1002.23	3237.84
1002.39	3082.19
1002.55	3139.54
1002.71	3016.66
1002.87	3043.28
1003.03	3041.23
1003.19	3157.97
1003.34	3188.69
1003.50	3119.06
1003.66	3041.23
1003.82	3121.10
1003.98	3018.71
1004.14	3080.14
1004.30	3000.27
1004.46	2938.84
1004.62	2918.36
1004.78	2973.65
1004.94	2987.99
1005.09	3080.14
1005.25	3047.38
1005.41	2957.27
1005.57	3020.75
1005.73	2998.23
1005.89	2963.41
1006.05	2994.13
1006.21	2959.31
1006.37	2824.15
1006.52	2811.86
1006.68	2832.34
1006.84	2998.23
1007.00	2957.27
1007.16	2949.08
1007.32	2879.44
1007.48	2906.07
1007.64	2877.40
1007.79	2826.20
1007.95	2858.96
1008.11	2834.39
1008.27	2713.56
1008.43	2811.86
1008.59	2887.64
1008.75	2881.49
1008.91	2863.06
1009.06	2834.39
1009.22	2858.96
1009.38	2895.83
1009.54	2791.38
1009.70	2795.48
1009.86	2756.57
1010.01	2779.09
1010.17	2756.57
1010.33	2865.11
1010.49	2815.96
1010.65	2807.77
1010.81	2775.00
1010.96	2752.47
1011.12	2670.55
1011.28	2666.46
1011.44	2703.32
1011.60	2695.13
1011.76	2607.06
1011.91	2752.47
1012.07	2682.84
1012.23	2535.39
1012.39	2652.12
1012.55	2709.46
1012.71	2648.02
1012.86	2680.79
1013.02	2697.17
1013.18	2674.65
1013.34	2650.07
1013.50	2625.50
1013.65	2627.54
1013.81	2586.58
1013.97	2697.17
1014.13	2574.30
1014.29	2574.30
1014.44	2678.74
1014.60	2539.48
1014.76	2533.34
1014.92	2582.49
1015.07	2621.40
1015.23	2615.26
1015.39	2482.14
1015.55	2498.52
1015.71	2568.15
1015.86	2381.79
1016.02	2494.43
1016.18	2531.29
1016.34	2531.29
1016.49	2490.33
1016.65	2590.68
1016.81	2531.29
1016.97	2510.81
1017.12	2576.34
1017.28	2455.51
1017.44	2340.83
1017.60	2400.22
1017.75	2451.42
1017.91	2486.23
1018.07	2514.91
1018.23	2408.41
1018.38	2398.17
1018.54	2418.65
1018.70	2408.41
1018.86	2346.97
1019.01	2482.14
1019.17	2373.60
1019.33	2465.75
1019.49	2480.09
1019.64	2357.21
1019.80	2435.03
1019.96	2400.22
1020.12	2338.78
1020.27	2267.10
1020.43	2322.40
1020.59	2416.60
1020.74	2502.62
1020.90	2396.12
1021.06	2344.92
1021.22	2273.25
1021.37	2297.82
1021.53	2285.53
1021.69	2334.68
1021.84	2244.57
1022.00	2308.06
1022.16	2322.40
1022.31	2248.67
1022.47	2357.21
1022.63	2334.68
1022.79	2267.10
1022.94	2263.01
1023.10	2328.54
1023.26	2371.55
1023.41	2267.10
1023.57	2205.66
1023.73	2263.01
1023.88	2271.20
1024.04	2166.75
1024.20	2250.72
1024.35	2406.36
1024.51	2314.20
1024.67	2287.58
1024.82	2273.25
1024.98	2228.19
1025.14	2244.57
1025.29	2203.61
1025.45	2297.82
1025.61	2127.84
1025.76	2232.29
1025.92	2164.70
1026.08	2281.44
1026.23	2222.05
1026.39	2291.68
1026.55	2236.38
1026.70	2103.26
1026.86	2166.75
1027.02	2256.86
1027.17	2248.67
1027.33	2105.31
1027.48	2224.09
1027.64	2131.94
1027.80	2250.72
1027.95	2168.80
1028.11	2043.87
1028.27	2105.31
1028.42	2179.04
1028.58	2045.92
1028.73	2133.98
1028.89	2058.21
1029.05	2158.56
1029.20	2183.13
>>>>>End Processed Spectral Data<<<<<
