SpectraSuite Data File
++++++++++++++++++++++++++++++++++++
Date: Fri Jun 02 14:49:26 CEST 2017
User: INFO_000
Dark Spectrum Present: No
Reference Spectrum Present: No
Number of Sampled Component Spectra: 1
Spectrometers: USB4H00879
Integration Time (usec): 80000 (USB4H00879)
Spectra Averaged: 1 (USB4H00879)
Boxcar Smoothing: 0 (USB4H00879)
Correct for Electrical Dark: No (USB4H00879)
Strobe/Lamp Enabled: No (USB4H00879)
Correct for Detector Non-linearity: No (USB4H00879)
Correct for Stray Light: No (USB4H00879)
Number of Pixels in Processed Spectrum: 3648
>>>>>Begin Processed Spectral Data<<<<<
345.13	1308.65
345.34	1308.65
345.56	1308.65
345.78	1261.55
345.99	1318.89
346.21	1599.46
346.42	1687.53
346.64	1583.08
346.86	1751.01
347.07	1695.72
347.29	1656.81
347.50	1626.09
347.72	1628.14
347.94	1712.10
348.15	1613.80
348.37	1642.47
348.59	1697.77
348.80	1642.47
349.02	1785.83
349.23	1867.75
349.45	1857.51
349.67	1888.23
349.88	1804.26
350.10	1970.15
350.31	1804.26
350.53	1748.97
350.75	1978.34
350.96	1804.26
351.18	1849.32
351.39	1791.97
351.61	1810.40
351.82	1886.18
352.04	1904.61
352.26	1861.60
352.47	1892.32
352.69	1947.62
352.90	1781.73
353.12	1777.64
353.34	1859.56
353.55	1869.80
353.77	1783.78
353.98	1871.84
354.20	1791.97
354.41	1916.90
354.63	1943.52
354.85	2019.30
355.06	1882.08
355.28	1804.26
355.49	1904.61
355.71	1912.80
355.92	1832.93
356.14	1918.95
356.35	1794.02
356.57	1781.73
356.79	1947.62
357.00	1867.75
357.22	1925.09
357.43	1761.25
357.65	1970.15
357.86	1886.18
358.08	1941.47
358.29	1957.86
358.51	1968.10
358.72	2113.50
358.94	1937.38
359.16	1945.57
359.37	1959.91
359.59	1996.77
359.80	1964.00
360.02	1925.09
360.23	2011.11
360.45	1972.19
360.66	1994.72
360.88	1847.27
361.09	1974.24
361.31	1992.67
361.52	2000.87
361.74	2066.40
361.95	2123.74
362.17	1871.84
362.38	2064.35
362.60	2078.69
362.81	1935.33
363.03	1970.15
363.24	1920.99
363.46	2119.65
363.67	1986.53
363.89	2029.54
364.10	1990.63
364.32	1998.82
364.53	1972.19
364.75	1912.80
364.96	2072.54
365.18	2017.25
365.39	2025.44
365.61	1994.72
365.82	2144.22
366.04	1976.29
366.25	1949.67
366.47	2045.92
366.68	2064.35
366.90	2025.44
367.11	2080.74
367.33	2084.83
367.54	2015.20
367.76	2007.01
367.97	2090.98
368.19	2019.30
368.40	2093.02
368.62	1929.19
368.83	1961.95
369.05	1992.67
369.26	1961.95
369.48	1966.05
369.69	2076.64
369.91	1992.67
370.12	2058.21
370.33	2076.64
370.55	1914.85
370.76	2031.58
370.98	2121.70
371.19	2068.45
371.41	2035.68
371.62	2084.83
371.84	2039.78
372.05	2205.66
372.27	2058.21
372.48	2082.78
372.69	2058.21
372.91	2121.70
373.12	2142.18
373.34	2068.45
373.55	2109.41
373.77	2152.42
373.98	2105.31
374.20	2140.13
374.41	2232.29
374.62	2125.79
374.84	2138.08
375.05	2131.94
375.27	2148.32
375.48	2166.75
375.70	2158.56
375.91	2248.67
376.12	2250.72
376.34	2119.65
376.55	2209.76
376.77	2207.71
376.98	2099.17
377.19	2105.31
377.41	2109.41
377.62	2195.42
377.84	2244.57
378.05	2279.39
378.27	2144.22
378.48	2330.59
378.69	2365.40
378.91	2256.86
379.12	2174.94
379.34	2183.13
379.55	2326.49
379.76	2228.19
379.98	2209.76
380.19	2232.29
380.41	2263.01
380.62	2246.62
380.83	2258.91
381.05	2174.94
381.26	2392.03
381.47	2172.89
381.69	2220.00
381.90	2461.66
382.12	2273.25
382.33	2181.09
382.54	2332.64
382.76	2289.63
382.97	2267.10
383.19	2291.68
383.40	2387.93
383.61	2211.81
383.83	2222.05
384.04	2328.54
384.25	2408.41
384.47	2371.55
384.68	2373.60
384.89	2236.38
385.11	2269.15
385.32	2328.54
385.54	2330.59
385.75	2265.05
385.96	2437.08
386.18	2480.09
386.39	2420.70
386.60	2324.44
386.82	2484.19
387.03	2365.40
387.24	2473.95
387.46	2437.08
387.67	2426.84
387.88	2492.38
388.10	2445.27
388.31	2463.71
388.52	2523.10
388.74	2541.53
388.95	2455.51
389.16	2475.99
389.38	2463.71
389.59	2584.54
389.80	2576.34
390.02	2473.95
390.23	2592.73
390.44	2568.15
390.66	2566.10
390.87	2453.47
391.08	2635.74
391.30	2703.32
391.51	2584.54
391.72	2643.93
391.94	2588.63
392.15	2598.87
392.36	2611.16
392.58	2600.92
392.79	2670.55
393.00	2641.88
393.22	2713.56
393.43	2654.17
393.64	2777.05
393.85	2797.53
394.07	2562.01
394.28	2688.98
394.49	2727.89
394.71	2699.22
394.92	2842.58
395.13	2760.66
395.35	2721.75
395.56	2621.40
395.77	2717.65
395.98	2777.05
396.20	2789.33
396.41	2764.76
396.62	2848.72
396.84	2748.37
397.05	2869.20
397.26	2901.97
397.47	2977.75
397.69	2822.10
397.90	2922.45
398.11	2838.48
398.32	2852.82
398.54	2781.14
398.75	2867.16
398.96	2920.40
399.18	3076.05
399.39	2949.08
399.60	3117.01
399.81	2969.55
400.03	2949.08
400.24	3174.35
400.45	2981.84
400.66	3084.24
400.88	3035.09
401.09	3135.44
401.30	3012.56
401.51	3119.06
401.73	3114.96
401.94	3176.40
402.15	3039.19
402.36	3172.30
402.58	3172.30
402.79	3172.30
403.00	3121.10
403.21	3147.73
403.43	3096.53
403.64	3258.32
403.85	3061.71
404.06	3182.54
404.27	3084.24
404.49	3155.92
404.70	3219.41
404.91	3295.18
405.12	3248.08
405.34	3272.65
405.55	3346.38
405.76	3221.45
405.97	3145.68
406.19	3317.71
406.40	3186.64
406.61	3223.50
406.82	3291.09
407.03	3174.35
407.25	3276.75
407.46	3364.81
407.67	3391.44
407.88	3477.45
408.09	3368.91
408.31	3317.71
408.52	3399.63
408.73	3377.10
408.94	3416.01
409.15	3426.25
409.37	3489.74
409.58	3452.88
409.79	3446.73
410.00	3518.41
410.21	3620.81
410.43	3518.41
410.64	3360.72
410.85	3575.75
411.06	3573.71
411.27	3520.46
411.48	3602.38
411.70	3479.50
411.91	3639.24
412.12	3608.52
412.33	3606.47
412.54	3579.85
412.76	3618.76
412.97	3692.49
413.18	3504.07
413.39	3739.59
413.60	3598.28
413.81	3624.90
414.03	3690.44
414.24	3602.38
414.45	3612.62
414.66	3456.97
414.87	3637.19
415.08	3534.79
415.30	3702.73
415.51	3780.55
415.72	3715.02
415.93	3774.41
416.14	3768.26
416.35	3747.78
416.56	3837.89
416.78	3792.84
416.99	3672.01
417.20	3727.30
417.41	3827.65
417.62	3870.66
417.83	3968.96
418.04	3796.93
418.26	3946.44
418.47	3891.14
418.68	3981.25
418.89	3911.62
419.10	4001.73
419.31	4011.97
419.52	3999.68
419.73	4050.88
419.95	3968.96
420.16	3899.33
420.37	4087.75
420.58	4057.03
420.79	3907.52
421.00	3952.58
421.21	3983.30
421.42	3942.34
421.63	4014.02
421.85	4124.61
422.06	4245.44
422.27	4145.09
422.48	4112.32
422.69	4138.94
422.90	4155.33
423.11	4136.90
423.32	4261.82
423.53	4386.75
423.75	4210.62
423.96	4499.39
424.17	4349.89
424.38	4468.67
424.59	4364.22
424.80	4503.48
425.01	4339.65
425.22	4300.73
425.43	4333.50
425.64	4665.27
425.85	4546.49
426.06	4472.76
426.28	4472.76
426.49	4437.95
426.70	4450.24
426.91	4476.86
427.12	4534.20
427.33	4585.40
427.54	4560.83
427.75	4634.55
427.96	4790.20
428.17	4741.05
428.38	4597.69
428.59	4808.63
428.80	4745.14
429.01	4718.52
429.23	4763.58
429.44	4931.51
429.65	4884.41
429.86	4919.22
430.07	4722.62
430.28	4812.73
430.49	4876.21
430.70	5097.39
430.91	4992.95
431.12	4779.96
431.33	5113.78
431.54	4927.41
431.75	4880.31
431.96	4937.65
432.17	5083.06
432.38	5144.50
432.59	5242.80
432.80	5244.85
433.01	5124.02
433.22	5203.89
433.43	5255.09
433.64	5140.40
433.85	5244.85
434.06	5269.42
434.27	5162.93
434.49	5275.57
434.70	5451.69
434.91	5283.76
435.12	5447.60
435.33	5408.69
435.54	5441.45
435.75	5220.27
435.96	5449.64
436.17	5408.69
436.38	5552.04
436.59	5511.08
436.80	5459.88
437.01	5713.83
437.22	5640.11
437.43	5644.20
437.64	5357.49
437.85	5775.27
438.06	5601.19
438.27	5390.25
438.48	5517.23
438.69	5859.24
438.90	5658.54
439.11	5533.61
439.32	5885.86
439.53	5781.42
439.74	5728.17
439.95	5814.18
440.16	5818.28
440.37	5793.70
440.57	5758.89
440.78	5883.81
440.99	5894.05
441.20	5816.23
441.41	5750.70
441.62	6090.66
441.83	5859.24
442.04	6043.56
442.25	5996.45
442.46	6023.08
442.67	6223.78
442.88	6616.99
443.09	5953.45
443.30	6160.29
443.51	5982.12
443.72	6309.79
443.93	6039.46
444.14	6277.02
444.35	6070.18
444.56	6172.58
444.77	6205.35
444.98	6260.64
445.19	6414.24
445.40	6350.75
445.61	6281.12
445.81	6504.35
446.02	6444.96
446.23	6371.23
446.44	6358.94
446.65	6463.39
446.86	6436.77
447.07	6526.88
447.28	6662.04
447.49	6565.79
447.70	6401.95
447.91	6651.80
448.12	6602.65
448.33	6705.05
448.54	6715.29
448.74	6578.08
448.95	6770.58
449.16	6713.24
449.37	6879.13
449.58	6690.71
449.79	6979.48
450.00	6774.68
450.21	6809.50
450.42	6844.31
450.63	7036.82
450.84	6950.81
451.05	7063.44
451.25	6954.90
451.46	6877.08
451.67	7073.68
451.88	7286.67
452.09	7092.12
452.30	6956.95
452.51	7180.18
452.72	7323.54
452.93	7380.88
453.13	6995.86
453.34	7110.55
453.55	7374.74
453.76	7276.43
453.97	7554.96
454.18	7440.27
454.39	7653.26
454.60	7489.42
454.81	7395.22
455.01	7602.06
455.22	7227.28
455.43	7593.87
455.64	7649.16
455.85	7847.82
456.06	7714.70
456.27	7815.05
456.48	7690.12
456.68	7968.65
456.89	7808.90
457.10	7913.35
457.31	7856.01
457.52	7726.99
457.73	7915.40
457.94	8075.14
458.14	7919.50
458.35	8206.21
458.56	8226.69
458.77	7831.43
458.98	8171.40
459.19	8249.22
459.39	8245.12
459.60	8294.27
459.81	8339.33
460.02	8441.73
460.23	8435.58
460.44	8601.47
460.65	8519.55
460.85	8449.92
461.06	8511.36
461.27	8525.69
461.48	8707.96
461.69	8961.91
461.89	8507.26
462.10	8542.08
462.31	8667.00
462.52	8705.92
462.73	8587.13
462.94	8951.67
463.14	8916.86
463.35	8818.55
463.56	9207.67
463.77	9269.11
463.98	9176.95
464.18	9301.87
464.39	9201.52
464.60	9506.67
464.81	9326.45
465.02	9398.13
465.23	9736.04
465.43	9578.35
465.64	9863.02
465.85	9635.69
466.06	9453.42
466.27	9856.87
466.47	9791.34
466.68	9914.22
466.89	9820.01
467.10	9928.55
467.30	9719.66
467.51	10178.40
467.72	10141.54
467.93	9953.13
468.14	10217.32
468.34	10252.13
468.55	10264.42
468.76	10379.11
468.97	10174.31
469.17	10506.08
469.38	10674.01
469.59	10714.97
469.80	10563.42
470.01	10481.50
470.21	10768.22
470.42	10792.80
470.63	11067.22
470.84	10852.19
471.04	11079.51
471.25	10956.63
471.46	11081.56
471.67	11239.25
471.87	11161.43
472.08	11425.62
472.29	11446.10
472.50	11200.34
472.70	11476.82
472.91	11421.52
473.12	11605.84
473.33	11595.60
473.53	11851.60
473.74	11886.41
473.95	11894.60
474.16	12232.52
474.36	12070.73
474.57	12244.81
474.78	12420.93
474.99	12521.28
475.19	12300.10
475.40	12578.62
475.61	12693.31
475.81	12613.44
476.02	13145.91
476.23	12891.96
476.44	12947.26
476.64	13295.41
476.85	13207.35
477.06	13117.24
477.27	13522.74
477.47	13639.47
477.68	13633.33
477.89	13723.44
478.09	13680.43
478.30	13729.58
478.51	13995.82
478.71	13797.17
478.92	14124.84
479.13	14227.24
479.34	14251.81
479.54	14296.87
479.75	14532.39
479.96	14313.25
480.16	14546.72
480.37	14712.61
480.58	14794.53
480.78	15009.56
480.99	15013.66
481.20	15154.97
481.41	15066.91
481.61	15146.78
481.82	15353.62
482.03	15253.27
482.23	15380.25
482.44	15515.41
482.65	15781.65
482.85	16008.97
483.06	16076.55
483.27	16011.02
483.47	15943.44
483.68	16074.51
483.89	16559.88
484.09	16326.41
484.30	16357.13
484.51	16676.61
484.71	16815.87
484.92	16527.11
485.13	17075.96
485.33	16676.61
485.54	16848.64
485.75	17207.03
485.95	17315.58
486.16	17417.97
486.37	17364.73
486.57	17368.82
486.78	17665.78
486.98	17458.93
487.19	17618.68
487.40	18247.40
487.60	17843.95
487.81	18360.04
488.02	17778.42
488.22	17868.53
488.43	18435.81
488.64	18390.76
488.84	18683.62
489.05	18708.19
489.25	18439.91
489.46	19042.01
489.67	18534.12
489.87	18894.56
490.08	18966.24
490.29	19189.47
490.49	19349.21
490.70	19414.74
490.90	19451.61
491.11	19519.19
491.32	19504.85
491.52	19478.23
491.73	19629.78
491.94	19869.39
492.14	19846.87
492.35	19887.82
492.55	19975.89
492.76	19947.22
492.97	20356.81
493.17	20176.59
493.38	20408.01
493.58	20354.76
493.79	20471.50
494.00	20778.69
494.20	20338.38
494.41	20553.41
494.61	20891.33
494.82	20870.85
495.02	20985.54
495.23	21243.58
495.44	21053.12
495.64	21573.30
495.85	21360.31
496.05	21462.71
496.26	21561.02
496.47	21980.85
496.67	21382.84
496.88	21929.65
497.08	21667.51
497.29	22058.67
497.49	21868.21
497.70	22040.24
497.91	22210.22
498.11	22275.76
498.32	22441.64
498.52	22337.20
498.73	22341.29
498.93	22603.43
499.14	22671.01
499.34	22697.64
499.55	23017.12
499.76	22892.19
499.96	23058.08
500.17	22906.53
500.37	23228.06
500.58	23183.01
500.78	23238.30
500.99	23137.95
501.19	23170.72
501.40	23205.53
501.60	23189.15
501.81	23062.18
502.02	23531.16
502.22	23299.74
502.43	23787.16
502.63	23568.02
502.84	23654.04
503.04	24018.58
503.25	23500.44
503.45	23768.73
503.66	23930.51
503.86	23828.12
504.07	24127.12
504.27	23994.00
504.48	24403.60
504.68	24088.21
504.89	24514.19
505.09	24325.77
505.30	24655.50
505.50	24366.73
505.71	24706.70
505.91	24813.19
506.12	24733.32
506.32	24858.24
506.53	24837.76
506.73	25108.10
506.94	25112.19
507.14	25116.29
507.35	24870.53
507.55	25269.89
507.76	25056.90
507.96	25351.81
508.17	25243.26
508.37	25427.58
508.58	25351.81
508.78	25316.99
508.99	25589.37
509.19	25755.26
509.40	25525.88
509.60	25624.18
509.81	26037.87
510.01	25613.95
510.22	25564.79
510.42	25921.14
510.63	26031.73
510.83	25865.85
511.04	26039.92
511.24	26082.93
511.44	25900.66
511.65	26166.90
511.85	26048.11
512.06	26408.56
512.26	26195.57
512.47	26332.78
512.67	26529.39
512.88	26467.95
513.08	26373.74
513.29	26668.65
513.49	26484.33
513.69	26639.98
513.90	26639.98
514.10	27043.43
514.31	26977.89
514.51	26990.18
514.72	26795.62
514.92	26678.89
515.13	27072.10
515.33	26900.07
515.53	27418.21
515.74	27199.07
515.94	27448.93
516.15	26943.08
516.35	27127.39
516.56	27465.31
516.76	27418.21
516.96	27344.48
517.17	27835.99
517.37	27606.62
517.58	27928.15
517.78	27670.11
517.99	27913.81
518.19	27936.34
518.39	28223.06
518.60	28094.04
518.80	28196.43
519.01	28364.37
519.21	28126.80
519.41	28491.34
519.62	28186.19
519.82	28411.47
520.03	28591.69
520.23	28577.36
520.43	28472.91
520.64	28782.15
520.84	28890.70
521.05	28909.13
521.25	28792.39
521.45	28935.75
521.66	29154.88
521.86	29482.56
522.07	29140.55
522.27	29275.71
522.47	29591.10
522.68	29713.98
522.88	29619.77
523.08	29642.30
523.29	29705.79
523.49	29754.94
523.70	29902.39
523.90	30103.09
524.10	30139.96
524.31	30094.90
524.51	29783.61
524.71	30559.79
524.92	30299.70
525.12	30162.48
525.33	30481.97
525.53	30506.54
525.73	30926.38
525.94	30801.45
526.14	31030.82
526.34	30717.48
526.55	31264.29
526.75	30946.86
526.95	31108.65
527.16	31313.44
527.36	31378.98
527.56	31426.08
527.77	31548.96
527.97	31577.63
528.17	31704.60
528.38	31925.78
528.58	31587.87
528.78	32081.43
528.99	31651.36
529.19	32355.86
529.39	32392.72
529.60	32517.65
529.80	31968.79
530.00	32187.92
530.21	32519.70
530.41	32618.00
530.61	32318.99
530.82	32503.31
531.02	32734.73
531.22	32904.71
531.43	33031.69
531.63	33152.52
531.83	33248.77
532.04	33582.59
532.24	33242.63
532.44	34063.86
532.64	33768.96
532.85	34192.89
533.05	34043.38
533.25	33988.09
533.46	33771.00
533.66	34235.89
533.86	34297.33
534.07	34330.10
534.27	34506.23
534.47	34737.65
534.67	34852.33
534.88	34639.34
535.08	34639.34
535.28	34821.61
535.49	34924.01
535.69	35458.53
535.89	34987.50
536.09	35347.94
536.30	35417.57
536.50	35440.10
536.70	35689.95
536.91	35677.66
537.11	35321.32
537.31	35638.75
537.51	35931.61
537.72	35986.91
537.92	36314.58
538.12	36249.05
538.32	36238.81
538.53	36318.68
538.73	36312.53
538.93	36363.73
539.13	36357.59
539.34	36468.18
539.54	36421.08
539.74	37119.43
539.94	36836.81
540.15	36941.26
540.35	37313.99
540.55	36820.43
540.75	37043.66
540.96	37367.24
541.16	37168.58
541.36	37348.81
541.56	37064.14
541.77	37838.27
541.97	37549.51
542.17	37537.22
542.37	37672.39
542.58	37696.96
542.78	37377.48
542.98	38016.44
543.18	38174.14
543.38	38309.30
543.59	38188.47
543.79	37815.74
543.99	38237.62
544.19	38129.08
544.40	38348.21
544.60	38391.22
544.80	38489.52
545.00	38426.04
545.20	38960.56
545.41	38686.13
545.61	38790.58
545.81	39019.95
546.01	38725.04
546.21	38827.44
546.42	38915.50
546.62	38925.74
546.82	38962.61
547.02	39366.06
547.22	39103.92
547.43	38950.32
547.63	39630.24
547.83	39101.87
548.03	38841.78
548.23	39591.33
548.44	39546.28
548.64	39775.65
548.84	39835.04
549.04	39275.94
549.24	39916.96
549.45	39708.07
549.65	39908.77
549.85	39988.64
550.05	39802.27
550.25	40269.21
550.45	40396.18
550.66	40207.77
550.86	40076.70
551.06	40566.16
551.26	40164.76
551.46	40482.20
551.66	40760.72
551.87	40207.77
552.07	40465.81
552.27	40510.87
552.47	40445.33
552.67	40781.20
552.87	40566.16
553.07	40701.33
553.28	40529.30
553.48	41029.01
553.68	40768.91
553.88	41399.69
554.08	41162.12
554.28	40674.71
554.48	40695.19
554.69	41129.36
554.89	41211.28
555.09	41190.80
555.29	40625.56
555.49	40748.43
555.69	41289.10
555.89	41395.59
556.10	41317.77
556.30	40981.90
556.50	41610.63
556.70	41287.05
556.90	41921.92
557.10	41751.94
557.30	41342.35
557.50	41796.99
557.70	41672.07
557.91	41766.27
558.11	41596.29
558.31	41782.66
558.51	41547.14
558.71	41753.99
558.91	42163.58
559.11	41491.85
559.31	41964.93
559.51	41676.16
559.72	42016.13
559.92	42061.18
560.12	42243.45
560.32	42069.37
560.52	42036.61
560.72	42280.31
560.92	42173.82
561.12	42382.71
561.32	42622.33
561.52	42356.09
561.72	42796.40
561.93	42239.36
562.13	42460.54
562.33	42122.62
562.53	42866.03
562.73	42376.57
562.93	42671.48
563.13	42708.34
563.33	42667.38
563.53	42845.55
563.73	42849.65
563.93	42986.86
564.13	42851.70
564.33	42601.85
564.53	42849.65
564.74	43502.95
564.94	42362.23
565.14	43220.33
565.34	42939.76
565.54	43079.02
565.74	43318.64
565.94	43582.82
566.14	43025.78
566.34	43318.64
566.54	43711.84
566.74	42954.10
566.94	43273.58
567.14	43597.16
567.34	43425.13
567.54	43470.18
567.74	43580.78
567.94	43410.79
568.14	43765.09
568.34	43625.83
568.54	43621.73
568.74	43625.83
568.94	43738.47
569.14	44479.83
569.34	43945.31
569.54	44094.82
569.75	43791.72
569.95	43750.76
570.15	44330.33
570.35	43875.68
570.55	44143.97
570.75	44184.93
570.95	43949.41
571.15	44189.02
571.35	44080.48
571.55	44412.25
571.75	44309.85
571.95	44545.37
572.15	44477.79
572.35	44774.74
572.55	44045.66
572.75	44432.73
572.95	44889.43
573.15	44746.07
573.35	44307.80
573.55	44287.32
573.75	44547.42
573.95	45049.17
574.15	44899.67
574.35	45137.23
574.55	44952.91
574.75	44608.86
574.95	44930.39
575.15	45126.99
575.34	44631.38
575.54	45098.32
575.74	45641.03
575.94	45673.80
576.14	45006.16
576.34	45677.90
576.54	45739.33
576.74	45481.29
576.94	45356.36
577.14	45800.77
577.34	46130.50
577.54	45456.71
577.74	45935.94
577.94	45675.85
578.14	45827.40
578.34	45948.23
578.54	45600.07
578.74	45540.68
578.94	45993.28
579.14	45868.36
579.34	45935.94
579.54	45991.23
579.74	46607.67
579.94	46386.49
580.13	46138.69
580.33	46843.19
580.53	46562.62
580.73	46568.76
580.93	46282.05
581.13	46458.17
581.33	46347.58
581.53	46822.71
581.73	46986.55
581.93	46949.68
582.13	47445.29
582.33	46961.97
582.53	46576.95
582.73	46953.78
582.92	46888.24
583.12	47408.43
583.32	47394.09
583.52	46945.59
583.72	47625.51
583.92	47090.99
584.12	47353.13
584.32	48051.49
584.52	47422.76
584.72	47338.80
584.92	47637.80
585.11	48475.42
585.31	47719.72
585.51	47932.71
585.71	47199.54
585.91	47633.71
586.11	47676.71
586.31	48031.01
586.51	47883.56
586.71	47836.45
586.91	48215.33
587.10	48739.61
587.30	48055.59
587.50	48332.06
587.70	48665.88
587.90	48264.48
588.10	48725.27
588.30	48354.59
588.50	48258.34
588.69	48377.12
588.89	48692.50
589.09	48983.32
589.29	48618.78
589.49	49163.54
589.69	48858.39
589.89	49194.26
590.08	49220.88
590.28	48903.45
590.48	48889.11
590.68	48856.34
590.88	48801.05
591.08	48788.76
591.28	49112.34
591.47	49331.47
591.67	49229.07
591.87	49120.53
592.07	49253.65
592.27	49267.98
592.47	49386.77
592.67	49390.86
592.86	49165.59
593.06	49577.23
593.26	49759.50
593.46	49497.36
593.66	49675.53
593.86	50025.73
594.05	49558.80
594.25	49902.85
594.45	49616.14
594.65	49814.79
594.85	49423.63
595.05	50283.78
595.24	49984.77
595.44	50128.13
595.64	50158.85
595.84	50124.04
596.04	50152.71
596.23	50158.85
596.43	50097.41
596.63	50136.32
596.83	50218.24
597.03	50406.65
597.22	50584.83
597.42	50490.62
597.62	50781.43
597.82	50461.95
598.02	50826.49
598.21	50793.72
598.41	50935.03
598.61	50789.62
598.81	51426.54
599.01	51041.53
599.20	50973.94
599.40	50842.87
599.60	50801.91
599.80	51336.43
600.00	51270.90
600.19	51092.72
600.39	51004.66
600.59	51688.68
600.79	51377.39
600.98	51481.84
601.18	51786.99
601.38	51338.48
601.58	51311.86
601.78	51801.32
601.97	51217.65
602.17	51944.68
602.37	51725.55
602.57	51737.83
602.76	52141.28
602.96	51803.37
603.16	52294.88
603.36	52112.61
603.55	52485.34
603.75	52296.93
603.95	52452.58
604.15	52567.26
604.34	52393.18
604.54	52516.06
604.74	52509.92
604.94	52835.55
605.13	52602.08
605.33	52501.73
605.53	52532.45
605.73	53032.15
605.92	52536.54
606.12	52348.13
606.32	52647.13
606.52	52813.02
606.71	52876.51
606.91	52991.19
607.11	53228.76
607.30	52866.27
607.50	53187.80
607.70	53120.21
607.90	53206.23
608.09	52983.00
608.29	52858.07
608.49	53296.34
608.68	53365.97
608.88	53146.84
609.08	53656.78
609.28	53384.40
609.47	53216.47
609.67	54017.22
609.87	53109.97
610.06	53368.02
610.26	53527.76
610.46	53664.97
610.66	53564.62
610.85	53441.74
611.05	53578.96
611.25	53748.94
611.44	53394.64
611.64	53533.90
611.84	53642.45
612.03	53701.84
612.23	53613.77
612.43	54025.42
612.62	53724.36
612.82	53380.31
613.02	53798.09
613.21	54154.44
613.41	53408.98
613.61	53687.50
613.80	53157.08
614.00	53959.88
614.20	53650.64
614.39	54394.05
614.59	54191.30
614.79	53320.91
614.98	54166.73
615.18	54250.69
615.38	54080.71
615.57	53761.23
615.77	54195.40
615.97	53806.28
616.16	53863.63
616.36	54215.88
616.56	53994.70
616.75	54064.33
616.95	53447.89
617.15	53920.97
617.34	53683.40
617.54	53847.24
617.74	54322.37
617.93	54097.09
618.13	53607.63
618.32	54369.47
618.52	53732.56
618.72	53929.16
618.91	54271.17
619.11	53974.22
619.31	53910.73
619.50	54082.76
619.70	53685.45
619.90	54150.34
620.09	53947.59
620.29	53798.09
620.48	53947.59
620.68	53986.50
620.88	53525.71
621.07	54150.34
621.27	54131.91
621.46	53988.55
621.66	53875.91
621.86	53775.56
622.05	53800.14
622.25	54330.56
622.44	53978.31
622.64	53851.34
622.84	54471.87
623.03	53578.96
623.23	53912.78
623.42	53984.46
623.62	53853.39
623.82	54191.30
624.01	53908.68
624.21	54129.86
624.40	53851.34
624.60	54277.32
624.80	53925.07
624.99	54109.38
625.19	53718.22
625.38	54160.58
625.58	54105.29
625.77	53822.67
625.97	54056.14
626.17	53664.97
626.36	54295.75
626.56	53865.67
626.75	53677.26
626.95	54348.99
627.14	53834.95
627.34	54408.39
627.54	53941.45
627.73	54064.33
627.93	54369.47
628.12	54031.56
628.32	54133.96
628.51	54191.30
628.71	53769.42
628.90	53779.66
629.10	54426.82
629.30	53605.58
629.49	53888.20
629.69	53945.54
629.88	53990.60
630.08	54320.32
630.27	54250.69
630.47	54277.32
630.66	54406.34
630.86	54441.15
631.05	53431.50
631.25	54254.79
631.44	54277.32
631.64	54093.00
631.84	54033.61
632.03	54328.52
632.23	54090.95
632.42	54564.03
632.62	53982.41
632.81	53667.02
633.01	53775.56
633.20	54543.55
633.40	53998.79
633.59	54484.16
633.79	53624.01
633.98	54445.25
634.18	54144.20
634.37	54842.56
634.57	54209.73
634.76	54518.98
634.96	54385.86
635.15	54299.84
635.35	54392.00
635.54	54328.52
635.74	54834.36
635.93	54582.46
636.13	54521.02
636.32	54559.94
636.52	54164.68
636.71	54539.46
636.91	54641.85
637.10	54533.31
637.30	54697.15
637.49	54518.98
637.69	54432.96
637.88	55047.35
638.08	54760.64
638.27	54596.80
638.46	54580.42
638.66	54678.72
638.85	54789.31
639.05	54754.49
639.24	54985.91
639.44	54195.40
639.63	54432.96
639.83	54770.88
640.02	54772.92
640.22	54580.42
640.41	54600.89
640.61	54445.25
640.80	54836.41
640.99	54498.50
641.19	54949.05
641.38	54412.48
641.58	54748.35
641.77	54604.99
641.97	54369.47
642.16	54836.41
642.36	54840.51
642.55	55555.25
642.74	54463.68
642.94	55110.84
643.13	54965.43
643.33	55188.66
643.52	55141.56
643.72	55301.30
643.91	54836.41
644.10	54957.24
644.30	55346.36
644.49	54768.83
644.69	55008.44
644.88	54981.82
645.08	54811.84
645.27	54992.06
645.46	54801.60
645.66	55219.38
645.85	55207.09
646.05	55383.22
646.24	55139.51
646.43	55540.91
646.63	55162.04
646.82	55415.99
647.02	55248.05
647.21	55055.54
647.40	55246.00
647.60	55098.55
647.79	55348.40
647.99	55063.74
648.18	55325.88
648.37	56032.42
648.57	55680.17
648.76	55391.41
648.96	54994.10
649.15	55604.40
649.34	55362.74
649.54	55192.76
649.73	55391.41
649.92	55831.72
650.12	55436.47
650.31	55536.82
650.51	55620.78
650.70	55581.87
650.89	55493.81
651.09	55862.44
651.28	55714.99
651.47	55678.13
651.67	55934.12
651.86	56376.48
652.06	55473.33
652.25	56052.90
652.44	55798.96
652.64	55717.04
652.83	55502.00
653.02	55491.76
653.22	55749.81
653.41	55741.61
653.60	55352.50
653.80	55639.22
653.99	55825.58
654.18	55534.77
654.38	56013.99
654.57	56079.53
654.76	56198.31
654.96	55645.36
655.15	55780.52
655.34	55661.74
655.54	55571.63
655.73	56231.08
655.92	55792.81
656.12	55946.41
656.31	55551.15
656.50	55858.35
656.70	56024.23
656.89	55827.63
657.08	56005.80
657.28	55762.09
657.47	55780.52
657.66	56161.45
657.86	55981.23
658.05	56005.80
658.24	56220.84
658.43	55739.57
658.63	56143.02
658.82	56009.90
659.01	55932.07
659.21	56251.56
659.40	56057.00
659.59	55841.96
659.79	56337.57
659.98	56378.53
660.17	56319.14
660.36	56382.63
660.56	56229.03
660.75	56362.15
660.94	56022.19
661.14	56288.42
661.33	55813.29
661.52	55448.75
661.71	56374.44
661.91	55792.81
662.10	55456.95
662.29	55884.97
662.49	56130.73
662.68	56411.30
662.87	56136.87
663.06	56263.85
663.26	55839.92
663.45	56511.65
663.64	56399.01
663.83	56605.86
664.03	56716.45
664.22	56272.04
664.41	56415.40
664.60	55747.76
664.80	56149.16
664.99	55766.19
665.18	56302.76
665.37	56521.89
665.57	56505.51
665.76	55764.14
665.95	56059.05
666.14	56124.58
666.34	56558.75
666.53	55968.94
666.72	55659.69
666.91	55567.54
667.11	55917.74
667.30	55878.83
667.49	56067.24
667.68	56102.06
667.87	56126.63
668.07	56450.21
668.26	56218.79
668.45	56222.89
668.64	55678.13
668.84	56970.39
669.03	56630.43
669.22	56392.87
669.41	56214.69
669.60	56161.45
669.80	56013.99
669.99	56206.50
670.18	56116.39
670.37	56345.76
670.57	56751.26
670.76	56112.30
670.95	56329.38
671.14	56032.42
671.33	56188.07
671.53	56784.03
671.72	56202.41
671.91	56196.26
672.10	55884.97
672.29	56075.43
672.48	56450.21
672.68	56300.71
672.87	55973.03
673.06	56265.89
673.25	56274.09
673.44	55878.83
673.64	55917.74
673.83	56143.02
674.02	55864.49
674.21	55534.77
674.40	56177.83
674.59	55741.61
674.79	56016.04
674.98	55641.26
675.17	55477.43
675.36	55612.59
675.55	55911.59
675.74	55604.40
675.94	55776.43
676.13	55936.17
676.32	55801.00
676.51	56284.33
676.70	55977.13
676.89	55424.18
677.08	55852.20
677.28	55727.28
677.47	55970.99
677.66	56075.43
677.85	55577.78
678.04	55538.86
678.23	56204.45
678.42	55811.24
678.62	55854.25
678.81	56212.65
679.00	55811.24
679.19	56423.59
679.38	56222.89
679.57	55624.88
679.76	55876.78
679.96	55712.94
680.15	56204.45
680.34	55997.61
680.53	55776.43
680.72	55661.74
680.91	56022.19
681.10	55788.72
681.29	56130.73
681.48	55547.06
681.68	55467.19
681.87	55776.43
682.06	55770.28
682.25	55203.00
682.44	55465.14
682.63	55798.96
682.82	55612.59
683.01	55319.73
683.20	55315.64
683.39	55821.48
683.59	55063.74
683.78	55114.94
683.97	55301.30
684.16	55604.40
684.35	55198.90
684.54	55397.55
684.73	55014.58
684.92	55264.44
685.11	55100.60
685.30	55088.31
685.49	55516.34
685.69	55190.71
685.88	55055.54
686.07	55008.44
686.26	55022.78
686.45	55350.45
686.64	55252.15
686.83	54942.91
687.02	54811.84
687.21	55153.85
687.40	55178.42
687.59	55303.35
687.78	55194.81
687.97	55534.77
688.16	55141.56
688.35	54928.57
688.54	55155.89
688.74	55411.89
688.93	55458.99
689.12	55055.54
689.31	54879.42
689.50	55248.05
689.69	54289.60
689.88	54449.35
690.07	54580.42
690.26	54662.33
690.45	55344.31
690.64	55037.11
690.83	54793.40
691.02	54469.82
691.21	54555.84
691.40	54342.85
691.59	54502.59
691.78	54697.15
691.97	54777.02
692.16	54695.10
692.35	54684.86
692.54	54842.56
692.73	54736.06
692.92	54400.19
693.11	54478.02
693.30	54570.18
693.49	54811.84
693.68	54500.54
693.87	54731.96
694.06	54156.49
694.25	54348.99
694.44	54232.26
694.63	54641.85
694.82	54621.37
695.01	54371.52
695.20	54099.14
695.39	54281.41
695.58	54316.23
695.77	53744.84
695.96	53908.68
696.15	53898.44
696.34	54127.81
696.53	54144.20
696.72	54039.75
696.91	53820.62
697.10	53941.45
697.29	54205.64
697.48	54320.32
697.67	53544.14
697.86	54033.61
698.05	53732.56
698.24	54187.21
698.43	53824.71
698.62	53912.78
698.81	53365.97
699.00	54181.06
699.19	53351.63
699.38	53837.00
699.57	53517.52
699.76	54197.44
699.95	53437.65
700.14	53312.72
700.32	53218.52
700.51	53187.80
700.70	53619.92
700.89	53859.53
701.08	53894.35
701.27	53474.51
701.46	53646.54
701.65	52921.56
701.84	53359.83
702.03	53552.33
702.22	52980.95
702.41	52960.47
702.60	53122.26
702.79	53488.85
702.98	53482.70
703.17	52933.85
703.35	53122.26
703.54	52714.72
703.73	53187.80
703.92	53255.38
704.11	52675.80
704.30	52634.84
704.49	52823.26
704.68	53212.37
704.87	52366.56
705.06	52657.37
705.25	52485.34
705.43	52964.57
705.62	53009.62
705.81	52798.68
706.00	52831.45
706.19	52405.47
706.38	52731.10
706.57	52471.01
706.76	52239.59
706.95	52530.40
707.14	52489.44
707.32	52884.70
707.51	52208.87
707.70	52024.55
707.89	52397.28
708.08	52202.72
708.27	52585.69
708.46	52673.76
708.65	52124.90
708.84	52569.31
709.02	52143.33
709.21	52274.40
709.40	52178.15
709.59	51733.74
709.78	52022.50
709.97	52260.07
710.16	51684.59
710.34	52049.13
710.53	52143.33
710.72	51578.09
710.91	51815.66
711.10	51770.60
711.29	51807.47
711.48	51844.33
711.66	51756.27
711.85	52053.22
712.04	51301.62
712.23	51596.52
712.42	51674.35
712.61	51506.41
712.80	51600.62
712.98	52006.12
713.17	51287.28
713.36	51410.16
713.55	51518.70
713.74	51434.74
713.93	51574.00
714.11	51725.55
714.30	51090.68
714.49	51295.47
714.68	51412.21
714.87	50963.70
715.06	51408.11
715.24	51225.84
715.43	50693.37
715.62	50464.00
715.81	51133.68
716.00	51277.04
716.18	50599.16
716.37	50584.83
716.56	50777.34
716.75	51047.67
716.94	50296.06
717.12	50658.56
717.31	50822.39
717.50	50971.89
717.69	50631.93
717.88	50928.89
718.06	50703.61
718.25	51049.72
718.44	50613.50
718.63	50214.15
718.82	50474.24
719.00	50701.56
719.19	49982.73
719.38	50267.39
719.57	49851.66
719.76	49898.76
719.94	49597.71
720.13	49839.37
720.32	49941.77
720.51	49837.32
720.69	49825.03
720.88	49270.03
721.07	50019.59
721.26	49116.43
721.44	49618.19
721.63	49575.18
721.82	49444.11
722.01	49042.71
722.20	49653.00
722.38	49114.39
722.57	48948.50
722.76	49290.51
722.95	49251.60
723.13	49020.18
723.32	49151.25
723.51	48749.85
723.70	48551.20
723.88	48755.99
724.07	48301.34
724.26	48936.21
724.44	48112.93
724.63	48977.17
724.82	48903.45
725.01	48643.35
725.19	48284.96
725.38	48373.02
725.57	48510.24
725.76	48596.25
725.94	48018.72
726.13	48358.69
726.32	48235.81
726.51	48497.95
726.69	48422.17
726.88	48293.15
727.07	48426.27
727.25	47883.56
727.44	48313.63
727.63	48413.98
727.82	48078.11
728.00	48563.48
728.19	48184.61
728.38	48268.58
728.56	47670.57
728.75	48622.87
728.94	48104.74
729.12	48078.11
729.31	48147.75
729.50	48160.03
729.69	47895.85
729.87	48227.62
730.06	48346.40
730.25	48135.46
730.43	48479.52
730.62	47904.04
730.81	47869.22
730.99	47826.21
731.18	47818.02
731.37	47861.03
731.55	48082.21
731.74	48356.64
731.93	47983.91
732.11	47504.68
732.30	47793.45
732.49	47822.12
732.67	48162.08
732.86	47752.49
733.05	47760.68
733.23	47412.52
733.42	47754.54
733.61	48006.44
733.79	47912.23
733.98	48119.07
734.17	47881.51
734.35	47889.70
734.54	47875.37
734.73	48028.96
734.91	47570.22
735.10	47299.89
735.29	48100.64
735.47	47447.34
735.66	47549.74
735.84	47836.45
736.03	47346.99
736.22	47758.63
736.40	47289.65
736.59	47447.34
736.78	47301.93
736.96	47652.14
737.15	47371.57
737.33	46968.12
737.52	47392.04
737.71	47551.79
737.89	47187.25
738.08	47037.75
738.27	47209.78
738.45	47744.30
738.64	47195.44
738.82	47019.31
739.01	46990.64
739.20	47056.18
739.38	47232.30
739.57	47240.50
739.75	47103.28
739.94	46564.67
740.13	46974.26
740.31	46789.94
740.50	46650.68
740.68	46949.68
740.87	46939.44
741.06	46974.26
741.24	46619.96
741.43	46443.84
741.61	46824.76
741.80	46654.78
741.99	46531.90
742.17	47035.70
742.36	46814.52
742.54	46368.06
742.73	46378.30
742.91	46689.59
743.10	46419.26
743.29	47228.21
743.47	46579.00
743.66	46159.17
743.84	46470.46
744.03	46736.69
744.21	46288.19
744.40	46740.79
744.59	46734.65
744.77	46050.63
744.96	46044.48
745.14	46339.39
745.33	46277.95
745.51	46062.91
745.70	46507.32
745.88	45905.22
746.07	46052.67
746.26	45831.49
746.44	45692.23
746.63	46261.57
746.81	46294.33
747.00	45397.32
747.18	46327.10
747.37	45823.30
747.55	45761.86
747.74	46255.42
747.92	45671.75
748.11	45581.64
748.29	45413.71
748.48	45630.79
748.66	45505.87
748.85	45880.64
749.03	45667.66
749.22	45469.00
749.41	45323.60
749.59	45901.12
749.78	45266.25
749.96	44905.81
750.15	45317.45
750.33	45495.63
750.52	45094.22
750.70	45405.52
750.89	45053.26
751.07	45565.26
751.26	45219.15
751.44	44772.69
751.63	45192.53
751.81	45036.88
752.00	44739.93
752.18	44967.25
752.37	44832.08
752.55	44621.14
752.74	44901.71
752.92	44838.23
753.10	44709.21
753.29	44592.47
753.47	44574.04
753.66	44772.69
753.84	44823.89
754.03	44571.99
754.21	44393.82
754.40	44332.38
754.58	44887.38
754.77	44623.19
754.95	44533.08
755.14	44664.15
755.32	44393.82
755.51	44373.34
755.69	44186.97
755.88	44266.84
756.06	44014.94
756.24	44311.90
756.43	43664.74
756.61	44053.86
756.80	44019.04
756.98	43918.69
757.17	43898.21
757.35	43902.31
757.54	43992.42
757.72	43779.43
757.90	43828.58
758.09	43785.57
758.27	43715.94
758.46	43513.19
758.64	43687.27
758.83	43711.84
759.01	44045.66
759.19	43818.34
759.38	43654.50
759.56	43951.46
759.75	43591.01
759.93	43298.16
760.12	43435.37
760.30	43406.70
760.48	43144.56
760.67	43388.27
760.85	43447.66
761.04	43599.21
761.22	43408.75
761.40	43369.83
761.59	43429.23
761.77	43007.34
761.96	43310.44
762.14	43351.40
762.32	42798.45
762.51	43269.48
762.69	42775.92
762.88	42515.83
763.06	43115.89
763.24	42917.23
763.43	43070.83
763.61	42956.14
763.80	42937.71
763.98	42540.41
764.16	42503.54
764.35	42302.84
764.53	42315.13
764.72	42636.66
764.90	42612.09
765.08	42358.14
765.27	42425.72
765.45	42171.77
765.63	42026.37
765.82	42497.40
766.00	41874.82
766.18	42319.23
766.37	42696.05
766.55	42112.38
766.74	42292.60
766.92	42038.65
767.10	42311.03
767.29	41575.81
767.47	42016.13
767.65	42233.21
767.84	41530.76
768.02	42171.77
768.20	41522.57
768.39	41541.00
768.57	41731.46
768.75	41555.33
768.94	41698.69
769.12	41643.40
769.30	41471.37
769.49	41565.57
769.67	41293.19
769.85	40965.52
770.04	41325.96
770.22	41090.44
770.40	40908.18
770.59	40723.86
770.77	41528.71
770.95	41065.87
771.14	40934.80
771.32	40981.90
771.50	40637.84
771.69	40623.51
771.87	40902.03
772.05	40891.79
772.24	40504.73
772.42	40828.30
772.60	40396.18
772.78	40224.15
772.97	40687.00
773.15	40674.71
773.33	40469.91
773.52	40084.89
773.70	40119.71
773.88	40437.14
774.07	40121.76
774.25	40525.21
774.43	40699.28
774.61	40433.05
774.80	40533.40
774.98	40543.64
775.16	40441.24
775.34	40805.78
775.53	40074.65
775.71	40746.39
775.89	40480.15
776.08	40437.14
776.26	40721.81
776.44	40566.16
776.62	40357.27
776.81	40926.61
776.99	40596.88
777.17	40893.84
777.35	40635.80
777.54	41035.15
777.72	41076.11
777.90	40590.74
778.08	40732.05
778.27	40928.66
778.45	40975.76
778.63	41203.08
778.81	40598.93
779.00	41588.10
779.18	40830.35
779.36	41026.96
779.54	40893.84
779.73	40836.50
779.91	40988.05
780.09	41002.38
780.27	40977.81
780.46	41211.28
780.64	41354.63
780.82	40936.85
781.00	41072.01
781.19	41569.67
781.37	41268.62
781.55	41667.97
781.73	41786.75
781.91	41219.47
782.10	41461.13
782.28	41375.11
782.46	41420.17
782.64	41604.49
782.82	41454.98
783.01	41926.02
783.19	41467.27
783.37	41624.96
783.55	41518.47
783.74	41780.61
783.92	41420.17
784.10	41794.95
784.28	41551.24
784.46	41559.43
784.64	41457.03
784.83	41690.50
785.01	42222.97
785.19	41536.90
785.37	41940.35
785.55	41733.51
785.74	41137.55
785.92	41334.15
786.10	41338.25
786.28	41366.92
786.46	41198.99
786.64	41076.11
786.83	41356.68
787.01	41241.99
787.19	40887.70
787.37	41350.54
787.55	41129.36
787.74	40867.22
787.92	41196.94
788.10	40736.15
788.28	40623.51
788.46	40928.66
788.64	40947.09
788.82	41016.72
789.01	40770.96
789.19	41117.07
789.37	40611.22
789.55	40613.27
789.73	40457.62
789.91	40240.54
790.09	40555.93
790.28	40273.31
790.46	40058.27
790.64	40394.14
790.82	39536.04
791.00	39925.15
791.18	40050.08
791.36	40082.84
791.55	40099.23
791.73	40117.66
791.91	39617.96
792.09	39808.42
792.27	39689.63
792.45	39495.08
792.63	39640.48
792.81	39368.10
793.00	39624.10
793.18	39249.32
793.36	39261.61
793.54	39204.27
793.72	39091.63
793.90	39194.03
794.08	38872.49
794.26	39054.76
794.44	38731.18
794.62	38565.30
794.81	38849.97
794.99	38647.22
795.17	38677.94
795.35	38712.75
795.53	38913.45
795.71	38405.56
795.89	38239.67
796.07	38229.43
796.25	37883.33
796.43	37993.92
796.61	37922.24
796.80	37574.08
796.98	37651.91
797.16	37400.01
797.34	37694.91
797.52	37393.86
797.70	37723.58
797.88	37543.36
798.06	37266.89
798.24	36992.46
798.42	37207.50
798.60	37170.63
798.78	36781.52
798.96	37139.91
799.14	36754.90
799.32	37008.84
799.51	36591.06
799.69	36959.69
799.87	36885.97
800.05	36423.12
800.23	36437.46
800.41	36386.26
800.59	36324.82
800.77	36101.59
800.95	35704.29
801.13	36005.34
801.31	35657.18
801.49	35861.98
801.67	35644.90
801.85	35485.15
802.03	35421.67
802.21	35470.82
802.39	35626.46
802.57	35425.76
802.75	35132.90
802.93	35169.77
803.11	35134.95
803.29	35044.84
803.47	35067.37
803.65	34778.61
803.83	35012.07
804.01	34956.78
804.19	34659.82
804.37	34676.21
804.55	34364.92
804.73	34684.40
804.91	34383.35
805.09	34383.35
805.27	34143.74
805.45	34096.63
805.63	34377.20
805.81	34334.20
805.99	34254.33
806.17	34184.69
806.35	34027.00
806.53	33578.50
806.71	34002.43
806.89	33775.10
807.07	33951.23
807.25	33783.29
807.43	33564.16
807.61	33287.68
807.79	33437.19
807.97	33023.50
808.15	33064.46
808.33	32771.60
808.51	32931.34
808.69	33254.92
808.87	32818.70
809.05	32886.28
809.23	32626.19
809.41	32818.70
809.59	32548.37
809.77	32548.37
809.95	32593.42
810.13	32513.55
810.31	32304.66
810.49	32192.02
810.67	32697.87
810.84	32562.70
811.02	32165.40
811.20	32181.78
811.38	31950.36
811.56	31696.41
811.74	31901.21
811.92	31643.17
812.10	31995.42
812.28	32192.02
812.46	31946.26
812.64	31837.72
812.82	31833.63
813.00	31733.28
813.18	31608.35
813.36	31495.71
813.53	31270.43
813.71	31131.17
813.89	31174.18
814.07	31409.70
814.25	31383.07
814.43	30955.05
814.61	30922.28
814.79	31024.68
814.97	30766.63
815.15	31100.45
815.33	30658.09
815.50	30506.54
815.68	30690.86
815.86	30883.37
816.04	30627.37
816.22	30676.52
816.40	30537.26
816.58	29965.88
816.76	30185.01
816.94	30217.78
817.11	30187.06
817.29	30105.14
817.47	29982.26
817.65	29742.65
817.83	30268.98
818.01	30008.89
818.19	29660.73
818.37	30133.81
818.54	29822.52
818.72	29578.81
818.90	29726.27
819.08	29750.84
819.26	29347.39
819.44	29576.76
819.62	29627.96
819.80	29554.24
819.97	29732.41
820.15	29441.60
820.33	29283.91
820.51	29269.57
820.69	28814.92
820.87	29273.67
821.05	29238.85
821.22	29195.84
821.40	29179.46
821.58	29087.30
821.76	28743.24
821.94	28698.19
822.12	28980.81
822.29	28808.78
822.47	28624.46
822.65	28761.67
822.83	29099.59
823.01	28884.55
823.19	28646.99
823.36	28245.58
823.54	28333.65
823.72	28499.53
823.90	28454.48
824.08	28104.28
824.25	28094.04
824.43	28106.32
824.61	28046.93
824.79	28452.43
824.97	27979.35
825.15	28024.40
825.32	27989.59
825.50	27958.87
825.68	27938.39
825.86	28026.45
826.04	28122.71
826.21	27807.32
826.39	28239.44
826.57	27870.81
826.75	27780.70
826.93	27383.39
827.10	27627.10
827.28	27727.45
827.46	28012.12
827.64	27534.94
827.81	27543.13
827.99	27623.00
828.17	27297.38
828.35	27326.05
828.53	27397.73
828.70	27440.73
828.88	27283.04
829.06	27336.29
829.24	27252.32
829.41	27332.19
829.59	27481.69
829.77	27068.00
829.95	27170.40
830.12	26924.65
830.30	26881.64
830.48	26988.13
830.66	27172.45
830.84	26728.04
831.01	26594.92
831.19	26928.74
831.37	26762.86
831.55	26494.57
831.72	26338.93
831.90	26713.70
832.08	26644.07
832.25	26480.24
832.43	26515.05
832.61	26433.13
832.79	26736.23
832.96	26275.44
833.14	26267.25
833.32	26308.21
833.50	26467.95
833.67	26127.99
833.85	26519.15
834.03	25986.68
834.20	26257.01
834.38	26097.27
834.56	26109.55
834.74	25837.17
834.91	25945.72
835.09	26015.35
835.27	25732.73
835.44	25781.88
835.62	25312.89
835.80	25568.89
835.98	25845.37
836.15	26005.11
836.33	25529.98
836.51	25867.89
836.68	25441.92
836.86	25837.17
837.04	25603.71
837.21	25712.25
837.39	25413.24
837.57	25699.96
837.75	25562.75
837.92	25185.92
838.10	25591.42
838.28	25210.50
838.45	25400.96
838.63	25163.39
838.81	25175.68
838.98	25034.37
839.16	24837.76
839.34	25167.49
839.51	24948.36
839.69	24999.55
839.87	24934.02
840.04	24770.18
840.22	24835.72
840.40	24899.20
840.57	24596.10
840.75	24753.80
840.93	24346.25
841.10	24716.93
841.28	24817.29
841.46	24772.23
841.63	24577.67
841.81	24387.21
841.98	24503.95
842.16	24385.16
842.34	24561.29
842.51	24221.33
842.69	24413.84
842.87	24174.22
843.04	24366.73
843.22	24094.35
843.40	24305.29
843.57	24163.98
843.75	24192.65
843.92	24325.77
844.10	24315.53
844.28	24481.42
844.45	24143.50
844.63	23973.52
844.81	24043.15
844.98	24082.06
845.16	23856.79
845.33	23893.65
845.51	23848.60
845.69	23819.92
845.86	23914.13
846.04	23656.09
846.21	23844.50
846.39	23963.28
846.57	23570.07
846.74	23711.38
846.92	23776.92
847.09	23439.00
847.27	23715.48
847.45	23662.23
847.62	23701.14
847.80	23461.53
847.97	23774.87
848.15	23467.67
848.32	23377.56
848.50	23338.65
848.68	23162.53
848.85	22974.11
849.03	23068.32
849.20	23316.12
849.38	23066.27
849.56	23332.51
849.73	22830.76
849.91	23144.09
850.08	23187.10
850.26	22757.03
850.43	23072.42
850.61	23133.86
850.78	22642.34
850.96	22855.33
851.14	22941.35
851.31	23066.27
851.49	22816.42
851.66	22902.43
851.84	22521.51
852.01	22871.72
852.19	22824.61
852.36	22611.62
852.54	22582.95
852.71	22152.88
852.89	22634.15
853.07	22455.98
853.24	22873.76
853.42	22490.79
853.59	22589.10
853.77	22566.57
853.94	22818.47
854.12	22478.50
854.29	21972.66
854.47	22400.68
854.64	22415.02
854.82	22505.13
854.99	22582.95
855.17	22408.87
855.34	22228.65
855.52	22124.21
855.69	22447.79
855.87	22154.93
856.04	21814.96
856.22	21917.36
856.39	22036.14
856.57	21900.98
856.74	21776.05
856.92	22027.95
857.09	21759.67
857.27	22077.10
857.44	22032.05
857.62	21946.03
857.79	21802.68
857.97	21876.40
858.14	21835.44
858.32	21659.32
858.49	21640.89
858.67	21694.13
858.84	21907.12
859.02	21817.01
859.19	21454.52
859.37	21634.74
859.54	21397.18
859.72	21601.97
859.89	21391.03
860.06	21518.01
860.24	21337.79
860.41	21368.51
860.59	21212.86
860.76	21327.55
860.94	21216.96
861.11	21280.44
861.29	21190.33
861.46	21409.47
861.64	20811.46
861.81	21255.87
861.98	21196.48
862.16	20870.85
862.33	20735.68
862.51	21128.89
862.68	21249.72
862.86	21024.45
863.03	20840.13
863.21	20747.97
863.38	20975.30
863.55	20723.40
863.73	20731.59
863.90	20809.41
864.08	20889.28
864.25	20833.99
864.43	20682.44
864.60	20745.92
864.77	20293.32
864.95	20788.93
865.12	20399.82
865.30	20674.24
865.47	20448.97
865.64	20494.02
865.82	20608.71
865.99	20575.94
866.17	20592.33
866.34	20418.25
866.51	20248.27
866.69	20340.43
866.86	20475.59
867.04	20182.73
867.21	20356.81
867.38	19912.40
867.56	20219.60
867.73	20016.85
867.91	19900.11
868.08	20106.96
868.25	19961.55
868.43	19766.99
868.60	19853.01
868.78	19885.78
868.95	19871.44
869.12	19834.58
869.30	19556.05
869.47	19760.85
869.64	19535.57
869.82	19599.06
869.99	19521.24
870.16	19758.80
870.34	19504.85
870.51	19744.47
870.69	19814.10
870.86	19437.27
871.03	19513.05
871.21	19525.33
871.38	19535.57
871.55	19304.15
871.73	19541.72
871.90	19459.80
872.07	19050.21
872.25	19044.06
872.42	19250.91
872.59	19388.12
872.77	19138.27
872.94	19062.49
873.11	19021.53
873.29	19220.19
873.46	18861.79
873.63	19185.37
873.81	18740.96
873.98	18816.74
874.15	18894.56
874.33	18714.34
874.50	18519.78
874.67	18693.86
874.85	18628.32
875.02	18618.08
875.19	18425.57
875.37	18519.78
875.54	18192.11
875.71	18515.69
875.88	18280.17
876.06	18527.97
876.23	18339.56
876.40	18319.08
876.58	18458.34
876.75	18071.28
876.92	18296.55
877.10	18007.79
877.27	18128.62
877.44	17946.35
877.61	17893.10
877.79	18067.18
877.96	18081.52
878.13	17831.66
878.31	17800.94
878.48	17825.52
878.65	17884.91
878.82	17676.02
879.00	17942.25
879.17	17520.37
879.34	17661.68
879.51	17532.66
879.69	17514.23
879.86	17493.75
880.03	17495.80
880.21	17811.18
880.38	17682.16
880.55	17678.07
880.72	17442.55
880.90	17450.74
881.07	17450.74
881.24	17235.70
881.41	17598.20
881.59	17243.90
881.76	17293.05
881.93	17106.68
882.10	17121.02
882.28	16924.41
882.45	17510.13
882.62	17104.64
882.79	17209.08
882.96	16953.09
883.14	17176.31
883.31	17370.87
883.48	17118.97
883.65	16928.51
883.83	17237.75
884.00	16865.02
884.17	17063.68
884.34	17006.33
884.51	17073.92
884.69	16785.15
884.86	17110.78
885.03	16713.47
885.20	16668.42
885.38	16789.25
885.55	16809.73
885.72	16678.66
885.89	16555.78
886.06	16867.07
886.24	16701.19
886.41	16475.91
886.58	16822.02
886.75	16838.40
886.92	16504.58
887.10	16619.27
887.27	16430.85
887.44	16635.65
887.61	16504.58
887.78	16703.23
887.95	16373.51
888.13	16314.12
888.30	16459.52
888.47	16295.69
888.64	16473.86
888.81	16391.94
888.99	16330.50
889.16	16219.91
889.33	16201.48
889.50	16011.02
889.67	16023.31
889.84	15863.57
890.01	16187.14
890.19	16168.71
890.36	15902.48
890.53	15892.24
890.70	15935.24
890.87	15937.29
891.04	15908.62
891.22	16008.97
891.39	15767.31
891.56	15636.24
891.73	15888.14
891.90	15968.01
892.07	15777.55
892.24	15736.59
892.42	15601.43
892.59	15787.79
892.76	15882.00
892.93	15707.92
893.10	15812.37
893.27	15603.47
893.44	15390.49
893.61	15787.79
893.79	15626.00
893.96	15394.58
894.13	15484.69
894.30	15638.29
894.47	15548.18
894.64	15603.47
894.81	15472.40
894.98	15492.88
895.15	15406.87
895.33	15576.85
895.50	15439.64
895.67	15464.21
895.84	15501.08
896.01	15396.63
896.18	15535.89
896.35	15587.09
896.52	15277.85
896.69	15496.98
896.86	15533.84
897.04	15277.85
897.21	15398.68
897.38	15361.81
897.55	15372.05
897.72	15189.78
897.89	15427.35
898.06	15335.19
898.23	15294.23
898.40	15124.25
898.57	15601.43
898.74	15243.03
898.91	15290.13
899.08	15384.34
899.26	15232.79
899.43	15345.43
899.60	15075.10
899.77	15365.91
899.94	15173.40
900.11	15073.05
900.28	15093.53
900.45	15064.86
900.62	15232.79
900.79	15300.37
900.96	15247.13
901.13	15265.56
901.30	15228.70
901.47	15173.40
901.64	15146.78
901.81	15390.49
901.98	14925.60
902.15	15312.66
902.32	15208.22
902.49	15400.72
902.66	15310.61
902.83	15124.25
903.01	15187.74
903.18	15318.81
903.35	14984.99
903.52	15417.11
903.69	15384.34
903.86	15335.19
904.03	15146.78
904.20	15271.70
904.37	15355.67
904.54	15159.06
904.71	15015.71
904.88	15273.75
905.05	15021.85
905.22	15343.38
905.39	15212.31
905.56	15105.82
905.73	15077.15
905.90	15378.20
906.07	14944.03
906.24	15181.59
906.41	15183.64
906.58	15257.37
906.75	15144.73
906.92	14972.70
907.09	15195.93
907.26	15146.78
907.43	15044.38
907.60	14769.95
907.77	15263.51
907.93	15036.19
908.10	15251.22
908.27	15238.94
908.44	15130.39
908.61	15101.72
908.78	15097.63
908.95	15097.63
909.12	15068.95
909.29	14968.60
909.46	14868.25
909.63	15200.02
909.80	15085.34
909.97	14970.65
910.14	14978.84
910.31	15017.75
910.48	14755.61
910.65	14995.23
910.82	15015.71
910.99	14810.91
911.16	14968.60
911.33	14890.78
911.50	14843.68
911.66	14769.95
911.83	15091.48
912.00	14833.44
912.17	14763.81
912.34	14946.08
912.51	14421.80
912.68	14731.04
912.85	14645.02
913.02	14745.38
913.19	14536.48
913.36	14747.42
913.53	14565.15
913.70	14309.16
913.86	14505.76
914.03	14587.68
914.20	14350.12
914.37	14395.17
914.54	14493.47
914.71	14411.56
914.88	14141.22
915.05	14587.68
915.22	14335.78
915.39	14165.80
915.55	14180.14
915.72	14188.33
915.89	13985.58
916.06	14106.41
916.23	13850.41
916.40	14108.46
916.57	13954.86
916.74	13907.76
916.91	13870.89
917.07	13811.50
917.24	13678.38
917.41	13977.39
917.58	13860.65
917.75	13688.62
917.92	13641.52
918.09	13596.46
918.26	13758.25
918.42	13770.54
918.59	13559.60
918.76	13449.01
918.93	13436.72
919.10	13172.54
919.27	13248.31
919.44	13438.77
919.60	13528.88
919.77	13442.87
919.94	13432.63
920.11	13428.53
920.28	13379.38
920.45	13406.00
920.61	13004.60
920.78	13256.50
920.95	13139.77
921.12	13238.07
921.29	13004.60
921.46	12961.59
921.62	12769.09
921.79	13043.51
921.96	12758.85
922.13	12891.96
922.30	12754.75
922.47	12685.12
922.63	12459.84
922.80	12564.29
922.97	12662.59
923.14	12322.63
923.31	12302.15
923.47	12597.06
923.64	12619.58
923.81	12226.37
923.98	12281.67
924.15	12312.39
924.32	12156.74
924.48	12318.53
924.65	12205.89
924.82	11849.55
924.99	12248.90
925.15	12056.39
925.32	11990.86
925.49	11843.40
925.66	11855.69
925.83	11831.12
925.99	11730.76
926.16	11581.26
926.33	11859.79
926.50	11546.45
926.67	11677.52
926.83	11562.83
927.00	11493.20
927.17	11437.91
927.34	11341.65
927.50	11378.51
927.67	11437.91
927.84	11280.21
928.01	11231.06
928.17	11153.24
928.34	11022.17
928.51	11007.83
928.68	11112.28
928.84	11073.37
929.01	10723.16
929.18	10645.34
929.35	11040.60
929.51	10848.09
929.68	10538.85
929.85	10882.91
930.02	10575.71
930.18	10612.57
930.35	10571.61
930.52	10454.88
930.69	10700.64
930.85	10493.79
931.02	10497.89
931.19	10428.26
931.36	10227.56
931.52	10332.00
931.69	10315.62
931.86	10346.34
932.02	10090.34
932.19	9936.74
932.36	10114.92
932.53	10227.56
932.69	9899.88
932.86	9881.45
933.03	9916.26
933.19	9758.57
933.36	9830.25
933.53	9881.45
933.70	9723.76
933.86	9787.24
934.03	9578.35
934.20	9604.97
934.36	9439.09
934.53	9285.49
934.70	9107.32
934.86	9269.11
935.03	9113.46
935.20	9172.85
935.36	9279.35
935.53	8968.06
935.70	9013.11
935.86	9119.60
936.03	8927.10
936.20	8671.10
936.36	8603.52
936.53	8677.24
936.70	8585.08
936.86	8710.01
937.03	8351.62
937.20	8228.74
937.36	8292.23
937.53	8056.71
937.70	8109.96
937.86	7970.69
938.03	7937.93
938.20	8130.44
938.36	7608.20
938.53	7610.25
938.70	7294.86
938.86	7462.80
939.03	7565.20
939.20	7460.75
939.36	7260.05
939.53	7286.67
939.70	7348.11
939.86	6997.91
940.03	7049.11
940.19	6920.09
940.36	6850.46
940.53	6758.30
940.69	6692.76
940.86	6746.01
941.03	6606.75
941.19	6463.39
941.36	6438.81
941.52	6352.80
941.69	6354.85
941.86	6422.43
942.02	6330.27
942.19	6131.62
942.35	6199.20
942.52	6035.36
942.69	6057.89
942.85	5963.68
943.02	5935.01
943.18	6049.70
943.35	5967.78
943.52	5795.75
943.68	5711.78
943.85	5746.60
944.01	5785.51
944.18	5679.02
944.35	5644.20
944.51	5689.26
944.68	5361.58
944.84	5488.56
945.01	5572.52
945.17	5498.80
945.34	5472.17
945.51	5521.32
945.67	5384.11
945.84	5572.52
946.00	5300.14
946.17	5328.81
946.33	5164.98
946.50	5408.69
946.67	5314.48
946.83	5410.73
947.00	5392.30
947.16	5267.38
947.33	5377.97
947.49	5429.17
947.66	5212.08
947.82	5328.81
947.99	5302.19
948.16	5302.19
948.32	5164.98
948.49	5328.81
948.65	5377.97
948.82	5271.47
948.98	5298.10
949.15	5087.15
949.31	5302.19
949.48	5244.85
949.64	5337.01
949.81	5304.24
949.97	5255.09
950.14	5296.05
950.30	5285.81
950.47	5515.18
950.63	5324.72
950.80	5281.71
950.96	5312.43
951.13	5359.53
951.30	5289.90
951.46	5404.59
951.63	5564.33
951.79	5539.76
951.96	5572.52
952.12	5324.72
952.29	5517.23
952.45	5308.34
952.62	5355.44
952.78	5490.60
952.94	5355.44
953.11	5420.97
953.27	5355.44
953.44	5509.04
953.60	5474.22
953.77	5445.55
953.93	5531.56
954.10	5332.91
954.26	5470.12
954.43	5396.40
954.59	5513.13
954.76	5441.45
954.92	5572.52
955.09	5410.73
955.25	5459.88
955.42	5521.32
955.58	5636.01
955.75	5509.04
955.91	5472.17
956.07	5597.10
956.24	5613.48
956.40	5455.79
956.57	5480.36
956.73	5541.80
956.90	5437.36
957.06	5445.55
957.23	5480.36
957.39	5443.50
957.56	5582.76
957.72	5377.97
957.88	5455.79
958.05	5509.04
958.21	5658.54
958.38	5584.81
958.54	5468.08
958.71	5656.49
958.87	5433.26
959.03	5525.42
959.20	5681.07
959.36	5296.05
959.53	5416.88
959.69	5371.82
959.85	5519.28
960.02	5449.64
960.18	5359.53
960.35	5443.50
960.51	5539.76
960.68	5478.32
960.84	5367.73
961.00	5300.14
961.17	5429.17
961.33	5570.48
961.50	5506.99
961.66	5418.93
961.82	5414.83
961.99	5607.34
962.15	5451.69
962.31	5337.01
962.48	5463.98
962.64	5517.23
962.81	5423.02
962.97	5515.18
963.13	5447.60
963.30	5496.75
963.46	5529.52
963.62	5330.86
963.79	5439.40
963.95	5330.86
964.12	5308.34
964.28	5453.74
964.44	5320.62
964.61	5367.73
964.77	5425.07
964.93	5506.99
965.10	5382.06
965.26	5224.37
965.42	5390.25
965.59	5418.93
965.75	5277.62
965.92	5414.83
966.08	5369.77
966.24	5353.39
966.41	5195.70
966.57	5339.05
966.73	5255.09
966.90	5400.49
967.06	5271.47
967.22	5228.46
967.39	5134.26
967.55	5306.29
967.71	5185.46
967.88	5197.74
968.04	5257.14
968.20	5138.35
968.37	5205.94
968.53	5150.64
968.69	5087.15
968.85	5138.35
969.02	5201.84
969.18	5259.18
969.34	5207.98
969.51	5164.98
969.67	5267.38
969.83	5048.24
970.00	5152.69
970.16	5091.25
970.32	5132.21
970.48	5234.61
970.65	4908.98
970.81	4986.80
970.97	4986.80
971.14	5107.63
971.30	5093.30
971.46	4943.80
971.63	4906.93
971.79	5212.08
971.95	5062.58
972.11	4919.22
972.28	4786.10
972.44	4988.85
972.60	5019.57
972.76	4933.56
972.93	4933.56
973.09	4855.73
973.25	4933.56
973.42	4935.60
973.58	4913.08
973.74	4882.36
973.90	4917.17
974.07	4896.69
974.23	4859.83
974.39	4749.24
974.55	4792.25
974.72	4921.27
974.88	4708.28
975.04	4868.02
975.20	4788.15
975.37	4851.64
975.53	4712.38
975.69	4708.28
975.85	4644.79
976.01	4784.06
976.18	4700.09
976.34	4718.52
976.50	4870.07
976.66	4812.73
976.83	4741.05
976.99	4634.55
977.15	4716.47
977.31	4607.93
977.47	4673.46
977.64	4755.38
977.80	4507.58
977.96	4544.44
978.12	4593.59
978.29	4585.40
978.45	4540.35
978.61	4538.30
978.77	4648.89
978.93	4499.39
979.10	4579.26
979.26	4698.04
979.42	4511.68
979.58	4489.15
979.74	4521.92
979.91	4515.77
980.07	4446.14
980.23	4437.95
980.39	4376.51
980.55	4450.24
980.71	4399.04
980.88	4454.33
981.04	4317.12
981.20	4452.28
981.36	4313.02
981.52	4304.83
981.68	4308.93
981.85	4421.56
982.01	4405.18
982.17	4286.40
982.33	4394.94
982.49	4329.41
982.65	4272.06
982.82	4292.54
982.98	4241.34
983.14	4261.82
983.30	4331.45
983.46	4394.94
983.62	4353.98
983.79	4239.30
983.95	4124.61
984.11	4085.70
984.27	4036.55
984.43	4253.63
984.59	4108.23
984.75	4218.82
984.91	4059.07
985.08	4245.44
985.24	4171.71
985.40	4022.21
985.56	4050.88
985.72	4190.14
985.88	4063.17
986.04	4022.21
986.20	4093.89
986.37	3999.68
986.53	4048.83
986.69	3944.39
986.85	4075.46
987.01	3921.86
987.17	4011.97
987.33	4059.07
987.49	3999.68
987.65	4028.35
987.82	3997.64
987.98	3981.25
988.14	3925.96
988.30	3995.59
988.46	3968.96
988.62	3811.27
988.78	3952.58
988.94	3977.16
989.10	3876.80
989.26	3786.69
989.42	3917.76
989.59	3768.26
989.75	3682.25
989.91	3768.26
990.07	3698.63
990.23	3848.13
990.39	3772.36
990.55	3848.13
990.71	3674.06
990.87	3706.82
991.03	3755.97
991.19	3788.74
991.35	3774.41
991.51	3715.02
991.67	3780.55
991.83	3727.30
992.00	3768.26
992.16	3745.73
992.32	3659.72
992.48	3727.30
992.64	3569.61
992.80	3712.97
992.96	3690.44
993.12	3719.11
993.28	3590.09
993.44	3680.20
993.60	3653.58
993.76	3600.33
993.92	3629.00
994.08	3694.54
994.24	3647.43
994.40	3516.36
994.56	3725.26
994.72	3530.70
994.88	3444.68
995.04	3370.96
995.20	3487.69
995.36	3510.22
995.52	3491.79
995.68	3530.70
995.84	3469.26
996.00	3624.90
996.16	3481.55
996.32	3370.96
996.48	3397.58
996.64	3483.59
996.80	3385.29
996.96	3426.25
997.12	3463.12
997.28	3364.81
997.44	3354.57
997.60	3436.49
997.76	3350.48
997.92	3475.40
998.08	3440.59
998.24	3342.28
998.40	3395.53
998.56	3434.44
998.72	3311.57
998.88	3239.89
999.04	3270.61
999.20	3350.48
999.36	3172.30
999.52	3340.24
999.68	3262.41
999.84	3305.42
1000.00	3284.94
1000.16	3264.46
1000.32	3217.36
1000.48	3413.96
1000.64	3147.73
1000.80	3133.39
1000.95	3168.21
1001.11	3215.31
1001.27	3110.86
1001.43	3112.91
1001.59	3135.44
1001.75	3147.73
1001.91	3176.40
1002.07	3117.01
1002.23	3082.19
1002.39	3098.58
1002.55	3168.21
1002.71	3098.58
1002.87	3112.91
1003.03	3067.86
1003.19	3059.67
1003.34	3188.69
1003.50	3098.58
1003.66	3164.11
1003.82	3049.43
1003.98	3094.48
1004.14	3092.43
1004.30	3131.34
1004.46	2998.23
1004.62	3043.28
1004.78	2934.74
1004.94	2910.16
1005.09	3067.86
1005.25	3074.00
1005.41	2975.70
1005.57	3049.43
1005.73	3016.66
1005.89	2973.65
1006.05	3057.62
1006.21	2990.03
1006.37	2932.69
1006.52	2818.00
1006.68	2852.82
1006.84	3024.85
1007.00	2893.78
1007.16	2885.59
1007.32	2803.67
1007.48	2844.63
1007.64	2834.39
1007.79	2901.97
1007.95	2842.58
1008.11	2987.99
1008.27	2848.72
1008.43	2840.53
1008.59	2856.92
1008.75	2961.36
1008.91	2883.54
1009.06	2764.76
1009.22	2920.40
1009.38	2818.00
1009.54	2834.39
1009.70	2740.18
1009.86	2781.14
1010.01	2918.36
1010.17	2746.33
1010.33	2842.58
1010.49	2805.72
1010.65	2770.90
1010.81	2752.47
1010.96	2676.70
1011.12	2586.58
1011.28	2746.33
1011.44	2738.13
1011.60	2680.79
1011.76	2746.33
1011.91	2772.95
1012.07	2635.74
1012.23	2686.94
1012.39	2617.30
1012.55	2742.23
1012.71	2672.60
1012.86	2535.39
1013.02	2648.02
1013.18	2650.07
1013.34	2680.79
1013.50	2736.09
1013.65	2658.26
1013.81	2637.78
1013.97	2531.29
1014.13	2619.35
1014.29	2512.86
1014.44	2676.70
1014.60	2580.44
1014.76	2627.54
1014.92	2652.12
1015.07	2531.29
1015.23	2512.86
1015.39	2508.76
1015.55	2428.89
1015.71	2631.64
1015.86	2504.67
1016.02	2424.80
1016.18	2475.99
1016.34	2494.43
1016.49	2351.07
1016.65	2650.07
1016.81	2469.85
1016.97	2465.75
1017.12	2496.47
1017.28	2535.39
1017.44	2469.85
1017.60	2424.80
1017.75	2418.65
1017.91	2398.17
1018.07	2500.57
1018.23	2422.75
1018.38	2410.46
1018.54	2457.56
1018.70	2414.56
1018.86	2322.40
1019.01	2432.99
1019.17	2320.35
1019.33	2478.04
1019.49	2443.23
1019.64	2426.84
1019.80	2392.03
1019.96	2394.08
1020.12	2410.46
1020.27	2363.36
1020.43	2334.68
1020.59	2349.02
1020.74	2351.07
1020.90	2308.06
1021.06	2328.54
1021.22	2396.12
1021.37	2320.35
1021.53	2242.53
1021.69	2385.88
1021.84	2209.76
1022.00	2330.59
1022.16	2269.15
1022.31	2246.62
1022.47	2256.86
1022.63	2289.63
1022.79	2199.52
1022.94	2275.29
1023.10	2365.40
1023.26	2359.26
1023.41	2263.01
1023.57	2154.46
1023.73	2211.81
1023.88	2205.66
1024.04	2238.43
1024.20	2232.29
1024.35	2248.67
1024.51	2246.62
1024.67	2312.16
1024.82	2265.05
1024.98	2183.13
1025.14	2211.81
1025.29	2162.66
1025.45	2320.35
1025.61	2215.90
1025.76	2187.23
1025.92	2260.96
1026.08	2248.67
1026.23	2217.95
1026.39	2205.66
1026.55	2050.02
1026.70	2164.70
1026.86	2140.13
1027.02	2230.24
1027.17	2189.28
1027.33	2154.46
1027.48	2101.22
1027.64	2185.18
1027.80	2117.60
1027.95	2217.95
1028.11	2037.73
1028.27	2082.78
1028.42	2117.60
1028.58	2101.22
1028.73	2033.63
1028.89	1996.77
1029.05	2226.14
1029.20	2138.08
>>>>>End Processed Spectral Data<<<<<
