SpectraSuite Data File
++++++++++++++++++++++++++++++++++++
Date: Fri Jun 02 14:49:27 CEST 2017
User: INFO_000
Dark Spectrum Present: No
Reference Spectrum Present: No
Number of Sampled Component Spectra: 1
Spectrometers: USB4H00879
Integration Time (usec): 80000 (USB4H00879)
Spectra Averaged: 1 (USB4H00879)
Boxcar Smoothing: 0 (USB4H00879)
Correct for Electrical Dark: No (USB4H00879)
Strobe/Lamp Enabled: No (USB4H00879)
Correct for Detector Non-linearity: No (USB4H00879)
Correct for Stray Light: No (USB4H00879)
Number of Pixels in Processed Spectrum: 3648
>>>>>Begin Processed Spectral Data<<<<<
345.13	1351.66
345.34	1351.66
345.56	1351.66
345.78	1206.25
345.99	1363.95
346.21	1703.91
346.42	1708.01
346.64	1675.24
346.86	1822.69
347.07	1695.72
347.29	1724.39
347.50	1603.56
347.72	1679.33
347.94	1806.31
348.15	1589.22
348.37	1564.65
348.59	1642.47
348.80	1667.05
349.02	1773.54
349.23	1869.80
349.45	1775.59
349.67	1943.52
349.88	1832.93
350.10	1959.91
350.31	1851.36
350.53	1882.08
350.75	1906.66
350.96	1781.73
351.18	1873.89
351.39	1820.64
351.61	1783.78
351.82	1880.04
352.04	1939.43
352.26	1822.69
352.47	1824.74
352.69	1945.57
352.90	1726.44
353.12	1824.74
353.34	1800.16
353.55	1978.34
353.77	2000.87
353.98	1814.50
354.20	1812.45
354.41	1943.52
354.63	1966.05
354.85	2019.30
355.06	1873.89
355.28	1812.45
355.49	1920.99
355.71	1855.46
355.92	1900.52
356.14	1873.89
356.35	1882.08
356.57	1867.75
356.79	1875.94
357.00	1839.08
357.22	1910.75
357.43	1961.95
357.65	1968.10
357.86	1906.66
358.08	1863.65
358.29	1925.09
358.51	1990.63
358.72	1910.75
358.94	1900.52
359.16	1939.43
359.37	1974.24
359.59	1894.37
359.80	1972.19
360.02	1978.34
360.23	2004.96
360.45	2039.78
360.66	1892.32
360.88	1871.84
361.09	1918.95
361.31	2015.20
361.52	1941.47
361.74	2009.06
361.95	2125.79
362.17	1947.62
362.38	2033.63
362.60	2023.39
362.81	1937.38
363.03	1982.43
363.24	1986.53
363.46	2072.54
363.67	2004.96
363.89	1865.70
364.10	1970.15
364.32	1994.72
364.53	2107.36
364.75	1927.14
364.96	1947.62
365.18	1974.24
365.39	1972.19
365.61	2121.70
365.82	2127.84
366.04	1964.00
366.25	1912.80
366.47	2007.01
366.68	2043.87
366.90	2025.44
367.11	2101.22
367.33	2189.28
367.54	2099.17
367.76	2060.26
367.97	2123.74
368.19	2021.35
368.40	2052.06
368.62	2052.06
368.83	1912.80
369.05	2009.06
369.26	1966.05
369.48	2041.82
369.69	1920.99
369.91	2045.92
370.12	1959.91
370.33	2117.60
370.55	1935.33
370.76	1988.58
370.98	2109.41
371.19	2125.79
371.41	2078.69
371.62	2023.39
371.84	2068.45
372.05	2070.50
372.27	2080.74
372.48	1980.39
372.69	2084.83
372.91	2109.41
373.12	2185.18
373.34	2058.21
373.55	2107.36
373.77	2170.85
373.98	2090.98
374.20	2189.28
374.41	2258.91
374.62	2056.16
374.84	2172.89
375.05	2211.81
375.27	2211.81
375.48	2172.89
375.70	2226.14
375.91	2158.56
376.12	2389.98
376.34	2138.08
376.55	2193.37
376.77	2123.74
376.98	2041.82
377.19	2136.03
377.41	2097.12
377.62	2240.48
377.84	2174.94
378.05	2320.35
378.27	2131.94
378.48	2297.82
378.69	2279.39
378.91	2310.11
379.12	2179.04
379.34	2263.01
379.55	2258.91
379.76	2168.80
379.98	2287.58
380.19	2310.11
380.41	2330.59
380.62	2377.69
380.83	2191.33
381.05	2174.94
381.26	2361.31
381.47	2187.23
381.69	2277.34
381.90	2371.55
382.12	2289.63
382.33	2213.85
382.54	2226.14
382.76	2310.11
382.97	2271.20
383.19	2279.39
383.40	2363.36
383.61	2430.94
383.83	2220.00
384.04	2234.33
384.25	2326.49
384.47	2394.08
384.68	2351.07
384.89	2236.38
385.11	2256.86
385.32	2342.88
385.54	2353.12
385.75	2369.50
385.96	2359.26
386.18	2344.92
386.39	2404.32
386.60	2332.64
386.82	2361.31
387.03	2439.13
387.24	2508.76
387.46	2475.99
387.67	2465.75
387.88	2514.91
388.10	2506.71
388.31	2484.19
388.52	2566.10
388.74	2445.27
388.95	2533.34
389.16	2559.96
389.38	2504.67
389.59	2414.56
389.80	2586.58
390.02	2510.81
390.23	2629.59
390.44	2516.95
390.66	2551.77
390.87	2498.52
391.08	2656.22
391.30	2629.59
391.51	2578.39
391.72	2746.33
391.94	2590.68
392.15	2631.64
392.36	2555.86
392.58	2555.86
392.79	2613.21
393.00	2629.59
393.22	2731.99
393.43	2699.22
393.64	2756.57
393.85	2725.85
394.07	2725.85
394.28	2680.79
394.49	2650.07
394.71	2791.38
394.92	2803.67
395.13	2682.84
395.35	2643.93
395.56	2752.47
395.77	2869.20
395.98	2715.61
396.20	2815.96
396.41	2834.39
396.62	2799.57
396.84	2772.95
397.05	2910.16
397.26	2887.64
397.47	2961.36
397.69	2852.82
397.90	3018.71
398.11	2934.74
398.32	2850.77
398.54	2777.05
398.75	2971.60
398.96	2928.60
399.18	3063.76
399.39	2949.08
399.60	2963.41
399.81	2908.12
400.03	2863.06
400.24	3272.65
400.45	2908.12
400.66	3080.14
400.88	3008.47
401.09	3108.82
401.30	3108.82
401.51	3143.63
401.73	3166.16
401.94	3104.72
402.15	3102.67
402.36	3155.92
402.58	3170.26
402.79	3180.50
403.00	2992.08
403.21	3155.92
403.43	3190.74
403.64	3295.18
403.85	3033.04
404.06	3233.74
404.27	3125.20
404.49	3157.97
404.70	3162.06
404.91	3280.85
405.12	3260.37
405.34	3284.94
405.55	3307.47
405.76	3229.65
405.97	3323.85
406.19	3270.61
406.40	3160.02
406.61	3272.65
406.82	3426.25
407.03	3289.04
407.25	3276.75
407.46	3334.09
407.67	3442.64
407.88	3510.22
408.09	3352.52
408.31	3252.17
408.52	3440.59
408.73	3286.99
408.94	3262.41
409.15	3295.18
409.37	3489.74
409.58	3502.03
409.79	3448.78
410.00	3479.50
410.21	3399.63
410.43	3438.54
410.64	3395.53
410.85	3483.59
411.06	3489.74
411.27	3479.50
411.48	3524.55
411.70	3459.02
411.91	3577.80
412.12	3592.14
412.33	3553.23
412.54	3536.84
412.76	3604.42
412.97	3588.04
413.18	3524.55
413.39	3719.11
413.60	3633.10
413.81	3590.09
414.03	3559.37
414.24	3692.49
414.45	3719.11
414.66	3502.03
414.87	3665.86
415.08	3653.58
415.30	3665.86
415.51	3753.93
415.72	3573.71
415.93	3633.10
416.14	3747.78
416.35	3772.36
416.56	3870.66
416.78	3809.22
416.99	3782.60
417.20	3708.87
417.41	3846.09
417.62	3919.81
417.83	3932.10
418.04	3938.24
418.26	3979.20
418.47	3837.89
418.68	3909.57
418.89	3940.29
419.10	4032.45
419.31	3971.01
419.52	4093.89
419.73	4075.46
419.95	3997.64
420.16	3903.43
420.37	3940.29
420.58	3991.49
420.79	3841.99
421.00	3936.20
421.21	4181.95
421.42	4016.07
421.63	4130.75
421.85	3925.96
422.06	4102.08
422.27	4009.92
422.48	4130.75
422.69	4163.52
422.90	4179.90
423.11	4304.83
423.32	4257.73
423.53	4382.65
423.75	4347.84
423.96	4470.72
424.17	4325.31
424.38	4442.04
424.59	4253.63
424.80	4382.65
425.01	4421.56
425.22	4440.00
425.43	4386.75
425.64	4646.84
425.85	4646.84
426.06	4593.59
426.28	4493.24
426.49	4581.31
426.70	4468.67
426.91	4616.12
427.12	4687.80
427.33	4503.48
427.54	4548.54
427.75	4804.53
427.96	4829.11
428.17	4648.89
428.38	4759.48
428.59	4751.29
428.80	4693.94
429.01	4786.10
429.23	4724.66
429.44	4964.28
429.65	4900.79
429.86	4931.51
430.07	4794.29
430.28	4945.84
430.49	5070.77
430.70	5148.59
430.91	5136.31
431.12	5019.57
431.33	5103.54
431.54	5078.96
431.75	5115.83
431.96	5042.10
432.17	5130.16
432.38	5187.50
432.59	5382.06
432.80	5232.56
433.01	5308.34
433.22	5330.86
433.43	5177.26
433.64	5169.07
433.85	5093.30
434.06	5326.77
434.27	5226.42
434.49	5416.88
434.70	5414.83
434.91	5361.58
435.12	5373.87
435.33	5328.81
435.54	5496.75
435.75	5250.99
435.96	5392.30
436.17	5367.73
436.38	5408.69
436.59	5552.04
436.80	5511.08
437.01	5619.63
437.22	5685.16
437.43	5629.87
437.64	5345.20
437.85	5767.08
438.06	5701.54
438.27	5656.49
438.48	5625.77
438.69	5779.37
438.90	5793.70
439.11	5640.11
439.32	5875.62
439.53	5812.14
439.74	5881.77
439.95	5814.18
440.16	5855.14
440.37	5775.27
440.57	5767.08
440.78	5771.18
440.99	5965.73
441.20	5902.25
441.41	5781.42
441.62	5971.88
441.83	5722.02
442.04	6084.52
442.25	5994.40
442.46	6090.66
442.67	6399.90
442.88	6305.70
443.09	5918.63
443.30	6070.18
443.51	6088.61
443.72	6412.19
443.93	6127.52
444.14	6317.98
444.35	6090.66
444.56	6205.35
444.77	6307.74
444.98	6340.51
445.19	6377.37
445.40	6254.50
445.61	6133.67
445.81	6479.77
446.02	6397.85
446.23	6285.22
446.44	6283.17
446.65	6559.64
446.86	6545.31
447.07	6582.17
447.28	6659.99
447.49	6524.83
447.70	6373.28
447.91	6606.75
448.12	6430.62
448.33	6803.35
448.54	6631.32
448.74	6471.58
448.95	6623.13
449.16	6608.80
449.37	6866.84
449.58	6598.56
449.79	6924.18
450.00	6850.46
450.21	6860.70
450.42	7040.92
450.63	6889.37
450.84	6836.12
451.05	6854.55
451.25	6911.89
451.46	6739.87
451.67	7102.36
451.88	7067.54
452.09	6995.86
452.30	7014.29
452.51	7143.32
452.72	7245.71
452.93	7475.09
453.13	7079.83
453.34	7083.92
453.55	7122.84
453.76	7100.31
453.97	7518.09
454.18	7169.94
454.39	7403.41
454.60	7276.43
454.81	7368.59
455.01	7563.15
455.22	7350.16
455.43	7520.14
455.64	7761.80
455.85	7858.06
456.06	7759.75
456.27	7735.18
456.48	7673.74
456.68	7792.52
456.89	7847.82
457.10	7962.50
457.31	8052.61
457.52	7933.83
457.73	7810.95
457.94	8124.29
458.14	7794.57
458.35	8368.00
458.56	8204.16
458.77	8177.54
458.98	8191.88
459.19	8161.16
459.39	8290.18
459.60	8402.82
459.81	8380.29
460.02	8476.54
460.23	8421.25
460.44	8605.56
460.65	8439.68
460.85	8658.81
461.06	8646.52
461.27	8423.30
461.48	8699.77
461.69	8785.79
461.89	8566.65
462.10	8789.88
462.31	8667.00
462.52	8900.47
462.73	8931.19
462.94	9187.19
463.14	9039.73
463.35	9025.40
463.56	9584.49
463.77	9197.43
463.98	9047.93
464.18	9248.63
464.39	9402.22
464.60	9355.12
464.81	9568.11
465.02	9471.86
465.23	9592.69
465.43	9547.63
465.64	9824.11
465.85	9621.36
466.06	9492.34
466.27	10006.38
466.47	9826.15
466.68	9973.61
466.89	9932.65
467.10	9955.18
467.30	9928.55
467.51	10080.10
467.72	10360.67
467.93	10184.55
468.14	10135.40
468.34	10415.97
468.55	10473.31
468.76	10413.92
468.97	10407.78
469.17	10606.43
469.38	10723.16
469.59	10739.55
469.80	10645.34
470.01	10710.88
470.21	10962.78
470.42	11116.37
470.63	11239.25
470.84	10977.11
471.04	11233.11
471.25	11046.74
471.46	11224.92
471.67	11525.97
471.87	11398.99
472.08	11513.68
472.29	11509.58
472.50	11364.18
472.70	11513.68
472.91	11753.29
473.12	11992.90
473.33	11757.39
473.53	11917.13
473.74	11945.80
473.95	12093.26
474.16	12199.75
474.36	12371.78
474.57	12302.15
474.78	12498.75
474.99	12291.91
475.19	12437.31
475.40	12656.45
475.61	13049.66
475.81	13086.52
476.02	13137.72
476.23	12998.46
476.44	13184.82
476.64	13190.97
476.85	13283.13
477.06	13541.17
477.27	13389.62
477.47	13748.01
477.68	13743.92
477.89	13702.96
478.09	13739.82
478.30	13934.38
478.51	13776.69
478.71	13881.13
478.92	14085.93
479.13	14456.61
479.34	14272.29
479.54	14333.73
479.75	14468.90
479.96	14423.84
480.16	14673.70
480.37	14581.54
480.58	14962.46
480.78	15191.83
480.99	14980.89
481.20	15290.13
481.41	15279.89
481.61	15304.47
481.82	15351.57
482.03	15640.34
482.23	15322.90
482.44	15707.92
482.65	15916.81
482.85	15626.00
483.06	15875.85
483.27	16043.79
483.47	16021.26
483.68	16047.88
483.89	16129.80
484.09	16224.01
484.30	16426.76
484.51	16649.99
484.71	16367.37
484.92	16584.45
485.13	16846.59
485.33	16725.76
485.54	16848.64
485.75	17155.83
485.95	17069.82
486.16	17069.82
486.37	17323.77
486.57	17305.34
486.78	17276.66
486.98	17522.42
487.19	17643.25
487.40	17735.41
487.60	17526.52
487.81	18296.55
488.02	17981.17
488.22	17725.17
488.43	18306.79
488.64	18083.56
488.84	18267.88
489.05	18439.91
489.25	18274.03
489.46	18632.42
489.67	18581.22
489.87	18829.02
490.08	19082.97
490.29	18642.66
490.49	19388.12
490.70	19230.43
490.90	19214.04
491.11	19177.18
491.32	19353.30
491.52	19291.87
491.73	19531.48
491.94	19543.77
492.14	19500.76
492.35	19738.32
492.55	19584.73
492.76	19945.17
492.97	20123.34
493.17	19920.59
493.38	20131.53
493.58	20451.02
493.79	20119.24
494.00	20278.99
494.20	20621.00
494.41	20573.89
494.61	20682.44
494.82	20664.00
495.02	20709.06
495.23	20872.90
495.44	20668.10
495.64	21331.64
495.85	21040.83
496.05	21089.98
496.26	21556.92
496.47	21567.16
496.67	21176.00
496.88	21827.25
497.08	21567.16
497.29	22013.62
497.49	21624.50
497.70	21862.07
497.91	21886.64
498.11	21927.60
498.32	22056.62
498.52	22128.30
498.73	22533.80
498.93	22329.00
499.14	22580.90
499.34	22572.71
499.55	22767.27
499.76	22531.75
499.96	22863.52
500.17	22683.30
500.37	22945.44
500.58	23008.93
500.78	22980.26
500.99	23092.90
501.19	23033.50
501.40	23152.29
501.60	23344.80
501.81	23531.16
502.02	23627.42
502.22	22972.07
502.43	23502.49
502.63	23586.46
502.84	23948.95
503.04	23955.09
503.25	23787.16
503.45	23938.71
503.66	24125.07
503.86	23881.36
504.07	24286.86
504.27	24094.35
504.48	24501.90
504.68	24293.01
504.89	24721.03
505.09	24774.28
505.30	24604.30
505.50	24747.65
505.71	24741.51
505.91	24870.53
506.12	24753.80
506.32	25046.66
506.53	24612.49
506.73	24940.16
506.94	25214.59
507.14	25147.01
507.35	25138.82
507.55	25310.85
507.76	25601.66
507.96	25423.48
508.17	25597.56
508.37	25728.63
508.58	25624.18
508.78	25767.54
508.99	25820.79
509.19	25984.63
509.40	25833.08
509.60	25859.70
509.81	26144.37
510.01	25951.86
510.22	26322.54
510.42	26007.16
510.63	26324.59
510.83	26216.05
511.04	26220.14
511.24	26515.05
511.44	26521.20
511.65	26482.28
511.85	26383.98
512.06	26646.12
512.26	26633.83
512.47	26973.80
512.67	26594.92
512.88	27061.86
513.08	26607.21
513.29	26953.32
513.49	27188.83
513.69	26883.69
513.90	27115.11
514.10	27010.66
514.31	27346.53
514.51	27194.98
514.72	27362.91
514.92	27364.96
515.13	27479.64
515.33	27356.77
515.53	27426.40
515.74	27358.81
515.94	27328.10
516.15	27962.97
516.35	27596.38
516.56	27780.70
516.76	27637.34
516.96	27971.16
517.17	27852.38
517.37	27987.54
517.58	27776.60
517.78	27973.21
517.99	28192.34
518.19	28511.82
518.39	28393.04
518.60	28737.10
518.80	28194.39
519.01	28925.51
519.21	28673.61
519.41	28685.90
519.62	28454.48
519.82	28767.82
520.03	28778.06
520.23	29034.05
520.43	28646.99
520.64	29283.91
520.84	29054.53
521.05	29394.50
521.25	29077.06
521.45	28784.20
521.66	29638.20
521.86	29527.61
522.07	29476.41
522.27	29388.35
522.47	29685.31
522.68	29576.76
522.88	29474.37
523.08	30006.84
523.29	29568.57
523.49	29910.58
523.70	29859.38
523.90	30047.80
524.10	29828.66
524.31	30471.73
524.51	29890.10
524.71	30873.13
524.92	30287.41
525.12	30641.71
525.33	30459.44
525.53	30633.52
525.73	30686.76
525.94	30656.04
526.14	31192.61
526.34	30948.90
526.55	31036.97
526.75	31084.07
526.95	31557.15
527.16	30924.33
527.36	31397.41
527.56	31266.34
527.77	31720.99
527.97	31485.47
528.17	31741.47
528.38	31880.73
528.58	31823.39
528.78	32165.40
528.99	31733.28
529.19	32445.97
529.39	31989.27
529.60	32126.49
529.80	32126.49
530.00	32210.45
530.21	32366.10
530.41	32912.91
530.61	32484.88
530.82	32259.60
531.02	32609.81
531.22	32855.56
531.43	32613.90
531.63	33218.05
531.83	33617.41
532.04	33527.30
532.24	33261.06
532.44	33771.00
532.64	33609.22
532.85	33431.04
533.05	33572.35
533.25	33775.10
533.46	34059.77
533.66	34033.14
533.86	33926.65
534.07	34133.50
534.27	33926.65
534.47	34782.70
534.67	34285.04
534.88	34444.79
535.08	34465.27
535.28	34805.23
535.49	34985.45
535.69	34967.02
535.89	35151.34
536.09	35048.94
536.30	35057.13
536.50	35491.30
536.70	35210.73
536.91	34928.11
537.11	35251.69
537.31	35208.68
537.51	35517.92
537.72	35710.43
537.92	35694.05
538.12	36316.63
538.32	36189.66
538.53	36451.80
538.73	35530.21
538.93	35755.49
539.13	36412.88
539.34	36263.38
539.54	36406.74
539.74	37004.75
539.94	36369.88
540.15	36797.90
540.35	36431.32
540.55	36660.69
540.75	36537.81
540.96	36959.69
541.16	36740.56
541.36	36928.97
541.56	36793.81
541.77	37381.57
541.97	37184.97
542.17	37533.12
542.37	37101.00
542.58	37334.47
542.78	37617.09
542.98	37699.01
543.18	37635.52
543.38	38090.17
543.59	37823.93
543.79	37432.77
543.99	37580.23
544.19	38135.23
544.40	38178.23
544.60	38413.75
544.80	38118.84
545.00	38307.26
545.20	38475.19
545.41	38471.09
545.61	38290.87
545.81	38626.74
546.01	38909.36
546.21	38700.47
546.42	38460.85
546.62	39165.35
546.82	38585.78
547.02	38710.71
547.22	39071.15
547.43	39058.86
547.63	38983.09
547.83	39374.25
548.03	39189.93
548.23	39261.61
548.44	39206.31
548.64	39499.17
548.84	39370.15
549.04	39605.67
549.24	39806.37
549.45	39763.36
549.65	39734.69
549.85	39759.27
550.05	39941.53
550.25	39368.10
550.45	40332.70
550.66	39923.10
550.86	39982.49
551.06	40056.22
551.26	40039.84
551.46	40254.87
551.66	40023.45
551.87	40183.19
552.07	40412.57
552.27	40410.52
552.47	40486.29
552.67	40451.48
552.87	40613.27
553.07	40385.94
553.28	40727.95
553.48	40953.23
553.68	40572.31
553.88	41110.92
554.08	40768.91
554.28	41053.58
554.48	40852.88
554.69	41317.77
554.89	41198.99
555.09	41225.61
555.29	40973.71
555.49	41106.83
555.69	41055.63
555.89	41403.78
556.10	41336.20
556.30	41559.43
556.50	41641.35
556.70	41805.19
556.90	41860.48
557.10	41784.71
557.30	41434.50
557.50	41721.22
557.70	41979.26
557.91	42278.27
558.11	41766.27
558.31	42071.42
558.51	41618.82
558.71	42161.53
558.91	42368.38
559.11	41874.82
559.31	42155.39
559.51	41989.50
559.72	42237.31
559.92	42372.47
560.12	41995.65
560.32	42331.51
560.52	42163.58
560.72	42448.25
560.92	42792.31
561.12	42605.94
561.32	42915.19
561.52	42315.13
561.72	43083.12
561.93	42661.24
562.13	42831.22
562.33	42870.13
562.53	43240.81
562.73	42720.63
562.93	42542.45
563.13	42931.57
563.33	42843.51
563.53	43189.61
563.73	43001.20
563.93	43283.82
564.13	43351.40
564.33	43296.11
564.53	43150.70
564.74	43140.46
564.94	43072.88
565.14	43287.92
565.34	43300.20
565.54	43509.10
565.74	43324.78
565.94	43736.42
566.14	43470.18
566.34	43679.08
566.54	43980.13
566.74	43332.97
566.94	43654.50
567.14	43844.96
567.34	43615.59
567.54	44080.48
567.74	43758.95
567.94	43771.24
568.14	43816.29
568.34	44217.69
568.54	43828.58
568.74	44227.93
568.94	44016.99
569.14	44367.20
569.34	44000.61
569.54	44543.32
569.75	44115.29
569.95	44152.16
570.15	44922.19
570.35	44457.31
570.55	44295.52
570.75	44385.63
570.95	44561.75
571.15	44744.02
571.35	44422.49
571.55	44756.31
571.75	44406.11
571.95	44533.08
572.15	44520.79
572.35	44784.98
572.55	44277.08
572.75	44809.56
572.95	45227.34
573.15	45045.07
573.35	44873.04
573.55	44422.49
573.75	44852.56
573.95	45718.85
574.15	45040.98
574.35	45143.38
574.55	44967.25
574.75	45266.25
574.95	45585.74
575.15	45241.68
575.34	45012.31
575.54	45831.49
575.74	45630.79
575.94	45399.37
576.14	45452.62
576.34	45923.65
576.54	46050.63
576.74	45962.56
576.94	45550.92
577.14	45811.01
577.34	46259.52
577.54	45536.59
577.74	45688.13
577.94	45968.71
578.14	45851.97
578.34	46351.68
578.54	45790.53
578.74	46275.90
578.94	46425.40
579.14	46421.31
579.34	46378.30
579.54	46183.74
579.74	46896.44
579.94	46624.06
580.13	46564.67
580.33	46382.40
580.53	46748.98
580.73	47097.14
580.93	46781.75
581.13	46316.86
581.33	46699.83
581.53	47168.82
581.73	47017.27
581.93	47093.04
582.13	46908.72
582.33	46998.83
582.53	46806.33
582.73	47576.36
582.92	47482.16
583.12	47187.25
583.32	47369.52
583.52	47297.84
583.72	47488.30
583.92	47373.61
584.12	47717.67
584.32	47537.45
584.52	47564.07
584.72	47596.84
584.92	47541.55
585.11	48405.79
585.31	47531.31
585.51	47863.08
585.71	47643.94
585.91	48174.37
586.11	47781.16
586.31	48059.68
586.51	47732.01
586.71	47830.31
586.91	48606.49
587.10	48330.01
587.30	48342.30
587.50	48100.64
587.70	48305.44
587.90	48561.44
588.10	48383.26
588.30	48065.83
588.50	48436.51
588.69	48373.02
588.89	48440.60
589.09	48885.01
589.29	48540.96
589.49	49007.89
589.69	48489.76
589.89	48917.78
590.08	48665.88
590.28	48657.69
590.48	48604.44
590.68	48755.99
590.88	49128.72
591.08	49270.03
591.28	48543.00
591.47	49229.07
591.67	49087.76
591.87	49165.59
592.07	49333.52
592.27	49345.81
592.47	49020.18
592.67	49274.13
592.86	49200.40
593.06	49599.76
593.26	49530.12
593.46	49413.39
593.66	49593.61
593.86	49407.25
594.05	49409.29
594.25	49493.26
594.45	49403.15
594.65	49913.09
594.85	49431.82
595.05	49659.15
595.24	49890.57
595.44	50179.33
595.64	49999.11
595.84	50050.31
596.04	49689.87
596.23	50087.17
596.43	50453.76
596.63	49743.11
596.83	49853.70
597.03	50224.39
597.22	50871.54
597.42	50339.07
597.62	50586.88
597.82	50660.60
598.02	50205.95
598.21	50373.89
598.41	50978.04
598.61	50572.54
598.81	50916.60
599.01	50617.60
599.20	50558.20
599.40	50552.06
599.60	50806.01
599.80	50697.47
600.00	51346.67
600.19	51084.53
600.39	51074.29
600.59	51094.77
600.79	51000.57
600.98	50935.03
601.18	51657.96
601.38	51098.87
601.58	51068.15
601.78	51692.78
601.97	51125.49
602.17	52085.99
602.37	52006.12
602.57	51535.09
602.76	52352.23
602.96	51553.52
603.16	52262.11
603.36	51823.85
603.55	52253.92
603.75	52065.51
603.95	52176.10
604.15	52137.19
604.34	51952.87
604.54	52372.70
604.74	52245.73
604.94	52024.55
605.13	52200.68
605.33	51930.34
605.53	52294.88
605.73	52495.58
605.92	52434.14
606.12	52550.88
606.32	53038.29
606.52	52630.75
606.71	52346.08
606.91	52589.79
607.11	52896.98
607.30	53142.74
607.50	52810.97
607.70	52964.57
607.90	53112.02
608.09	53032.15
608.29	53226.71
608.49	53220.56
608.68	53001.43
608.88	53185.75
609.08	53222.61
609.28	53394.64
609.47	52993.24
609.67	53380.31
609.87	53523.66
610.06	53490.90
610.26	53302.48
610.46	53484.75
610.66	53021.91
610.85	53699.79
611.05	53460.18
611.25	53847.24
611.44	53482.70
611.64	53671.12
611.84	53114.07
612.03	53163.22
612.23	53787.85
612.43	53957.83
612.62	53591.25
612.82	54113.48
613.02	54000.84
613.21	53943.50
613.41	53611.73
613.61	54277.32
613.80	53837.00
614.00	53648.59
614.20	54174.92
614.39	54375.62
614.59	54123.72
614.79	53830.86
614.98	53904.59
615.18	53794.00
615.38	53847.24
615.57	53667.02
615.77	53959.88
615.97	54109.38
616.16	54121.67
616.36	54211.78
616.56	54039.75
616.75	53923.02
616.95	53988.55
617.15	54002.89
617.34	53941.45
617.54	53724.36
617.74	54508.74
617.93	54219.97
618.13	53282.00
618.32	54125.77
618.52	53851.34
618.72	54226.12
618.91	54420.67
619.11	54336.71
619.31	54146.25
619.50	53925.07
619.70	54015.18
619.90	54002.89
620.09	54039.75
620.29	53521.62
620.48	54332.61
620.68	54283.46
620.88	54062.28
621.07	54162.63
621.27	54582.46
621.46	54340.80
621.66	53972.17
621.86	54232.26
622.05	54074.57
622.25	54426.82
622.44	53714.12
622.64	53929.16
622.84	54199.49
623.03	53581.01
623.23	54105.29
623.42	54138.05
623.62	53929.16
623.82	54715.58
624.01	54652.09
624.21	54703.29
624.40	54369.47
624.60	53873.87
624.80	54021.32
624.99	54334.66
625.19	54125.77
625.38	54803.64
625.58	54408.39
625.77	54676.67
625.97	54191.30
626.17	54254.79
626.36	54035.66
626.56	54899.90
626.75	53769.42
626.95	54527.17
627.14	54369.47
627.34	54883.51
627.54	54262.98
627.73	54469.82
627.93	54305.99
628.12	54318.28
628.32	54076.61
628.51	54246.60
628.71	55010.49
628.90	54254.79
629.10	54219.97
629.30	54074.57
629.49	54435.01
629.69	54019.27
629.88	54408.39
630.08	54901.95
630.27	54648.00
630.47	54308.04
630.66	54064.33
630.86	54504.64
631.05	54410.43
631.25	54604.99
631.44	54375.62
631.64	54219.97
631.84	54643.90
632.03	54977.72
632.23	54461.63
632.42	54791.36
632.62	54791.36
632.81	54396.10
633.01	54158.53
633.20	54662.33
633.40	54662.33
633.59	54574.27
633.79	54633.66
633.98	55006.39
634.18	54693.05
634.37	54824.12
634.57	54648.00
634.76	54648.00
634.96	54627.52
635.15	54961.34
635.35	54674.62
635.54	54623.42
635.74	55006.39
635.93	54664.38
636.13	55092.41
636.32	55180.47
636.52	54617.28
636.71	54772.92
636.91	54838.46
637.10	55219.38
637.30	54484.16
637.49	54844.60
637.69	55047.35
637.88	55620.78
638.08	54731.96
638.27	55006.39
638.46	54674.62
638.66	54822.08
638.85	54981.82
639.05	54992.06
639.24	55198.90
639.44	54713.53
639.63	54936.76
639.83	55350.45
640.02	55112.89
640.22	55198.90
640.41	55061.69
640.61	54914.23
640.80	55100.60
640.99	54799.55
641.19	55905.45
641.38	55112.89
641.58	54996.15
641.77	54895.80
641.97	54918.33
642.16	55096.50
642.36	55016.63
642.55	55270.58
642.74	54846.65
642.94	55350.45
643.13	55024.82
643.33	55407.79
643.52	55522.48
643.72	55309.49
643.91	54863.03
644.10	55252.15
644.30	55514.29
644.49	55252.15
644.69	55219.38
644.88	55262.39
645.08	54944.95
645.27	55280.82
645.46	55424.18
645.66	55350.45
645.85	55786.67
646.05	55473.33
646.24	55624.88
646.43	55155.89
646.63	55481.52
646.82	55508.14
647.02	55930.03
647.21	55321.78
647.40	55280.82
647.60	56079.53
647.79	55598.26
647.99	55645.36
648.18	55547.06
648.37	55805.10
648.57	55684.27
648.76	55366.84
648.96	55440.56
649.15	55968.94
649.34	55760.05
649.54	55803.05
649.73	55334.07
649.92	55166.13
650.12	55805.10
650.31	56034.47
650.51	55329.97
650.70	56030.38
650.89	55819.44
651.09	56546.47
651.28	55850.16
651.47	55839.92
651.67	56263.85
651.86	56087.72
652.06	55407.79
652.25	55876.78
652.44	55581.87
652.64	55743.66
652.83	55737.52
653.02	55821.48
653.22	55927.98
653.41	55676.08
653.60	55475.38
653.80	55592.11
653.99	55948.46
654.18	55790.76
654.38	55727.28
654.57	55829.68
654.76	56100.01
654.96	55669.93
655.15	55858.35
655.34	55727.28
655.54	55614.64
655.73	55542.96
655.92	56095.91
656.12	55702.70
656.31	55485.62
656.50	55680.17
656.70	55663.79
656.89	55481.52
657.08	55714.99
657.28	55794.86
657.47	55860.40
657.66	55966.89
657.86	55596.21
658.05	55770.28
658.24	55741.61
658.43	55973.03
658.63	56253.61
658.82	55915.69
659.01	56038.57
659.21	55882.92
659.40	56036.52
659.59	55387.31
659.79	56024.23
659.98	56503.46
660.17	56190.12
660.36	56079.53
660.56	56374.44
660.75	55872.68
660.94	56259.75
661.14	55893.16
661.33	55860.40
661.52	55692.46
661.71	56202.41
661.91	55284.92
662.10	55835.82
662.29	55927.98
662.49	56540.32
662.68	55858.35
662.87	55563.44
663.06	55987.37
663.26	55760.05
663.45	56396.96
663.64	55717.04
663.83	56321.19
664.03	56218.79
664.22	56177.83
664.41	56112.30
664.60	55952.55
664.80	56005.80
664.99	56046.76
665.18	56005.80
665.37	56644.77
665.57	55979.18
665.76	55768.24
665.95	56272.04
666.14	56323.24
666.34	55540.91
666.53	55923.88
666.72	55952.55
666.91	55780.52
667.11	55696.56
667.30	55987.37
667.49	55532.72
667.68	56173.73
667.87	55768.24
668.07	56231.08
668.26	55985.32
668.45	55682.22
668.64	55776.43
668.84	56384.68
669.03	55848.11
669.22	55467.19
669.41	56087.72
669.60	55946.41
669.80	55659.69
669.99	56429.73
670.18	56044.71
670.37	56005.80
670.57	56134.82
670.76	55907.50
670.95	56018.09
671.14	56376.48
671.33	55852.20
671.53	56513.70
671.72	55893.16
671.91	55657.65
672.10	56229.03
672.29	55985.32
672.48	55653.55
672.68	56104.10
672.87	55747.76
673.06	55696.56
673.25	55661.74
673.44	55633.07
673.64	55606.45
673.83	55661.74
674.02	55514.29
674.21	55590.06
674.40	55647.41
674.59	55342.26
674.79	55780.52
674.98	55846.06
675.17	55899.31
675.36	55645.36
675.55	56100.01
675.74	55710.89
675.94	55362.74
676.13	55620.78
676.32	55784.62
676.51	56057.00
676.70	55755.95
676.89	55854.25
677.08	55794.86
677.28	55538.86
677.47	55772.33
677.66	55909.55
677.85	55450.80
678.04	56202.41
678.23	56302.76
678.42	55803.05
678.62	55694.51
678.81	55915.69
679.00	55731.37
679.19	56229.03
679.38	55977.13
679.57	55645.36
679.76	55782.57
679.96	56222.89
680.15	55633.07
680.34	55520.43
680.53	55545.01
680.72	56087.72
680.91	55745.71
681.10	56009.90
681.29	55637.17
681.48	55145.65
681.68	55172.28
681.87	55602.35
682.06	55350.45
682.25	55008.44
682.44	55487.67
682.63	55301.30
682.82	55000.25
683.01	55114.94
683.20	55119.03
683.39	55723.18
683.59	55282.87
683.78	55342.26
683.97	54920.38
684.16	54893.75
684.35	54930.62
684.54	54981.82
684.73	55268.53
684.92	54729.92
685.11	55229.62
685.30	54705.34
685.49	54965.43
685.69	55145.65
685.88	54717.63
686.07	54959.29
686.26	55583.92
686.45	55442.61
686.64	55129.27
686.83	54887.61
687.02	55262.39
687.21	55356.60
687.40	55133.37
687.59	55119.03
687.78	55008.44
687.97	55303.35
688.16	54789.31
688.35	55207.09
688.54	54791.36
688.74	55207.09
688.93	55002.30
689.12	55108.79
689.31	55272.63
689.50	55219.38
689.69	54289.60
689.88	54721.72
690.07	54695.10
690.26	54609.09
690.45	55391.41
690.64	54570.18
690.83	54940.86
691.02	54459.58
691.21	54492.35
691.40	54432.96
691.59	54672.57
691.78	54719.68
691.97	54834.36
692.16	54383.81
692.35	54650.05
692.54	54361.28
692.73	54967.48
692.92	54926.52
693.11	54697.15
693.30	54648.00
693.49	54658.24
693.68	54148.29
693.87	54652.09
694.06	54088.90
694.25	54338.75
694.44	54713.53
694.63	54355.14
694.82	54721.72
695.01	54465.73
695.20	53982.41
695.39	54228.16
695.58	54269.12
695.77	53785.80
695.96	53963.98
696.15	53863.63
696.34	53949.64
696.53	53925.07
696.72	54432.96
696.91	54189.25
697.10	54047.94
697.29	54138.05
697.48	54512.83
697.67	54031.56
697.86	54045.90
698.05	53863.63
698.24	54015.18
698.43	53499.09
698.62	53888.20
698.81	53814.47
699.00	54172.87
699.19	53468.37
699.38	53875.91
699.57	53511.38
699.76	54617.28
699.95	53744.84
700.14	54056.14
700.32	53796.04
700.51	53302.48
700.70	53859.53
700.89	53912.78
701.08	53859.53
701.27	53824.71
701.46	54084.81
701.65	53482.70
701.84	53642.45
702.03	53591.25
702.22	53380.31
702.41	53820.62
702.60	53671.12
702.79	53783.76
702.98	53488.85
703.17	53521.62
703.35	53361.87
703.54	53388.50
703.73	53087.45
703.92	53046.49
704.11	53042.39
704.30	53062.87
704.49	53228.76
704.68	53044.44
704.87	53642.45
705.06	53318.87
705.25	53085.40
705.43	53204.18
705.62	53669.07
705.81	52872.41
706.00	52716.76
706.19	52423.90
706.38	52747.48
706.57	52534.49
706.76	52647.13
706.95	52391.14
707.14	52417.76
707.32	52761.82
707.51	52548.83
707.70	52548.83
707.89	52589.79
708.08	52520.16
708.27	52983.00
708.46	53112.02
708.65	52509.92
708.84	52632.80
709.02	53118.17
709.21	52421.86
709.40	52380.90
709.59	52188.39
709.78	52274.40
709.97	52604.13
710.16	52229.35
710.34	52493.54
710.53	52335.84
710.72	52425.95
710.91	52389.09
711.10	52098.28
711.29	52344.03
711.48	52237.54
711.66	52172.00
711.85	52040.93
712.04	52094.18
712.23	52090.09
712.42	52563.17
712.61	51979.49
712.80	51778.79
712.98	51967.21
713.17	51598.57
713.36	51459.31
713.55	51758.31
713.74	51825.90
713.93	52077.80
714.11	52124.90
714.30	51950.82
714.49	51623.15
714.68	52006.12
714.87	52010.21
715.06	51717.35
715.24	51254.51
715.43	51723.50
715.62	51057.91
715.81	51242.23
716.00	51700.97
716.18	51217.65
716.37	51221.75
716.56	51344.62
716.75	51393.78
716.94	51262.71
717.12	50863.35
717.31	51518.70
717.50	51051.76
717.69	51131.64
717.88	51430.64
718.06	51528.94
718.25	50855.16
718.44	50287.87
718.63	51078.39
718.82	50511.10
719.00	50488.57
719.19	50984.18
719.38	50941.17
719.57	50353.41
719.76	50040.07
719.94	49982.73
720.13	50078.98
720.32	50087.17
720.51	50332.93
720.69	50332.93
720.88	50156.80
721.07	49900.81
721.26	50040.07
721.44	50441.47
721.63	49853.70
721.82	50185.47
722.01	49769.74
722.20	49990.92
722.38	49566.99
722.57	49272.08
722.76	49681.67
722.95	49540.36
723.13	49329.42
723.32	49507.60
723.51	49321.23
723.70	49435.92
723.88	49165.59
724.07	49460.49
724.26	49372.43
724.44	48835.86
724.63	49444.11
724.82	49253.65
725.01	49370.38
725.19	49290.51
725.38	48979.22
725.57	49159.44
725.76	49089.81
725.94	48317.73
726.13	48463.13
726.32	48915.73
726.51	48375.07
726.69	48923.93
726.88	48809.24
727.07	48649.50
727.25	48219.42
727.44	48538.91
727.63	48383.26
727.82	48053.54
728.00	48481.56
728.19	48176.42
728.38	48823.58
728.56	48272.67
728.75	48610.59
728.94	48428.32
729.12	48524.57
729.31	48559.39
729.50	48223.52
729.69	48655.64
729.87	48471.32
730.06	48069.92
730.25	48364.83
730.43	48440.60
730.62	48145.70
730.81	48557.34
730.99	48334.11
731.18	48176.42
731.37	48631.07
731.55	48182.56
731.74	48461.08
731.93	48438.56
732.11	48168.22
732.30	48641.31
732.49	48182.56
732.67	48205.09
732.86	47840.55
733.05	48170.27
733.23	47996.20
733.42	48174.37
733.61	48110.88
733.79	48223.52
733.98	48305.44
734.17	48184.61
734.35	47856.93
734.54	47965.48
734.73	47924.52
734.91	48022.82
735.10	47906.08
735.29	48106.79
735.47	47525.16
735.66	47971.62
735.84	48186.66
736.03	47748.39
736.22	48094.50
736.40	47385.90
736.59	47818.02
736.78	47719.72
736.96	47623.47
737.15	47732.01
737.33	47080.75
737.52	47269.17
737.71	47285.55
737.89	47619.37
738.08	47074.61
738.27	47367.47
738.45	47031.60
738.64	47459.63
738.82	47514.92
739.01	47318.32
739.20	47224.11
739.38	47215.92
739.57	47318.32
739.75	47457.58
739.94	46970.16
740.13	46771.51
740.31	47213.87
740.50	47201.58
740.68	47435.05
740.87	47428.91
741.06	46931.25
741.24	47172.91
741.43	46910.77
741.61	46966.07
741.80	46456.12
741.99	46591.29
742.17	46921.01
742.36	46519.61
742.54	46605.62
742.73	46495.03
742.91	46767.41
743.10	46644.54
743.29	46527.80
743.47	46568.76
743.66	46570.81
743.84	46699.83
744.03	46329.15
744.21	46443.84
744.40	46654.78
744.59	46589.24
744.77	45972.80
744.96	46112.06
745.14	46529.85
745.33	46462.27
745.51	46169.41
745.70	46015.81
745.88	46282.05
746.07	45937.99
746.26	45854.02
746.44	46165.31
746.63	46040.39
746.81	46243.13
747.00	45743.43
747.18	46093.63
747.37	45804.87
747.55	46026.05
747.74	46028.10
747.92	45618.50
748.11	45270.35
748.29	45835.59
748.48	45663.56
748.66	45505.87
748.85	45663.56
749.03	45528.39
749.22	45520.20
749.41	45493.58
749.59	45581.64
749.78	45137.23
749.96	44774.74
750.15	45387.08
750.33	45020.50
750.52	45106.51
750.70	45141.33
750.89	44891.48
751.07	44885.33
751.26	45247.82
751.44	44578.14
751.63	45151.57
751.81	44975.44
752.00	44916.05
752.18	45053.26
752.37	44897.62
752.55	44344.67
752.74	44252.51
752.92	44555.61
753.10	44379.48
753.29	44404.06
753.47	44492.12
753.66	44078.43
753.84	44934.48
754.03	44492.12
754.21	44420.44
754.40	44189.02
754.58	44574.04
754.77	44639.57
754.95	43926.88
755.14	44016.99
755.32	43976.03
755.51	43722.08
755.69	43482.47
755.88	44191.07
756.06	44379.48
756.24	43906.40
756.43	44150.11
756.61	44014.94
756.80	43689.32
756.98	43726.18
757.17	43840.87
757.35	43994.46
757.54	43812.20
757.72	43695.46
757.90	44098.91
758.09	43640.17
758.27	43502.95
758.46	43070.83
758.64	43435.37
758.83	43447.66
759.01	43588.97
759.19	43195.76
759.38	43433.32
759.56	43455.85
759.75	43451.75
759.93	43326.83
760.12	43187.56
760.30	43269.48
760.48	43115.89
760.67	42847.60
760.85	43017.58
761.04	43328.87
761.22	42720.63
761.40	43218.28
761.59	42734.96
761.77	42863.99
761.96	43021.68
762.14	42771.83
762.32	42620.28
762.51	42691.96
762.69	42333.56
762.88	42603.89
763.06	42816.88
763.24	42452.34
763.43	42577.27
763.61	42354.04
763.80	42591.61
763.98	42376.57
764.16	42304.89
764.35	41936.26
764.53	41719.17
764.72	42208.64
764.90	42278.27
765.08	42251.64
765.27	42196.35
765.45	42161.53
765.63	41399.69
765.82	41977.22
766.00	41819.52
766.18	41844.10
766.37	42356.09
766.55	41864.58
766.74	41764.23
766.92	41780.61
767.10	41657.73
767.29	41512.33
767.47	41518.47
767.65	41815.43
767.84	41303.43
768.02	41717.12
768.20	41225.61
768.39	41426.31
768.57	41366.92
768.75	41358.73
768.94	41575.81
769.12	41643.40
769.30	41022.86
769.49	41321.87
769.67	41465.22
769.85	40721.81
770.04	40639.89
770.22	40830.35
770.40	40619.41
770.59	40949.14
770.77	40816.02
770.95	40940.94
771.14	40502.68
771.32	40394.14
771.50	40269.21
771.69	40537.49
771.87	40768.91
772.05	40400.28
772.24	40256.92
772.42	40637.84
772.60	40273.31
772.78	40244.63
772.97	39816.61
773.15	40588.69
773.33	40334.74
773.52	40142.24
773.70	39976.35
773.88	40162.72
774.07	40263.07
774.25	40224.15
774.43	40338.84
774.61	40002.97
774.80	40179.10
774.98	40091.04
775.16	39919.01
775.34	40328.60
775.53	40080.80
775.71	40594.84
775.89	40465.81
776.08	40293.79
776.26	40283.55
776.44	40203.67
776.62	40557.97
776.81	39857.57
776.99	40535.45
777.17	40758.67
777.35	40349.08
777.54	40586.64
777.72	40596.88
777.90	40764.82
778.08	40838.54
778.27	40613.27
778.45	40594.84
778.63	40783.25
778.81	40246.68
779.00	41184.65
779.18	40711.57
779.36	40623.51
779.54	40938.90
779.73	40301.98
779.91	40351.13
780.09	40572.31
780.27	40617.36
780.46	40701.33
780.64	41330.06
780.82	40924.56
781.00	40938.90
781.19	40856.98
781.37	40873.36
781.55	40922.51
781.73	41452.94
781.91	40746.39
782.10	41110.92
782.28	40758.67
782.46	41250.19
782.64	41201.04
782.82	41117.07
783.01	41303.43
783.19	41614.72
783.37	41065.87
783.55	41123.21
783.74	41325.96
783.92	41135.50
784.10	41350.54
784.28	41336.20
784.46	41334.15
784.64	41702.79
784.83	41121.16
785.01	41567.62
785.19	41223.56
785.37	41592.20
785.55	41340.30
785.74	40973.71
785.92	40996.24
786.10	41547.14
786.28	41319.82
786.46	40865.17
786.64	40723.86
786.83	40863.12
787.01	41311.63
787.19	41057.68
787.37	40891.79
787.55	40877.46
787.74	40934.80
787.92	40904.08
788.10	40662.42
788.28	40396.18
788.46	40768.91
788.64	40578.45
788.82	41047.44
789.01	40715.67
789.19	41078.16
789.37	40281.50
789.55	40381.85
789.73	40050.08
789.91	40355.22
790.09	40666.52
790.28	40203.67
790.46	39970.21
790.64	40148.38
790.82	40091.04
791.00	39974.30
791.18	39712.16
791.36	40179.10
791.55	39851.42
791.73	39544.23
791.91	39574.95
792.09	39642.53
792.27	39656.87
792.45	39523.75
792.63	39222.70
792.81	39046.57
793.00	39034.28
793.18	39130.54
793.36	39140.78
793.54	38999.47
793.72	38974.89
793.90	38991.28
794.08	38815.15
794.26	39003.56
794.44	38389.17
794.62	38540.72
794.81	38688.18
794.99	38362.55
795.17	38675.89
795.35	38280.63
795.53	38493.62
795.71	38860.21
795.89	37760.45
796.07	38057.40
796.25	37815.74
796.43	37940.67
796.61	37576.13
796.80	37451.20
796.98	37817.79
797.16	37490.12
797.34	37170.63
797.52	37150.15
797.70	37516.74
797.88	37287.37
798.06	37225.93
798.24	37418.44
798.42	37029.32
798.60	37019.08
798.78	36726.22
798.96	37094.86
799.14	36711.89
799.32	36992.46
799.51	36611.54
799.69	36806.09
799.87	36648.40
800.05	36728.27
800.23	36449.75
800.41	36279.77
800.59	36459.99
800.77	36191.70
800.95	35911.13
801.13	36208.09
801.31	36046.30
801.49	36222.42
801.67	35859.93
801.85	35552.74
802.03	35851.74
802.21	35417.57
802.39	35225.06
802.57	35444.20
802.75	35192.30
802.93	35235.30
803.11	35157.48
803.29	34883.05
803.47	35065.32
803.65	35143.14
803.83	35290.60
804.01	34706.93
804.19	34696.69
804.37	34522.61
804.55	34493.94
804.73	34788.85
804.91	34383.35
805.09	34336.24
805.27	34373.11
805.45	34592.24
805.63	34762.22
805.81	34405.88
805.99	34438.64
806.17	33883.64
806.35	33949.18
806.53	33922.55
806.71	34225.65
806.89	33693.18
807.07	33799.68
807.25	33664.51
807.43	33619.46
807.61	33895.93
807.79	33512.96
807.97	33289.73
808.15	33263.11
808.33	33144.33
808.51	32986.63
808.69	33035.78
808.87	33351.17
809.05	32990.73
809.23	32957.96
809.41	32751.12
809.59	32863.75
809.77	32523.79
809.95	32386.58
810.13	32816.65
810.31	32656.91
810.49	32781.84
810.67	32564.75
810.84	32536.08
811.02	32699.92
811.20	32292.37
811.38	32278.04
811.56	32134.68
811.74	32065.05
811.92	31974.94
812.10	32007.70
812.28	32114.20
812.46	31751.71
812.64	32054.81
812.82	31649.31
813.00	31596.06
813.18	31694.36
813.36	31690.27
813.53	31577.63
813.71	31440.42
813.89	31878.68
814.07	31737.37
814.25	31508.00
814.43	31092.26
814.61	31241.76
814.79	31096.36
814.97	31176.23
815.15	31006.25
815.33	30711.34
815.50	30729.77
815.68	30985.77
815.86	30936.62
816.04	30985.77
816.22	30803.50
816.40	30656.04
816.58	30651.95
816.76	30504.49
816.94	30457.39
817.11	30750.25
817.29	30746.15
817.47	30307.89
817.65	30291.51
817.83	30133.81
818.01	29935.16
818.19	30117.43
818.37	30387.76
818.54	29916.73
818.72	30336.56
818.90	30307.89
819.08	29625.92
819.26	30244.40
819.44	30002.74
819.62	29623.87
819.80	29716.03
819.97	29697.59
820.15	29580.86
820.33	29105.73
820.51	29525.57
820.69	28984.90
820.87	29388.35
821.05	29361.73
821.22	29390.40
821.40	29242.95
821.58	29048.39
821.76	29486.65
821.94	29290.05
822.12	29075.01
822.29	29288.00
822.47	29105.73
822.65	29421.12
822.83	28827.21
823.01	28833.35
823.19	28696.14
823.36	28933.70
823.54	28472.91
823.72	28630.60
823.90	28614.22
824.08	28309.07
824.25	28661.32
824.43	28421.71
824.61	28542.54
824.79	28741.19
824.97	28515.92
825.15	28630.60
825.32	28364.37
825.50	28255.82
825.68	28186.19
825.86	28462.67
826.04	28378.70
826.21	28274.26
826.39	28184.15
826.57	28599.88
826.75	27975.25
826.93	28075.60
827.10	27795.03
827.28	27729.50
827.46	28063.32
827.64	27790.94
827.81	27936.34
827.99	27790.94
828.17	27792.98
828.35	27629.15
828.53	27504.22
828.70	27561.56
828.88	27543.13
829.06	27276.90
829.24	27487.84
829.41	27559.52
829.59	27700.83
829.77	27467.36
829.95	27313.76
830.12	27346.53
830.30	27446.88
830.48	27377.25
830.66	27502.17
830.84	27313.76
831.01	27137.63
831.19	27094.63
831.37	27135.59
831.55	26807.91
831.72	27022.95
831.90	26981.99
832.08	26635.88
832.25	27100.77
832.43	26873.45
832.61	26455.66
832.79	26799.72
832.96	26750.57
833.14	26756.71
833.32	26678.89
833.50	26707.56
833.67	26568.30
833.85	26216.05
834.03	25984.63
834.20	26785.38
834.38	26375.79
834.56	26689.13
834.74	26164.85
834.91	26508.91
835.09	26457.71
835.27	26074.74
835.44	26142.32
835.62	25808.50
835.80	26222.19
835.98	25994.87
836.15	26203.76
836.33	26170.99
836.51	25896.56
836.68	25804.41
836.86	25888.37
837.04	26369.65
837.21	25738.87
837.39	26093.17
837.57	26060.40
837.75	25888.37
837.92	25489.02
838.10	25560.70
838.28	25615.99
838.45	25796.21
838.63	25253.50
838.81	25718.39
838.98	25847.41
839.16	25265.79
839.34	25224.83
839.51	25269.89
839.69	25251.45
839.87	25052.80
840.04	25044.61
840.22	25341.57
840.40	25099.90
840.57	24897.16
840.75	24872.58
840.93	25042.56
841.10	25239.17
841.28	25220.74
841.46	24995.46
841.63	25153.15
841.81	25069.19
841.98	24819.33
842.16	25138.82
842.34	24698.50
842.51	24567.43
842.69	24741.51
842.87	24761.99
843.04	25030.27
843.22	24352.40
843.40	24657.54
843.57	24696.46
843.75	24630.92
843.92	24477.32
844.10	24458.89
844.28	24536.71
844.45	24682.12
844.63	24522.38
844.81	24460.94
844.98	24434.32
845.16	24135.31
845.33	24413.84
845.51	24245.90
845.69	24045.20
845.86	24319.63
846.04	24321.68
846.21	24301.20
846.39	24157.84
846.57	24030.87
846.74	24043.15
846.92	24231.57
847.09	23834.26
847.27	23588.50
847.45	24114.83
847.62	23969.43
847.80	23598.74
847.97	23836.31
848.15	23830.16
848.32	23723.67
848.50	23801.49
848.68	23340.70
848.85	23588.50
849.03	23084.70
849.20	23344.80
849.38	23402.14
849.56	23418.52
849.73	23291.55
849.91	23840.40
850.08	23637.66
850.26	23258.78
850.43	23289.50
850.61	23338.65
850.78	23293.60
850.96	23033.50
851.14	23058.08
851.31	23174.81
851.49	22992.55
851.66	23168.67
851.84	23158.43
852.01	23234.21
852.19	23408.28
852.36	22830.76
852.54	23041.70
852.71	22845.09
852.89	22877.86
853.07	23043.74
853.24	22886.05
853.42	22593.19
853.59	22871.72
853.77	22797.99
853.94	22863.52
854.12	22886.05
854.29	22617.77
854.47	22824.61
854.64	22636.20
854.82	22666.92
854.99	22546.09
855.17	22478.50
855.34	22169.26
855.52	22480.55
855.69	22288.04
855.87	22138.54
856.04	22238.89
856.22	22404.78
856.39	22130.35
856.57	22283.95
856.74	22097.58
856.92	22369.96
857.09	22027.95
857.27	21939.89
857.44	22169.26
857.62	22259.37
857.79	21966.51
857.97	21915.31
858.14	22247.08
858.32	21874.35
858.49	21909.17
858.67	21675.70
858.84	21862.07
859.02	21608.12
859.19	21714.61
859.37	21524.15
859.54	21718.71
859.72	21710.52
859.89	21874.35
860.06	21462.71
860.24	21317.31
860.41	21520.06
860.59	21339.83
860.76	21429.94
860.94	21399.23
861.11	21638.84
861.29	21685.94
861.46	21495.48
861.64	21073.60
861.81	21532.34
861.98	21272.25
862.16	21296.83
862.33	21212.86
862.51	21241.53
862.68	21110.46
862.86	21096.13
863.03	20975.30
863.21	20967.10
863.38	21014.21
863.55	20946.62
863.73	21161.66
863.90	20809.41
864.08	20860.61
864.25	20967.10
864.43	20698.82
864.60	20678.34
864.77	20711.11
864.95	20534.98
865.12	20713.16
865.30	20700.87
865.47	20371.15
865.64	20453.06
865.82	20696.77
865.99	20659.91
866.17	20172.49
866.34	20545.22
866.51	20223.69
866.69	20508.36
866.86	20461.26
867.04	20311.75
867.21	20242.12
867.38	20152.01
867.56	20152.01
867.73	20154.06
867.91	20119.24
868.08	19926.74
868.25	19674.84
868.43	19814.10
868.60	19824.34
868.78	19947.22
868.95	19977.94
869.12	19791.57
869.30	19799.76
869.47	19762.90
869.64	19521.24
869.82	19680.98
869.99	19795.67
870.16	19967.70
870.34	19558.10
870.51	19551.96
870.69	19652.31
870.86	19562.20
871.03	19674.84
871.21	19646.16
871.38	19875.54
871.55	19267.29
871.73	19162.84
871.90	19418.84
872.07	19109.60
872.25	19130.08
872.42	19140.32
872.59	19027.68
872.77	19201.76
872.94	19506.90
873.11	18921.18
873.29	19289.82
873.46	19156.70
873.63	18945.76
873.81	19070.68
873.98	18622.18
874.15	18927.33
874.33	18573.03
874.50	18687.71
874.67	18650.85
874.85	18648.80
875.02	18675.43
875.19	18392.81
875.37	18523.88
875.54	18460.39
875.71	18550.50
875.88	18243.31
876.06	18519.78
876.23	18415.34
876.40	18278.12
876.58	18022.12
876.75	18415.34
876.92	18204.39
877.10	18218.73
877.27	18042.60
877.44	18065.13
877.61	17811.18
877.79	17925.87
877.96	17833.71
878.13	17868.53
878.31	17688.31
878.48	17735.41
878.65	17516.28
878.82	17764.08
879.00	17911.53
879.17	17647.35
879.34	17872.62
879.51	17557.24
879.69	17454.84
879.86	17395.45
880.03	17430.26
880.21	17381.11
880.38	17547.00
880.55	17397.49
880.72	17395.45
880.90	17565.43
881.07	17362.68
881.24	17149.69
881.41	17104.64
881.59	17297.14
881.76	17188.60
881.93	17256.18
882.10	16942.85
882.28	17053.44
882.45	17231.61
882.62	17247.99
882.79	17231.61
882.96	16762.62
883.14	17213.18
883.31	16893.69
883.48	16963.33
883.65	16926.46
883.83	16936.70
884.00	16795.39
884.17	16826.11
884.34	16787.20
884.51	16695.04
884.69	16738.05
884.86	16668.42
885.03	16715.52
885.20	16731.90
885.38	16760.58
885.55	16553.73
885.72	16873.21
885.89	16510.72
886.06	16443.14
886.24	16783.10
886.41	16480.00
886.58	16512.77
886.75	16953.09
886.92	16205.58
887.10	16633.60
887.27	16500.48
887.44	16535.30
887.61	16682.75
887.78	16557.83
887.95	16381.70
888.13	16412.42
888.30	16269.06
888.47	16080.65
888.64	16160.52
888.81	16105.23
888.99	16189.19
889.16	15755.02
889.33	16172.81
889.50	16160.52
889.67	16070.41
889.84	15861.52
890.01	15916.81
890.19	15773.46
890.36	15922.96
890.53	15712.02
890.70	15802.13
890.87	15910.67
891.04	15664.91
891.22	15841.04
891.39	15943.44
891.56	15617.81
891.73	15798.03
891.90	15632.15
892.07	15748.88
892.24	15705.87
892.42	15767.31
892.59	15187.74
892.76	15296.28
892.93	15486.74
893.10	15560.47
893.27	15558.42
893.44	15327.00
893.61	15365.91
893.79	15224.60
893.96	15304.47
894.13	15357.72
894.30	15419.16
894.47	15169.30
894.64	15699.73
894.81	15400.72
894.98	15255.32
895.15	15361.81
895.33	15265.56
895.50	15392.53
895.67	15314.71
895.84	15288.09
896.01	15243.03
896.18	15204.12
896.35	15410.96
896.52	15030.04
896.69	15046.43
896.86	15308.57
897.04	15083.29
897.21	15214.36
897.38	15161.11
897.55	15175.45
897.72	15251.22
897.89	15046.43
898.06	15259.42
898.23	15071.00
898.40	15111.96
898.57	15300.37
898.74	15195.93
898.91	15222.55
899.08	15126.30
899.26	15353.62
899.43	15224.60
899.60	15111.96
899.77	15068.95
899.94	14935.84
900.11	14831.39
900.28	15171.35
900.45	14831.39
900.62	14966.56
900.79	15107.87
900.96	15306.52
901.13	15169.30
901.30	14868.25
901.47	14954.27
901.64	15101.72
901.81	15050.52
901.98	15083.29
902.15	15019.80
902.32	14872.35
902.49	14995.23
902.66	14972.70
902.83	14970.65
903.01	14874.40
903.18	15187.74
903.35	15003.42
903.52	14855.97
903.69	14956.32
903.86	15197.98
904.03	14958.36
904.20	15089.43
904.37	15040.28
904.54	14987.04
904.71	14991.13
904.88	15161.11
905.05	14759.71
905.22	15111.96
905.39	14864.16
905.56	14827.29
905.73	14921.50
905.90	15173.40
906.07	14987.04
906.24	15003.42
906.41	14817.05
906.58	14946.08
906.75	14995.23
906.92	14905.12
907.09	14819.10
907.26	15118.11
907.43	14831.39
907.60	14532.39
907.77	14978.84
907.93	14888.73
908.10	15050.52
908.27	14872.35
908.44	14673.70
908.61	14786.33
908.78	14612.26
908.95	15017.75
909.12	14731.04
909.29	14806.81
909.46	14933.79
909.63	14915.36
909.80	15017.75
909.97	14792.48
910.14	14825.25
910.31	14769.95
910.48	14731.04
910.65	14624.54
910.82	14724.90
910.99	14651.17
911.16	14704.42
911.33	14634.78
911.50	14591.78
911.66	14495.52
911.83	14470.95
912.00	14546.72
912.17	14460.71
912.34	14378.79
912.51	14407.46
912.68	14235.43
912.85	14616.35
913.02	14446.37
913.19	14350.12
913.36	14434.08
913.53	14141.22
913.70	14237.48
913.86	14638.88
914.03	14165.80
914.20	14104.36
914.37	14335.78
914.54	14231.33
914.71	14368.55
914.88	13928.24
915.05	14077.74
915.22	13934.38
915.39	14196.52
915.55	14026.54
915.72	14014.25
915.89	14090.02
916.06	13807.41
916.23	13799.21
916.40	13711.15
916.57	13844.27
916.74	13776.69
916.91	13664.05
917.07	13848.36
917.24	13815.60
917.41	13600.56
917.58	13700.91
917.75	13625.14
917.92	13328.18
918.09	13350.71
918.26	13287.22
918.42	13537.07
918.59	13471.54
918.76	13309.75
918.93	13195.06
919.10	13164.34
919.27	13236.02
919.44	13289.27
919.60	13225.78
919.77	13160.25
919.94	13061.94
920.11	13139.77
920.28	13018.94
920.45	13012.79
920.61	12840.76
920.78	13008.70
920.95	12830.52
921.12	12701.50
921.29	12621.63
921.46	12844.86
921.62	12672.83
921.79	12660.54
921.96	12400.45
922.13	12697.41
922.30	12590.91
922.47	12474.18
922.63	12607.30
922.80	12470.08
922.97	12220.23
923.14	12259.14
923.31	12201.80
923.47	12072.78
923.64	12308.29
923.81	12209.99
923.98	12093.26
924.15	12031.82
924.32	12142.41
924.48	12091.21
924.65	12203.85
924.82	11929.42
924.99	11726.67
925.15	11759.44
925.32	11908.94
925.49	11552.59
925.66	11702.09
925.83	11593.55
925.99	11448.15
926.16	11544.40
926.33	11616.08
926.50	11315.03
926.67	11425.62
926.83	11368.27
927.00	11403.09
927.17	11210.58
927.34	11095.89
927.50	11249.49
927.67	11472.72
927.84	10882.91
928.01	11194.20
928.17	10987.35
928.34	10901.34
928.51	10862.43
928.68	10872.67
928.84	11013.98
929.01	10760.03
929.18	10628.96
929.35	10592.09
929.51	10700.64
929.68	10706.78
929.85	10669.92
930.02	10784.60
930.18	10534.75
930.35	10518.37
930.52	10561.37
930.69	10514.27
930.85	10553.18
931.02	10219.36
931.19	10266.47
931.36	10162.02
931.52	10383.20
931.69	10096.49
931.86	10168.16
932.02	9953.13
932.19	10205.03
932.36	10014.57
932.53	9936.74
932.69	9809.77
932.86	9998.18
933.03	9918.31
933.19	9774.95
933.36	9793.39
933.53	9772.91
933.70	9492.34
933.86	9555.82
934.03	9516.91
934.20	9348.98
934.36	9430.90
934.53	9099.13
934.70	9179.00
934.86	9371.50
935.03	9086.84
935.20	8925.05
935.36	9019.25
935.53	9070.45
935.70	8865.66
935.86	9072.50
936.03	8734.59
936.20	8718.20
936.36	8765.31
936.53	8593.28
936.70	8583.04
936.86	8476.54
937.03	8257.41
937.20	8253.31
937.36	8243.07
937.53	8040.33
937.70	7991.17
937.86	7794.57
938.03	7718.79
938.20	7960.45
938.36	7571.34
938.53	7817.10
938.70	7522.19
938.86	7540.62
939.03	7477.13
939.20	7337.87
939.36	7264.15
939.53	7196.56
939.70	7337.87
939.86	6965.14
940.03	6809.50
940.19	6797.21
940.36	6868.89
940.53	6860.70
940.69	6657.95
940.86	6596.51
941.03	6590.36
941.19	6342.56
941.36	6334.37
941.52	6496.16
941.69	6315.94
941.86	6274.98
942.02	6174.63
942.19	6158.24
942.35	6322.08
942.52	5980.07
942.69	5863.33
942.85	5762.98
943.02	5935.01
943.18	5941.16
943.35	5775.27
943.52	5711.78
943.68	5693.35
943.85	5705.64
944.01	5750.70
944.18	5717.93
944.35	5547.95
944.51	5568.43
944.68	5345.20
944.84	5480.36
945.01	5367.73
945.17	5441.45
945.34	5509.04
945.51	5482.41
945.67	5287.86
945.84	5515.18
946.00	5400.49
946.17	5443.50
946.33	5357.49
946.50	5312.43
946.67	5265.33
946.83	5259.18
947.00	5197.74
947.16	5320.62
947.33	5226.42
947.49	5328.81
947.66	5253.04
947.82	5361.58
947.99	5263.28
948.16	5277.62
948.32	5369.77
948.49	5259.18
948.65	5412.78
948.82	5343.15
948.98	5343.15
949.15	5238.70
949.31	5371.82
949.48	5244.85
949.64	5283.76
949.81	5271.47
949.97	5334.96
950.14	5316.53
950.30	5285.81
950.47	5418.93
950.63	5291.95
950.80	5353.39
950.96	5386.16
951.13	5228.46
951.30	5347.25
951.46	5201.84
951.63	5457.84
951.79	5273.52
951.96	5568.43
952.12	5355.44
952.29	5429.17
952.45	5322.67
952.62	5283.76
952.78	5337.01
952.94	5408.69
953.11	5380.01
953.27	5224.37
953.44	5410.73
953.60	5386.16
953.77	5447.60
953.93	5529.52
954.10	5435.31
954.26	5361.58
954.43	5431.21
954.59	5474.22
954.76	5482.41
954.92	5492.65
955.09	5502.89
955.25	5324.72
955.42	5341.10
955.58	5578.67
955.75	5459.88
955.91	5365.68
956.07	5328.81
956.24	5521.32
956.40	5519.28
956.57	5695.40
956.73	5345.20
956.90	5441.45
957.06	5451.69
957.23	5517.23
957.39	5468.08
957.56	5482.41
957.72	5486.51
957.88	5496.75
958.05	5590.95
958.21	5593.00
958.38	5588.91
958.54	5459.88
958.71	5453.74
958.87	5560.24
959.03	5490.60
959.20	5535.66
959.36	5414.83
959.53	5490.60
959.69	5377.97
959.85	5425.07
960.02	5363.63
960.18	5513.13
960.35	5586.86
960.51	5504.94
960.68	5359.53
960.84	5453.74
961.00	5337.01
961.17	5582.76
961.33	5504.94
961.50	5443.50
961.66	5582.76
961.82	5556.14
961.99	5484.46
962.15	5533.61
962.31	5324.72
962.48	5466.03
962.64	5486.51
962.81	5437.36
962.97	5509.04
963.13	5506.99
963.30	5552.04
963.46	5509.04
963.62	5361.58
963.79	5517.23
963.95	5308.34
964.12	5601.19
964.28	5435.31
964.44	5468.08
964.61	5449.64
964.77	5406.64
964.93	5506.99
965.10	5377.97
965.26	5312.43
965.42	5408.69
965.59	5214.13
965.75	5341.10
965.92	5281.71
966.08	5238.70
966.24	5431.21
966.41	5244.85
966.57	5359.53
966.73	5328.81
966.90	5466.03
967.06	5216.18
967.22	5234.61
967.39	5160.88
967.55	5177.26
967.71	5269.42
967.88	5273.52
968.04	5263.28
968.20	5144.50
968.37	5296.05
968.53	5111.73
968.69	5111.73
968.85	5261.23
969.02	5435.31
969.18	5218.22
969.34	5230.51
969.51	5185.46
969.67	5144.50
969.83	5152.69
970.00	5250.99
970.16	5171.12
970.32	5275.57
970.48	5132.21
970.65	5042.10
970.81	4933.56
970.97	5038.00
971.14	4968.37
971.30	5164.98
971.46	5003.19
971.63	5083.06
971.79	5185.46
971.95	5052.34
972.11	4898.74
972.28	4921.27
972.44	5095.35
972.60	4923.32
972.76	4995.00
972.93	4851.64
973.09	5007.28
973.25	4892.60
973.42	4870.07
973.58	4937.65
973.74	4984.76
973.90	4982.71
974.07	4806.58
974.23	4810.68
974.39	4896.69
974.55	4886.45
974.72	4763.58
974.88	4708.28
975.04	4878.26
975.20	4757.43
975.37	4753.34
975.53	4845.49
975.69	4835.25
975.85	4779.96
976.01	4749.24
976.18	4695.99
976.34	4702.14
976.50	4714.42
976.66	4874.17
976.83	4710.33
976.99	4718.52
977.15	4798.39
977.31	4534.20
977.47	4788.15
977.64	4698.04
977.80	4657.08
977.96	4591.55
978.12	4657.08
978.29	4591.55
978.45	4528.06
978.61	4521.92
978.77	4648.89
978.93	4569.02
979.10	4583.35
979.26	4583.35
979.42	4564.92
979.58	4501.44
979.74	4552.63
979.91	4607.93
980.07	4386.75
980.23	4450.24
980.39	4562.87
980.55	4495.29
980.71	4499.39
980.88	4394.94
981.04	4534.20
981.20	4356.03
981.36	4472.76
981.52	4466.62
981.68	4290.49
981.85	4493.24
982.01	4433.85
982.17	4409.28
982.33	4317.12
982.49	4378.56
982.65	4388.80
982.82	4333.50
982.98	4220.86
983.14	4280.25
983.30	4362.17
983.46	4329.41
983.62	4339.65
983.79	4175.81
983.95	4278.21
984.11	4243.39
984.27	4276.16
984.43	4302.78
984.59	4175.81
984.75	4286.40
984.91	4218.82
985.08	4253.63
985.24	4130.75
985.40	4081.60
985.56	4149.18
985.72	4288.45
985.88	4169.66
986.04	4097.99
986.20	4140.99
986.37	4104.13
986.53	4042.69
986.69	4032.45
986.85	3893.19
987.01	3968.96
987.17	4196.29
987.33	4136.90
987.49	4001.73
987.65	4048.83
987.82	4065.22
987.98	3893.19
988.14	3897.28
988.30	4018.11
988.46	3954.63
988.62	3944.39
988.78	3956.68
988.94	3919.81
989.10	3887.04
989.26	3825.61
989.42	3872.71
989.59	3870.66
989.75	3778.50
989.91	3895.24
990.07	3803.08
990.23	3903.43
990.39	3788.74
990.55	3995.59
990.71	3743.69
990.87	3868.61
991.03	3858.37
991.19	3895.24
991.35	3774.41
991.51	3819.46
991.67	3743.69
991.83	3801.03
992.00	3745.73
992.16	3755.97
992.32	3803.08
992.48	3688.39
992.64	3686.34
992.80	3796.93
992.96	3692.49
993.12	3682.25
993.28	3700.68
993.44	3690.44
993.60	3731.40
993.76	3719.11
993.92	3612.62
994.08	3717.06
994.24	3624.90
994.40	3635.14
994.56	3637.19
994.72	3563.47
994.88	3530.70
995.04	3590.09
995.20	3612.62
995.36	3606.47
995.52	3610.57
995.68	3553.23
995.84	3540.94
996.00	3618.76
996.16	3420.11
996.32	3424.20
996.48	3602.38
996.64	3571.66
996.80	3413.96
996.96	3518.41
997.12	3508.17
997.28	3514.31
997.44	3391.44
997.60	3493.83
997.76	3377.10
997.92	3428.30
998.08	3446.73
998.24	3338.19
998.40	3307.47
998.56	3434.44
998.72	3303.37
998.88	3370.96
999.04	3387.34
999.20	3465.16
999.36	3289.04
999.52	3381.20
999.68	3432.40
999.84	3379.15
1000.00	3416.01
1000.16	3366.86
1000.32	3239.89
1000.48	3340.24
1000.64	3186.64
1000.80	3203.02
1000.95	3119.06
1001.11	3196.88
1001.27	3131.34
1001.43	3223.50
1001.59	3172.30
1001.75	3205.07
1001.91	3223.50
1002.07	3231.69
1002.23	3248.08
1002.39	3205.07
1002.55	3227.60
1002.71	3102.67
1002.87	3028.95
1003.03	3026.90
1003.19	2985.94
1003.34	3229.65
1003.50	3166.16
1003.66	3155.92
1003.82	3190.74
1003.98	3076.05
1004.14	3096.53
1004.30	3098.58
1004.46	2998.23
1004.62	3030.99
1004.78	3051.47
1004.94	3035.09
1005.09	3133.39
1005.25	3020.75
1005.41	3043.28
1005.57	3002.32
1005.73	2981.84
1005.89	2944.98
1006.05	3049.43
1006.21	2897.88
1006.37	2951.12
1006.52	2920.40
1006.68	2908.12
1006.84	3030.99
1007.00	2846.68
1007.16	3016.66
1007.32	2912.21
1007.48	2883.54
1007.64	2873.30
1007.79	2914.26
1007.95	2801.62
1008.11	3045.33
1008.27	2918.36
1008.43	2867.16
1008.59	2836.44
1008.75	2889.68
1008.91	2854.87
1009.06	2883.54
1009.22	2797.53
1009.38	2797.53
1009.54	2815.96
1009.70	2777.05
1009.86	2815.96
1010.01	2883.54
1010.17	2674.65
1010.33	2842.58
1010.49	2830.29
1010.65	2842.58
1010.81	2734.04
1010.96	2797.53
1011.12	2727.89
1011.28	2592.73
1011.44	2742.23
1011.60	2602.97
1011.76	2738.13
1011.91	2697.17
1012.07	2688.98
1012.23	2486.23
1012.39	2629.59
1012.55	2619.35
1012.71	2729.94
1012.86	2619.35
1013.02	2787.29
1013.18	2555.86
1013.34	2617.30
1013.50	2670.55
1013.65	2734.04
1013.81	2568.15
1013.97	2564.06
1014.13	2625.50
1014.29	2627.54
1014.44	2695.13
1014.60	2539.48
1014.76	2637.78
1014.92	2586.58
1015.07	2541.53
1015.23	2615.26
1015.39	2424.80
1015.55	2580.44
1015.71	2553.82
1015.86	2545.63
1016.02	2502.62
1016.18	2469.85
1016.34	2502.62
1016.49	2465.75
1016.65	2592.73
1016.81	2533.34
1016.97	2469.85
1017.12	2578.39
1017.28	2355.16
1017.44	2367.45
1017.60	2461.66
1017.75	2441.18
1017.91	2459.61
1018.07	2453.47
1018.23	2424.80
1018.38	2490.33
1018.54	2453.47
1018.70	2330.59
1018.86	2461.66
1019.01	2410.46
1019.17	2377.69
1019.33	2467.80
1019.49	2326.49
1019.64	2543.58
1019.80	2516.95
1019.96	2459.61
1020.12	2408.41
1020.27	2375.64
1020.43	2338.78
1020.59	2336.73
1020.74	2400.22
1020.90	2506.71
1021.06	2287.58
1021.22	2385.88
1021.37	2336.73
1021.53	2277.34
1021.69	2412.51
1021.84	2224.09
1022.00	2273.25
1022.16	2316.25
1022.31	2359.26
1022.47	2318.30
1022.63	2432.99
1022.79	2246.62
1022.94	2265.05
1023.10	2326.49
1023.26	2295.77
1023.41	2283.49
1023.57	2293.72
1023.73	2303.96
1023.88	2263.01
1024.04	2242.53
1024.20	2203.61
1024.35	2279.39
1024.51	2322.40
1024.67	2232.29
1024.82	2308.06
1024.98	2123.74
1025.14	2222.05
1025.29	2232.29
1025.45	2355.16
1025.61	2105.31
1025.76	2228.19
1025.92	2129.89
1026.08	2213.85
1026.23	2197.47
1026.39	2322.40
1026.55	2258.91
1026.70	2117.60
1026.86	2197.47
1027.02	2306.01
1027.17	2142.18
1027.33	2224.09
1027.48	2154.46
1027.64	2131.94
1027.80	2154.46
1027.95	2166.75
1028.11	1961.95
1028.27	2265.05
1028.42	2162.66
1028.58	2121.70
1028.73	2015.20
1028.89	2054.11
1029.05	2260.96
1029.20	2160.61
>>>>>End Processed Spectral Data<<<<<
