SpectraSuite Data File
++++++++++++++++++++++++++++++++++++
Date: Fri Jun 02 14:49:29 CEST 2017
User: INFO_000
Dark Spectrum Present: No
Reference Spectrum Present: No
Number of Sampled Component Spectra: 1
Spectrometers: USB4H00879
Integration Time (usec): 80000 (USB4H00879)
Spectra Averaged: 1 (USB4H00879)
Boxcar Smoothing: 0 (USB4H00879)
Correct for Electrical Dark: No (USB4H00879)
Strobe/Lamp Enabled: No (USB4H00879)
Correct for Detector Non-linearity: No (USB4H00879)
Correct for Stray Light: No (USB4H00879)
Number of Pixels in Processed Spectrum: 3648
>>>>>Begin Processed Spectral Data<<<<<
345.13	1267.69
345.34	1267.69
345.56	1267.69
345.78	1220.59
345.99	1286.12
346.21	1701.86
346.42	1744.87
346.64	1654.76
346.86	1763.30
347.07	1660.90
347.29	1716.20
347.50	1642.47
347.72	1669.09
347.94	1650.66
348.15	1593.32
348.37	1611.75
348.59	1646.57
348.80	1630.18
349.02	1761.25
349.23	1855.46
349.45	1783.78
349.67	1912.80
349.88	1800.16
350.10	1945.57
350.31	1867.75
350.53	1763.30
350.75	2019.30
350.96	1832.93
351.18	1800.16
351.39	1769.44
351.61	1798.12
351.82	1888.23
352.04	1984.48
352.26	1761.25
352.47	1877.99
352.69	1929.19
352.90	1738.73
353.12	1902.56
353.34	1896.42
353.55	1910.75
353.77	1904.61
353.98	1849.32
354.20	1873.89
354.41	1871.84
354.63	1867.75
354.85	2025.44
355.06	1839.08
355.28	1783.78
355.49	1914.85
355.71	1859.56
355.92	1886.18
356.14	1943.52
356.35	1894.37
356.57	1841.12
356.79	1900.52
357.00	1916.90
357.22	1986.53
357.43	1806.31
357.65	1982.43
357.86	1806.31
358.08	1976.29
358.29	1957.86
358.51	2015.20
358.72	1937.38
358.94	1929.19
359.16	1877.99
359.37	1949.67
359.59	1966.05
359.80	1912.80
360.02	1945.57
360.23	1925.09
360.45	1968.10
360.66	1974.24
360.88	1802.21
361.09	1957.86
361.31	2078.69
361.52	1937.38
361.74	2052.06
361.95	2076.64
362.17	1908.71
362.38	2097.12
362.60	1943.52
362.81	1927.14
363.03	2021.35
363.24	2007.01
363.46	2115.55
363.67	2056.16
363.89	1972.19
364.10	1976.29
364.32	1923.04
364.53	2062.30
364.75	1884.13
364.96	2062.30
365.18	2062.30
365.39	2099.17
365.61	1937.38
365.82	2041.82
366.04	2035.68
366.25	1990.63
366.47	2023.39
366.68	2066.40
366.90	2017.25
367.11	2039.78
367.33	2148.32
367.54	2172.89
367.76	1978.34
367.97	2039.78
368.19	2033.63
368.40	2064.35
368.62	2000.87
368.83	2002.91
369.05	2050.02
369.26	1918.95
369.48	1933.28
369.69	1982.43
369.91	2068.45
370.12	1972.19
370.33	2162.66
370.55	1959.91
370.76	1996.77
370.98	2136.03
371.19	2097.12
371.41	2033.63
371.62	2121.70
371.84	2023.39
372.05	2252.77
372.27	2021.35
372.48	2045.92
372.69	2052.06
372.91	2115.55
373.12	2109.41
373.34	2113.50
373.55	2033.63
373.77	2109.41
373.98	2064.35
374.20	2113.50
374.41	2240.48
374.62	2113.50
374.84	2156.51
375.05	2273.25
375.27	2117.60
375.48	2199.52
375.70	2131.94
375.91	2267.10
376.12	2273.25
376.34	2166.75
376.55	2050.02
376.77	2215.90
376.98	2176.99
377.19	2121.70
377.41	2142.18
377.62	2166.75
377.84	2154.46
378.05	2379.74
378.27	2222.05
378.48	2265.05
378.69	2355.16
378.91	2258.91
379.12	2176.99
379.34	2234.33
379.55	2283.49
379.76	2236.38
379.98	2263.01
380.19	2242.53
380.41	2271.20
380.62	2363.36
380.83	2265.05
381.05	2170.85
381.26	2402.27
381.47	2222.05
381.69	2267.10
381.90	2396.12
382.12	2359.26
382.33	2252.77
382.54	2291.68
382.76	2234.33
382.97	2312.16
383.19	2230.24
383.40	2260.96
383.61	2398.17
383.83	2273.25
384.04	2301.92
384.25	2367.45
384.47	2432.99
384.68	2406.36
384.89	2228.19
385.11	2400.22
385.32	2367.45
385.54	2377.69
385.75	2392.03
385.96	2363.36
386.18	2402.27
386.39	2404.32
386.60	2306.01
386.82	2430.94
387.03	2398.17
387.24	2404.32
387.46	2465.75
387.67	2387.93
387.88	2469.85
388.10	2455.51
388.31	2441.18
388.52	2592.73
388.74	2455.51
388.95	2475.99
389.16	2416.60
389.38	2461.66
389.59	2553.82
389.80	2519.00
390.02	2580.44
390.23	2654.17
390.44	2596.82
390.66	2469.85
390.87	2504.67
391.08	2588.63
391.30	2707.41
391.51	2611.16
391.72	2609.11
391.94	2535.39
392.15	2621.40
392.36	2576.34
392.58	2607.06
392.79	2650.07
393.00	2766.81
393.22	2709.46
393.43	2656.22
393.64	2688.98
393.85	2777.05
394.07	2686.94
394.28	2670.55
394.49	2801.62
394.71	2854.87
394.92	2844.63
395.13	2680.79
395.35	2750.42
395.56	2705.37
395.77	2729.94
395.98	2861.01
396.20	2904.02
396.41	2791.38
396.62	2899.92
396.84	2785.24
397.05	2813.91
397.26	2940.88
397.47	2893.78
397.69	2867.16
397.90	3002.32
398.11	2981.84
398.32	2881.49
398.54	2879.44
398.75	2865.11
398.96	2994.13
399.18	3094.48
399.39	2961.36
399.60	3022.80
399.81	2863.06
400.03	2922.45
400.24	3166.16
400.45	2959.31
400.66	3004.37
400.88	3028.95
401.09	3178.45
401.30	3057.62
401.51	3151.82
401.73	3145.68
401.94	3098.58
402.15	3147.73
402.36	3121.10
402.58	3098.58
402.79	3168.21
403.00	3166.16
403.21	3190.74
403.43	3213.26
403.64	3338.19
403.85	3194.83
404.06	3170.26
404.27	3162.06
404.49	3182.54
404.70	3143.63
404.91	3356.62
405.12	3321.81
405.34	3117.01
405.55	3346.38
405.76	3141.58
405.97	3280.85
406.19	3379.15
406.40	3164.11
406.61	3286.99
406.82	3385.29
407.03	3289.04
407.25	3162.06
407.46	3368.91
407.67	3448.78
407.88	3497.93
408.09	3385.29
408.31	3291.09
408.52	3450.83
408.73	3344.33
408.94	3389.39
409.15	3403.72
409.37	3469.26
409.58	3510.22
409.79	3440.59
410.00	3626.95
410.21	3407.82
410.43	3477.45
410.64	3370.96
410.85	3471.31
411.06	3508.17
411.27	3583.95
411.48	3553.23
411.70	3549.13
411.91	3598.28
412.12	3588.04
412.33	3530.70
412.54	3672.01
412.76	3688.39
412.97	3510.22
413.18	3467.21
413.39	3532.75
413.60	3659.72
413.81	3643.34
414.03	3657.67
414.24	3633.10
414.45	3700.68
414.66	3542.99
414.87	3770.31
415.08	3680.20
415.30	3719.11
415.51	3753.93
415.72	3534.79
415.93	3672.01
416.14	3729.35
416.35	3764.17
416.56	3782.60
416.78	3848.13
416.99	3829.70
417.20	3930.05
417.41	3909.57
417.62	3878.85
417.83	3868.61
418.04	3846.09
418.26	3954.63
418.47	3936.20
418.68	3971.01
418.89	3971.01
419.10	4100.03
419.31	3936.20
419.52	4071.36
419.73	4005.83
419.95	4120.51
420.16	3911.62
420.37	3989.44
420.58	3966.92
420.79	3997.64
421.00	3942.34
421.21	4050.88
421.42	4087.75
421.63	4057.03
421.85	4081.60
422.06	4054.98
422.27	4163.52
422.48	4114.37
422.69	4140.99
422.90	4235.20
423.11	4255.68
423.32	4358.08
423.53	4272.06
423.75	4251.58
423.96	4480.96
424.17	4329.41
424.38	4458.43
424.59	4370.37
424.80	4540.35
425.01	4372.41
425.22	4380.61
425.43	4489.15
425.64	4626.36
425.85	4548.54
426.06	4581.31
426.28	4530.11
426.49	4440.00
426.70	4546.49
426.91	4624.31
427.12	4511.68
427.33	4657.08
427.54	4683.70
427.75	4640.70
427.96	4761.53
428.17	4775.86
428.38	4704.18
428.59	4779.96
428.80	4722.62
429.01	4794.29
429.23	4786.10
429.44	4958.13
429.65	4933.56
429.86	5038.00
430.07	4857.78
430.28	4892.60
430.49	5019.57
430.70	5128.11
430.91	5017.52
431.12	5074.87
431.33	5031.86
431.54	5138.35
431.75	4964.28
431.96	4902.84
432.17	5068.72
432.38	5197.74
432.59	5334.96
432.80	5154.74
433.01	5357.49
433.22	5281.71
433.43	5291.95
433.64	5255.09
433.85	5197.74
434.06	5365.68
434.27	5269.42
434.49	5394.35
434.70	5408.69
434.91	5416.88
435.12	5414.83
435.33	5486.51
435.54	5457.84
435.75	5357.49
435.96	5410.73
436.17	5466.03
436.38	5533.61
436.59	5478.32
436.80	5572.52
437.01	5687.21
437.22	5670.83
437.43	5629.87
437.64	5457.84
437.85	5687.21
438.06	5777.32
438.27	5683.11
438.48	5638.06
438.69	5935.01
438.90	5863.33
439.11	5773.22
439.32	5724.07
439.53	5916.58
439.74	5939.11
439.95	5842.85
440.16	5865.38
440.37	5900.20
440.57	5873.57
440.78	5889.96
440.99	6027.17
441.20	5877.67
441.41	5855.14
441.62	6018.98
441.83	5750.70
442.04	6008.74
442.25	5900.20
442.46	6047.65
442.67	6098.85
442.88	6336.42
443.09	6092.71
443.30	6049.70
443.51	6141.86
443.72	6172.58
443.93	6162.34
444.14	6320.03
444.35	5994.40
444.56	6258.59
444.77	6244.26
444.98	6203.30
445.19	6332.32
445.40	6303.65
445.61	6287.26
445.81	6455.20
446.02	6485.92
446.23	6277.02
446.44	6375.33
446.65	6528.92
446.86	6334.37
447.07	6473.63
447.28	6623.13
447.49	6680.47
447.70	6510.49
447.91	6533.02
448.12	6416.29
448.33	6739.87
448.54	6686.62
448.74	6565.79
448.95	6768.54
449.16	6590.36
449.37	6952.85
449.58	6696.86
449.79	6965.14
450.00	6653.85
450.21	6786.97
450.42	7040.92
450.63	7081.88
450.84	6825.88
451.05	7008.15
451.25	6850.46
451.46	6862.74
451.67	7212.95
451.88	7235.47
452.09	7151.51
452.30	7024.53
452.51	7208.85
452.72	7190.42
452.93	7423.89
453.13	6965.14
453.34	7063.44
453.55	7149.46
453.76	7214.99
453.97	7448.46
454.18	7233.43
454.39	7432.08
454.60	7479.18
454.81	7409.55
455.01	7604.11
455.22	7239.57
455.43	7567.24
455.64	7618.44
455.85	7655.31
456.06	7870.34
456.27	7557.00
456.48	7669.64
456.68	7737.23
456.89	7870.34
457.10	7931.78
457.31	8134.53
457.52	7976.84
457.73	7937.93
457.94	8159.11
458.14	7939.97
458.35	8374.14
458.56	8218.50
458.77	8023.94
458.98	8290.18
459.19	8286.08
459.39	8312.71
459.60	8380.29
459.81	8234.88
460.02	8531.84
460.23	8370.05
460.44	8671.10
460.65	8730.49
460.85	8611.71
461.06	8769.40
461.27	8624.00
461.48	8789.88
461.69	8890.23
461.89	8664.96
462.10	8900.47
462.31	8439.68
462.52	8597.37
462.73	8957.82
462.94	9140.08
463.14	9084.79
463.35	9041.78
463.56	9465.71
463.77	9287.54
463.98	9195.38
464.18	9412.46
464.39	9541.49
464.60	9576.30
464.81	9449.33
465.02	9535.34
465.23	9895.78
465.43	9365.36
465.64	9750.38
465.85	9596.78
466.06	9774.95
466.27	9830.25
466.47	9887.59
466.68	9932.65
466.89	9928.55
467.10	10012.52
467.30	9852.78
467.51	10254.18
467.72	10381.15
467.93	10174.31
468.14	10248.04
468.34	10579.81
468.55	10362.72
468.76	10508.13
468.97	10440.54
469.17	10807.13
469.38	10729.31
469.59	10899.29
469.80	10620.77
470.01	10987.35
470.21	10833.75
470.42	11116.37
470.63	11050.84
470.84	10999.64
471.04	11210.58
471.25	11112.28
471.46	11306.84
471.67	11396.95
471.87	11485.01
472.08	11493.20
472.29	11718.48
472.50	11255.64
472.70	11458.39
472.91	11722.57
473.12	11884.36
473.33	11880.27
473.53	12265.28
473.74	11896.65
473.95	12142.41
474.16	12394.31
474.36	12414.79
474.57	12437.31
474.78	12443.46
474.99	12486.47
475.19	12377.92
475.40	12726.08
475.61	12812.09
475.81	12851.00
476.02	12937.02
476.23	13088.57
476.44	13248.31
476.64	13238.07
476.85	13629.23
477.06	13532.98
477.27	13662.00
477.47	13752.11
477.68	13502.26
477.89	13846.32
478.09	13819.69
478.30	13838.12
478.51	13932.33
478.71	14186.28
478.92	14001.96
479.13	14360.36
479.34	14343.97
479.54	14595.87
479.75	14511.91
479.96	14667.55
480.16	14741.28
480.37	14716.70
480.58	14870.30
480.78	15019.80
480.99	14999.32
481.20	14882.59
481.41	15290.13
481.61	15286.04
481.82	15484.69
482.03	15392.53
482.23	15449.88
482.44	15599.38
482.65	15798.03
482.85	16025.36
483.06	15658.77
483.27	15752.98
483.47	16029.45
483.68	16041.74
483.89	16432.90
484.09	16217.86
484.30	16475.91
484.51	16590.59
484.71	16506.63
484.92	16676.61
485.13	16989.95
485.33	16869.12
485.54	16791.30
485.75	17172.22
485.95	17305.34
486.16	17061.63
486.37	17207.03
486.57	17213.18
486.78	17286.90
486.98	17549.04
487.19	17829.62
487.40	17575.67
487.60	17696.50
487.81	18108.14
488.02	17819.38
488.22	17952.49
488.43	18083.56
488.64	18157.29
488.84	18243.31
489.05	18505.45
489.25	18296.55
489.46	18716.39
489.67	18599.65
489.87	18984.67
490.08	18960.09
490.29	18958.05
490.49	19384.02
490.70	19072.73
490.90	19381.98
491.11	19308.25
491.32	19605.20
491.52	19357.40
491.73	19433.18
491.94	19412.70
492.14	19508.95
492.35	19805.91
492.55	19777.23
492.76	19979.98
492.97	20137.68
493.17	20018.89
493.38	20446.92
493.58	20219.60
493.79	20547.27
494.00	20336.33
494.20	20416.20
494.41	20784.83
494.61	20797.12
494.82	20836.03
495.02	20772.55
495.23	20936.38
495.44	20774.60
495.64	21313.21
495.85	21233.34
496.05	21376.70
496.26	21348.03
496.47	21573.30
496.67	21425.85
496.88	21737.14
497.08	21399.23
497.29	21614.26
497.49	21837.49
497.70	21909.17
497.91	22005.42
498.11	22222.51
498.32	22257.32
498.52	22226.60
498.73	22539.94
498.93	22654.63
499.14	22732.45
499.34	22550.18
499.55	22716.07
499.76	22871.72
499.96	22791.84
500.17	23008.93
500.37	23049.89
500.58	23000.74
500.78	23152.29
500.99	23119.52
501.19	23561.88
501.40	23453.34
501.60	23158.43
501.81	23393.95
502.02	23733.91
502.22	23328.41
502.43	23781.01
502.63	24065.68
502.84	24067.73
503.04	23791.25
503.25	24237.71
503.45	23936.66
503.66	24194.70
503.86	24280.72
504.07	24594.06
504.27	24161.94
504.48	24544.91
504.68	24270.48
504.89	24518.28
505.09	24622.73
505.30	24542.86
505.50	24485.51
505.71	24927.88
505.91	24829.57
506.12	24944.26
506.32	25134.72
506.53	25128.58
506.73	25284.22
506.94	25155.20
507.14	25503.35
507.35	25065.09
507.55	25403.00
507.76	25785.97
507.96	25368.19
508.17	25675.38
508.37	25910.90
508.58	25671.29
508.78	26191.47
508.99	25894.52
509.19	25740.92
509.40	26332.78
509.60	25960.05
509.81	26222.19
510.01	26123.89
510.22	26250.86
510.42	26517.10
510.63	26480.24
510.83	26254.96
511.04	26351.21
511.24	26756.71
511.44	26392.17
511.65	26748.52
511.85	26609.26
512.06	26832.49
512.26	26857.06
512.47	26871.40
512.67	26809.96
512.88	26613.35
513.08	26936.93
513.29	27154.02
513.49	26867.30
513.69	26963.56
513.90	27561.56
514.10	27039.33
514.31	27121.25
514.51	27551.32
514.72	27336.29
514.92	27504.22
515.13	27539.04
515.33	27580.00
515.53	27876.95
515.74	27788.89
515.94	27473.50
516.15	27770.46
516.35	27414.11
516.56	28167.76
516.76	27756.12
516.96	27962.97
517.17	27833.94
517.37	28087.89
517.58	28343.89
517.78	28286.54
517.99	28251.73
518.19	28735.05
518.39	28745.29
518.60	28509.77
518.80	28390.99
519.01	28794.44
519.21	28964.42
519.41	28583.50
519.62	28870.22
519.82	29009.48
520.03	29058.63
520.23	29195.84
520.43	28862.02
520.64	29158.98
520.84	29443.65
521.05	29007.43
521.25	29496.89
521.45	29591.10
521.66	29449.79
521.86	29496.89
522.07	29443.65
522.27	29627.96
522.47	29431.36
522.68	29756.99
522.88	29736.51
523.08	30285.36
523.29	29814.33
523.49	29883.96
523.70	30045.75
523.90	30076.47
524.10	30477.87
524.31	30387.76
524.51	30029.37
524.71	30537.26
524.92	30424.62
525.12	30692.91
525.33	30768.68
525.53	30961.19
525.73	30772.78
525.94	30942.76
526.14	30963.24
526.34	30983.72
526.55	31258.15
526.75	31223.33
526.95	31440.42
527.16	31075.88
527.36	31696.41
527.56	31600.16
527.77	32026.14
527.97	31616.54
528.17	31929.88
528.38	31649.31
528.58	31911.45
528.78	32030.23
528.99	31991.32
529.19	32005.66
529.39	31698.46
529.60	32820.75
529.80	32564.75
530.00	32267.80
530.21	32429.59
530.41	32689.68
530.61	32744.97
530.82	32689.68
531.02	32615.95
531.22	33009.16
531.43	33013.26
531.63	33295.88
531.83	33101.32
532.04	33433.09
532.24	32970.25
532.44	33797.63
532.64	33443.33
532.85	34203.13
533.05	33445.38
533.25	33447.43
533.46	33695.23
533.66	34182.65
533.86	33920.51
534.07	34565.62
534.27	34125.30
534.47	34694.64
534.67	34475.51
534.88	34409.97
535.08	34387.44
535.28	34725.36
535.49	34825.71
535.69	34883.05
535.89	34932.20
536.09	34878.96
536.30	35317.22
536.50	35436.00
536.70	35319.27
536.91	35108.33
537.11	35292.65
537.31	35569.12
537.51	35612.13
537.72	35898.84
537.92	35995.10
538.12	36048.35
538.32	35511.78
538.53	36214.23
538.73	35964.38
538.93	36046.30
539.13	36160.98
539.34	35943.90
539.54	36357.59
539.74	36537.81
539.94	36693.46
540.15	36488.66
540.35	36756.94
540.55	36894.16
540.75	36820.43
540.96	36683.22
541.16	36726.22
541.36	36988.36
541.56	37060.04
541.77	37207.50
541.97	37234.12
542.17	37152.20
542.37	37053.90
542.58	37449.16
542.78	37246.41
542.98	37313.99
543.18	37612.99
543.38	37717.44
543.59	37647.81
543.79	37944.76
543.99	37959.10
544.19	38032.83
544.40	37795.26
544.60	38184.38
544.80	38024.64
545.00	38370.74
545.20	38397.37
545.41	37914.05
545.61	38120.89
545.81	38573.49
546.01	38901.17
546.21	38413.75
546.42	38679.99
546.62	38636.98
546.82	38485.43
547.02	39122.35
547.22	38946.22
547.43	38940.08
547.63	38712.75
547.83	39146.92
548.03	39024.04
548.23	39298.47
548.44	39091.63
548.64	39382.44
548.84	39400.87
549.04	39499.17
549.24	39511.46
549.45	39626.15
549.65	39779.74
549.85	39730.59
550.05	39884.19
550.25	39916.96
550.45	40119.71
550.66	40132.00
550.86	39800.22
551.06	39869.86
551.26	40031.65
551.46	40422.81
551.66	40109.47
551.87	39832.99
552.07	40773.01
552.27	40517.01
552.47	40813.97
552.67	40426.90
552.87	40342.94
553.07	41014.67
553.28	41006.48
553.48	40893.84
553.68	40775.06
553.88	40795.54
554.08	41237.90
554.28	40762.77
554.48	40883.60
554.69	41303.43
554.89	41293.19
555.09	41395.59
555.29	41325.96
555.49	41602.44
555.69	41340.30
555.89	41635.20
556.10	41817.47
556.30	41731.46
556.50	41887.10
556.70	41342.35
556.90	41727.36
557.10	41985.41
557.30	41676.16
557.50	41971.07
557.70	41940.35
557.91	42493.30
558.11	41999.74
558.31	42239.36
558.51	41981.31
558.71	42552.69
558.91	42452.34
559.11	42196.35
559.31	42149.24
559.51	42628.47
559.72	42597.75
559.92	42841.46
560.12	42798.45
560.32	42419.58
560.52	42595.70
560.72	42950.00
560.92	42704.24
561.12	42734.96
561.32	43330.92
561.52	42526.07
561.72	43490.66
561.93	42884.47
562.13	42888.56
562.33	42816.88
562.53	43605.35
562.73	43009.39
562.93	43070.83
563.13	43341.16
563.33	43287.92
563.53	43404.65
563.73	43126.13
563.93	43283.82
564.13	43670.89
564.33	43478.38
564.53	43431.27
564.74	43736.42
564.94	43087.21
565.14	43453.80
565.34	43482.47
565.54	43894.11
565.74	44272.99
565.94	44094.82
566.14	44129.63
566.34	43967.84
566.54	44080.48
566.74	44250.46
566.94	43967.84
567.14	44023.14
567.34	43894.11
567.54	44227.93
567.74	44131.68
567.94	44221.79
568.14	44377.43
568.34	44508.50
568.54	44275.04
568.74	44692.82
568.94	44449.11
569.14	44850.52
569.34	44944.72
569.54	44651.86
569.75	44148.06
569.95	44428.63
570.15	45376.84
570.35	44799.32
570.55	45247.82
570.75	45065.55
570.95	44969.30
571.15	45059.41
571.35	45053.26
571.55	45296.97
571.75	45301.07
571.95	45407.56
572.15	44741.97
572.35	45313.36
572.55	45143.38
572.75	44963.15
572.95	45344.08
573.15	45313.36
573.35	45469.00
573.55	45593.93
573.75	45677.90
573.95	45622.60
574.15	45239.63
574.35	45614.41
574.55	45751.62
574.75	45425.99
574.95	45235.53
575.15	45458.76
575.34	45929.80
575.54	45561.16
575.74	45804.87
575.94	45837.64
576.14	45751.62
576.34	45948.23
576.54	46554.43
576.74	46290.24
576.94	45944.13
577.14	46011.71
577.34	46538.04
577.54	46050.63
577.74	46210.37
577.94	46609.72
578.14	46167.36
578.34	46890.29
578.54	45831.49
578.74	46439.74
578.94	46921.01
579.14	46708.02
579.34	46331.20
579.54	46863.67
579.74	47084.85
579.94	46591.29
580.13	46728.50
580.33	46863.67
580.53	46654.78
580.73	46939.44
580.93	47002.93
581.13	47131.95
581.33	47127.86
581.53	47420.72
581.73	47195.44
581.93	47424.81
582.13	47125.81
582.33	47535.40
582.53	47273.26
582.73	47615.27
582.92	47449.39
583.12	47629.61
583.32	47273.26
583.52	47390.00
583.72	47625.51
583.92	47691.05
584.12	47551.79
584.32	48104.74
584.52	47727.91
584.72	47772.97
584.92	47842.60
585.11	48526.62
585.31	47959.33
585.51	48000.29
585.71	47600.94
585.91	48223.52
586.11	48280.86
586.31	47901.99
586.51	48133.41
586.71	47912.23
586.91	48608.54
587.10	48313.63
587.30	48383.26
587.50	48809.24
587.70	48233.76
587.90	48157.99
588.10	48555.29
588.30	48624.92
588.50	48753.94
588.69	48764.18
588.89	48846.10
589.09	48651.55
589.29	48669.98
589.49	48944.41
589.69	48631.07
589.89	49055.00
590.08	48784.66
590.28	48413.98
590.48	49018.13
590.68	48647.45
590.88	48729.37
591.08	49110.29
591.28	48469.28
591.47	49792.26
591.67	49087.76
591.87	49368.33
592.07	48995.60
592.27	49411.34
592.47	49800.46
592.67	49114.39
592.86	48893.21
593.06	49687.82
593.26	49536.27
593.46	49665.29
593.66	49270.03
593.86	49784.07
594.05	49771.78
594.25	50042.12
594.45	49569.04
594.65	49595.66
594.85	49325.33
595.05	49880.33
595.24	50437.37
595.44	49708.30
595.64	50035.97
595.84	50189.57
596.04	49833.22
596.23	50119.94
596.43	50111.75
596.63	49841.42
596.83	50117.89
597.03	50967.80
597.22	50521.34
597.42	50459.90
597.62	50113.80
597.82	50185.47
598.02	50494.72
598.21	50414.85
598.41	50658.56
598.61	50607.36
598.81	50642.17
599.01	50740.47
599.20	50461.95
599.40	50697.47
599.60	50857.21
599.80	50541.82
600.00	51191.03
600.19	50926.84
600.39	50820.34
600.59	51315.95
600.79	51608.81
600.98	50990.33
601.18	51180.79
601.38	51256.56
601.58	51582.19
601.78	51164.40
601.97	51277.04
602.17	51684.59
602.37	51508.46
602.57	51539.18
602.76	51901.67
602.96	51369.20
603.16	51563.76
603.36	51922.15
603.55	52051.17
603.75	51842.28
603.95	52012.26
604.15	51870.95
604.34	51504.37
604.54	51868.90
604.74	52028.65
604.94	52393.18
605.13	52139.24
605.33	51889.38
605.53	51660.01
605.73	52643.04
605.92	52172.00
606.12	52391.14
606.32	52485.34
606.52	52950.23
606.71	52706.52
606.91	52653.28
607.11	52491.49
607.30	52694.24
607.50	52856.03
607.70	52851.93
607.90	52798.68
608.09	52452.58
608.29	52888.79
608.49	52999.38
608.68	52915.42
608.88	52819.16
609.08	53109.97
609.28	52815.07
609.47	53040.34
609.67	53470.42
609.87	52839.64
610.06	53275.86
610.26	53079.25
610.46	53679.31
610.66	53138.65
610.85	53222.61
611.05	53245.14
611.25	53320.91
611.44	52782.30
611.64	53208.28
611.84	53464.27
612.03	52950.23
612.23	53646.54
612.43	53834.95
612.62	53560.53
612.82	53787.85
613.02	53322.96
613.21	53705.93
613.41	53615.82
613.61	53273.81
613.80	53548.24
614.00	53595.34
614.20	53824.71
614.39	53327.06
614.59	53765.32
614.79	53695.69
614.98	53920.97
615.18	53669.07
615.38	54027.46
615.57	53740.75
615.77	53525.71
615.97	54101.19
616.16	53884.11
616.36	54029.51
616.56	53607.63
616.75	54015.18
616.95	53335.25
617.15	53873.87
617.34	53486.80
617.54	53748.94
617.74	54072.52
617.93	54105.29
618.13	53890.25
618.32	54047.94
618.52	54172.87
618.72	54127.81
618.91	53990.60
619.11	53925.07
619.31	54054.09
619.50	53691.60
619.70	54076.61
619.90	54166.73
620.09	54039.75
620.29	54453.44
620.48	53736.65
620.68	54283.46
620.88	54283.46
621.07	54068.42
621.27	54111.43
621.46	54170.82
621.66	54156.49
621.86	54320.32
622.05	54021.32
622.25	54844.60
622.44	54371.52
622.64	53826.76
622.84	54582.46
623.03	54572.22
623.23	54197.44
623.42	54482.11
623.62	54344.90
623.82	54691.01
624.01	54203.59
624.21	54576.32
624.40	54367.43
624.60	54312.13
624.80	54242.50
624.99	54318.28
625.19	54187.21
625.38	54590.66
625.58	54547.65
625.77	54318.28
625.97	54938.81
626.17	54424.77
626.36	54682.81
626.56	54981.82
626.75	54170.82
626.95	54965.43
627.14	55018.68
627.34	54658.24
627.54	54541.50
627.73	54428.87
627.93	54547.65
628.12	54219.97
628.32	54758.59
628.51	54662.33
628.71	55151.80
628.90	54467.78
629.10	54779.07
629.30	54643.90
629.49	54850.75
629.69	54592.70
629.88	54924.47
630.08	55143.61
630.27	54840.51
630.47	54650.05
630.66	54230.21
630.86	55063.74
631.05	54752.44
631.25	55106.74
631.44	55061.69
631.64	54811.84
631.84	55121.08
632.03	55403.70
632.23	54930.62
632.42	55547.06
632.62	55088.31
632.81	54785.21
633.01	54957.24
633.20	55235.77
633.40	55284.92
633.59	55141.56
633.79	54828.22
633.98	54660.29
634.18	54875.32
634.37	55293.11
634.57	54977.72
634.76	55688.37
634.96	55473.33
635.15	55358.64
635.35	54873.27
635.54	55356.60
635.74	55442.61
635.93	55143.61
636.13	56077.48
636.32	55540.91
636.52	55086.26
636.71	55694.51
636.91	55393.46
637.10	55415.99
637.30	55411.89
637.49	55350.45
637.69	55366.84
637.88	56057.00
638.08	55114.94
638.27	55452.85
638.46	55469.23
638.66	55368.88
638.85	55764.14
639.05	55592.11
639.24	55536.82
639.44	55018.68
639.63	55698.61
639.83	55327.92
640.02	55571.63
640.22	55231.67
640.41	55778.48
640.61	55174.33
640.80	55887.02
640.99	55809.20
641.19	56218.79
641.38	55235.77
641.58	55520.43
641.77	55370.93
641.97	55624.88
642.16	55809.20
642.36	55950.51
642.55	56562.85
642.74	55872.68
642.94	56374.44
643.13	55559.34
643.33	56466.59
643.52	55862.44
643.72	55979.18
643.91	55973.03
644.10	56186.02
644.30	56538.27
644.49	55948.46
644.69	56048.81
644.88	55714.99
645.08	55796.91
645.27	55975.08
645.46	55794.86
645.66	56341.67
645.85	55923.88
646.05	56308.90
646.24	55782.57
646.43	55358.64
646.63	56284.33
646.82	56456.35
647.02	56042.66
647.21	56206.50
647.40	56200.36
647.60	56534.18
647.79	55874.73
647.99	55790.76
648.18	55964.84
648.37	56595.62
648.57	56396.96
648.76	56179.88
648.96	55948.46
649.15	56097.96
649.34	56644.77
649.54	56427.68
649.73	55811.24
649.92	56489.12
650.12	56538.27
650.31	56741.02
650.51	56677.54
650.70	56663.20
650.89	56636.58
651.09	57246.87
651.28	56452.26
651.47	56331.43
651.67	56384.68
651.86	56706.21
652.06	56114.34
652.25	56480.93
652.44	56386.72
652.64	56722.59
652.83	56313.00
653.02	56153.26
653.22	56081.58
653.41	56554.66
653.60	56087.72
653.80	56407.20
653.99	56147.11
654.18	56296.61
654.38	55696.56
654.57	56259.75
654.76	56593.57
654.96	56159.40
655.15	56222.89
655.34	55956.65
655.54	56132.78
655.73	56083.62
655.92	56601.76
656.12	56450.21
656.31	56571.04
656.50	56587.42
656.70	56333.48
656.89	56192.17
657.08	56628.38
657.28	56005.80
657.47	56534.18
657.66	56609.95
657.86	56186.02
658.05	56255.65
658.24	56415.40
658.43	56212.65
658.63	56626.34
658.82	56939.68
659.01	56800.41
659.21	56390.82
659.40	56882.33
659.59	56104.10
659.79	56534.18
659.98	56607.90
660.17	56781.98
660.36	56276.13
660.56	56220.84
660.75	56394.92
660.94	56458.40
661.14	56372.39
661.33	56124.58
661.52	55948.46
661.71	56671.39
661.91	56163.50
662.10	56167.59
662.29	56337.57
662.49	56292.52
662.68	56337.57
662.87	56677.54
663.06	56200.36
663.26	56407.20
663.45	56349.86
663.64	55850.16
663.83	56900.76
664.03	56513.70
664.22	56073.38
664.41	56431.78
664.60	56130.73
664.80	56708.25
664.99	56153.26
665.18	56548.51
665.37	56288.42
665.57	56624.29
665.76	55956.65
665.95	56177.83
666.14	56274.09
666.34	55870.64
666.53	55911.59
666.72	56026.28
666.91	55973.03
667.11	56007.85
667.30	55749.81
667.49	56220.84
667.68	56079.53
667.87	56251.56
668.07	55884.97
668.26	56061.10
668.45	55502.00
668.64	55907.50
668.84	56409.25
669.03	56296.61
669.22	56085.67
669.41	55882.92
669.60	55549.10
669.80	55956.65
669.99	56306.85
670.18	56059.05
670.37	56302.76
670.57	56411.30
670.76	56020.14
670.95	56140.97
671.14	55704.75
671.33	56165.54
671.53	56411.30
671.72	56124.58
671.91	55895.21
672.10	55633.07
672.29	55663.79
672.48	55620.78
672.68	56042.66
672.87	55581.87
673.06	55739.57
673.25	55657.65
673.44	55835.82
673.64	55391.41
673.83	55721.13
674.02	55137.46
674.21	55329.97
674.40	55661.74
674.59	55178.42
674.79	55571.63
674.98	55297.20
675.17	55465.14
675.36	55348.40
675.55	55590.06
675.74	55323.83
675.94	55325.88
676.13	55514.29
676.32	55268.53
676.51	55694.51
676.70	55844.01
676.89	55489.71
677.08	55434.42
677.28	54731.96
677.47	55805.10
677.66	55751.85
677.85	55026.87
678.04	55631.02
678.23	55768.24
678.42	55360.69
678.62	55307.44
678.81	55907.50
679.00	55223.48
679.19	55295.16
679.38	55200.95
679.57	55760.05
679.76	55088.31
679.96	55657.65
680.15	54846.65
680.34	54918.33
680.53	55090.36
680.72	55702.70
680.91	55346.36
681.10	55030.97
681.29	55555.25
681.48	55178.42
681.68	54785.21
681.87	54949.05
682.06	55301.30
682.25	54817.98
682.44	54619.33
682.63	55129.27
682.82	54850.75
683.01	54863.03
683.20	54621.37
683.39	55125.17
683.59	54633.66
683.78	54645.95
683.97	54394.05
684.16	54736.06
684.35	54424.77
684.54	54641.85
684.73	55012.54
684.92	54709.44
685.11	54584.51
685.30	54674.62
685.49	54748.35
685.69	54903.99
685.88	54469.82
686.07	54795.45
686.26	54789.31
686.45	55241.91
686.64	54742.20
686.83	54711.49
687.02	54498.50
687.21	54279.36
687.40	55041.21
687.59	54801.60
687.78	54574.27
687.97	54920.38
688.16	54559.94
688.35	54371.52
688.54	54252.74
688.74	54322.37
688.93	54461.63
689.12	54449.35
689.31	54291.65
689.50	54813.88
689.69	54105.29
689.88	54011.08
690.07	54510.78
690.26	54295.75
690.45	54494.40
690.64	54197.44
690.83	54166.73
691.02	53728.46
691.21	53796.04
691.40	54213.83
691.59	54375.62
691.78	54486.21
691.97	54273.22
692.16	54021.32
692.35	54480.06
692.54	54035.66
692.73	54121.67
692.92	54009.03
693.11	54011.08
693.30	53687.50
693.49	54240.45
693.68	54021.32
693.87	54131.91
694.06	53900.49
694.25	54252.74
694.44	53718.22
694.63	54248.64
694.82	54006.98
695.01	54006.98
695.20	53701.84
695.39	53497.04
695.58	53757.13
695.77	53658.83
695.96	53359.83
696.15	53636.30
696.34	53712.08
696.53	53593.29
696.72	53978.31
696.91	53611.73
697.10	53871.82
697.29	53421.26
697.48	54295.75
697.67	53576.91
697.86	53703.88
698.05	53542.10
698.24	53998.79
698.43	53435.60
698.62	53750.99
698.81	53492.94
699.00	53931.21
699.19	53101.78
699.38	53396.69
699.57	53198.04
699.76	53853.39
699.95	53451.98
700.14	53085.40
700.32	53421.26
700.51	53195.99
700.70	54283.46
700.89	53667.02
701.08	53155.03
701.27	53605.58
701.46	53533.90
701.65	52825.31
701.84	53009.62
702.03	53578.96
702.22	52831.45
702.41	52946.14
702.60	53185.75
702.79	53306.58
702.98	53169.36
703.17	52892.89
703.35	53144.79
703.54	52983.00
703.73	53128.41
703.92	52849.88
704.11	53228.76
704.30	52317.41
704.49	52514.01
704.68	53161.17
704.87	53044.44
705.06	52622.56
705.25	52706.52
705.43	52679.90
705.62	52919.51
705.81	53001.43
706.00	52692.19
706.19	52608.22
706.38	52434.14
706.57	52335.84
706.76	51977.45
706.95	52741.34
707.14	52380.90
707.32	52231.40
707.51	52313.31
707.70	52473.06
707.89	52520.16
708.08	52628.70
708.27	52571.36
708.46	52604.13
708.65	52278.50
708.84	52628.70
709.02	52804.83
709.21	52466.91
709.40	52315.36
709.59	52667.61
709.78	52036.84
709.97	52798.68
710.16	52315.36
710.34	52204.77
710.53	52409.57
710.72	52026.60
710.91	52233.44
711.10	52450.53
711.29	52352.23
711.48	52294.88
711.66	52585.69
711.85	52098.28
712.04	52073.70
712.23	51625.20
712.42	51997.93
712.61	52090.09
712.80	52362.46
712.98	52303.07
713.17	52036.84
713.36	51514.61
713.55	51932.39
713.74	51907.82
713.93	51868.90
714.11	52346.08
714.30	51799.27
714.49	51916.01
714.68	52278.50
714.87	51963.11
715.06	52329.70
715.24	52057.32
715.43	51651.82
715.62	51563.76
715.81	51387.63
716.00	52190.44
716.18	51576.04
716.37	51258.61
716.56	51361.01
716.75	52137.19
716.94	51516.65
717.12	51420.40
717.31	51522.80
717.50	51621.10
717.69	51180.79
717.88	51639.53
718.06	51045.62
718.25	51590.38
718.44	50734.33
718.63	51387.63
718.82	51100.92
719.00	51086.58
719.19	50967.80
719.38	51203.31
719.57	50543.87
719.76	50369.79
719.94	50543.87
720.13	50892.02
720.32	50765.05
720.51	50318.59
720.69	50777.34
720.88	50181.38
721.07	50717.95
721.26	49943.81
721.44	50105.60
721.63	50423.04
721.82	49949.96
722.01	50410.75
722.20	50468.09
722.38	50390.27
722.57	49673.48
722.76	49974.53
722.95	49878.28
723.13	49825.03
723.32	49741.06
723.51	49540.36
723.70	49583.37
723.88	49618.19
724.07	49796.36
724.26	49771.78
724.44	49151.25
724.63	49698.06
724.82	49579.28
725.01	49741.06
725.19	49767.69
725.38	49452.30
725.57	48993.56
725.76	49562.89
725.94	49167.63
726.13	49472.78
726.32	49124.63
726.51	48870.68
726.69	49376.53
726.88	49155.35
727.07	49132.82
727.25	49087.76
727.44	49181.97
727.63	48958.74
727.82	49444.11
728.00	49257.74
728.19	48815.38
728.38	49222.93
728.56	48776.47
728.75	49550.60
728.94	49124.63
729.12	49335.57
729.31	49329.42
729.50	49210.64
729.69	49091.86
729.87	49222.93
730.06	49122.58
730.25	48733.46
730.43	49136.91
730.62	49083.67
730.81	48997.65
730.99	49048.85
731.18	48848.15
731.37	48962.84
731.55	49331.47
731.74	48815.38
731.93	48864.53
732.11	48925.97
732.30	49026.32
732.49	48706.84
732.67	48942.36
732.86	48626.97
733.05	49069.33
733.23	48604.44
733.42	48954.64
733.61	48305.44
733.79	48755.99
733.98	49278.22
734.17	48807.19
734.35	48942.36
734.54	48727.32
734.73	49145.11
734.91	48725.27
735.10	48473.37
735.29	49007.89
735.47	48223.52
735.66	48694.55
735.84	48692.50
736.03	48549.15
736.22	48522.52
736.40	48131.36
736.59	48751.90
736.78	48282.91
736.96	48514.33
737.15	48471.32
737.33	48635.16
737.52	48393.50
737.71	48461.08
737.89	47990.05
738.08	48002.34
738.27	47879.46
738.45	48190.75
738.64	48282.91
738.82	48276.77
739.01	48342.30
739.20	47953.19
739.38	47893.80
739.57	48399.65
739.75	48264.48
739.94	47871.27
740.13	48375.07
740.31	47889.70
740.50	48039.20
740.68	47793.45
740.87	47889.70
741.06	47871.27
741.24	47764.78
741.43	47150.38
741.61	47727.91
741.80	47390.00
741.99	47236.40
742.17	47265.07
742.36	47490.35
742.54	47320.37
742.73	47568.17
742.91	47674.66
743.10	47484.20
743.29	47883.56
743.47	47875.37
743.66	47310.13
743.84	47510.83
744.03	47469.87
744.21	47047.99
744.40	47498.54
744.59	47117.62
744.77	47199.54
744.96	47134.00
745.14	47107.38
745.33	47203.63
745.51	46902.58
745.70	46652.73
745.88	47146.29
746.07	46787.89
746.26	47062.32
746.44	46769.46
746.63	46603.58
746.81	47052.08
747.00	46691.64
747.18	47086.90
747.37	46486.84
747.55	46607.67
747.74	46802.23
747.92	45927.75
748.11	46159.17
748.29	46341.44
748.48	46679.35
748.66	46308.67
748.85	46701.88
749.03	46392.64
749.22	46249.28
749.41	46196.03
749.59	46421.31
749.78	46005.57
749.96	45790.53
750.15	45890.88
750.33	45780.29
750.52	46099.78
750.70	46171.46
750.89	45749.57
751.07	45303.12
751.26	45307.21
751.44	45538.63
751.63	45878.60
751.81	45481.29
752.00	45380.94
752.18	45899.08
752.37	45108.56
752.55	45405.52
752.74	45696.33
752.92	45262.16
753.10	45458.76
753.29	45526.35
753.47	45045.07
753.66	45024.59
753.84	45456.71
754.03	44995.92
754.21	44774.74
754.40	45075.79
754.58	44817.75
754.77	45305.16
754.95	44774.74
755.14	44787.03
755.32	45043.02
755.51	44569.94
755.69	44608.86
755.88	44752.21
756.06	44725.59
756.24	44653.91
756.43	44643.67
756.61	44797.27
756.80	43971.94
756.98	44426.59
757.17	44238.17
757.35	44473.69
757.54	44021.09
757.72	44518.74
757.90	44363.10
758.09	43955.55
758.27	44043.62
758.46	43558.25
758.64	44184.93
758.83	44205.41
759.01	43851.11
759.19	43953.51
759.38	44090.72
759.56	44227.93
759.75	43720.04
759.93	43468.14
760.12	43742.56
760.30	43627.88
760.48	43595.11
760.67	43709.80
760.85	43636.07
761.04	43832.68
761.22	43279.72
761.40	43595.11
761.59	43085.17
761.77	43279.72
761.96	43265.39
762.14	43253.10
762.32	43455.85
762.51	42925.42
762.69	43093.36
762.88	43201.90
763.06	43277.68
763.24	42937.71
763.43	43232.62
763.61	43076.97
763.80	42626.42
763.98	42726.77
764.16	42933.62
764.35	42472.82
764.53	42012.03
764.72	42540.41
764.90	42610.04
765.08	42569.08
765.27	42282.36
765.45	41692.55
765.63	41973.12
765.82	42038.65
766.00	42581.37
766.18	42136.96
766.37	42214.78
766.55	41782.66
766.74	42079.61
766.92	42124.67
767.10	41866.63
767.29	41876.86
767.47	41452.94
767.65	41743.75
767.84	41727.36
768.02	41590.15
768.20	41418.12
768.39	41805.19
768.57	41692.55
768.75	41420.17
768.94	41506.18
769.12	41252.23
769.30	41328.01
769.49	41135.50
769.67	41258.38
769.85	40490.39
770.04	41213.32
770.22	40953.23
770.40	41020.81
770.59	40410.52
770.77	40994.19
770.95	40986.00
771.14	40480.15
771.32	40451.48
771.50	40660.37
771.69	40414.62
771.87	40908.18
772.05	40633.75
772.24	40058.27
772.42	40691.09
772.60	40080.80
772.78	40347.03
772.97	40045.98
773.15	40269.21
773.33	40533.40
773.52	39849.38
773.70	39878.05
773.88	40422.81
774.07	40154.52
774.25	39802.27
774.43	40480.15
774.61	40218.01
774.80	40400.28
774.98	40332.70
775.16	40125.85
775.34	39972.25
775.53	39871.90
775.71	40514.97
775.89	40578.45
776.08	39605.67
776.26	40179.10
776.44	40371.61
776.62	40230.30
776.81	40070.56
776.99	40478.10
777.17	40236.44
777.35	40396.18
777.54	40240.54
777.72	40132.00
777.90	40392.09
778.08	40603.03
778.27	40193.43
778.45	40498.58
778.63	40600.98
778.81	40271.26
779.00	40408.47
779.18	40533.40
779.36	40564.12
779.54	40248.73
779.73	40471.96
779.91	40578.45
780.09	40740.24
780.27	41039.25
780.46	40549.78
780.64	40883.60
780.82	40514.97
781.00	40572.31
781.19	40826.26
781.37	40693.14
781.55	40744.34
781.73	41305.48
781.91	40609.17
782.10	40295.83
782.28	40687.00
782.46	40822.16
782.64	40799.63
782.82	40500.63
783.01	40906.13
783.19	40969.61
783.37	41086.35
783.55	41043.34
783.74	40844.69
783.92	40781.20
784.10	41235.85
784.28	40922.51
784.46	40510.87
784.64	40736.15
784.83	40969.61
785.01	40861.07
785.19	41207.18
785.37	41219.47
785.55	40949.14
785.74	40574.36
785.92	40484.25
786.10	41014.67
786.28	40684.95
786.46	40787.35
786.64	40299.93
786.83	40535.45
787.01	40588.69
787.19	40750.48
787.37	40670.61
787.55	40965.52
787.74	40465.81
787.92	40367.51
788.10	40277.40
788.28	40220.06
788.46	40238.49
788.64	39892.38
788.82	40447.38
789.01	40205.72
789.19	40218.01
789.37	39910.82
789.55	40068.51
789.73	39990.69
789.91	39728.55
790.09	40015.26
790.28	39433.64
790.46	39525.80
790.64	39636.39
790.82	39695.78
791.00	39165.35
791.18	39163.31
791.36	39277.99
791.55	39407.01
791.73	39218.60
791.91	39011.76
792.09	39267.75
792.27	38866.35
792.45	38931.89
792.63	39065.00
792.81	38966.70
793.00	38540.72
793.18	38958.51
793.36	38208.95
793.54	38380.98
793.72	38538.68
793.90	38337.98
794.08	38514.10
794.26	38450.61
794.44	37854.65
794.62	38012.35
794.81	38294.97
794.99	37840.32
795.17	37793.22
795.35	37557.70
795.53	38462.90
795.71	38198.71
795.89	37516.74
796.07	37510.60
796.25	37189.06
796.43	37418.44
796.61	37127.63
796.80	36953.55
796.98	36924.88
797.16	36967.88
797.34	37039.56
797.52	36902.35
797.70	37238.22
797.88	36855.25
798.06	36492.76
798.24	36550.10
798.42	36552.15
798.60	36312.53
798.78	36150.74
798.96	36437.46
799.14	35952.09
799.32	36423.12
799.51	36165.08
799.69	36281.81
799.87	36097.50
800.05	35683.81
800.23	36101.59
800.41	35999.19
800.59	35948.00
800.77	36050.39
800.95	35087.85
801.13	35462.63
801.31	35233.25
801.49	35268.07
801.67	35065.32
801.85	35436.00
802.03	34713.07
802.21	34899.44
802.39	34639.34
802.57	35202.53
802.75	34618.86
802.93	34577.90
803.11	34670.06
803.29	34229.75
803.47	34493.94
803.65	34616.82
803.83	34313.72
804.01	34381.30
804.19	34203.13
804.37	34403.83
804.55	34027.00
804.73	33676.80
804.91	34186.74
805.09	33955.32
805.27	33666.56
805.45	33859.07
805.63	33949.18
805.81	33461.76
805.99	33891.83
806.17	33910.27
806.35	33822.20
806.53	33259.01
806.71	33410.56
806.89	33242.63
807.07	33564.16
807.25	33787.39
807.43	33228.29
807.61	33396.23
807.79	32894.47
807.97	32654.86
808.15	32632.33
808.33	32855.56
808.51	32587.28
808.69	32724.49
808.87	32251.41
809.05	32591.37
809.23	32273.94
809.41	32163.35
809.59	32071.19
809.77	32419.35
809.95	32388.63
810.13	32513.55
810.31	32089.62
810.49	32206.36
810.67	32040.47
810.84	32220.69
811.02	31974.94
811.20	31600.16
811.38	31972.89
811.56	31589.92
811.74	31661.60
811.92	31591.97
812.10	31839.77
812.28	31764.00
812.46	31417.89
812.64	31755.80
812.82	31110.69
813.00	31557.15
813.18	31659.55
813.36	31227.43
813.53	31098.41
813.71	31440.42
813.89	31073.83
814.07	31034.92
814.25	31270.43
814.43	31104.55
814.61	30914.09
814.79	30928.42
814.97	30637.61
815.15	30791.21
815.33	30453.30
815.50	30645.80
815.68	30701.10
815.86	30674.48
816.04	30381.62
816.22	30410.29
816.40	30645.80
816.58	30027.32
816.76	30262.83
816.94	30002.74
817.11	29984.31
817.29	30342.70
817.47	29976.12
817.65	29873.72
817.83	30094.90
818.01	29865.53
818.19	29986.36
818.37	29740.60
818.54	29914.68
818.72	29822.52
818.90	29685.31
819.08	29828.66
819.26	29625.92
819.44	29769.27
819.62	29568.57
819.80	29490.75
819.97	29304.38
820.15	29230.66
820.33	29206.08
820.51	29390.40
820.69	29146.69
820.87	29230.66
821.05	29095.49
821.22	29279.81
821.40	29435.45
821.58	28995.14
821.76	28984.90
821.94	28745.29
822.12	29087.30
822.29	29152.84
822.47	28821.06
822.65	28999.24
822.83	28755.53
823.01	28722.76
823.19	28741.19
823.36	28218.96
823.54	28954.18
823.72	28386.89
823.90	28745.29
824.08	28696.14
824.25	28536.40
824.43	28628.56
824.61	28386.89
824.79	28700.23
824.97	28243.54
825.15	28286.54
825.32	28337.74
825.50	28137.04
825.68	28180.05
825.86	28069.46
826.04	28302.93
826.21	28196.43
826.39	28046.93
826.57	27831.90
826.75	27891.29
826.93	28147.28
827.10	28024.40
827.28	28153.43
827.46	28005.97
827.64	27670.11
827.81	27645.53
827.99	27997.78
828.17	27686.49
828.35	27444.83
828.53	27516.51
828.70	27360.86
828.88	27723.35
829.06	27278.94
829.24	27778.65
829.41	26996.32
829.59	27543.13
829.77	27217.50
829.95	27518.56
830.12	27272.80
830.30	27453.02
830.48	27037.28
830.66	27176.55
830.84	27479.64
831.01	27358.81
831.19	27285.09
831.37	27254.37
831.55	27051.62
831.72	26803.82
831.90	27111.01
832.08	27014.76
832.25	26664.55
832.43	26734.18
832.61	26885.73
832.79	26676.84
832.96	26904.17
833.14	26691.18
833.32	26775.14
833.50	26789.48
833.67	26594.92
833.85	26375.79
834.03	26246.77
834.20	26584.68
834.38	26453.61
834.56	26840.68
834.74	26084.98
834.91	26769.00
835.09	26383.98
835.27	26273.39
835.44	26347.12
835.62	25861.75
835.80	25804.41
835.98	26302.06
836.15	26144.37
836.33	26250.86
836.51	26123.89
836.68	25622.14
836.86	26300.01
837.04	26074.74
837.21	26230.38
837.39	26064.50
837.57	26347.12
837.75	26089.07
837.92	25790.07
838.10	25855.61
838.28	25577.08
838.45	25855.61
838.63	25618.04
838.81	25730.68
838.98	25753.21
839.16	25708.15
839.34	25685.62
839.51	25532.03
839.69	25218.69
839.87	25437.82
840.04	25255.55
840.22	25583.23
840.40	25273.98
840.57	25587.32
840.75	25060.99
840.93	25022.08
841.10	25206.40
841.28	25689.72
841.46	25003.65
841.63	25220.74
841.81	25032.32
841.98	24999.55
842.16	24950.40
842.34	25435.77
842.51	24841.86
842.69	25331.33
842.87	24948.36
843.04	25034.37
843.22	25022.08
843.40	24899.20
843.57	24940.16
843.75	24895.11
843.92	24761.99
844.10	24684.17
844.28	25032.32
844.45	24862.34
844.63	25034.37
844.81	24424.08
844.98	24561.29
845.16	24696.46
845.33	24766.09
845.51	24630.92
845.69	24551.05
845.86	24458.89
846.04	24354.44
846.21	24542.86
846.39	24245.90
846.57	24323.72
846.74	24487.56
846.92	24215.18
847.09	24045.20
847.27	24061.58
847.45	24299.15
847.62	24260.24
847.80	24213.13
847.97	24080.02
848.15	24045.20
848.32	23965.33
848.50	24045.20
848.68	23930.51
848.85	23764.63
849.03	24073.87
849.20	23721.62
849.38	23625.37
849.56	23877.27
849.73	23793.30
849.91	23695.00
850.08	23977.62
850.26	23471.77
850.43	23619.22
850.61	23471.77
850.78	23486.11
850.96	23676.57
851.14	23375.52
851.31	23643.80
851.49	23168.67
851.66	23469.72
851.84	23463.58
852.01	23463.58
852.19	23529.11
852.36	23289.50
852.54	23234.21
852.71	23322.27
852.89	23205.53
853.07	23361.18
853.24	23244.45
853.42	23168.67
853.59	23119.52
853.77	23027.36
853.94	23142.05
854.12	23254.69
854.29	23002.78
854.47	23180.96
854.64	23146.14
854.82	23146.14
854.99	22949.54
855.17	22890.15
855.34	22791.84
855.52	22816.42
855.69	23072.42
855.87	22523.56
856.04	22771.36
856.22	22716.07
856.39	22650.53
856.57	22587.05
856.74	22580.90
856.92	22646.44
857.09	22122.16
857.27	22748.84
857.44	22539.94
857.62	22419.11
857.79	22574.76
857.97	22265.52
858.14	22400.68
858.32	22408.87
858.49	22574.76
858.67	22306.48
858.84	22496.94
859.02	22464.17
859.19	22255.28
859.37	22193.84
859.54	22099.63
859.72	22333.10
859.89	21911.22
860.06	22034.10
860.24	22095.53
860.41	21927.60
860.59	21995.18
860.76	21714.61
860.94	21671.61
861.11	21685.94
861.29	21790.39
861.46	21943.99
861.64	21651.13
861.81	21610.17
861.98	21513.91
862.16	21589.69
862.33	21622.45
862.51	21431.99
862.68	21880.50
862.86	21401.27
863.03	21286.59
863.21	21462.71
863.38	21493.43
863.55	21360.31
863.73	21196.48
863.90	21018.30
864.08	21526.20
864.25	21405.37
864.43	21405.37
864.60	21184.19
864.77	21259.96
864.95	21030.59
865.12	20928.19
865.30	21141.18
865.47	20809.41
865.64	20997.82
865.82	21075.65
865.99	21169.85
866.17	20809.41
866.34	20833.99
866.51	20864.71
866.69	20895.43
866.86	20772.55
867.04	20874.95
867.21	20932.29
867.38	20784.83
867.56	20467.40
867.73	20520.65
867.91	20455.11
868.08	20432.58
868.25	20463.30
868.43	20252.36
868.60	20645.57
868.78	20381.38
868.95	20491.98
869.12	20090.57
869.30	20094.67
869.47	20326.09
869.64	20162.25
869.82	19924.69
869.99	20160.20
870.16	20477.64
870.34	20162.25
870.51	20496.07
870.69	19984.08
870.86	19996.37
871.03	20391.62
871.21	19625.68
871.38	20266.70
871.55	19873.49
871.73	20072.14
871.90	19498.71
872.07	19730.13
872.25	19463.90
872.42	19689.17
872.59	19367.64
872.77	19613.40
872.94	19646.16
873.11	19377.88
873.29	19590.87
873.46	19492.57
873.63	19402.46
873.81	19357.40
873.98	19222.23
874.15	19191.52
874.33	19111.64
874.50	19197.66
874.67	19078.88
874.85	19078.88
875.02	18765.54
875.19	18890.46
875.37	18718.43
875.54	18562.79
875.71	18829.02
875.88	18706.15
876.06	18925.28
876.23	18730.72
876.40	18783.97
876.58	18679.52
876.75	18517.73
876.92	18437.86
877.10	18665.19
877.27	18460.39
877.44	18335.46
877.61	18073.32
877.79	18368.23
877.96	18390.76
878.13	18185.96
878.31	18001.65
878.48	18245.35
878.65	17932.01
878.82	18079.47
879.00	18108.14
879.17	18194.15
879.34	18134.76
879.51	17981.17
879.69	17884.91
879.86	17809.14
880.03	18081.52
880.21	17874.67
880.38	17866.48
880.55	17737.46
880.72	17762.03
880.90	17966.83
881.07	17792.75
881.24	17692.40
881.41	17547.00
881.59	17571.57
881.76	17643.25
881.93	17712.88
882.10	17585.91
882.28	17319.67
882.45	17317.62
882.62	17297.14
882.79	17450.74
882.96	17039.10
883.14	17200.89
883.31	17467.13
883.48	17112.83
883.65	17153.79
883.83	17260.28
884.00	17098.49
884.17	17104.64
884.34	17227.51
884.51	16996.09
884.69	17053.44
884.86	17200.89
885.03	16971.52
885.20	16697.09
885.38	17243.90
885.55	16922.37
885.72	17155.83
885.89	16856.83
886.06	17018.62
886.24	16897.79
886.41	16645.89
886.58	16768.77
886.75	17204.99
886.92	16992.00
887.10	16803.58
887.27	16717.57
887.44	16910.08
887.61	16858.88
887.78	16566.02
887.95	16598.79
888.13	16262.92
888.30	16539.40
888.47	16613.12
888.64	16504.58
888.81	16348.93
888.99	16598.79
889.16	16240.39
889.33	16224.01
889.50	16312.07
889.67	16201.48
889.84	15998.73
890.01	16252.68
890.19	16103.18
890.36	16301.83
890.53	16144.14
890.70	16015.12
890.87	16056.08
891.04	16066.31
891.22	16021.26
891.39	16113.42
891.56	15914.77
891.73	15861.52
891.90	15910.67
892.07	15720.21
892.24	15644.43
892.42	15630.10
892.59	15765.26
892.76	15544.08
892.93	15568.66
893.10	15675.15
893.27	15666.96
893.44	15474.45
893.61	15589.14
893.79	15666.96
893.96	15501.08
894.13	15802.13
894.30	15838.99
894.47	15591.19
894.64	15552.27
894.81	15531.80
894.98	15707.92
895.15	15669.01
895.33	15341.33
895.50	15417.11
895.67	15650.58
895.84	15490.84
896.01	15578.90
896.18	15357.72
896.35	15503.12
896.52	15431.44
896.69	15310.61
896.86	15562.51
897.04	15320.85
897.21	15374.10
897.38	15402.77
897.55	15132.44
897.72	15347.48
897.89	15257.37
898.06	15378.20
898.23	15167.26
898.40	15339.29
898.57	15335.19
898.74	15202.07
898.91	15116.06
899.08	15085.34
899.26	15447.83
899.43	15341.33
899.60	15304.47
899.77	15347.48
899.94	15353.62
900.11	15134.49
900.28	15218.46
900.45	15363.86
900.62	15200.02
900.79	15451.92
900.96	15062.81
901.13	14944.03
901.30	15044.38
901.47	14941.98
901.64	15185.69
901.81	15245.08
901.98	14888.73
902.15	15281.94
902.32	15171.35
902.49	15015.71
902.66	15107.87
902.83	15193.88
903.01	15091.48
903.18	14980.89
903.35	15212.31
903.52	15191.83
903.69	15374.10
903.86	15011.61
904.03	15003.42
904.20	15064.86
904.37	15159.06
904.54	15126.30
904.71	14901.02
904.88	14982.94
905.05	15040.28
905.22	15173.40
905.39	15005.47
905.56	14987.04
905.73	14989.08
905.90	15091.48
906.07	15019.80
906.24	14935.84
906.41	15075.10
906.58	15030.04
906.75	15083.29
906.92	14829.34
907.09	14774.05
907.26	15195.93
907.43	14724.90
907.60	15015.71
907.77	15013.66
907.93	14980.89
908.10	14747.42
908.27	15195.93
908.44	14782.24
908.61	14726.94
908.78	14907.16
908.95	14761.76
909.12	14712.61
909.29	14821.15
909.46	15044.38
909.63	14999.32
909.80	14780.19
909.97	14671.65
910.14	14892.83
910.31	14724.90
910.48	14901.02
910.65	14917.40
910.82	14858.01
910.99	14802.72
911.16	14591.78
911.33	14681.89
911.50	14386.98
911.66	14630.69
911.83	14624.54
912.00	14511.91
912.17	14503.71
912.34	14606.11
912.51	14616.35
912.68	14176.04
912.85	14487.33
913.02	14366.50
913.19	13989.67
913.36	14386.98
913.53	14335.78
913.70	14182.18
913.86	14319.40
914.03	14270.25
914.20	14204.71
914.37	14286.63
914.54	14171.94
914.71	14110.50
914.88	14071.59
915.05	14122.79
915.22	13940.52
915.39	14090.02
915.55	14100.26
915.72	13766.45
915.89	13928.24
916.06	13752.11
916.23	13834.03
916.40	13727.53
916.57	13635.38
916.74	13692.72
916.91	13643.57
917.07	13600.56
917.24	13702.96
917.41	13737.77
917.58	13592.37
917.75	13608.75
917.92	13395.76
918.09	13516.59
918.26	13420.34
918.42	13618.99
918.59	13406.00
918.76	13211.45
918.93	13289.27
919.10	13010.75
919.27	13256.50
919.44	13541.17
919.60	13268.79
919.77	12928.83
919.94	12934.97
920.11	13031.23
920.28	13000.51
920.45	12898.11
920.61	12963.64
920.78	12717.89
920.95	12730.17
921.12	12838.72
921.29	12566.34
921.46	12470.08
921.62	12463.94
921.79	12640.06
921.96	12609.34
922.13	12570.43
922.30	12355.40
922.47	12529.47
922.63	12330.82
922.80	12459.84
922.97	12214.09
923.14	12031.82
923.31	12113.74
923.47	11978.57
923.64	12142.41
923.81	12046.15
923.98	12173.13
924.15	11880.27
924.32	12046.15
924.48	11925.32
924.65	12095.30
924.82	11751.24
924.99	11693.90
925.15	11595.60
925.32	11915.08
925.49	11341.65
925.66	11794.25
925.83	11673.42
925.99	11292.50
926.16	11427.67
926.33	11501.39
926.50	11417.43
926.67	11376.47
926.83	11552.59
927.00	11218.77
927.17	11343.70
927.34	10958.68
927.50	10946.39
927.67	11069.27
927.84	11091.80
928.01	10868.57
928.17	10915.67
928.34	10899.29
928.51	10930.01
928.68	10805.08
928.84	10729.31
929.01	10690.40
929.18	10571.61
929.35	10588.00
929.51	10569.57
929.68	10356.58
929.85	10557.28
930.02	10438.50
930.18	10444.64
930.35	10336.10
930.52	10364.77
930.69	10217.32
930.85	10213.22
931.02	10086.25
931.19	10227.56
931.36	10098.53
931.52	10213.22
931.69	10137.45
931.86	10137.45
932.02	9856.87
932.19	9846.63
932.36	9875.31
932.53	9793.39
932.69	9662.32
932.86	9848.68
933.03	9697.13
933.19	9617.26
933.36	9580.40
933.53	9496.43
933.70	9711.47
933.86	9592.69
934.03	9473.90
934.20	9267.06
934.36	9408.37
934.53	9144.18
934.70	9025.40
934.86	8996.73
935.03	8806.27
935.20	9031.54
935.36	8746.87
935.53	8730.49
935.70	8791.93
935.86	8802.17
936.03	8517.50
936.20	8546.17
936.36	8576.89
936.53	8300.42
936.70	8400.77
936.86	8572.80
937.03	8157.06
937.20	8046.47
937.36	8130.44
937.53	7778.19
937.70	7944.07
937.86	7708.55
938.03	7700.36
938.20	7913.35
938.36	7509.90
938.53	7516.05
938.70	7344.02
938.86	7325.58
939.03	7370.64
939.20	7176.08
939.36	7022.48
939.53	7106.45
939.70	7280.53
939.86	6801.30
940.03	6819.74
940.19	6766.49
940.36	6707.10
940.53	6604.70
940.69	6463.39
940.86	6504.35
941.03	6469.53
941.19	6344.61
941.36	6324.13
941.52	6215.59
941.69	6258.59
941.86	6121.38
942.02	6180.77
942.19	6117.28
942.35	6135.71
942.52	5924.77
942.69	5801.90
942.85	5742.50
943.02	5857.19
943.18	5818.28
943.35	5756.84
943.52	5742.50
943.68	5685.16
943.85	5595.05
944.01	5656.49
944.18	5427.12
944.35	5709.74
944.51	5431.21
944.68	5324.72
944.84	5384.11
945.01	5351.34
945.17	5361.58
945.34	5361.58
945.51	5341.10
945.67	5402.54
945.84	5253.04
946.00	5230.51
946.17	5326.77
946.33	5207.98
946.50	5298.10
946.67	5248.94
946.83	5205.94
947.00	5406.64
947.16	5318.57
947.33	5197.74
947.49	5259.18
947.66	5236.66
947.82	5193.65
947.99	5156.79
948.16	5269.42
948.32	5185.46
948.49	5218.22
948.65	5306.29
948.82	5195.70
948.98	5126.07
949.15	5177.26
949.31	5199.79
949.48	5248.94
949.64	5124.02
949.81	5234.61
949.97	5167.03
950.14	5308.34
950.30	5265.33
950.47	5248.94
950.63	5250.99
950.80	5294.00
950.96	5138.35
951.13	5183.41
951.30	5334.96
951.46	5265.33
951.63	5298.10
951.79	5162.93
951.96	5375.92
952.12	5328.81
952.29	5230.51
952.45	5316.53
952.62	5179.31
952.78	5347.25
952.94	5287.86
953.11	5351.34
953.27	5121.97
953.44	5398.45
953.60	5447.60
953.77	5394.35
953.93	5404.59
954.10	5390.25
954.26	5330.86
954.43	5343.15
954.59	5392.30
954.76	5484.46
954.92	5263.28
955.09	5384.11
955.25	5423.02
955.42	5404.59
955.58	5550.00
955.75	5312.43
955.91	5445.55
956.07	5334.96
956.24	5588.91
956.40	5431.21
956.57	5404.59
956.73	5392.30
956.90	5341.10
957.06	5341.10
957.23	5230.51
957.39	5355.44
957.56	5423.02
957.72	5373.87
957.88	5341.10
958.05	5523.37
958.21	5519.28
958.38	5261.23
958.54	5451.69
958.71	5375.92
958.87	5377.97
959.03	5382.06
959.20	5564.33
959.36	5334.96
959.53	5472.17
959.69	5349.29
959.85	5394.35
960.02	5291.95
960.18	5187.50
960.35	5296.05
960.51	5484.46
960.68	5476.27
960.84	5355.44
961.00	5386.16
961.17	5429.17
961.33	5490.60
961.50	5392.30
961.66	5207.98
961.82	5369.77
961.99	5457.84
962.15	5361.58
962.31	5423.02
962.48	5384.11
962.64	5441.45
962.81	5433.26
962.97	5394.35
963.13	5410.73
963.30	5298.10
963.46	5259.18
963.62	5318.57
963.79	5306.29
963.95	5216.18
964.12	5234.61
964.28	5300.14
964.44	5377.97
964.61	5343.15
964.77	5337.01
964.93	5396.40
965.10	5287.86
965.26	5300.14
965.42	5169.07
965.59	5402.54
965.75	5275.57
965.92	5230.51
966.08	5291.95
966.24	5271.47
966.41	5283.76
966.57	5337.01
966.73	5298.10
966.90	5226.42
967.06	5130.16
967.22	5238.70
967.39	5281.71
967.55	5195.70
967.71	5263.28
967.88	5132.21
968.04	5205.94
968.20	5115.83
968.37	5060.53
968.53	5064.63
968.69	5218.22
968.85	5160.88
969.02	5150.64
969.18	5238.70
969.34	5154.74
969.51	5115.83
969.67	5132.21
969.83	4964.28
970.00	5291.95
970.16	5078.96
970.32	5062.58
970.48	5169.07
970.65	5046.20
970.81	5115.83
970.97	4925.36
971.14	4890.55
971.30	5255.09
971.46	4894.65
971.63	4931.51
971.79	5146.55
971.95	4986.80
972.11	4933.56
972.28	4913.08
972.44	4986.80
972.60	4843.45
972.76	4925.36
972.93	4915.12
973.09	4954.04
973.25	4947.89
973.42	4945.84
973.58	5003.19
973.74	4939.70
973.90	4974.52
974.07	4814.77
974.23	4779.96
974.39	4775.86
974.55	4753.34
974.72	4853.69
974.88	4657.08
975.04	4822.97
975.20	4677.56
975.37	4892.60
975.53	4581.31
975.69	4870.07
975.85	4716.47
976.01	4652.98
976.18	4695.99
976.34	4704.18
976.50	4849.59
976.66	4808.63
976.83	4765.62
976.99	4538.30
977.15	4673.46
977.31	4534.20
977.47	4720.57
977.64	4751.29
977.80	4593.59
977.96	4669.37
978.12	4583.35
978.29	4607.93
978.45	4466.62
978.61	4450.24
978.77	4503.48
978.93	4456.38
979.10	4423.61
979.26	4489.15
979.42	4480.96
979.58	4433.85
979.74	4468.67
979.91	4655.03
980.07	4392.89
980.23	4370.37
980.39	4472.76
980.55	4532.15
980.71	4487.10
980.88	4493.24
981.04	4345.79
981.20	4331.45
981.36	4419.52
981.52	4343.74
981.68	4267.97
981.85	4450.24
982.01	4345.79
982.17	4378.56
982.33	4251.58
982.49	4343.74
982.65	4337.60
982.82	4298.69
982.98	4300.73
983.14	4222.91
983.30	4358.08
983.46	4255.68
983.62	4190.14
983.79	4288.45
983.95	4243.39
984.11	4204.48
984.27	4333.50
984.43	4188.10
984.59	4110.27
984.75	4122.56
984.91	4091.84
985.08	4194.24
985.24	4042.69
985.40	4108.23
985.56	4073.41
985.72	4081.60
985.88	4083.65
986.04	4089.79
986.20	4075.46
986.37	4136.90
986.53	4026.31
986.69	4165.57
986.85	4022.21
987.01	4067.27
987.17	4196.29
987.33	3952.58
987.49	4022.21
987.65	3944.39
987.82	4044.74
987.98	3913.67
988.14	3979.20
988.30	3919.81
988.46	3950.53
988.62	3958.72
988.78	3983.30
988.94	3987.40
989.10	3901.38
989.26	3911.62
989.42	3872.71
989.59	3782.60
989.75	3729.35
989.91	3925.96
990.07	3745.73
990.23	3782.60
990.39	3694.54
990.55	3880.90
990.71	3780.55
990.87	3817.41
991.03	3907.52
991.19	3739.59
991.35	3801.03
991.51	3776.45
991.67	3893.19
991.83	3731.40
992.00	3780.55
992.16	3721.16
992.32	3772.36
992.48	3766.21
992.64	3637.19
992.80	3715.02
992.96	3602.38
993.12	3706.82
993.28	3825.61
993.44	3669.96
993.60	3682.25
993.76	3608.52
993.92	3667.91
994.08	3764.17
994.24	3665.86
994.40	3547.08
994.56	3608.52
994.72	3497.93
994.88	3633.10
995.04	3657.67
995.20	3610.57
995.36	3641.29
995.52	3549.13
995.68	3569.61
995.84	3473.36
996.00	3682.25
996.16	3561.42
996.32	3471.31
996.48	3538.89
996.64	3592.14
996.80	3411.92
996.96	3502.03
997.12	3393.48
997.28	3403.72
997.44	3461.07
997.60	3389.39
997.76	3493.83
997.92	3424.20
998.08	3334.09
998.24	3282.89
998.40	3385.29
998.56	3512.27
998.72	3428.30
998.88	3381.20
999.04	3358.67
999.20	3401.68
999.36	3286.99
999.52	3481.55
999.68	3297.23
999.84	3344.33
1000.00	3327.95
1000.16	3358.67
1000.32	3246.03
1000.48	3454.92
1000.64	3121.10
1000.80	3266.51
1000.95	3241.93
1001.11	3276.75
1001.27	3151.82
1001.43	3147.73
1001.59	3190.74
1001.75	3131.34
1001.91	3143.63
1002.07	3030.99
1002.23	3182.54
1002.39	3123.15
1002.55	3151.82
1002.71	3166.16
1002.87	3219.41
1003.03	3110.86
1003.19	3143.63
1003.34	3203.02
1003.50	3198.93
1003.66	3088.34
1003.82	3157.97
1003.98	3071.95
1004.14	3125.20
1004.30	3117.01
1004.46	2979.79
1004.62	2957.27
1004.78	3012.56
1004.94	3096.53
1005.09	3104.72
1005.25	3053.52
1005.41	2965.46
1005.57	3071.95
1005.73	2961.36
1005.89	2963.41
1006.05	2998.23
1006.21	2990.03
1006.37	2873.30
1006.52	3024.85
1006.68	2932.69
1006.84	3141.58
1007.00	2957.27
1007.16	2998.23
1007.32	2942.93
1007.48	2899.92
1007.64	2959.31
1007.79	2889.68
1007.95	2922.45
1008.11	3010.51
1008.27	2846.68
1008.43	2977.75
1008.59	2865.11
1008.75	2926.55
1008.91	2990.03
1009.06	2781.14
1009.22	2869.20
1009.38	2914.26
1009.54	2813.91
1009.70	2795.48
1009.86	2801.62
1010.01	2828.24
1010.17	2793.43
1010.33	2768.85
1010.49	2822.10
1010.65	2891.73
1010.81	2680.79
1010.96	2822.10
1011.12	2789.33
1011.28	2666.46
1011.44	2719.70
1011.60	2682.84
1011.76	2768.85
1011.91	2787.29
1012.07	2570.20
1012.23	2717.65
1012.39	2672.60
1012.55	2697.17
1012.71	2801.62
1012.86	2701.27
1013.02	2635.74
1013.18	2678.74
1013.34	2699.22
1013.50	2740.18
1013.65	2668.50
1013.81	2605.02
1013.97	2514.91
1014.13	2664.41
1014.29	2588.63
1014.44	2664.41
1014.60	2562.01
1014.76	2600.92
1014.92	2627.54
1015.07	2555.86
1015.23	2576.34
1015.39	2480.09
1015.55	2506.71
1015.71	2516.95
1015.86	2648.02
1016.02	2430.94
1016.18	2424.80
1016.34	2598.87
1016.49	2500.57
1016.65	2596.82
1016.81	2576.34
1016.97	2492.38
1017.12	2633.69
1017.28	2424.80
1017.44	2496.47
1017.60	2406.36
1017.75	2553.82
1017.91	2488.28
1018.07	2453.47
1018.23	2484.19
1018.38	2471.90
1018.54	2445.27
1018.70	2447.32
1018.86	2338.78
1019.01	2418.65
1019.17	2508.76
1019.33	2525.15
1019.49	2420.70
1019.64	2435.03
1019.80	2387.93
1019.96	2375.64
1020.12	2453.47
1020.27	2344.92
1020.43	2326.49
1020.59	2385.88
1020.74	2365.40
1020.90	2312.16
1021.06	2320.35
1021.22	2379.74
1021.37	2441.18
1021.53	2312.16
1021.69	2291.68
1021.84	2260.96
1022.00	2387.93
1022.16	2289.63
1022.31	2410.46
1022.47	2353.12
1022.63	2314.20
1022.79	2197.47
1022.94	2293.72
1023.10	2363.36
1023.26	2287.58
1023.41	2244.57
1023.57	2224.09
1023.73	2260.96
1023.88	2291.68
1024.04	2201.57
1024.20	2265.05
1024.35	2310.11
1024.51	2293.72
1024.67	2312.16
1024.82	2242.53
1024.98	2164.70
1025.14	2252.77
1025.29	2191.33
1025.45	2379.74
1025.61	2074.59
1025.76	2246.62
1025.92	2189.28
1026.08	2238.43
1026.23	2265.05
1026.39	2283.49
1026.55	2174.94
1026.70	2222.05
1026.86	2209.76
1027.02	2158.56
1027.17	2148.32
1027.33	2158.56
1027.48	2209.76
1027.64	2160.61
1027.80	2220.00
1027.95	2174.94
1028.11	2043.87
1028.27	2095.07
1028.42	2164.70
1028.58	2115.55
1028.73	2058.21
1028.89	2140.13
1029.05	2150.37
1029.20	2101.22
>>>>>End Processed Spectral Data<<<<<
