SpectraSuite Data File
++++++++++++++++++++++++++++++++++++
Date: Fri Jun 02 14:49:28 CEST 2017
User: INFO_000
Dark Spectrum Present: No
Reference Spectrum Present: No
Number of Sampled Component Spectra: 1
Spectrometers: USB4H00879
Integration Time (usec): 80000 (USB4H00879)
Spectra Averaged: 1 (USB4H00879)
Boxcar Smoothing: 0 (USB4H00879)
Correct for Electrical Dark: No (USB4H00879)
Strobe/Lamp Enabled: No (USB4H00879)
Correct for Detector Non-linearity: No (USB4H00879)
Correct for Stray Light: No (USB4H00879)
Number of Pixels in Processed Spectrum: 3648
>>>>>Begin Processed Spectral Data<<<<<
345.13	1267.69
345.34	1267.69
345.56	1267.69
345.78	1265.64
345.99	1279.98
346.21	1728.49
346.42	1724.39
346.64	1656.81
346.86	1798.12
347.07	1630.18
347.29	1679.33
347.50	1605.61
347.72	1722.34
347.94	1691.62
348.15	1617.90
348.37	1624.04
348.59	1710.05
348.80	1701.86
349.02	1726.44
349.23	1892.32
349.45	1812.45
349.67	1892.32
349.88	1753.06
350.10	1974.24
350.31	1804.26
350.53	1730.53
350.75	2021.35
350.96	1771.49
351.18	1877.99
351.39	1841.12
351.61	1796.07
351.82	1847.27
352.04	1859.56
352.26	1804.26
352.47	1898.47
352.69	1896.42
352.90	1785.83
353.12	1820.64
353.34	1820.64
353.55	1884.13
353.77	1871.84
353.98	1781.73
354.20	1804.26
354.41	1882.08
354.63	1939.43
354.85	2093.02
355.06	1906.66
355.28	1789.92
355.49	1923.04
355.71	1920.99
355.92	1880.04
356.14	1974.24
356.35	1841.12
356.57	1828.84
356.79	1931.23
357.00	1894.37
357.22	1994.72
357.43	1865.70
357.65	1927.14
357.86	1818.60
358.08	1888.23
358.29	1896.42
358.51	2031.58
358.72	1968.10
358.94	1949.67
359.16	1904.61
359.37	1978.34
359.59	2017.25
359.80	1994.72
360.02	1937.38
360.23	1886.18
360.45	1937.38
360.66	1933.28
360.88	1834.98
361.09	1964.00
361.31	1978.34
361.52	1996.77
361.74	2025.44
361.95	2033.63
362.17	1900.52
362.38	2133.98
362.60	2097.12
362.81	1947.62
363.03	1953.76
363.24	2031.58
363.46	2148.32
363.67	1906.66
363.89	1986.53
364.10	1970.15
364.32	2021.35
364.53	2039.78
364.75	1818.60
364.96	2076.64
365.18	2080.74
365.39	1968.10
365.61	2009.06
365.82	2107.36
366.04	1998.82
366.25	1923.04
366.47	2021.35
366.68	2000.87
366.90	1986.53
367.11	2129.89
367.33	2127.84
367.54	2047.97
367.76	1923.04
367.97	2037.73
368.19	1986.53
368.40	2013.15
368.62	1990.63
368.83	1968.10
369.05	2068.45
369.26	1925.09
369.48	2029.54
369.69	2033.63
369.91	1992.67
370.12	2080.74
370.33	2119.65
370.55	1978.34
370.76	1998.82
370.98	2127.84
371.19	2099.17
371.41	2029.54
371.62	2082.78
371.84	2009.06
372.05	2222.05
372.27	2039.78
372.48	2086.88
372.69	2119.65
372.91	2035.68
373.12	2170.85
373.34	2099.17
373.55	2230.24
373.77	2127.84
373.98	2080.74
374.20	2179.04
374.41	2234.33
374.62	2090.98
374.84	2156.51
375.05	2181.09
375.27	2168.80
375.48	2205.66
375.70	2199.52
375.91	2203.61
376.12	2269.15
376.34	2181.09
376.55	2211.81
376.77	2240.48
376.98	2076.64
377.19	2201.57
377.41	2123.74
377.62	2199.52
377.84	2338.78
378.05	2310.11
378.27	2170.85
378.48	2340.83
378.69	2357.21
378.91	2275.29
379.12	2183.13
379.34	2211.81
379.55	2236.38
379.76	2207.71
379.98	2166.75
380.19	2248.67
380.41	2260.96
380.62	2277.34
380.83	2265.05
381.05	2238.43
381.26	2394.08
381.47	2314.20
381.69	2250.72
381.90	2385.88
382.12	2371.55
382.33	2287.58
382.54	2248.67
382.76	2283.49
382.97	2330.59
383.19	2281.44
383.40	2342.88
383.61	2357.21
383.83	2197.47
384.04	2418.65
384.25	2367.45
384.47	2469.85
384.68	2414.56
384.89	2336.73
385.11	2334.68
385.32	2344.92
385.54	2330.59
385.75	2293.72
385.96	2396.12
386.18	2420.70
386.39	2361.31
386.60	2416.60
386.82	2430.94
387.03	2412.51
387.24	2387.93
387.46	2471.90
387.67	2451.42
387.88	2514.91
388.10	2412.51
388.31	2478.04
388.52	2578.39
388.74	2492.38
388.95	2482.14
389.16	2437.08
389.38	2557.91
389.59	2516.95
389.80	2508.76
390.02	2494.43
390.23	2596.82
390.44	2578.39
390.66	2600.92
390.87	2490.33
391.08	2533.34
391.30	2652.12
391.51	2559.96
391.72	2746.33
391.94	2652.12
392.15	2629.59
392.36	2580.44
392.58	2553.82
392.79	2615.26
393.00	2775.00
393.22	2670.55
393.43	2750.42
393.64	2764.76
393.85	2805.72
394.07	2633.69
394.28	2650.07
394.49	2734.04
394.71	2904.02
394.92	2787.29
395.13	2576.34
395.35	2746.33
395.56	2752.47
395.77	2813.91
395.98	2793.43
396.20	2795.48
396.41	2818.00
396.62	2856.92
396.84	2854.87
397.05	2865.11
397.26	2830.29
397.47	2897.88
397.69	2828.24
397.90	3114.96
398.11	2975.70
398.32	2830.29
398.54	2772.95
398.75	2879.44
398.96	2879.44
399.18	2981.84
399.39	2967.51
399.60	3022.80
399.81	2867.16
400.03	2936.79
400.24	3237.84
400.45	2994.13
400.66	3080.14
400.88	3028.95
401.09	3088.34
401.30	3065.81
401.51	3141.58
401.73	3047.38
401.94	3088.34
402.15	3217.36
402.36	3106.77
402.58	3190.74
402.79	3147.73
403.00	3078.10
403.21	3129.30
403.43	3248.08
403.64	3248.08
403.85	3112.91
404.06	3338.19
404.27	3098.58
404.49	3151.82
404.70	3137.49
404.91	3286.99
405.12	3207.12
405.34	3268.56
405.55	3504.07
405.76	3166.16
405.97	3258.32
406.19	3317.71
406.40	3291.09
406.61	3268.56
406.82	3383.24
407.03	3387.34
407.25	3334.09
407.46	3467.21
407.67	3321.81
407.88	3393.48
408.09	3430.35
408.31	3338.19
408.52	3422.16
408.73	3325.90
408.94	3213.26
409.15	3334.09
409.37	3397.58
409.58	3532.75
409.79	3407.82
410.00	3530.70
410.21	3368.91
410.43	3426.25
410.64	3385.29
410.85	3510.22
411.06	3526.60
411.27	3557.32
411.48	3694.54
411.70	3352.52
411.91	3655.62
412.12	3719.11
412.33	3602.38
412.54	3592.14
412.76	3622.86
412.97	3751.88
413.18	3493.83
413.39	3518.41
413.60	3631.05
413.81	3653.58
414.03	3551.18
414.24	3592.14
414.45	3778.50
414.66	3493.83
414.87	3717.06
415.08	3715.02
415.30	3737.54
415.51	3764.17
415.72	3672.01
415.93	3737.54
416.14	3815.37
416.35	3659.72
416.56	3819.46
416.78	3835.85
416.99	3852.23
417.20	3786.69
417.41	3837.89
417.62	3889.09
417.83	3837.89
418.04	3794.89
418.26	3876.80
418.47	3835.85
418.68	4048.83
418.89	3934.15
419.10	4132.80
419.31	4030.40
419.52	3956.68
419.73	3872.71
419.95	4032.45
420.16	3801.03
420.37	3887.04
420.58	4044.74
420.79	3860.42
421.00	3958.72
421.21	4093.89
421.42	3954.63
421.63	3985.35
421.85	4081.60
422.06	4067.27
422.27	4132.80
422.48	4118.47
422.69	4167.62
422.90	4192.19
423.11	4153.28
423.32	4227.01
423.53	4376.51
423.75	4317.12
423.96	4519.87
424.17	4353.98
424.38	4444.09
424.59	4181.95
424.80	4556.73
425.01	4431.80
425.22	4386.75
425.43	4419.52
425.64	4483.00
425.85	4599.74
426.06	4515.77
426.28	4526.01
426.49	4517.82
426.70	4509.63
426.91	4554.68
427.12	4595.64
427.33	4644.79
427.54	4591.55
427.75	4640.70
427.96	4695.99
428.17	4638.65
428.38	4749.24
428.59	4894.65
428.80	4833.21
429.01	4771.77
429.23	4843.45
429.44	4913.08
429.65	4949.94
429.86	4851.64
430.07	4771.77
430.28	4822.97
430.49	5011.38
430.70	5111.73
430.91	5093.30
431.12	4814.77
431.33	5085.11
431.54	5115.83
431.75	5117.87
431.96	5232.56
432.17	5076.91
432.38	5097.39
432.59	5341.10
432.80	5314.48
433.01	5398.45
433.22	5234.61
433.43	5169.07
433.64	5107.63
433.85	5238.70
434.06	5412.78
434.27	5140.40
434.49	5271.47
434.70	5472.17
434.91	5412.78
435.12	5590.95
435.33	5484.46
435.54	5468.08
435.75	5351.34
435.96	5445.55
436.17	5390.25
436.38	5658.54
436.59	5562.28
436.80	5484.46
437.01	5844.90
437.22	5842.85
437.43	5771.18
437.64	5494.70
437.85	5656.49
438.06	5801.90
438.27	5611.43
438.48	5695.40
438.69	5767.08
438.90	5826.47
439.11	5662.63
439.32	5754.79
439.53	5787.56
439.74	5877.67
439.95	5924.77
440.16	5949.35
440.37	5961.64
440.57	5930.92
440.78	6104.99
440.99	5973.92
441.20	5826.47
441.41	5951.40
441.62	6068.13
441.83	5853.09
442.04	6166.43
442.25	6016.93
442.46	6119.33
442.67	6219.68
442.88	6418.33
443.09	6082.47
443.30	6102.95
443.51	6104.99
443.72	6432.67
443.93	6215.59
444.14	6422.43
444.35	6117.28
444.56	6244.26
444.77	6207.39
444.98	6395.81
445.19	6342.56
445.40	6490.01
445.61	6346.66
445.81	6498.20
446.02	6471.58
446.23	6449.05
446.44	6342.56
446.65	6627.23
446.86	6539.16
447.07	6565.79
447.28	6639.51
447.49	6557.60
447.70	6330.27
447.91	6553.50
448.12	6565.79
448.33	6735.77
448.54	6834.07
448.74	6758.30
448.95	6715.29
449.16	6797.21
449.37	7131.03
449.58	6838.17
449.79	7053.20
450.00	6729.63
450.21	6840.22
450.42	6991.77
450.63	6848.41
450.84	7012.24
451.05	7092.12
451.25	6930.33
451.46	7022.48
451.67	7151.51
451.88	7061.40
452.09	7204.75
452.30	7083.92
452.51	7149.46
452.72	7374.74
452.93	7333.78
453.13	7112.60
453.34	7221.14
453.55	7380.88
453.76	7448.46
453.97	7528.33
454.18	7309.20
454.39	7477.13
454.60	7350.16
454.81	7372.69
455.01	7581.58
455.22	7380.88
455.43	7565.20
455.64	7622.54
455.85	7806.86
456.06	7772.04
456.27	7720.84
456.48	7640.97
456.68	7745.42
456.89	7841.67
457.10	7948.17
457.31	7794.57
457.52	7800.71
457.73	7860.10
457.94	8109.96
458.14	7784.33
458.35	8355.71
458.56	8030.09
458.77	8093.57
458.98	8238.98
459.19	8167.30
459.39	8445.82
459.60	8411.01
459.81	8200.07
460.02	8351.62
460.23	8284.03
460.44	8597.37
460.65	8619.90
460.85	8607.61
461.06	8742.78
461.27	8427.39
461.48	8605.56
461.69	8793.98
461.89	8617.85
462.10	8802.17
462.31	8656.76
462.52	8726.39
462.73	8810.36
462.94	9045.88
463.14	9097.08
463.35	8939.38
463.56	9281.39
463.77	9217.91
463.98	8974.20
464.18	9158.52
464.39	9213.81
464.60	9510.77
464.81	9404.27
465.02	9355.12
465.23	9650.03
465.43	9312.11
465.64	9672.56
465.85	9488.24
466.06	9635.69
466.27	9963.37
466.47	9815.91
466.68	9928.55
466.89	9723.76
467.10	9971.56
467.30	9883.50
467.51	10073.96
467.72	10186.60
467.93	9867.11
468.14	10110.82
468.34	10569.57
468.55	10456.93
468.76	10338.15
468.97	10104.68
469.17	10516.32
469.38	10370.91
469.59	10782.56
469.80	10590.05
470.01	10768.22
470.21	10688.35
470.42	10970.97
470.63	10991.45
470.84	10985.30
471.04	11229.01
471.25	10934.11
471.46	11249.49
471.67	11480.91
471.87	11491.15
472.08	11446.10
472.29	11761.48
472.50	11398.99
472.70	11554.64
472.91	11624.27
473.12	11761.48
473.33	11937.61
473.53	12048.20
473.74	11800.40
473.95	12400.45
474.16	12447.55
474.36	12242.76
474.57	12353.35
474.78	12699.45
474.99	12357.44
475.19	12511.04
475.40	12865.34
475.61	12781.37
475.81	12904.25
476.02	13322.04
476.23	13078.33
476.44	13332.28
476.64	13518.64
476.85	13614.90
477.06	13274.93
477.27	13715.25
477.47	13551.41
477.68	13694.77
477.89	13791.02
478.09	13895.47
478.30	14049.07
478.51	13971.24
478.71	14014.25
478.92	14333.73
479.13	14165.80
479.34	14329.64
479.54	14614.30
479.75	14688.03
479.96	14632.74
480.16	14696.22
480.37	15009.56
480.58	14954.27
480.78	15386.39
480.99	15116.06
481.20	15410.96
481.41	15582.99
481.61	15609.62
481.82	15677.20
482.03	15478.55
482.23	15730.45
482.44	15912.72
482.65	16099.08
482.85	16174.86
483.06	16115.47
483.27	16117.51
483.47	16203.53
483.68	16193.29
483.89	16480.00
484.09	16477.96
484.30	16537.35
484.51	16774.91
484.71	17012.48
484.92	16967.42
485.13	16940.80
485.33	16889.60
485.54	17082.11
485.75	17260.28
485.95	17147.64
486.16	17649.39
486.37	17846.00
486.57	17368.82
486.78	17776.37
486.98	17932.01
487.19	17985.26
487.40	17917.68
487.60	18177.77
487.81	18161.39
488.02	18120.43
488.22	18294.50
488.43	18394.86
488.64	18689.76
488.84	18644.71
489.05	18685.67
489.25	18722.53
489.46	18831.07
489.67	18915.04
489.87	19267.29
490.08	19173.08
490.29	19029.73
490.49	19691.22
490.70	19476.18
490.90	19439.32
491.11	19347.16
491.32	19730.13
491.52	19644.12
491.73	19746.51
491.94	19953.36
492.14	19738.32
492.35	20035.28
492.55	19988.18
492.76	20395.72
492.97	20123.34
493.17	20299.47
493.38	20393.67
493.58	20696.77
493.79	20473.54
494.00	20774.60
494.20	20633.29
494.41	20516.55
494.61	21030.59
494.82	20711.11
495.02	20782.79
495.23	21132.99
495.44	21204.67
495.64	21456.57
495.85	21472.95
496.05	21665.46
496.26	21374.65
496.47	21624.50
496.67	21558.97
496.88	21522.10
497.08	21505.72
497.29	21915.31
497.49	21898.93
497.70	22240.94
497.91	22345.39
498.11	21894.83
498.32	22617.77
498.52	22478.50
498.73	22824.61
498.93	22324.91
499.14	22578.86
499.34	22564.52
499.55	22668.97
499.76	22705.83
499.96	22814.37
500.17	22810.28
500.37	23033.50
500.58	22998.69
500.78	23115.42
500.99	23066.27
501.19	23322.27
501.40	23203.49
501.60	23371.42
501.81	23121.57
502.02	23504.54
502.22	23305.88
502.43	23662.23
502.63	23463.58
502.84	23871.12
503.04	23758.49
503.25	23928.47
503.45	23629.46
503.66	24006.29
503.86	24057.49
504.07	24323.72
504.27	24020.63
504.48	24350.35
504.68	24178.32
504.89	24604.30
505.09	24602.25
505.30	24419.98
505.50	24469.13
505.71	24637.06
505.91	24528.52
506.12	24858.24
506.32	24637.06
506.53	24989.31
506.73	24735.37
506.94	25112.19
507.14	25167.49
507.35	24954.50
507.55	25126.53
507.76	25022.08
507.96	25124.48
508.17	25400.96
508.37	25398.91
508.58	25398.91
508.78	25312.89
508.99	25869.94
509.19	25329.28
509.40	25579.13
509.60	25468.54
509.81	25781.88
510.01	25775.73
510.22	25925.24
510.42	25992.82
510.63	26271.34
510.83	25970.29
511.04	25884.28
511.24	25964.15
511.44	26160.75
511.65	26400.37
511.85	26140.27
512.06	26199.66
512.26	26508.91
512.47	26343.02
512.67	26416.75
512.88	26771.05
513.08	26594.92
513.29	26672.74
513.49	26861.16
513.69	26639.98
513.90	26863.21
514.10	26744.42
514.31	26859.11
514.51	27559.52
514.72	27252.32
514.92	27248.22
515.13	27172.45
515.33	27393.63
515.53	27348.57
515.74	27600.47
515.94	27301.47
516.15	27385.44
516.35	27364.96
516.56	27733.59
516.76	27475.55
516.96	27792.98
517.17	27831.90
517.37	28026.45
517.58	28130.90
517.78	28038.74
517.99	27778.65
518.19	28249.68
518.39	28272.21
518.60	28034.64
518.80	28419.66
519.01	28442.19
519.21	28634.70
519.41	28575.31
519.62	28526.16
519.82	28491.34
520.03	28989.00
520.23	29081.16
520.43	28665.42
520.64	29089.35
520.84	29130.31
521.05	29038.15
521.25	29189.70
521.45	29374.02
521.66	29640.25
521.86	29515.33
522.07	29740.60
522.27	29300.29
522.47	29496.89
522.68	30158.39
522.88	29556.28
523.08	30084.66
523.29	29894.20
523.49	30152.24
523.70	30137.91
523.90	30414.38
524.10	30305.84
524.31	30551.60
524.51	30142.00
524.71	30815.79
524.92	30699.05
525.12	31131.17
525.33	30832.17
525.53	30928.42
525.73	31039.01
525.94	31176.23
526.14	31290.91
526.34	31008.29
526.55	31290.91
526.75	31221.28
526.95	31661.60
527.16	31403.55
527.36	31585.82
527.56	32091.67
527.77	32097.81
527.97	31858.20
528.17	32071.19
528.38	32230.93
528.58	32265.75
528.78	32294.42
528.99	32499.22
529.19	32646.67
529.39	32374.29
529.60	32751.12
529.80	32919.05
530.00	32867.85
530.21	33121.80
530.41	33398.27
530.61	33177.09
530.82	32855.56
531.02	32970.25
531.22	33453.57
531.43	33521.15
531.63	33545.73
531.83	33887.74
532.04	34178.55
532.24	33404.42
532.44	34256.37
532.64	34559.47
532.85	34182.65
533.05	34409.97
533.25	34254.33
533.46	34465.27
533.66	34586.10
533.86	34444.79
534.07	34801.13
534.27	34674.16
534.47	34858.48
534.67	34987.50
534.88	34921.96
535.08	35218.92
535.28	35214.82
535.49	35470.82
535.69	35706.34
535.89	35558.88
536.09	35454.44
536.30	35673.57
536.50	35857.88
536.70	35970.52
536.91	35794.40
537.11	36199.90
537.31	36136.41
537.51	36339.16
537.72	36386.26
537.92	36574.67
538.12	37098.95
538.32	36265.43
538.53	36828.62
538.73	36789.71
538.93	36611.54
539.13	36656.59
539.34	36885.97
539.54	36855.25
539.74	37086.67
539.94	36943.31
540.15	37197.26
540.35	37537.22
540.55	37295.56
540.75	37123.53
540.96	37397.96
541.16	37508.55
541.36	37363.14
541.56	38127.03
541.77	37836.22
541.97	37555.65
542.17	37715.39
542.37	37719.49
542.58	37979.58
542.78	38041.02
542.98	38106.55
543.18	38016.44
543.38	38374.84
543.59	38614.45
543.79	38147.51
543.99	38165.95
544.19	38804.91
544.40	38507.96
544.60	39093.68
544.80	38974.89
545.00	39022.00
545.20	39251.37
545.41	38909.36
545.61	39036.33
545.81	39273.90
546.01	39275.94
546.21	39151.02
546.42	38815.15
546.62	39239.08
546.82	39028.14
547.02	39007.66
547.22	39540.13
547.43	39218.60
547.63	39617.96
547.83	40009.12
548.03	39110.06
548.23	39841.18
548.44	39472.55
548.64	39837.09
548.84	39617.96
549.04	39884.19
549.24	40039.84
549.45	40230.30
549.65	39687.59
549.85	39859.62
550.05	40607.12
550.25	40132.00
550.45	40398.23
550.66	40132.00
550.86	40140.19
551.06	40539.54
551.26	40136.09
551.46	40361.37
551.66	40299.93
551.87	40154.52
552.07	40512.92
552.27	40594.84
552.47	40631.70
552.67	40748.43
552.87	40324.50
553.07	40748.43
553.28	40766.87
553.48	41133.45
553.68	40523.16
553.88	41264.52
554.08	41174.41
554.28	40854.93
554.48	41176.46
554.69	41522.57
554.89	41278.86
555.09	41131.40
555.29	41186.70
555.49	41323.91
555.69	41448.84
555.89	41749.89
556.10	41713.03
556.30	41309.58
556.50	41268.62
556.70	41379.21
556.90	41723.27
557.10	41792.90
557.30	41495.94
557.50	41983.36
557.70	41579.91
557.91	42358.14
558.11	41586.05
558.31	41934.21
558.51	41692.55
558.71	41997.70
558.91	41842.05
559.11	41796.99
559.31	41936.26
559.51	41870.72
559.72	42024.32
559.92	41758.08
560.12	42202.49
560.32	41995.65
560.52	41985.41
560.72	42360.19
560.92	42351.99
561.12	42395.00
561.32	42702.20
561.52	41854.34
561.72	42521.98
561.93	42139.00
562.13	42114.43
562.33	42306.94
562.53	42759.54
562.73	42280.31
562.93	42732.92
563.13	42548.60
563.33	42476.92
563.53	42929.52
563.73	42415.48
563.93	42773.88
564.13	43631.97
564.33	42669.43
564.53	42974.58
564.74	42997.10
564.94	42726.77
565.14	43091.31
565.34	42351.99
565.54	43384.17
565.74	43101.55
565.94	43289.96
566.14	43054.45
566.34	42923.38
566.54	43466.09
566.74	43367.79
566.94	43677.03
567.14	43599.21
567.34	43642.21
567.54	43480.42
567.74	43728.23
567.94	43255.15
568.14	43668.84
568.34	43793.76
568.54	43634.02
568.74	43615.59
568.94	43670.89
569.14	43969.89
569.34	43392.36
569.54	43644.26
569.75	43609.45
569.95	44283.23
570.15	44215.65
570.35	44244.32
570.55	43873.63
570.75	44021.09
570.95	44225.89
571.15	43971.94
571.35	44008.80
571.55	44549.46
571.75	44133.73
571.95	44688.73
572.15	44342.62
572.35	44576.09
572.55	44494.17
572.75	44612.95
572.95	44893.52
573.15	44395.87
573.35	44959.06
573.55	44752.21
573.75	44647.77
573.95	45286.73
574.15	44772.69
574.35	44940.63
574.55	44983.63
574.75	44758.36
574.95	45018.45
575.15	45120.85
575.34	45124.94
575.54	45378.89
575.74	45108.56
575.94	45268.30
576.14	45327.69
576.34	45847.88
576.54	45978.95
576.74	45776.20
576.94	45284.68
577.14	45581.64
577.34	45679.94
577.54	45233.49
577.74	45964.61
577.94	46144.83
578.14	45847.88
578.34	46435.64
578.54	45653.32
578.74	46007.62
578.94	46783.80
579.14	45921.60
579.34	45987.14
579.54	45956.42
579.74	46521.66
579.94	46501.18
580.13	46535.99
580.33	46337.34
580.53	46771.51
580.73	46597.43
580.93	46832.95
581.13	46683.45
581.33	47363.37
581.53	47037.75
581.73	47072.56
581.93	47062.32
582.13	47056.18
582.33	46941.49
582.53	46816.57
582.73	47164.72
582.92	47744.30
583.12	47447.34
583.32	47926.56
583.52	47207.73
583.72	47705.38
583.92	47723.82
584.12	47828.26
584.32	48000.29
584.52	47928.61
584.72	48188.70
584.92	48078.11
585.11	48635.16
585.31	47961.38
585.51	48561.44
585.71	47805.73
585.91	48487.71
586.11	47684.90
586.31	48098.59
586.51	48610.59
586.71	48413.98
586.91	48358.69
587.10	48964.88
587.30	48788.76
587.50	48895.25
587.70	48973.08
587.90	48710.94
588.10	48575.77
588.30	48887.06
588.50	48948.50
588.69	49155.35
588.89	49132.82
589.09	49159.44
589.29	49173.78
589.49	49382.67
589.69	48860.44
589.89	49345.81
590.08	49313.04
590.28	48911.64
590.48	49136.91
590.68	49220.88
590.88	49558.80
591.08	49915.14
591.28	49343.76
591.47	49921.29
591.67	49761.54
591.87	49747.21
592.07	50066.69
592.27	50064.64
592.47	49929.48
592.67	50144.51
592.86	49730.83
593.06	50226.43
593.26	50259.20
593.46	50265.34
593.66	50167.04
593.86	50468.09
594.05	50396.42
594.25	50656.51
594.45	50328.83
594.65	50148.61
594.85	50156.80
595.05	50603.26
595.24	50435.33
595.44	50498.81
595.64	50590.97
595.84	50957.56
596.04	51078.39
596.23	50683.13
596.43	51369.20
596.63	50699.51
596.83	50603.26
597.03	51393.78
597.22	51420.40
597.42	51021.05
597.62	51264.75
597.82	50889.98
598.02	51553.52
598.21	51404.02
598.41	50820.34
598.61	51557.61
598.81	51545.33
599.01	51827.95
599.20	51625.20
599.40	51416.30
599.60	51848.42
599.80	51520.75
600.00	51873.00
600.19	52196.58
600.39	51377.39
600.59	52643.04
600.79	52106.47
600.98	51969.26
601.18	52098.28
601.38	52647.13
601.58	52737.24
601.78	52317.41
601.97	52460.77
602.17	52616.41
602.37	52661.47
602.57	52501.73
602.76	52659.42
602.96	52557.02
603.16	52776.15
603.36	52550.88
603.55	53069.01
603.75	52417.76
603.95	52862.17
604.15	53097.69
604.34	52792.54
604.54	53392.59
604.74	53402.83
604.94	53327.06
605.13	53050.58
605.33	53462.22
605.53	52860.12
605.73	53206.23
605.92	53458.13
606.12	53517.52
606.32	53734.60
606.52	53560.53
606.71	53359.83
606.91	53738.70
607.11	53265.62
607.30	53533.90
607.50	53755.08
607.70	54000.84
607.90	53710.03
608.09	53853.39
608.29	54179.01
608.49	53863.63
608.68	53728.46
608.88	53966.02
609.08	54103.24
609.28	54336.71
609.47	53644.49
609.67	54213.83
609.87	54219.97
610.06	54109.38
610.26	54166.73
610.46	54320.32
610.66	53978.31
610.85	54093.00
611.05	54080.71
611.25	54461.63
611.44	54293.70
611.64	53955.78
611.84	54334.66
612.03	53896.39
612.23	54406.34
612.43	54365.38
612.62	54111.43
612.82	54547.65
613.02	54371.52
613.21	54486.21
613.41	53966.02
613.61	54703.29
613.80	54097.09
614.00	54246.60
614.20	54695.10
614.39	54326.47
614.59	54172.87
614.79	54301.89
614.98	54332.61
615.18	54707.39
615.38	54754.49
615.57	54203.59
615.77	54688.96
615.97	54416.58
616.16	54154.44
616.36	54381.76
616.56	54181.06
616.75	54691.01
616.95	54410.43
617.15	54310.08
617.34	54500.54
617.54	54609.09
617.74	54523.07
617.93	54574.27
618.13	54150.34
618.32	54547.65
618.52	54432.96
618.72	54514.88
618.91	54678.72
619.11	54191.30
619.31	54123.72
619.50	54260.93
619.70	54121.67
619.90	54435.01
620.09	54650.05
620.29	54482.11
620.48	54361.28
620.68	54418.63
620.88	54195.40
621.07	54682.81
621.27	54592.70
621.46	53712.08
621.66	54250.69
621.86	54392.00
622.05	53986.50
622.25	54580.42
622.44	54078.66
622.64	54318.28
622.84	54404.29
623.03	53800.14
623.23	54242.50
623.42	54316.23
623.62	54224.07
623.82	54236.36
624.01	53867.72
624.21	54404.29
624.40	54297.80
624.60	54449.35
624.80	54234.31
624.99	54318.28
625.19	53804.24
625.38	54187.21
625.58	54430.91
625.77	54142.15
625.97	54351.04
626.17	54019.27
626.36	53978.31
626.56	54320.32
626.75	53597.39
626.95	54850.75
627.14	54142.15
627.34	54455.49
627.54	54183.11
627.73	54613.18
627.93	54049.99
628.12	53927.11
628.32	54197.44
628.51	53884.11
628.71	54375.62
628.90	54559.94
629.10	53646.54
629.30	54043.85
629.49	53945.54
629.69	53935.30
629.88	54047.94
630.08	54222.02
630.27	54076.61
630.47	54432.96
630.66	54222.02
630.86	54500.54
631.05	53673.16
631.25	54467.78
631.44	54293.70
631.64	53839.05
631.84	54090.95
632.03	54588.61
632.23	54297.80
632.42	54795.45
632.62	54131.91
632.81	54099.14
633.01	54260.93
633.20	54617.28
633.40	54340.80
633.59	54408.39
633.79	54039.75
633.98	54072.52
634.18	54426.82
634.37	54895.80
634.57	54072.52
634.76	54568.13
634.96	54160.58
635.15	54183.11
635.35	54140.10
635.54	53902.54
635.74	54365.38
635.93	54314.18
636.13	54836.41
636.32	54564.03
636.52	54351.04
636.71	54162.63
636.91	54428.87
637.10	54643.90
637.30	54275.27
637.49	53947.59
637.69	54375.62
637.88	54590.66
638.08	53714.12
638.27	54768.83
638.46	54633.66
638.66	54129.86
638.85	54594.75
639.05	54523.07
639.24	54498.50
639.44	54170.82
639.63	54713.53
639.83	54473.92
640.02	54516.93
640.22	54660.29
640.41	55022.78
640.61	54086.85
640.80	54699.20
640.99	54467.78
641.19	54906.04
641.38	54668.48
641.58	54197.44
641.77	54363.33
641.97	54320.32
642.16	54492.35
642.36	54541.50
642.55	55080.12
642.74	54547.65
642.94	55088.31
643.13	54715.58
643.33	54826.17
643.52	54750.40
643.72	55041.21
643.91	54826.17
644.10	54994.10
644.30	55121.08
644.49	55252.15
644.69	54744.25
644.88	54711.49
645.08	54916.28
645.27	54254.79
645.46	54734.01
645.66	55112.89
645.85	55440.56
646.05	54641.85
646.24	55166.13
646.43	54740.16
646.63	55313.59
646.82	55694.51
647.02	55000.25
647.21	54981.82
647.40	55223.48
647.60	55669.93
647.79	55561.39
647.99	55162.04
648.18	55260.34
648.37	55686.32
648.57	55465.14
648.76	55549.10
648.96	55276.72
649.15	55203.00
649.34	55497.91
649.54	55239.86
649.73	55704.75
649.92	55645.36
650.12	55665.84
650.31	55735.47
650.51	55622.83
650.70	55841.96
650.89	55317.68
651.09	56155.30
651.28	55325.88
651.47	55778.48
651.67	55557.30
651.86	56059.05
652.06	55239.86
652.25	55729.33
652.44	55596.21
652.64	55389.36
652.83	55807.15
653.02	54947.00
653.22	55940.27
653.41	56005.80
653.60	55434.42
653.80	55801.00
653.99	55901.36
654.18	55860.40
654.38	56091.82
654.57	55655.60
654.76	56007.85
654.96	55964.84
655.15	55753.90
655.34	55485.62
655.54	55196.85
655.73	56003.75
655.92	56374.44
656.12	55532.72
656.31	56110.25
656.50	55774.38
656.70	55803.05
656.89	55735.47
657.08	56026.28
657.28	56018.09
657.47	55698.61
657.66	56059.05
657.86	56140.97
658.05	55897.26
658.24	55893.16
658.43	55825.58
658.63	55927.98
658.82	56245.41
659.01	56188.07
659.21	56218.79
659.40	55876.78
659.59	56100.01
659.79	56417.44
659.98	56269.99
660.17	56552.61
660.36	56132.78
660.56	56439.97
660.75	56464.55
660.94	56882.33
661.14	56255.65
661.33	55829.68
661.52	55907.50
661.71	55989.42
661.91	55950.51
662.10	56018.09
662.29	56427.68
662.49	56503.46
662.68	56409.25
662.87	56407.20
663.06	56761.50
663.26	56519.84
663.45	56657.06
663.64	56620.19
663.83	56792.22
664.03	56935.58
664.22	56347.81
664.41	56439.97
664.60	56749.21
664.80	56523.94
664.99	56560.80
665.18	56585.38
665.37	56384.68
665.57	56767.65
665.76	56577.18
665.95	57064.60
666.14	56818.84
666.34	56480.93
666.53	56540.32
666.72	56411.30
666.91	56257.70
667.11	56204.45
667.30	56226.98
667.49	56435.87
667.68	56220.84
667.87	55948.46
668.07	56128.68
668.26	56509.60
668.45	56880.28
668.64	56110.25
668.84	57191.58
669.03	56919.20
669.22	56612.00
669.41	56394.92
669.60	56984.73
669.80	56853.66
669.99	56814.75
670.18	56294.56
670.37	56945.82
670.57	57203.86
670.76	56728.73
670.95	56810.65
671.14	56493.22
671.33	56087.72
671.53	57689.23
671.72	56956.06
671.91	56976.54
672.10	56284.33
672.29	56190.12
672.48	56329.38
672.68	56970.39
672.87	56759.45
673.06	56849.56
673.25	56405.16
673.44	56499.36
673.64	56601.76
673.83	56755.36
674.02	56485.03
674.21	56403.11
674.40	56353.96
674.59	56503.46
674.79	56366.24
674.98	56452.26
675.17	56929.44
675.36	56439.97
675.55	56521.89
675.74	56491.17
675.94	56177.83
676.13	56720.54
676.32	56433.83
676.51	56695.97
676.70	56571.04
676.89	56226.98
677.08	56573.09
677.28	56091.82
677.47	56306.85
677.66	56769.69
677.85	56548.51
678.04	56960.15
678.23	56794.27
678.42	56757.41
678.62	56833.18
678.81	56890.52
679.00	56452.26
679.19	56992.92
679.38	56716.45
679.57	56599.71
679.76	56525.99
679.96	56738.97
680.15	56208.55
680.34	56177.83
680.53	56620.19
680.72	57066.65
680.91	56667.30
681.10	56024.23
681.29	56458.40
681.48	56120.49
681.68	56186.02
681.87	56136.87
682.06	56292.52
682.25	56196.26
682.44	56401.06
682.63	55970.99
682.82	56085.67
683.01	56007.85
683.20	55641.26
683.39	55874.73
683.59	55868.59
683.78	55725.23
683.97	55751.85
684.16	55889.07
684.35	55854.25
684.54	55391.41
684.73	55407.79
684.92	55901.36
685.11	56044.71
685.30	55897.26
685.49	56274.09
685.69	55760.05
685.88	55542.96
686.07	55887.02
686.26	55909.55
686.45	56091.82
686.64	55882.92
686.83	55948.46
687.02	55770.28
687.21	56063.14
687.40	56155.30
687.59	55987.37
687.78	55932.07
687.97	56071.34
688.16	55909.55
688.35	55424.18
688.54	55280.82
688.74	55678.13
688.93	55475.38
689.12	55735.47
689.31	55772.33
689.50	55805.10
689.69	55295.16
689.88	55112.89
690.07	55659.69
690.26	55801.00
690.45	55792.81
690.64	55542.96
690.83	55190.71
691.02	55108.79
691.21	55440.56
691.40	55272.63
691.59	55631.02
691.78	55137.46
691.97	55506.10
692.16	55256.24
692.35	55243.96
692.54	55100.60
692.73	55299.25
692.92	55203.00
693.11	55514.29
693.30	54920.38
693.49	55377.08
693.68	54918.33
693.87	55035.06
694.06	54625.47
694.25	54836.41
694.44	54537.41
694.63	54668.48
694.82	54852.80
695.01	54940.86
695.20	54779.07
695.39	55203.00
695.58	54394.05
695.77	54588.61
695.96	54770.88
696.15	54688.96
696.34	54629.57
696.53	54764.73
696.72	55012.54
696.91	54908.09
697.10	54867.13
697.29	54228.16
697.48	54625.47
697.67	54330.56
697.86	54330.56
698.05	54095.05
698.24	54807.74
698.43	54117.57
698.62	54299.84
698.81	54133.96
699.00	54533.31
699.19	54019.27
699.38	54686.91
699.57	53941.45
699.76	54912.19
699.95	53980.36
700.14	53957.83
700.32	54363.33
700.51	53882.06
700.70	54629.57
700.89	54523.07
701.08	54383.81
701.27	53732.56
701.46	54539.46
701.65	53794.00
701.84	53882.06
702.03	53869.77
702.22	53628.11
702.41	54088.90
702.60	54082.76
702.79	53263.57
702.98	53662.93
703.17	53787.85
703.35	53607.63
703.54	53406.93
703.73	53837.00
703.92	53390.55
704.11	53378.26
704.30	53265.62
704.49	53499.09
704.68	53140.69
704.87	53155.03
705.06	53249.24
705.25	53425.36
705.43	53218.52
705.62	53435.60
705.81	53234.90
706.00	53298.39
706.19	52942.04
706.38	53015.77
706.57	52860.12
706.76	52788.44
706.95	52917.46
707.14	52960.47
707.32	52878.55
707.51	52833.50
707.70	52649.18
707.89	52532.45
708.08	52765.91
708.27	53073.11
708.46	52896.98
708.65	52724.96
708.84	52577.50
709.02	52806.87
709.21	52729.05
709.40	52604.13
709.59	52491.49
709.78	52628.70
709.97	52782.30
710.16	52675.80
710.34	52485.34
710.53	52514.01
710.72	51709.16
710.91	52278.50
711.10	52348.13
711.29	52444.38
711.48	52438.24
711.66	51999.97
711.85	51907.82
712.04	52384.99
712.23	52169.96
712.42	52083.94
712.61	52397.28
712.80	52235.49
712.98	52055.27
713.17	51666.16
713.36	52143.33
713.55	51606.76
713.74	51358.96
713.93	51557.61
714.11	51979.49
714.30	51404.02
714.49	51567.85
714.68	52272.35
714.87	51703.02
715.06	51723.50
715.24	51387.63
715.43	51537.13
715.62	50832.63
715.81	51207.41
716.00	51614.96
716.18	51197.17
716.37	51182.84
716.56	51262.71
716.75	51363.06
716.94	51143.92
717.12	51260.66
717.31	51236.08
717.50	51080.44
717.69	50904.31
717.88	50466.05
718.06	50717.95
718.25	51098.87
718.44	50535.68
718.63	50869.50
718.82	50042.12
719.00	50844.92
719.19	50521.34
719.38	50431.23
719.57	49884.42
719.76	49587.47
719.94	50011.40
720.13	49970.44
720.32	50066.69
720.51	49915.14
720.69	49429.77
720.88	49972.49
721.07	50066.69
721.26	49487.12
721.44	49472.78
721.63	49345.81
721.82	49638.67
722.01	49136.91
722.20	49485.07
722.38	49605.90
722.57	49108.24
722.76	49278.22
722.95	49575.18
723.13	49030.42
723.32	49011.99
723.51	48880.92
723.70	48903.45
723.88	49485.07
724.07	48618.78
724.26	48956.69
724.44	48430.36
724.63	49407.25
724.82	49290.51
725.01	48762.14
725.19	48973.08
725.38	48631.07
725.57	48393.50
725.76	48565.53
725.94	48289.06
726.13	48594.20
726.32	48321.82
726.51	48098.59
726.69	48239.90
726.88	48284.96
727.07	48012.58
727.25	48223.52
727.44	47936.80
727.63	48084.26
727.82	48182.56
728.00	48346.40
728.19	48352.54
728.38	48674.07
728.56	47469.87
728.75	48358.69
728.94	47959.33
729.12	48336.16
729.31	48065.83
729.50	48162.08
729.69	47824.17
729.87	47953.19
730.06	47867.17
730.25	47914.28
730.43	48174.37
730.62	47709.48
730.81	48358.69
730.99	47971.62
731.18	47858.98
731.37	48108.83
731.55	48551.20
731.74	48252.19
731.93	48512.28
732.11	47945.00
732.30	48170.27
732.49	47330.61
732.67	48047.39
732.86	47359.28
733.05	47873.32
733.23	47691.05
733.42	48047.39
733.61	47760.68
733.79	47738.15
733.98	47729.96
734.17	47752.49
734.35	47797.54
734.54	47508.78
734.73	47867.17
734.91	47650.09
735.10	47269.17
735.29	48141.60
735.47	47564.07
735.66	47742.25
735.84	47559.98
736.03	47125.81
736.22	47938.85
736.40	47521.07
736.59	47770.92
736.78	47482.16
736.96	47271.21
737.15	47492.40
737.33	47527.21
737.52	46996.79
737.71	47168.82
737.89	47215.92
738.08	46916.92
738.27	47193.39
738.45	47246.64
738.64	47564.07
738.82	46787.89
739.01	47199.54
739.20	47363.37
739.38	46755.13
739.57	46863.67
739.75	47002.93
739.94	46994.74
740.13	47099.19
740.31	46800.18
740.50	46923.06
740.68	47095.09
740.87	46820.66
741.06	46943.54
741.24	46855.48
741.43	46273.85
741.61	46456.12
741.80	46441.79
741.99	46603.58
742.17	46363.96
742.36	46847.29
742.54	46378.30
742.73	46384.44
742.91	46630.20
743.10	46587.19
743.29	46454.08
743.47	46759.22
743.66	46593.34
743.84	46243.13
744.03	46189.89
744.21	46497.08
744.40	46968.12
744.59	46443.84
744.77	46089.54
744.96	46095.68
745.14	46071.10
745.33	46396.73
745.51	45868.36
745.70	46249.28
745.88	45905.22
746.07	45909.32
746.26	45935.94
746.44	45972.80
746.63	45882.69
746.81	46165.31
747.00	45679.94
747.18	46345.53
747.37	45753.67
747.55	45821.25
747.74	46267.71
747.92	45796.68
748.11	45974.85
748.29	45827.40
748.48	45974.85
748.66	45192.53
748.85	45802.82
749.03	45751.62
749.22	45612.36
749.41	45268.30
749.59	45413.71
749.78	45311.31
749.96	44895.57
750.15	45143.38
750.33	45262.16
750.52	45092.18
750.70	45172.05
750.89	45043.02
751.07	44963.15
751.26	44944.72
751.44	44991.83
751.63	45030.74
751.81	44744.02
752.00	44549.46
752.18	44893.52
752.37	45215.05
752.55	44565.85
752.74	44674.39
752.92	44856.66
753.10	44311.90
753.29	44537.18
753.47	44383.58
753.66	44168.54
753.84	44592.47
754.03	44504.41
754.21	44350.81
754.40	44823.89
754.58	44694.87
754.77	44397.91
754.95	44160.35
755.14	44094.82
755.32	44330.33
755.51	43767.14
755.69	43748.71
755.88	44006.75
756.06	44275.04
756.24	43871.59
756.43	44088.67
756.61	43941.22
756.80	43947.36
756.98	43924.83
757.17	43562.34
757.35	44414.30
757.54	44033.38
757.72	43976.03
757.90	43922.79
758.09	43910.50
758.27	43693.41
758.46	43588.97
758.64	43914.59
758.83	43808.10
759.01	43877.73
759.19	43634.02
759.38	43734.37
759.56	43505.00
759.75	43693.41
759.93	43816.29
760.12	43484.52
760.30	43386.22
760.48	43588.97
760.67	43412.84
760.85	43425.13
761.04	43414.89
761.22	43498.86
761.40	43246.96
761.59	43206.00
761.77	43222.38
761.96	43095.41
762.14	43062.64
762.32	42536.31
762.51	42435.96
762.69	42603.89
762.88	43033.97
763.06	42890.61
763.24	42904.95
763.43	42952.05
763.61	42843.51
763.80	42628.47
763.98	42487.16
764.16	43038.06
764.35	42626.42
764.53	42421.62
764.72	42665.33
764.90	42483.06
765.08	42575.22
765.27	42544.50
765.45	41983.36
765.63	41743.75
765.82	42009.98
766.00	42280.31
766.18	42524.02
766.37	42567.03
766.55	42227.07
766.74	42227.07
766.92	42184.06
767.10	42431.86
767.29	42272.12
767.47	41454.98
767.65	42159.48
767.84	41827.71
768.02	42001.79
768.20	41627.01
768.39	41944.45
768.57	41739.65
768.75	41778.56
768.94	41590.15
769.12	41770.37
769.30	41657.73
769.49	41278.86
769.67	41401.74
769.85	41227.66
770.04	41465.22
770.22	40863.12
770.40	41506.18
770.59	41162.12
770.77	41323.91
770.95	41258.38
771.14	40949.14
771.32	41026.96
771.50	40738.19
771.69	41250.19
771.87	41301.39
772.05	40799.63
772.24	40654.23
772.42	40824.21
772.60	40715.67
772.78	40547.73
772.97	40521.11
773.15	41112.97
773.33	40732.05
773.52	40529.30
773.70	40344.98
773.88	40940.94
774.07	40379.80
774.25	40641.94
774.43	40721.81
774.61	40883.60
774.80	40775.06
774.98	40654.23
775.16	40865.17
775.34	41026.96
775.53	40639.89
775.71	40998.29
775.89	40506.77
776.08	40703.38
776.26	41108.88
776.44	41045.39
776.62	40922.51
776.81	40406.42
776.99	41203.08
777.17	40891.79
777.35	40662.42
777.54	41375.11
777.72	40938.90
777.90	40832.40
778.08	41229.71
778.27	40803.73
778.45	41346.44
778.63	41221.52
778.81	41182.60
779.00	41532.81
779.18	41139.60
779.36	41452.94
779.54	41278.86
779.73	40873.36
779.91	41346.44
780.09	40947.09
780.27	41026.96
780.46	41514.37
780.64	41340.30
780.82	41192.84
781.00	41366.92
781.19	41340.30
781.37	41715.08
781.55	41786.75
781.73	41645.44
781.91	41686.40
782.10	41602.44
782.28	41741.70
782.46	41657.73
782.64	42046.85
782.82	41465.22
783.01	41782.66
783.19	41790.85
783.37	41905.54
783.55	41745.80
783.74	41907.58
783.92	41530.76
784.10	41876.86
784.28	41911.68
784.46	41815.43
784.64	41645.44
784.83	42016.13
785.01	42167.68
785.19	41799.04
785.37	42069.37
785.55	41987.46
785.74	41528.71
785.92	41600.39
786.10	41999.74
786.28	41680.26
786.46	41735.56
786.64	41502.09
786.83	41321.87
787.01	41442.70
787.19	41411.98
787.37	41444.74
787.55	41776.51
787.74	41145.74
787.92	41332.11
788.10	41137.55
788.28	41151.88
788.46	41018.77
788.64	41067.92
788.82	41336.20
789.01	41055.63
789.19	41328.01
789.37	40891.79
789.55	40973.71
789.73	40623.51
789.91	41012.62
790.09	40791.44
790.28	40932.75
790.46	40228.25
790.64	40359.32
790.82	40394.14
791.00	40549.78
791.18	40254.87
791.36	40471.96
791.55	40396.18
791.73	40230.30
791.91	39851.42
792.09	40238.49
792.27	40230.30
792.45	40009.12
792.63	39876.00
792.81	39800.22
793.00	39744.93
793.18	39507.37
793.36	39511.46
793.54	39447.97
793.72	39429.54
793.90	39370.15
794.08	39423.40
794.26	39364.01
794.44	39015.85
794.62	38886.83
794.81	39249.32
794.99	38872.49
795.17	38761.90
795.35	39105.96
795.53	38712.75
795.71	38987.18
795.89	38671.79
796.07	38651.31
796.25	38553.01
796.43	38077.88
796.61	38200.76
796.80	38120.89
796.98	38235.58
797.16	38159.80
797.34	38321.59
797.52	37965.24
797.70	38088.12
797.88	37588.42
798.06	37553.60
798.24	37434.82
798.42	37688.77
798.60	37203.40
798.78	37240.26
798.96	37277.13
799.14	37141.96
799.32	37461.44
799.51	36746.70
799.69	37381.57
799.87	37111.24
800.05	36556.24
800.23	36781.52
800.41	36732.37
800.59	36578.77
800.77	36414.93
800.95	36228.57
801.13	36627.92
801.31	36290.01
801.49	36636.11
801.67	36402.64
801.85	35974.62
802.03	35728.86
802.21	35546.59
802.39	35767.77
802.57	35757.53
802.75	35626.46
802.93	35732.96
803.11	35304.93
803.29	35575.27
803.47	35349.99
803.65	35202.53
803.83	35452.39
804.01	35231.21
804.19	35124.71
804.37	35079.66
804.55	35188.20
804.73	35014.12
804.91	34821.61
805.09	34854.38
805.27	34829.80
805.45	34784.75
805.63	34729.45
805.81	34668.02
805.99	34522.61
806.17	34577.90
806.35	34182.65
806.53	34106.87
806.71	34403.83
806.89	34295.28
807.07	33912.31
807.25	33928.70
807.43	33541.63
807.61	34266.61
807.79	33789.44
807.97	33621.50
808.15	33355.27
808.33	33062.41
808.51	33627.65
808.69	33476.10
808.87	32738.83
809.05	33152.52
809.23	33140.23
809.41	32937.48
809.59	32937.48
809.77	32818.70
809.95	32689.68
810.13	32857.61
810.31	32648.72
810.49	32822.80
810.67	32618.00
810.84	32800.27
811.02	32378.39
811.20	32284.18
811.38	32470.54
811.56	32224.79
811.74	32079.38
811.92	32032.28
812.10	32079.38
812.28	32284.18
812.46	32230.93
812.64	32030.23
812.82	31958.55
813.00	32036.38
813.18	32196.12
813.36	31792.67
813.53	31680.03
813.71	31712.80
813.89	31731.23
814.07	31772.19
814.25	31587.87
814.43	31692.32
814.61	31219.24
814.79	31395.36
814.97	31104.55
815.15	31518.24
815.33	30969.38
815.50	30938.66
815.68	31268.39
815.86	31079.97
816.04	30817.83
816.22	30754.35
816.40	30811.69
816.58	30748.20
816.76	30924.33
816.94	30524.97
817.11	30883.37
817.29	30459.44
817.47	30119.48
817.65	30363.18
817.83	30359.09
818.01	30510.64
818.19	30723.63
818.37	30430.77
818.54	30277.17
818.72	29871.67
818.90	30105.14
819.08	30273.07
819.26	29873.72
819.44	29931.06
819.62	29961.78
819.80	29929.02
819.97	29640.25
820.15	29595.20
820.33	29685.31
820.51	29625.92
820.69	29175.36
820.87	29240.90
821.05	29689.40
821.22	29460.03
821.40	29374.02
821.58	29337.15
821.76	29513.28
821.94	29337.15
822.12	29208.13
822.29	29257.28
822.47	29230.66
822.65	29324.86
822.83	29414.98
823.01	29318.72
823.19	28804.68
823.36	29042.24
823.54	28821.06
823.72	28812.87
823.90	28976.71
824.08	28593.74
824.25	28915.27
824.43	28751.43
824.61	29072.96
824.79	28929.61
824.97	28352.08
825.15	28644.94
825.32	28440.14
825.50	28108.37
825.68	28214.87
825.86	28526.16
826.04	28474.96
826.21	28337.74
826.39	28202.58
826.57	28114.52
826.75	28126.80
826.93	27809.37
827.10	28083.80
827.28	28001.88
827.46	28274.26
827.64	27887.19
827.81	27924.05
827.99	27772.50
828.17	27465.31
828.35	27653.72
828.53	27672.15
828.70	27762.26
828.88	27571.80
829.06	27600.47
829.24	27522.65
829.41	27346.53
829.59	27592.28
829.77	27477.60
829.95	27211.36
830.12	27387.49
830.30	27543.13
830.48	27410.01
830.66	27168.35
830.84	27180.64
831.01	26953.32
831.19	27203.17
831.37	27037.28
831.55	26736.23
831.72	26998.37
831.90	26981.99
832.08	26818.15
832.25	26697.32
832.43	26596.97
832.61	27106.91
832.79	26816.10
832.96	26328.69
833.14	26748.52
833.32	26572.39
833.50	26558.06
833.67	26691.18
833.85	26324.59
834.03	26015.35
834.20	26576.49
834.38	26533.48
834.56	26449.52
834.74	26306.16
834.91	26220.14
835.09	26222.19
835.27	25831.03
835.44	26050.16
835.62	25790.07
835.80	26021.49
835.98	25994.87
836.15	26046.07
836.33	25962.10
836.51	26166.90
836.68	25898.61
836.86	25788.02
837.04	25853.56
837.21	25783.93
837.39	25833.08
837.57	25788.02
837.75	25853.56
837.92	25695.86
838.10	25476.73
838.28	25484.92
838.45	25552.51
838.63	25534.07
838.81	25605.75
838.98	25611.90
839.16	25079.43
839.34	25302.65
839.51	25200.26
839.69	25124.48
839.87	25296.51
840.04	25167.49
840.22	25570.94
840.40	25167.49
840.57	24839.81
840.75	24991.36
840.93	24802.95
841.10	24714.89
841.28	25214.59
841.46	24608.39
841.63	25101.95
841.81	24999.55
841.98	24737.41
842.16	24649.35
842.34	24923.78
842.51	24600.20
842.69	24852.10
842.87	24536.71
843.04	24977.03
843.22	24452.75
843.40	24489.61
843.57	24467.08
843.75	24338.06
843.92	24510.09
844.10	24622.73
844.28	24612.49
844.45	24886.92
844.63	24622.73
844.81	24237.71
844.98	24569.48
845.16	24067.73
845.33	24344.20
845.51	24551.05
845.69	24200.85
845.86	23817.88
846.04	23826.07
846.21	24278.67
846.39	24104.59
846.57	23879.32
846.74	23873.17
846.92	23838.36
847.09	23905.94
847.27	23819.92
847.45	24067.73
847.62	24002.19
847.80	23758.49
847.97	23774.87
848.15	23733.91
848.32	23783.06
848.50	23778.97
848.68	23314.08
848.85	23641.75
849.03	23551.64
849.20	23226.01
849.38	23600.79
849.56	23482.01
849.73	23387.80
849.91	23228.06
850.08	23582.36
850.26	23140.00
850.43	23312.03
850.61	23195.29
850.78	22830.76
850.96	23240.35
851.14	22853.28
851.31	23027.36
851.49	22920.87
851.66	22998.69
851.84	22998.69
852.01	22933.15
852.19	22961.83
852.36	23133.86
852.54	22722.21
852.71	22927.01
852.89	22982.31
853.07	22609.58
853.24	22869.67
853.42	22808.23
853.59	22668.97
853.77	22806.18
853.94	22779.56
854.12	22847.14
854.29	22255.28
854.47	22511.27
854.64	22382.25
854.82	22568.62
854.99	22562.47
855.17	22406.83
855.34	22554.28
855.52	22693.54
855.69	22711.97
855.87	22245.04
856.04	22310.57
856.22	22423.21
856.39	22189.74
856.57	22249.13
856.74	22001.33
856.92	21886.64
857.09	22019.76
857.27	21837.49
857.44	22275.76
857.62	21982.90
857.79	22165.17
857.97	22019.76
858.14	22036.14
858.32	21915.31
858.49	21599.93
858.67	21614.26
858.84	21806.77
859.02	21814.96
859.19	21862.07
859.37	21771.96
859.54	21651.13
859.72	21595.83
859.89	21817.01
860.06	21642.93
860.24	21712.56
860.41	21661.37
860.59	21587.64
860.76	21526.20
860.94	20887.23
861.11	21534.39
861.29	21204.67
861.46	21444.28
861.64	21118.65
861.81	20967.10
861.98	21165.76
862.16	21180.09
862.33	20995.78
862.51	21057.21
862.68	21171.90
862.86	21006.02
863.03	21022.40
863.21	20930.24
863.38	21122.75
863.55	20543.17
863.73	20985.54
863.90	20836.03
864.08	20850.37
864.25	20483.78
864.43	21020.35
864.60	20700.87
864.77	20561.61
864.95	20676.29
865.12	20586.18
865.30	20659.91
865.47	20399.82
865.64	20461.26
865.82	20725.44
865.99	20653.76
866.17	20389.58
866.34	20418.25
866.51	20428.49
866.69	20469.45
866.86	20772.55
867.04	20319.95
867.21	20389.58
867.38	20072.14
867.56	19830.48
867.73	19838.67
867.91	20203.21
868.08	19916.50
868.25	19930.83
868.43	19963.60
868.60	19824.34
868.78	19590.87
868.95	19916.50
869.12	19990.22
869.30	19893.97
869.47	19846.87
869.64	19766.99
869.82	19871.44
869.99	19723.99
870.16	20014.80
870.34	19740.37
870.51	19656.40
870.69	19384.02
870.86	19490.52
871.03	19527.38
871.21	19357.40
871.38	19494.61
871.55	19345.11
871.73	19435.22
871.90	19474.13
872.07	19275.48
872.25	19250.91
872.42	19154.65
872.59	19248.86
872.77	19140.32
872.94	19279.58
873.11	19091.16
873.29	19177.18
873.46	19160.80
873.63	18912.99
873.81	19031.77
873.98	18691.81
874.15	18566.88
874.33	18605.80
874.50	18599.65
874.67	18570.98
874.85	18499.30
875.02	18622.18
875.19	18386.66
875.37	18550.50
875.54	18482.92
875.71	18540.26
875.88	18288.36
876.06	18392.81
876.23	18472.68
876.40	18116.33
876.58	18308.84
876.75	18263.79
876.92	17936.11
877.10	18276.07
877.27	18110.19
877.44	17911.53
877.61	17975.02
877.79	17993.45
877.96	17991.41
878.13	17891.06
878.31	17764.08
878.48	17841.90
878.65	17559.28
878.82	17839.86
879.00	17850.10
879.17	17678.07
879.34	17825.52
879.51	17573.62
879.69	17606.39
879.86	17489.65
880.03	17401.59
880.21	17499.89
880.38	17377.01
880.55	17649.39
880.72	17340.15
880.90	17536.76
881.07	17137.40
881.24	17497.84
881.41	17649.39
881.59	17057.53
881.76	17204.99
881.93	17080.06
882.10	16963.33
882.28	17006.33
882.45	16963.33
882.62	17184.51
882.79	17086.20
882.96	16889.60
883.14	16998.14
883.31	17086.20
883.48	17010.43
883.65	17000.19
883.83	17123.07
884.00	16824.06
884.17	16824.06
884.34	16813.82
884.51	16938.75
884.69	16998.14
884.86	17047.29
885.03	16723.71
885.20	16586.50
885.38	16754.43
885.55	16717.57
885.72	16811.78
885.89	16461.57
886.06	16668.42
886.24	16695.04
886.41	16746.24
886.58	16815.87
886.75	16572.16
886.92	16586.50
887.10	16520.96
887.27	16305.93
887.44	16578.31
887.61	16695.04
887.78	16531.20
887.95	16545.54
888.13	16035.60
888.30	16084.75
888.47	16312.07
888.64	16291.59
888.81	16303.88
888.99	16070.41
889.16	15791.89
889.33	15945.48
889.50	16076.55
889.67	16191.24
889.84	16121.61
890.01	16006.92
890.19	15984.40
890.36	15851.28
890.53	15793.94
890.70	15834.89
890.87	15886.09
891.04	16097.03
891.22	15789.84
891.39	15877.90
891.56	15841.04
891.73	15830.80
891.90	15877.90
892.07	15509.27
892.24	15511.32
892.42	15779.60
892.59	15705.87
892.76	15595.28
892.93	15404.82
893.10	15619.86
893.27	15755.02
893.44	15306.52
893.61	15417.11
893.79	15681.30
893.96	15632.15
894.13	15349.53
894.30	15492.88
894.47	15640.34
894.64	15609.62
894.81	15410.96
894.98	15320.85
895.15	15476.50
895.33	15281.94
895.50	15230.74
895.67	15466.26
895.84	15322.90
896.01	15353.62
896.18	15189.78
896.35	15308.57
896.52	15232.79
896.69	14950.17
896.86	15296.28
897.04	15222.55
897.21	15470.36
897.38	15011.61
897.55	15435.54
897.72	15234.84
897.89	15212.31
898.06	15236.89
898.23	15079.19
898.40	15062.81
898.57	15128.35
898.74	15109.91
898.91	15240.98
899.08	15179.54
899.26	15103.77
899.43	15071.00
899.60	15126.30
899.77	15132.44
899.94	15191.83
900.11	15210.26
900.28	15310.61
900.45	15019.80
900.62	15109.91
900.79	15290.13
900.96	15423.25
901.13	15109.91
901.30	15228.70
901.47	15245.08
901.64	15234.84
901.81	15175.45
901.98	15052.57
902.15	15357.72
902.32	15105.82
902.49	15138.58
902.66	15136.54
902.83	15142.68
903.01	15114.01
903.18	15232.79
903.35	14956.32
903.52	15152.92
903.69	15296.28
903.86	15060.76
904.03	15126.30
904.20	15111.96
904.37	15343.38
904.54	14970.65
904.71	15050.52
904.88	14935.84
905.05	15011.61
905.22	15111.96
905.39	14939.93
905.56	14984.99
905.73	14958.36
905.90	15107.87
906.07	14913.31
906.24	14880.54
906.41	15023.90
906.58	15298.33
906.75	15165.21
906.92	14851.87
907.09	15118.11
907.26	14855.97
907.43	14962.46
907.60	14864.16
907.77	15007.52
907.93	14987.04
908.10	15023.90
908.27	14950.17
908.44	14923.55
908.61	14933.79
908.78	14802.72
908.95	15030.04
909.12	14884.64
909.29	14989.08
909.46	14862.11
909.63	15058.71
909.80	14860.06
909.97	14921.50
910.14	14974.75
910.31	14843.68
910.48	14950.17
910.65	14892.83
910.82	14688.03
910.99	14888.73
911.16	14724.90
911.33	14817.05
911.50	14868.25
911.66	14661.41
911.83	14749.47
912.00	14763.81
912.17	14589.73
912.34	14403.36
912.51	14608.16
912.68	14642.98
912.85	14389.03
913.02	14497.57
913.19	14479.14
913.36	14524.19
913.53	14524.19
913.70	14466.85
913.86	14706.46
914.03	14489.38
914.20	14450.47
914.37	14335.78
914.54	14286.63
914.71	14479.14
914.88	14225.19
915.05	14237.48
915.22	14364.45
915.39	14202.66
915.55	14145.32
915.72	14352.16
915.89	13999.91
916.06	14128.94
916.23	14102.31
916.40	13831.98
916.57	13891.37
916.74	13985.58
916.91	13922.09
917.07	13653.81
917.24	13690.67
917.41	13514.55
917.58	13936.43
917.75	13844.27
917.92	13365.04
918.09	13635.38
918.26	13623.09
918.42	13731.63
918.59	13655.86
918.76	13389.62
918.93	13313.84
919.10	13342.52
919.27	13117.24
919.44	13283.13
919.60	13332.28
919.77	13373.24
919.94	13244.21
920.11	13291.32
920.28	13236.02
920.45	13082.42
920.61	13057.85
920.78	12867.39
920.95	13154.10
921.12	13111.10
921.29	12869.44
921.46	12764.99
921.62	12760.89
921.79	12920.63
921.96	12760.89
922.13	12816.19
922.30	12508.99
922.47	12703.55
922.63	12709.69
922.80	12666.69
922.97	12746.56
923.14	12250.95
923.31	12631.87
923.47	12193.61
923.64	12351.30
923.81	12275.52
923.98	12250.95
924.15	12349.25
924.32	12083.02
924.48	12109.64
924.65	12160.84
924.82	11837.26
924.99	11865.93
925.15	11827.02
925.32	12132.17
925.49	11751.24
925.66	11798.35
925.83	11685.71
925.99	11784.01
926.16	11775.82
926.33	11695.95
926.50	11540.30
926.67	11663.18
926.83	11577.17
927.00	11548.50
927.17	11589.46
927.34	11153.24
927.50	11347.79
927.67	11382.61
927.84	11292.50
928.01	11208.53
928.17	11034.46
928.34	11013.98
928.51	11071.32
928.68	11153.24
928.84	11108.18
929.01	10983.26
929.18	10790.75
929.35	10725.21
929.51	10872.67
929.68	10549.09
929.85	10729.31
930.02	10684.25
930.18	10520.42
930.35	10559.33
930.52	10569.57
930.69	10594.14
930.85	10565.47
931.02	10434.40
931.19	10514.27
931.36	10303.33
931.52	10215.27
931.69	10379.11
931.86	10102.63
932.02	9994.09
932.19	10127.21
932.36	10207.08
932.53	9934.70
932.69	9756.52
932.86	10092.39
933.03	9858.92
933.19	9768.81
933.36	9910.12
933.53	9955.18
933.70	9727.85
933.86	9770.86
934.03	9750.38
934.20	9572.21
934.36	9744.24
934.53	9355.12
934.70	9262.96
934.86	9191.28
935.03	9179.00
935.20	9314.16
935.36	9011.06
935.53	8978.30
935.70	8890.23
935.86	8859.51
936.03	8677.24
936.20	8658.81
936.36	8638.33
936.53	8734.59
936.70	8716.16
936.86	8650.62
937.03	8490.88
937.20	8355.71
937.36	8290.18
937.53	7995.27
937.70	8120.20
937.86	7954.31
938.03	7962.50
938.20	7995.27
938.36	7688.07
938.53	7755.66
938.70	7421.84
938.86	7600.01
939.03	7415.69
939.20	7227.28
939.36	7307.15
939.53	7202.71
939.70	7468.94
939.86	7030.68
940.03	7032.72
940.19	6930.33
940.36	6922.13
940.53	6864.79
940.69	6598.56
940.86	6567.84
941.03	6659.99
941.19	6360.99
941.36	6416.29
941.52	6375.33
941.69	6404.00
941.86	6225.82
942.02	6219.68
942.19	6111.14
942.35	6135.71
942.52	6053.80
942.69	6094.76
942.85	5863.33
943.02	5900.20
943.18	5935.01
943.35	6012.84
943.52	5734.31
943.68	5861.29
943.85	5738.41
944.01	5631.91
944.18	5719.98
944.35	5742.50
944.51	5631.91
944.68	5377.97
944.84	5605.29
945.01	5597.10
945.17	5490.60
945.34	5504.94
945.51	5400.49
945.67	5408.69
945.84	5509.04
946.00	5236.66
946.17	5406.64
946.33	5453.74
946.50	5506.99
946.67	5304.24
946.83	5406.64
947.00	5310.38
947.16	5423.02
947.33	5250.99
947.49	5357.49
947.66	5197.74
947.82	5408.69
947.99	5201.84
948.16	5418.93
948.32	5324.72
948.49	5459.88
948.65	5468.08
948.82	5441.45
948.98	5222.32
949.15	5240.75
949.31	5390.25
949.48	5230.51
949.64	5275.57
949.81	5248.94
949.97	5308.34
950.14	5388.21
950.30	5224.37
950.47	5429.17
950.63	5300.14
950.80	5349.29
950.96	5341.10
951.13	5416.88
951.30	5330.86
951.46	5427.12
951.63	5480.36
951.79	5539.76
951.96	5443.50
952.12	5394.35
952.29	5470.12
952.45	5261.23
952.62	5339.05
952.78	5386.16
952.94	5484.46
953.11	5574.57
953.27	5486.51
953.44	5535.66
953.60	5396.40
953.77	5621.67
953.93	5556.14
954.10	5498.80
954.26	5463.98
954.43	5398.45
954.59	5603.24
954.76	5523.37
954.92	5504.94
955.09	5531.56
955.25	5509.04
955.42	5412.78
955.58	5664.68
955.75	5509.04
955.91	5423.02
956.07	5521.32
956.24	5390.25
956.40	5482.41
956.57	5535.66
956.73	5443.50
956.90	5494.70
957.06	5523.37
957.23	5525.42
957.39	5490.60
957.56	5443.50
957.72	5574.57
957.88	5502.89
958.05	5685.16
958.21	5615.53
958.38	5451.69
958.54	5498.80
958.71	5593.00
958.87	5400.49
959.03	5504.94
959.20	5502.89
959.36	5433.26
959.53	5435.31
959.69	5316.53
959.85	5560.24
960.02	5388.21
960.18	5539.76
960.35	5588.91
960.51	5525.42
960.68	5359.53
960.84	5425.07
961.00	5420.97
961.17	5509.04
961.33	5418.93
961.50	5537.71
961.66	5410.73
961.82	5406.64
961.99	5423.02
962.15	5435.31
962.31	5529.52
962.48	5590.95
962.64	5437.36
962.81	5470.12
962.97	5449.64
963.13	5638.06
963.30	5410.73
963.46	5470.12
963.62	5517.23
963.79	5359.53
963.95	5369.77
964.12	5443.50
964.28	5521.32
964.44	5447.60
964.61	5384.11
964.77	5453.74
964.93	5427.12
965.10	5339.05
965.26	5341.10
965.42	5420.97
965.59	5369.77
965.75	5277.62
965.92	5406.64
966.08	5361.58
966.24	5386.16
966.41	5218.22
966.57	5429.17
966.73	5263.28
966.90	5429.17
967.06	5431.21
967.22	5314.48
967.39	5357.49
967.55	5369.77
967.71	5240.75
967.88	5271.47
968.04	5216.18
968.20	5181.36
968.37	5167.03
968.53	5212.08
968.69	5244.85
968.85	5324.72
969.02	5246.90
969.18	5273.52
969.34	5097.39
969.51	5187.50
969.67	5300.14
969.83	5015.48
970.00	5201.84
970.16	5072.82
970.32	5177.26
970.48	5416.88
970.65	5091.25
970.81	5191.60
970.97	5054.39
971.14	4927.41
971.30	5183.41
971.46	5038.00
971.63	4986.80
971.79	5140.40
971.95	5033.91
972.11	4974.52
972.28	4927.41
972.44	5101.49
972.60	4861.88
972.76	5011.38
972.93	4933.56
973.09	5052.34
973.25	4997.04
973.42	4919.22
973.58	4908.98
973.74	4898.74
973.90	5027.76
974.07	4868.02
974.23	4988.85
974.39	4906.93
974.55	4831.16
974.72	4853.69
974.88	4722.62
975.04	4808.63
975.20	4681.66
975.37	4757.43
975.53	4800.44
975.69	4851.64
975.85	4831.16
976.01	4796.34
976.18	4745.14
976.34	4724.66
976.50	4855.73
976.66	4788.15
976.83	4704.18
976.99	4603.83
977.15	4657.08
977.31	4581.31
977.47	4800.44
977.64	4788.15
977.80	4720.57
977.96	4685.75
978.12	4640.70
978.29	4444.09
978.45	4663.22
978.61	4665.27
978.77	4652.98
978.93	4579.26
979.10	4689.85
979.26	4515.77
979.42	4665.27
979.58	4548.54
979.74	4493.24
979.91	4560.83
980.07	4540.35
980.23	4620.22
980.39	4503.48
980.55	4509.63
980.71	4366.27
980.88	4425.66
981.04	4409.28
981.20	4474.81
981.36	4298.69
981.52	4419.52
981.68	4376.51
981.85	4523.96
982.01	4462.52
982.17	4308.93
982.33	4382.65
982.49	4448.19
982.65	4390.84
982.82	4382.65
982.98	4308.93
983.14	4259.78
983.30	4362.17
983.46	4454.33
983.62	4329.41
983.79	4190.14
983.95	4214.72
984.11	4222.91
984.27	4286.40
984.43	4374.46
984.59	4214.72
984.75	4249.54
984.91	4147.14
985.08	4349.89
985.24	4075.46
985.40	4106.18
985.56	4161.47
985.72	4157.38
985.88	4114.37
986.04	4153.28
986.20	4132.80
986.37	4202.43
986.53	4120.51
986.69	4032.45
986.85	4042.69
987.01	4102.08
987.17	4145.09
987.33	4050.88
987.49	3991.49
987.65	3987.40
987.82	3993.54
987.98	3844.04
988.14	4040.64
988.30	3995.59
988.46	3964.87
988.62	4009.92
988.78	3971.01
988.94	4046.79
989.10	3932.10
989.26	3846.09
989.42	3858.37
989.59	3807.17
989.75	3856.33
989.91	3985.35
990.07	3784.65
990.23	3768.26
990.39	3774.41
990.55	3790.79
990.71	3860.42
990.87	3911.62
991.03	3723.21
991.19	3784.65
991.35	3807.17
991.51	3831.75
991.67	3876.80
991.83	3772.36
992.00	3651.53
992.16	3819.46
992.32	3710.92
992.48	3798.98
992.64	3645.38
992.80	3768.26
992.96	3694.54
993.12	3760.07
993.28	3743.69
993.44	3620.81
993.60	3692.49
993.76	3667.91
993.92	3747.78
994.08	3653.58
994.24	3735.50
994.40	3639.24
994.56	3596.23
994.72	3571.66
994.88	3581.90
995.04	3622.86
995.20	3569.61
995.36	3645.38
995.52	3596.23
995.68	3583.95
995.84	3540.94
996.00	3686.34
996.16	3571.66
996.32	3469.26
996.48	3450.83
996.64	3588.04
996.80	3520.46
996.96	3526.60
997.12	3512.27
997.28	3299.28
997.44	3434.44
997.60	3336.14
997.76	3399.63
997.92	3438.54
998.08	3411.92
998.24	3391.44
998.40	3452.88
998.56	3502.03
998.72	3274.70
998.88	3295.18
999.04	3354.57
999.20	3383.24
999.36	3370.96
999.52	3385.29
999.68	3227.60
999.84	3356.62
1000.00	3340.24
1000.16	3317.71
1000.32	3264.46
1000.48	3438.54
1000.64	3192.78
1000.80	3155.92
1000.95	3157.97
1001.11	3233.74
1001.27	3182.54
1001.43	3252.17
1001.59	3211.22
1001.75	3162.06
1001.91	3262.41
1002.07	3030.99
1002.23	3108.82
1002.39	3084.24
1002.55	3082.19
1002.71	3121.10
1002.87	3135.44
1003.03	3125.20
1003.19	3086.29
1003.34	3123.15
1003.50	3119.06
1003.66	3131.34
1003.82	3176.40
1003.98	3074.00
1004.14	3092.43
1004.30	2996.18
1004.46	2998.23
1004.62	3045.33
1004.78	3033.04
1004.94	3061.71
1005.09	3063.76
1005.25	3088.34
1005.41	2940.88
1005.57	2985.94
1005.73	3028.95
1005.89	2959.31
1006.05	2998.23
1006.21	3018.71
1006.37	2953.17
1006.52	3012.56
1006.68	2895.83
1006.84	2871.25
1007.00	2897.88
1007.16	3063.76
1007.32	2920.40
1007.48	2895.83
1007.64	2889.68
1007.79	2822.10
1007.95	2803.67
1008.11	2967.51
1008.27	2877.40
1008.43	2891.73
1008.59	2834.39
1008.75	2904.02
1008.91	2875.35
1009.06	2766.81
1009.22	2783.19
1009.38	2807.77
1009.54	2877.40
1009.70	2789.33
1009.86	2830.29
1010.01	2828.24
1010.17	2801.62
1010.33	2787.29
1010.49	2787.29
1010.65	2885.59
1010.81	2705.37
1010.96	2740.18
1011.12	2723.80
1011.28	2635.74
1011.44	2744.28
1011.60	2777.05
1011.76	2641.88
1011.91	2772.95
1012.07	2705.37
1012.23	2574.30
1012.39	2674.65
1012.55	2791.38
1012.71	2648.02
1012.86	2666.46
1013.02	2738.13
1013.18	2629.59
1013.34	2566.10
1013.50	2611.16
1013.65	2699.22
1013.81	2514.91
1013.97	2578.39
1014.13	2652.12
1014.29	2602.97
1014.44	2699.22
1014.60	2519.00
1014.76	2510.81
1014.92	2537.43
1015.07	2568.15
1015.23	2639.83
1015.39	2584.54
1015.55	2508.76
1015.71	2570.20
1015.86	2510.81
1016.02	2547.67
1016.18	2478.04
1016.34	2435.03
1016.49	2502.62
1016.65	2613.21
1016.81	2510.81
1016.97	2449.37
1017.12	2496.47
1017.28	2498.52
1017.44	2394.08
1017.60	2437.08
1017.75	2451.42
1017.91	2447.32
1018.07	2435.03
1018.23	2475.99
1018.38	2463.71
1018.54	2445.27
1018.70	2428.89
1018.86	2394.08
1019.01	2410.46
1019.17	2414.56
1019.33	2451.42
1019.49	2412.51
1019.64	2492.38
1019.80	2406.36
1019.96	2340.83
1020.12	2344.92
1020.27	2394.08
1020.43	2412.51
1020.59	2375.64
1020.74	2375.64
1020.90	2437.08
1021.06	2387.93
1021.22	2332.64
1021.37	2291.68
1021.53	2316.25
1021.69	2410.46
1021.84	2289.63
1022.00	2359.26
1022.16	2281.44
1022.31	2267.10
1022.47	2353.12
1022.63	2375.64
1022.79	2248.67
1022.94	2281.44
1023.10	2402.27
1023.26	2250.72
1023.41	2263.01
1023.57	2299.87
1023.73	2312.16
1023.88	2232.29
1024.04	2170.85
1024.20	2205.66
1024.35	2248.67
1024.51	2174.94
1024.67	2205.66
1024.82	2291.68
1024.98	2189.28
1025.14	2246.62
1025.29	2146.27
1025.45	2224.09
1025.61	2148.32
1025.76	2144.22
1025.92	2154.46
1026.08	2213.85
1026.23	2320.35
1026.39	2148.32
1026.55	2154.46
1026.70	2131.94
1026.86	2203.61
1027.02	2195.42
1027.17	2234.33
1027.33	2176.99
1027.48	2127.84
1027.64	2121.70
1027.80	2084.83
1027.95	2150.37
1028.11	2025.44
1028.27	2162.66
1028.42	2168.80
1028.58	2088.93
1028.73	2095.07
1028.89	2047.97
1029.05	2289.63
1029.20	2193.37
>>>>>End Processed Spectral Data<<<<<
