SpectraSuite Data File
++++++++++++++++++++++++++++++++++++
Date: Fri Jun 02 14:49:28 CEST 2017
User: INFO_000
Dark Spectrum Present: No
Reference Spectrum Present: No
Number of Sampled Component Spectra: 1
Spectrometers: USB4H00879
Integration Time (usec): 80000 (USB4H00879)
Spectra Averaged: 1 (USB4H00879)
Boxcar Smoothing: 0 (USB4H00879)
Correct for Electrical Dark: No (USB4H00879)
Strobe/Lamp Enabled: No (USB4H00879)
Correct for Detector Non-linearity: No (USB4H00879)
Correct for Stray Light: No (USB4H00879)
Number of Pixels in Processed Spectrum: 3648
>>>>>Begin Processed Spectral Data<<<<<
345.13	1210.35
345.34	1210.35
345.56	1210.35
345.78	1245.16
345.99	1241.07
346.21	1626.09
346.42	1718.25
346.64	1673.19
346.86	1814.50
347.07	1667.05
347.29	1667.05
347.50	1644.52
347.72	1728.49
347.94	1787.88
348.15	1662.95
348.37	1597.42
348.59	1720.29
348.80	1654.76
349.02	1808.36
349.23	1863.65
349.45	1867.75
349.67	1951.71
349.88	1845.22
350.10	1976.29
350.31	1830.88
350.53	1722.34
350.75	2004.96
350.96	1779.68
351.18	1886.18
351.39	1791.97
351.61	1759.21
351.82	1863.65
352.04	1916.90
352.26	1837.03
352.47	1890.28
352.69	1828.84
352.90	1818.60
353.12	1837.03
353.34	1884.13
353.55	1904.61
353.77	1929.19
353.98	1828.84
354.20	1906.66
354.41	1902.56
354.63	1937.38
354.85	2011.11
355.06	1953.76
355.28	1722.34
355.49	1904.61
355.71	1845.22
355.92	1871.84
356.14	1849.32
356.35	1884.13
356.57	1806.31
356.79	1880.04
357.00	1912.80
357.22	1908.71
357.43	1859.56
357.65	2004.96
357.86	1882.08
358.08	1832.93
358.29	1933.28
358.51	1992.67
358.72	1900.52
358.94	1875.94
359.16	1955.81
359.37	1910.75
359.59	1953.76
359.80	1970.15
360.02	1865.70
360.23	2043.87
360.45	1968.10
360.66	1959.91
360.88	1908.71
361.09	1968.10
361.31	1886.18
361.52	1974.24
361.74	2052.06
361.95	2076.64
362.17	1957.86
362.38	2019.30
362.60	2004.96
362.81	2002.91
363.03	1920.99
363.24	1976.29
363.46	2035.68
363.67	2035.68
363.89	1998.82
364.10	2004.96
364.32	1957.86
364.53	2011.11
364.75	1912.80
364.96	2052.06
365.18	2035.68
365.39	1966.05
365.61	1933.28
365.82	2101.22
366.04	1941.47
366.25	1918.95
366.47	1933.28
366.68	2037.73
366.90	2002.91
367.11	2027.49
367.33	2050.02
367.54	2027.49
367.76	2021.35
367.97	2060.26
368.19	2027.49
368.40	2052.06
368.62	1968.10
368.83	1970.15
369.05	2121.70
369.26	2045.92
369.48	1925.09
369.69	2000.87
369.91	2066.40
370.12	2070.50
370.33	2144.22
370.55	1988.58
370.76	2109.41
370.98	2066.40
371.19	2033.63
371.41	2035.68
371.62	2082.78
371.84	2023.39
372.05	2209.76
372.27	2084.83
372.48	2099.17
372.69	2037.73
372.91	2041.82
373.12	2140.13
373.34	2166.75
373.55	2142.18
373.77	2111.46
373.98	2035.68
374.20	2174.94
374.41	2242.53
374.62	2189.28
374.84	2156.51
375.05	2242.53
375.27	2238.43
375.48	2201.57
375.70	2115.55
375.91	2166.75
376.12	2226.14
376.34	2095.07
376.55	2076.64
376.77	2131.94
376.98	2068.45
377.19	2168.80
377.41	2179.04
377.62	2293.72
377.84	2176.99
378.05	2346.97
378.27	2226.14
378.48	2269.15
378.69	2289.63
378.91	2301.92
379.12	2271.20
379.34	2142.18
379.55	2277.34
379.76	2279.39
379.98	2209.76
380.19	2228.19
380.41	2279.39
380.62	2314.20
380.83	2215.90
381.05	2201.57
381.26	2406.36
381.47	2189.28
381.69	2334.68
381.90	2377.69
382.12	2310.11
382.33	2236.38
382.54	2269.15
382.76	2363.36
382.97	2314.20
383.19	2181.09
383.40	2445.27
383.61	2260.96
383.83	2258.91
384.04	2351.07
384.25	2392.03
384.47	2334.68
384.68	2299.87
384.89	2385.88
385.11	2322.40
385.32	2330.59
385.54	2297.82
385.75	2273.25
385.96	2373.60
386.18	2406.36
386.39	2467.80
386.60	2318.30
386.82	2428.89
387.03	2377.69
387.24	2469.85
387.46	2432.99
387.67	2480.09
387.88	2543.58
388.10	2435.03
388.31	2475.99
388.52	2525.15
388.74	2519.00
388.95	2441.18
389.16	2428.89
389.38	2576.34
389.59	2535.39
389.80	2580.44
390.02	2559.96
390.23	2576.34
390.44	2529.24
390.66	2535.39
390.87	2387.93
391.08	2514.91
391.30	2736.09
391.51	2605.02
391.72	2699.22
391.94	2711.51
392.15	2525.15
392.36	2574.30
392.58	2549.72
392.79	2748.37
393.00	2662.36
393.22	2699.22
393.43	2678.74
393.64	2813.91
393.85	2756.57
394.07	2613.21
394.28	2705.37
394.49	2764.76
394.71	2740.18
394.92	2793.43
395.13	2701.27
395.35	2721.75
395.56	2785.24
395.77	2777.05
395.98	2793.43
396.20	2801.62
396.41	2854.87
396.62	2873.30
396.84	2807.77
397.05	2785.24
397.26	2863.06
397.47	2895.83
397.69	2787.29
397.90	3004.37
398.11	2928.60
398.32	2969.55
398.54	2785.24
398.75	2891.73
398.96	2865.11
399.18	3010.51
399.39	2987.99
399.60	2893.78
399.81	2961.36
400.03	2901.97
400.24	3149.78
400.45	2912.21
400.66	3028.95
400.88	2938.84
401.09	3170.26
401.30	3108.82
401.51	3078.10
401.73	3057.62
401.94	3061.71
402.15	3174.35
402.36	3151.82
402.58	3153.87
402.79	3196.88
403.00	3217.36
403.21	3186.64
403.43	3262.41
403.64	3284.94
403.85	3043.28
404.06	3258.32
404.27	3071.95
404.49	3293.13
404.70	3147.73
404.91	3301.33
405.12	3295.18
405.34	3264.46
405.55	3422.16
405.76	3078.10
405.97	3239.89
406.19	3338.19
406.40	3219.41
406.61	3342.28
406.82	3340.24
407.03	3311.57
407.25	3303.37
407.46	3448.78
407.67	3321.81
407.88	3424.20
408.09	3342.28
408.31	3321.81
408.52	3381.20
408.73	3338.19
408.94	3272.65
409.15	3383.24
409.37	3413.96
409.58	3454.92
409.79	3459.02
410.00	3502.03
410.21	3407.82
410.43	3387.34
410.64	3479.50
410.85	3508.17
411.06	3422.16
411.27	3549.13
411.48	3545.03
411.70	3456.97
411.91	3604.42
412.12	3639.24
412.33	3655.62
412.54	3688.39
412.76	3680.20
412.97	3631.05
413.18	3446.73
413.39	3608.52
413.60	3698.63
413.81	3665.86
414.03	3647.43
414.24	3610.57
414.45	3813.32
414.66	3553.23
414.87	3655.62
415.08	3680.20
415.30	3633.10
415.51	3755.97
415.72	3760.07
415.93	3721.16
416.14	3737.54
416.35	3866.56
416.56	3882.95
416.78	3676.10
416.99	3774.41
417.20	3723.21
417.41	3887.04
417.62	3887.04
417.83	3796.93
418.04	3932.10
418.26	3788.74
418.47	3825.61
418.68	4022.21
418.89	3878.85
419.10	4081.60
419.31	3860.42
419.52	3928.00
419.73	3844.04
419.95	4018.11
420.16	4030.40
420.37	3991.49
420.58	4067.27
420.79	3905.48
421.00	4005.83
421.21	4173.76
421.42	3975.11
421.63	4184.00
421.85	4118.47
422.06	4239.30
422.27	4077.51
422.48	4194.24
422.69	4153.28
422.90	4145.09
423.11	4188.10
423.32	4204.48
423.53	4505.53
423.75	4376.51
423.96	4476.86
424.17	4343.74
424.38	4493.24
424.59	4419.52
424.80	4591.55
425.01	4460.48
425.22	4274.11
425.43	4503.48
425.64	4642.75
425.85	4616.12
426.06	4493.24
426.28	4511.68
426.49	4460.48
426.70	4417.47
426.91	4427.71
427.12	4620.22
427.33	4741.05
427.54	4603.83
427.75	4745.14
427.96	4804.53
428.17	4730.81
428.38	4718.52
428.59	4945.84
428.80	4693.94
429.01	4878.26
429.23	4724.66
429.44	5031.86
429.65	5070.77
429.86	4990.90
430.07	4939.70
430.28	4804.53
430.49	4917.17
430.70	5025.72
430.91	5224.37
431.12	4960.18
431.33	5044.15
431.54	5263.28
431.75	5095.35
431.96	5060.53
432.17	5052.34
432.38	5064.63
432.59	5281.71
432.80	5308.34
433.01	5248.94
433.22	5244.85
433.43	5257.14
433.64	5302.19
433.85	5238.70
434.06	5461.93
434.27	5181.36
434.49	5529.52
434.70	5531.56
434.91	5429.17
435.12	5449.64
435.33	5482.41
435.54	5451.69
435.75	5306.29
435.96	5515.18
436.17	5345.20
436.38	5498.80
436.59	5564.33
436.80	5556.14
437.01	5724.07
437.22	5705.64
437.43	5547.95
437.64	5341.10
437.85	5746.60
438.06	5795.75
438.27	5633.96
438.48	5740.46
438.69	5828.52
438.90	5756.84
439.11	5742.50
439.32	5810.09
439.53	5834.66
439.74	5873.57
439.95	6029.22
440.16	5767.08
440.37	5892.01
440.57	5773.22
440.78	5935.01
440.99	6016.93
441.20	6053.80
441.41	5836.71
441.62	5955.49
441.83	5881.77
442.04	5863.33
442.25	6080.42
442.46	6016.93
442.67	6160.29
442.88	6549.40
443.09	5959.59
443.30	6059.94
443.51	6137.76
443.72	6295.46
443.93	6246.30
444.14	6285.22
444.35	6117.28
444.56	6322.08
444.77	6258.59
444.98	6254.50
445.19	6418.33
445.40	6266.78
445.61	6354.85
445.81	6516.64
446.02	6557.60
446.23	6377.37
446.44	6201.25
446.65	6719.39
446.86	6569.88
447.07	6614.94
447.28	6610.84
447.49	6705.05
447.70	6606.75
447.91	6410.14
448.12	6688.67
448.33	6858.65
448.54	6836.12
448.74	6635.42
448.95	6764.44
449.16	6608.80
449.37	6938.52
449.58	6801.30
449.79	6797.21
450.00	6639.51
450.21	6743.96
450.42	7053.20
450.63	6866.84
450.84	6991.77
451.05	6905.75
451.25	6993.81
451.46	6930.33
451.67	7155.60
451.88	7233.43
452.09	7045.01
452.30	7026.58
452.51	6911.89
452.72	7243.67
452.93	7466.89
453.13	7137.17
453.34	7149.46
453.55	7161.75
453.76	7278.48
453.97	7610.25
454.18	7354.26
454.39	7430.03
454.60	7475.09
454.81	7237.52
455.01	7591.82
455.22	7337.87
455.43	7423.89
455.64	7667.60
455.85	7716.75
456.06	7800.71
456.27	7688.07
456.48	7520.14
456.68	7853.96
456.89	7810.95
457.10	8042.37
457.31	7978.89
457.52	7821.19
457.73	7858.06
457.94	8073.09
458.14	7874.44
458.35	8355.71
458.56	8175.49
458.77	7868.30
458.98	8220.55
459.19	8200.07
459.39	8361.86
459.60	8302.47
459.81	8286.08
460.02	8499.07
460.23	8347.52
460.44	8734.59
460.65	8619.90
460.85	8566.65
461.06	8494.97
461.27	8531.84
461.48	8920.95
461.69	8959.86
461.89	8650.62
462.10	8775.55
462.31	8517.50
462.52	8896.38
462.73	8750.97
462.94	8943.48
463.14	8953.72
463.35	8914.81
463.56	9299.83
463.77	9338.74
463.98	9076.60
464.18	9222.00
464.39	9287.54
464.60	9361.27
464.81	9348.98
465.02	9373.55
465.23	9734.00
465.43	9725.80
465.64	9805.67
465.85	9592.69
466.06	9625.45
466.27	9969.51
466.47	9867.11
466.68	9969.51
466.89	10078.05
467.10	10098.53
467.30	9928.55
467.51	10002.28
467.72	10116.97
467.93	10186.60
468.14	10188.64
468.34	10295.14
468.55	10346.34
468.76	10456.93
468.97	10313.57
469.17	10708.83
469.38	10661.73
469.59	10817.37
469.80	10571.61
470.01	10860.38
470.21	10850.14
470.42	11016.02
470.63	11120.47
470.84	11093.85
471.04	11200.34
471.25	11280.21
471.46	11128.66
471.67	11468.62
471.87	11415.38
472.08	11491.15
472.29	11413.33
472.50	11396.95
472.70	11319.12
472.91	11659.09
473.12	11814.73
473.33	11896.65
473.53	12146.50
473.74	11894.60
473.95	11915.08
474.16	12339.01
474.36	12101.45
474.57	12410.69
474.78	12457.79
474.99	12349.25
475.19	12619.58
475.40	12797.76
475.61	12785.47
475.81	13080.38
476.02	13178.68
476.23	12986.17
476.44	13225.78
476.64	13201.21
476.85	13397.81
477.06	13385.52
477.27	13674.29
477.47	13684.53
477.68	13481.78
477.89	13934.38
478.09	13889.32
478.30	13877.04
478.51	13918.00
478.71	14055.21
478.92	14133.03
479.13	14393.12
479.34	14481.19
479.54	14448.42
479.75	14649.12
479.96	14628.64
480.16	14651.17
480.37	15060.76
480.58	14776.09
480.78	15263.51
480.99	15193.88
481.20	15378.20
481.41	15558.42
481.61	15359.77
481.82	15546.13
482.03	15337.24
482.23	15789.84
482.44	15648.53
482.65	15978.25
482.85	16011.02
483.06	15884.05
483.27	16088.84
483.47	16189.19
483.68	16447.24
483.89	16461.57
484.09	16363.27
484.30	16662.27
484.51	16606.98
484.71	16807.68
484.92	16688.90
485.13	16953.09
485.33	17190.65
485.54	16998.14
485.75	17307.38
485.95	17377.01
486.16	17379.06
486.37	17528.56
486.57	17377.01
486.78	17809.14
486.98	17596.15
487.19	17862.38
487.40	17891.06
487.60	17751.79
487.81	18190.06
488.02	18165.48
488.22	18093.80
488.43	18327.27
488.64	18489.06
488.84	18366.18
489.05	18616.04
489.25	18503.40
489.46	18734.82
489.67	18745.06
489.87	18912.99
490.08	19005.15
490.29	19091.16
490.49	19472.09
490.70	19125.98
490.90	19388.12
491.11	19402.46
491.32	19513.05
491.52	19762.90
491.73	19582.68
491.94	19982.03
492.14	19879.63
492.35	20104.91
492.55	19963.60
492.76	20303.56
492.97	20293.32
493.17	20375.24
493.38	20510.41
493.58	20795.07
493.79	20461.26
494.00	20403.91
494.20	20729.54
494.41	20516.55
494.61	20856.51
494.82	20973.25
495.02	20905.66
495.23	20958.91
495.44	21321.40
495.64	21464.76
495.85	21323.45
496.05	21358.27
496.26	21462.71
496.47	21524.15
496.67	21802.68
496.88	21970.61
497.08	21491.38
497.29	21997.23
497.49	21978.80
497.70	21980.85
497.91	22027.95
498.11	22429.35
498.32	22359.72
498.52	22398.63
498.73	22476.46
498.93	22369.96
499.14	22548.14
499.34	22339.24
499.55	22759.08
499.76	22617.77
499.96	22681.25
500.17	22779.56
500.37	23154.33
500.58	23066.27
500.78	23359.13
500.99	23178.91
501.19	23266.97
501.40	23060.13
501.60	23082.66
501.81	23352.99
502.02	23551.64
502.22	23244.45
502.43	23727.77
502.63	23549.59
502.84	23826.07
503.04	23748.25
503.25	24080.02
503.45	23719.57
503.66	24225.42
503.86	23926.42
504.07	24342.16
504.27	23987.86
504.48	24538.76
504.68	24575.62
504.89	24618.63
505.09	24340.11
505.30	24417.93
505.50	24612.49
505.71	24921.73
505.91	24958.60
506.12	24747.65
506.32	24854.15
506.53	24852.10
506.73	24917.64
506.94	24979.07
507.14	25067.14
507.35	25114.24
507.55	25255.55
507.76	25390.72
507.96	25044.61
508.17	25345.66
508.37	25613.95
508.58	25376.38
508.78	25378.43
508.99	25958.00
509.19	25726.58
509.40	25634.42
509.60	25841.27
509.81	26125.94
510.01	25835.13
510.22	25661.05
510.42	25775.73
510.63	26363.50
510.83	25935.48
511.04	26242.67
511.24	26248.82
511.44	26089.07
511.65	26470.00
511.85	26070.64
512.06	26463.85
512.26	26422.89
512.47	26840.68
512.67	26642.03
512.88	26539.63
513.08	26633.83
513.29	27037.28
513.49	26809.96
513.69	26957.41
513.90	26994.28
514.10	27262.56
514.31	26934.88
514.51	27092.58
514.72	27012.71
514.92	27141.73
515.13	27270.75
515.33	27362.91
515.53	27317.86
515.74	27536.99
515.94	27629.15
516.15	27778.65
516.35	27375.20
516.56	27835.99
516.76	27682.39
516.96	28038.74
517.17	27913.81
517.37	27774.55
517.58	27784.79
517.78	28163.67
517.99	28118.61
518.19	28384.85
518.39	28208.72
518.60	28499.53
518.80	28276.30
519.01	28571.21
519.21	28640.84
519.41	28636.75
519.62	28515.92
519.82	28726.86
520.03	29197.89
520.23	29087.30
520.43	28855.88
520.64	29449.79
520.84	29308.48
521.05	28972.61
521.25	29130.31
521.45	29357.63
521.66	29713.98
521.86	29449.79
522.07	29300.29
522.27	29673.02
522.47	29359.68
522.68	30131.76
522.88	30062.13
523.08	30211.64
523.29	30133.81
523.49	30342.70
523.70	30332.47
523.90	30572.08
524.10	30266.93
524.31	30660.14
524.51	30230.07
524.71	30791.21
524.92	30953.00
525.12	30893.61
525.33	30688.81
525.53	31120.93
525.73	31082.02
525.94	31364.64
526.14	31254.05
526.34	31391.26
526.55	31315.49
526.75	31473.18
526.95	31591.97
527.16	31651.36
527.36	31538.72
527.56	31819.29
527.77	32294.42
527.97	31737.37
528.17	32134.68
528.38	32108.05
528.58	32169.49
528.78	32853.51
528.99	32427.54
529.19	32402.96
529.39	32140.82
529.60	32738.83
529.80	32738.83
530.00	32488.98
530.21	32847.37
530.41	33142.28
530.61	33379.84
530.82	33103.37
531.02	33062.41
531.22	33433.09
531.43	33418.75
531.63	33666.56
531.83	33740.29
532.04	33988.09
532.24	33654.27
532.44	34293.24
532.64	34199.03
532.85	34330.10
533.05	34194.93
533.25	34237.94
533.46	33998.33
533.66	34409.97
533.86	34350.58
534.07	34825.71
534.27	34692.59
534.47	35118.57
534.67	34676.21
534.88	35110.38
535.08	35186.15
535.28	35417.57
535.49	35429.86
535.69	35618.27
535.89	35169.77
536.09	35419.62
536.30	35806.69
536.50	35861.98
536.70	36136.41
536.91	35927.52
537.11	36017.63
537.31	36365.78
537.51	36064.73
537.72	36230.62
537.92	36732.37
538.12	36425.17
538.32	36316.63
538.53	36820.43
538.73	36290.01
538.93	36466.13
539.13	36623.83
539.34	36877.77
539.54	36984.27
539.74	36756.94
539.94	36906.44
540.15	37084.62
540.35	37373.38
540.55	37381.57
540.75	37305.80
540.96	37236.17
541.16	37526.98
541.36	37617.09
541.56	37438.92
541.77	37692.86
541.97	37959.10
542.17	37834.17
542.37	37821.89
542.58	37641.67
542.78	37635.52
542.98	37995.96
543.18	38546.87
543.38	38376.89
543.59	38514.10
543.79	38325.69
543.99	37924.29
544.19	38378.93
544.40	38518.20
544.60	38667.70
544.80	38604.21
545.00	38821.30
545.20	39017.90
545.41	38497.72
545.61	38749.62
545.81	39120.30
546.01	38823.34
546.21	38786.48
546.42	39146.92
546.62	38888.88
546.82	39017.90
547.02	39226.79
547.22	39390.63
547.43	39589.28
547.63	39239.08
547.83	39716.26
548.03	39312.81
548.23	39706.02
548.44	39634.34
548.64	39847.33
548.84	39691.68
549.04	39468.45
549.24	39533.99
549.45	39673.25
549.65	40129.95
549.85	39792.03
550.05	40248.73
550.25	40193.43
550.45	40451.48
550.66	39939.49
550.86	39947.68
551.06	40320.41
551.26	40572.31
551.46	40041.88
551.66	40211.87
551.87	40392.09
552.07	40646.04
552.27	40736.15
552.47	40721.81
552.67	40566.16
552.87	40727.95
553.07	40631.70
553.28	40510.87
553.48	40727.95
553.68	40646.04
553.88	41311.63
554.08	41162.12
554.28	40914.32
554.48	40787.35
554.69	41241.99
554.89	41477.51
555.09	40998.29
555.29	41055.63
555.49	41368.97
555.69	41018.77
555.89	41096.59
556.10	41706.88
556.30	41315.72
556.50	41459.08
556.70	41459.08
556.90	41473.42
557.10	41592.20
557.30	41301.39
557.50	41543.05
557.70	41473.42
557.91	41739.65
558.11	41618.82
558.31	41792.90
558.51	41969.02
558.71	41694.60
558.91	42052.99
559.11	41999.74
559.31	41545.09
559.51	41541.00
559.72	41948.54
559.92	42186.11
560.12	41774.47
560.32	42022.27
560.52	41825.67
560.72	42059.13
560.92	42186.11
561.12	42153.34
561.32	42532.22
561.52	42126.72
561.72	42603.89
561.93	42319.23
562.13	42188.16
562.33	42067.33
562.53	42722.68
562.73	41997.70
562.93	42718.58
563.13	42548.60
563.33	42687.86
563.53	43218.28
563.73	42614.13
563.93	42816.88
564.13	43224.43
564.33	42796.40
564.53	43242.86
564.74	42730.87
564.94	42943.86
565.14	42962.29
565.34	42921.33
565.54	43222.38
565.74	43234.67
565.94	43572.58
566.14	42923.38
566.34	42999.15
566.54	43505.00
566.74	43343.21
566.94	43308.40
567.14	43584.87
567.34	43091.31
567.54	44023.14
567.74	43455.85
567.94	43550.06
568.14	43758.95
568.34	43881.83
568.54	43801.96
568.74	44012.90
568.94	43904.35
569.14	43984.22
569.34	43836.77
569.54	44100.96
569.75	43644.26
569.95	44076.38
570.15	44369.24
570.35	44592.47
570.55	43912.55
570.75	44250.46
570.95	44684.63
571.15	44649.81
571.35	44524.89
571.55	44772.69
571.75	44492.12
571.95	44655.96
572.15	44938.58
572.35	44793.17
572.55	44879.19
572.75	44094.82
572.95	44653.91
573.15	44877.14
573.35	45043.02
573.55	44373.34
573.75	44977.49
573.95	45006.16
574.15	44899.67
574.35	45086.03
574.55	45069.65
574.75	45268.30
574.95	45335.88
575.15	45213.01
575.34	45299.02
575.54	45708.61
575.74	45456.71
575.94	45688.13
576.14	45434.19
576.34	45385.04
576.54	45841.73
576.74	45686.09
576.94	45741.38
577.14	45624.65
577.34	46239.04
577.54	45927.75
577.74	46363.96
577.94	46134.59
578.14	46218.56
578.34	46316.86
578.54	45782.34
578.74	46535.99
578.94	46206.27
579.14	46388.54
579.34	46388.54
579.54	47033.65
579.74	47252.78
579.94	46763.32
580.13	46699.83
580.33	46837.05
580.53	47144.24
580.73	46970.16
580.93	47058.23
581.13	47318.32
581.33	47191.34
581.53	47895.85
581.73	47111.47
581.93	47439.15
582.13	47269.17
582.33	47269.17
582.53	47275.31
582.73	47543.59
582.92	47365.42
583.12	47895.85
583.32	47568.17
583.52	47260.97
583.72	47775.02
583.92	47609.13
584.12	47707.43
584.32	48020.77
584.52	48477.47
584.72	47889.70
584.92	48297.25
585.11	48301.34
585.31	48397.60
585.51	48475.42
585.71	48454.94
585.91	48739.61
586.11	48403.74
586.31	48086.31
586.51	48434.46
586.71	48227.62
586.91	48741.66
587.10	48645.40
587.30	48964.88
587.50	48778.52
587.70	49509.64
587.90	49337.62
588.10	48977.17
588.30	48790.81
588.50	49444.11
588.69	49095.95
588.89	49112.34
589.09	49048.85
589.29	49526.03
589.49	49718.54
589.69	49483.02
589.89	49356.05
590.08	49769.74
590.28	49798.41
590.48	49779.98
590.68	49552.65
590.88	49833.22
591.08	49495.31
591.28	49216.78
591.47	50328.83
591.67	49786.12
591.87	49911.05
592.07	50025.73
592.27	49870.09
592.47	49956.10
592.67	49784.07
592.86	50117.89
593.06	50314.50
593.26	50609.40
593.46	50337.02
593.66	50238.72
593.86	50789.62
594.05	50584.83
594.25	50570.49
594.45	50537.72
594.65	50339.07
594.85	50226.43
595.05	50775.29
595.24	51049.72
595.44	50648.32
595.64	50476.29
595.84	50818.30
596.04	50935.03
596.23	51193.07
596.43	50967.80
596.63	50652.41
596.83	50808.06
597.03	51109.11
597.22	51672.30
597.42	51256.56
597.62	51610.86
597.82	51602.67
598.02	51240.18
598.21	51733.74
598.41	51193.07
598.61	51209.46
598.81	51535.09
599.01	51735.79
599.20	51311.86
599.40	51786.99
599.60	51961.06
599.80	51911.91
600.00	51604.72
600.19	52126.95
600.39	52075.75
600.59	52258.02
600.79	51764.46
600.98	51956.97
601.18	52118.76
601.38	52153.57
601.58	52440.29
601.78	52368.61
601.97	52200.68
602.17	52964.57
602.37	52851.93
602.57	52436.19
602.76	53034.20
602.96	52628.70
603.16	53177.56
603.36	52665.56
603.55	53202.13
603.75	52716.76
603.95	52557.02
604.15	52972.76
604.34	52917.46
604.54	53183.70
604.74	53060.82
604.94	53363.92
605.13	53081.30
605.33	53152.98
605.53	52909.27
605.73	53179.60
605.92	52991.19
606.12	53720.27
606.32	54000.84
606.52	53415.12
606.71	53558.48
606.91	53542.10
607.11	53417.17
607.30	53630.16
607.50	53255.38
607.70	53855.43
607.90	53544.14
608.09	53955.78
608.29	53449.94
608.49	54049.99
608.68	53331.15
608.88	53804.24
609.08	53996.74
609.28	54031.56
609.47	53466.32
609.67	54392.00
609.87	53828.81
610.06	54105.29
610.26	54181.06
610.46	53787.85
610.66	53679.31
610.85	53916.87
611.05	53988.55
611.25	54060.23
611.44	54000.84
611.64	54334.66
611.84	53609.68
612.03	53929.16
612.23	53916.87
612.43	54195.40
612.62	53794.00
612.82	53908.68
613.02	54054.09
613.21	54150.34
613.41	53884.11
613.61	54121.67
613.80	53976.26
614.00	54224.07
614.20	53994.70
614.39	54076.61
614.59	54707.39
614.79	54004.94
614.98	53636.30
615.18	54285.51
615.38	54398.15
615.57	54226.12
615.77	54146.25
615.97	53957.83
616.16	54105.29
616.36	54099.14
616.56	54428.87
616.75	53925.07
616.95	53794.00
617.15	54445.25
617.34	54090.95
617.54	54015.18
617.74	54463.68
617.93	54285.51
618.13	53800.14
618.32	54185.16
618.52	54080.71
618.72	54467.78
618.91	54561.98
619.11	53847.24
619.31	54129.86
619.50	54002.89
619.70	53857.48
619.90	54170.82
620.09	54023.37
620.29	53935.30
620.48	54408.39
620.68	54549.70
620.88	53763.28
621.07	54213.83
621.27	54023.37
621.46	53740.75
621.66	53748.94
621.86	53632.21
622.05	53806.28
622.25	54219.97
622.44	54146.25
622.64	53476.56
622.84	53855.43
623.03	53871.82
623.23	53765.32
623.42	53544.14
623.62	53929.16
623.82	54113.48
624.01	54002.89
624.21	54256.84
624.40	53912.78
624.60	53986.50
624.80	54041.80
624.99	53990.60
625.19	53847.24
625.38	53970.12
625.58	54246.60
625.77	54156.49
625.97	54056.14
626.17	53587.15
626.36	53935.30
626.56	54478.02
626.75	53357.78
626.95	54238.40
627.14	53624.01
627.34	54410.43
627.54	54017.22
627.73	54084.81
627.93	53908.68
628.12	53568.72
628.32	53789.90
628.51	54004.94
628.71	53986.50
628.90	53818.57
629.10	54000.84
629.30	54090.95
629.49	54047.94
629.69	53578.96
629.88	53869.77
630.08	54301.89
630.27	54185.16
630.47	53755.08
630.66	54004.94
630.86	53605.58
631.05	53603.53
631.25	54449.35
631.44	53978.31
631.64	53939.40
631.84	53865.67
632.03	54670.53
632.23	54052.04
632.42	54224.07
632.62	54002.89
632.81	53753.04
633.01	54004.94
633.20	54412.48
633.40	54326.47
633.59	54461.63
633.79	53810.38
633.98	53845.19
634.18	54396.10
634.37	54330.56
634.57	54211.78
634.76	54473.92
634.96	54156.49
635.15	54254.79
635.35	54131.91
635.54	53961.93
635.74	54392.00
635.93	53867.72
636.13	54219.97
636.32	54330.56
636.52	53910.73
636.71	54209.73
636.91	54551.74
637.10	54457.54
637.30	54123.72
637.49	54035.66
637.69	54670.53
637.88	54574.27
638.08	54494.40
638.27	54375.62
638.46	54015.18
638.66	54246.60
638.85	54494.40
639.05	54750.40
639.24	54740.16
639.44	54170.82
639.63	54478.02
639.83	54572.22
640.02	54650.05
640.22	54115.53
640.41	55004.34
640.61	54146.25
640.80	54455.49
640.99	54303.94
641.19	54822.08
641.38	54674.62
641.58	54521.02
641.77	54502.59
641.97	54422.72
642.16	54633.66
642.36	54906.04
642.55	54932.67
642.74	54424.77
642.94	55080.12
643.13	54465.73
643.33	54768.83
643.52	54987.96
643.72	54781.12
643.91	54377.67
644.10	54920.38
644.30	54961.34
644.49	54588.61
644.69	54957.24
644.88	54965.43
645.08	55278.77
645.27	54979.77
645.46	54795.45
645.66	55176.37
645.85	54885.56
646.05	54998.20
646.24	55039.16
646.43	54979.77
646.63	55174.33
646.82	55426.23
647.02	55506.10
647.21	55252.15
647.40	54906.04
647.60	55612.59
647.79	55444.66
647.99	55557.30
648.18	55418.03
648.37	55606.45
648.57	55391.41
648.76	55588.02
648.96	55413.94
649.15	55415.99
649.34	55774.38
649.54	55628.98
649.73	55426.23
649.92	55669.93
650.12	55704.75
650.31	56032.42
650.51	55878.83
650.70	56071.34
650.89	55692.46
651.09	56386.72
651.28	55743.66
651.47	55960.75
651.67	55991.47
651.86	56329.38
652.06	55342.26
652.25	55837.87
652.44	55833.77
652.64	55747.76
652.83	55884.97
653.02	55551.15
653.22	55995.56
653.41	55686.32
653.60	55590.06
653.80	55690.41
653.99	55919.79
654.18	55801.00
654.38	55866.54
654.57	56157.35
654.76	56083.62
654.96	55649.45
655.15	56030.38
655.34	55780.52
655.54	55190.71
655.73	56341.67
655.92	56673.44
656.12	56341.67
656.31	56362.15
656.50	56300.71
656.70	56550.56
656.89	55465.14
657.08	56304.80
657.28	56034.47
657.47	56304.80
657.66	56509.60
657.86	56106.15
658.05	56216.74
658.24	56640.67
658.43	55917.74
658.63	56476.83
658.82	56591.52
659.01	56980.63
659.21	56738.97
659.40	56413.35
659.59	56605.86
659.79	56534.18
659.98	56489.12
660.17	56579.23
660.36	56620.19
660.56	56593.57
660.75	56353.96
660.94	56773.79
661.14	56595.62
661.33	56327.33
661.52	56341.67
661.71	56519.84
661.91	56161.45
662.10	56204.45
662.29	56994.97
662.49	56890.52
662.68	56417.44
662.87	56573.09
663.06	56800.41
663.26	56579.23
663.45	56620.19
663.64	56853.66
663.83	56886.43
664.03	56927.39
664.22	56439.97
664.41	57029.79
664.60	56521.89
664.80	56929.44
664.99	56722.59
665.18	57343.12
665.37	57271.45
665.57	57123.99
665.76	56896.67
665.95	56919.20
666.14	56908.96
666.34	56648.86
666.53	56816.80
666.72	56568.99
666.91	56759.45
667.11	56755.36
667.30	57255.06
667.49	56693.92
667.68	56802.46
667.87	56603.81
668.07	56892.57
668.26	57136.28
668.45	56628.38
668.64	56505.51
668.84	57113.75
669.03	56949.92
669.22	56890.52
669.41	57015.45
669.60	57234.58
669.80	56951.96
669.99	56882.33
670.18	57224.34
670.37	56843.42
670.57	57506.96
670.76	57201.82
670.95	57185.43
671.14	56960.15
671.33	56861.85
671.53	57502.87
671.72	57566.35
671.91	56747.17
672.10	56595.62
672.29	56706.21
672.48	56650.91
672.68	57156.76
672.87	56734.88
673.06	56575.14
673.25	56399.01
673.44	56761.50
673.64	56759.45
673.83	56734.88
674.02	57056.41
674.21	56581.28
674.40	56997.02
674.59	56171.69
674.79	56474.79
674.98	56466.59
675.17	57109.66
675.36	56628.38
675.55	56902.81
675.74	56491.17
675.94	56657.06
676.13	56534.18
676.32	56892.57
676.51	57095.32
676.70	56958.11
676.89	56548.51
677.08	56986.78
677.28	56624.29
677.47	56990.87
677.66	56863.90
677.85	56859.80
678.04	57173.14
678.23	57236.63
678.42	56956.06
678.62	56841.37
678.81	56964.25
679.00	56595.62
679.19	57175.19
679.38	56964.25
679.57	56591.52
679.76	56487.07
679.96	57418.90
680.15	56741.02
680.34	56757.41
680.53	56464.55
680.72	56747.17
680.91	56722.59
681.10	56657.06
681.29	56814.75
681.48	56767.65
681.68	56376.48
681.87	56589.47
682.06	56489.12
682.25	56366.24
682.44	56327.33
682.63	56794.27
682.82	55989.42
683.01	56233.13
683.20	56143.02
683.39	56345.76
683.59	56054.95
683.78	56054.95
683.97	55950.51
684.16	56095.91
684.35	55985.32
684.54	56065.19
684.73	56263.85
684.92	55768.24
685.11	55768.24
685.30	55833.77
685.49	56716.45
685.69	55999.66
685.88	56337.57
686.07	56302.76
686.26	55927.98
686.45	56190.12
686.64	55813.29
686.83	56186.02
687.02	55997.61
687.21	56341.67
687.40	56196.26
687.59	55858.35
687.78	55962.79
687.97	56167.59
688.16	56108.20
688.35	55596.21
688.54	55393.46
688.74	56282.28
688.93	55465.14
689.12	55413.94
689.31	55540.91
689.50	55909.55
689.69	55112.89
689.88	55092.41
690.07	55600.30
690.26	55389.36
690.45	55387.31
690.64	55076.02
690.83	55321.78
691.02	55317.68
691.21	55276.72
691.40	54860.99
691.59	55555.25
691.78	55125.17
691.97	55536.82
692.16	55286.96
692.35	55205.05
692.54	55381.17
692.73	55215.29
692.92	54838.46
693.11	55121.08
693.30	55014.58
693.49	54926.52
693.68	54887.61
693.87	55166.13
694.06	54949.05
694.25	55116.98
694.44	54320.32
694.63	54852.80
694.82	55002.30
695.01	54715.58
695.20	54463.68
695.39	54619.33
695.58	54187.21
695.77	54297.80
695.96	54252.74
696.15	54504.64
696.34	54131.91
696.53	54830.27
696.72	54572.22
696.91	54752.44
697.10	54750.40
697.29	54269.12
697.48	54631.61
697.67	53974.22
697.86	53918.92
698.05	54181.06
698.24	54545.60
698.43	54041.80
698.62	54236.36
698.81	54058.18
699.00	54400.19
699.19	53916.87
699.38	54056.14
699.57	53929.16
699.76	54641.85
699.95	53681.36
700.14	53626.06
700.32	54074.57
700.51	54109.38
700.70	54082.76
700.89	54166.73
701.08	53963.98
701.27	53863.63
701.46	53808.33
701.65	53169.36
701.84	53376.21
702.03	53351.63
702.22	53621.97
702.41	53404.88
702.60	53404.88
702.79	53685.45
702.98	53005.53
703.17	53118.17
703.35	53265.62
703.54	53312.72
703.73	53271.76
703.92	53525.71
704.11	53183.70
704.30	53054.68
704.49	53087.45
704.68	52968.66
704.87	53060.82
705.06	52810.97
705.25	52602.08
705.43	52860.12
705.62	52884.70
705.81	53234.90
706.00	52983.00
706.19	52589.79
706.38	52417.76
706.57	52516.06
706.76	52532.45
706.95	52233.44
707.14	52597.98
707.32	52663.52
707.51	52690.14
707.70	52593.89
707.89	52085.99
708.08	52833.50
708.27	52286.69
708.46	52907.22
708.65	52106.47
708.84	52395.23
709.02	52321.51
709.21	52325.60
709.40	51918.06
709.59	52204.77
709.78	51797.23
709.97	52247.78
710.16	51848.42
710.34	51961.06
710.53	51997.93
710.72	51918.06
710.91	51975.40
711.10	51805.42
711.29	51913.96
711.48	51729.64
711.66	51893.48
711.85	51815.66
712.04	51680.49
712.23	51793.13
712.42	51539.18
712.61	51809.51
712.80	51631.34
712.98	51387.63
713.17	51385.58
713.36	51696.88
713.55	51358.96
713.74	51430.64
713.93	51625.20
714.11	51266.80
714.30	50896.12
714.49	50959.61
714.68	51219.70
714.87	50873.59
715.06	51348.72
715.24	51092.72
715.43	50943.22
715.62	50619.64
715.81	51131.64
716.00	50885.88
716.18	50834.68
716.37	50939.13
716.56	50609.40
716.75	51100.92
716.94	50679.03
717.12	50423.04
717.31	50564.35
717.50	50722.04
717.69	50308.35
717.88	50748.67
718.06	50191.62
718.25	50756.86
718.44	50191.62
718.63	50087.17
718.82	50226.43
719.00	49888.52
719.19	50140.42
719.38	50242.82
719.57	49886.47
719.76	49831.18
719.94	49231.12
720.13	49747.21
720.32	49409.29
720.51	49370.38
720.69	49413.39
720.88	49507.60
721.07	49337.62
721.26	49075.48
721.44	49411.34
721.63	49394.96
721.82	49239.31
722.01	49257.74
722.20	48993.56
722.38	49059.09
722.57	48370.97
722.76	49202.45
722.95	48928.02
723.13	48571.67
723.32	48440.60
723.51	48442.65
723.70	48692.50
723.88	48665.88
724.07	48248.10
724.26	48895.25
724.44	48125.22
724.63	48958.74
724.82	48543.00
725.01	48225.57
725.19	48559.39
725.38	48192.80
725.57	47973.67
725.76	48182.56
725.94	48141.60
726.13	47498.54
726.32	48467.23
726.51	48033.06
726.69	48125.22
726.88	48207.14
727.07	48033.06
727.25	48010.53
727.44	48145.70
727.63	47916.32
727.82	47740.20
728.00	47918.37
728.19	47979.81
728.38	48157.99
728.56	47611.18
728.75	48442.65
728.94	47863.08
729.12	47875.37
729.31	47615.27
729.50	47447.34
729.69	47779.11
729.87	47895.85
730.06	47666.47
730.25	47891.75
730.43	48203.04
730.62	47273.26
730.81	47551.79
730.99	48147.75
731.18	47666.47
731.37	47828.26
731.55	47994.15
731.74	48002.34
731.93	47959.33
732.11	47953.19
732.30	47969.57
732.49	47504.68
732.67	47695.14
732.86	47490.35
733.05	47668.52
733.23	47684.90
733.42	47641.90
733.61	47373.61
733.79	47983.91
733.98	47727.91
734.17	47203.63
734.35	47793.45
734.54	48063.78
734.73	47428.91
734.91	47138.10
735.10	47093.04
735.29	47887.65
735.47	47226.16
735.66	47119.66
735.84	47504.68
736.03	47134.00
736.22	47723.82
736.40	47592.75
736.59	47594.79
736.78	47346.99
736.96	47029.55
737.15	47539.50
737.33	47107.38
737.52	47076.66
737.71	46736.69
737.89	47011.12
738.08	46935.35
738.27	46744.89
738.45	47445.29
738.64	46843.19
738.82	47146.29
739.01	46765.37
739.20	47172.91
739.38	47373.61
739.57	47037.75
739.75	46900.53
739.94	46724.41
740.13	46806.33
740.31	46794.04
740.50	46718.26
740.68	46716.22
740.87	46808.37
741.06	46959.92
741.24	46789.94
741.43	46398.78
741.61	46908.72
741.80	46570.81
741.99	46492.99
742.17	46435.64
742.36	46396.73
742.54	46259.52
742.73	46585.15
742.91	46765.37
743.10	46355.77
743.29	46718.26
743.47	46564.67
743.66	46275.90
743.84	46290.24
744.03	46292.29
744.21	46259.52
744.40	46318.91
744.59	46357.82
744.77	46150.98
744.96	46247.23
745.14	46280.00
745.33	46366.01
745.51	46392.64
745.70	46220.61
745.88	46122.30
746.07	45835.59
746.26	45937.99
746.44	45749.57
746.63	45878.60
746.81	46030.15
747.00	45741.38
747.18	45913.41
747.37	46097.73
747.55	46042.43
747.74	46282.05
747.92	45753.67
748.11	45753.67
748.29	46112.06
748.48	45897.03
748.66	45522.25
748.85	45808.96
749.03	46036.29
749.22	45725.00
749.41	45499.72
749.59	45610.31
749.78	45659.46
749.96	44717.40
750.15	45557.06
750.33	45792.58
750.52	45456.71
750.70	45454.67
750.89	45385.04
751.07	45096.27
751.26	45311.31
751.44	44848.47
751.63	45155.66
751.81	45069.65
752.00	45161.81
752.18	44991.83
752.37	44815.70
752.55	44852.56
752.74	44981.59
752.92	45219.15
753.10	44959.06
753.29	44860.76
753.47	44672.34
753.66	44733.78
753.84	45157.71
754.03	44582.23
754.21	44627.29
754.40	44817.75
754.58	44871.00
754.77	44635.48
754.95	44348.76
755.14	44299.61
755.32	44600.66
755.51	43994.46
755.69	44148.06
755.88	44627.29
756.06	44559.70
756.24	44105.06
756.43	44385.63
756.61	44541.27
756.80	44445.02
756.98	44182.88
757.17	44066.14
757.35	44227.93
757.54	43812.20
757.72	44070.24
757.90	44008.80
758.09	44162.40
758.27	44438.87
758.46	44223.84
758.64	43890.02
758.83	44324.19
759.01	44172.64
759.19	43951.46
759.38	44193.12
759.56	44189.02
759.75	43871.59
759.93	43369.83
760.12	43695.46
760.30	43867.49
760.48	43408.75
760.67	43599.21
760.85	43453.80
761.04	43791.72
761.22	43838.82
761.40	43402.60
761.59	43312.49
761.77	43576.68
761.96	43390.31
762.14	43251.05
762.32	43332.97
762.51	43130.22
762.69	43476.33
762.88	43216.24
763.06	43048.30
763.24	43255.15
763.43	43451.75
763.61	43044.21
763.80	43365.74
763.98	43044.21
764.16	43052.40
764.35	42958.19
764.53	42515.83
764.72	42939.76
764.90	42755.44
765.08	42775.92
765.27	42804.59
765.45	43191.66
765.63	42642.81
765.82	42390.91
766.00	42270.08
766.18	42538.36
766.37	42837.36
766.55	42823.03
766.74	42866.03
766.92	42521.98
767.10	42702.20
767.29	42059.13
767.47	41905.54
767.65	42282.36
767.84	42161.53
768.02	42253.69
768.20	42433.91
768.39	42591.61
768.57	42202.49
768.75	42044.80
768.94	42055.04
769.12	42169.72
769.30	41819.52
769.49	41856.39
769.67	41899.39
769.85	41414.02
770.04	41682.31
770.22	41827.71
770.40	41624.96
770.59	41477.51
770.77	42012.03
770.95	41465.22
771.14	41295.24
771.32	40791.44
771.50	40902.03
771.69	41203.08
771.87	41305.48
772.05	41172.36
772.24	40998.29
772.42	41231.75
772.60	41432.46
772.78	40899.98
772.97	40973.71
773.15	41411.98
773.33	40635.80
773.52	41069.97
773.70	40791.44
773.88	41098.64
774.07	41115.02
774.25	40891.79
774.43	41276.81
774.61	41098.64
774.80	41194.89
774.98	41084.30
775.16	41059.73
775.34	41096.59
775.53	40660.37
775.71	41006.48
775.89	41155.98
776.08	40850.83
776.26	41301.39
776.44	41389.45
776.62	41112.97
776.81	41098.64
776.99	41590.15
777.17	41194.89
777.35	41485.70
777.54	41321.87
777.72	40764.82
777.90	41272.71
778.08	41389.45
778.27	41010.57
778.45	41956.74
778.63	41702.79
778.81	41291.15
779.00	42048.89
779.18	41522.57
779.36	41975.17
779.54	41395.59
779.73	41348.49
779.91	41696.64
780.09	41256.33
780.27	41764.23
780.46	42022.27
780.64	41782.66
780.82	41856.39
781.00	41342.35
781.19	42382.71
781.37	41956.74
781.55	41885.06
781.73	42351.99
781.91	41268.62
782.10	41840.00
782.28	41915.78
782.46	42048.89
782.64	42120.57
782.82	41612.68
783.01	41962.88
783.19	42012.03
783.37	41899.39
783.55	42292.60
783.74	42173.82
783.92	41524.61
784.10	42370.43
784.28	41842.05
784.46	41710.98
784.64	42028.41
784.83	42175.87
785.01	42341.75
785.19	42005.89
785.37	41997.70
785.55	42157.44
785.74	41471.37
785.92	41747.84
786.10	42268.03
786.28	41782.66
786.46	41336.20
786.64	41430.41
786.83	42038.65
787.01	41975.17
787.19	41739.65
787.37	41848.19
787.55	41866.63
787.74	41346.44
787.92	41325.96
788.10	41641.35
788.28	41186.70
788.46	41541.00
788.64	41035.15
788.82	41741.70
789.01	41487.75
789.19	41305.48
789.37	41272.71
789.55	41137.55
789.73	40916.37
789.91	40990.09
790.09	41024.91
790.28	40891.79
790.46	40607.12
790.64	40846.74
790.82	40756.63
791.00	40551.83
791.18	40596.88
791.36	40711.57
791.55	40807.83
791.73	40412.57
791.91	40236.44
792.09	40211.87
792.27	40383.90
792.45	40218.01
792.63	40017.31
792.81	39847.33
793.00	40091.04
793.18	40119.71
793.36	40031.65
793.54	39927.20
793.72	39683.49
793.90	39464.36
794.08	39165.35
794.26	39687.59
794.44	38942.13
794.62	39146.92
794.81	39067.05
794.99	39237.03
795.17	39267.75
795.35	38962.61
795.53	39110.06
795.71	39073.20
795.89	38634.93
796.07	38561.20
796.25	38274.49
796.43	38634.93
796.61	38522.29
796.80	38135.23
796.98	38114.75
797.16	38022.59
797.34	38104.51
797.52	37975.48
797.70	38233.53
797.88	37739.97
798.06	37803.46
798.24	37713.34
798.42	37983.68
798.60	37414.34
798.78	37545.41
798.96	37129.67
799.14	37635.52
799.32	37553.60
799.51	36978.12
799.69	37119.43
799.87	37277.13
800.05	36355.54
800.23	36877.77
800.41	36484.56
800.59	36660.69
800.77	36881.87
800.95	36730.32
801.13	36046.30
801.31	36386.26
801.49	36228.57
801.67	36212.18
801.85	35919.32
802.03	35913.18
802.21	35952.09
802.39	35749.34
802.57	35640.80
802.75	35569.12
802.93	35679.71
803.11	35487.20
803.29	35784.16
803.47	34997.74
803.65	35218.92
803.83	35630.56
804.01	35409.38
804.19	35026.41
804.37	35182.06
804.55	34627.06
804.73	34801.13
804.91	34842.09
805.09	35186.15
805.27	34684.40
805.45	34850.28
805.63	34657.78
805.81	34723.31
805.99	34778.61
806.17	34940.39
806.35	34522.61
806.53	34330.10
806.71	34383.35
806.89	34330.10
807.07	34106.87
807.25	34444.79
807.43	33943.03
807.61	34145.78
807.79	33732.09
807.97	33484.29
808.15	33652.22
808.33	33424.90
808.51	33105.41
808.69	33127.94
808.87	33123.85
809.05	32992.78
809.23	33486.34
809.41	32839.18
809.59	33037.83
809.77	33025.54
809.95	32734.73
810.13	32982.54
810.31	32681.49
810.49	33019.40
810.67	32863.75
810.84	32542.22
811.02	32695.82
811.20	32046.62
811.38	32650.77
811.56	31987.22
811.74	32521.74
811.92	32112.15
812.10	32165.40
812.28	32509.46
812.46	32036.38
812.64	32220.69
812.82	31954.46
813.00	32007.70
813.18	31706.65
813.36	31651.36
813.53	31747.61
813.71	31655.45
813.89	31622.69
814.07	31532.57
814.25	31620.64
814.43	31299.11
814.61	31217.19
814.79	31540.77
814.97	30938.66
815.15	31231.52
815.33	30748.20
815.50	30998.06
815.68	31127.08
815.86	30934.57
816.04	30537.26
816.22	30543.41
816.40	30651.95
816.58	30549.55
816.76	30385.71
816.94	30549.55
817.11	30502.45
817.29	30441.01
817.47	30049.85
817.65	30015.03
817.83	30436.91
818.01	30137.91
818.19	30074.42
818.37	30006.84
818.54	29787.71
818.72	29699.64
818.90	29933.11
819.08	29908.54
819.26	29685.31
819.44	29644.35
819.62	30031.41
819.80	29632.06
819.97	29574.72
820.15	29302.34
820.33	29300.29
820.51	29593.15
820.69	29279.81
820.87	29158.98
821.05	29204.03
821.22	29267.52
821.40	29220.42
821.58	28929.61
821.76	29115.97
821.94	28978.76
822.12	28923.46
822.29	29091.40
822.47	28802.63
822.65	29294.14
822.83	29150.79
823.01	28960.33
823.19	28436.05
823.36	28737.10
823.54	28726.86
823.72	28540.49
823.90	28739.15
824.08	28741.19
824.25	28622.41
824.43	28487.25
824.61	28337.74
824.79	28337.74
824.97	28249.68
825.15	28399.18
825.32	28102.23
825.50	27913.81
825.68	27782.74
825.86	28323.41
826.04	28231.25
826.21	27967.06
826.39	27991.64
826.57	27819.61
826.75	27846.23
826.93	27797.08
827.10	27889.24
827.28	28067.41
827.46	27827.80
827.64	27668.06
827.81	27696.73
827.99	27819.61
828.17	27467.36
828.35	27598.43
828.53	27307.62
828.70	27483.74
828.88	27328.10
829.06	27457.12
829.24	27440.73
829.41	26928.74
829.59	27262.56
829.77	27364.96
829.95	27321.95
830.12	26883.69
830.30	27205.22
830.48	27119.20
830.66	26742.38
830.84	27041.38
831.01	26754.66
831.19	26898.02
831.37	26803.82
831.55	26373.74
831.72	26715.75
831.90	26556.01
832.08	26740.33
832.25	26625.64
832.43	26388.08
832.61	26529.39
832.79	26472.04
832.96	26549.87
833.14	26334.83
833.32	26324.59
833.50	26463.85
833.67	26578.54
833.85	26400.37
834.03	26254.96
834.20	26150.51
834.38	26222.19
834.56	26240.62
834.74	26052.21
834.91	25955.96
835.09	26121.84
835.27	25734.78
835.44	25538.17
835.62	25411.20
835.80	25681.53
835.98	25974.39
836.15	25794.17
836.33	25579.13
836.51	25691.77
836.68	25710.20
836.86	25646.71
837.04	25482.88
837.21	25575.03
837.39	25556.60
837.57	25761.40
837.75	25407.10
837.92	25276.03
838.10	25388.67
838.28	25157.25
838.45	25398.91
838.63	24970.88
838.81	25347.71
838.98	25095.81
839.16	24913.54
839.34	24880.77
839.51	24751.75
839.69	24741.51
839.87	24907.40
840.04	24704.65
840.22	24995.46
840.40	24735.37
840.57	24714.89
840.75	24757.89
840.93	24700.55
841.10	24559.24
841.28	24942.21
841.46	24974.98
841.63	24870.53
841.81	24690.31
841.98	24968.84
842.16	24723.08
842.34	24555.15
842.51	24329.87
842.69	24731.27
842.87	24127.12
843.04	24301.20
843.22	24565.39
843.40	24350.35
843.57	24282.77
843.75	24206.99
843.92	24352.40
844.10	24280.72
844.28	24233.61
844.45	24082.06
844.63	24166.03
844.81	24178.32
844.98	24182.42
845.16	23832.21
845.33	23926.42
845.51	23781.01
845.69	24090.26
845.86	23572.12
846.04	23674.52
846.21	23735.96
846.39	23836.31
846.57	23711.38
846.74	23740.05
846.92	23852.69
847.09	23719.57
847.27	23697.05
847.45	23832.21
847.62	23559.83
847.80	23477.91
847.97	23549.59
848.15	23676.57
848.32	23320.22
848.50	23576.22
848.68	23129.76
848.85	23232.16
849.03	23049.89
849.20	23402.14
849.38	23174.81
849.56	23273.12
849.73	23086.75
849.91	23056.03
850.08	23611.03
850.26	22763.17
850.43	23123.62
850.61	23152.29
850.78	22970.02
850.96	22841.00
851.14	22707.88
851.31	22832.80
851.49	22871.72
851.66	22754.98
851.84	22662.82
852.01	22906.53
852.19	22836.90
852.36	22654.63
852.54	22511.27
852.71	22374.06
852.89	22355.63
853.07	22402.73
853.24	22771.36
853.42	22728.36
853.59	22652.58
853.77	22601.38
853.94	22480.55
854.12	22951.59
854.29	22288.04
854.47	22455.98
854.64	22277.80
854.82	22378.15
854.99	22390.44
855.17	22447.79
855.34	22222.51
855.52	22435.50
855.69	22519.46
855.87	21984.94
856.04	21872.31
856.22	22165.17
856.39	21941.94
856.57	21937.84
856.74	21802.68
856.92	21923.51
857.09	21718.71
857.27	21767.86
857.44	21741.24
857.62	22087.34
857.79	21806.77
857.97	21847.73
858.14	21581.49
858.32	21804.72
858.49	21896.88
858.67	21546.68
858.84	21911.22
859.02	21673.65
859.19	21583.54
859.37	21245.63
859.54	21311.16
859.72	21554.87
859.89	21642.93
860.06	21526.20
860.24	21317.31
860.41	21601.97
860.59	21460.66
860.76	21169.85
860.94	21184.19
861.11	21497.53
861.29	21294.78
861.46	21151.42
861.64	20938.43
861.81	20903.62
861.98	21122.75
862.16	21026.50
862.33	20672.20
862.51	20926.14
862.68	20825.79
862.86	21268.16
863.03	20694.72
863.21	21028.54
863.38	20715.20
863.55	20934.34
863.73	20936.38
863.90	20874.95
864.08	20846.27
864.25	20920.00
864.43	20473.54
864.60	20387.53
864.77	20418.25
864.95	20635.33
865.12	20315.85
865.30	20477.64
865.47	20188.88
865.64	20440.78
865.82	20340.43
865.99	20524.74
866.17	20342.47
866.34	20664.00
866.51	20160.20
866.69	20530.89
866.86	20369.10
867.04	20076.24
867.21	19996.37
867.38	20172.49
867.56	20057.81
867.73	19990.22
867.91	19748.56
868.08	19908.30
868.25	20029.13
868.43	20006.61
868.60	20096.72
868.78	19699.41
868.95	19879.63
869.12	19703.51
869.30	19306.20
869.47	19611.35
869.64	19457.75
869.82	19615.44
869.99	19586.77
870.16	19805.91
870.34	19685.08
870.51	19857.10
870.69	19576.53
870.86	19515.09
871.03	19695.32
871.21	19277.53
871.38	19640.02
871.55	19551.96
871.73	19238.62
871.90	19136.22
872.07	19443.42
872.25	19201.76
872.42	19138.27
872.59	18976.48
872.77	19087.07
872.94	19066.59
873.11	19168.99
873.29	19306.20
873.46	19046.11
873.63	18943.71
873.81	19054.30
873.98	18482.92
874.15	18822.88
874.33	18734.82
874.50	18693.86
874.67	18693.86
874.85	18495.21
875.02	18378.47
875.19	18587.36
875.37	18362.09
875.54	18521.83
875.71	18380.52
875.88	18435.81
876.06	18265.83
876.23	18161.39
876.40	18405.10
876.58	18304.74
876.75	18321.13
876.92	17972.97
877.10	18124.52
877.27	18220.78
877.44	18015.98
877.61	18001.65
877.79	17862.38
877.96	17884.91
878.13	18063.08
878.31	17786.61
878.48	17764.08
878.65	18005.74
878.82	17712.88
879.00	17735.41
879.17	17673.97
879.34	17628.92
879.51	17557.24
879.69	17397.49
879.86	17190.65
880.03	17338.10
880.21	17387.25
880.38	17590.00
880.55	17723.12
880.72	17551.09
880.90	17680.11
881.07	17331.96
881.24	17434.36
881.41	17428.21
881.59	17166.07
881.76	17014.52
881.93	17014.52
882.10	17186.55
882.28	17229.56
882.45	17600.24
882.62	16860.93
882.79	17141.50
882.96	16842.50
883.14	16791.30
883.31	16930.56
883.48	17032.96
883.65	17094.40
883.83	17202.94
884.00	16961.28
884.17	16985.85
884.34	17037.05
884.51	16830.21
884.69	16914.17
884.86	16832.26
885.03	16887.55
885.20	16293.64
885.38	16729.86
885.55	16588.55
885.72	16811.78
885.89	16660.23
886.06	16772.86
886.24	16525.06
886.41	16692.99
886.58	16609.03
886.75	16901.89
886.92	16307.98
887.10	16727.81
887.27	16506.63
887.44	16297.74
887.61	16523.01
887.78	16729.86
887.95	16688.90
888.13	16428.81
888.30	16477.96
888.47	16453.38
888.64	16561.92
888.81	16363.27
888.99	16236.30
889.16	16174.86
889.33	15779.60
889.50	16250.63
889.67	16088.84
889.84	15988.49
890.01	16002.83
890.19	16183.05
890.36	16090.89
890.53	15978.25
890.70	16029.45
890.87	16314.12
891.04	16049.93
891.22	15865.61
891.39	15771.41
891.56	15705.87
891.73	15699.73
891.90	15746.83
892.07	15740.69
892.24	15851.28
892.42	15843.09
892.59	15658.77
892.76	15773.46
892.93	15298.33
893.10	15777.55
893.27	15703.82
893.44	15380.25
893.61	15560.47
893.79	15580.95
893.96	15527.70
894.13	15374.10
894.30	15814.41
894.47	15671.06
894.64	15578.90
894.81	15529.75
894.98	15501.08
895.15	15550.23
895.33	15513.36
895.50	15329.05
895.67	15533.84
895.84	15398.68
896.01	15539.99
896.18	15327.00
896.35	15474.45
896.52	15288.09
896.69	15492.88
896.86	15349.53
897.04	15232.79
897.21	15314.71
897.38	15204.12
897.55	15472.40
897.72	15421.20
897.89	15318.81
898.06	15247.13
898.23	15302.42
898.40	15275.80
898.57	15468.31
898.74	15421.20
898.91	15322.90
899.08	15417.11
899.26	15400.72
899.43	15204.12
899.60	15105.82
899.77	15116.06
899.94	15302.42
900.11	15132.44
900.28	15337.24
900.45	15183.64
900.62	15308.57
900.79	15378.20
900.96	15363.86
901.13	15058.71
901.30	15277.85
901.47	15148.82
901.64	15290.13
901.81	14995.23
901.98	15146.78
902.15	15396.63
902.32	15042.33
902.49	15361.81
902.66	15302.42
902.83	15093.53
903.01	15087.39
903.18	15460.12
903.35	15392.53
903.52	15253.27
903.69	15316.76
903.86	15558.42
904.03	15243.03
904.20	15460.12
904.37	15337.24
904.54	15230.74
904.71	15200.02
904.88	15144.73
905.05	14958.36
905.22	15247.13
905.39	15396.63
905.56	15226.65
905.73	15216.41
905.90	15294.23
906.07	15304.47
906.24	15210.26
906.41	15214.36
906.58	15226.65
906.75	15365.91
906.92	15183.64
907.09	15060.76
907.26	15363.86
907.43	15036.19
907.60	15064.86
907.77	15116.06
907.93	15128.35
908.10	15228.70
908.27	15245.08
908.44	14937.88
908.61	14855.97
908.78	14944.03
908.95	15163.16
909.12	14749.47
909.29	15107.87
909.46	14982.94
909.63	15202.07
909.80	14843.68
909.97	14999.32
910.14	14970.65
910.31	15189.78
910.48	15015.71
910.65	15146.78
910.82	14917.40
910.99	14870.30
911.16	14927.64
911.33	15087.39
911.50	14753.57
911.66	14841.63
911.83	14808.86
912.00	14911.26
912.17	14710.56
912.34	14536.48
912.51	14903.07
912.68	14571.30
912.85	14726.94
913.02	14626.59
913.19	14503.71
913.36	14679.84
913.53	14575.39
913.70	14593.83
913.86	14649.12
914.03	14698.27
914.20	14456.61
914.37	14606.11
914.54	14401.32
914.71	14501.67
914.88	14331.69
915.05	14493.47
915.22	14395.17
915.39	14460.71
915.55	14530.34
915.72	14292.77
915.89	14380.84
916.06	14126.89
916.23	13983.53
916.40	13948.72
916.57	13918.00
916.74	14184.23
916.91	14028.59
917.07	13809.45
917.24	14026.54
917.41	13774.64
917.58	13748.01
917.75	13881.13
917.92	13774.64
918.09	13647.66
918.26	13848.36
918.42	13772.59
918.59	13717.29
918.76	13530.93
918.93	13561.65
919.10	13330.23
919.27	13272.89
919.44	13520.69
919.60	13662.00
919.77	13276.98
919.94	13315.89
920.11	13600.56
920.28	13403.96
920.45	13303.60
920.61	13160.25
920.78	13055.80
920.95	13150.01
921.12	13047.61
921.29	12828.48
921.46	12846.91
921.62	12752.70
921.79	12906.30
921.96	12914.49
922.13	12828.48
922.30	12883.77
922.47	12666.69
922.63	12816.19
922.80	12848.96
922.97	12500.80
923.14	12341.06
923.31	12568.38
923.47	12279.62
923.64	12705.60
923.81	12398.40
923.98	12558.14
924.15	12312.39
924.32	12293.96
924.48	12257.09
924.65	12177.22
924.82	12070.73
924.99	12171.08
925.15	11802.44
925.32	12076.87
925.49	12009.29
925.66	11937.61
925.83	11917.13
925.99	11710.29
926.16	11798.35
926.33	11755.34
926.50	11521.87
926.67	11695.95
926.83	11644.75
927.00	11671.37
927.17	11435.86
927.34	11380.56
927.50	11491.15
927.67	11550.54
927.84	11294.55
928.01	11196.25
928.17	11118.42
928.34	11241.30
928.51	11239.25
928.68	11161.43
928.84	11079.51
929.01	10903.39
929.18	10960.73
929.35	10983.26
929.51	10731.36
929.68	10872.67
929.85	10618.72
930.02	10723.16
930.18	10600.29
930.35	10549.09
930.52	10559.33
930.69	10858.33
930.85	10538.85
931.02	10430.30
931.19	10592.09
931.36	10428.26
931.52	10530.66
931.69	10422.11
931.86	10076.01
932.02	10348.39
932.19	10096.49
932.36	10176.36
932.53	10235.75
932.69	10166.12
932.86	10307.43
933.03	9965.42
933.19	9654.12
933.36	9844.59
933.53	10008.42
933.70	9650.03
933.86	9586.54
934.03	9783.15
934.20	9537.39
934.36	9609.07
934.53	9226.10
934.70	9248.63
934.86	9219.96
935.03	9246.58
935.20	9219.96
935.36	9248.63
935.53	9019.25
935.70	8865.66
935.86	8957.82
936.03	8830.84
936.20	8771.45
936.36	8777.59
936.53	8707.96
936.70	8808.31
936.86	8669.05
937.03	8437.63
937.20	8300.42
937.36	8372.10
937.53	7939.97
937.70	8107.91
937.86	7995.27
938.03	8128.39
938.20	8028.04
938.36	7661.45
938.53	7733.13
938.70	7522.19
938.86	7516.05
939.03	7468.94
939.20	7407.50
939.36	7491.47
939.53	7317.39
939.70	7434.13
939.86	7073.68
940.03	7012.24
940.19	6860.70
940.36	6811.54
940.53	6950.81
940.69	6811.54
940.86	6733.72
941.03	6627.23
941.19	6586.27
941.36	6592.41
941.52	6481.82
941.69	6332.32
941.86	6512.54
942.02	6203.30
942.19	6092.71
942.35	6350.75
942.52	6131.62
942.69	6078.37
942.85	5963.68
943.02	6072.23
943.18	5988.26
943.35	5844.90
943.52	5865.38
943.68	5758.89
943.85	5705.64
944.01	5711.78
944.18	5756.84
944.35	5633.96
944.51	5640.11
944.68	5453.74
944.84	5611.43
945.01	5539.76
945.17	5478.32
945.34	5562.28
945.51	5636.01
945.67	5420.97
945.84	5490.60
946.00	5423.02
946.17	5412.78
946.33	5463.98
946.50	5572.52
946.67	5306.29
946.83	5365.68
947.00	5423.02
947.16	5349.29
947.33	5322.67
947.49	5386.16
947.66	5420.97
947.82	5337.01
947.99	5267.38
948.16	5402.54
948.32	5300.14
948.49	5355.44
948.65	5382.06
948.82	5437.36
948.98	5408.69
949.15	5349.29
949.31	5453.74
949.48	5392.30
949.64	5273.52
949.81	5320.62
949.97	5341.10
950.14	5375.92
950.30	5193.65
950.47	5353.39
950.63	5373.87
950.80	5337.01
950.96	5339.05
951.13	5361.58
951.30	5400.49
951.46	5365.68
951.63	5382.06
951.79	5547.95
951.96	5476.27
952.12	5531.56
952.29	5164.98
952.45	5556.14
952.62	5459.88
952.78	5414.83
952.94	5404.59
953.11	5687.21
953.27	5363.63
953.44	5509.04
953.60	5435.31
953.77	5492.65
953.93	5550.00
954.10	5386.16
954.26	5529.52
954.43	5398.45
954.59	5656.49
954.76	5517.23
954.92	5433.26
955.09	5455.79
955.25	5578.67
955.42	5515.18
955.58	5631.91
955.75	5519.28
955.91	5504.94
956.07	5459.88
956.24	5506.99
956.40	5607.34
956.57	5494.70
956.73	5552.04
956.90	5486.51
957.06	5429.17
957.23	5369.77
957.39	5484.46
957.56	5515.18
957.72	5392.30
957.88	5410.73
958.05	5537.71
958.21	5642.15
958.38	5605.29
958.54	5511.08
958.71	5523.37
958.87	5521.32
959.03	5574.57
959.20	5455.79
959.36	5443.50
959.53	5367.73
959.69	5394.35
959.85	5560.24
960.02	5431.21
960.18	5525.42
960.35	5500.84
960.51	5502.89
960.68	5377.97
960.84	5498.80
961.00	5437.36
961.17	5429.17
961.33	5543.85
961.50	5535.66
961.66	5498.80
961.82	5498.80
961.99	5500.84
962.15	5445.55
962.31	5629.87
962.48	5480.36
962.64	5423.02
962.81	5463.98
962.97	5607.34
963.13	5347.25
963.30	5427.12
963.46	5550.00
963.62	5513.13
963.79	5382.06
963.95	5365.68
964.12	5369.77
964.28	5547.95
964.44	5406.64
964.61	5339.05
964.77	5509.04
964.93	5451.69
965.10	5420.97
965.26	5306.29
965.42	5332.91
965.59	5353.39
965.75	5427.12
965.92	5476.27
966.08	5431.21
966.24	5337.01
966.41	5289.90
966.57	5334.96
966.73	5427.12
966.90	5451.69
967.06	5253.04
967.22	5244.85
967.39	5283.76
967.55	5195.70
967.71	5289.90
967.88	5322.67
968.04	5250.99
968.20	5306.29
968.37	5308.34
968.53	5341.10
968.69	5197.74
968.85	5269.42
969.02	5146.55
969.18	5201.84
969.34	5240.75
969.51	5318.57
969.67	5234.61
969.83	4976.56
970.00	5189.55
970.16	5179.31
970.32	5238.70
970.48	5246.90
970.65	4958.13
970.81	5162.93
970.97	5072.82
971.14	4978.61
971.30	5091.25
971.46	5050.29
971.63	5093.30
971.79	5060.53
971.95	5019.57
972.11	4882.36
972.28	5038.00
972.44	5064.63
972.60	4997.04
972.76	4900.79
972.93	5019.57
973.09	4937.65
973.25	5087.15
973.42	4804.53
973.58	4982.71
973.74	4986.80
973.90	4896.69
974.07	4857.78
974.23	4915.12
974.39	4884.41
974.55	4945.84
974.72	4739.00
974.88	4767.67
975.04	4863.93
975.20	4829.11
975.37	4835.25
975.53	4751.29
975.69	4698.04
975.85	4779.96
976.01	4792.25
976.18	4827.06
976.34	4779.96
976.50	4792.25
976.66	4769.72
976.83	4726.71
976.99	4595.64
977.15	4566.97
977.31	4612.03
977.47	4820.92
977.64	4630.46
977.80	4542.39
977.96	4677.56
978.12	4648.89
978.29	4581.31
978.45	4503.48
978.61	4638.65
978.77	4640.70
978.93	4571.07
979.10	4618.17
979.26	4491.20
979.42	4622.27
979.58	4329.41
979.74	4519.87
979.91	4538.30
980.07	4515.77
980.23	4466.62
980.39	4474.81
980.55	4495.29
980.71	4407.23
980.88	4442.04
981.04	4448.19
981.20	4321.21
981.36	4433.85
981.52	4276.16
981.68	4427.71
981.85	4423.61
982.01	4399.04
982.17	4302.78
982.33	4270.01
982.49	4460.48
982.65	4216.77
982.82	4239.30
982.98	4237.25
983.14	4239.30
983.30	4304.83
983.46	4292.54
983.62	4270.01
983.79	4120.51
983.95	4190.14
984.11	4161.47
984.27	4249.54
984.43	4247.49
984.59	4216.77
984.75	4341.69
984.91	4136.90
985.08	4204.48
985.24	4147.14
985.40	4132.80
985.56	4089.79
985.72	4278.21
985.88	4022.21
986.04	4128.70
986.20	4009.92
986.37	4069.31
986.53	4040.64
986.69	4157.38
986.85	4065.22
987.01	3968.96
987.17	4059.07
987.33	3987.40
987.49	3975.11
987.65	4085.70
987.82	4032.45
987.98	4005.83
988.14	3882.95
988.30	3911.62
988.46	3909.57
988.62	3942.34
988.78	3911.62
988.94	3895.24
989.10	3901.38
989.26	3758.02
989.42	3844.04
989.59	3811.27
989.75	3852.23
989.91	3852.23
990.07	3688.39
990.23	3801.03
990.39	3778.50
990.55	3870.66
990.71	3782.60
990.87	3682.25
991.03	3819.46
991.19	3727.30
991.35	3741.64
991.51	3737.54
991.67	3909.57
991.83	3696.58
992.00	3667.91
992.16	3813.32
992.32	3766.21
992.48	3712.97
992.64	3629.00
992.80	3774.41
992.96	3622.86
993.12	3626.95
993.28	3760.07
993.44	3788.74
993.60	3657.67
993.76	3651.53
993.92	3639.24
994.08	3749.83
994.24	3633.10
994.40	3653.58
994.56	3647.43
994.72	3602.38
994.88	3555.27
995.04	3573.71
995.20	3522.51
995.36	3530.70
995.52	3577.80
995.68	3592.14
995.84	3448.78
996.00	3651.53
996.16	3497.93
996.32	3432.40
996.48	3545.03
996.64	3495.88
996.80	3442.64
996.96	3485.64
997.12	3502.03
997.28	3438.54
997.44	3426.25
997.60	3442.64
997.76	3416.01
997.92	3411.92
998.08	3440.59
998.24	3235.79
998.40	3411.92
998.56	3389.39
998.72	3217.36
998.88	3362.76
999.04	3127.25
999.20	3346.38
999.36	3198.93
999.52	3323.85
999.68	3340.24
999.84	3395.53
1000.00	3280.85
1000.16	3303.37
1000.32	3203.02
1000.48	3395.53
1000.64	3258.32
1000.80	3262.41
1000.95	3071.95
1001.11	3121.10
1001.27	3192.78
1001.43	3268.56
1001.59	3121.10
1001.75	3205.07
1001.91	3190.74
1002.07	3080.14
1002.23	3157.97
1002.39	3094.48
1002.55	3018.71
1002.71	3100.62
1002.87	3180.50
1003.03	3076.05
1003.19	3082.19
1003.34	3133.39
1003.50	3071.95
1003.66	3248.08
1003.82	3157.97
1003.98	3061.71
1004.14	3045.33
1004.30	3022.80
1004.46	2971.60
1004.62	3074.00
1004.78	3059.67
1004.94	3010.51
1005.09	3096.53
1005.25	3055.57
1005.41	2940.88
1005.57	2959.31
1005.73	2981.84
1005.89	2901.97
1006.05	2990.03
1006.21	2959.31
1006.37	2820.05
1006.52	2877.40
1006.68	2881.49
1006.84	3035.09
1007.00	2820.05
1007.16	2838.48
1007.32	2959.31
1007.48	2932.69
1007.64	2996.18
1007.79	2799.57
1007.95	2820.05
1008.11	2916.31
1008.27	2883.54
1008.43	2865.11
1008.59	2850.77
1008.75	2885.59
1008.91	2811.86
1009.06	2764.76
1009.22	2901.97
1009.38	2869.20
1009.54	2869.20
1009.70	2807.77
1009.86	2768.85
1010.01	2830.29
1010.17	2711.51
1010.33	2797.53
1010.49	2770.90
1010.65	2838.48
1010.81	2768.85
1010.96	2672.60
1011.12	2691.03
1011.28	2637.78
1011.44	2775.00
1011.60	2684.89
1011.76	2674.65
1011.91	2723.80
1012.07	2709.46
1012.23	2641.88
1012.39	2543.58
1012.55	2648.02
1012.71	2605.02
1012.86	2652.12
1013.02	2645.98
1013.18	2652.12
1013.34	2576.34
1013.50	2748.37
1013.65	2580.44
1013.81	2584.54
1013.97	2506.71
1014.13	2650.07
1014.29	2631.64
1014.44	2588.63
1014.60	2572.25
1014.76	2574.30
1014.92	2578.39
1015.07	2555.86
1015.23	2551.77
1015.39	2527.19
1015.55	2627.54
1015.71	2580.44
1015.86	2496.47
1016.02	2541.53
1016.18	2426.84
1016.34	2463.71
1016.49	2535.39
1016.65	2564.06
1016.81	2469.85
1016.97	2414.56
1017.12	2592.73
1017.28	2424.80
1017.44	2416.60
1017.60	2484.19
1017.75	2473.95
1017.91	2473.95
1018.07	2414.56
1018.23	2486.23
1018.38	2469.85
1018.54	2432.99
1018.70	2439.13
1018.86	2428.89
1019.01	2330.59
1019.17	2394.08
1019.33	2510.81
1019.49	2447.32
1019.64	2394.08
1019.80	2402.27
1019.96	2365.40
1020.12	2492.38
1020.27	2289.63
1020.43	2365.40
1020.59	2418.65
1020.74	2447.32
1020.90	2449.37
1021.06	2303.96
1021.22	2357.21
1021.37	2293.72
1021.53	2265.05
1021.69	2428.89
1021.84	2338.78
1022.00	2355.16
1022.16	2277.34
1022.31	2355.16
1022.47	2297.82
1022.63	2381.79
1022.79	2215.90
1022.94	2222.05
1023.10	2353.12
1023.26	2244.57
1023.41	2201.57
1023.57	2185.18
1023.73	2285.53
1023.88	2295.77
1024.04	2168.80
1024.20	2199.52
1024.35	2271.20
1024.51	2246.62
1024.67	2283.49
1024.82	2355.16
1024.98	2242.53
1025.14	2195.42
1025.29	2205.66
1025.45	2238.43
1025.61	2027.49
1025.76	2199.52
1025.92	2209.76
1026.08	2191.33
1026.23	2154.46
1026.39	2168.80
1026.55	2203.61
1026.70	2232.29
1026.86	2238.43
1027.02	2236.38
1027.17	2236.38
1027.33	2187.23
1027.48	2146.27
1027.64	2113.50
1027.80	2189.28
1027.95	2170.85
1028.11	2041.82
1028.27	2121.70
1028.42	2107.36
1028.58	2060.26
1028.73	2156.51
1028.89	2011.11
1029.05	2246.62
1029.20	2168.80
>>>>>End Processed Spectral Data<<<<<
