SpectraSuite Data File
++++++++++++++++++++++++++++++++++++
Date: Fri Jun 02 14:49:26 CEST 2017
User: INFO_000
Dark Spectrum Present: No
Reference Spectrum Present: No
Number of Sampled Component Spectra: 1
Spectrometers: USB4H00879
Integration Time (usec): 80000 (USB4H00879)
Spectra Averaged: 1 (USB4H00879)
Boxcar Smoothing: 0 (USB4H00879)
Correct for Electrical Dark: No (USB4H00879)
Strobe/Lamp Enabled: No (USB4H00879)
Correct for Detector Non-linearity: No (USB4H00879)
Correct for Stray Light: No (USB4H00879)
Number of Pixels in Processed Spectrum: 3648
>>>>>Begin Processed Spectral Data<<<<<
345.13	1232.88
345.34	1232.88
345.56	1232.88
345.78	1226.73
345.99	1314.80
346.21	1667.05
346.42	1722.34
346.64	1658.85
346.86	1796.07
347.07	1638.38
347.29	1683.43
347.50	1578.98
347.72	1640.42
347.94	1777.64
348.15	1564.65
348.37	1617.90
348.59	1818.60
348.80	1665.00
349.02	1724.39
349.23	1908.71
349.45	1812.45
349.67	1859.56
349.88	1742.82
350.10	1957.86
350.31	1855.46
350.53	1855.46
350.75	1984.48
350.96	1748.97
351.18	1904.61
351.39	1861.60
351.61	1828.84
351.82	1910.75
352.04	1927.14
352.26	1853.41
352.47	1966.05
352.69	1875.94
352.90	1794.02
353.12	1849.32
353.34	1845.22
353.55	1976.29
353.77	1941.47
353.98	1781.73
354.20	1781.73
354.41	1875.94
354.63	1976.29
354.85	2052.06
355.06	1906.66
355.28	1767.40
355.49	1890.28
355.71	1894.37
355.92	1949.67
356.14	1974.24
356.35	1830.88
356.57	1933.28
356.79	1882.08
357.00	1841.12
357.22	1943.52
357.43	1908.71
357.65	1998.82
357.86	1826.79
358.08	1929.19
358.29	2007.01
358.51	1998.82
358.72	2015.20
358.94	1935.33
359.16	1955.81
359.37	1957.86
359.59	1908.71
359.80	1949.67
360.02	1918.95
360.23	1920.99
360.45	2037.73
360.66	1923.04
360.88	1914.85
361.09	1912.80
361.31	2037.73
361.52	1978.34
361.74	2082.78
361.95	2023.39
362.17	1966.05
362.38	2070.50
362.60	2043.87
362.81	2021.35
363.03	1955.81
363.24	1937.38
363.46	2097.12
363.67	1988.58
363.89	2017.25
364.10	2019.30
364.32	1900.52
364.53	2058.21
364.75	1923.04
364.96	2047.97
365.18	2064.35
365.39	2021.35
365.61	1912.80
365.82	2050.02
366.04	1961.95
366.25	1992.67
366.47	2035.68
366.68	1957.86
366.90	2031.58
367.11	2093.02
367.33	2084.83
367.54	1978.34
367.76	1976.29
367.97	2142.18
368.19	2056.16
368.40	2078.69
368.62	1996.77
368.83	1929.19
369.05	1972.19
369.26	2013.15
369.48	1982.43
369.69	2017.25
369.91	2115.55
370.12	2000.87
370.33	2142.18
370.55	1988.58
370.76	2066.40
370.98	2021.35
371.19	2068.45
371.41	1929.19
371.62	2017.25
371.84	1998.82
372.05	2150.37
372.27	2064.35
372.48	2080.74
372.69	2066.40
372.91	2076.64
373.12	2125.79
373.34	2060.26
373.55	2142.18
373.77	2056.16
373.98	2099.17
374.20	2189.28
374.41	2250.72
374.62	2185.18
374.84	2123.74
375.05	2103.26
375.27	2172.89
375.48	2203.61
375.70	2123.74
375.91	2117.60
376.12	2275.29
376.34	2125.79
376.55	2109.41
376.77	2222.05
376.98	2183.13
377.19	2095.07
377.41	2150.37
377.62	2220.00
377.84	2217.95
378.05	2183.13
378.27	2189.28
378.48	2349.02
378.69	2295.77
378.91	2367.45
379.12	2201.57
379.34	2228.19
379.55	2303.96
379.76	2215.90
379.98	2277.34
380.19	2226.14
380.41	2279.39
380.62	2250.72
380.83	2220.00
381.05	2195.42
381.26	2420.70
381.47	2273.25
381.69	2191.33
381.90	2379.74
382.12	2340.83
382.33	2242.53
382.54	2246.62
382.76	2306.01
382.97	2320.35
383.19	2301.92
383.40	2371.55
383.61	2314.20
383.83	2193.37
384.04	2334.68
384.25	2377.69
384.47	2406.36
384.68	2273.25
384.89	2314.20
385.11	2346.97
385.32	2338.78
385.54	2330.59
385.75	2461.66
385.96	2422.75
386.18	2410.46
386.39	2414.56
386.60	2361.31
386.82	2398.17
387.03	2396.12
387.24	2514.91
387.46	2510.81
387.67	2459.61
387.88	2631.64
388.10	2379.74
388.31	2478.04
388.52	2492.38
388.74	2566.10
388.95	2502.62
389.16	2592.73
389.38	2467.80
389.59	2613.21
389.80	2590.68
390.02	2553.82
390.23	2680.79
390.44	2435.03
390.66	2506.71
390.87	2553.82
391.08	2635.74
391.30	2678.74
391.51	2611.16
391.72	2666.46
391.94	2496.47
392.15	2617.30
392.36	2562.01
392.58	2549.72
392.79	2605.02
393.00	2682.84
393.22	2664.41
393.43	2672.60
393.64	2832.34
393.85	2678.74
394.07	2586.58
394.28	2656.22
394.49	2666.46
394.71	2803.67
394.92	2791.38
395.13	2676.70
395.35	2641.88
395.56	2652.12
395.77	2713.56
395.98	2764.76
396.20	2807.77
396.41	2852.82
396.62	2854.87
396.84	2813.91
397.05	2766.81
397.26	2871.25
397.47	2901.97
397.69	2807.77
397.90	3041.23
398.11	2938.84
398.32	2795.48
398.54	2797.53
398.75	2834.39
398.96	2965.46
399.18	3078.10
399.39	2955.22
399.60	2983.89
399.81	2822.10
400.03	2893.78
400.24	3280.85
400.45	2951.12
400.66	2987.99
400.88	2893.78
401.09	3229.65
401.30	3141.58
401.51	3155.92
401.73	3100.62
401.94	3131.34
402.15	3096.53
402.36	3164.11
402.58	3123.15
402.79	3223.50
403.00	3221.45
403.21	3301.33
403.43	3219.41
403.64	3268.56
403.85	3028.95
404.06	3252.17
404.27	3041.23
404.49	3157.97
404.70	3125.20
404.91	3313.61
405.12	3147.73
405.34	3196.88
405.55	3383.24
405.76	3082.19
405.97	3227.60
406.19	3323.85
406.40	3213.26
406.61	3252.17
406.82	3332.05
407.03	3327.95
407.25	3301.33
407.46	3377.10
407.67	3420.11
407.88	3440.59
408.09	3262.41
408.31	3282.89
408.52	3299.28
408.73	3203.02
408.94	3293.13
409.15	3387.34
409.37	3450.83
409.58	3516.36
409.79	3534.79
410.00	3497.93
410.21	3373.00
410.43	3454.92
410.64	3317.71
410.85	3426.25
411.06	3469.26
411.27	3598.28
411.48	3545.03
411.70	3434.44
411.91	3665.86
412.12	3659.72
412.33	3542.99
412.54	3604.42
412.76	3518.41
412.97	3624.90
413.18	3448.78
413.39	3592.14
413.60	3573.71
413.81	3657.67
414.03	3622.86
414.24	3608.52
414.45	3727.30
414.66	3571.66
414.87	3768.26
415.08	3545.03
415.30	3706.82
415.51	3676.10
415.72	3651.53
415.93	3729.35
416.14	3755.97
416.35	3751.88
416.56	3727.30
416.78	3682.25
416.99	3833.80
417.20	3848.13
417.41	3874.76
417.62	3819.46
417.83	4022.21
418.04	3823.56
418.26	3960.77
418.47	3854.28
418.68	4048.83
418.89	3850.18
419.10	4071.36
419.31	4044.74
419.52	4044.74
419.73	4159.42
419.95	4042.69
420.16	4005.83
420.37	4063.17
420.58	3993.54
420.79	3846.09
421.00	4079.55
421.21	4042.69
421.42	4034.50
421.63	4028.35
421.85	4128.70
422.06	4061.12
422.27	4190.14
422.48	4229.06
422.69	4179.90
422.90	4267.97
423.11	4388.80
423.32	4204.48
423.53	4460.48
423.75	4278.21
423.96	4302.78
424.17	4298.69
424.38	4546.49
424.59	4261.82
424.80	4591.55
425.01	4372.41
425.22	4298.69
425.43	4413.37
425.64	4626.36
425.85	4603.83
426.06	4528.06
426.28	4466.62
426.49	4372.41
426.70	4480.96
426.91	4485.05
427.12	4536.25
427.33	4585.40
427.54	4472.76
427.75	4675.51
427.96	4730.81
428.17	4710.33
428.38	4720.57
428.59	4845.49
428.80	4786.10
429.01	4775.86
429.23	4667.32
429.44	4927.41
429.65	5017.52
429.86	4960.18
430.07	4810.68
430.28	4898.74
430.49	4992.95
430.70	4968.37
430.91	5042.10
431.12	4874.17
431.33	5236.66
431.54	5052.34
431.75	5115.83
431.96	5095.35
432.17	5054.39
432.38	5124.02
432.59	5265.33
432.80	5107.63
433.01	5296.05
433.22	5259.18
433.43	5289.90
433.64	5177.26
433.85	5267.38
434.06	5343.15
434.27	5357.49
434.49	5267.38
434.70	5445.55
434.91	5351.34
435.12	5502.89
435.33	5416.88
435.54	5490.60
435.75	5162.93
435.96	5218.22
436.17	5343.15
436.38	5472.17
436.59	5525.42
436.80	5359.53
437.01	5769.13
437.22	5758.89
437.43	5468.08
437.64	5404.59
437.85	5672.87
438.06	5724.07
438.27	5580.71
438.48	5574.57
438.69	5728.17
438.90	5711.78
439.11	5715.88
439.32	5746.60
439.53	5668.78
439.74	5801.90
439.95	5928.87
440.16	5795.75
440.37	5969.83
440.57	5746.60
440.78	6021.03
440.99	5816.23
441.20	5900.20
441.41	5900.20
441.62	6076.32
441.83	5797.80
442.04	5996.45
442.25	5871.53
442.46	5971.88
442.67	6066.08
442.88	6467.49
443.09	5922.73
443.30	6045.60
443.51	6277.02
443.72	6338.46
443.93	6176.67
444.14	6381.47
444.35	6070.18
444.56	6158.24
444.77	6309.79
444.98	6313.89
445.19	6399.90
445.40	6272.93
445.61	6328.22
445.81	6444.96
446.02	6502.30
446.23	6287.26
446.44	6348.70
446.65	6578.08
446.86	6471.58
447.07	6616.99
447.28	6629.27
447.49	6629.27
447.70	6457.25
447.91	6387.61
448.12	6696.86
448.33	6864.79
448.54	6784.92
448.74	6649.75
448.95	6698.91
449.16	6543.26
449.37	6991.77
449.58	6737.82
449.79	7024.53
450.00	6725.53
450.21	6793.11
450.42	7004.05
450.63	7014.29
450.84	6832.02
451.05	6911.89
451.25	7030.68
451.46	6803.35
451.67	7061.40
451.88	7022.48
452.09	7016.34
452.30	7055.25
452.51	7108.50
452.72	7106.45
452.93	7436.17
453.13	6946.71
453.34	7026.58
453.55	7339.92
453.76	7264.15
453.97	7554.96
454.18	7358.35
454.39	7438.22
454.60	7442.32
454.81	7354.26
455.01	7577.48
455.22	7286.67
455.43	7473.04
455.64	7729.03
455.85	7845.77
456.06	7870.34
456.27	7720.84
456.48	7610.25
456.68	7835.53
456.89	7886.73
457.10	7962.50
457.31	7964.55
457.52	7761.80
457.73	7999.37
457.94	8142.72
458.14	7825.29
458.35	8458.11
458.56	7997.32
458.77	8017.80
458.98	8290.18
459.19	8044.42
459.39	8261.51
459.60	8382.34
459.81	8320.90
460.02	8431.49
460.23	8507.26
460.44	8488.83
460.65	8406.91
460.85	8652.67
461.06	8605.56
461.27	8476.54
461.48	8888.18
461.69	8961.91
461.89	8445.82
462.10	8894.33
462.31	8587.13
462.52	8759.16
462.73	8802.17
462.94	9166.71
463.14	8923.00
463.35	9027.45
463.56	9445.23
463.77	9217.91
463.98	9156.47
464.18	9129.84
464.39	9408.37
464.60	9488.24
464.81	9508.72
465.02	9604.97
465.23	9725.80
465.43	9619.31
465.64	9701.23
465.85	9803.63
466.06	9703.28
466.27	9916.26
466.47	9760.62
466.68	9793.39
466.89	9754.48
467.10	10137.45
467.30	9846.63
467.51	10182.50
467.72	10366.82
467.93	10065.77
468.14	10227.56
468.34	10256.23
468.55	10329.95
468.76	10211.17
468.97	10329.95
469.17	10579.81
469.38	10846.04
469.59	10745.69
469.80	10596.19
470.01	10624.86
470.21	10755.93
470.42	11083.61
470.63	11124.57
470.84	10891.10
471.04	11220.82
471.25	11290.45
471.46	11194.20
471.67	11325.27
471.87	11290.45
472.08	11472.72
472.29	11644.75
472.50	11319.12
472.70	11474.77
472.91	11628.37
473.12	11951.95
473.33	11890.51
473.53	12009.29
473.74	11960.14
473.95	11986.76
474.16	12240.71
474.36	12308.29
474.57	12275.52
474.78	12492.61
474.99	12459.84
475.19	12445.51
475.40	12678.97
475.61	12912.44
475.81	12996.41
476.02	12967.74
476.23	12947.26
476.44	13154.10
476.64	13129.53
476.85	13315.89
477.06	13471.54
477.27	13557.55
477.47	13588.27
477.68	13467.44
477.89	13578.03
478.09	13795.12
478.30	13645.62
478.51	13975.34
478.71	14032.68
478.92	14171.94
479.13	14157.61
479.34	14364.45
479.54	14143.27
479.75	14364.45
479.96	14419.75
480.16	14427.94
480.37	14487.33
480.58	14886.68
480.78	15265.56
480.99	15017.75
481.20	15245.08
481.41	15230.74
481.61	15505.17
481.82	15464.21
482.03	15367.96
482.23	15388.44
482.44	15804.17
482.65	15927.05
482.85	15972.11
483.06	15732.50
483.27	16142.09
483.47	16092.94
483.68	15972.11
483.89	16178.95
484.09	16439.05
484.30	16437.00
484.51	16924.41
484.71	16606.98
484.92	16809.73
485.13	16873.21
485.33	17028.86
485.54	16801.54
485.75	17104.64
485.95	17194.75
486.16	17207.03
486.37	17331.96
486.57	17325.82
486.78	17411.83
486.98	17518.32
487.19	17712.88
487.40	17676.02
487.60	17850.10
487.81	18147.05
488.02	17948.40
488.22	17778.42
488.43	18300.65
488.64	18134.76
488.84	18446.05
489.05	18417.38
489.25	18253.55
489.46	18910.94
489.67	18806.50
489.87	18884.32
490.08	18804.45
490.29	19164.89
490.49	19328.73
490.70	19248.86
490.90	19359.45
491.11	19351.26
491.32	19384.02
491.52	19695.32
491.73	19824.34
491.94	19574.49
492.14	19814.10
492.35	19986.13
492.55	20027.09
492.76	20094.67
492.97	20164.30
493.17	20287.18
493.38	20489.93
493.58	20674.24
493.79	20741.83
494.00	20475.59
494.20	20684.48
494.41	20778.69
494.61	20958.91
494.82	20991.68
495.02	20956.86
495.23	21024.45
495.44	21229.24
495.64	21292.73
495.85	21378.75
496.05	21536.44
496.26	21315.26
496.47	21573.30
496.67	21438.14
496.88	21980.85
497.08	21479.10
497.29	21989.04
497.49	22025.90
497.70	22062.77
497.91	22107.82
498.11	22308.52
498.32	22161.07
498.52	22177.45
498.73	22593.19
498.93	22322.86
499.14	22570.66
499.34	22609.58
499.55	22994.59
499.76	22742.69
499.96	23101.09
500.17	22802.08
500.37	22947.49
500.58	22888.10
500.78	23092.90
500.99	23234.21
501.19	23418.52
501.40	23254.69
501.60	23553.69
501.81	23269.02
502.02	23391.90
502.22	23191.20
502.43	23619.22
502.63	23891.60
502.84	24024.72
503.04	23660.18
503.25	23834.26
503.45	23875.22
503.66	24151.70
503.86	23936.66
504.07	24403.60
504.27	23815.83
504.48	24385.16
504.68	24376.97
504.89	24434.32
505.09	24462.99
505.30	24628.87
505.50	24379.02
505.71	24587.91
505.91	24972.93
506.12	24964.74
506.32	24694.41
506.53	25114.24
506.73	25060.99
506.94	25013.89
507.14	25233.02
507.35	25079.43
507.55	25210.50
507.76	25161.34
507.96	25200.26
508.17	25480.83
508.37	25769.59
508.58	25421.44
508.78	25566.84
508.99	25812.60
509.19	25708.15
509.40	26074.74
509.60	25536.12
509.81	25591.42
510.01	25783.93
510.22	25622.14
510.42	26033.78
510.63	26308.21
510.83	26066.55
511.04	26044.02
511.24	26353.26
511.44	26035.83
511.65	26496.62
511.85	26189.42
512.06	26334.83
512.26	26517.10
512.47	26814.05
512.67	26621.55
512.88	26812.01
513.08	26691.18
513.29	26830.44
513.49	26361.45
513.69	26537.58
513.90	26875.49
514.10	27010.66
514.31	27188.83
514.51	27031.14
514.72	26930.79
514.92	27139.68
515.13	27250.27
515.33	27192.93
515.53	27305.57
515.74	27301.47
515.94	27487.84
516.15	27584.09
516.35	27381.34
516.56	27784.79
516.76	27635.29
516.96	27743.83
517.17	27692.63
517.37	27690.59
517.58	28137.04
517.78	28098.13
517.99	27688.54
518.19	28345.94
518.39	28235.35
518.60	28255.82
518.80	28515.92
519.01	28429.90
519.21	28245.58
519.41	28730.95
519.62	28538.44
519.82	28644.94
520.03	29034.05
520.23	28902.98
520.43	28685.90
520.64	28886.60
520.84	29439.55
521.05	29132.36
521.25	28989.00
521.45	29146.69
521.66	29826.62
521.86	29101.64
522.07	29130.31
522.27	29308.48
522.47	29371.97
522.68	29726.27
522.88	29584.96
523.08	29556.28
523.29	29709.88
523.49	29797.95
523.70	29875.77
523.90	30438.96
524.10	30055.99
524.31	30129.72
524.51	29838.90
524.71	30584.37
524.92	30531.12
525.12	30549.55
525.33	30727.72
525.53	30723.63
525.73	30821.93
525.94	30922.28
526.14	31129.12
526.34	30948.90
526.55	31149.60
526.75	31141.41
526.95	31569.44
527.16	31319.59
527.36	31221.28
527.56	31419.94
527.77	31653.40
527.97	31753.76
528.17	31858.20
528.38	32075.29
528.58	31800.86
528.78	32067.09
528.99	31905.31
529.19	32464.40
529.39	31854.11
529.60	32724.49
529.80	32577.04
530.00	32628.24
530.21	32445.97
530.41	32679.44
530.61	32550.42
530.82	32812.56
531.02	33027.59
531.22	32951.82
531.43	32816.65
531.63	32974.34
531.83	33607.17
532.04	33572.35
532.24	33293.83
532.44	33525.25
532.64	33787.39
532.85	33646.08
533.05	33955.32
533.25	33887.74
533.46	33889.79
533.66	34323.96
533.86	34074.10
534.07	34631.15
534.27	34538.99
534.47	34446.83
534.67	34684.40
534.88	34723.31
535.08	34739.69
535.28	34997.74
535.49	35167.72
535.69	35126.76
535.89	35382.76
536.09	35325.41
536.30	35440.10
536.50	35710.43
536.70	35433.96
536.91	35466.72
537.11	35724.77
537.31	35786.21
537.51	36089.31
537.72	36074.97
537.92	36203.99
538.12	36365.78
538.32	36220.38
538.53	36318.68
538.73	36459.99
538.93	36664.78
539.13	36662.74
539.34	36632.02
539.54	36292.05
539.74	37139.91
539.94	36873.68
540.15	36826.57
540.35	37160.39
540.55	36910.54
540.75	37119.43
540.96	37264.84
541.16	37672.39
541.36	37574.08
541.56	37539.27
541.77	37737.92
541.97	37868.99
542.17	37615.04
542.37	37543.36
542.58	37756.35
542.78	37893.57
542.98	37737.92
543.18	38030.78
543.38	38444.47
543.59	38380.98
543.79	38186.43
543.99	38477.24
544.19	38444.47
544.40	38364.60
544.60	38524.34
544.80	38794.67
545.00	38692.27
545.20	39060.91
545.41	38614.45
545.61	38421.94
545.81	39159.21
546.01	39011.76
546.21	38895.02
546.42	39038.38
546.62	39148.97
546.82	39032.24
547.02	39060.91
547.22	39370.15
547.43	39136.68
547.63	39148.97
547.83	39757.22
548.03	39179.69
548.23	39466.41
548.44	39925.15
548.64	39441.83
548.84	40080.80
549.04	39427.49
549.24	39974.30
549.45	40381.85
549.65	39857.57
549.85	40021.41
550.05	39935.39
550.25	40158.62
550.45	40611.22
550.66	40308.12
550.86	39896.48
551.06	40660.37
551.26	40324.50
551.46	40404.38
551.66	40426.90
551.87	40193.43
552.07	40539.54
552.27	40461.72
552.47	40248.73
552.67	40748.43
552.87	40725.91
553.07	40963.47
553.28	40951.18
553.48	40822.16
553.68	40762.77
553.88	41117.07
554.08	41000.33
554.28	40908.18
554.48	40746.39
554.69	41037.20
554.89	41422.22
555.09	41092.49
555.29	40887.70
555.49	41110.92
555.69	41383.30
555.89	41268.62
556.10	41528.71
556.30	41268.62
556.50	41383.30
556.70	41682.31
556.90	41442.70
557.10	42087.81
557.30	41198.99
557.50	41731.46
557.70	42161.53
557.91	41846.15
558.11	41397.64
558.31	41993.60
558.51	41825.67
558.71	41813.38
558.91	41999.74
559.11	41745.80
559.31	41999.74
559.51	41932.16
559.72	42067.33
559.92	42126.72
560.12	42012.03
560.32	42192.25
560.52	42331.51
560.72	42247.55
560.92	42157.44
561.12	42321.27
561.32	42739.06
561.52	42118.53
561.72	42876.27
561.93	42661.24
562.13	42380.67
562.33	42319.23
562.53	42935.66
562.73	42456.44
562.93	42466.68
563.13	42634.61
563.33	42835.31
563.53	43160.94
563.73	42906.99
563.93	43189.61
564.13	43550.06
564.33	42810.74
564.53	42644.85
564.74	43206.00
564.94	42958.19
565.14	43017.58
565.34	42775.92
565.54	43406.70
565.74	43142.51
565.94	43744.61
566.14	43093.36
566.34	42679.67
566.54	43828.58
566.74	43177.33
566.94	43582.82
567.14	43672.93
567.34	43015.54
567.54	43963.75
567.74	43435.37
567.94	43443.56
568.14	43654.50
568.34	43875.68
568.54	44047.71
568.74	43758.95
568.94	43341.16
569.14	43902.31
569.34	43902.31
569.54	43879.78
569.75	43486.57
569.95	43787.62
570.15	44361.05
570.35	44103.01
570.55	43920.74
570.75	44109.15
570.95	44098.91
571.15	44465.50
571.35	44205.41
571.55	44363.10
571.75	44373.34
571.95	44690.77
572.15	44148.06
572.35	44346.72
572.55	44232.03
572.75	44565.85
572.95	44328.28
573.15	44778.84
573.35	44649.81
573.55	44268.89
573.75	44504.41
573.95	44696.92
574.15	44565.85
574.35	44602.71
574.55	44664.15
574.75	44651.86
574.95	44881.24
575.15	44918.10
575.34	44875.09
575.54	45356.36
575.74	45172.05
575.94	45030.74
576.14	45008.21
576.34	45552.97
576.54	45442.38
576.74	45421.90
576.94	45243.73
577.14	45460.81
577.34	45626.70
577.54	45149.52
577.74	45688.13
577.94	45798.73
578.14	45604.17
578.34	46228.80
578.54	45210.96
578.74	45817.16
578.94	46097.73
579.14	46048.58
579.34	45763.91
579.54	46110.02
579.74	46656.82
579.94	46208.32
580.13	46323.01
580.33	46366.01
580.53	46458.17
580.73	46521.66
580.93	46482.75
581.13	46806.33
581.33	47125.81
581.53	46902.58
581.73	46853.43
581.93	47211.82
582.13	46931.25
582.33	47029.55
582.53	46769.46
582.73	47449.39
582.92	47158.58
583.12	47297.84
583.32	47189.30
583.52	47105.33
583.72	47920.42
583.92	47043.89
584.12	47275.31
584.32	47680.81
584.52	47588.65
584.72	47662.38
584.92	47840.55
585.11	47969.57
585.31	47504.68
585.51	47500.59
585.71	47904.04
585.91	48186.66
586.11	47863.08
586.31	48121.12
586.51	47863.08
586.71	48465.18
586.91	48624.92
587.10	48440.60
587.30	48280.86
587.50	48346.40
587.70	48868.63
587.90	48563.48
588.10	48805.14
588.30	48506.14
588.50	48864.53
588.69	48690.46
588.89	48604.44
589.09	48510.24
589.29	48833.81
589.49	49204.50
589.69	48350.49
589.89	49247.50
590.08	49208.59
590.28	48663.83
590.48	49011.99
590.68	49106.19
590.88	49159.44
591.08	48819.48
591.28	49034.52
591.47	49267.98
591.67	49218.83
591.87	48985.36
592.07	49990.92
592.27	49530.12
592.47	49612.04
592.67	49552.65
592.86	49153.30
593.06	49644.81
593.26	49825.03
593.46	50109.70
593.66	49693.96
593.86	50025.73
594.05	49972.49
594.25	50529.53
594.45	49431.82
594.65	49939.72
594.85	49286.42
595.05	50201.86
595.24	50504.96
595.44	50824.44
595.64	50306.30
595.84	50447.61
596.04	50740.47
596.23	50820.34
596.43	50885.88
596.63	50808.06
596.83	50525.44
597.03	50763.00
597.22	51098.87
597.42	50492.67
597.62	50873.59
597.82	50953.46
598.02	50722.04
598.21	51352.82
598.41	51152.12
598.61	50947.32
598.81	51027.19
599.01	51164.40
599.20	51094.77
599.40	51107.06
599.60	51344.62
599.80	51547.37
600.00	51887.34
600.19	51959.02
600.39	51582.19
600.59	51434.74
600.79	51746.03
600.98	51735.79
601.18	52012.26
601.38	51778.79
601.58	52188.39
601.78	52296.93
601.97	52233.44
602.17	52886.74
602.37	52032.74
602.57	52167.91
602.76	52446.43
602.96	52466.91
603.16	52790.49
603.36	52360.42
603.55	52571.36
603.75	52532.45
603.95	52481.25
604.15	52708.57
604.34	52632.80
604.54	52327.65
604.74	53017.82
604.94	52649.18
605.13	53087.45
605.33	53198.04
605.53	53056.73
605.73	53191.89
605.92	52874.46
606.12	53697.74
606.32	53130.45
606.52	52958.42
606.71	53017.82
606.91	53540.05
607.11	53509.33
607.30	53877.96
607.50	53595.34
607.70	53681.36
607.90	53472.46
608.09	53206.23
608.29	53546.19
608.49	53644.49
608.68	53755.08
608.88	53718.22
609.08	53583.05
609.28	54351.04
609.47	53652.69
609.67	53927.11
609.87	53642.45
610.06	53925.07
610.26	54142.15
610.46	54027.46
610.66	53880.01
610.85	54168.77
611.05	53576.91
611.25	54254.79
611.44	54279.36
611.64	54320.32
611.84	53748.94
612.03	54140.10
612.23	53961.93
612.43	54555.84
612.62	54351.04
612.82	54557.89
613.02	54021.32
613.21	54527.17
613.41	53869.77
613.61	54379.71
613.80	54074.57
614.00	54416.58
614.20	54658.24
614.39	54299.84
614.59	54305.99
614.79	54281.41
614.98	54209.73
615.18	54369.47
615.38	54430.91
615.57	54484.16
615.77	54492.35
615.97	54682.81
616.16	54047.94
616.36	54172.87
616.56	54432.96
616.75	54295.75
616.95	53949.64
617.15	54052.04
617.34	54174.92
617.54	54410.43
617.74	54592.70
617.93	54555.84
618.13	53802.19
618.32	54639.81
618.52	54359.23
618.72	54473.92
618.91	54361.28
619.11	54238.40
619.31	54502.59
619.50	54131.91
619.70	54064.33
619.90	54252.74
620.09	54551.74
620.29	54281.41
620.48	53945.54
620.68	54478.02
620.88	54228.16
621.07	54731.96
621.27	54486.21
621.46	54469.82
621.66	54570.18
621.86	54371.52
622.05	54088.90
622.25	54615.23
622.44	54277.32
622.64	54375.62
622.84	54297.80
623.03	53839.05
623.23	54215.88
623.42	54099.14
623.62	54326.47
623.82	54961.34
624.01	53998.79
624.21	54420.67
624.40	54467.78
624.60	54400.19
624.80	54056.14
624.99	54334.66
625.19	54246.60
625.38	54334.66
625.58	54463.68
625.77	54682.81
625.97	54328.52
626.17	53707.98
626.36	53904.59
626.56	54174.92
626.75	53814.47
626.95	54305.99
627.14	54254.79
627.34	54203.59
627.54	53712.08
627.73	54080.71
627.93	54076.61
628.12	53777.61
628.32	53923.02
628.51	53390.55
628.71	53918.92
628.90	54107.33
629.10	53765.32
629.30	53509.33
629.49	53785.80
629.69	53966.02
629.88	53773.52
630.08	54658.24
630.27	54621.37
630.47	54025.42
630.66	53767.37
630.86	54301.89
631.05	53337.30
631.25	54435.01
631.44	53843.15
631.64	54170.82
631.84	54320.32
632.03	54611.13
632.23	54146.25
632.42	54680.77
632.62	54334.66
632.81	53697.74
633.01	53812.43
633.20	54367.43
633.40	54336.71
633.59	54326.47
633.79	54023.37
633.98	53978.31
634.18	54164.68
634.37	54406.34
634.57	54625.47
634.76	54553.79
634.96	54211.78
635.15	54389.95
635.35	54023.37
635.54	54256.84
635.74	54392.00
635.93	54201.54
636.13	54318.28
636.32	54222.02
636.52	53859.53
636.71	54484.16
636.91	54527.17
637.10	54385.86
637.30	54654.14
637.49	54336.71
637.69	54033.61
637.88	54979.77
638.08	54242.50
638.27	54561.98
638.46	54600.89
638.66	54412.48
638.85	54322.37
639.05	54475.97
639.24	54326.47
639.44	54531.26
639.63	54709.44
639.83	54531.26
640.02	54514.88
640.22	54205.64
640.41	54637.76
640.61	53574.86
640.80	54834.36
640.99	53982.41
641.19	55409.84
641.38	54535.36
641.58	54633.66
641.77	54830.27
641.97	54469.82
642.16	54435.01
642.36	54842.56
642.55	54668.48
642.74	54580.42
642.94	55059.64
643.13	54236.36
643.33	54797.50
643.52	54817.98
643.72	54940.86
643.91	54531.26
644.10	55129.27
644.30	54891.71
644.49	54588.61
644.69	54707.39
644.88	54834.36
645.08	54629.57
645.27	54873.27
645.46	54768.83
645.66	55059.64
645.85	54670.53
646.05	55094.46
646.24	55069.88
646.43	54809.79
646.63	55624.88
646.82	55129.27
647.02	54596.80
647.21	54973.63
647.40	54760.64
647.60	55237.81
647.79	55213.24
647.99	54985.91
648.18	54772.92
648.37	55497.91
648.57	55497.91
648.76	55104.70
648.96	54572.22
649.15	55647.41
649.34	55280.82
649.54	55121.08
649.73	54992.06
649.92	55536.82
650.12	55358.64
650.31	55295.16
650.51	55600.30
650.70	55432.37
650.89	55026.87
651.09	56220.84
651.28	55383.22
651.47	55274.68
651.67	55088.31
651.86	55860.40
652.06	55092.41
652.25	55119.03
652.44	55149.75
652.64	55200.95
652.83	55450.80
653.02	55141.56
653.22	55411.89
653.41	55381.17
653.60	55348.40
653.80	55358.64
653.99	55706.80
654.18	55571.63
654.38	55008.44
654.57	55585.97
654.76	55581.87
654.96	55362.74
655.15	55655.60
655.34	55166.13
655.54	55022.78
655.73	55526.58
655.92	56042.66
656.12	55121.08
656.31	55579.82
656.50	55522.48
656.70	55592.11
656.89	55948.46
657.08	55981.23
657.28	55518.38
657.47	55817.39
657.66	55870.64
657.86	55127.22
658.05	55897.26
658.24	55663.79
658.43	55266.48
658.63	55860.40
658.82	55909.55
659.01	55952.55
659.21	56091.82
659.40	56157.35
659.59	55475.38
659.79	56153.26
659.98	55932.07
660.17	55925.93
660.36	55882.92
660.56	55932.07
660.75	56081.58
660.94	55766.19
661.14	55801.00
661.33	55985.32
661.52	55299.25
661.71	56394.92
661.91	55694.51
662.10	55522.48
662.29	56235.17
662.49	55850.16
662.68	55866.54
662.87	56599.71
663.06	56265.89
663.26	55864.49
663.45	56292.52
663.64	55696.56
663.83	56321.19
664.03	56145.06
664.22	56259.75
664.41	56442.02
664.60	56288.42
664.80	56169.64
664.99	56460.45
665.18	56263.85
665.37	56431.78
665.57	56237.22
665.76	56048.81
665.95	56140.97
666.14	56349.86
666.34	55975.08
666.53	56120.49
666.72	55993.51
666.91	55907.50
667.11	55882.92
667.30	56362.15
667.49	56247.46
667.68	56013.99
667.87	55813.29
668.07	56251.56
668.26	56059.05
668.45	56657.06
668.64	56081.58
668.84	56669.34
669.03	56706.21
669.22	56249.51
669.41	56513.70
669.60	56468.64
669.80	56161.45
669.99	56374.44
670.18	56384.68
670.37	56145.06
670.57	56808.61
670.76	55942.31
670.95	56745.12
671.14	56661.15
671.33	56292.52
671.53	56728.73
671.72	56493.22
671.91	56515.75
672.10	56562.85
672.29	56429.73
672.48	56360.10
672.68	56702.11
672.87	56589.47
673.06	56489.12
673.25	56380.58
673.44	56048.81
673.64	56292.52
673.83	56128.68
674.02	56140.97
674.21	56028.33
674.40	56421.54
674.59	56239.27
674.79	56251.56
674.98	56153.26
675.17	56419.49
675.36	55774.38
675.55	56396.96
675.74	56267.94
675.94	55927.98
676.13	56603.81
676.32	56396.96
676.51	56947.87
676.70	56267.94
676.89	56265.89
677.08	56728.73
677.28	56253.61
677.47	56460.45
677.66	56646.82
677.85	56011.95
678.04	56528.03
678.23	56745.12
678.42	56403.11
678.62	56237.22
678.81	56800.41
679.00	56280.23
679.19	56931.48
679.38	56908.96
679.57	56425.64
679.76	56513.70
679.96	56347.81
680.15	56296.61
680.34	56038.57
680.53	56038.57
680.72	56419.49
680.91	56628.38
681.10	56421.54
681.29	56652.96
681.48	56448.16
681.68	55882.92
681.87	56272.04
682.06	56036.52
682.25	55884.97
682.44	56345.76
682.63	56554.66
682.82	55669.93
683.01	55821.48
683.20	55839.92
683.39	56294.56
683.59	55968.94
683.78	55680.17
683.97	56163.50
684.16	56030.38
684.35	55508.14
684.54	55846.06
684.73	56136.87
684.92	55772.33
685.11	56454.31
685.30	55645.36
685.49	55999.66
685.69	55913.64
685.88	56169.64
686.07	55911.59
686.26	56194.21
686.45	56169.64
686.64	56091.82
686.83	55801.00
687.02	55977.13
687.21	56077.48
687.40	55764.14
687.59	56093.86
687.78	55737.52
687.97	56145.06
688.16	56169.64
688.35	55473.33
688.54	55145.65
688.74	55725.23
688.93	55608.50
689.12	55598.26
689.31	55776.43
689.50	55772.33
689.69	55112.89
689.88	55112.89
690.07	55889.07
690.26	55391.41
690.45	55577.78
690.64	55110.84
690.83	55540.91
691.02	55203.00
691.21	55264.44
691.40	55121.08
691.59	55190.71
691.78	55182.52
691.97	55454.90
692.16	55506.10
692.35	55645.36
692.54	55411.89
692.73	55674.03
692.92	55475.38
693.11	55270.58
693.30	54994.10
693.49	55520.43
693.68	55223.48
693.87	55319.73
694.06	54926.52
694.25	55227.57
694.44	54967.48
694.63	54973.63
694.82	55045.30
695.01	55141.56
695.20	54815.93
695.39	54838.46
695.58	54871.23
695.77	54574.27
695.96	54314.18
696.15	54938.81
696.34	54324.42
696.53	54879.42
696.72	54772.92
696.91	55057.59
697.10	54854.84
697.29	54584.51
697.48	54912.19
697.67	54486.21
697.86	54392.00
698.05	54240.45
698.24	54852.80
698.43	54273.22
698.62	54631.61
698.81	54535.36
699.00	54764.73
699.19	53988.55
699.38	54543.55
699.57	54435.01
699.76	54629.57
699.95	54518.98
700.14	53941.45
700.32	54314.18
700.51	54342.85
700.70	54682.81
700.89	54144.20
701.08	54568.13
701.27	54150.34
701.46	54193.35
701.65	53839.05
701.84	54463.68
702.03	54015.18
702.22	53644.49
702.41	53728.46
702.60	54031.56
702.79	53847.24
702.98	53568.72
703.17	53691.60
703.35	53564.62
703.54	53419.22
703.73	53728.46
703.92	53812.43
704.11	53290.19
704.30	53157.08
704.49	53107.93
704.68	53310.67
704.87	53425.36
705.06	53152.98
705.25	52966.62
705.43	53064.92
705.62	53513.42
705.81	53064.92
706.00	53458.13
706.19	52976.86
706.38	53042.39
706.57	53284.05
706.76	52950.23
706.95	52659.42
707.14	52712.67
707.32	52712.67
707.51	52360.42
707.70	52741.34
707.89	52952.28
708.08	52602.08
708.27	52950.23
708.46	53095.64
708.65	52516.06
708.84	53300.43
709.02	52696.28
709.21	52946.14
709.40	52518.11
709.59	52628.70
709.78	52430.05
709.97	52817.11
710.16	51969.26
710.34	52253.92
710.53	52311.27
710.72	52147.43
710.91	52102.37
711.10	52419.81
711.29	52522.21
711.48	52100.32
711.66	52122.85
711.85	51940.58
712.04	51991.78
712.23	51889.38
712.42	51905.77
712.61	52210.92
712.80	52014.31
712.98	51952.87
713.17	51727.59
713.36	52085.99
713.55	51725.55
713.74	51913.96
713.93	51836.14
714.11	51567.85
714.30	51864.81
714.49	51389.68
714.68	51676.40
714.87	51647.72
715.06	51903.72
715.24	51418.35
715.43	51715.31
715.62	51498.22
715.81	51375.34
716.00	51410.16
716.18	51066.10
716.37	50648.32
716.56	50578.68
716.75	51690.73
716.94	50898.17
717.12	50644.22
717.31	50760.95
717.50	51184.88
717.69	50822.39
717.88	50752.76
718.06	51313.90
718.25	51051.76
718.44	50480.38
718.63	50586.88
718.82	50003.20
719.00	50681.08
719.19	50273.54
719.38	50218.24
719.57	49808.65
719.76	49605.90
719.94	49546.51
720.13	49526.03
720.32	50265.34
720.51	49837.32
720.69	49763.59
720.88	49605.90
721.07	49689.87
721.26	49399.05
721.44	49370.38
721.63	49534.22
721.82	48962.84
722.01	49186.07
722.20	49706.25
722.38	48966.93
722.57	49081.62
722.76	48889.11
722.95	49116.43
723.13	48723.22
723.32	48954.64
723.51	48968.98
723.70	48741.66
723.88	49059.09
724.07	48543.00
724.26	48780.57
724.44	48332.06
724.63	48764.18
724.82	48504.09
725.01	48198.94
725.19	48516.38
725.38	48264.48
725.57	48424.22
725.76	48233.76
725.94	48051.49
726.13	47842.60
726.32	47971.62
726.51	47678.76
726.69	48706.84
726.88	48274.72
727.07	48559.39
727.25	47701.29
727.44	48223.52
727.63	47551.79
727.82	48033.06
728.00	48223.52
728.19	48139.55
728.38	47969.57
728.56	47711.53
728.75	47920.42
728.94	47670.57
729.12	47811.88
729.31	47973.67
729.50	47621.42
729.69	47967.52
729.87	47742.25
730.06	47723.82
730.25	47645.99
730.43	48164.13
730.62	47469.87
730.81	47912.23
730.99	47652.14
731.18	47686.95
731.37	48055.59
731.55	47955.24
731.74	48422.17
731.93	48014.63
732.11	47439.15
732.30	47729.96
732.49	47451.44
732.67	47473.96
732.86	47564.07
733.05	47592.75
733.23	46990.64
733.42	47158.58
733.61	47576.36
733.79	47598.89
733.98	47494.44
734.17	47320.37
734.35	47414.57
734.54	47338.80
734.73	47439.15
734.91	47617.32
735.10	47357.23
735.29	47893.80
735.47	47414.57
735.66	47338.80
735.84	47289.65
736.03	47316.27
736.22	47437.10
736.40	46896.44
736.59	46806.33
736.78	47064.37
736.96	47191.34
737.15	47134.00
737.33	47050.03
737.52	47056.18
737.71	46845.24
737.89	47088.95
738.08	46343.48
738.27	46888.24
738.45	47177.01
738.64	47193.39
738.82	46744.89
739.01	46865.72
739.20	46677.30
739.38	46650.68
739.57	47125.81
739.75	46890.29
739.94	46726.46
740.13	46290.24
740.31	46421.31
740.50	46374.20
740.68	46431.55
740.87	46734.65
741.06	46372.16
741.24	46198.08
741.43	46161.22
741.61	46449.98
741.80	46388.54
741.99	46298.43
742.17	46079.30
742.36	45909.32
742.54	46163.26
742.73	46026.05
742.91	46118.21
743.10	45899.08
743.29	46208.32
743.47	46269.76
743.66	46007.62
743.84	46277.95
744.03	46273.85
744.21	46005.57
744.40	46388.54
744.59	45729.09
744.77	45761.86
744.96	45944.13
745.14	46304.57
745.33	45876.55
745.51	46015.81
745.70	45913.41
745.88	45763.91
746.07	45710.66
746.26	45405.52
746.44	45831.49
746.63	45716.81
746.81	45524.30
747.00	45344.08
747.18	45532.49
747.37	45688.13
747.55	45866.31
747.74	46165.31
747.92	45260.11
748.11	45106.51
748.29	45745.48
748.48	45057.36
748.66	44813.65
748.85	45452.62
749.03	44985.68
749.22	45489.48
749.41	45432.14
749.59	45503.82
749.78	45251.92
749.96	44692.82
750.15	45249.87
750.33	44864.85
750.52	44797.27
750.70	45083.98
750.89	44703.06
751.07	44473.69
751.26	44942.67
751.44	44649.81
751.63	44485.98
751.81	44350.81
752.00	44217.69
752.18	45055.31
752.37	44563.80
752.55	44275.04
752.74	44430.68
752.92	44856.66
753.10	44402.01
753.29	44309.85
753.47	44385.63
753.66	44062.05
753.84	44565.85
754.03	44103.01
754.21	44121.44
754.40	44592.47
754.58	44377.43
754.77	44074.34
754.95	44047.71
755.14	44137.82
755.32	44160.35
755.51	43623.78
755.69	43865.44
755.88	43959.65
756.06	43904.35
756.24	43756.90
756.43	43728.23
756.61	44082.53
756.80	43443.56
756.98	43259.24
757.17	43414.89
757.35	43793.76
757.54	43713.89
757.72	43593.06
757.90	43451.75
758.09	43441.51
758.27	43767.14
758.46	43373.93
758.64	42984.82
758.83	43515.24
759.01	43689.32
759.19	43703.65
759.38	43418.99
759.56	43410.79
759.75	43625.83
759.93	43472.23
760.12	43206.00
760.30	43416.94
760.48	43038.06
760.67	43244.91
760.85	43003.25
761.04	43349.35
761.22	42943.86
761.40	43079.02
761.59	43040.11
761.77	42431.86
761.96	42872.18
762.14	43046.26
762.32	42640.76
762.51	42724.72
762.69	42958.19
762.88	42636.66
763.06	42777.97
763.24	42913.14
763.43	42902.90
763.61	42573.17
763.80	42743.16
763.98	42491.26
764.16	42976.62
764.35	42440.06
764.53	41891.20
764.72	42286.46
764.90	42218.88
765.08	42104.19
765.27	42524.02
765.45	42200.44
765.63	41792.90
765.82	42308.99
766.00	41999.74
766.18	42083.71
766.37	42546.55
766.55	42020.22
766.74	41956.74
766.92	41917.82
767.10	41917.82
767.29	41991.55
767.47	41641.35
767.65	42104.19
767.84	41514.37
768.02	41860.48
768.20	41508.23
768.39	41696.64
768.57	41805.19
768.75	41512.33
768.94	41387.40
769.12	41831.81
769.30	41268.62
769.49	41428.36
769.67	41491.85
769.85	41078.16
770.04	41452.94
770.22	41205.13
770.40	41041.29
770.59	40910.22
770.77	41334.15
770.95	40988.05
771.14	40643.99
771.32	40738.19
771.50	40553.88
771.69	40885.65
771.87	41112.97
772.05	40648.08
772.24	40398.23
772.42	40813.97
772.60	40494.49
772.78	40560.02
772.97	40668.56
773.15	40457.62
773.33	40574.36
773.52	40365.46
773.70	40363.42
773.88	40633.75
774.07	40414.62
774.25	40697.24
774.43	40553.88
774.61	40914.32
774.80	40467.86
774.98	40398.23
775.16	40615.32
775.34	40773.01
775.53	40752.53
775.71	40777.11
775.89	40773.01
776.08	40715.67
776.26	40543.64
776.44	40539.54
776.62	40824.21
776.81	40543.64
776.99	41155.98
777.17	40869.26
777.35	40836.50
777.54	41397.64
777.72	40564.12
777.90	41112.97
778.08	40926.61
778.27	40840.59
778.45	40928.66
778.63	40930.70
778.81	40914.32
779.00	41547.14
779.18	41213.32
779.36	41530.76
779.54	41067.92
779.73	41018.77
779.91	41364.87
780.09	40959.38
780.27	41545.09
780.46	41391.50
780.64	41764.23
780.82	41401.74
781.00	41510.28
781.19	41538.95
781.37	41377.16
781.55	41377.16
781.73	41819.52
781.91	41710.98
782.10	41641.35
782.28	41614.72
782.46	41713.03
782.64	41842.05
782.82	41432.46
783.01	41799.04
783.19	42005.89
783.37	41958.78
783.55	41549.19
783.74	42237.31
783.92	41508.23
784.10	41811.33
784.28	41424.26
784.46	41692.55
784.64	41858.43
784.83	42009.98
785.01	41940.35
785.19	41815.43
785.37	41973.12
785.55	41991.55
785.74	41514.37
785.92	41586.05
786.10	41866.63
786.28	41786.75
786.46	41522.57
786.64	41563.53
786.83	41784.71
787.01	41936.26
787.19	41858.43
787.37	41766.27
787.55	41141.64
787.74	41223.56
787.92	41215.37
788.10	41471.37
788.28	41153.93
788.46	41334.15
788.64	41334.15
788.82	41618.82
789.01	41721.22
789.19	41588.10
789.37	41145.74
789.55	41176.46
789.73	41041.29
789.91	41368.97
790.09	40916.37
790.28	40758.67
790.46	40435.10
790.64	41006.48
790.82	40697.24
791.00	40457.62
791.18	40699.28
791.36	40500.63
791.55	40687.00
791.73	40154.52
791.91	39908.77
792.09	40283.55
792.27	39923.10
792.45	40316.31
792.63	40205.72
792.81	39992.73
793.00	39900.58
793.18	39966.11
793.36	39630.24
793.54	39794.08
793.72	40066.46
793.90	39394.73
794.08	39394.73
794.26	39355.82
794.44	39065.00
794.62	39220.65
794.81	39517.60
794.99	38954.41
795.17	39005.61
795.35	39329.19
795.53	39333.29
795.71	39179.69
795.89	38626.74
796.07	38540.72
796.25	38348.21
796.43	38143.42
796.61	38430.13
796.80	38116.79
796.98	38280.63
797.16	37506.50
797.34	38165.95
797.52	38000.06
797.70	38176.19
797.88	38180.28
798.06	37686.72
798.24	37500.36
798.42	37645.76
798.60	37686.72
798.78	37647.81
798.96	37699.01
799.14	37414.34
799.32	37391.81
799.51	37057.99
799.69	37678.53
799.87	37066.19
800.05	36992.46
800.23	36869.58
800.41	37029.32
800.59	36791.76
800.77	36586.96
800.95	36654.54
801.13	36828.62
801.31	36337.11
801.49	36226.52
801.67	36277.72
801.85	36197.85
802.03	35988.95
802.21	36283.86
802.39	35765.73
802.57	35698.14
802.75	35945.95
802.93	35892.70
803.11	35489.25
803.29	35345.89
803.47	35401.19
803.65	35542.50
803.83	35243.49
804.01	35321.32
804.19	34993.64
804.37	34938.35
804.55	35333.60
804.73	34907.63
804.91	34813.42
805.09	34786.80
805.27	34506.23
805.45	34790.89
805.63	34967.02
805.81	34854.38
805.99	35067.37
806.17	34944.49
806.35	34555.38
806.53	34348.53
806.71	34268.66
806.89	34588.14
807.07	34170.36
807.25	34776.56
807.43	34092.54
807.61	33965.56
807.79	33797.63
807.97	33687.04
808.15	33533.44
808.33	33744.38
808.51	33502.72
808.69	33627.65
808.87	33236.48
809.05	33269.25
809.23	33232.39
809.41	32931.34
809.59	33134.09
809.77	33179.14
809.95	32853.51
810.13	33236.48
810.31	32871.95
810.49	32898.57
810.67	32781.84
810.84	32828.94
811.02	32550.42
811.20	32286.23
811.38	32550.42
811.56	32013.85
811.74	32613.90
811.92	32196.12
812.10	32802.32
812.28	32304.66
812.46	32284.18
812.64	31929.88
812.82	31985.18
813.00	31905.31
813.18	32278.04
813.36	32192.02
813.53	31682.08
813.71	32085.53
813.89	31954.46
814.07	31493.66
814.25	31677.98
814.43	31675.93
814.61	31657.50
814.79	31817.24
814.97	31645.21
815.15	31399.46
815.33	31043.11
815.50	30850.60
815.68	31039.01
815.86	31305.25
816.04	30928.42
816.22	30610.99
816.40	30953.00
816.58	30563.89
816.76	30914.09
816.94	30651.95
817.11	30799.40
817.29	30488.11
817.47	30506.54
817.65	30608.94
817.83	30500.40
818.01	30266.93
818.19	30459.44
818.37	30533.17
818.54	30234.16
818.72	30465.58
818.90	30207.54
819.08	29894.20
819.26	29972.02
819.44	29740.60
819.62	29929.02
819.80	29904.44
819.97	29695.55
820.15	29914.68
820.33	29443.65
820.51	29972.02
820.69	29339.20
820.87	29578.81
821.05	29568.57
821.22	29339.20
821.40	29525.57
821.58	29324.86
821.76	29302.34
821.94	29300.29
822.12	29179.46
822.29	29476.41
822.47	28780.10
822.65	29367.87
822.83	29036.10
823.01	28763.72
823.19	29105.73
823.36	28712.52
823.54	28825.16
823.72	28481.10
823.90	28761.67
824.08	28448.33
824.25	28769.86
824.43	28573.26
824.61	28315.22
824.79	28712.52
824.97	28468.81
825.15	28831.30
825.32	28567.12
825.50	28190.29
825.68	28112.47
825.86	28434.00
826.04	28128.85
826.21	28255.82
826.39	28378.70
826.57	28327.50
826.75	27922.01
826.93	27969.11
827.10	27989.59
827.28	27854.42
827.46	28329.55
827.64	27637.34
827.81	27780.70
827.99	27711.07
828.17	27670.11
828.35	27719.26
828.53	27127.39
828.70	27303.52
828.88	27577.95
829.06	27723.35
829.24	27928.15
829.41	27186.79
829.59	27586.14
829.77	27346.53
829.95	27432.54
830.12	27051.62
830.30	27317.86
830.48	27410.01
830.66	27086.43
830.84	27199.07
831.01	26769.00
831.19	27272.80
831.37	26926.69
831.55	27176.55
831.72	26549.87
831.90	26867.30
832.08	26846.82
832.25	26713.70
832.43	26580.59
832.61	26623.59
832.79	26455.66
832.96	26656.36
833.14	26435.18
833.32	26599.02
833.50	26850.92
833.67	26441.32
833.85	26271.34
834.03	26347.12
834.20	26678.89
834.38	26463.85
834.56	26375.79
834.74	26441.32
834.91	26238.58
835.09	26443.37
835.27	26111.60
835.44	25910.90
835.62	25853.56
835.80	26027.63
835.98	25820.79
836.15	26046.07
836.33	25642.62
836.51	25669.24
836.68	25857.65
836.86	25603.71
837.04	26177.14
837.21	26109.55
837.39	25968.24
837.57	25882.23
837.75	25443.96
837.92	25497.21
838.10	25038.47
838.28	25339.52
838.45	25519.74
838.63	25382.52
838.81	25714.30
838.98	25333.37
839.16	25161.34
839.34	25253.50
839.51	25097.86
839.69	25118.34
839.87	25138.82
840.04	25239.17
840.22	25183.87
840.40	25081.47
840.57	24563.34
840.75	24686.22
840.93	24549.00
841.10	24817.29
841.28	24972.93
841.46	24815.24
841.63	25052.80
841.81	24800.90
841.98	24518.28
842.16	24618.63
842.34	24675.98
842.51	24376.97
842.69	24555.15
842.87	24551.05
843.04	24379.02
843.22	24383.12
843.40	24096.40
843.57	24317.58
843.75	24385.16
843.92	24430.22
844.10	24256.14
844.28	24465.03
844.45	24080.02
844.63	23975.57
844.81	23998.10
844.98	24344.20
845.16	23867.03
845.33	24188.56
845.51	24110.74
845.69	24086.16
845.86	23899.80
846.04	23770.77
846.21	23809.68
846.39	23922.32
846.57	23699.09
846.74	23991.95
846.92	23670.42
847.09	23830.16
847.27	23541.40
847.45	23781.01
847.62	23746.20
847.80	23854.74
847.97	23479.96
848.15	23475.87
848.32	23684.76
848.50	23639.70
848.68	23506.59
848.85	23266.97
849.03	23295.64
849.20	23477.91
849.38	23269.02
849.56	23053.98
849.73	23084.70
849.91	23033.50
850.08	23539.35
850.26	22951.59
850.43	23076.51
850.61	23148.19
850.78	22687.40
850.96	22824.61
851.14	23064.22
851.31	22910.63
851.49	22711.97
851.66	22818.47
851.84	22873.76
852.01	22935.20
852.19	22585.00
852.36	22417.07
852.54	22646.44
852.71	22460.07
852.89	22744.74
853.07	22623.91
853.24	22611.62
853.42	22374.06
853.59	22345.39
853.77	22398.63
853.94	22570.66
854.12	22589.10
854.29	22494.89
854.47	22417.07
854.64	22113.97
854.82	22357.67
854.99	22427.31
855.17	22091.44
855.34	22204.08
855.52	22361.77
855.69	22341.29
855.87	22181.55
856.04	21702.32
856.22	21972.66
856.39	21745.33
856.57	21821.11
856.74	21698.23
856.92	22050.48
857.09	21610.17
857.27	21765.81
857.44	22138.54
857.62	21876.40
857.79	21409.47
857.97	21767.86
858.14	21810.87
858.32	21520.06
858.49	21866.16
858.67	21477.05
858.84	21585.59
859.02	21415.61
859.19	21653.17
859.37	21112.51
859.54	21012.16
859.72	21460.66
859.89	21442.23
860.06	21518.01
860.24	21061.31
860.41	21368.51
860.59	21270.20
860.76	21262.01
860.94	20946.62
861.11	21329.59
861.29	21157.57
861.46	21141.18
861.64	21085.89
861.81	20975.30
861.98	20901.57
862.16	20782.79
862.33	20610.76
862.51	20950.72
862.68	20600.52
862.86	20991.68
863.03	20811.46
863.21	20778.69
863.38	20821.70
863.55	20698.82
863.73	20860.61
863.90	20854.47
864.08	20565.70
864.25	20655.81
864.43	20713.16
864.60	20516.55
864.77	20205.26
864.95	20391.62
865.12	20424.39
865.30	20750.02
865.47	20078.29
865.64	20434.63
865.82	20375.24
865.99	20451.02
866.17	20254.41
866.34	20385.48
866.51	20082.38
866.69	20240.08
866.86	20274.89
867.04	20207.31
867.21	20156.11
867.38	19830.48
867.56	19836.63
867.73	19834.58
867.91	19672.79
868.08	20104.91
868.25	19814.10
868.43	19719.89
868.60	19881.68
868.78	19607.25
868.95	19738.32
869.12	19539.67
869.30	19396.31
869.47	19646.16
869.64	19562.20
869.82	19756.75
869.99	19293.91
870.16	19764.95
870.34	19447.51
870.51	19650.26
870.69	19439.32
870.86	19562.20
871.03	19388.12
871.21	19138.27
871.38	19474.13
871.55	18972.38
871.73	19091.16
871.90	19189.47
872.07	19005.15
872.25	18867.94
872.42	18972.38
872.59	19203.80
872.77	19058.40
872.94	18941.66
873.11	19156.70
873.29	18847.46
873.46	18648.80
873.63	18773.73
873.81	18747.11
873.98	18673.38
874.15	18546.40
874.33	18566.88
874.50	18593.51
874.67	18511.59
874.85	18401.00
875.02	18343.66
875.19	17981.17
875.37	18296.55
875.54	18292.46
875.71	18224.87
875.88	18149.10
876.06	18276.07
876.23	18140.91
876.40	17938.16
876.58	18185.96
876.75	18222.83
876.92	17710.83
877.10	17624.82
877.27	17690.35
877.44	17889.01
877.61	17977.07
877.79	17616.63
877.96	17628.92
878.13	17673.97
878.31	17655.54
878.48	17254.14
878.65	17710.83
878.82	17501.94
879.00	17587.96
879.17	17528.56
879.34	17532.66
879.51	17344.25
879.69	17395.45
879.86	17315.58
880.03	17587.96
880.21	17276.66
880.38	17364.73
880.55	17692.40
880.72	17098.49
880.90	17121.02
881.07	17282.81
881.24	17211.13
881.41	17032.96
881.59	17047.29
881.76	16973.56
881.93	16922.37
882.10	17094.40
882.28	16946.94
882.45	17065.72
882.62	16877.31
882.79	16942.85
882.96	16799.49
883.14	16985.85
883.31	17006.33
883.48	17084.16
883.65	16895.74
883.83	16801.54
884.00	16791.30
884.17	17020.67
884.34	16637.70
884.51	16789.25
884.69	16555.78
884.86	16414.47
885.03	16432.90
885.20	16434.95
885.38	16559.88
885.55	16475.91
885.72	16498.44
885.89	16645.89
886.06	16586.50
886.24	16633.60
886.41	16414.47
886.58	16592.64
886.75	16566.02
886.92	16295.69
887.10	16422.66
887.27	16142.09
887.44	16439.05
887.61	16514.82
887.78	16514.82
887.95	16600.83
888.13	16168.71
888.30	16099.08
888.47	16164.62
888.64	15800.08
888.81	16240.39
888.99	16176.91
889.16	16123.66
889.33	16103.18
889.50	16025.36
889.67	16283.40
889.84	16008.97
890.01	16156.43
890.19	15763.22
890.36	15906.57
890.53	15685.39
890.70	15617.81
890.87	15996.68
891.04	15838.99
891.22	15701.78
891.39	15740.69
891.56	15675.15
891.73	15574.80
891.90	15611.67
892.07	15546.13
892.24	15451.92
892.42	15380.25
892.59	15484.69
892.76	15310.61
892.93	15390.49
893.10	15413.01
893.27	15490.84
893.44	15372.05
893.61	15220.50
893.79	15482.64
893.96	15484.69
894.13	15494.93
894.30	15279.89
894.47	15472.40
894.64	15296.28
894.81	15165.21
894.98	15595.28
895.15	15384.34
895.33	15275.80
895.50	15226.65
895.67	15288.09
895.84	15441.68
896.01	15324.95
896.18	14976.80
896.35	15333.14
896.52	14917.40
896.69	15064.86
896.86	15240.98
897.04	15101.72
897.21	15079.19
897.38	15017.75
897.55	15015.71
897.72	15173.40
897.89	15163.16
898.06	15257.37
898.23	15234.84
898.40	15175.45
898.57	15159.06
898.74	15195.93
898.91	15116.06
899.08	15181.59
899.26	15089.43
899.43	15275.80
899.60	15079.19
899.77	15027.99
899.94	14982.94
900.11	14997.28
900.28	15114.01
900.45	14915.36
900.62	15216.41
900.79	15128.35
900.96	14984.99
901.13	15040.28
901.30	15054.62
901.47	14993.18
901.64	15222.55
901.81	15247.13
901.98	14849.82
902.15	15167.26
902.32	14948.12
902.49	14968.60
902.66	15206.17
902.83	15044.38
903.01	14978.84
903.18	15060.76
903.35	15011.61
903.52	15212.31
903.69	15038.23
903.86	15363.86
904.03	15071.00
904.20	15114.01
904.37	15146.78
904.54	15130.39
904.71	15013.66
904.88	15017.75
905.05	14991.13
905.22	15195.93
905.39	15021.85
905.56	14911.26
905.73	14939.93
905.90	15167.26
906.07	15025.95
906.24	14999.32
906.41	14790.43
906.58	15017.75
906.75	15030.04
906.92	14812.96
907.09	14898.97
907.26	15011.61
907.43	14903.07
907.60	14913.31
907.77	14993.18
907.93	14941.98
908.10	14923.55
908.27	15103.77
908.44	14829.34
908.61	14726.94
908.78	14860.06
908.95	14952.22
909.12	14982.94
909.29	14724.90
909.46	14880.54
909.63	14966.56
909.80	14923.55
909.97	15073.05
910.14	14964.51
910.31	14710.56
910.48	14847.77
910.65	15009.56
910.82	14835.49
910.99	14667.55
911.16	14860.06
911.33	14638.88
911.50	14890.78
911.66	14710.56
911.83	14786.33
912.00	14645.02
912.17	14638.88
912.34	14354.21
912.51	14651.17
912.68	14380.84
912.85	14528.29
913.02	14579.49
913.19	14483.24
913.36	14335.78
913.53	14563.11
913.70	14442.28
913.86	14487.33
914.03	14458.66
914.20	14368.55
914.37	14229.29
914.54	14276.39
914.71	14249.77
914.88	14372.64
915.05	14184.23
915.22	14143.27
915.39	14128.94
915.55	14243.62
915.72	14063.40
915.89	14028.59
916.06	13844.27
916.23	14061.35
916.40	14024.49
916.57	13905.71
916.74	13979.43
916.91	13913.90
917.07	13805.36
917.24	13840.17
917.41	13928.24
917.58	13868.84
917.75	13797.17
917.92	13688.62
918.09	13596.46
918.26	13719.34
918.42	13684.53
918.59	13571.89
918.76	13426.48
918.93	13287.22
919.10	13348.66
919.27	13432.63
919.44	13449.01
919.60	13422.39
919.77	13410.10
919.94	13342.52
920.11	13195.06
920.28	13324.08
920.45	13268.79
920.61	12937.02
920.78	13041.46
920.95	13092.66
921.12	13023.03
921.29	12851.00
921.46	12711.74
921.62	12691.26
921.79	12953.40
921.96	12873.53
922.13	12724.03
922.30	12652.35
922.47	12685.12
922.63	12717.89
922.80	12406.59
922.97	12511.04
923.14	12197.70
923.31	12519.23
923.47	12257.09
923.64	12521.28
923.81	12472.13
923.98	12382.02
924.15	12115.78
924.32	12017.48
924.48	12132.17
924.65	12234.57
924.82	12083.02
924.99	12037.96
925.15	11974.47
925.32	12123.98
925.49	11726.67
925.66	11687.76
925.83	11870.03
925.99	11620.17
926.16	11861.84
926.33	11626.32
926.50	11468.62
926.67	11728.72
926.83	11517.78
927.00	11315.03
927.17	11431.76
927.34	11274.07
927.50	11560.78
927.67	11360.08
927.84	11343.70
928.01	11269.97
928.17	11253.59
928.34	11159.38
928.51	11192.15
928.68	10956.63
928.84	11161.43
929.01	10647.39
929.18	10719.07
929.35	10735.45
929.51	10915.67
929.68	10663.77
929.85	10846.04
930.02	10665.82
930.18	10430.30
930.35	10841.95
930.52	10442.59
930.69	10499.94
930.85	10747.74
931.02	10327.91
931.19	10446.69
931.36	10372.96
931.52	10383.20
931.69	10477.41
931.86	10168.16
932.02	10078.05
932.19	10096.49
932.36	10139.49
932.53	10006.38
932.69	9981.80
932.86	10153.83
933.03	10071.91
933.19	9809.77
933.36	9891.69
933.53	9746.28
933.70	9734.00
933.86	9594.73
934.03	9740.14
934.20	9611.12
934.36	9584.49
934.53	9426.80
934.70	9129.84
934.86	9265.01
935.03	9246.58
935.20	9070.45
935.36	9086.84
935.53	9086.84
935.70	9043.83
935.86	8957.82
936.03	8793.98
936.20	8834.94
936.36	8720.25
936.53	8806.27
936.70	8503.17
936.86	8650.62
937.03	8433.54
937.20	8220.55
937.36	8400.77
937.53	8007.56
937.70	8064.90
937.86	7958.41
938.03	7903.11
938.20	8038.28
938.36	7966.60
938.53	7946.12
938.70	7358.35
938.86	7452.56
939.03	7622.54
939.20	7419.79
939.36	7346.06
939.53	7298.96
939.70	7423.89
939.86	6983.57
940.03	7018.39
940.19	6864.79
940.36	6856.60
940.53	6920.09
940.69	6621.08
940.86	6696.86
941.03	6537.12
941.19	6539.16
941.36	6496.16
941.52	6334.37
941.69	6268.83
941.86	6440.86
942.02	6064.04
942.19	6045.60
942.35	6287.26
942.52	6037.41
942.69	6119.33
942.85	5980.07
943.02	6014.88
943.18	5765.03
943.35	5969.83
943.52	5767.08
943.68	5918.63
943.85	5896.10
944.01	5705.64
944.18	5550.00
944.35	5742.50
944.51	5476.27
944.68	5574.57
944.84	5523.37
945.01	5562.28
945.17	5523.37
945.34	5433.26
945.51	5601.19
945.67	5504.94
945.84	5445.55
946.00	5494.70
946.17	5355.44
946.33	5363.63
946.50	5515.18
946.67	5390.25
946.83	5425.07
947.00	5558.19
947.16	5357.49
947.33	5369.77
947.49	5341.10
947.66	5316.53
947.82	5345.20
947.99	5382.06
948.16	5468.08
948.32	5330.86
948.49	5431.21
948.65	5398.45
948.82	5375.92
948.98	5386.16
949.15	5230.51
949.31	5328.81
949.48	5398.45
949.64	5384.11
949.81	5222.32
949.97	5332.91
950.14	5449.64
950.30	5330.86
950.47	5365.68
950.63	5398.45
950.80	5384.11
950.96	5377.97
951.13	5451.69
951.30	5414.83
951.46	5476.27
951.63	5408.69
951.79	5337.01
951.96	5689.26
952.12	5509.04
952.29	5357.49
952.45	5484.46
952.62	5410.73
952.78	5439.40
952.94	5347.25
953.11	5359.53
953.27	5466.03
953.44	5429.17
953.60	5396.40
953.77	5488.56
953.93	5486.51
954.10	5535.66
954.26	5416.88
954.43	5570.48
954.59	5472.17
954.76	5762.98
954.92	5535.66
955.09	5502.89
955.25	5398.45
955.42	5478.32
955.58	5646.25
955.75	5533.61
955.91	5562.28
956.07	5619.63
956.24	5617.58
956.40	5543.85
956.57	5636.01
956.73	5384.11
956.90	5629.87
957.06	5461.93
957.23	5568.43
957.39	5519.28
957.56	5511.08
957.72	5451.69
957.88	5496.75
958.05	5578.67
958.21	5736.36
958.38	5570.48
958.54	5509.04
958.71	5582.76
958.87	5627.82
959.03	5646.25
959.20	5633.96
959.36	5492.65
959.53	5433.26
959.69	5564.33
959.85	5656.49
960.02	5357.49
960.18	5652.39
960.35	5443.50
960.51	5621.67
960.68	5343.15
960.84	5554.09
961.00	5533.61
961.17	5527.47
961.33	5433.26
961.50	5662.63
961.66	5539.76
961.82	5474.22
961.99	5562.28
962.15	5410.73
962.31	5554.09
962.48	5484.46
962.64	5623.72
962.81	5654.44
962.97	5468.08
963.13	5595.05
963.30	5509.04
963.46	5400.49
963.62	5455.79
963.79	5537.71
963.95	5531.56
964.12	5398.45
964.28	5519.28
964.44	5345.20
964.61	5394.35
964.77	5504.94
964.93	5601.19
965.10	5435.31
965.26	5449.64
965.42	5468.08
965.59	5294.00
965.75	5250.99
965.92	5427.12
966.08	5425.07
966.24	5521.32
966.41	5300.14
966.57	5373.87
966.73	5439.40
966.90	5414.83
967.06	5353.39
967.22	5294.00
967.39	5328.81
967.55	5240.75
967.71	5195.70
967.88	5226.42
968.04	5228.46
968.20	5218.22
968.37	5228.46
968.53	5214.13
968.69	5296.05
968.85	5230.51
969.02	5142.45
969.18	5365.68
969.34	5234.61
969.51	5326.77
969.67	5095.35
969.83	5064.63
970.00	5203.89
970.16	5160.88
970.32	5144.50
970.48	5263.28
970.65	4962.23
970.81	5128.11
970.97	5205.94
971.14	5050.29
971.30	5173.17
971.46	5068.72
971.63	5015.48
971.79	5181.36
971.95	5011.38
972.11	4917.17
972.28	5042.10
972.44	5107.63
972.60	4880.31
972.76	4984.76
972.93	4951.99
973.09	5056.43
973.25	5115.83
973.42	4958.13
973.58	5076.91
973.74	5011.38
973.90	5148.59
974.07	5027.76
974.23	4825.01
974.39	4841.40
974.55	4943.80
974.72	4829.11
974.88	4845.49
975.04	4902.84
975.20	4906.93
975.37	4941.75
975.53	4853.69
975.69	4943.80
975.85	4812.73
976.01	4792.25
976.18	4822.97
976.34	4892.60
976.50	4812.73
976.66	4878.26
976.83	4825.01
976.99	4671.42
977.15	4761.53
977.31	4566.97
977.47	4769.72
977.64	4759.48
977.80	4790.20
977.96	4628.41
978.12	4782.01
978.29	4669.37
978.45	4616.12
978.61	4693.94
978.77	4681.66
978.93	4513.72
979.10	4595.64
979.26	4569.02
979.42	4566.97
979.58	4569.02
979.74	4454.33
979.91	4558.78
980.07	4458.43
980.23	4474.81
980.39	4489.15
980.55	4458.43
980.71	4491.20
980.88	4517.82
981.04	4382.65
981.20	4480.96
981.36	4476.86
981.52	4442.04
981.68	4376.51
981.85	4468.67
982.01	4495.29
982.17	4296.64
982.33	4435.90
982.49	4566.97
982.65	4368.32
982.82	4411.32
982.98	4380.61
983.14	4270.01
983.30	4415.42
983.46	4349.89
983.62	4341.69
983.79	4233.15
983.95	4259.78
984.11	4208.58
984.27	4321.21
984.43	4167.62
984.59	4294.59
984.75	4229.06
984.91	4140.99
985.08	4192.19
985.24	4083.65
985.40	4165.57
985.56	4149.18
985.72	4274.11
985.88	4220.86
986.04	4077.51
986.20	4104.13
986.37	4169.66
986.53	4001.73
986.69	4077.51
986.85	4040.64
987.01	4153.28
987.17	4104.13
987.33	4071.36
987.49	3991.49
987.65	4014.02
987.82	4003.78
987.98	3882.95
988.14	3991.49
988.30	3977.16
988.46	3901.38
988.62	4034.50
988.78	3862.47
988.94	3837.89
989.10	3850.18
989.26	3905.48
989.42	3813.32
989.59	3760.07
989.75	3895.24
989.91	3887.04
990.07	3774.41
990.23	3770.31
990.39	3887.04
990.55	3928.00
990.71	3841.99
990.87	3835.85
991.03	3768.26
991.19	3772.36
991.35	3755.97
991.51	3833.80
991.67	3786.69
991.83	3796.93
992.00	3674.06
992.16	3878.85
992.32	3762.12
992.48	3811.27
992.64	3696.58
992.80	3708.87
992.96	3729.35
993.12	3680.20
993.28	3682.25
993.44	3702.73
993.60	3700.68
993.76	3669.96
993.92	3604.42
994.08	3698.63
994.24	3581.90
994.40	3583.95
994.56	3618.76
994.72	3411.92
994.88	3708.87
995.04	3526.60
995.20	3514.31
995.36	3420.11
995.52	3534.79
995.68	3542.99
995.84	3395.53
996.00	3629.00
996.16	3518.41
996.32	3360.72
996.48	3456.97
996.64	3508.17
996.80	3444.68
996.96	3465.16
997.12	3413.96
997.28	3395.53
997.44	3387.34
997.60	3391.44
997.76	3381.20
997.92	3344.33
998.08	3465.16
998.24	3313.61
998.40	3401.68
998.56	3418.06
998.72	3295.18
998.88	3336.14
999.04	3223.50
999.20	3403.72
999.36	3276.75
999.52	3346.38
999.68	3260.37
999.84	3317.71
1000.00	3309.52
1000.16	3327.95
1000.32	3235.79
1000.48	3350.48
1000.64	3172.30
1000.80	3336.14
1000.95	3203.02
1001.11	3313.61
1001.27	3213.26
1001.43	3319.76
1001.59	3209.17
1001.75	3092.43
1001.91	3174.35
1002.07	3125.20
1002.23	3125.20
1002.39	3180.50
1002.55	3131.34
1002.71	3041.23
1002.87	3137.49
1003.03	3039.19
1003.19	3055.57
1003.34	3211.22
1003.50	3063.76
1003.66	3067.86
1003.82	3260.37
1003.98	3045.33
1004.14	3094.48
1004.30	3030.99
1004.46	2987.99
1004.62	3035.09
1004.78	3035.09
1004.94	2936.79
1005.09	3059.67
1005.25	3119.06
1005.41	3080.14
1005.57	2994.13
1005.73	2932.69
1005.89	3094.48
1006.05	3018.71
1006.21	3026.90
1006.37	2918.36
1006.52	2908.12
1006.68	2967.51
1006.84	3063.76
1007.00	2850.77
1007.16	2846.68
1007.32	2865.11
1007.48	2973.65
1007.64	2959.31
1007.79	2977.75
1007.95	2803.67
1008.11	2996.18
1008.27	2850.77
1008.43	3008.47
1008.59	2861.01
1008.75	2867.16
1008.91	2877.40
1009.06	2762.71
1009.22	2834.39
1009.38	2815.96
1009.54	2906.07
1009.70	2764.76
1009.86	2793.43
1010.01	2879.44
1010.17	2738.13
1010.33	2844.63
1010.49	2822.10
1010.65	2799.57
1010.81	2731.99
1010.96	2740.18
1011.12	2803.67
1011.28	2742.23
1011.44	2842.58
1011.60	2748.37
1011.76	2723.80
1011.91	2713.56
1012.07	2635.74
1012.23	2607.06
1012.39	2584.54
1012.55	2678.74
1012.71	2688.98
1012.86	2615.26
1013.02	2713.56
1013.18	2758.61
1013.34	2562.01
1013.50	2662.36
1013.65	2660.31
1013.81	2596.82
1013.97	2582.49
1014.13	2676.70
1014.29	2641.88
1014.44	2658.26
1014.60	2576.34
1014.76	2568.15
1014.92	2543.58
1015.07	2562.01
1015.23	2525.15
1015.39	2523.10
1015.55	2588.63
1015.71	2547.67
1015.86	2516.95
1016.02	2457.56
1016.18	2396.12
1016.34	2586.58
1016.49	2475.99
1016.65	2562.01
1016.81	2412.51
1016.97	2529.24
1017.12	2519.00
1017.28	2379.74
1017.44	2510.81
1017.60	2402.27
1017.75	2404.32
1017.91	2457.56
1018.07	2486.23
1018.23	2416.60
1018.38	2424.80
1018.54	2441.18
1018.70	2338.78
1018.86	2349.02
1019.01	2387.93
1019.17	2426.84
1019.33	2539.48
1019.49	2424.80
1019.64	2349.02
1019.80	2494.43
1019.96	2418.65
1020.12	2428.89
1020.27	2371.55
1020.43	2342.88
1020.59	2387.93
1020.74	2430.94
1020.90	2402.27
1021.06	2310.11
1021.22	2367.45
1021.37	2344.92
1021.53	2334.68
1021.69	2357.21
1021.84	2183.13
1022.00	2258.91
1022.16	2361.31
1022.31	2269.15
1022.47	2322.40
1022.63	2322.40
1022.79	2170.85
1022.94	2285.53
1023.10	2371.55
1023.26	2244.57
1023.41	2224.09
1023.57	2297.82
1023.73	2250.72
1023.88	2275.29
1024.04	2269.15
1024.20	2285.53
1024.35	2353.12
1024.51	2312.16
1024.67	2150.37
1024.82	2279.39
1024.98	2199.52
1025.14	2258.91
1025.29	2199.52
1025.45	2271.20
1025.61	2146.27
1025.76	2238.43
1025.92	2160.61
1026.08	2263.01
1026.23	2189.28
1026.39	2197.47
1026.55	2181.09
1026.70	2166.75
1026.86	2148.32
1027.02	2205.66
1027.17	2183.13
1027.33	2125.79
1027.48	2095.07
1027.64	2011.11
1027.80	2123.74
1027.95	2095.07
1028.11	2074.59
1028.27	2119.65
1028.42	2142.18
1028.58	2033.63
1028.73	2068.45
1028.89	2007.01
1029.05	2224.09
1029.20	2158.56
>>>>>End Processed Spectral Data<<<<<
