SpectraSuite Data File
++++++++++++++++++++++++++++++++++++
Date: Fri Jun 02 14:49:24 CEST 2017
User: INFO_000
Dark Spectrum Present: No
Reference Spectrum Present: No
Number of Sampled Component Spectra: 1
Spectrometers: USB4H00879
Integration Time (usec): 80000 (USB4H00879)
Spectra Averaged: 1 (USB4H00879)
Boxcar Smoothing: 0 (USB4H00879)
Correct for Electrical Dark: No (USB4H00879)
Strobe/Lamp Enabled: No (USB4H00879)
Correct for Detector Non-linearity: No (USB4H00879)
Correct for Stray Light: No (USB4H00879)
Number of Pixels in Processed Spectrum: 3648
>>>>>Begin Processed Spectral Data<<<<<
345.13	1331.18
345.34	1331.18
345.56	1331.18
345.78	1271.79
345.99	1294.32
346.21	1634.28
346.42	1753.06
346.64	1699.81
346.86	1800.16
347.07	1699.81
347.29	1746.92
347.50	1617.90
347.72	1726.44
347.94	1736.68
348.15	1634.28
348.37	1630.18
348.59	1748.97
348.80	1654.76
349.02	1759.21
349.23	1804.26
349.45	1806.31
349.67	1863.65
349.88	1779.68
350.10	1941.47
350.31	1822.69
350.53	1820.64
350.75	1980.39
350.96	1791.97
351.18	1908.71
351.39	1877.99
351.61	1832.93
351.82	1834.98
352.04	1837.03
352.26	1871.84
352.47	1890.28
352.69	1935.33
352.90	1740.77
353.12	1841.12
353.34	1810.40
353.55	1896.42
353.77	1896.42
353.98	1853.41
354.20	1875.94
354.41	1916.90
354.63	1964.00
354.85	2023.39
355.06	1886.18
355.28	1705.96
355.49	1853.41
355.71	1837.03
355.92	1880.04
356.14	1929.19
356.35	1888.23
356.57	1855.46
356.79	1894.37
357.00	1812.45
357.22	1994.72
357.43	1861.60
357.65	1875.94
357.86	1830.88
358.08	1849.32
358.29	1943.52
358.51	2037.73
358.72	1966.05
358.94	1968.10
359.16	1945.57
359.37	1955.81
359.59	1961.95
359.80	2013.15
360.02	1910.75
360.23	1974.24
360.45	2035.68
360.66	1994.72
360.88	1923.04
361.09	1847.27
361.31	2011.11
361.52	1986.53
361.74	2035.68
361.95	2027.49
362.17	1910.75
362.38	2043.87
362.60	2039.78
362.81	1947.62
363.03	1953.76
363.24	1906.66
363.46	2072.54
363.67	2023.39
363.89	2021.35
364.10	1978.34
364.32	1906.66
364.53	2097.12
364.75	1937.38
364.96	1986.53
365.18	2033.63
365.39	2019.30
365.61	1982.43
365.82	2086.88
366.04	1939.43
366.25	2004.96
366.47	2078.69
366.68	2076.64
366.90	1943.52
367.11	2121.70
367.33	2068.45
367.54	2074.59
367.76	1984.48
367.97	2103.26
368.19	2002.91
368.40	2023.39
368.62	2007.01
368.83	1978.34
369.05	2037.73
369.26	1957.86
369.48	2041.82
369.69	1929.19
369.91	1998.82
370.12	2062.30
370.33	2148.32
370.55	1925.09
370.76	2025.44
370.98	2088.93
371.19	1998.82
371.41	2123.74
371.62	2050.02
371.84	1951.71
372.05	2164.70
372.27	2052.06
372.48	2117.60
372.69	2090.98
372.91	2158.56
373.12	2211.81
373.34	2082.78
373.55	2099.17
373.77	2146.27
373.98	2185.18
374.20	2172.89
374.41	2263.01
374.62	2113.50
374.84	2148.32
375.05	2158.56
375.27	2127.84
375.48	2187.23
375.70	2086.88
375.91	2197.47
376.12	2349.02
376.34	2076.64
376.55	2176.99
376.77	2215.90
376.98	2133.98
377.19	2107.36
377.41	2109.41
377.62	2183.13
377.84	2232.29
378.05	2289.63
378.27	2191.33
378.48	2299.87
378.69	2363.36
378.91	2289.63
379.12	2193.37
379.34	2172.89
379.55	2230.24
379.76	2263.01
379.98	2226.14
380.19	2252.77
380.41	2287.58
380.62	2277.34
380.83	2199.52
381.05	2179.04
381.26	2494.43
381.47	2285.53
381.69	2252.77
381.90	2443.23
382.12	2285.53
382.33	2236.38
382.54	2326.49
382.76	2338.78
382.97	2400.22
383.19	2344.92
383.40	2357.21
383.61	2258.91
383.83	2283.49
384.04	2353.12
384.25	2402.27
384.47	2385.88
384.68	2338.78
384.89	2283.49
385.11	2351.07
385.32	2379.74
385.54	2324.44
385.75	2355.16
385.96	2414.56
386.18	2394.08
386.39	2340.83
386.60	2312.16
386.82	2385.88
387.03	2422.75
387.24	2473.95
387.46	2443.23
387.67	2533.34
387.88	2535.39
388.10	2439.13
388.31	2533.34
388.52	2478.04
388.74	2506.71
388.95	2500.57
389.16	2504.67
389.38	2441.18
389.59	2602.97
389.80	2602.97
390.02	2555.86
390.23	2631.64
390.44	2576.34
390.66	2451.42
390.87	2508.76
391.08	2598.87
391.30	2658.26
391.51	2592.73
391.72	2666.46
391.94	2734.04
392.15	2666.46
392.36	2461.66
392.58	2537.43
392.79	2660.31
393.00	2705.37
393.22	2688.98
393.43	2721.75
393.64	2836.44
393.85	2795.48
394.07	2623.45
394.28	2762.71
394.49	2721.75
394.71	2760.66
394.92	2762.71
395.13	2674.65
395.35	2744.28
395.56	2697.17
395.77	2729.94
395.98	2805.72
396.20	2822.10
396.41	2867.16
396.62	2854.87
396.84	2731.99
397.05	2838.48
397.26	2908.12
397.47	2899.92
397.69	2920.40
397.90	3092.43
398.11	2887.64
398.32	2801.62
398.54	2818.00
398.75	2854.87
398.96	2977.75
399.18	3135.44
399.39	3057.62
399.60	2967.51
399.81	2951.12
400.03	2918.36
400.24	3231.69
400.45	2967.51
400.66	3057.62
400.88	3082.19
401.09	3108.82
401.30	3125.20
401.51	3108.82
401.73	3071.95
401.94	3006.42
402.15	3063.76
402.36	3084.24
402.58	3084.24
402.79	3272.65
403.00	3166.16
403.21	3250.13
403.43	3254.22
403.64	3235.79
403.85	3061.71
404.06	3268.56
404.27	3162.06
404.49	3166.16
404.70	3121.10
404.91	3266.51
405.12	3248.08
405.34	3192.78
405.55	3266.51
405.76	3174.35
405.97	3241.93
406.19	3366.86
406.40	3256.27
406.61	3301.33
406.82	3215.31
407.03	3235.79
407.25	3270.61
407.46	3395.53
407.67	3459.02
407.88	3561.42
408.09	3338.19
408.31	3393.48
408.52	3254.22
408.73	3354.57
408.94	3252.17
409.15	3479.50
409.37	3411.92
409.58	3563.47
409.79	3465.16
410.00	3483.59
410.21	3336.14
410.43	3387.34
410.64	3379.15
410.85	3538.89
411.06	3495.88
411.27	3448.78
411.48	3567.56
411.70	3502.03
411.91	3657.67
412.12	3606.47
412.33	3512.27
412.54	3524.55
412.76	3780.55
412.97	3624.90
413.18	3536.84
413.39	3614.66
413.60	3706.82
413.81	3653.58
414.03	3680.20
414.24	3641.29
414.45	3803.08
414.66	3592.14
414.87	3745.73
415.08	3682.25
415.30	3737.54
415.51	3684.30
415.72	3655.62
415.93	3749.83
416.14	3782.60
416.35	3745.73
416.56	3854.28
416.78	3835.85
416.99	3790.79
417.20	3860.42
417.41	3846.09
417.62	4034.50
417.83	3938.24
418.04	3895.24
418.26	3981.25
418.47	3934.15
418.68	4048.83
418.89	3977.16
419.10	4042.69
419.31	4059.07
419.52	4161.47
419.73	4040.64
419.95	4202.43
420.16	3981.25
420.37	3973.06
420.58	4106.18
420.79	3891.14
421.00	3985.35
421.21	4153.28
421.42	4024.26
421.63	4112.32
421.85	4093.89
422.06	4159.42
422.27	4095.94
422.48	4227.01
422.69	4294.59
422.90	4173.76
423.11	4194.24
423.32	4192.19
423.53	4370.37
423.75	4177.86
423.96	4448.19
424.17	4413.37
424.38	4505.53
424.59	4444.09
424.80	4464.57
425.01	4460.48
425.22	4415.42
425.43	4403.13
425.64	4636.60
425.85	4564.92
426.06	4489.15
426.28	4470.72
426.49	4358.08
426.70	4433.85
426.91	4632.51
427.12	4634.55
427.33	4632.51
427.54	4552.63
427.75	4583.35
427.96	4743.10
428.17	4657.08
428.38	4831.16
428.59	4812.73
428.80	4652.98
429.01	4853.69
429.23	4679.61
429.44	4980.66
429.65	4966.32
429.86	4999.09
430.07	4749.24
430.28	4857.78
430.49	4972.47
430.70	5017.52
430.91	5078.96
431.12	4890.55
431.33	5103.54
431.54	5189.55
431.75	4997.04
431.96	5103.54
432.17	5044.15
432.38	5009.33
432.59	5326.77
432.80	5185.46
433.01	5210.03
433.22	5220.27
433.43	5158.83
433.64	5334.96
433.85	5246.90
434.06	5259.18
434.27	5269.42
434.49	5386.16
434.70	5392.30
434.91	5451.69
435.12	5304.24
435.33	5312.43
435.54	5388.21
435.75	5314.48
435.96	5298.10
436.17	5224.37
436.38	5607.34
436.59	5433.26
436.80	5345.20
437.01	5666.73
437.22	5801.90
437.43	5627.82
437.64	5466.03
437.85	5582.76
438.06	5789.61
438.27	5566.38
438.48	5535.66
438.69	5644.20
438.90	5625.77
439.11	5619.63
439.32	5840.81
439.53	5789.61
439.74	5924.77
439.95	5861.29
440.16	5838.76
440.37	5810.09
440.57	5703.59
440.78	5912.49
440.99	5914.53
441.20	5951.40
441.41	5724.07
441.62	5840.81
441.83	5820.33
442.04	6090.66
442.25	6047.65
442.46	5961.64
442.67	6180.77
442.88	6440.86
443.09	5953.45
443.30	6127.52
443.51	6102.95
443.72	6379.42
443.93	6082.47
444.14	6381.47
444.35	6178.72
444.56	6346.66
444.77	6350.75
444.98	6299.55
445.19	6418.33
445.40	6285.22
445.61	6133.67
445.81	6434.72
446.02	6473.63
446.23	6291.36
446.44	6293.41
446.65	6524.83
446.86	6365.09
447.07	6520.73
447.28	6653.85
447.49	6770.58
447.70	6592.41
447.91	6825.88
448.12	6700.95
448.33	6680.47
448.54	6715.29
448.74	6723.48
448.95	6705.05
449.16	6766.49
449.37	6936.47
449.58	6973.33
449.79	6860.70
450.00	6707.10
450.21	6891.41
450.42	6909.85
450.63	6928.28
450.84	6911.89
451.05	6948.76
451.25	6922.13
451.46	6905.75
451.67	7118.74
451.88	7212.95
452.09	7040.92
452.30	7143.32
452.51	7141.27
452.72	7106.45
452.93	7528.33
453.13	6987.67
453.34	7096.21
453.55	7192.47
453.76	7159.70
453.97	7518.09
454.18	7378.83
454.39	7462.80
454.60	7557.00
454.81	7585.68
455.01	7571.34
455.22	7202.71
455.43	7565.20
455.64	7800.71
455.85	7796.62
456.06	7880.58
456.27	7806.86
456.48	7841.67
456.68	7802.76
456.89	7856.01
457.10	8005.51
457.31	8058.76
457.52	7851.91
457.73	8183.68
457.94	8005.51
458.14	7686.03
458.35	8247.17
458.56	8185.73
458.77	8109.96
458.98	8210.31
459.19	8212.35
459.39	8435.58
459.60	8474.49
459.81	8187.78
460.02	8572.80
460.23	8476.54
460.44	8679.29
460.65	8398.72
460.85	8681.34
461.06	8564.61
461.27	8368.00
461.48	8816.51
461.69	8722.30
461.89	8478.59
462.10	8814.46
462.31	8525.69
462.52	8640.38
462.73	8765.31
462.94	9072.50
463.14	9064.31
463.35	8826.75
463.56	9258.87
463.77	9351.03
463.98	8961.91
464.18	9111.41
464.39	9267.06
464.60	9330.55
464.81	9332.59
465.02	9353.07
465.23	9639.79
465.43	9467.76
465.64	9715.56
465.85	9572.21
466.06	9379.70
466.27	10121.06
466.47	9826.15
466.68	9908.07
466.89	9817.96
467.10	9903.98
467.30	9881.45
467.51	10006.38
467.72	10157.92
467.93	10121.06
468.14	10121.06
468.34	10323.81
468.55	10327.91
468.76	10424.16
468.97	10164.07
469.17	10428.26
469.38	10870.62
469.59	10704.73
469.80	10614.62
470.01	10694.49
470.21	10837.85
470.42	11036.50
470.63	10913.63
470.84	10868.57
471.04	10985.30
471.25	11065.18
471.46	11071.32
471.67	11577.17
471.87	11355.99
472.08	11384.66
472.29	11679.57
472.50	11235.16
472.70	11501.39
472.91	11476.82
473.12	11798.35
473.33	11953.99
473.53	12154.69
473.74	11843.40
473.95	12089.16
474.16	12076.87
474.36	12214.09
474.57	12541.76
474.78	12562.24
474.99	12394.31
475.19	12427.07
475.40	12672.83
475.61	12846.91
475.81	13088.57
476.02	13236.02
476.23	12941.11
476.44	13111.10
476.64	13301.56
476.85	13424.44
477.06	13119.29
477.27	13547.31
477.47	13653.81
477.68	13745.97
477.89	13731.63
478.09	13948.72
478.30	13770.54
478.51	13700.91
478.71	14157.61
478.92	14397.22
479.13	14315.30
479.34	14298.92
479.54	14536.48
479.75	14401.32
479.96	14628.64
480.16	14847.77
480.37	14841.63
480.58	14876.44
480.78	15163.16
480.99	15095.58
481.20	15157.02
481.41	15529.75
481.61	15372.05
481.82	15628.05
482.03	15539.99
482.23	15628.05
482.44	15896.33
482.65	15884.05
482.85	16035.60
483.06	16113.42
483.27	16181.00
483.47	16398.09
483.68	16285.45
483.89	16260.87
484.09	16623.36
484.30	16584.45
484.51	16637.70
484.71	17061.63
484.92	16760.58
485.13	16928.51
485.33	16897.79
485.54	17192.70
485.75	17274.62
485.95	17329.91
486.16	17485.56
486.37	17424.12
486.57	17547.00
486.78	17741.55
486.98	17897.20
487.19	17964.78
487.40	17878.77
487.60	17819.38
487.81	18357.99
488.02	18069.23
488.22	18114.28
488.43	18386.66
488.64	18470.63
488.84	18521.83
489.05	18611.94
489.25	18480.87
489.46	18941.66
489.67	18657.00
489.87	19359.45
490.08	19177.18
490.29	19185.37
490.49	19427.03
490.70	19486.42
490.90	19439.32
491.11	19467.99
491.32	19554.01
491.52	19621.59
491.73	19627.73
491.94	19562.20
492.14	19947.22
492.35	19975.89
492.55	20242.12
492.76	20278.99
492.97	20149.96
493.17	20610.76
493.38	20504.26
493.58	20575.94
493.79	20307.66
494.00	20264.65
494.20	20707.01
494.41	20510.41
494.61	20668.10
494.82	21087.93
495.02	21040.83
495.23	21022.40
495.44	21055.17
495.64	21069.50
495.85	21350.07
496.05	21331.64
496.26	21151.42
496.47	21681.85
496.67	21532.34
496.88	21692.08
497.08	21673.65
497.29	21776.05
497.49	21776.05
497.70	22144.69
497.91	21954.22
498.11	22003.38
498.32	22032.05
498.52	22202.03
498.73	22513.32
498.93	22400.68
499.14	22306.48
499.34	22578.86
499.55	22437.55
499.76	22812.32
499.96	22582.95
500.17	22597.29
500.37	22927.01
500.58	23060.13
500.78	22994.59
500.99	22855.33
501.19	23264.92
501.40	23096.99
501.60	23010.98
501.81	23058.08
502.02	23348.89
502.22	23297.69
502.43	23594.65
502.63	23611.03
502.84	23828.12
503.04	23735.96
503.25	23797.40
503.45	23969.43
503.66	23793.30
503.86	23848.60
504.07	24049.30
504.27	23862.93
504.48	24428.17
504.68	24231.57
504.89	24630.92
505.09	24469.13
505.30	24215.18
505.50	24331.92
505.71	24694.41
505.91	24827.53
506.12	24481.42
506.32	24768.13
506.53	24489.61
506.73	24940.16
506.94	25159.30
507.14	24735.37
507.35	24893.06
507.55	25067.14
507.76	25378.43
507.96	25044.61
508.17	25120.38
508.37	25206.40
508.58	25421.44
508.78	25478.78
508.99	25927.28
509.19	25562.75
509.40	25523.83
509.60	25724.54
509.81	25857.65
510.01	25808.50
510.22	25628.28
510.42	25869.94
510.63	26080.88
510.83	26164.85
511.04	26052.21
511.24	26363.50
511.44	26183.28
511.65	26214.00
511.85	26330.73
512.06	26322.54
512.26	26394.22
512.47	26730.09
512.67	26383.98
512.88	26783.34
513.08	26517.10
513.29	26861.16
513.49	26836.58
513.69	27000.42
513.90	27061.86
514.10	27061.86
514.31	27102.82
514.51	27231.84
514.72	27229.79
514.92	27065.96
515.13	27631.19
515.33	27565.66
515.53	27534.94
515.74	27272.80
515.94	27719.26
516.15	27989.59
516.35	27487.84
516.56	27856.47
516.76	27700.83
516.96	27795.03
517.17	28184.15
517.37	27809.37
517.58	28350.03
517.78	28048.98
517.99	28204.63
518.19	28454.48
518.39	28499.53
518.60	28431.95
518.80	28415.57
519.01	28689.99
519.21	28827.21
519.41	28640.84
519.62	28722.76
519.82	29005.38
520.03	29150.79
520.23	29386.30
520.43	29054.53
520.64	29417.02
520.84	29472.32
521.05	29529.66
521.25	29333.06
521.45	29564.48
521.66	29419.07
521.86	29402.69
522.07	29716.03
522.27	29750.84
522.47	29939.26
522.68	30199.35
522.88	30012.98
523.08	30283.31
523.29	30185.01
523.49	30189.11
523.70	30479.92
523.90	30711.34
524.10	30443.06
524.31	30930.47
524.51	30699.05
524.71	31047.21
524.92	30731.82
525.12	30729.77
525.33	30668.33
525.53	30938.66
525.73	31761.95
525.94	31524.38
526.14	31389.22
526.34	31639.07
526.55	31594.01
526.75	31489.57
526.95	31917.59
527.16	31669.79
527.36	31585.82
527.56	31725.08
527.77	31987.22
527.97	32028.18
528.17	32245.27
528.38	32095.77
528.58	32398.87
528.78	32288.28
528.99	32394.77
529.19	32622.09
529.39	32343.57
529.60	32710.16
529.80	32699.92
530.00	32681.49
530.21	32824.84
530.41	32734.73
530.61	32790.03
530.82	32933.39
531.02	33191.43
531.22	33453.57
531.43	33189.38
531.63	33373.70
531.83	33983.99
532.04	34053.62
532.24	33545.73
532.44	34115.06
532.64	33529.34
532.85	34033.14
533.05	34076.15
533.25	34018.81
533.46	34301.43
533.66	34219.51
533.86	34285.04
534.07	34633.20
534.27	34479.60
534.47	34745.84
534.67	34645.49
534.88	34751.98
535.08	34594.29
535.28	35206.63
535.49	35050.99
535.69	35374.56
535.89	35339.75
536.09	35401.19
536.30	35530.21
536.50	35696.10
536.70	35530.21
536.91	35632.61
537.11	35673.57
537.31	35966.43
537.51	36019.67
537.72	36115.93
537.92	35878.36
538.12	36537.81
538.32	36173.27
538.53	35974.62
538.73	36042.20
538.93	36214.23
539.13	36195.80
539.34	36505.04
539.54	36459.99
539.74	36558.29
539.94	36165.08
540.15	36656.59
540.35	36707.79
540.55	36971.98
540.75	37017.04
540.96	37144.01
541.16	37094.86
541.36	37082.57
541.56	36871.63
541.77	37311.94
541.97	37414.34
542.17	37451.20
542.37	37344.71
542.58	37313.99
542.78	37381.57
542.98	37440.96
543.18	37725.63
543.38	38051.26
543.59	38131.13
543.79	37942.72
543.99	37721.54
544.19	37780.93
544.40	38350.26
544.60	38266.30
544.80	38020.54
545.00	38200.76
545.20	38331.83
545.41	38045.12
545.61	38061.50
545.81	38503.86
546.01	38626.74
546.21	38278.58
546.42	38129.08
546.62	38847.92
546.82	38487.48
547.02	38806.96
547.22	38679.99
547.43	38860.21
547.63	39026.09
547.83	38921.65
548.03	38624.69
548.23	39433.64
548.44	39165.35
548.64	39036.33
548.84	39271.85
549.04	38860.21
549.24	39273.90
549.45	39564.71
549.65	39286.18
549.85	39490.98
550.05	39706.02
550.25	39695.78
550.45	40125.85
550.66	39818.66
550.86	39294.38
551.06	40164.76
551.26	40011.17
551.46	39945.63
551.66	39847.33
551.87	39665.06
552.07	39970.21
552.27	40142.24
552.47	40144.28
552.67	40555.93
552.87	39923.10
553.07	40396.18
553.28	40586.64
553.48	40697.24
553.68	40064.41
553.88	40805.78
554.08	40822.16
554.28	40684.95
554.48	40162.72
554.69	40951.18
554.89	40730.00
555.09	41002.38
555.29	40846.74
555.49	40908.18
555.69	41246.09
555.89	41207.18
556.10	41219.47
556.30	40920.46
556.50	41172.36
556.70	41342.35
556.90	41375.11
557.10	41446.79
557.30	41514.37
557.50	41786.75
557.70	41661.83
557.91	41739.65
558.11	41729.41
558.31	41930.11
558.51	42042.75
558.71	41856.39
558.91	41895.30
559.11	41704.84
559.31	42249.60
559.51	42069.37
559.72	42108.29
559.92	42143.10
560.12	42065.28
560.32	42300.79
560.52	42050.94
560.72	42122.62
560.92	42243.45
561.12	42130.81
561.32	42218.88
561.52	42179.96
561.72	42880.37
561.93	42202.49
562.13	42294.65
562.33	42472.82
562.53	43079.02
562.73	42640.76
562.93	42898.80
563.13	43021.68
563.33	43220.33
563.53	43105.65
563.73	42988.91
563.93	43418.99
564.13	43019.63
564.33	43339.11
564.53	43193.71
564.74	43611.49
564.94	43107.69
565.14	43554.15
565.34	43224.43
565.54	43539.82
565.74	43601.25
565.94	44326.24
566.14	43701.61
566.34	43713.89
566.54	43990.37
566.74	43681.13
566.94	43969.89
567.14	44055.90
567.34	43781.48
567.54	44402.01
567.74	44154.21
567.94	43783.52
568.14	44002.66
568.34	44864.85
568.54	44174.69
568.74	44545.37
568.94	44168.54
569.14	44830.04
569.34	44651.86
569.54	44838.23
569.75	44467.55
569.95	44746.07
570.15	44858.71
570.35	45073.74
570.55	44909.91
570.75	45034.83
570.95	44909.91
571.15	44930.39
571.35	44582.23
571.55	45124.94
571.75	44823.89
571.95	45100.37
572.15	45407.56
572.35	45094.22
572.55	45215.05
572.75	45184.33
572.95	45325.64
573.15	45385.04
573.35	45428.04
573.55	45176.14
573.75	45466.95
573.95	45577.54
574.15	45593.93
574.35	45346.12
574.55	45843.78
574.75	46030.15
574.95	45755.72
575.15	45788.49
575.34	45616.46
575.54	46134.59
575.74	46015.81
575.94	45839.68
576.14	46196.03
576.34	46314.81
576.54	46609.72
576.74	46609.72
576.94	46343.48
577.14	46191.94
577.34	46816.57
577.54	46208.32
577.74	46175.55
577.94	46853.43
578.14	46554.43
578.34	46892.34
578.54	46605.62
578.74	46822.71
578.94	47207.73
579.14	46515.51
579.34	46765.37
579.54	46791.99
579.74	47097.14
579.94	47095.09
580.13	47346.99
580.33	47260.97
580.53	47170.86
580.73	47559.98
580.93	47396.14
581.13	47422.76
581.33	47535.40
581.53	47762.73
581.73	47656.23
581.93	47545.64
582.13	47559.98
582.33	47916.32
582.53	47629.61
582.73	47938.85
582.92	47713.58
583.12	47977.76
583.32	47658.28
583.52	47607.08
583.72	47754.54
583.92	48024.87
584.12	48043.30
584.32	48590.11
584.52	48051.49
584.72	48160.03
584.92	48207.14
585.11	48665.88
585.31	48395.55
585.51	48416.03
585.71	48422.17
585.91	48321.82
586.11	48524.57
586.31	48004.39
586.51	48438.56
586.71	48780.57
586.91	49110.29
587.10	48573.72
587.30	48684.31
587.50	49055.00
587.70	48256.29
587.90	49063.19
588.10	48735.51
588.30	48805.14
588.50	49274.13
588.69	48899.35
588.89	48624.92
589.09	48979.22
589.29	48842.01
589.49	49272.08
589.69	48880.92
589.89	49358.09
590.08	48960.79
590.28	49497.36
590.48	48973.08
590.68	49030.42
590.88	49306.90
591.08	49321.23
591.28	48919.83
591.47	49472.78
591.67	49366.29
591.87	49671.43
592.07	49216.78
592.27	49237.26
592.47	49642.76
592.67	49700.11
592.86	49425.68
593.06	49364.24
593.26	49411.34
593.46	49229.07
593.66	49495.31
593.86	49820.94
594.05	49114.39
594.25	49911.05
594.45	49696.01
594.65	49444.11
594.85	49478.92
595.05	49777.93
595.24	49669.39
595.44	49786.12
595.64	49741.06
595.84	49650.95
596.04	49749.26
596.23	49782.02
596.43	50081.03
596.63	49765.64
596.83	50208.00
597.03	50582.78
597.22	50625.79
597.42	50199.81
597.62	50130.18
597.82	50275.58
598.02	50087.17
598.21	50885.88
598.41	50218.24
598.61	50803.96
598.81	50787.58
599.01	50519.29
599.20	50189.57
599.40	50255.11
599.60	50828.54
599.80	50545.92
600.00	50777.34
600.19	51262.71
600.39	50824.44
600.59	51207.41
600.79	51082.48
600.98	51172.60
601.18	50990.33
601.38	50963.70
601.58	51277.04
601.78	50849.02
601.97	51029.24
602.17	51578.09
602.37	51250.42
602.57	51244.27
602.76	51692.78
602.96	51162.36
603.16	51444.98
603.36	51514.61
603.55	51565.81
603.75	51926.25
603.95	51789.03
604.15	51690.73
604.34	51565.81
604.54	51510.51
604.74	51729.64
604.94	51809.51
605.13	52002.02
605.33	51944.68
605.53	51844.33
605.73	52473.06
605.92	51967.21
606.12	52344.03
606.32	52733.15
606.52	52303.07
606.71	51870.95
606.91	52794.59
607.11	52057.32
607.30	52669.66
607.50	52184.29
607.70	52315.36
607.90	52073.70
608.09	52499.68
608.29	52661.47
608.49	52974.81
608.68	52237.54
608.88	52810.97
609.08	53044.44
609.28	52827.35
609.47	52696.28
609.67	52937.94
609.87	53138.65
610.06	52991.19
610.26	52821.21
610.46	53396.69
610.66	52911.32
610.85	53064.92
611.05	53370.07
611.25	53140.69
611.44	53023.96
611.64	52749.53
611.84	52886.74
612.03	53116.12
612.23	53026.01
612.43	53359.83
612.62	53026.01
612.82	53378.26
613.02	53294.29
613.21	53662.93
613.41	53239.00
613.61	53642.45
613.80	52939.99
614.00	53488.85
614.20	53757.13
614.39	53613.77
614.59	53871.82
614.79	53707.98
614.98	53550.29
615.18	53681.36
615.38	53486.80
615.57	53576.91
615.77	53626.06
615.97	53712.08
616.16	53673.16
616.36	53626.06
616.56	53982.41
616.75	53724.36
616.95	53531.86
617.15	53744.84
617.34	53839.05
617.54	53757.13
617.74	53685.45
617.93	54000.84
618.13	53511.38
618.32	54035.66
618.52	53814.47
618.72	54103.24
618.91	54111.43
619.11	53787.85
619.31	53871.82
619.50	53613.77
619.70	53953.74
619.90	54115.53
620.09	53851.34
620.29	53990.60
620.48	53859.53
620.68	54602.94
620.88	53814.47
621.07	54119.62
621.27	53789.90
621.46	54250.69
621.66	54293.70
621.86	54105.29
622.05	54125.77
622.25	53929.16
622.44	54445.25
622.64	54031.56
622.84	54432.96
623.03	53861.58
623.23	54236.36
623.42	54392.00
623.62	54330.56
623.82	54379.71
624.01	54400.19
624.21	54361.28
624.40	53931.21
624.60	54093.00
624.80	54164.68
624.99	54168.77
625.19	54025.42
625.38	54400.19
625.58	54568.13
625.77	54422.72
625.97	54340.80
626.17	53949.64
626.36	54944.95
626.56	54613.18
626.75	53966.02
626.95	54437.06
627.14	54525.12
627.34	55026.87
627.54	54238.40
627.73	54639.81
627.93	54844.60
628.12	54312.13
628.32	54611.13
628.51	54809.79
628.71	54928.57
628.90	54903.99
629.10	54549.70
629.30	54600.89
629.49	54852.80
629.69	54465.73
629.88	54762.68
630.08	55192.76
630.27	55045.30
630.47	54817.98
630.66	54871.23
630.86	55104.70
631.05	54379.71
631.25	55471.28
631.44	54910.14
631.64	54772.92
631.84	55100.60
632.03	55891.12
632.23	55174.33
632.42	55559.34
632.62	54736.06
632.81	54713.53
633.01	55356.60
633.20	55432.37
633.40	55098.55
633.59	55342.26
633.79	54584.51
633.98	55653.55
634.18	55555.25
634.37	55387.31
634.57	55272.63
634.76	55878.83
634.96	55671.98
635.15	55911.59
635.35	55137.46
635.54	55596.21
635.74	55600.30
635.93	55401.65
636.13	55680.17
636.32	55927.98
636.52	55325.88
636.71	55254.20
636.91	55737.52
637.10	55758.00
637.30	55493.81
637.49	55303.35
637.69	55346.36
637.88	55614.64
638.08	55051.45
638.27	55555.25
638.46	55057.59
638.66	55053.50
638.85	55346.36
639.05	55944.36
639.24	55874.73
639.44	55557.30
639.63	55534.77
639.83	55819.44
640.02	56044.71
640.22	55764.14
640.41	56005.80
640.61	54854.84
640.80	55858.35
640.99	55669.93
641.19	55868.59
641.38	55991.47
641.58	56009.90
641.77	55700.65
641.97	55612.59
642.16	55792.81
642.36	55858.35
642.55	56001.71
642.74	55624.88
642.94	56321.19
643.13	55571.63
643.33	56249.51
643.52	55923.88
643.72	56087.72
643.91	56071.34
644.10	56290.47
644.30	55846.06
644.49	55887.02
644.69	55968.94
644.88	55887.02
645.08	55856.30
645.27	56140.97
645.46	55616.69
645.66	56186.02
645.85	55712.94
646.05	56179.88
646.24	55975.08
646.43	56618.14
646.63	56370.34
646.82	56489.12
647.02	56173.73
647.21	55917.74
647.40	55991.47
647.60	56288.42
647.79	56423.59
647.99	56313.00
648.18	56112.30
648.37	56761.50
648.57	56790.17
648.76	56212.65
648.96	56333.48
649.15	56210.60
649.34	56816.80
649.54	56057.00
649.73	55866.54
649.92	56143.02
650.12	56325.28
650.31	56003.75
650.51	56480.93
650.70	56702.11
650.89	56349.86
651.09	56935.58
651.28	56100.01
651.47	56321.19
651.67	56181.93
651.86	56300.71
652.06	55735.47
652.25	56456.35
652.44	55977.13
652.64	55760.05
652.83	55917.74
653.02	56304.80
653.22	55915.69
653.41	55714.99
653.60	55633.07
653.80	55907.50
653.99	56374.44
654.18	56419.49
654.38	56374.44
654.57	56345.76
654.76	56122.54
654.96	55585.97
655.15	56077.48
655.34	56308.90
655.54	55477.43
655.73	56048.81
655.92	56212.65
656.12	55893.16
656.31	56659.10
656.50	55952.55
656.70	55850.16
656.89	55712.94
657.08	56341.67
657.28	56089.77
657.47	55692.46
657.66	55938.22
657.86	55927.98
658.05	56120.49
658.24	56276.13
658.43	55825.58
658.63	55680.17
658.82	56089.77
659.01	56263.85
659.21	56106.15
659.40	55764.14
659.59	55567.54
659.79	55983.27
659.98	56179.88
660.17	56198.31
660.36	56136.87
660.56	55823.53
660.75	56198.31
660.94	56259.75
661.14	56431.78
661.33	55835.82
661.52	55749.81
661.71	56417.44
661.91	55350.45
662.10	55585.97
662.29	56181.93
662.49	55944.36
662.68	55678.13
662.87	56102.06
663.06	55938.22
663.26	55708.85
663.45	55880.88
663.64	55661.74
663.83	56206.50
664.03	55915.69
664.22	55956.65
664.41	55907.50
664.60	55395.51
664.80	55909.55
664.99	55753.90
665.18	55663.79
665.37	55895.21
665.57	56081.58
665.76	55854.25
665.95	56145.06
666.14	55817.39
666.34	55608.50
666.53	55497.91
666.72	55225.53
666.91	55344.31
667.11	55696.56
667.30	55518.38
667.49	55622.83
667.68	55239.86
667.87	55684.27
668.07	55891.12
668.26	55426.23
668.45	55764.14
668.64	55760.05
668.84	55903.40
669.03	55801.00
669.22	55936.17
669.41	55844.01
669.60	55997.61
669.80	55366.84
669.99	55508.14
670.18	55676.08
670.37	55119.03
670.57	55760.05
670.76	55405.75
670.95	55549.10
671.14	55397.55
671.33	55329.97
671.53	56079.53
671.72	55305.40
671.91	55456.95
672.10	55256.24
672.29	55674.03
672.48	55334.07
672.68	55426.23
672.87	55497.91
673.06	55479.47
673.25	55366.84
673.44	54777.02
673.64	55151.80
673.83	55278.77
674.02	54998.20
674.21	54869.18
674.40	55385.27
674.59	55010.49
674.79	54990.01
674.98	54650.05
675.17	55012.54
675.36	55215.29
675.55	55098.55
675.74	54613.18
675.94	54959.29
676.13	55270.58
676.32	55092.41
676.51	55458.99
676.70	54990.01
676.89	55227.57
677.08	55344.31
677.28	54564.03
677.47	55510.19
677.66	55411.89
677.85	54955.19
678.04	55235.77
678.23	55348.40
678.42	55327.92
678.62	55301.30
678.81	54871.23
679.00	55086.26
679.19	55833.77
679.38	55411.89
679.57	55055.54
679.76	54906.04
679.96	55323.83
680.15	55162.04
680.34	55133.37
680.53	54801.60
680.72	55119.03
680.91	55379.12
681.10	55104.70
681.29	55213.24
681.48	55123.13
681.68	54975.67
681.87	54916.28
682.06	54797.50
682.25	54535.36
682.44	55233.72
682.63	54838.46
682.82	54768.83
683.01	54795.45
683.20	54416.58
683.39	55018.68
683.59	55018.68
683.78	54471.87
683.97	54342.85
684.16	54557.89
684.35	54361.28
684.54	54533.31
684.73	54824.12
684.92	54549.70
685.11	54623.42
685.30	54658.24
685.49	54781.12
685.69	54537.41
685.88	54666.43
686.07	54535.36
686.26	54738.11
686.45	54621.37
686.64	54957.24
686.83	54670.53
687.02	54703.29
687.21	55014.58
687.40	54676.67
687.59	54742.20
687.78	54738.11
687.97	54731.96
688.16	55084.22
688.35	54516.93
688.54	54824.12
688.74	54834.36
688.93	54721.72
689.12	54561.98
689.31	54572.22
689.50	54858.94
689.69	54238.40
689.88	54146.25
690.07	54736.06
690.26	54179.01
690.45	54678.72
690.64	54574.27
690.83	54518.98
691.02	54256.84
691.21	54709.44
691.40	54099.14
691.59	54844.60
691.78	54580.42
691.97	54342.85
692.16	54412.48
692.35	54729.92
692.54	54361.28
692.73	54211.78
692.92	54332.61
693.11	54734.01
693.30	54101.19
693.49	54731.96
693.68	54305.99
693.87	54645.95
694.06	54820.03
694.25	54334.66
694.44	54258.88
694.63	54838.46
694.82	54717.63
695.01	54836.41
695.20	54365.38
695.39	54113.48
695.58	54490.30
695.77	54133.96
695.96	54471.87
696.15	54203.59
696.34	54150.34
696.53	54164.68
696.72	54170.82
696.91	54021.32
697.10	54088.90
697.29	54093.00
697.48	54670.53
697.67	54236.36
697.86	54019.27
698.05	54041.80
698.24	54441.15
698.43	53572.81
698.62	54115.53
698.81	53789.90
699.00	54066.38
699.19	53992.65
699.38	54256.84
699.57	53609.68
699.76	54590.66
699.95	53722.32
700.14	54396.10
700.32	54127.81
700.51	53945.54
700.70	54521.02
700.89	54297.80
701.08	54179.01
701.27	53871.82
701.46	54172.87
701.65	53419.22
701.84	53853.39
702.03	53890.25
702.22	53933.26
702.41	54004.94
702.60	53722.32
702.79	53220.56
702.98	53697.74
703.17	53511.38
703.35	53619.92
703.54	53908.68
703.73	54107.33
703.92	53466.32
704.11	53540.05
704.30	53890.25
704.49	53548.24
704.68	53677.26
704.87	53662.93
705.06	53370.07
705.25	53597.39
705.43	53613.77
705.62	53462.22
705.81	53384.40
706.00	53656.78
706.19	53417.17
706.38	53556.43
706.57	52780.25
706.76	53095.64
706.95	53365.97
707.14	53091.54
707.32	53368.02
707.51	53304.53
707.70	53028.05
707.89	53163.22
708.08	53234.90
708.27	53413.07
708.46	53234.90
708.65	53413.07
708.84	53513.42
709.02	53077.21
709.21	53314.77
709.40	53327.06
709.59	53650.64
709.78	53052.63
709.97	53306.58
710.16	52813.02
710.34	52657.37
710.53	53210.32
710.72	52647.13
710.91	53173.46
711.10	53239.00
711.29	53265.62
711.48	52638.94
711.66	53079.25
711.85	52647.13
712.04	52788.44
712.23	52643.04
712.42	52950.23
712.61	52868.31
712.80	53019.86
712.98	52731.10
713.17	52487.39
713.36	52542.69
713.55	52696.28
713.74	52831.45
713.93	52471.01
714.11	52577.50
714.30	52335.84
714.49	52301.03
714.68	52663.52
714.87	52311.27
715.06	52731.10
715.24	52698.33
715.43	52167.91
715.62	51809.51
715.81	52329.70
716.00	52475.10
716.18	51938.54
716.37	51965.16
716.56	52008.17
716.75	52255.97
716.94	52155.62
717.12	51590.38
717.31	52243.68
717.50	51729.64
717.69	51717.35
717.88	51698.92
718.06	52024.55
718.25	52040.93
718.44	51510.51
718.63	51485.93
718.82	51690.73
719.00	51797.23
719.19	51492.08
719.38	51000.57
719.57	50693.37
719.76	50859.26
719.94	50695.42
720.13	50558.20
720.32	51344.62
720.51	50980.09
720.69	50507.01
720.88	50771.19
721.07	50898.17
721.26	50511.10
721.44	50357.50
721.63	50730.23
721.82	50349.31
722.01	50382.08
722.20	50103.56
722.38	49718.54
722.57	49646.86
722.76	50310.40
722.95	49958.15
723.13	49777.93
723.32	50214.15
723.51	50167.04
723.70	49657.10
723.88	49990.92
724.07	49542.41
724.26	50367.74
724.44	49450.25
724.63	49968.39
724.82	49354.00
725.01	49976.58
725.19	49909.00
725.38	49489.16
725.57	49472.78
725.76	49489.16
725.94	49415.44
726.13	49009.94
726.32	49462.54
726.51	49155.35
726.69	49714.44
726.88	49808.65
727.07	49005.84
727.25	49278.22
727.44	49255.70
727.63	48911.64
727.82	49153.30
728.00	49071.38
728.19	48784.66
728.38	49093.91
728.56	48907.54
728.75	49159.44
728.94	48981.27
729.12	48923.93
729.31	48823.58
729.50	48991.51
729.69	49009.94
729.87	48409.89
730.06	48559.39
730.25	48805.14
730.43	49059.09
730.62	48442.65
730.81	48659.74
730.99	48723.22
731.18	49153.30
731.37	48614.68
731.55	48567.58
731.74	48760.09
731.93	49024.28
732.11	48766.23
732.30	48516.38
732.49	48715.03
732.67	48545.05
732.86	48413.98
733.05	48725.27
733.23	48321.82
733.42	48751.90
733.61	48125.22
733.79	48420.13
733.98	48520.48
734.17	48123.17
734.35	47961.38
734.54	48573.72
734.73	48379.17
734.91	48293.15
735.10	48028.96
735.29	48155.94
735.47	47811.88
735.66	48092.45
735.84	48209.18
736.03	48000.29
736.22	48452.89
736.40	48018.72
736.59	47711.53
736.78	47721.77
736.96	47691.05
737.15	47949.09
737.33	47344.94
737.52	47289.65
737.71	47504.68
737.89	47766.82
738.08	46998.83
738.27	47682.86
738.45	47564.07
738.64	47314.22
738.82	47412.52
739.01	47519.02
739.20	47064.37
739.38	47465.77
739.57	47668.52
739.75	47408.43
739.94	47392.04
740.13	47140.14
740.31	46937.40
740.50	47228.21
740.68	47119.66
740.87	47226.16
741.06	47359.28
741.24	46933.30
741.43	46427.45
741.61	47267.12
741.80	46505.27
741.99	46935.35
742.17	46585.15
742.36	47007.03
742.54	46435.64
742.73	46791.99
742.91	46804.28
743.10	46562.62
743.29	46615.86
743.47	46587.19
743.66	46626.10
743.84	46275.90
744.03	46593.34
744.21	46271.81
744.40	46402.88
744.59	46232.89
744.77	45978.95
744.96	46316.86
745.14	46587.19
745.33	46228.80
745.51	45788.49
745.70	45927.75
745.88	45831.49
746.07	45929.80
746.26	45827.40
746.44	45839.68
746.63	46275.90
746.81	45833.54
747.00	45813.06
747.18	45866.31
747.37	45448.52
747.55	45954.37
747.74	45714.76
747.92	45417.80
748.11	45172.05
748.29	45278.54
748.48	45575.50
748.66	45245.77
748.85	45567.30
749.03	45204.81
749.22	45444.43
749.41	45395.28
749.59	45217.10
749.78	44881.24
749.96	45053.26
750.15	45102.42
750.33	44971.35
750.52	44954.96
750.70	44922.19
750.89	44721.49
751.07	44387.67
751.26	44883.28
751.44	44473.69
751.63	44817.75
751.81	44795.22
752.00	44897.62
752.18	44946.77
752.37	44442.97
752.55	44592.47
752.74	44397.91
752.92	44213.60
753.10	44158.30
753.29	44701.01
753.47	44385.63
753.66	44074.34
753.84	44559.70
754.03	43767.14
754.21	44184.93
754.40	44129.63
754.58	43900.26
754.77	43937.12
754.95	43548.01
755.14	43793.76
755.32	43439.47
755.51	43238.76
755.69	43969.89
755.88	43715.94
756.06	43916.64
756.24	43447.66
756.43	43058.54
756.61	43693.41
756.80	43332.97
756.98	43390.31
757.17	43472.23
757.35	43335.02
757.54	43206.00
757.72	43238.76
757.90	43294.06
758.09	43103.60
758.27	43392.36
758.46	42993.01
758.64	43328.87
758.83	43367.79
759.01	43013.49
759.19	43275.63
759.38	42954.10
759.56	43267.44
759.75	42837.36
759.93	42769.78
760.12	42739.06
760.30	42765.68
760.48	42894.71
760.67	42689.91
760.85	42950.00
761.04	42923.38
761.22	42673.52
761.40	42341.75
761.59	42597.75
761.77	42235.26
761.96	42239.36
762.14	42677.62
762.32	42206.59
762.51	42118.53
762.69	42225.02
762.88	42300.79
763.06	42257.79
763.24	42179.96
763.43	42331.51
763.61	42265.98
763.80	42431.86
763.98	42003.84
764.16	41846.15
764.35	41747.84
764.53	41473.42
764.72	41971.07
764.90	41706.88
765.08	42030.46
765.27	41629.06
765.45	41584.01
765.63	41368.97
765.82	41555.33
766.00	41215.37
766.18	41299.34
766.37	41796.99
766.55	41565.57
766.74	41184.65
766.92	41082.25
767.10	41201.04
767.29	41094.54
767.47	41039.25
767.65	41147.79
767.84	40867.22
768.02	41411.98
768.20	41203.08
768.39	41213.32
768.57	41084.30
768.75	40908.18
768.94	40924.56
769.12	41221.52
769.30	40568.21
769.49	40983.95
769.67	40476.05
769.85	40289.69
770.04	40662.42
770.22	40387.99
770.40	40304.02
770.59	40129.95
770.77	40250.78
770.95	40553.88
771.14	39949.73
771.32	40191.39
771.50	40222.11
771.69	40146.33
771.87	40541.59
772.05	40117.66
772.24	39843.23
772.42	40154.52
772.60	40162.72
772.78	39464.36
772.97	39925.15
773.15	40191.39
773.33	40019.36
773.52	39814.56
773.70	39466.41
773.88	40385.94
774.07	39962.01
774.25	39894.43
774.43	39783.84
774.61	40230.30
774.80	40457.62
774.98	39884.19
775.16	39851.42
775.34	40068.51
775.53	39654.82
775.71	40414.62
775.89	39892.38
776.08	40072.60
776.26	40482.20
776.44	40031.65
776.62	40043.93
776.81	39732.64
776.99	40557.97
777.17	40050.08
777.35	40164.76
777.54	40246.68
777.72	40404.38
777.90	40334.74
778.08	40299.93
778.27	40502.68
778.45	40132.00
778.63	40674.71
778.81	40224.15
779.00	41057.68
779.18	40766.87
779.36	40545.69
779.54	40793.49
779.73	40437.14
779.91	40727.95
780.09	40727.95
780.27	40859.02
780.46	40646.04
780.64	40889.74
780.82	40725.91
781.00	40676.76
781.19	41219.47
781.37	41080.21
781.55	40965.52
781.73	41395.59
781.91	40996.24
782.10	40465.81
782.28	40930.70
782.46	40836.50
782.64	41710.98
782.82	41080.21
783.01	40922.51
783.19	41414.02
783.37	41409.93
783.55	41235.85
783.74	41448.84
783.92	41084.30
784.10	41389.45
784.28	41266.57
784.46	41145.74
784.64	41069.97
784.83	41493.89
785.01	41606.53
785.19	41069.97
785.37	41616.77
785.55	41166.22
785.74	41082.25
785.92	40934.80
786.10	40887.70
786.28	41381.26
786.46	41241.99
786.64	40736.15
786.83	41379.21
787.01	41215.37
787.19	41000.33
787.37	41192.84
787.55	41221.52
787.74	40738.19
787.92	41268.62
788.10	40670.61
788.28	40648.08
788.46	41016.72
788.64	40775.06
788.82	40887.70
789.01	40867.22
789.19	40998.29
789.37	40902.03
789.55	40766.87
789.73	40369.56
789.91	40357.27
790.09	40555.93
790.28	40185.24
790.46	40422.81
790.64	40240.54
790.82	40465.81
791.00	40039.84
791.18	39941.53
791.36	40240.54
791.55	40488.34
791.73	39587.24
791.91	39824.80
792.09	40248.73
792.27	40031.65
792.45	39781.79
792.63	39620.00
792.81	39343.53
793.00	39626.15
793.18	39419.30
793.36	39261.61
793.54	39411.11
793.72	39378.34
793.90	39224.75
794.08	39159.21
794.26	39187.88
794.44	39255.46
794.62	38702.51
794.81	39138.73
794.99	38989.23
795.17	38610.35
795.35	38888.88
795.53	38763.95
795.71	38602.16
795.89	38692.27
796.07	38016.44
796.25	37944.76
796.43	38403.51
796.61	38213.05
796.80	38180.28
796.98	37817.79
797.16	37993.92
797.34	38055.36
797.52	38260.15
797.70	37801.41
797.88	37909.95
798.06	37778.88
798.24	37615.04
798.42	37676.48
798.60	37555.65
798.78	37348.81
798.96	37418.44
799.14	37244.36
799.32	37449.16
799.51	37211.59
799.69	37223.88
799.87	36926.92
800.05	37318.09
800.23	36949.45
800.41	36890.06
800.59	36740.56
800.77	36648.40
800.95	36232.66
801.13	36230.62
801.31	36521.43
801.49	36355.54
801.67	36263.38
801.85	35937.76
802.03	35954.14
802.21	35689.95
802.39	35618.27
802.57	35679.71
802.75	35845.60
802.93	35681.76
803.11	35741.15
803.29	35501.54
803.47	35393.00
803.65	35622.37
803.83	35329.51
804.01	35046.89
804.19	34686.45
804.37	34962.92
804.55	35315.17
804.73	34659.82
804.91	34878.96
805.09	35139.05
805.27	35147.24
805.45	35053.03
805.63	34858.48
805.81	34829.80
805.99	34602.48
806.17	34774.51
806.35	34698.73
806.53	34399.73
806.71	34364.92
806.89	34606.58
807.07	34065.91
807.25	34506.23
807.43	34260.47
807.61	34555.38
807.79	33797.63
807.97	33549.82
808.15	33687.04
808.33	33617.41
808.51	33830.40
808.69	33934.84
808.87	33629.69
809.05	33570.30
809.23	33123.85
809.41	33115.65
809.59	33076.74
809.77	33541.63
809.95	32931.34
810.13	33529.34
810.31	33058.31
810.49	33201.67
810.67	32964.10
810.84	33093.13
811.02	32710.16
811.20	32388.63
811.38	32740.88
811.56	32308.76
811.74	32618.00
811.92	32529.94
812.10	32454.16
812.28	32583.18
812.46	32747.02
812.64	32540.18
812.82	32214.55
813.00	32241.17
813.18	32542.22
813.36	32063.00
813.53	31774.24
813.71	32026.14
813.89	32009.75
814.07	32198.16
814.25	32083.48
814.43	31788.57
814.61	31544.86
814.79	31907.35
814.97	31329.83
815.15	31524.38
815.33	31385.12
815.50	31077.93
815.68	31444.51
815.86	31340.07
816.04	30957.10
816.22	30955.05
816.40	31096.36
816.58	31268.39
816.76	30957.10
816.94	31008.29
817.11	31012.39
817.29	30909.99
817.47	30875.18
817.65	30694.96
817.83	30799.40
818.01	30412.34
818.19	30201.40
818.37	30420.53
818.54	30479.92
818.72	30361.14
818.90	30637.61
819.08	30342.70
819.26	30447.15
819.44	30185.01
819.62	30053.94
819.80	30406.19
819.97	29982.26
820.15	30346.80
820.33	29881.91
820.51	29791.80
820.69	29855.29
820.87	29822.52
821.05	29998.65
821.22	30025.27
821.40	29697.59
821.58	29656.64
821.76	29695.55
821.94	29464.13
822.12	29238.85
822.29	29347.39
822.47	29531.71
822.65	29673.02
822.83	29187.65
823.01	29331.01
823.19	29324.86
823.36	28956.23
823.54	29253.19
823.72	28962.37
823.90	28855.88
824.08	28913.22
824.25	29105.73
824.43	28845.64
824.61	28796.49
824.79	29013.57
824.97	28919.37
825.15	28855.88
825.32	28683.85
825.50	28335.70
825.68	28630.60
825.86	28741.19
826.04	28624.46
826.21	28753.48
826.39	28522.06
826.57	28669.51
826.75	28458.57
826.93	28126.80
827.10	28268.11
827.28	28171.86
827.46	28522.06
827.64	27850.33
827.81	27928.15
827.99	27899.48
828.17	27987.54
828.35	27938.39
828.53	27991.64
828.70	27594.33
828.88	27991.64
829.06	27811.42
829.24	27926.10
829.41	27606.62
829.59	27598.43
829.77	27573.85
829.95	27739.74
830.12	27358.81
830.30	27504.22
830.48	27739.74
830.66	27344.48
830.84	27385.44
831.01	27348.57
831.19	27358.81
831.37	27229.79
831.55	27203.17
831.72	27240.03
831.90	26908.26
832.08	27166.31
832.25	26752.62
832.43	27227.74
832.61	27063.91
832.79	26975.84
832.96	26873.45
833.14	26941.03
833.32	26769.00
833.50	27074.15
833.67	27084.39
833.85	26510.96
834.03	26613.35
834.20	26599.02
834.38	26898.02
834.56	26605.16
834.74	26664.55
834.91	26375.79
835.09	26445.42
835.27	26072.69
835.44	26490.48
835.62	26160.75
835.80	26142.32
835.98	26283.63
836.15	26070.64
836.33	25917.04
836.51	26461.80
836.68	26072.69
836.86	25851.51
837.04	26091.12
837.21	26103.41
837.39	26070.64
837.57	26177.14
837.75	25966.20
837.92	25534.07
838.10	25624.18
838.28	25521.79
838.45	25624.18
838.63	25675.38
838.81	25601.66
838.98	25439.87
839.16	25333.37
839.34	25310.85
839.51	25255.55
839.69	25224.83
839.87	25310.85
840.04	25228.93
840.22	25390.72
840.40	25040.51
840.57	24809.09
840.75	25054.85
840.93	24778.37
841.10	25175.68
841.28	25257.60
841.46	24852.10
841.63	24860.29
841.81	24870.53
841.98	24899.20
842.16	24948.36
842.34	25114.24
842.51	24626.82
842.69	24897.16
842.87	24841.86
843.04	24639.11
843.22	24407.69
843.40	24376.97
843.57	24362.64
843.75	24778.37
843.92	24465.03
844.10	24698.50
844.28	24739.46
844.45	24327.82
844.63	24587.91
844.81	24391.31
844.98	24452.75
845.16	24176.27
845.33	24266.38
845.51	24409.74
845.69	24024.72
845.86	23740.05
846.04	23938.71
846.21	23729.81
846.39	24037.01
846.57	23840.40
846.74	23998.10
846.92	23778.97
847.09	23830.16
847.27	23598.74
847.45	23981.71
847.62	23664.28
847.80	23795.35
847.97	23768.73
848.15	23625.37
848.32	23385.76
848.50	23631.51
848.68	23105.18
848.85	23533.21
849.03	23203.49
849.20	23389.85
849.38	23062.18
849.56	23299.74
849.73	23000.74
849.91	23113.38
850.08	23326.36
850.26	22820.52
850.43	23178.91
850.61	23047.84
850.78	22775.46
850.96	22857.38
851.14	22775.46
851.31	23010.98
851.49	22634.15
851.66	22754.98
851.84	22920.87
852.01	22636.20
852.19	23060.13
852.36	22859.43
852.54	22630.05
852.71	22630.05
852.89	22611.62
853.07	22640.29
853.24	22642.34
853.42	22714.02
853.59	22412.97
853.77	22580.90
853.94	22494.89
854.12	22955.68
854.29	22173.36
854.47	22443.69
854.64	22412.97
854.82	22419.11
854.99	22441.64
855.17	22087.34
855.34	22337.20
855.52	22126.25
855.69	22298.28
855.87	22204.08
856.04	21903.03
856.22	21943.99
856.39	21665.46
856.57	22034.10
856.74	21817.01
856.92	22152.88
857.09	21706.42
857.27	21714.61
857.44	22054.58
857.62	22097.58
857.79	21677.75
857.97	21757.62
858.14	21704.37
858.32	21687.99
858.49	21774.00
858.67	21677.75
858.84	21780.15
859.02	21642.93
859.19	21149.37
859.37	21126.85
859.54	21270.20
859.72	21575.35
859.89	21368.51
860.06	21427.90
860.24	21372.60
860.41	21405.37
860.59	21225.15
860.76	21382.84
860.94	21120.70
861.11	21188.28
861.29	21323.45
861.46	21092.03
861.64	20831.94
861.81	20817.60
861.98	20766.40
862.16	20856.51
862.33	20487.88
862.51	20756.16
862.68	20682.44
862.86	20653.76
863.03	20723.40
863.21	20752.07
863.38	20870.85
863.55	20508.36
863.73	20690.63
863.90	20639.43
864.08	20506.31
864.25	20680.39
864.43	20737.73
864.60	20532.93
864.77	20287.18
864.95	20606.66
865.12	20530.89
865.30	20584.13
865.47	20188.88
865.64	20301.51
865.82	20221.64
865.99	20291.27
866.17	20047.57
866.34	20008.65
866.51	20080.33
866.69	20135.63
866.86	20262.60
867.04	19992.27
867.21	20168.40
867.38	20025.04
867.56	19785.43
867.73	19803.86
867.91	19752.66
868.08	19828.43
868.25	19603.16
868.43	19601.11
868.60	19472.09
868.78	19365.59
868.95	19744.47
869.12	19521.24
869.30	19764.95
869.47	19422.94
869.64	19074.78
869.82	19457.75
869.99	19369.69
870.16	19623.64
870.34	19103.45
870.51	19381.98
870.69	19289.82
870.86	19232.47
871.03	19347.16
871.21	19203.80
871.38	19228.38
871.55	19472.09
871.73	19138.27
871.90	18845.41
872.07	18992.86
872.25	19068.64
872.42	18732.77
872.59	19009.25
872.77	19060.45
872.94	18902.75
873.11	18835.17
873.29	18470.63
873.46	18781.92
873.63	18786.02
873.81	18632.42
873.98	18497.25
874.15	18503.40
874.33	18257.64
874.50	18349.80
874.67	18284.26
874.85	18357.99
875.02	18292.46
875.19	18181.87
875.37	18091.76
875.54	18147.05
875.71	18329.32
875.88	18151.15
876.06	18224.87
876.23	18177.77
876.40	17979.12
876.58	18044.65
876.75	17995.50
876.92	17700.59
877.10	17895.15
877.27	17942.25
877.44	17856.24
877.61	17594.10
877.79	17776.37
877.96	17657.59
878.13	17565.43
878.31	17325.82
878.48	17282.81
878.65	17585.91
878.82	17102.59
879.00	17518.32
879.17	17659.63
879.34	17520.37
879.51	17178.36
879.69	17301.24
879.86	17258.23
880.03	17460.98
880.21	17385.21
880.38	17274.62
880.55	17299.19
880.72	17264.38
880.90	17366.78
881.07	17028.86
881.24	17116.92
881.41	16901.89
881.59	16983.80
881.76	16645.89
881.93	17026.81
882.10	16762.62
882.28	16971.52
882.45	16951.04
882.62	17014.52
882.79	16994.04
882.96	16379.65
883.14	16723.71
883.31	16946.94
883.48	16805.63
883.65	16756.48
883.83	16858.88
884.00	16813.82
884.17	16760.58
884.34	16551.68
884.51	16355.08
884.69	16613.12
884.86	16393.99
885.03	16406.28
885.20	16230.15
885.38	16670.47
885.55	16310.02
885.72	16635.65
885.89	16271.11
886.06	16551.68
886.24	16494.34
886.41	16353.03
886.58	16576.26
886.75	16654.08
886.92	16199.43
887.10	16267.02
887.27	16328.45
887.44	16162.57
887.61	16625.41
887.78	16224.01
887.95	16373.51
888.13	16219.91
888.30	16115.47
888.47	16099.08
888.64	15963.92
888.81	16013.07
888.99	16041.74
889.16	15779.60
889.33	15896.33
889.50	15527.70
889.67	15904.53
889.84	16054.03
890.01	15933.20
890.19	15861.52
890.36	15978.25
890.53	15931.15
890.70	15724.30
890.87	15765.26
891.04	15570.71
891.22	15736.59
891.39	15433.49
891.56	15501.08
891.73	15490.84
891.90	15421.20
892.07	15478.55
892.24	15392.53
892.42	15462.16
892.59	15318.81
892.76	15486.74
892.93	15449.88
893.10	15515.41
893.27	15281.94
893.44	15185.69
893.61	15216.41
893.79	15468.31
893.96	15222.55
894.13	15388.44
894.30	15396.63
894.47	15333.14
894.64	15357.72
894.81	15083.29
894.98	15382.29
895.15	15400.72
895.33	15234.84
895.50	15175.45
895.67	15499.03
895.84	15200.02
896.01	15161.11
896.18	14939.93
896.35	15306.52
896.52	15224.60
896.69	15281.94
896.86	14872.35
897.04	15206.17
897.21	15150.87
897.38	15093.53
897.55	15189.78
897.72	15372.05
897.89	15132.44
898.06	15187.74
898.23	14954.27
898.40	15124.25
898.57	15294.23
898.74	14892.83
898.91	15214.36
899.08	15093.53
899.26	14993.18
899.43	15107.87
899.60	15107.87
899.77	15193.88
899.94	14835.49
900.11	15073.05
900.28	15327.00
900.45	14976.80
900.62	15079.19
900.79	15204.12
900.96	15105.82
901.13	15169.30
901.30	15025.95
901.47	15050.52
901.64	15126.30
901.81	15228.70
901.98	15081.24
902.15	15486.74
902.32	14978.84
902.49	15099.67
902.66	14954.27
902.83	15195.93
903.01	14991.13
903.18	15173.40
903.35	15101.72
903.52	15019.80
903.69	15091.48
903.86	15255.32
904.03	15099.67
904.20	15181.59
904.37	15163.16
904.54	15034.14
904.71	15093.53
904.88	15091.48
905.05	15036.19
905.22	14978.84
905.39	14876.44
905.56	15144.73
905.73	14970.65
905.90	15101.72
906.07	15005.47
906.24	15140.63
906.41	15122.20
906.58	15087.39
906.75	15187.74
906.92	15073.05
907.09	15009.56
907.26	14831.39
907.43	15042.33
907.60	15030.04
907.77	15103.77
907.93	14903.07
908.10	14790.43
908.27	15232.79
908.44	14901.02
908.61	14886.68
908.78	14786.33
908.95	15195.93
909.12	14903.07
909.29	14896.92
909.46	14896.92
909.63	15085.34
909.80	14962.46
909.97	14815.01
910.14	14765.85
910.31	14894.88
910.48	14870.30
910.65	15040.28
910.82	14718.75
910.99	14724.90
911.16	15005.47
911.33	14978.84
911.50	15009.56
911.66	14685.98
911.83	14812.96
912.00	14749.47
912.17	14552.87
912.34	14532.39
912.51	14833.44
912.68	14651.17
912.85	14765.85
913.02	14614.30
913.19	14544.67
913.36	14751.52
913.53	14671.65
913.70	14593.83
913.86	14731.04
914.03	14507.81
914.20	14413.60
914.37	14552.87
914.54	14290.73
914.71	14407.46
914.88	14274.34
915.05	14413.60
915.22	14399.27
915.39	14333.73
915.55	14286.63
915.72	14313.25
915.89	14249.77
916.06	14223.14
916.23	14044.97
916.40	13922.09
916.57	14067.50
916.74	14042.92
916.91	13860.65
917.07	13942.57
917.24	13872.94
917.41	13795.12
917.58	13909.80
917.75	13735.73
917.92	13621.04
918.09	13752.11
918.26	13797.17
918.42	13821.74
918.59	13664.05
918.76	13582.13
918.93	13352.76
919.10	13496.11
919.27	13416.24
919.44	13532.98
919.60	13750.06
919.77	13512.50
919.94	13350.71
920.11	13340.47
920.28	13274.93
920.45	13174.58
920.61	13090.62
920.78	13369.14
920.95	13068.09
921.12	12857.15
921.29	12859.20
921.46	13016.89
921.62	12977.98
921.79	13035.32
921.96	12973.88
922.13	12859.20
922.30	12846.91
922.47	12638.02
922.63	12728.13
922.80	12605.25
922.97	12447.55
923.14	12410.69
923.31	12816.19
923.47	12494.66
923.64	12648.26
923.81	12416.83
923.98	12353.35
924.15	12152.65
924.32	12502.85
924.48	12306.24
924.65	12209.99
924.82	12015.43
924.99	12011.34
925.15	11845.45
925.32	11997.00
925.49	11896.65
925.66	12150.60
925.83	11757.39
925.99	11818.83
926.16	11900.75
926.33	11953.99
926.50	11575.12
926.67	11980.62
926.83	11743.05
927.00	11650.89
927.17	11390.80
927.34	11458.39
927.50	11523.92
927.67	11784.01
927.84	11407.19
928.01	11241.30
928.17	11405.14
928.34	11378.51
928.51	11403.09
928.68	10848.09
928.84	11091.80
929.01	10846.04
929.18	10843.99
929.35	11054.94
929.51	10927.96
929.68	10776.41
929.85	10696.54
930.02	10667.87
930.18	10612.57
930.35	10663.77
930.52	10530.66
930.69	10688.35
930.85	10907.48
931.02	10547.04
931.19	10436.45
931.36	10403.68
931.52	10403.68
931.69	10497.89
931.86	10348.39
932.02	10362.72
932.19	10256.23
932.36	10119.01
932.53	10110.82
932.69	10063.72
932.86	9920.36
933.03	10055.53
933.19	9815.91
933.36	9805.67
933.53	9906.02
933.70	9750.38
933.86	9783.15
934.03	9686.89
934.20	9561.97
934.36	9703.28
934.53	9498.48
934.70	9273.20
934.86	9363.31
935.03	9250.67
935.20	9228.15
935.36	9092.98
935.53	9176.95
935.70	8986.49
935.86	9066.36
936.03	8867.70
936.20	8740.73
936.36	8634.24
936.53	8949.62
936.70	8771.45
936.86	8812.41
937.03	8544.13
937.20	8517.50
937.36	8423.30
937.53	8075.14
937.70	8200.07
937.86	8042.37
938.03	7931.78
938.20	8128.39
938.36	7724.94
938.53	7776.14
938.70	7495.57
938.86	7763.85
939.03	7481.23
939.20	7501.71
939.36	7505.81
939.53	7423.89
939.70	7434.13
939.86	7165.84
940.03	7038.87
940.19	6866.84
940.36	7085.97
940.53	7069.59
940.69	6782.87
940.86	6815.64
941.03	6596.51
941.19	6508.44
941.36	6567.84
941.52	6492.06
941.69	6483.87
941.86	6356.90
942.02	6371.23
942.19	6283.17
942.35	6268.83
942.52	6291.36
942.69	6137.76
942.85	5973.92
943.02	6000.55
943.18	6000.55
943.35	5941.16
943.52	5990.31
943.68	5951.40
943.85	5771.18
944.01	5750.70
944.18	5646.25
944.35	5754.79
944.51	5648.30
944.68	5576.62
944.84	5636.01
945.01	5605.29
945.17	5523.37
945.34	5590.95
945.51	5435.31
945.67	5605.29
945.84	5562.28
946.00	5423.02
946.17	5590.95
946.33	5472.17
946.50	5468.08
946.67	5476.27
946.83	5437.36
947.00	5529.52
947.16	5414.83
947.33	5533.61
947.49	5447.60
947.66	5361.58
947.82	5550.00
947.99	5357.49
948.16	5490.60
948.32	5320.62
948.49	5410.73
948.65	5437.36
948.82	5455.79
948.98	5455.79
949.15	5283.76
949.31	5404.59
949.48	5318.57
949.64	5337.01
949.81	5418.93
949.97	5496.75
950.14	5445.55
950.30	5300.14
950.47	5447.60
950.63	5341.10
950.80	5349.29
950.96	5447.60
951.13	5435.31
951.30	5480.36
951.46	5443.50
951.63	5545.90
951.79	5521.32
951.96	5441.45
952.12	5607.34
952.29	5386.16
952.45	5496.75
952.62	5468.08
952.78	5517.23
952.94	5392.30
953.11	5365.68
953.27	5320.62
953.44	5603.24
953.60	5494.70
953.77	5476.27
953.93	5525.42
954.10	5394.35
954.26	5560.24
954.43	5478.32
954.59	5484.46
954.76	5656.49
954.92	5472.17
955.09	5556.14
955.25	5504.94
955.42	5492.65
955.58	5537.71
955.75	5689.26
955.91	5519.28
956.07	5566.38
956.24	5443.50
956.40	5541.80
956.57	5533.61
956.73	5541.80
956.90	5470.12
957.06	5525.42
957.23	5529.52
957.39	5429.17
957.56	5627.82
957.72	5404.59
957.88	5468.08
958.05	5689.26
958.21	5625.77
958.38	5478.32
958.54	5517.23
958.71	5672.87
958.87	5527.47
959.03	5435.31
959.20	5519.28
959.36	5394.35
959.53	5484.46
959.69	5480.36
959.85	5478.32
960.02	5449.64
960.18	5511.08
960.35	5631.91
960.51	5724.07
960.68	5353.39
960.84	5588.91
961.00	5480.36
961.17	5472.17
961.33	5539.76
961.50	5586.86
961.66	5519.28
961.82	5427.12
961.99	5459.88
962.15	5388.21
962.31	5443.50
962.48	5480.36
962.64	5584.81
962.81	5586.86
962.97	5353.39
963.13	5529.52
963.30	5470.12
963.46	5326.77
963.62	5320.62
963.79	5595.05
963.95	5445.55
964.12	5474.22
964.28	5513.13
964.44	5398.45
964.61	5435.31
964.77	5408.69
964.93	5433.26
965.10	5279.66
965.26	5279.66
965.42	5509.04
965.59	5246.90
965.75	5457.84
965.92	5457.84
966.08	5412.78
966.24	5451.69
966.41	5189.55
966.57	5482.41
966.73	5494.70
966.90	5392.30
967.06	5425.07
967.22	5302.19
967.39	5246.90
967.55	5224.37
967.71	5394.35
967.88	5386.16
968.04	5277.62
968.20	5326.77
968.37	5226.42
968.53	5193.65
968.69	5283.76
968.85	5382.06
969.02	5300.14
969.18	5287.86
969.34	5212.08
969.51	5193.65
969.67	5216.18
969.83	5148.59
970.00	5191.60
970.16	5275.57
970.32	5148.59
970.48	5218.22
970.65	5062.58
970.81	4984.76
970.97	5281.71
971.14	5066.67
971.30	5183.41
971.46	5056.43
971.63	4929.46
971.79	5078.96
971.95	5115.83
972.11	4982.71
972.28	5038.00
972.44	5027.76
972.60	4951.99
972.76	5083.06
972.93	4966.32
973.09	5058.48
973.25	5060.53
973.42	4954.04
973.58	5023.67
973.74	4833.21
973.90	4894.65
974.07	4827.06
974.23	4890.55
974.39	4997.04
974.55	4816.82
974.72	4927.41
974.88	4753.34
975.04	4829.11
975.20	4923.32
975.37	4794.29
975.53	4739.00
975.69	4827.06
975.85	4775.86
976.01	4730.81
976.18	4763.58
976.34	4726.71
976.50	4747.19
976.66	4822.97
976.83	4777.91
976.99	4702.14
977.15	4732.86
977.31	4558.78
977.47	4769.72
977.64	4677.56
977.80	4622.27
977.96	4630.46
978.12	4693.94
978.29	4669.37
978.45	4517.82
978.61	4638.65
978.77	4657.08
978.93	4503.48
979.10	4497.34
979.26	4620.22
979.42	4720.57
979.58	4376.51
979.74	4550.59
979.91	4532.15
980.07	4489.15
980.23	4487.10
980.39	4440.00
980.55	4415.42
980.71	4448.19
980.88	4507.58
981.04	4394.94
981.20	4345.79
981.36	4444.09
981.52	4333.50
981.68	4386.75
981.85	4466.62
982.01	4431.80
982.17	4333.50
982.33	4317.12
982.49	4386.75
982.65	4188.10
982.82	4386.75
982.98	4290.49
983.14	4343.74
983.30	4298.69
983.46	4329.41
983.62	4380.61
983.79	4288.45
983.95	4153.28
984.11	4065.22
984.27	4177.86
984.43	4212.67
984.59	4216.77
984.75	4327.36
984.91	4241.34
985.08	4249.54
985.24	4177.86
985.40	4265.92
985.56	4065.22
985.72	4169.66
985.88	4241.34
986.04	4048.83
986.20	4079.55
986.37	4065.22
986.53	4116.42
986.69	4124.61
986.85	3993.54
987.01	3975.11
987.17	4057.03
987.33	4005.83
987.49	4009.92
987.65	4016.07
987.82	3966.92
987.98	3993.54
988.14	3989.44
988.30	4001.73
988.46	3930.05
988.62	3844.04
988.78	3899.33
988.94	3928.00
989.10	3907.52
989.26	3776.45
989.42	3850.18
989.59	3786.69
989.75	3796.93
989.91	3891.14
990.07	3643.34
990.23	3815.37
990.39	3885.00
990.55	3981.25
990.71	3776.45
990.87	3786.69
991.03	3878.85
991.19	3690.44
991.35	3616.71
991.51	3776.45
991.67	3778.50
991.83	3770.31
992.00	3706.82
992.16	3823.56
992.32	3700.68
992.48	3739.59
992.64	3659.72
992.80	3850.18
992.96	3616.71
993.12	3661.77
993.28	3688.39
993.44	3581.90
993.60	3573.71
993.76	3600.33
993.92	3674.06
994.08	3688.39
994.24	3719.11
994.40	3635.14
994.56	3600.33
994.72	3502.03
994.88	3497.93
995.04	3504.07
995.20	3565.51
995.36	3545.03
995.52	3612.62
995.68	3428.30
995.84	3387.34
996.00	3553.23
996.16	3420.11
996.32	3403.72
996.48	3446.73
996.64	3487.69
996.80	3444.68
996.96	3459.02
997.12	3428.30
997.28	3381.20
997.44	3479.50
997.60	3368.91
997.76	3332.05
997.92	3336.14
998.08	3379.15
998.24	3293.13
998.40	3389.39
998.56	3436.49
998.72	3305.42
998.88	3348.43
999.04	3389.39
999.20	3299.28
999.36	3223.50
999.52	3373.00
999.68	3305.42
999.84	3291.09
1000.00	3327.95
1000.16	3250.13
1000.32	3176.40
1000.48	3239.89
1000.64	3194.83
1000.80	3166.16
1000.95	3080.14
1001.11	3123.15
1001.27	3123.15
1001.43	3213.26
1001.59	3108.82
1001.75	3174.35
1001.91	3164.11
1002.07	3106.77
1002.23	3149.78
1002.39	3114.96
1002.55	3164.11
1002.71	2994.13
1002.87	3155.92
1003.03	3166.16
1003.19	3051.47
1003.34	3121.10
1003.50	3176.40
1003.66	3114.96
1003.82	3180.50
1003.98	3000.27
1004.14	3035.09
1004.30	2910.16
1004.46	2961.36
1004.62	3033.04
1004.78	2920.40
1004.94	3004.37
1005.09	3104.72
1005.25	3030.99
1005.41	3016.66
1005.57	2975.70
1005.73	2908.12
1005.89	2875.35
1006.05	3006.42
1006.21	2961.36
1006.37	2987.99
1006.52	2840.53
1006.68	2742.23
1006.84	2940.88
1007.00	2840.53
1007.16	2912.21
1007.32	2936.79
1007.48	2815.96
1007.64	2973.65
1007.79	2807.77
1007.95	2797.53
1008.11	2869.20
1008.27	2811.86
1008.43	2906.07
1008.59	2822.10
1008.75	2854.87
1008.91	2805.72
1009.06	2791.38
1009.22	2752.47
1009.38	2791.38
1009.54	2867.16
1009.70	2746.33
1009.86	2787.29
1010.01	2783.19
1010.17	2768.85
1010.33	2775.00
1010.49	2731.99
1010.65	2795.48
1010.81	2697.17
1010.96	2697.17
1011.12	2783.19
1011.28	2695.13
1011.44	2605.02
1011.60	2723.80
1011.76	2662.36
1011.91	2637.78
1012.07	2543.58
1012.23	2607.06
1012.39	2574.30
1012.55	2613.21
1012.71	2576.34
1012.86	2598.87
1013.02	2627.54
1013.18	2635.74
1013.34	2602.97
1013.50	2635.74
1013.65	2627.54
1013.81	2502.62
1013.97	2621.40
1014.13	2697.17
1014.29	2584.54
1014.44	2572.25
1014.60	2570.20
1014.76	2596.82
1014.92	2570.20
1015.07	2570.20
1015.23	2539.48
1015.39	2508.76
1015.55	2566.10
1015.71	2498.52
1015.86	2377.69
1016.02	2512.86
1016.18	2465.75
1016.34	2519.00
1016.49	2537.43
1016.65	2475.99
1016.81	2484.19
1016.97	2480.09
1017.12	2527.19
1017.28	2338.78
1017.44	2480.09
1017.60	2400.22
1017.75	2449.37
1017.91	2402.27
1018.07	2492.38
1018.23	2504.67
1018.38	2418.65
1018.54	2420.70
1018.70	2410.46
1018.86	2394.08
1019.01	2377.69
1019.17	2361.31
1019.33	2432.99
1019.49	2490.33
1019.64	2449.37
1019.80	2351.07
1019.96	2412.51
1020.12	2400.22
1020.27	2410.46
1020.43	2418.65
1020.59	2371.55
1020.74	2334.68
1020.90	2344.92
1021.06	2267.10
1021.22	2387.93
1021.37	2326.49
1021.53	2312.16
1021.69	2277.34
1021.84	2285.53
1022.00	2299.87
1022.16	2283.49
1022.31	2283.49
1022.47	2373.60
1022.63	2342.88
1022.79	2207.71
1022.94	2181.09
1023.10	2293.72
1023.26	2318.30
1023.41	2330.59
1023.57	2185.18
1023.73	2246.62
1023.88	2215.90
1024.04	2146.27
1024.20	2197.47
1024.35	2215.90
1024.51	2234.33
1024.67	2183.13
1024.82	2306.01
1024.98	2226.14
1025.14	2260.96
1025.29	2236.38
1025.45	2283.49
1025.61	2117.60
1025.76	2191.33
1025.92	2236.38
1026.08	2265.05
1026.23	2146.27
1026.39	2197.47
1026.55	2181.09
1026.70	2142.18
1026.86	2140.13
1027.02	2211.81
1027.17	2142.18
1027.33	2166.75
1027.48	2119.65
1027.64	2136.03
1027.80	2174.94
1027.95	2191.33
1028.11	2125.79
1028.27	2191.33
1028.42	2105.31
1028.58	2144.22
1028.73	2105.31
1028.89	2066.40
1029.05	2127.84
1029.20	2142.18
>>>>>End Processed Spectral Data<<<<<
