SpectraSuite Data File
++++++++++++++++++++++++++++++++++++
Date: Fri Jun 02 14:49:28 CEST 2017
User: INFO_000
Dark Spectrum Present: No
Reference Spectrum Present: No
Number of Sampled Component Spectra: 1
Spectrometers: USB4H00879
Integration Time (usec): 80000 (USB4H00879)
Spectra Averaged: 1 (USB4H00879)
Boxcar Smoothing: 0 (USB4H00879)
Correct for Electrical Dark: No (USB4H00879)
Strobe/Lamp Enabled: No (USB4H00879)
Correct for Detector Non-linearity: No (USB4H00879)
Correct for Stray Light: No (USB4H00879)
Number of Pixels in Processed Spectrum: 3648
>>>>>Begin Processed Spectral Data<<<<<
345.13	1343.47
345.34	1343.47
345.56	1343.47
345.78	1296.36
345.99	1265.64
346.21	1689.57
346.42	1654.76
346.64	1607.66
346.86	1804.26
347.07	1665.00
347.29	1722.34
347.50	1636.33
347.72	1630.18
347.94	1673.19
348.15	1572.84
348.37	1619.94
348.59	1712.10
348.80	1677.29
349.02	1716.20
349.23	1849.32
349.45	1796.07
349.67	1855.46
349.88	1830.88
350.10	1894.37
350.31	1812.45
350.53	1781.73
350.75	2007.01
350.96	1785.83
351.18	1841.12
351.39	1830.88
351.61	1748.97
351.82	1933.28
352.04	1933.28
352.26	1824.74
352.47	1953.76
352.69	1931.23
352.90	1757.16
353.12	1902.56
353.34	1759.21
353.55	1968.10
353.77	1884.13
353.98	1845.22
354.20	1867.75
354.41	1937.38
354.63	1949.67
354.85	2013.15
355.06	1865.70
355.28	1773.54
355.49	1777.64
355.71	1859.56
355.92	1966.05
356.14	1970.15
356.35	1875.94
356.57	1828.84
356.79	1968.10
357.00	1843.17
357.22	1964.00
357.43	1837.03
357.65	1884.13
357.86	1845.22
358.08	1908.71
358.29	1925.09
358.51	1941.47
358.72	1937.38
358.94	1937.38
359.16	1916.90
359.37	1918.95
359.59	1986.53
359.80	2017.25
360.02	1978.34
360.23	1886.18
360.45	2080.74
360.66	1875.94
360.88	1812.45
361.09	1949.67
361.31	1929.19
361.52	2019.30
361.74	2064.35
361.95	2052.06
362.17	1884.13
362.38	2099.17
362.60	1951.71
362.81	1949.67
363.03	1941.47
363.24	1994.72
363.46	2054.11
363.67	2047.97
363.89	1910.75
364.10	1949.67
364.32	1970.15
364.53	2023.39
364.75	1957.86
364.96	1990.63
365.18	2009.06
365.39	1990.63
365.61	1986.53
365.82	2103.26
366.04	2076.64
366.25	1964.00
366.47	2066.40
366.68	2037.73
366.90	1920.99
367.11	2078.69
367.33	2074.59
367.54	2058.21
367.76	2027.49
367.97	2105.31
368.19	2025.44
368.40	2125.79
368.62	1992.67
368.83	1947.62
369.05	2111.46
369.26	1970.15
369.48	1994.72
369.69	1964.00
369.91	2068.45
370.12	2011.11
370.33	2097.12
370.55	1982.43
370.76	1988.58
370.98	2140.13
371.19	1966.05
371.41	1990.63
371.62	1976.29
371.84	1978.34
372.05	2308.06
372.27	2078.69
372.48	2043.87
372.69	2058.21
372.91	2136.03
373.12	2093.02
373.34	2082.78
373.55	2176.99
373.77	2084.83
373.98	2125.79
374.20	2095.07
374.41	2230.24
374.62	2148.32
374.84	2133.98
375.05	2144.22
375.27	2115.55
375.48	2168.80
375.70	2199.52
375.91	2164.70
376.12	2301.92
376.34	2162.66
376.55	2189.28
376.77	2224.09
376.98	2037.73
377.19	2109.41
377.41	2148.32
377.62	2172.89
377.84	2277.34
378.05	2324.44
378.27	2230.24
378.48	2303.96
378.69	2414.56
378.91	2273.25
379.12	2293.72
379.34	2207.71
379.55	2238.43
379.76	2263.01
379.98	2285.53
380.19	2297.82
380.41	2250.72
380.62	2299.87
380.83	2303.96
381.05	2181.09
381.26	2400.22
381.47	2170.85
381.69	2254.81
381.90	2383.84
382.12	2306.01
382.33	2287.58
382.54	2277.34
382.76	2277.34
382.97	2281.44
383.19	2353.12
383.40	2385.88
383.61	2400.22
383.83	2328.54
384.04	2322.40
384.25	2342.88
384.47	2375.64
384.68	2422.75
384.89	2297.82
385.11	2310.11
385.32	2334.68
385.54	2361.31
385.75	2334.68
385.96	2322.40
386.18	2424.80
386.39	2422.75
386.60	2289.63
386.82	2381.79
387.03	2320.35
387.24	2469.85
387.46	2473.95
387.67	2500.57
387.88	2447.32
388.10	2383.84
388.31	2549.72
388.52	2510.81
388.74	2453.47
388.95	2465.75
389.16	2580.44
389.38	2420.70
389.59	2586.58
389.80	2582.49
390.02	2555.86
390.23	2519.00
390.44	2523.10
390.66	2564.06
390.87	2469.85
391.08	2559.96
391.30	2762.71
391.51	2645.98
391.72	2686.94
391.94	2633.69
392.15	2559.96
392.36	2635.74
392.58	2559.96
392.79	2596.82
393.00	2678.74
393.22	2731.99
393.43	2770.90
393.64	2719.70
393.85	2766.81
394.07	2617.30
394.28	2625.50
394.49	2693.08
394.71	2678.74
394.92	2877.40
395.13	2650.07
395.35	2777.05
395.56	2703.32
395.77	2682.84
395.98	2897.88
396.20	2795.48
396.41	2893.78
396.62	2977.75
396.84	2811.86
397.05	2736.09
397.26	2813.91
397.47	2969.55
397.69	2863.06
397.90	3010.51
398.11	2850.77
398.32	2846.68
398.54	2848.72
398.75	2830.29
398.96	2926.55
399.18	2973.65
399.39	2983.89
399.60	3020.75
399.81	2879.44
400.03	2901.97
400.24	3135.44
400.45	2930.64
400.66	2990.03
400.88	2938.84
401.09	3129.30
401.30	3133.39
401.51	3065.81
401.73	3162.06
401.94	3166.16
402.15	2992.08
402.36	3045.33
402.58	3129.30
402.79	3272.65
403.00	3186.64
403.21	3186.64
403.43	3239.89
403.64	3280.85
403.85	3082.19
404.06	3192.78
404.27	3176.40
404.49	3217.36
404.70	3133.39
404.91	3213.26
405.12	3248.08
405.34	3155.92
405.55	3373.00
405.76	3149.78
405.97	3248.08
406.19	3395.53
406.40	3190.74
406.61	3346.38
406.82	3354.57
407.03	3356.62
407.25	3243.98
407.46	3456.97
407.67	3325.90
407.88	3473.36
408.09	3327.95
408.31	3305.42
408.52	3313.61
408.73	3309.52
408.94	3303.37
409.15	3469.26
409.37	3432.40
409.58	3577.80
409.79	3518.41
410.00	3456.97
410.21	3321.81
410.43	3508.17
410.64	3389.39
410.85	3512.27
411.06	3471.31
411.27	3508.17
411.48	3594.19
411.70	3432.40
411.91	3538.89
412.12	3647.43
412.33	3581.90
412.54	3456.97
412.76	3633.10
412.97	3561.42
413.18	3516.36
413.39	3665.86
413.60	3667.91
413.81	3674.06
414.03	3649.48
414.24	3573.71
414.45	3805.13
414.66	3463.12
414.87	3678.15
415.08	3690.44
415.30	3598.28
415.51	3678.15
415.72	3678.15
415.93	3712.97
416.14	3747.78
416.35	3753.93
416.56	3762.12
416.78	3792.84
416.99	3792.84
417.20	3825.61
417.41	3760.07
417.62	3788.74
417.83	3977.16
418.04	3930.05
418.26	3858.37
418.47	3885.00
418.68	3981.25
418.89	3846.09
419.10	4016.07
419.31	3825.61
419.52	4091.84
419.73	4014.02
419.95	3981.25
420.16	3895.24
420.37	4071.36
420.58	4057.03
420.79	3823.56
421.00	3956.68
421.21	4145.09
421.42	3940.29
421.63	4110.27
421.85	4122.56
422.06	4202.43
422.27	4140.99
422.48	4075.46
422.69	4218.82
422.90	4091.84
423.11	4237.25
423.32	4239.30
423.53	4327.36
423.75	4413.37
423.96	4440.00
424.17	4433.85
424.38	4618.17
424.59	4380.61
424.80	4573.11
425.01	4427.71
425.22	4376.51
425.43	4278.21
425.64	4448.19
425.85	4556.73
426.06	4523.96
426.28	4437.95
426.49	4362.17
426.70	4509.63
426.91	4517.82
427.12	4566.97
427.33	4646.84
427.54	4575.16
427.75	4575.16
427.96	4605.88
428.17	4679.61
428.38	4798.39
428.59	4693.94
428.80	4790.20
429.01	4853.69
429.23	4825.01
429.44	4988.85
429.65	4884.41
429.86	4880.31
430.07	4765.62
430.28	4900.79
430.49	4904.89
430.70	5064.63
430.91	5164.98
431.12	5038.00
431.33	5128.11
431.54	5103.54
431.75	5007.28
431.96	5138.35
432.17	5076.91
432.38	5046.20
432.59	5320.62
432.80	5158.83
433.01	5167.03
433.22	5244.85
433.43	5281.71
433.64	5220.27
433.85	5271.47
434.06	5451.69
434.27	5373.87
434.49	5388.21
434.70	5349.29
434.91	5341.10
435.12	5373.87
435.33	5357.49
435.54	5420.97
435.75	5416.88
435.96	5425.07
436.17	5363.63
436.38	5509.04
436.59	5564.33
436.80	5525.42
437.01	5621.67
437.22	5758.89
437.43	5679.02
437.64	5459.88
437.85	5703.59
438.06	5584.81
438.27	5539.76
438.48	5734.31
438.69	5736.36
438.90	5722.02
439.11	5599.15
439.32	5842.85
439.53	5849.00
439.74	5834.66
439.95	5984.16
440.16	5654.44
440.37	5840.81
440.57	5789.61
440.78	5918.63
440.99	5943.21
441.20	5918.63
441.41	5838.76
441.62	5951.40
441.83	5793.70
442.04	6027.17
442.25	6068.13
442.46	6090.66
442.67	6231.97
442.88	6389.66
443.09	6035.36
443.30	5998.50
443.51	6080.42
443.72	6385.57
443.93	6139.81
444.14	6383.52
444.35	6070.18
444.56	6326.18
444.77	6213.54
444.98	6475.68
445.19	6365.09
445.40	6375.33
445.61	6272.93
445.81	6387.61
446.02	6549.40
446.23	6291.36
446.44	6371.23
446.65	6625.18
446.86	6424.48
447.07	6487.96
447.28	6633.37
447.49	6627.23
447.70	6508.44
447.91	6608.80
448.12	6543.26
448.33	6741.91
448.54	6723.48
448.74	6514.59
448.95	6750.10
449.16	6731.67
449.37	6948.76
449.58	6780.82
449.79	6866.84
450.00	6678.43
450.21	6870.94
450.42	6899.61
450.63	6895.51
450.84	6866.84
451.05	6920.09
451.25	6915.99
451.46	7008.15
451.67	7057.30
451.88	7110.55
452.09	6956.95
452.30	7153.55
452.51	7085.97
452.72	7085.97
452.93	7374.74
453.13	6963.09
453.34	7038.87
453.55	7067.54
453.76	7178.13
453.97	7546.76
454.18	7255.95
454.39	7384.98
454.60	7333.78
454.81	7462.80
455.01	7477.13
455.22	7307.15
455.43	7417.74
455.64	7557.00
455.85	7896.97
456.06	7956.36
456.27	7772.04
456.48	7526.29
456.68	7710.60
456.89	7800.71
457.10	7753.61
457.31	8003.46
457.52	7694.22
457.73	7853.96
457.94	8148.87
458.14	7864.20
458.35	8372.10
458.56	8011.65
458.77	8048.52
458.98	8148.87
459.19	8232.83
459.39	8183.68
459.60	8404.86
459.81	8155.01
460.02	8421.25
460.23	8365.95
460.44	8544.13
460.65	8273.79
460.85	8478.59
461.06	8591.23
461.27	8341.38
461.48	8761.21
461.69	8656.76
461.89	8603.52
462.10	8859.51
462.31	8537.98
462.52	8601.47
462.73	8806.27
462.94	8931.19
463.14	9092.98
463.35	8972.15
463.56	9285.49
463.77	9267.06
463.98	9019.25
464.18	9037.69
464.39	9383.79
464.60	9514.86
464.81	9351.03
465.02	9351.03
465.23	9604.97
465.43	9478.00
465.64	9600.88
465.85	9404.27
466.06	9576.30
466.27	10020.71
466.47	9758.57
466.68	9899.88
466.89	9865.07
467.10	10100.58
467.30	9529.20
467.51	10049.38
467.72	10315.62
467.93	9897.83
468.14	10028.90
468.34	10413.92
468.55	10170.21
468.76	10284.90
468.97	10229.60
469.17	10682.20
469.38	10725.21
469.59	10860.38
469.80	10688.35
470.01	10706.78
470.21	10774.36
470.42	11116.37
470.63	10930.01
470.84	11048.79
471.04	11149.14
471.25	11208.53
471.46	11331.41
471.67	11448.15
471.87	11310.93
472.08	11593.55
472.29	11747.15
472.50	11306.84
472.70	11511.63
472.91	11654.99
473.12	11820.88
473.33	11894.60
473.53	11964.23
473.74	11894.60
473.95	12128.07
474.16	12273.48
474.36	12283.72
474.57	12355.40
474.78	12410.69
474.99	12390.21
475.19	12560.19
475.40	12789.56
475.61	12795.71
475.81	13135.67
476.02	13113.14
476.23	12891.96
476.44	13090.62
476.64	13403.96
476.85	13268.79
477.06	13436.72
477.27	13702.96
477.47	13430.58
477.68	13846.32
477.89	13711.15
478.09	13999.91
478.30	13770.54
478.51	13983.53
478.71	14012.20
478.92	14204.71
479.13	14401.32
479.34	14475.04
479.54	14432.04
479.75	14808.86
479.96	14802.72
480.16	14681.89
480.37	14690.08
480.58	15167.26
480.78	15073.05
480.99	15138.58
481.20	15296.28
481.41	15343.38
481.61	15464.21
481.82	15539.99
482.03	15165.21
482.23	15300.37
482.44	15798.03
482.65	16066.31
482.85	16195.34
483.06	15863.57
483.27	16058.12
483.47	16160.52
483.68	16176.91
483.89	16740.10
484.09	16336.65
484.30	16633.60
484.51	16811.78
484.71	16824.06
484.92	16486.15
485.13	16889.60
485.33	16905.98
485.54	16908.03
485.75	17020.67
485.95	17231.61
486.16	17753.84
486.37	17688.31
486.57	17475.32
486.78	17596.15
486.98	17499.89
487.19	17579.76
487.40	17790.70
487.60	17929.97
487.81	18099.95
488.02	17884.91
488.22	18177.77
488.43	18159.34
488.64	18206.44
488.84	18700.00
489.05	18382.57
489.25	18433.77
489.46	19011.29
489.67	18769.63
489.87	19009.25
490.08	19001.05
490.29	18892.51
490.49	19214.04
490.70	19580.63
490.90	19281.63
491.11	19285.72
491.32	19592.92
491.52	19732.18
491.73	19463.90
491.94	19689.17
492.14	19627.73
492.35	19955.41
492.55	20000.46
492.76	20209.36
492.97	20211.40
493.17	20305.61
493.38	20227.79
493.58	20453.06
493.79	20270.79
494.00	20240.08
494.20	20440.78
494.41	20811.46
494.61	20586.18
494.82	20750.02
495.02	20491.98
495.23	20952.77
495.44	20991.68
495.64	21309.11
495.85	21194.43
496.05	21442.23
496.26	21046.97
496.47	21731.00
496.67	21286.59
496.88	21774.00
497.08	21546.68
497.29	21810.87
497.49	21714.61
497.70	21806.77
497.91	21749.43
498.11	21839.54
498.32	22128.30
498.52	21980.85
498.73	22388.39
498.93	22257.32
499.14	22353.58
499.34	22494.89
499.55	22548.14
499.76	22230.70
499.96	22531.75
500.17	22503.08
500.37	22580.90
500.58	22546.09
500.78	22828.71
500.99	22777.51
501.19	23191.20
501.40	22906.53
501.60	22886.05
501.81	23133.86
502.02	23168.67
502.22	23039.65
502.43	23602.84
502.63	23887.51
502.84	23531.16
503.04	23391.90
503.25	23764.63
503.45	23762.58
503.66	23987.86
503.86	23920.28
504.07	23944.85
504.27	23938.71
504.48	24041.11
504.68	24352.40
504.89	24211.09
505.09	24422.03
505.30	24538.76
505.50	24534.67
505.71	24446.60
505.91	24538.76
506.12	24542.86
506.32	24729.22
506.53	24505.99
506.73	24718.98
506.94	24798.85
507.14	24657.54
507.35	24880.77
507.55	24997.51
507.76	24749.70
507.96	25087.62
508.17	25067.14
508.37	25132.67
508.58	25339.52
508.78	25319.04
508.99	25714.30
509.19	25165.44
509.40	25497.21
509.60	25509.50
509.81	25538.17
510.01	25691.77
510.22	25548.41
510.42	25396.86
510.63	25632.38
510.83	25894.52
511.04	25622.14
511.24	26441.32
511.44	26132.08
511.65	26183.28
511.85	26136.18
512.06	26082.93
512.26	26377.84
512.47	26408.56
512.67	26381.93
512.88	26553.96
513.08	26459.76
513.29	26510.96
513.49	26457.71
513.69	26820.20
513.90	27033.19
514.10	26807.91
514.31	26898.02
514.51	27086.43
514.72	26642.03
514.92	27262.56
515.13	27264.61
515.33	27221.60
515.53	27199.07
515.74	27274.85
515.94	27397.73
516.15	27342.43
516.35	27143.78
516.56	27498.08
516.76	27610.71
516.96	27739.74
517.17	27723.35
517.37	27698.78
517.58	27977.30
517.78	27911.77
517.99	27780.70
518.19	28479.05
518.39	28118.61
518.60	28245.58
518.80	28163.67
519.01	28386.89
519.21	28452.43
519.41	28354.13
519.62	28714.57
519.82	29036.10
520.03	28847.69
520.23	28759.63
520.43	28778.06
520.64	29220.42
520.84	29210.18
521.05	28956.23
521.25	29394.50
521.45	29312.58
521.66	29679.16
521.86	29509.18
522.07	29677.12
522.27	29904.44
522.47	29541.95
522.68	29959.73
522.88	29748.79
523.08	30189.11
523.29	30150.20
523.49	30225.97
523.70	30303.79
523.90	30209.59
524.10	30430.77
524.31	30514.73
524.51	30264.88
524.71	30817.83
524.92	30305.84
525.12	31133.22
525.33	30989.86
525.53	30991.91
525.73	31028.77
525.94	31452.70
526.14	31028.77
526.34	31102.50
526.55	30977.58
526.75	31303.20
526.95	31800.86
527.16	31583.77
527.36	31770.14
527.56	32003.61
527.77	32013.85
527.97	31688.22
528.17	31743.52
528.38	32368.15
528.58	32331.28
528.78	32079.38
528.99	32144.92
529.19	32468.50
529.39	32607.76
529.60	32589.33
529.80	32445.97
530.00	32384.53
530.21	32810.51
530.41	32970.25
530.61	32968.20
530.82	33109.51
531.02	33060.36
531.22	33312.26
531.43	33527.30
531.63	33437.19
531.83	33322.50
532.04	33846.78
532.24	33517.06
532.44	34321.91
532.64	34012.66
532.85	34379.25
533.05	33932.79
533.25	34444.79
533.46	34514.42
533.66	34784.75
533.86	34334.20
534.07	35155.43
534.27	34631.15
534.47	34885.10
534.67	35171.82
534.88	35286.50
535.08	34893.29
535.28	34962.92
535.49	35337.70
535.69	35722.72
535.89	35390.95
536.09	35470.82
536.30	35788.25
536.50	35960.28
536.70	36363.73
536.91	35763.68
537.11	35964.38
537.31	36179.42
537.51	36222.42
537.72	36472.28
537.92	36566.48
538.12	36691.41
538.32	36685.26
538.53	36449.75
538.73	36130.26
538.93	36394.45
539.13	36597.20
539.34	36609.49
539.54	36871.63
539.74	37164.49
539.94	37101.00
540.15	36984.27
540.35	37266.89
540.55	37418.44
540.75	37254.60
540.96	37424.58
541.16	37105.10
541.36	37381.57
541.56	37549.51
541.77	37748.16
541.97	37612.99
542.17	37598.66
542.37	37737.92
542.58	37916.09
542.78	37746.11
542.98	37705.15
543.18	38286.78
543.38	38092.22
543.59	38243.77
543.79	37813.70
543.99	38256.06
544.19	38432.18
544.40	38344.12
544.60	38518.20
544.80	38192.57
545.00	38528.44
545.20	38823.34
545.41	38512.05
545.61	38436.28
545.81	39378.34
546.01	38847.92
546.21	38589.88
546.42	38376.89
546.62	39022.00
546.82	39019.95
547.02	39312.81
547.22	39603.62
547.43	39052.72
547.63	39065.00
547.83	38970.80
548.03	39042.48
548.23	39570.85
548.44	39265.70
548.64	39247.27
548.84	39284.14
549.04	39697.83
549.24	39781.79
549.45	39542.18
549.65	39337.38
549.85	39697.83
550.05	39570.85
550.25	39259.56
550.45	39966.11
550.66	39949.73
550.86	39460.26
551.06	39957.92
551.26	40134.04
551.46	39945.63
551.66	40267.16
551.87	40119.71
552.07	40396.18
552.27	40304.02
552.47	40183.19
552.67	40514.97
552.87	40465.81
553.07	40170.91
553.28	40514.97
553.48	40910.22
553.68	40310.17
553.88	40924.56
554.08	40459.67
554.28	40637.84
554.48	40572.31
554.69	40529.30
554.89	41061.77
555.09	40891.79
555.29	40721.81
555.49	40953.23
555.69	41069.97
555.89	40908.18
556.10	41008.53
556.30	40795.54
556.50	41104.78
556.70	40949.14
556.90	41063.82
557.10	41219.47
557.30	40961.42
557.50	41362.82
557.70	41514.37
557.91	41655.68
558.11	41614.72
558.31	41475.46
558.51	41399.69
558.71	41588.10
558.91	41743.75
559.11	41573.77
559.31	41788.80
559.51	41207.18
559.72	41751.94
559.92	41688.45
560.12	41764.23
560.32	41960.83
560.52	41315.72
560.72	41852.29
560.92	41934.21
561.12	42042.75
561.32	42605.94
561.52	41762.18
561.72	42255.74
561.93	41807.23
562.13	41766.27
562.33	41504.13
562.53	42274.17
562.73	42194.30
562.93	41774.47
563.13	42333.56
563.33	42182.01
563.53	42806.64
563.73	42225.02
563.93	42280.31
564.13	42833.27
564.33	42583.41
564.53	42347.90
564.74	42775.92
564.94	42188.16
565.14	42603.89
565.34	42091.90
565.54	42753.40
565.74	42573.17
565.94	43382.12
566.14	42599.80
566.34	42704.24
566.54	43029.87
566.74	42956.14
566.94	42931.57
567.14	42995.06
567.34	42945.90
567.54	42894.71
567.74	43019.63
567.94	42913.14
568.14	43519.34
568.34	43593.06
568.54	43263.34
568.74	43578.73
568.94	43523.43
569.14	43865.44
569.34	43730.28
569.54	43717.99
569.75	43107.69
569.95	43916.64
570.15	44143.97
570.35	43902.31
570.55	43636.07
570.75	43697.51
570.95	44057.95
571.15	44053.86
571.35	43965.79
571.55	44174.69
571.75	44244.32
571.95	44184.93
572.15	43885.92
572.35	44346.72
572.55	44191.07
572.75	44205.41
572.95	44402.01
573.15	44338.52
573.35	44500.31
573.55	44531.03
573.75	44426.59
573.95	44623.19
574.15	44352.86
574.35	44803.41
574.55	45049.17
574.75	44858.71
574.95	44774.74
575.15	44404.06
575.34	45200.72
575.54	45415.76
575.74	45065.55
575.94	45286.73
576.14	45098.32
576.34	45595.98
576.54	45526.35
576.74	45739.33
576.94	45335.88
577.14	45694.28
577.34	46327.10
577.54	45557.06
577.74	45925.70
577.94	45704.52
578.14	45741.38
578.34	46128.45
578.54	45638.98
578.74	45645.13
578.94	46382.40
579.14	46103.87
579.34	46173.50
579.54	46150.98
579.74	46564.67
579.94	46587.19
580.13	46478.65
580.33	46402.88
580.53	46683.45
580.73	47027.51
580.93	47285.55
581.13	46855.48
581.33	46994.74
581.53	46699.83
581.73	47144.24
581.93	47473.96
582.13	47248.69
582.33	47426.86
582.53	47406.38
582.73	47207.73
582.92	47570.22
583.12	47701.29
583.32	47717.67
583.52	47084.85
583.72	48090.40
583.92	47654.18
584.12	47848.74
584.32	48368.93
584.52	47539.50
584.72	48063.78
584.92	48018.72
585.11	48278.82
585.31	48026.92
585.51	48121.12
585.71	48071.97
585.91	48731.42
586.11	47957.28
586.31	48631.07
586.51	48588.06
586.71	48461.08
586.91	48551.20
587.10	48897.30
587.30	48819.48
587.50	48819.48
587.70	49018.13
587.90	48721.18
588.10	49167.63
588.30	49290.51
588.50	49235.22
588.69	49509.64
588.89	48903.45
589.09	49673.48
589.29	49648.91
589.49	49614.09
589.69	49634.57
589.89	49743.11
590.08	49696.01
590.28	49259.79
590.48	49423.63
590.68	49669.39
590.88	49538.32
591.08	49767.69
591.28	49452.30
591.47	50248.96
591.67	49472.78
591.87	50076.93
592.07	50359.55
592.27	50083.08
592.47	50013.44
592.67	50306.30
592.86	49732.87
593.06	50103.56
593.26	50459.90
593.46	50291.97
593.66	50371.84
593.86	50838.78
594.05	50883.83
594.25	50787.58
594.45	50187.52
594.65	50656.51
594.85	50044.16
595.05	50535.68
595.24	50967.80
595.44	50638.08
595.64	50586.88
595.84	50347.26
596.04	50707.71
596.23	51135.73
596.43	51229.94
596.63	50879.74
596.83	51004.66
597.03	51336.43
597.22	51481.84
597.42	51420.40
597.62	51361.01
597.82	51336.43
598.02	51512.56
598.21	51733.74
598.41	51221.75
598.61	51688.68
598.81	51864.81
599.01	51782.89
599.20	51959.02
599.40	51913.96
599.60	52122.85
599.80	52020.45
600.00	51647.72
600.19	51979.49
600.39	51868.90
600.59	52192.48
600.79	52212.96
600.98	52227.30
601.18	52372.70
601.38	52163.81
601.58	52393.18
601.78	52509.92
601.97	52710.62
602.17	52624.60
602.37	52479.20
602.57	52733.15
602.76	52692.19
602.96	52374.75
603.16	53116.12
603.36	52827.35
603.55	52755.68
603.75	52792.54
603.95	53146.84
604.15	53001.43
604.34	53134.55
604.54	52491.49
604.74	52933.85
604.94	52690.14
605.13	53105.88
605.33	53109.97
605.53	53216.47
605.73	53038.29
605.92	53122.26
606.12	53357.78
606.32	53318.87
606.52	53302.48
606.71	53198.04
606.91	53677.26
607.11	52853.98
607.30	53568.72
607.50	53331.15
607.70	53408.98
607.90	53480.66
608.09	53195.99
608.29	53458.13
608.49	53593.29
608.68	53411.02
608.88	53818.57
609.08	53802.19
609.28	53853.39
609.47	53239.00
609.67	53902.54
609.87	53785.80
610.06	53724.36
610.26	54351.04
610.46	53845.19
610.66	53697.74
610.85	53900.49
611.05	53742.80
611.25	54351.04
611.44	53777.61
611.64	53972.17
611.84	53916.87
612.03	53820.62
612.23	54054.09
612.43	53687.50
612.62	53730.51
612.82	54240.45
613.02	54195.40
613.21	54119.62
613.41	53529.81
613.61	54394.05
613.80	53750.99
614.00	54027.46
614.20	54166.73
614.39	53884.11
614.59	53474.51
614.79	54013.13
614.98	53818.57
615.18	54107.33
615.38	53908.68
615.57	53861.58
615.77	54176.97
615.97	54244.55
616.16	53597.39
616.36	53769.42
616.56	53884.11
616.75	54037.70
616.95	53925.07
617.15	53877.96
617.34	53753.04
617.54	53652.69
617.74	54289.60
617.93	54052.04
618.13	53689.55
618.32	53804.24
618.52	53417.17
618.72	53652.69
618.91	54017.22
619.11	53556.43
619.31	54113.48
619.50	53515.47
619.70	53406.93
619.90	53648.59
620.09	54154.44
620.29	53896.39
620.48	53634.25
620.68	54082.76
620.88	53013.72
621.07	53628.11
621.27	53570.77
621.46	53490.90
621.66	53677.26
621.86	53548.24
622.05	52942.04
622.25	54113.48
622.44	53662.93
622.64	53361.87
622.84	53425.36
623.03	53593.29
623.23	53548.24
623.42	53494.99
623.62	53945.54
623.82	53824.71
624.01	53654.73
624.21	54084.81
624.40	53439.70
624.60	53775.56
624.80	53138.65
624.99	53368.02
625.19	53286.10
625.38	53349.59
625.58	53212.37
625.77	53634.25
625.97	53245.14
626.17	53282.00
626.36	53486.80
626.56	53644.49
626.75	52651.23
626.95	53746.89
627.14	53478.61
627.34	53843.15
627.54	53294.29
627.73	53550.29
627.93	53214.42
628.12	53232.85
628.32	53552.33
628.51	53351.63
628.71	52958.42
628.90	53365.97
629.10	52958.42
629.30	52999.38
629.49	53271.76
629.69	53105.88
629.88	53130.45
630.08	53497.04
630.27	53322.96
630.47	53183.70
630.66	53474.51
630.86	53472.46
631.05	52997.34
631.25	53769.42
631.44	53564.62
631.64	53304.53
631.84	53572.81
632.03	53638.35
632.23	53214.42
632.42	53781.71
632.62	53613.77
632.81	52942.04
633.01	53167.32
633.20	53710.03
633.40	53564.62
633.59	53347.54
633.79	53408.98
633.98	53271.76
634.18	53687.50
634.37	53654.73
634.57	53402.83
634.76	53880.01
634.96	53681.36
635.15	53581.01
635.35	53187.80
635.54	53404.88
635.74	53888.20
635.93	53707.98
636.13	53851.34
636.32	53968.07
636.52	53374.16
636.71	53507.28
636.91	53437.65
637.10	53660.88
637.30	53660.88
637.49	53781.71
637.69	53478.61
637.88	53982.41
638.08	53701.84
638.27	53996.74
638.46	53705.93
638.66	53425.36
638.85	53667.02
639.05	53916.87
639.24	53935.30
639.44	53935.30
639.63	54060.23
639.83	53927.11
640.02	53748.94
640.22	54041.80
640.41	53740.75
640.61	53732.56
640.80	53880.01
640.99	53841.10
641.19	54637.76
641.38	53980.36
641.58	53800.14
641.77	53595.34
641.97	53632.21
642.16	54269.12
642.36	53902.54
642.55	54441.15
642.74	53853.39
642.94	54617.28
643.13	54084.81
643.33	54301.89
643.52	54353.09
643.72	54629.57
643.91	54482.11
644.10	54312.13
644.30	54486.21
644.49	54342.85
644.69	54510.78
644.88	54924.47
645.08	54203.59
645.27	54297.80
645.46	54240.45
645.66	54582.46
645.85	54578.37
646.05	54899.90
646.24	54463.68
646.43	54938.81
646.63	55198.90
646.82	54990.01
647.02	54951.10
647.21	55047.35
647.40	54604.99
647.60	55000.25
647.79	55340.21
647.99	55207.09
648.18	54768.83
648.37	55561.39
648.57	55426.23
648.76	55155.89
648.96	54994.10
649.15	55465.14
649.34	55080.12
649.54	55291.06
649.73	55280.82
649.92	55651.50
650.12	55366.84
650.31	55172.28
650.51	55289.01
650.70	55319.73
650.89	55188.66
651.09	56108.20
651.28	55235.77
651.47	56065.19
651.67	55346.36
651.86	55874.73
652.06	54903.99
652.25	55866.54
652.44	55321.78
652.64	55098.55
652.83	55555.25
653.02	55415.99
653.22	55301.30
653.41	55532.72
653.60	55635.12
653.80	55735.47
653.99	55291.06
654.18	55628.98
654.38	55751.85
654.57	55956.65
654.76	55893.16
654.96	55616.69
655.15	55784.62
655.34	55942.31
655.54	55174.33
655.73	55803.05
655.92	55764.14
656.12	55784.62
656.31	56009.90
656.50	55516.34
656.70	56120.49
656.89	56194.21
657.08	56437.92
657.28	55948.46
657.47	56218.79
657.66	55768.24
657.86	55956.65
658.05	56038.57
658.24	56636.58
658.43	55555.25
658.63	55958.70
658.82	56325.28
659.01	56482.98
659.21	56501.41
659.40	56435.87
659.59	55848.11
659.79	56134.82
659.98	56523.94
660.17	56548.51
660.36	56681.63
660.56	56861.85
660.75	56532.13
660.94	56401.06
661.14	56530.08
661.33	56476.83
661.52	56482.98
661.71	56671.39
661.91	56263.85
662.10	56474.79
662.29	57050.27
662.49	56214.69
662.68	56595.62
662.87	56626.34
663.06	56851.61
663.26	56718.49
663.45	57162.90
663.64	56622.24
663.83	56532.13
664.03	57312.41
664.22	57009.31
664.41	57013.40
664.60	56736.93
664.80	56872.09
664.99	56720.54
665.18	56894.62
665.37	57121.94
665.57	57255.06
665.76	56560.80
665.95	56886.43
666.14	57068.70
666.34	56853.66
666.53	56677.54
666.72	56704.16
666.91	56730.78
667.11	56614.05
667.30	56865.95
667.49	57017.50
667.68	56521.89
667.87	56954.01
668.07	56816.80
668.26	56741.02
668.45	56988.83
668.64	56480.93
668.84	57695.38
669.03	57531.54
669.22	57164.95
669.41	57068.70
669.60	57078.94
669.80	57154.71
669.99	57271.45
670.18	56560.80
670.37	56931.48
670.57	57693.33
670.76	56964.25
670.95	57099.42
671.14	56951.96
671.33	56761.50
671.53	57470.10
671.72	57398.42
671.91	56747.17
672.10	56988.83
672.29	57048.22
672.48	56726.69
672.68	57181.34
672.87	57117.85
673.06	57105.56
673.25	56736.93
673.44	56538.27
673.64	57214.10
673.83	56831.13
674.02	57136.28
674.21	56827.04
674.40	56767.65
674.59	56784.03
674.79	56513.70
674.98	56812.70
675.17	56964.25
675.36	56632.48
675.55	56620.19
675.74	56679.58
675.94	56661.15
676.13	56779.93
676.32	57226.39
676.51	57455.76
676.70	57078.94
676.89	56681.63
677.08	56994.97
677.28	56857.76
677.47	57031.83
677.66	57285.78
677.85	56861.85
678.04	57126.04
678.23	57441.43
678.42	57320.60
678.62	56808.61
678.81	57613.46
679.00	56519.84
679.19	57431.19
679.38	56583.33
679.57	57414.80
679.76	57005.21
679.96	57164.95
680.15	56837.28
680.34	57164.95
680.53	56673.44
680.72	57015.45
680.91	56939.68
681.10	56525.99
681.29	56718.49
681.48	56941.72
681.68	56595.62
681.87	56853.66
682.06	56468.64
682.25	56439.97
682.44	56536.23
682.63	56583.33
682.82	56573.09
683.01	56431.78
683.20	56112.30
683.39	56423.59
683.59	56542.37
683.78	56138.92
683.97	56245.41
684.16	56073.38
684.35	56251.56
684.54	56478.88
684.73	56304.80
684.92	56155.30
685.11	56130.73
685.30	56136.87
685.49	56571.04
685.69	56151.21
685.88	56468.64
686.07	55633.07
686.26	56341.67
686.45	56306.85
686.64	56083.62
686.83	55614.64
687.02	55811.24
687.21	56356.00
687.40	56149.16
687.59	55999.66
687.78	55782.57
687.97	55876.78
688.16	56059.05
688.35	55706.80
688.54	55989.42
688.74	55786.67
688.93	55358.64
689.12	56267.94
689.31	55854.25
689.50	56026.28
689.69	55553.20
689.88	55317.68
690.07	55606.45
690.26	55612.59
690.45	56032.42
690.64	55465.14
690.83	55157.94
691.02	55039.16
691.21	55506.10
691.40	55229.62
691.59	55391.41
691.78	55440.56
691.97	55792.81
692.16	55178.42
692.35	55768.24
692.54	55487.67
692.73	55530.67
692.92	55112.89
693.11	55583.92
693.30	54940.86
693.49	55016.63
693.68	55030.97
693.87	55147.70
694.06	54961.34
694.25	55114.94
694.44	54412.48
694.63	55049.40
694.82	54926.52
695.01	54697.15
695.20	54496.45
695.39	54451.39
695.58	54691.01
695.77	54424.77
695.96	54627.52
696.15	54576.32
696.34	54453.44
696.53	54949.05
696.72	54379.71
696.91	54109.38
697.10	54777.02
697.29	54414.53
697.48	54678.72
697.67	54664.38
697.86	53996.74
698.05	54435.01
698.24	54666.43
698.43	53365.97
698.62	54054.09
698.81	53679.31
699.00	54172.87
699.19	53806.28
699.38	54371.52
699.57	53710.03
699.76	54115.53
699.95	53564.62
700.14	53396.69
700.32	54056.14
700.51	53783.76
700.70	53963.98
700.89	53730.51
701.08	53863.63
701.27	54162.63
701.46	53800.14
701.65	53380.31
701.84	53570.77
702.03	53589.20
702.22	53085.40
702.41	53460.18
702.60	53179.60
702.79	53331.15
702.98	52808.92
703.17	53372.11
703.35	53046.49
703.54	52806.87
703.73	53206.23
703.92	53064.92
704.11	53105.88
704.30	52708.57
704.49	52890.84
704.68	52493.54
704.87	52899.03
705.06	52393.18
705.25	52800.73
705.43	52759.77
705.62	52712.67
705.81	52583.65
706.00	52479.20
706.19	52221.16
706.38	52319.46
706.57	52559.07
706.76	52157.67
706.95	52200.68
707.14	52221.16
707.32	52237.54
707.51	51729.64
707.70	52378.85
707.89	51985.64
708.08	52335.84
708.27	52253.92
708.46	52321.51
708.65	51926.25
708.84	52184.29
709.02	52356.32
709.21	51889.38
709.40	51643.63
709.59	51836.14
709.78	51420.40
709.97	51954.92
710.16	51410.16
710.34	51557.61
710.53	51852.52
710.72	51180.79
710.91	51617.00
711.10	51373.30
711.29	51700.97
711.48	51406.06
711.66	51029.24
711.85	51082.48
712.04	51215.60
712.23	51395.82
712.42	51180.79
712.61	51188.98
712.80	50648.32
712.98	51178.74
713.17	50746.62
713.36	50787.58
713.55	50869.50
713.74	50881.78
713.93	50713.85
714.11	51051.76
714.30	50408.70
714.49	50521.34
714.68	51305.71
714.87	50779.39
715.06	50724.09
715.24	50779.39
715.43	50251.01
715.62	50269.44
715.81	50588.92
716.00	50597.12
716.18	50291.97
716.37	50058.50
716.56	50201.86
716.75	50574.59
716.94	50740.47
717.12	49941.77
717.31	50519.29
717.50	50179.33
717.69	50173.19
717.88	50267.39
718.06	50214.15
718.25	50261.25
718.44	49448.21
718.63	49861.90
718.82	49540.36
719.00	49837.32
719.19	49200.40
719.38	49534.22
719.57	49024.28
719.76	48563.48
719.94	48956.69
720.13	48708.89
720.32	49079.57
720.51	49366.29
720.69	49155.35
720.88	48960.79
721.07	48790.81
721.26	48305.44
721.44	48858.39
721.63	48604.44
721.82	49065.24
722.01	48758.04
722.20	48538.91
722.38	48325.92
722.57	48178.46
722.76	48403.74
722.95	48649.50
723.13	48110.88
723.32	48508.19
723.51	48200.99
723.70	48045.35
723.88	48246.05
724.07	47662.38
724.26	48010.53
724.44	47490.35
724.63	47836.45
724.82	47822.12
725.01	48262.43
725.19	48049.44
725.38	47744.30
725.57	47809.83
725.76	48311.58
725.94	47174.96
726.13	47461.68
726.32	47781.16
726.51	47611.18
726.69	47979.81
726.88	47396.14
727.07	47492.40
727.25	46708.02
727.44	47328.56
727.63	47398.19
727.82	47371.57
728.00	47363.37
728.19	47328.56
728.38	47316.27
728.56	46806.33
728.75	47523.11
728.94	47177.01
729.12	47398.19
729.31	47443.24
729.50	47385.90
729.69	47496.49
729.87	47093.04
730.06	46949.68
730.25	47404.33
730.43	47131.95
730.62	46859.57
730.81	46824.76
730.99	47039.79
731.18	47211.82
731.37	46957.88
731.55	47125.81
731.74	47250.74
731.93	47320.37
732.11	47314.22
732.30	47310.13
732.49	46730.55
732.67	46976.31
732.86	46894.39
733.05	47344.94
733.23	46748.98
733.42	47131.95
733.61	46449.98
733.79	46814.52
733.98	47371.57
734.17	46964.02
734.35	46978.36
734.54	47013.17
734.73	47060.27
734.91	46761.27
735.10	46775.61
735.29	47246.64
735.47	46243.13
735.66	46839.09
735.84	46761.27
736.03	46591.29
736.22	47015.22
736.40	46570.81
736.59	47160.62
736.78	46871.86
736.96	46384.44
737.15	46492.99
737.33	46542.14
737.52	46484.79
737.71	46615.86
737.89	46615.86
738.08	46406.97
738.27	46355.77
738.45	46937.40
738.64	46513.47
738.82	46382.40
739.01	46222.65
739.20	46484.79
739.38	46683.45
739.57	46519.61
739.75	46366.01
739.94	46323.01
740.13	46013.76
740.31	45905.22
740.50	46216.51
740.68	46355.77
740.87	46306.62
741.06	46439.74
741.24	46581.05
741.43	46492.99
741.61	46452.03
741.80	45706.57
741.99	45663.56
742.17	45925.70
742.36	45985.09
742.54	45481.29
742.73	45978.95
742.91	46286.14
743.10	45876.55
743.29	46214.46
743.47	46374.20
743.66	46028.10
743.84	45993.28
744.03	46306.62
744.21	45690.18
744.40	45995.33
744.59	45897.03
744.77	45456.71
744.96	45602.12
745.14	46306.62
745.33	45958.47
745.51	45585.74
745.70	46136.64
745.88	45874.50
746.07	45954.37
746.26	45473.10
746.44	45587.78
746.63	45768.01
746.81	45796.68
747.00	45704.52
747.18	45716.81
747.37	45647.18
747.55	45573.45
747.74	46015.81
747.92	45172.05
748.11	45784.39
748.29	45520.20
748.48	45634.89
748.66	45249.87
748.85	45311.31
749.03	45440.33
749.22	45421.90
749.41	45053.26
749.59	45610.31
749.78	45145.42
749.96	44733.78
750.15	44795.22
750.33	45192.53
750.52	45118.80
750.70	45079.89
750.89	44967.25
751.07	45061.46
751.26	45157.71
751.44	45053.26
751.63	44662.10
751.81	44971.35
752.00	45049.17
752.18	45198.67
752.37	45086.03
752.55	44428.63
752.74	44543.32
752.92	44825.94
753.10	44594.52
753.29	44950.87
753.47	44606.81
753.66	44496.22
753.84	44658.01
754.03	44313.95
754.21	44006.75
754.40	44340.57
754.58	44588.38
754.77	44524.89
754.95	44406.11
755.14	44623.19
755.32	44361.05
755.51	44361.05
755.69	44477.79
755.88	44176.73
756.06	44221.79
756.24	44303.71
756.43	44299.61
756.61	44578.14
756.80	44090.72
756.98	43724.13
757.17	43914.59
757.35	44186.97
757.54	44205.41
757.72	44090.72
757.90	44277.08
758.09	43822.44
758.27	43834.72
758.46	43810.15
758.64	44010.85
758.83	44049.76
759.01	43930.98
759.19	44199.26
759.38	43840.87
759.56	43973.98
759.75	43666.79
759.93	43785.57
760.12	43537.77
760.30	43863.39
760.48	44043.62
760.67	44021.09
760.85	44000.61
761.04	43619.69
761.22	43818.34
761.40	43324.78
761.59	43357.55
761.77	43269.48
761.96	43709.80
762.14	43320.68
762.32	43367.79
762.51	43115.89
762.69	42952.05
762.88	43158.89
763.06	43142.51
763.24	43337.07
763.43	43570.54
763.61	43453.80
763.80	43210.09
763.98	42921.33
764.16	42970.48
764.35	42743.16
764.53	42722.68
764.72	42841.46
764.90	43007.34
765.08	42990.96
765.27	42947.95
765.45	42898.80
765.63	42122.62
765.82	43046.26
766.00	42765.68
766.18	42777.97
766.37	43160.94
766.55	42552.69
766.74	42827.12
766.92	42425.72
767.10	42194.30
767.29	42409.34
767.47	42091.90
767.65	42644.85
767.84	42202.49
768.02	42177.92
768.20	41821.57
768.39	42354.04
768.57	42106.24
768.75	42009.98
768.94	42319.23
769.12	41997.70
769.30	41706.88
769.49	42229.12
769.67	42042.75
769.85	41887.10
770.04	42096.00
770.22	42005.89
770.40	41545.09
770.59	41399.69
770.77	41919.87
770.95	41813.38
771.14	41532.81
771.32	41274.76
771.50	41403.78
771.69	41121.16
771.87	41725.32
772.05	41553.29
772.24	41131.40
772.42	41186.70
772.60	41620.87
772.78	41497.99
772.97	41039.25
773.15	41094.54
773.33	41160.08
773.52	40988.05
773.70	41393.54
773.88	41543.05
774.07	41041.29
774.25	41555.33
774.43	41223.56
774.61	41454.98
774.80	41268.62
774.98	41383.30
775.16	41401.74
775.34	41307.53
775.53	41262.47
775.71	41414.02
775.89	41250.19
776.08	41332.11
776.26	40975.76
776.44	41416.07
776.62	41241.99
776.81	41158.03
776.99	41403.78
777.17	41465.22
777.35	41526.66
777.54	41893.25
777.72	41151.88
777.90	41153.93
778.08	41887.10
778.27	41534.85
778.45	41786.75
778.63	42007.94
778.81	41543.05
779.00	42126.72
779.18	42005.89
779.36	42321.27
779.54	41737.60
779.73	41706.88
779.91	41973.12
780.09	41852.29
780.27	42098.05
780.46	41901.44
780.64	42141.05
780.82	41801.09
781.00	41817.47
781.19	42161.53
781.37	42345.85
781.55	42349.95
781.73	42335.61
781.91	42057.09
782.10	42272.12
782.28	42061.18
782.46	42419.58
782.64	42306.94
782.82	42173.82
783.01	42460.54
783.19	42569.08
783.37	42440.06
783.55	42489.21
783.74	42917.23
783.92	42202.49
784.10	42423.67
784.28	42253.69
784.46	42245.50
784.64	42153.34
784.83	42550.65
785.01	42546.55
785.19	42325.37
785.37	42259.84
785.55	42257.79
785.74	42032.51
785.92	41835.91
786.10	42587.51
786.28	42079.61
786.46	42268.03
786.64	41874.82
786.83	41706.88
787.01	41913.73
787.19	42159.48
787.37	42235.26
787.55	41977.22
787.74	41563.53
787.92	42028.41
788.10	41440.65
788.28	41567.62
788.46	42255.74
788.64	41588.10
788.82	41655.68
789.01	41485.70
789.19	41631.11
789.37	41672.07
789.55	41379.21
789.73	41074.06
789.91	41160.08
790.09	41162.12
790.28	40922.51
790.46	40717.71
790.64	41495.94
790.82	40957.33
791.00	40940.94
791.18	40527.25
791.36	40928.66
791.55	40793.49
791.73	40869.26
791.91	40527.25
792.09	40508.82
792.27	40404.38
792.45	40310.17
792.63	40557.97
792.81	40058.27
793.00	39878.05
793.18	39912.86
793.36	39943.58
793.54	40244.63
793.72	39695.78
793.90	39718.31
794.08	39771.55
794.26	39353.77
794.44	39294.38
794.62	39144.87
794.81	39402.92
794.99	39282.09
795.17	38974.89
795.35	39298.47
795.53	39564.71
795.71	39443.88
795.89	38749.62
796.07	39316.90
796.25	38692.27
796.43	38995.37
796.61	38477.24
796.80	38372.79
796.98	38634.93
797.16	38421.94
797.34	38585.78
797.52	37852.61
797.70	38297.02
797.88	37725.63
798.06	37948.86
798.24	38057.40
798.42	38008.25
798.60	37891.52
798.78	37723.58
798.96	37443.01
799.14	37230.02
799.32	37586.37
799.51	36902.35
799.69	37492.16
799.87	37295.56
800.05	36986.32
800.23	37101.00
800.41	36746.70
800.59	36875.73
800.77	36568.53
800.95	36201.94
801.13	36806.09
801.31	36220.38
801.49	36560.34
801.67	36216.28
801.85	36376.02
802.03	36353.49
802.21	36117.98
802.39	36021.72
802.57	35812.83
802.75	35636.70
802.93	35706.34
803.11	35313.13
803.29	35632.61
803.47	35382.76
803.65	35202.53
803.83	35532.26
804.01	35472.87
804.19	35266.02
804.37	34907.63
804.55	34657.78
804.73	35003.88
804.91	34807.28
805.09	34856.43
805.27	34680.30
805.45	34956.78
805.63	35089.90
805.81	34684.40
805.99	34485.75
806.17	34403.83
806.35	34547.18
806.53	34256.37
806.71	34250.23
806.89	34344.44
807.07	33912.31
807.25	34395.64
807.43	33838.59
807.61	34176.50
807.79	33879.55
807.97	33447.43
808.15	33445.38
808.33	33474.05
808.51	33482.24
808.69	33359.36
808.87	33265.16
809.05	32964.10
809.23	33070.60
809.41	32353.81
809.59	32984.58
809.77	33263.11
809.95	32527.89
810.13	33123.85
810.31	32792.08
810.49	32759.31
810.67	32685.58
810.84	32622.09
811.02	32697.87
811.20	32220.69
811.38	32409.11
811.56	31936.02
811.74	31962.65
811.92	31884.83
812.10	32112.15
812.28	32151.06
812.46	31950.36
812.64	32341.52
812.82	31766.04
813.00	31936.02
813.18	31737.37
813.36	31295.01
813.53	31303.20
813.71	31720.99
813.89	31495.71
814.07	31329.83
814.25	31692.32
814.43	31407.65
814.61	31370.79
814.79	31180.32
814.97	31088.17
815.15	31225.38
815.33	30766.63
815.50	30641.71
815.68	31041.06
815.86	31180.32
816.04	30602.80
816.22	30338.61
816.40	30332.47
816.58	30307.89
816.76	30328.37
816.94	30586.41
817.11	30563.89
817.29	30156.34
817.47	30025.27
817.65	30078.52
817.83	30326.32
818.01	30328.37
818.19	29965.88
818.37	30064.18
818.54	29812.28
818.72	29578.81
818.90	29820.47
819.08	29734.46
819.26	30068.28
819.44	29500.99
819.62	29404.74
819.80	29488.70
819.97	29324.86
820.15	29451.84
820.33	29382.21
820.51	29439.55
820.69	28862.02
820.87	28763.72
821.05	29244.99
821.22	29136.45
821.40	29099.59
821.58	28966.47
821.76	28907.08
821.94	28479.05
822.12	29199.94
822.29	28898.89
822.47	28704.33
822.65	28980.81
822.83	28372.56
823.01	28624.46
823.19	28665.42
823.36	28251.73
823.54	28608.08
823.72	27975.25
823.90	28358.22
824.08	28083.80
824.25	28304.98
824.43	27971.16
824.61	28175.95
824.79	28137.04
824.97	27635.29
825.15	27829.85
825.32	28071.51
825.50	28026.45
825.68	27670.11
825.86	27887.19
826.04	27893.33
826.21	27684.44
826.39	27405.92
826.57	27639.39
826.75	27653.72
826.93	27369.05
827.10	27729.50
827.28	27670.11
827.46	27795.03
827.64	27260.51
827.81	27186.79
827.99	27037.28
828.17	27328.10
828.35	27313.76
828.53	26711.66
828.70	27039.33
828.88	27047.52
829.06	27432.54
829.24	26963.56
829.41	26967.65
829.59	27041.38
829.77	27004.52
829.95	26826.34
830.12	26728.04
830.30	26611.31
830.48	26744.42
830.66	26625.64
830.84	26601.07
831.01	26705.51
831.19	26539.63
831.37	26674.79
831.55	26226.29
831.72	26410.60
831.90	26521.20
832.08	26076.79
832.25	26183.28
832.43	26127.99
832.61	25982.58
832.79	26222.19
832.96	26136.18
833.14	26504.81
833.32	26156.66
833.50	25874.04
833.67	25929.33
833.85	26058.35
834.03	25814.65
834.20	26011.25
834.38	25785.97
834.56	26156.66
834.74	25767.54
834.91	25998.96
835.09	25667.19
835.27	25544.31
835.44	25505.40
835.62	25271.93
835.80	25425.53
835.98	25454.20
836.15	25243.26
836.33	25310.85
836.51	25693.82
836.68	25505.40
836.86	25269.89
837.04	25644.66
837.21	25405.05
837.39	25230.98
837.57	25347.71
837.75	25243.26
837.92	24725.13
838.10	25300.61
838.28	25028.23
838.45	25009.79
838.63	24974.98
838.81	25001.60
838.98	24751.75
839.16	24645.26
839.34	24637.06
839.51	24776.33
839.69	24737.41
839.87	24407.69
840.04	24557.19
840.22	24817.29
840.40	24823.43
840.57	24309.39
840.75	24573.58
840.93	24127.12
841.10	24549.00
841.28	24481.42
841.46	24571.53
841.63	24653.45
841.81	24194.70
841.98	24381.07
842.16	24262.29
842.34	24413.84
842.51	24041.11
842.69	24114.83
842.87	23963.28
843.04	23889.56
843.22	23905.94
843.40	23893.65
843.57	24149.65
843.75	24020.63
843.92	23987.86
844.10	23776.92
844.28	23783.06
844.45	23998.10
844.63	23905.94
844.81	23707.29
844.98	23658.14
845.16	24080.02
845.33	23729.81
845.51	23664.28
845.69	23674.52
845.86	23684.76
846.04	23297.69
846.21	23447.19
846.39	23522.97
846.57	23391.90
846.74	23105.18
846.92	23461.53
847.09	23203.49
847.27	23154.33
847.45	23391.90
847.62	23205.53
847.80	23400.09
847.97	23213.73
848.15	23174.81
848.32	22943.39
848.50	23244.45
848.68	22865.57
848.85	23295.64
849.03	22613.67
849.20	22814.37
849.38	22988.45
849.56	22832.80
849.73	22920.87
849.91	22679.21
850.08	22886.05
850.26	22693.54
850.43	22593.19
850.61	22470.31
850.78	22288.04
850.96	22664.87
851.14	22523.56
851.31	22591.14
851.49	22376.11
851.66	22501.03
851.84	22550.18
852.01	22367.91
852.19	22437.55
852.36	22462.12
852.54	22341.29
852.71	22310.57
852.89	22101.68
853.07	22339.24
853.24	22171.31
853.42	22263.47
853.59	22392.49
853.77	22318.76
853.94	22427.31
854.12	22343.34
854.29	21933.75
854.47	21972.66
854.64	21882.55
854.82	22179.50
854.99	22152.88
855.17	21911.22
855.34	21896.88
855.52	22148.78
855.69	22007.47
855.87	21995.18
856.04	21515.96
856.22	21636.79
856.39	21413.56
856.57	21479.10
856.74	21288.64
856.92	21636.79
857.09	21337.79
857.27	21462.71
857.44	21747.38
857.62	21595.83
857.79	21546.68
857.97	21391.03
858.14	21720.76
858.32	21483.19
858.49	21542.58
858.67	21321.40
858.84	21477.05
859.02	21374.65
859.19	21268.16
859.37	21079.74
859.54	20780.74
859.72	21329.59
859.89	20950.72
860.06	21176.00
860.24	20909.76
860.41	21331.64
860.59	21077.69
860.76	21278.40
860.94	20715.20
861.11	21157.57
861.29	21176.00
861.46	20954.82
861.64	20637.38
861.81	20866.75
861.98	20809.41
862.16	20563.65
862.33	20680.39
862.51	20754.12
862.68	20909.76
862.86	20543.17
863.03	20350.67
863.21	20512.46
863.38	20530.89
863.55	20424.39
863.73	20723.40
863.90	20502.22
864.08	20610.76
864.25	20440.78
864.43	20539.08
864.60	20350.67
864.77	20379.34
864.95	20174.54
865.12	20371.15
865.30	20287.18
865.47	20025.04
865.64	20287.18
865.82	20080.33
865.99	20346.57
866.17	20029.13
866.34	20205.26
866.51	19867.34
866.69	20141.77
866.86	19885.78
867.04	19996.37
867.21	20082.38
867.38	19891.92
867.56	19904.21
867.73	19853.01
867.91	19547.86
868.08	19728.08
868.25	19597.01
868.43	19635.92
868.60	19640.02
868.78	19394.26
868.95	19898.06
869.12	19676.88
869.30	19445.46
869.47	19369.69
869.64	19199.71
869.82	19437.27
869.99	19261.15
870.16	19441.37
870.34	19338.97
870.51	19560.15
870.69	19134.17
870.86	19287.77
871.03	19453.66
871.21	19168.99
871.38	19457.75
871.55	18869.98
871.73	19056.35
871.90	19087.07
872.07	18878.18
872.25	19146.46
872.42	18820.83
872.59	19009.25
872.77	18976.48
872.94	18992.86
873.11	18759.39
873.29	18929.38
873.46	18814.69
873.63	18726.63
873.81	18956.00
873.98	18509.54
874.15	18728.67
874.33	18312.94
874.50	18382.57
874.67	18347.75
874.85	18372.33
875.02	17979.12
875.19	18188.01
875.37	18446.05
875.54	18095.85
875.71	18290.41
875.88	18169.58
876.06	18382.57
876.23	17981.17
876.40	17868.53
876.58	17952.49
876.75	18071.28
876.92	17909.49
877.10	18151.15
877.27	17956.59
877.44	17827.57
877.61	17839.86
877.79	17882.86
877.96	17952.49
878.13	17835.76
878.31	17485.56
878.48	17440.50
878.65	17796.85
878.82	17524.47
879.00	17499.89
879.17	17528.56
879.34	17696.50
879.51	17338.10
879.69	17237.75
879.86	17344.25
880.03	17342.20
880.21	17288.95
880.38	17002.24
880.55	17483.51
880.72	17108.73
880.90	17065.72
881.07	16973.56
881.24	17342.20
881.41	17254.14
881.59	17149.69
881.76	17051.39
881.93	16774.91
882.10	16934.65
882.28	17096.44
882.45	16989.95
882.62	17207.03
882.79	17002.24
882.96	16703.23
883.14	16918.27
883.31	17123.07
883.48	16922.37
883.65	16649.99
883.83	16916.22
884.00	16865.02
884.17	16910.08
884.34	17092.35
884.51	16865.02
884.69	16934.65
884.86	16819.97
885.03	16905.98
885.20	16453.38
885.38	16924.41
885.55	16496.39
885.72	16545.54
885.89	16590.59
886.06	16695.04
886.24	16375.56
886.41	16682.75
886.58	16520.96
886.75	16596.74
886.92	16424.71
887.10	16680.71
887.27	16559.88
887.44	16314.12
887.61	16840.45
887.78	16576.26
887.95	16520.96
888.13	16236.30
888.30	16299.78
888.47	16072.46
888.64	16301.83
888.81	16242.44
888.99	16115.47
889.16	16023.31
889.33	15955.72
889.50	16170.76
889.67	16269.06
889.84	15984.40
890.01	15961.87
890.19	16086.79
890.36	15955.72
890.53	15961.87
890.70	15912.72
890.87	15810.32
891.04	15748.88
891.22	15832.85
891.39	15941.39
891.56	15863.57
891.73	15910.67
891.90	15607.57
892.07	15595.28
892.24	15728.40
892.42	15533.84
892.59	15730.45
892.76	15671.06
892.93	15636.24
893.10	15798.03
893.27	15669.01
893.44	15542.03
893.61	15490.84
893.79	15687.44
893.96	15539.99
894.13	15597.33
894.30	15638.29
894.47	15466.26
894.64	15630.10
894.81	15216.41
894.98	15509.27
895.15	15646.48
895.33	15443.73
895.50	15372.05
895.67	15480.60
895.84	15232.79
896.01	15480.60
896.18	15359.77
896.35	15337.24
896.52	15267.61
896.69	15281.94
896.86	15281.94
897.04	15429.40
897.21	15304.47
897.38	15245.08
897.55	15255.32
897.72	15656.72
897.89	15476.50
898.06	15335.19
898.23	15146.78
898.40	15337.24
898.57	15585.04
898.74	15300.37
898.91	15148.82
899.08	15537.94
899.26	15271.70
899.43	15288.09
899.60	15124.25
899.77	15298.33
899.94	15433.49
900.11	15175.45
900.28	15396.63
900.45	15208.22
900.62	15165.21
900.79	15449.88
900.96	15425.30
901.13	15335.19
901.30	15367.96
901.47	15224.60
901.64	15263.51
901.81	15601.43
901.98	15341.33
902.15	15587.09
902.32	15273.75
902.49	15298.33
902.66	15265.56
902.83	15421.20
903.01	15163.16
903.18	15349.53
903.35	15263.51
903.52	15107.87
903.69	15384.34
903.86	15339.29
904.03	15134.49
904.20	15576.85
904.37	15451.92
904.54	15316.76
904.71	15136.54
904.88	15429.40
905.05	15095.58
905.22	14921.50
905.39	15290.13
905.56	15331.09
905.73	15056.67
905.90	15341.33
906.07	15064.86
906.24	15333.14
906.41	15296.28
906.58	15312.66
906.75	15249.18
906.92	15060.76
907.09	15171.35
907.26	15240.98
907.43	15245.08
907.60	15310.61
907.77	15501.08
907.93	14993.18
908.10	15269.66
908.27	15214.36
908.44	15236.89
908.61	14984.99
908.78	15214.36
908.95	15195.93
909.12	15120.15
909.29	15103.77
909.46	15044.38
909.63	15245.08
909.80	15302.42
909.97	15185.69
910.14	15197.98
910.31	15134.49
910.48	14984.99
910.65	14964.51
910.82	14931.74
910.99	15025.95
911.16	15079.19
911.33	15058.71
911.50	14966.56
911.66	14716.70
911.83	15124.25
912.00	14898.97
912.17	14702.37
912.34	14624.54
912.51	14933.79
912.68	14550.82
912.85	14868.25
913.02	14667.55
913.19	14712.61
913.36	14868.25
913.53	14888.73
913.70	14573.35
913.86	15079.19
914.03	14628.64
914.20	14649.12
914.37	14608.16
914.54	14604.07
914.71	14354.21
914.88	14614.30
915.05	14563.11
915.22	14341.93
915.39	14638.88
915.55	14417.70
915.72	14489.38
915.89	14204.71
916.06	14391.08
916.23	14235.43
916.40	14489.38
916.57	14219.05
916.74	14206.76
916.91	14096.17
917.07	14006.06
917.24	13911.85
917.41	13903.66
917.58	13868.84
917.75	14065.45
917.92	13621.04
918.09	13977.39
918.26	13715.25
918.42	13911.85
918.59	13836.08
918.76	13709.10
918.93	13463.35
919.10	13631.28
919.27	13573.94
919.44	13727.53
919.60	13561.65
919.77	13459.25
919.94	13440.82
920.11	13467.44
920.28	13371.19
920.45	13309.75
920.61	13209.40
920.78	13512.50
920.95	13264.69
921.12	13266.74
921.29	13070.14
921.46	13137.72
921.62	13164.34
921.79	13227.83
921.96	12986.17
922.13	13053.75
922.30	12951.35
922.47	12853.05
922.63	12937.02
922.80	12881.72
922.97	12668.73
923.14	12490.56
923.31	12719.93
923.47	12445.51
923.64	12566.34
923.81	12588.86
923.98	12554.05
924.15	12406.59
924.32	12629.82
924.48	12232.52
924.65	12392.26
924.82	12078.92
924.99	12054.34
925.15	11886.41
925.32	12257.09
925.49	11890.51
925.66	12093.26
925.83	11857.74
925.99	11972.43
926.16	11810.64
926.33	12070.73
926.50	11784.01
926.67	11951.95
926.83	11867.98
927.00	11741.00
927.17	11640.65
927.34	11452.24
927.50	11640.65
927.67	11792.20
927.84	11370.32
928.01	11421.52
928.17	11186.01
928.34	11384.66
928.51	11214.68
928.68	11296.60
928.84	11253.59
929.01	10993.50
929.18	11095.89
929.35	10973.02
929.51	11118.42
929.68	10803.04
929.85	10895.19
930.02	10772.32
930.18	10770.27
930.35	10762.08
930.52	10585.95
930.69	10606.43
930.85	10641.25
931.02	10631.01
931.19	10456.93
931.36	10616.67
931.52	10602.33
931.69	10561.37
931.86	10452.83
932.02	10248.04
932.19	10196.84
932.36	10278.76
932.53	10411.87
932.69	10248.04
932.86	10239.84
933.03	10059.62
933.19	9899.88
933.36	9996.14
933.53	10022.76
933.70	9873.26
933.86	9779.05
934.03	9867.11
934.20	9586.54
934.36	9852.78
934.53	9566.06
934.70	9400.18
934.86	9373.55
935.03	9273.20
935.20	9305.97
935.36	9113.46
935.53	9162.61
935.70	9117.56
935.86	9144.18
936.03	8771.45
936.20	8744.83
936.36	8767.35
936.53	8783.74
936.70	8726.39
936.86	8603.52
937.03	8650.62
937.20	8349.57
937.36	8361.86
937.53	8042.37
937.70	8054.66
937.86	8091.52
938.03	7987.08
938.20	7950.21
938.36	7987.08
938.53	7759.75
938.70	7659.40
938.86	7677.83
939.03	7452.56
939.20	7407.50
939.36	7311.25
939.53	7163.79
939.70	7522.19
939.86	7131.03
940.03	7149.46
940.19	7034.77
940.36	6915.99
940.53	6905.75
940.69	6778.78
940.86	6670.23
941.03	6727.58
941.19	6619.04
941.36	6498.20
941.52	6279.07
941.69	6330.27
941.86	6401.95
942.02	6231.97
942.19	6277.02
942.35	6352.80
942.52	6191.01
942.69	6025.12
942.85	5889.96
943.02	6031.27
943.18	5998.50
943.35	5943.21
943.52	5808.04
943.68	5930.92
943.85	5814.18
944.01	5803.94
944.18	5707.69
944.35	5812.14
944.51	5652.39
944.68	5590.95
944.84	5681.07
945.01	5480.36
945.17	5593.00
945.34	5496.75
945.51	5550.00
945.67	5521.32
945.84	5554.09
946.00	5406.64
946.17	5408.69
946.33	5455.79
946.50	5498.80
946.67	5525.42
946.83	5404.59
947.00	5468.08
947.16	5390.25
947.33	5361.58
947.49	5404.59
947.66	5373.87
947.82	5269.42
947.99	5361.58
948.16	5466.03
948.32	5490.60
948.49	5234.61
948.65	5472.17
948.82	5373.87
948.98	5341.10
949.15	5363.63
949.31	5410.73
949.48	5394.35
949.64	5339.05
949.81	5359.53
949.97	5363.63
950.14	5353.39
950.30	5248.94
950.47	5545.90
950.63	5482.41
950.80	5365.68
950.96	5349.29
951.13	5406.64
951.30	5304.24
951.46	5400.49
951.63	5418.93
951.79	5529.52
951.96	5537.71
952.12	5619.63
952.29	5468.08
952.45	5449.64
952.62	5418.93
952.78	5509.04
952.94	5316.53
953.11	5425.07
953.27	5455.79
953.44	5478.32
953.60	5504.94
953.77	5414.83
953.93	5380.01
954.10	5435.31
954.26	5529.52
954.43	5363.63
954.59	5617.58
954.76	5529.52
954.92	5590.95
955.09	5613.48
955.25	5451.69
955.42	5439.40
955.58	5656.49
955.75	5560.24
955.91	5431.21
956.07	5699.50
956.24	5574.57
956.40	5613.48
956.57	5494.70
956.73	5513.13
956.90	5484.46
957.06	5375.92
957.23	5482.41
957.39	5558.19
957.56	5515.18
957.72	5476.27
957.88	5457.84
958.05	5611.43
958.21	5613.48
958.38	5506.99
958.54	5537.71
958.71	5502.89
958.87	5500.84
959.03	5513.13
959.20	5605.29
959.36	5531.56
959.53	5490.60
959.69	5351.34
959.85	5519.28
960.02	5468.08
960.18	5564.33
960.35	5423.02
960.51	5636.01
960.68	5504.94
960.84	5558.19
961.00	5615.53
961.17	5562.28
961.33	5509.04
961.50	5513.13
961.66	5599.15
961.82	5504.94
961.99	5547.95
962.15	5504.94
962.31	5504.94
962.48	5414.83
962.64	5582.76
962.81	5554.09
962.97	5500.84
963.13	5437.36
963.30	5369.77
963.46	5361.58
963.62	5531.56
963.79	5328.81
963.95	5394.35
964.12	5443.50
964.28	5455.79
964.44	5328.81
964.61	5545.90
964.77	5283.76
964.93	5418.93
965.10	5437.36
965.26	5302.19
965.42	5509.04
965.59	5359.53
965.75	5246.90
965.92	5506.99
966.08	5308.34
966.24	5296.05
966.41	5312.43
966.57	5449.64
966.73	5304.24
966.90	5337.01
967.06	5423.02
967.22	5314.48
967.39	5300.14
967.55	5281.71
967.71	5197.74
967.88	5179.31
968.04	5310.38
968.20	5259.18
968.37	5152.69
968.53	5212.08
968.69	5148.59
968.85	5312.43
969.02	5322.67
969.18	5238.70
969.34	5148.59
969.51	5203.89
969.67	5263.28
969.83	5072.82
970.00	5085.11
970.16	5187.50
970.32	5124.02
970.48	5285.81
970.65	4868.02
970.81	5132.21
970.97	5124.02
971.14	5025.72
971.30	5140.40
971.46	5007.28
971.63	5050.29
971.79	5068.72
971.95	5068.72
972.11	4843.45
972.28	5023.67
972.44	5138.35
972.60	4800.44
972.76	5038.00
972.93	4964.28
973.09	4968.37
973.25	5003.19
973.42	4982.71
973.58	5099.44
973.74	4853.69
973.90	4968.37
974.07	4755.38
974.23	4886.45
974.39	4988.85
974.55	4908.98
974.72	4851.64
974.88	4790.20
975.04	4859.83
975.20	4767.67
975.37	4878.26
975.53	4868.02
975.69	4810.68
975.85	4951.99
976.01	4732.86
976.18	4822.97
976.34	4851.64
976.50	4820.92
976.66	4833.21
976.83	4648.89
976.99	4681.66
977.15	4693.94
977.31	4526.01
977.47	4626.36
977.64	4605.88
977.80	4743.10
977.96	4753.34
978.12	4558.78
978.29	4675.51
978.45	4581.31
978.61	4515.77
978.77	4564.92
978.93	4519.87
979.10	4650.94
979.26	4560.83
979.42	4661.18
979.58	4411.32
979.74	4444.09
979.91	4526.01
980.07	4536.25
980.23	4493.24
980.39	4466.62
980.55	4480.96
980.71	4472.76
980.88	4390.84
981.04	4388.80
981.20	4368.32
981.36	4425.66
981.52	4435.90
981.68	4374.46
981.85	4448.19
982.01	4329.41
982.17	4218.82
982.33	4376.51
982.49	4507.58
982.65	4165.57
982.82	4278.21
982.98	4345.79
983.14	4194.24
983.30	4317.12
983.46	4294.59
983.62	4245.44
983.79	4181.95
983.95	4241.34
984.11	4118.47
984.27	4274.11
984.43	4272.06
984.59	4145.09
984.75	4167.62
984.91	4294.59
985.08	4120.51
985.24	4130.75
985.40	4011.97
985.56	4050.88
985.72	4177.86
985.88	4116.42
986.04	4102.08
986.20	4061.12
986.37	3981.25
986.53	3940.29
986.69	4159.42
986.85	3989.44
987.01	4020.16
987.17	4044.74
987.33	3893.19
987.49	4061.12
987.65	4057.03
987.82	3938.24
987.98	3946.44
988.14	3946.44
988.30	4026.31
988.46	3833.80
988.62	3962.82
988.78	3956.68
988.94	3852.23
989.10	3837.89
989.26	3860.42
989.42	3864.52
989.59	3731.40
989.75	3807.17
989.91	3841.99
990.07	3719.11
990.23	3727.30
990.39	3768.26
990.55	3788.74
990.71	3702.73
990.87	3737.54
991.03	3796.93
991.19	3680.20
991.35	3692.49
991.51	3735.50
991.67	3782.60
991.83	3708.87
992.00	3780.55
992.16	3825.61
992.32	3837.89
992.48	3676.10
992.64	3594.19
992.80	3647.43
992.96	3704.78
993.12	3569.61
993.28	3665.86
993.44	3682.25
993.60	3573.71
993.76	3698.63
993.92	3719.11
994.08	3768.26
994.24	3645.38
994.40	3614.66
994.56	3602.38
994.72	3639.24
994.88	3604.42
995.04	3557.32
995.20	3534.79
995.36	3403.72
995.52	3463.12
995.68	3502.03
995.84	3481.55
996.00	3602.38
996.16	3487.69
996.32	3461.07
996.48	3506.12
996.64	3463.12
996.80	3364.81
996.96	3379.15
997.12	3385.29
997.28	3366.86
997.44	3395.53
997.60	3272.65
997.76	3428.30
997.92	3348.43
998.08	3315.66
998.24	3260.37
998.40	3403.72
998.56	3342.28
998.72	3235.79
998.88	3336.14
999.04	3200.98
999.20	3293.13
999.36	3174.35
999.52	3391.44
999.68	3280.85
999.84	3389.39
1000.00	3250.13
1000.16	3354.57
1000.32	3235.79
1000.48	3375.05
1000.64	3141.58
1000.80	3166.16
1000.95	3084.24
1001.11	3219.41
1001.27	3117.01
1001.43	3254.22
1001.59	3147.73
1001.75	3147.73
1001.91	3143.63
1002.07	3141.58
1002.23	3145.68
1002.39	3188.69
1002.55	3170.26
1002.71	3114.96
1002.87	3135.44
1003.03	2985.94
1003.19	3065.81
1003.34	3207.12
1003.50	3078.10
1003.66	3065.81
1003.82	3096.53
1003.98	3018.71
1004.14	2983.89
1004.30	2983.89
1004.46	3055.57
1004.62	2916.31
1004.78	2953.17
1004.94	3049.43
1005.09	3030.99
1005.25	3045.33
1005.41	2936.79
1005.57	3037.14
1005.73	2959.31
1005.89	2871.25
1006.05	2891.73
1006.21	2912.21
1006.37	2924.50
1006.52	2858.96
1006.68	2797.53
1006.84	2990.03
1007.00	2944.98
1007.16	3004.37
1007.32	2813.91
1007.48	2887.64
1007.64	2912.21
1007.79	2822.10
1007.95	2869.20
1008.11	2942.93
1008.27	2885.59
1008.43	2746.33
1008.59	2877.40
1008.75	2797.53
1008.91	2838.48
1009.06	2795.48
1009.22	2844.63
1009.38	2785.24
1009.54	2848.72
1009.70	2760.66
1009.86	2889.68
1010.01	2863.06
1010.17	2695.13
1010.33	2697.17
1010.49	2824.15
1010.65	2738.13
1010.81	2717.65
1010.96	2807.77
1011.12	2615.26
1011.28	2678.74
1011.44	2699.22
1011.60	2648.02
1011.76	2619.35
1011.91	2725.85
1012.07	2596.82
1012.23	2635.74
1012.39	2578.39
1012.55	2691.03
1012.71	2633.69
1012.86	2686.94
1013.02	2664.41
1013.18	2670.55
1013.34	2609.11
1013.50	2652.12
1013.65	2684.89
1013.81	2637.78
1013.97	2609.11
1014.13	2539.48
1014.29	2586.58
1014.44	2684.89
1014.60	2500.57
1014.76	2572.25
1014.92	2584.54
1015.07	2605.02
1015.23	2512.86
1015.39	2525.15
1015.55	2527.19
1015.71	2516.95
1015.86	2496.47
1016.02	2469.85
1016.18	2387.93
1016.34	2541.53
1016.49	2547.67
1016.65	2486.23
1016.81	2389.98
1016.97	2432.99
1017.12	2557.91
1017.28	2459.61
1017.44	2426.84
1017.60	2432.99
1017.75	2383.84
1017.91	2441.18
1018.07	2459.61
1018.23	2406.36
1018.38	2359.26
1018.54	2396.12
1018.70	2387.93
1018.86	2373.60
1019.01	2371.55
1019.17	2535.39
1019.33	2537.43
1019.49	2443.23
1019.64	2375.64
1019.80	2445.27
1019.96	2449.37
1020.12	2426.84
1020.27	2363.36
1020.43	2383.84
1020.59	2330.59
1020.74	2371.55
1020.90	2314.20
1021.06	2273.25
1021.22	2342.88
1021.37	2314.20
1021.53	2306.01
1021.69	2398.17
1021.84	2279.39
1022.00	2263.01
1022.16	2263.01
1022.31	2209.76
1022.47	2293.72
1022.63	2260.96
1022.79	2326.49
1022.94	2209.76
1023.10	2332.64
1023.26	2244.57
1023.41	2168.80
1023.57	2197.47
1023.73	2170.85
1023.88	2205.66
1024.04	2256.86
1024.20	2189.28
1024.35	2252.77
1024.51	2265.05
1024.67	2158.56
1024.82	2263.01
1024.98	2154.46
1025.14	2306.01
1025.29	2148.32
1025.45	2250.72
1025.61	2133.98
1025.76	2174.94
1025.92	2179.04
1026.08	2224.09
1026.23	2123.74
1026.39	2213.85
1026.55	2162.66
1026.70	2123.74
1026.86	2162.66
1027.02	2258.91
1027.17	2174.94
1027.33	2220.00
1027.48	2150.37
1027.64	2131.94
1027.80	2121.70
1027.95	2230.24
1028.11	2023.39
1028.27	2107.36
1028.42	2181.09
1028.58	2109.41
1028.73	2084.83
1028.89	2023.39
1029.05	2256.86
1029.20	2199.52
>>>>>End Processed Spectral Data<<<<<
