SpectraSuite Data File
++++++++++++++++++++++++++++++++++++
Date: Fri Jun 02 14:49:27 CEST 2017
User: INFO_000
Dark Spectrum Present: No
Reference Spectrum Present: No
Number of Sampled Component Spectra: 1
Spectrometers: USB4H00879
Integration Time (usec): 80000 (USB4H00879)
Spectra Averaged: 1 (USB4H00879)
Boxcar Smoothing: 0 (USB4H00879)
Correct for Electrical Dark: No (USB4H00879)
Strobe/Lamp Enabled: No (USB4H00879)
Correct for Detector Non-linearity: No (USB4H00879)
Correct for Stray Light: No (USB4H00879)
Number of Pixels in Processed Spectrum: 3648
>>>>>Begin Processed Spectral Data<<<<<
345.13	1335.28
345.34	1335.28
345.56	1335.28
345.78	1251.31
345.99	1204.21
346.21	1656.81
346.42	1671.14
346.64	1642.47
346.86	1736.68
347.07	1662.95
347.29	1732.58
347.50	1624.04
347.72	1628.14
347.94	1730.53
348.15	1550.31
348.37	1617.90
348.59	1742.82
348.80	1705.96
349.02	1812.45
349.23	1871.84
349.45	1843.17
349.67	1832.93
349.88	1816.55
350.10	1982.43
350.31	1791.97
350.53	1890.28
350.75	2056.16
350.96	1816.55
351.18	1849.32
351.39	1888.23
351.61	1824.74
351.82	1929.19
352.04	1904.61
352.26	1814.50
352.47	1888.23
352.69	1896.42
352.90	1763.30
353.12	1898.47
353.34	1882.08
353.55	1937.38
353.77	1857.51
353.98	1861.60
354.20	1839.08
354.41	1888.23
354.63	1918.95
354.85	2082.78
355.06	1814.50
355.28	1736.68
355.49	1916.90
355.71	1851.36
355.92	1943.52
356.14	2002.91
356.35	1888.23
356.57	1853.41
356.79	1937.38
357.00	1855.46
357.22	1951.71
357.43	1798.12
357.65	1957.86
357.86	1853.41
358.08	1886.18
358.29	1943.52
358.51	1961.95
358.72	2031.58
358.94	1916.90
359.16	1972.19
359.37	1951.71
359.59	1916.90
359.80	1966.05
360.02	1898.47
360.23	2009.06
360.45	2035.68
360.66	1976.29
360.88	1880.04
361.09	1933.28
361.31	1982.43
361.52	1939.43
361.74	2043.87
361.95	2043.87
362.17	1976.29
362.38	2113.50
362.60	1998.82
362.81	1986.53
363.03	1904.61
363.24	2052.06
363.46	2035.68
363.67	2017.25
363.89	1941.47
364.10	1949.67
364.32	1959.91
364.53	1986.53
364.75	1834.98
364.96	2054.11
365.18	1968.10
365.39	1976.29
365.61	2007.01
365.82	2138.08
366.04	2011.11
366.25	1978.34
366.47	2142.18
366.68	2054.11
366.90	1984.48
367.11	2035.68
367.33	2119.65
367.54	2097.12
367.76	2025.44
367.97	2133.98
368.19	1937.38
368.40	2138.08
368.62	1994.72
368.83	1957.86
369.05	2070.50
369.26	2035.68
369.48	2017.25
369.69	2002.91
369.91	2039.78
370.12	2043.87
370.33	2174.94
370.55	1974.24
370.76	2090.98
370.98	2099.17
371.19	2162.66
371.41	1998.82
371.62	1900.52
371.84	2023.39
372.05	2117.60
372.27	2123.74
372.48	2121.70
372.69	2115.55
372.91	2111.46
373.12	2176.99
373.34	2066.40
373.55	2258.91
373.77	2133.98
373.98	2158.56
374.20	2107.36
374.41	2289.63
374.62	2076.64
374.84	2170.85
375.05	2279.39
375.27	2168.80
375.48	2228.19
375.70	2136.03
375.91	2260.96
376.12	2250.72
376.34	2133.98
376.55	2166.75
376.77	2156.51
376.98	2093.02
377.19	2103.26
377.41	2129.89
377.62	2183.13
377.84	2260.96
378.05	2301.92
378.27	2176.99
378.48	2238.43
378.69	2314.20
378.91	2273.25
379.12	2289.63
379.34	2191.33
379.55	2256.86
379.76	2205.66
379.98	2291.68
380.19	2232.29
380.41	2086.88
380.62	2244.57
380.83	2207.71
381.05	2174.94
381.26	2404.32
381.47	2191.33
381.69	2273.25
381.90	2355.16
382.12	2289.63
382.33	2252.77
382.54	2269.15
382.76	2340.83
382.97	2293.72
383.19	2285.53
383.40	2383.84
383.61	2351.07
383.83	2230.24
384.04	2342.88
384.25	2324.44
384.47	2414.56
384.68	2367.45
384.89	2226.14
385.11	2371.55
385.32	2332.64
385.54	2355.16
385.75	2332.64
385.96	2342.88
386.18	2418.65
386.39	2455.51
386.60	2379.74
386.82	2488.28
387.03	2408.41
387.24	2459.61
387.46	2414.56
387.67	2383.84
387.88	2568.15
388.10	2437.08
388.31	2527.19
388.52	2555.86
388.74	2387.93
388.95	2572.25
389.16	2512.86
389.38	2453.47
389.59	2547.67
389.80	2623.45
390.02	2496.47
390.23	2643.93
390.44	2496.47
390.66	2535.39
390.87	2510.81
391.08	2594.78
391.30	2699.22
391.51	2654.17
391.72	2662.36
391.94	2596.82
392.15	2631.64
392.36	2666.46
392.58	2607.06
392.79	2609.11
393.00	2699.22
393.22	2625.50
393.43	2744.28
393.64	2703.32
393.85	2744.28
394.07	2648.02
394.28	2654.17
394.49	2734.04
394.71	2820.05
394.92	2887.64
395.13	2746.33
395.35	2670.55
395.56	2650.07
395.77	2865.11
395.98	2854.87
396.20	2828.24
396.41	2936.79
396.62	2881.49
396.84	2797.53
397.05	2783.19
397.26	2824.15
397.47	2914.26
397.69	2770.90
397.90	3004.37
398.11	2877.40
398.32	2842.58
398.54	2799.57
398.75	2844.63
398.96	2779.09
399.18	2981.84
399.39	2842.58
399.60	2981.84
399.81	2918.36
400.03	2889.68
400.24	3264.46
400.45	2914.26
400.66	3037.14
400.88	2961.36
401.09	3205.07
401.30	2981.84
401.51	3098.58
401.73	3061.71
401.94	3153.87
402.15	2994.13
402.36	3074.00
402.58	3090.38
402.79	3196.88
403.00	3143.63
403.21	3170.26
403.43	3135.44
403.64	3241.93
403.85	3180.50
404.06	3166.16
404.27	3188.69
404.49	3110.86
404.70	3164.11
404.91	3256.27
405.12	3301.33
405.34	3172.30
405.55	3354.57
405.76	3184.59
405.97	3336.14
406.19	3430.35
406.40	3213.26
406.61	3248.08
406.82	3358.67
407.03	3157.97
407.25	3133.39
407.46	3428.30
407.67	3354.57
407.88	3405.77
408.09	3311.57
408.31	3270.61
408.52	3266.51
408.73	3254.22
408.94	3342.28
409.15	3442.64
409.37	3413.96
409.58	3348.43
409.79	3348.43
410.00	3495.88
410.21	3454.92
410.43	3526.60
410.64	3499.98
410.85	3680.20
411.06	3461.07
411.27	3547.08
411.48	3555.27
411.70	3598.28
411.91	3567.56
412.12	3633.10
412.33	3495.88
412.54	3538.89
412.76	3704.78
412.97	3684.30
413.18	3520.46
413.39	3606.47
413.60	3633.10
413.81	3588.04
414.03	3686.34
414.24	3538.89
414.45	3794.89
414.66	3639.24
414.87	3712.97
415.08	3633.10
415.30	3682.25
415.51	3788.74
415.72	3766.21
415.93	3639.24
416.14	3594.19
416.35	3874.76
416.56	3737.54
416.78	3899.33
416.99	3786.69
417.20	3803.08
417.41	3803.08
417.62	3954.63
417.83	3964.87
418.04	3788.74
418.26	4005.83
418.47	3856.33
418.68	3946.44
418.89	3942.34
419.10	4149.18
419.31	4054.98
419.52	4065.22
419.73	3989.44
419.95	4050.88
420.16	3985.35
420.37	3997.64
420.58	4026.31
420.79	3821.51
421.00	4194.24
421.21	4210.62
421.42	4022.21
421.63	4194.24
421.85	4063.17
422.06	4239.30
422.27	4093.89
422.48	4208.58
422.69	4274.11
422.90	4245.44
423.11	4247.49
423.32	4315.07
423.53	4313.02
423.75	4329.41
423.96	4419.52
424.17	4345.79
424.38	4476.86
424.59	4409.28
424.80	4542.39
425.01	4421.56
425.22	4319.17
425.43	4329.41
425.64	4683.70
425.85	4564.92
426.06	4581.31
426.28	4519.87
426.49	4374.46
426.70	4452.28
426.91	4468.67
427.12	4665.27
427.33	4587.45
427.54	4566.97
427.75	4652.98
427.96	4663.22
428.17	4763.58
428.38	4847.54
428.59	4726.71
428.80	4751.29
429.01	4849.59
429.23	4900.79
429.44	4982.71
429.65	4911.03
429.86	4921.27
430.07	4845.49
430.28	4782.01
430.49	5017.52
430.70	5175.22
430.91	5093.30
431.12	5062.58
431.33	5003.19
431.54	5052.34
431.75	5109.68
431.96	5009.33
432.17	5046.20
432.38	5109.68
432.59	5296.05
432.80	5302.19
433.01	5113.78
433.22	5414.83
433.43	5232.56
433.64	5156.79
433.85	5226.42
434.06	5296.05
434.27	5316.53
434.49	5373.87
434.70	5439.40
434.91	5326.77
435.12	5357.49
435.33	5384.11
435.54	5398.45
435.75	5287.86
435.96	5318.57
436.17	5267.38
436.38	5504.94
436.59	5588.91
436.80	5595.05
437.01	5777.32
437.22	5736.36
437.43	5629.87
437.64	5437.36
437.85	5484.46
438.06	5603.24
438.27	5619.63
438.48	5668.78
438.69	5738.41
438.90	5715.88
439.11	5765.03
439.32	5642.15
439.53	5676.97
439.74	5857.19
439.95	5787.56
440.16	5822.38
440.37	5687.21
440.57	5582.76
440.78	6064.04
440.99	5906.34
441.20	6012.84
441.41	5724.07
441.62	6068.13
441.83	5916.58
442.04	6064.04
442.25	5992.36
442.46	5877.67
442.67	6068.13
442.88	6377.37
443.09	6127.52
443.30	5951.40
443.51	6150.05
443.72	6332.32
443.93	6086.56
444.14	6324.13
444.35	6129.57
444.56	6258.59
444.77	6262.69
444.98	6336.42
445.19	6369.18
445.40	6299.55
445.61	6352.80
445.81	6328.22
446.02	6463.39
446.23	6350.75
446.44	6287.26
446.65	6469.53
446.86	6541.21
447.07	6535.07
447.28	6782.87
447.49	6508.44
447.70	6567.84
447.91	6633.37
448.12	6643.61
448.33	6780.82
448.54	6627.23
448.74	6700.95
448.95	6625.18
449.16	6582.17
449.37	7028.63
449.58	6672.28
449.79	7069.59
450.00	6621.08
450.21	6911.89
450.42	6991.77
450.63	7073.68
450.84	6901.65
451.05	6973.33
451.25	7016.34
451.46	6891.41
451.67	7122.84
451.88	7051.16
452.09	7128.98
452.30	7036.82
452.51	7188.37
452.72	7200.66
452.93	7546.76
453.13	7186.32
453.34	7292.82
453.55	7305.10
453.76	7348.11
453.97	7657.36
454.18	7364.50
454.39	7550.86
454.60	7382.93
454.81	7307.15
455.01	7571.34
455.22	7427.98
455.43	7749.51
455.64	7944.07
455.85	7802.76
456.06	7833.48
456.27	7784.33
456.48	7755.66
456.68	7688.07
456.89	7884.68
457.10	7905.16
457.31	7960.45
457.52	7851.91
457.73	8028.04
457.94	8236.93
458.14	8069.00
458.35	8408.96
458.56	8218.50
458.77	7966.60
458.98	8349.57
459.19	8146.82
459.39	8351.62
459.60	8413.06
459.81	8232.83
460.02	8472.45
460.23	8286.08
460.44	8660.86
460.65	8664.96
460.85	8632.19
461.06	8892.28
461.27	8527.74
461.48	8830.84
461.69	8812.41
461.89	8593.28
462.10	8857.46
462.31	8689.53
462.52	8689.53
462.73	8879.99
462.94	8951.67
463.14	8916.86
463.35	8879.99
463.56	9412.46
463.77	9480.05
463.98	9217.91
464.18	9277.30
464.39	9351.03
464.60	9471.86
464.81	9502.58
465.02	9351.03
465.23	9600.88
465.43	9600.88
465.64	9789.29
465.85	9627.50
466.06	9480.05
466.27	10061.67
466.47	9899.88
466.68	10024.81
466.89	9897.83
467.10	10006.38
467.30	9895.78
467.51	9883.50
467.72	10358.63
467.93	9989.99
468.14	10299.23
468.34	10293.09
468.55	10313.57
468.76	10405.73
468.97	10194.79
469.17	10530.66
469.38	10776.41
469.59	10645.34
469.80	10463.07
470.01	10655.58
470.21	10743.64
470.42	10952.54
470.63	10960.73
470.84	11007.83
471.04	11237.20
471.25	11083.61
471.46	11102.04
471.67	11433.81
471.87	11261.78
472.08	11552.59
472.29	11564.88
472.50	11251.54
472.70	11364.18
472.91	11667.28
473.12	11738.96
473.33	11808.59
473.53	12048.20
473.74	11485.01
473.95	12148.55
474.16	12205.89
474.36	11978.57
474.57	12179.27
474.78	12631.87
474.99	12412.74
475.19	12310.34
475.40	12599.10
475.61	12781.37
475.81	12898.11
476.02	13059.90
476.23	12734.27
476.44	12982.07
476.64	13225.78
476.85	13168.44
477.06	13311.80
477.27	13440.82
477.47	13637.42
477.68	13475.63
477.89	13602.61
478.09	13705.01
478.30	13756.21
478.51	13860.65
478.71	13813.55
478.92	13930.28
479.13	14219.05
479.34	14366.50
479.54	14382.88
479.75	14536.48
479.96	14421.80
480.16	14563.11
480.37	14702.37
480.58	14718.75
480.78	15230.74
480.99	14931.74
481.20	15040.28
481.41	15195.93
481.61	15302.42
481.82	15380.25
482.03	15064.86
482.23	15535.89
482.44	15515.41
482.65	15783.70
482.85	15748.88
483.06	15697.68
483.27	15984.40
483.47	15882.00
483.68	15965.96
483.89	16117.51
484.09	16410.37
484.30	16348.93
484.51	16703.23
484.71	16606.98
484.92	16797.44
485.13	16862.97
485.33	16680.71
485.54	16889.60
485.75	17008.38
485.95	17587.96
486.16	17073.92
486.37	17647.35
486.57	17252.09
486.78	17499.89
486.98	17692.40
487.19	17762.03
487.40	17735.41
487.60	17653.49
487.81	18003.69
488.02	17948.40
488.22	17952.49
488.43	18239.21
488.64	18204.39
488.84	18620.13
489.05	18611.94
489.25	18646.76
489.46	18949.85
489.67	18685.67
489.87	19125.98
490.08	18857.70
490.29	18917.09
490.49	19502.81
490.70	19441.37
490.90	19308.25
491.11	19537.62
491.32	19644.12
491.52	19420.89
491.73	19754.71
491.94	19627.73
492.14	19738.32
492.35	20252.36
492.55	20016.85
492.76	20113.10
492.97	20238.03
493.17	20221.64
493.38	20367.05
493.58	20758.21
493.79	20643.52
494.00	20631.24
494.20	20727.49
494.41	20631.24
494.61	21071.55
494.82	20950.72
495.02	20852.42
495.23	21192.38
495.44	21198.52
495.64	21546.68
495.85	21319.35
496.05	21786.29
496.26	21675.70
496.47	21825.20
496.67	21604.02
496.88	22189.74
497.08	21718.71
497.29	22259.37
497.49	22240.94
497.70	22345.39
497.91	22245.04
498.11	22378.15
498.32	22357.67
498.52	22376.11
498.73	22841.00
498.93	22765.22
499.14	22636.20
499.34	22683.30
499.55	22800.04
499.76	22711.97
499.96	22830.76
500.17	22970.02
500.37	23430.81
500.58	23240.35
500.78	23242.40
500.99	23201.44
501.19	23608.98
501.40	23234.21
501.60	23307.93
501.81	23654.04
502.02	23686.81
502.22	23559.83
502.43	23590.55
502.63	24065.68
502.84	23897.75
503.04	23989.91
503.25	24231.57
503.45	24147.60
503.66	24118.93
503.86	24100.50
504.07	24671.88
504.27	24133.26
504.48	24721.03
504.68	24563.34
504.89	24817.29
505.09	24792.71
505.30	24686.22
505.50	24657.54
505.71	25159.30
505.91	24841.86
506.12	24825.48
506.32	25134.72
506.53	25042.56
506.73	24979.07
506.94	25462.40
507.14	25298.56
507.35	25108.10
507.55	25523.83
507.76	25421.44
507.96	25360.00
508.17	25339.52
508.37	25554.55
508.58	25579.13
508.78	25577.08
508.99	25984.63
509.19	25857.65
509.40	25734.78
509.60	25624.18
509.81	26068.59
510.01	25724.54
510.22	25818.74
510.42	25988.72
510.63	26027.63
510.83	26074.74
511.04	26254.96
511.24	26508.91
511.44	26132.08
511.65	26187.38
511.85	26338.93
512.06	26441.32
512.26	26523.24
512.47	26635.88
512.67	26424.94
512.88	26601.07
513.08	26332.78
513.29	26859.11
513.49	26517.10
513.69	26832.49
513.90	26973.80
514.10	27135.59
514.31	27147.87
514.51	26912.36
514.72	26867.30
514.92	26832.49
515.13	27125.35
515.33	27420.25
515.53	27172.45
515.74	27567.71
515.94	27444.83
516.15	27385.44
516.35	27453.02
516.56	27510.36
516.76	27383.39
516.96	27758.17
517.17	27569.76
517.37	27825.75
517.58	27821.66
517.78	27717.21
517.99	27911.77
518.19	27903.57
518.39	28173.91
518.60	28112.47
518.80	28143.19
519.01	28264.02
519.21	28010.07
519.41	28057.17
519.62	28137.04
519.82	28474.96
520.03	28689.99
520.23	28468.81
520.43	28368.46
520.64	28823.11
520.84	28747.34
521.05	29087.30
521.25	29228.61
521.45	28941.89
521.66	29294.14
521.86	29218.37
522.07	29283.91
522.27	29079.11
522.47	29345.34
522.68	29752.89
522.88	29668.92
523.08	29658.68
523.29	29486.65
523.49	29593.15
523.70	29863.48
523.90	30006.84
524.10	29947.45
524.31	29996.60
524.51	30035.51
524.71	30357.04
524.92	29967.93
525.12	30793.26
525.33	30795.31
525.53	30504.49
525.73	30711.34
525.94	30721.58
526.14	30479.92
526.34	30547.50
526.55	30967.34
526.75	31055.40
526.95	31141.41
527.16	31153.70
527.36	31079.97
527.56	31311.39
527.77	31395.36
527.97	31632.93
528.17	31475.23
528.38	31733.28
528.58	31479.33
528.78	31999.51
528.99	31696.41
529.19	32132.63
529.39	31794.71
529.60	32075.29
529.80	32362.00
530.00	32173.59
530.21	32736.78
530.41	32634.38
530.61	32366.10
530.82	32599.57
531.02	32597.52
531.22	32740.88
531.43	32814.60
531.63	33119.75
531.83	33347.08
532.04	33588.74
532.24	33287.68
532.44	33762.81
532.64	33601.02
532.85	34063.86
533.05	33719.81
533.25	33906.17
533.46	33633.79
533.66	34369.01
533.86	34018.81
534.07	34248.18
534.27	34360.82
534.47	34526.71
534.67	34713.07
534.88	34407.92
535.08	34713.07
535.28	35014.12
535.49	34559.47
535.69	35382.76
535.89	34946.54
536.09	35130.86
536.30	35837.41
536.50	35341.80
536.70	35583.46
536.91	35257.83
537.11	35517.92
537.31	35704.29
537.51	35763.68
537.72	36060.63
537.92	35892.70
538.12	36365.78
538.32	36009.43
538.53	36668.88
538.73	36320.73
538.93	36052.44
539.13	36335.06
539.34	36703.70
539.54	36672.98
539.74	36797.90
539.94	36621.78
540.15	36920.78
540.35	37438.92
540.55	36689.36
540.75	37148.11
540.96	37266.89
541.16	36863.44
541.36	37486.02
541.56	37395.91
541.77	37696.96
541.97	37567.94
542.17	37660.10
542.37	37782.98
542.58	38051.26
542.78	37838.27
542.98	38041.02
543.18	38090.17
543.38	38213.05
543.59	38675.89
543.79	37959.10
543.99	38383.03
544.19	38516.15
544.40	38548.92
544.60	38647.22
544.80	38655.41
545.00	38763.95
545.20	39126.44
545.41	38778.29
545.61	38946.22
545.81	39583.14
546.01	39546.28
546.21	39101.87
546.42	39304.62
546.62	39497.13
546.82	39323.05
547.02	39607.72
547.22	39441.83
547.43	39392.68
547.63	39611.81
547.83	39466.41
548.03	39593.38
548.23	39818.66
548.44	39816.61
548.64	39550.37
548.84	40027.55
549.04	39949.73
549.24	40193.43
549.45	40566.16
549.65	39837.09
549.85	40254.87
550.05	40392.09
550.25	40162.72
550.45	40766.87
550.66	40502.68
550.86	40261.02
551.06	40883.60
551.26	40807.83
551.46	40490.39
551.66	40572.31
551.87	40373.66
552.07	40955.28
552.27	40410.52
552.47	40789.39
552.67	41248.14
552.87	40926.61
553.07	41381.26
553.28	40906.13
553.48	41096.59
553.68	41033.10
553.88	41344.39
554.08	41448.84
554.28	41508.23
554.48	41078.16
554.69	41659.78
554.89	41497.99
555.09	41237.90
555.29	41364.87
555.49	41596.29
555.69	41430.41
555.89	41547.14
556.10	41850.24
556.30	41536.90
556.50	41864.58
556.70	41688.45
556.90	42001.79
557.10	42296.70
557.30	41735.56
557.50	41958.78
557.70	42202.49
557.91	42624.37
558.11	42120.57
558.31	42634.61
558.51	42134.91
558.71	42186.11
558.91	42622.33
559.11	42202.49
559.31	42286.46
559.51	42112.38
559.72	42485.11
559.92	42159.48
560.12	42151.29
560.32	42567.03
560.52	42511.74
560.72	42599.80
560.92	42786.16
561.12	42806.64
561.32	43134.32
561.52	42616.18
561.72	43087.21
561.93	42595.70
562.13	42661.24
562.33	42702.20
562.53	43079.02
562.73	42421.62
562.93	43212.14
563.13	42820.98
563.33	42720.63
563.53	42804.59
563.73	42964.34
563.93	43269.48
564.13	43208.04
564.33	42835.31
564.53	43038.06
564.74	43439.47
564.94	43081.07
565.14	43304.30
565.34	43130.22
565.54	43605.35
565.74	43234.67
565.94	43801.96
566.14	43281.77
566.34	42896.75
566.54	43859.30
566.74	43871.59
566.94	43357.55
567.14	43273.58
567.34	43232.62
567.54	43222.38
567.74	43505.00
567.94	43801.96
568.14	44098.91
568.34	44125.53
568.54	43797.86
568.74	44060.00
568.94	43414.89
569.14	44033.38
569.34	44252.51
569.54	44037.47
569.75	43816.29
569.95	44168.54
570.15	44174.69
570.35	44000.61
570.55	43824.48
570.75	44060.00
570.95	44350.81
571.15	44076.38
571.35	43883.87
571.55	44551.51
571.75	44539.22
571.95	44442.97
572.15	44533.08
572.35	44350.81
572.55	44428.63
572.75	44705.11
572.95	44211.55
573.15	44334.43
573.35	44506.46
573.55	44399.96
573.75	44426.59
573.95	44512.60
574.15	44709.21
574.35	44860.76
574.55	45014.35
574.75	44731.73
574.95	44799.32
575.15	44359.00
575.34	44860.76
575.54	45274.45
575.74	45174.09
575.94	45360.46
576.14	44971.35
576.34	45679.94
576.54	45458.76
576.74	45313.36
576.94	45202.77
577.14	45526.35
577.34	45804.87
577.54	45077.84
577.74	45772.10
577.94	45495.63
578.14	45380.94
578.34	45888.84
578.54	45296.97
578.74	45710.66
578.94	45501.77
579.14	45872.45
579.34	46046.53
579.54	45974.85
579.74	46083.39
579.94	46216.51
580.13	45980.99
580.33	45978.95
580.53	46202.18
580.73	46241.09
580.93	46368.06
581.13	46296.38
581.33	46689.59
581.53	46544.19
581.73	46691.64
581.93	46523.71
582.13	46589.24
582.33	46507.32
582.53	46660.92
582.73	46482.75
582.92	46765.37
583.12	46699.83
583.32	47041.84
583.52	46935.35
583.72	47406.38
583.92	46982.45
584.12	47064.37
584.32	47510.83
584.52	46933.30
584.72	47611.18
584.92	47211.82
585.11	48018.72
585.31	47473.96
585.51	47705.38
585.71	47015.22
585.91	47805.73
586.11	47250.74
586.31	47590.70
586.51	47680.81
586.71	47787.30
586.91	48145.70
587.10	47897.89
587.30	48293.15
587.50	47879.46
587.70	48409.89
587.90	47789.35
588.10	47998.24
588.30	48270.62
588.50	48526.62
588.69	48340.25
588.89	48055.59
589.09	48762.14
589.29	48174.37
589.49	48438.56
589.69	48690.46
589.89	48977.17
590.08	49036.56
590.28	48588.06
590.48	48592.15
590.68	48618.78
590.88	48792.86
591.08	48565.53
591.28	48278.82
591.47	49390.86
591.67	48870.68
591.87	49390.86
592.07	49263.89
592.27	49077.52
592.47	49231.12
592.67	49198.35
592.86	49413.39
593.06	49376.53
593.26	49634.57
593.46	49419.53
593.66	49429.77
593.86	49724.68
594.05	49407.25
594.25	50337.02
594.45	49511.69
594.65	49931.53
594.85	49628.43
595.05	50183.43
595.24	49792.26
595.44	49894.66
595.64	50214.15
595.84	50384.13
596.04	49990.92
596.23	50312.45
596.43	50500.86
596.63	50386.18
596.83	50328.83
597.03	50885.88
597.22	50857.21
597.42	50449.66
597.62	50537.72
597.82	50930.93
598.02	50601.21
598.21	51283.19
598.41	50490.62
598.61	50830.58
598.81	51135.73
599.01	51172.60
599.20	51123.44
599.40	50885.88
599.60	51350.77
599.80	51721.45
600.00	51299.57
600.19	51924.20
600.39	51262.71
600.59	51686.64
600.79	51666.16
600.98	51508.46
601.18	51942.63
601.38	52094.18
601.58	51959.02
601.78	52036.84
601.97	51952.87
602.17	52514.01
602.37	51793.13
602.57	52110.56
602.76	52700.38
602.96	52212.96
603.16	52159.72
603.36	52129.00
603.55	52528.35
603.75	52266.21
603.95	52573.41
604.15	53073.11
604.34	52645.08
604.54	52800.73
604.74	53052.63
604.94	52786.39
605.13	53140.69
605.33	52729.05
605.53	52767.96
605.73	53028.05
605.92	52968.66
606.12	53488.85
606.32	53527.76
606.52	53247.19
606.71	53722.32
606.91	53597.39
607.11	53216.47
607.30	53363.92
607.50	53466.32
607.70	53789.90
607.90	53449.94
608.09	53507.28
608.29	53572.81
608.49	53607.63
608.68	53447.89
608.88	54088.90
609.08	54052.04
609.28	53794.00
609.47	53767.37
609.67	54039.75
609.87	54041.80
610.06	54371.52
610.26	54318.28
610.46	54172.87
610.66	53716.17
610.85	54123.72
611.05	53624.01
611.25	54191.30
611.44	54228.16
611.64	54023.37
611.84	54047.94
612.03	54170.82
612.23	53998.79
612.43	54334.66
612.62	54000.84
612.82	54189.25
613.02	54023.37
613.21	54260.93
613.41	54486.21
613.61	54260.93
613.80	54342.85
614.00	54711.49
614.20	54400.19
614.39	54717.63
614.59	54500.54
614.79	54621.37
614.98	54555.84
615.18	54590.66
615.38	54977.72
615.57	54344.90
615.77	54707.39
615.97	54580.42
616.16	54490.30
616.36	54398.15
616.56	54521.02
616.75	54461.63
616.95	53683.40
617.15	54119.62
617.34	54416.58
617.54	54521.02
617.74	55073.98
617.93	54742.20
618.13	54578.37
618.32	54547.65
618.52	54609.09
618.72	54355.14
618.91	54473.92
619.11	54486.21
619.31	54418.63
619.50	54580.42
619.70	54432.96
619.90	54695.10
620.09	54002.89
620.29	54566.08
620.48	54244.55
620.68	55055.54
620.88	54322.37
621.07	54748.35
621.27	54531.26
621.46	54586.56
621.66	54371.52
621.86	54576.32
622.05	54174.92
622.25	54779.07
622.44	54695.10
622.64	54768.83
622.84	54592.70
623.03	54568.13
623.23	54082.76
623.42	54414.53
623.62	54965.43
623.82	54672.57
624.01	54400.19
624.21	54609.09
624.40	54170.82
624.60	54179.01
624.80	54535.36
624.99	54414.53
625.19	54084.81
625.38	54817.98
625.58	54369.47
625.77	54363.33
625.97	54850.75
626.17	54195.40
626.36	54461.63
626.56	54910.14
626.75	54336.71
626.95	54803.64
627.14	54494.40
627.34	54697.15
627.54	54539.46
627.73	54539.46
627.93	54559.94
628.12	53841.10
628.32	54240.45
628.51	54439.11
628.71	54498.50
628.90	54691.01
629.10	54615.23
629.30	54195.40
629.49	54262.98
629.69	54531.26
629.88	54310.08
630.08	54932.67
630.27	54568.13
630.47	54498.50
630.66	54052.04
630.86	55106.74
631.05	54195.40
631.25	54910.14
631.44	54265.03
631.64	54138.05
631.84	54844.60
632.03	54926.52
632.23	54127.81
632.42	54924.47
632.62	54398.15
632.81	54072.52
633.01	54826.17
633.20	54987.96
633.40	54551.74
633.59	54355.14
633.79	54205.64
633.98	54236.36
634.18	54506.69
634.37	54385.86
634.57	54543.55
634.76	54934.71
634.96	54408.39
635.15	54533.31
635.35	54150.34
635.54	54486.21
635.74	54858.94
635.93	54189.25
636.13	54887.61
636.32	55162.04
636.52	54326.47
636.71	54418.63
636.91	54670.53
637.10	54770.88
637.30	54451.39
637.49	54617.28
637.69	54422.72
637.88	54631.61
638.08	54621.37
638.27	55108.79
638.46	54226.12
638.66	54205.64
638.85	54662.33
639.05	54533.31
639.24	54496.45
639.44	54408.39
639.63	54570.18
639.83	54910.14
640.02	54754.49
640.22	54428.87
640.41	54777.02
640.61	54488.26
640.80	54629.57
640.99	53959.88
641.19	54932.67
641.38	54604.99
641.58	54768.83
641.77	54463.68
641.97	54686.91
642.16	54908.09
642.36	54903.99
642.55	54965.43
642.74	53908.68
642.94	55076.02
643.13	54852.80
643.33	54910.14
643.52	54924.47
643.72	54723.77
643.91	54525.12
644.10	54684.86
644.30	54994.10
644.49	55026.87
644.69	55055.54
644.88	54703.29
645.08	54637.76
645.27	54594.75
645.46	54510.78
645.66	55221.43
645.85	54545.60
646.05	55018.68
646.24	55178.42
646.43	54787.26
646.63	55026.87
646.82	55198.90
647.02	54844.60
647.21	55516.34
647.40	54797.50
647.60	55037.11
647.79	55096.50
647.99	55282.87
648.18	54992.06
648.37	55895.21
648.57	55360.69
648.76	54727.87
648.96	54645.95
649.15	55329.97
649.34	55207.09
649.54	55508.14
649.73	54846.65
649.92	55379.12
650.12	55096.50
650.31	55676.08
650.51	55299.25
650.70	55538.86
650.89	54998.20
651.09	55606.45
651.28	55383.22
651.47	55436.47
651.67	55383.22
651.86	55678.13
652.06	54863.03
652.25	55229.62
652.44	55452.85
652.64	55217.33
652.83	55717.04
653.02	54912.19
653.22	55557.30
653.41	55082.17
653.60	54613.18
653.80	54951.10
653.99	55448.75
654.18	55495.86
654.38	55268.53
654.57	55213.24
654.76	55520.43
654.96	55366.84
655.15	55415.99
655.34	55196.85
655.54	54684.86
655.73	55542.96
655.92	55651.50
656.12	55526.58
656.31	55370.93
656.50	55657.65
656.70	55815.34
656.89	55192.76
657.08	55284.92
657.28	55205.05
657.47	55895.21
657.66	55491.76
657.86	55481.52
658.05	55164.09
658.24	55547.06
658.43	55628.98
658.63	55415.99
658.82	55428.27
659.01	56007.85
659.21	55608.50
659.40	55571.63
659.59	55379.12
659.79	55743.66
659.98	55698.61
660.17	56026.28
660.36	55706.80
660.56	55547.06
660.75	56237.22
660.94	55815.34
661.14	55477.43
661.33	56013.99
661.52	55567.54
661.71	56009.90
661.91	55284.92
662.10	55440.56
662.29	55940.27
662.49	55645.36
662.68	55563.44
662.87	56009.90
663.06	55917.74
663.26	55628.98
663.45	55776.43
663.64	56007.85
663.83	56198.31
664.03	56163.50
664.22	55991.47
664.41	56222.89
664.60	55891.12
664.80	56390.82
664.99	55690.41
665.18	56071.34
665.37	55649.45
665.57	56136.87
665.76	55817.39
665.95	55770.28
666.14	56214.69
666.34	55932.07
666.53	55542.96
666.72	55659.69
666.91	55821.48
667.11	55395.51
667.30	56167.59
667.49	56087.72
667.68	55872.68
667.87	55723.18
668.07	56177.83
668.26	56331.43
668.45	55858.35
668.64	55829.68
668.84	56491.17
669.03	56083.62
669.22	55932.07
669.41	55858.35
669.60	56220.84
669.80	55497.91
669.99	56392.87
670.18	55997.61
670.37	55985.32
670.57	56308.90
670.76	55641.26
670.95	56079.53
671.14	56378.53
671.33	55688.37
671.53	56669.34
671.72	56194.21
671.91	55968.94
672.10	55825.58
672.29	56126.63
672.48	55942.31
672.68	56794.27
672.87	55745.71
673.06	56263.85
673.25	56263.85
673.44	55977.13
673.64	55940.27
673.83	55983.27
674.02	56024.23
674.21	55895.21
674.40	55989.42
674.59	56147.11
674.79	55704.75
674.98	55764.14
675.17	55905.45
675.36	55921.83
675.55	55860.40
675.74	55815.34
675.94	56138.92
676.13	55979.18
676.32	56509.60
676.51	56143.02
676.70	56022.19
676.89	56054.95
677.08	56294.56
677.28	55778.48
677.47	56399.01
677.66	56460.45
677.85	56075.43
678.04	56632.48
678.23	56534.18
678.42	56489.12
678.62	56085.67
678.81	56427.68
679.00	55960.75
679.19	56943.77
679.38	56188.07
679.57	56212.65
679.76	56057.00
679.96	56503.46
680.15	56216.74
680.34	56120.49
680.53	55991.47
680.72	56681.63
680.91	56378.53
681.10	56417.44
681.29	56409.25
681.48	55805.10
681.68	55841.96
681.87	56204.45
682.06	55645.36
682.25	55473.33
682.44	55899.31
682.63	56546.47
682.82	55504.05
683.01	55655.60
683.20	55432.37
683.39	55786.67
683.59	55841.96
683.78	55678.13
683.97	56013.99
684.16	56329.38
684.35	55864.49
684.54	55772.33
684.73	55897.26
684.92	55477.43
685.11	55334.07
685.30	55733.42
685.49	56259.75
685.69	55440.56
685.88	55737.52
686.07	55751.85
686.26	55403.70
686.45	55655.60
686.64	55575.73
686.83	55649.45
687.02	55780.52
687.21	55784.62
687.40	55729.33
687.59	55741.61
687.78	55897.26
687.97	55938.22
688.16	55411.89
688.35	55227.57
688.54	55270.58
688.74	55426.23
688.93	55377.08
689.12	55714.99
689.31	55411.89
689.50	55805.10
689.69	55055.54
689.88	54942.91
690.07	55346.36
690.26	55231.67
690.45	55749.81
690.64	55291.06
690.83	55526.58
691.02	55463.09
691.21	55170.23
691.40	55174.33
691.59	55178.42
691.78	55104.70
691.97	55461.04
692.16	54981.82
692.35	55440.56
692.54	55076.02
692.73	55301.30
692.92	55510.19
693.11	55243.96
693.30	54895.80
693.49	55512.24
693.68	55033.02
693.87	55256.24
694.06	54895.80
694.25	54828.22
694.44	54766.78
694.63	55358.64
694.82	54865.08
695.01	54740.16
695.20	54926.52
695.39	54985.91
695.58	54789.31
695.77	54674.62
695.96	54686.91
696.15	54957.24
696.34	55071.93
696.53	54887.61
696.72	54883.51
696.91	54623.42
697.10	54635.71
697.29	54609.09
697.48	55082.17
697.67	54494.40
697.86	54488.26
698.05	54170.82
698.24	54701.25
698.43	54408.39
698.62	54799.55
698.81	54219.97
699.00	55209.14
699.19	54002.89
699.38	54164.68
699.57	54246.60
699.76	54955.19
699.95	53968.07
700.14	54170.82
700.32	54252.74
700.51	54035.66
700.70	54310.08
700.89	54502.59
701.08	54303.94
701.27	54197.44
701.46	54580.42
701.65	53638.35
701.84	54392.00
702.03	54265.03
702.22	53810.38
702.41	54224.07
702.60	53654.73
702.79	53679.31
702.98	53605.58
703.17	54109.38
703.35	53601.49
703.54	54066.38
703.73	53851.34
703.92	53597.39
704.11	53849.29
704.30	53282.00
704.49	53304.53
704.68	53286.10
704.87	53619.92
705.06	53331.15
705.25	53343.44
705.43	53433.55
705.62	53462.22
705.81	53294.29
706.00	53263.57
706.19	53030.10
706.38	53159.12
706.57	53382.35
706.76	52759.77
706.95	52968.66
707.14	53175.51
707.32	53318.87
707.51	53013.72
707.70	52636.89
707.89	52987.10
708.08	52939.99
708.27	53148.88
708.46	53034.20
708.65	53112.02
708.84	53288.15
709.02	53212.37
709.21	52835.55
709.40	52710.62
709.59	52790.49
709.78	52593.89
709.97	52792.54
710.16	52696.28
710.34	52600.03
710.53	52430.05
710.72	52057.32
710.91	52346.08
711.10	52698.33
711.29	52919.51
711.48	52315.36
711.66	52321.51
711.85	52358.37
712.04	52239.59
712.23	51930.34
712.42	52053.22
712.61	52409.57
712.80	52245.73
712.98	52147.43
713.17	51707.12
713.36	51770.60
713.55	52124.90
713.74	52225.25
713.93	51901.67
714.11	52024.55
714.30	51082.48
714.49	52002.02
714.68	51918.06
714.87	51612.91
715.06	52417.76
715.24	51877.10
715.43	51778.79
715.62	51160.31
715.81	51694.83
716.00	52071.65
716.18	51453.17
716.37	51008.76
716.56	51430.64
716.75	51438.83
716.94	51250.42
717.12	50951.41
717.31	51320.05
717.50	51295.47
717.69	50906.36
717.88	50894.07
718.06	51057.91
718.25	51217.65
718.44	50838.78
718.63	51100.92
718.82	50470.14
719.00	50748.67
719.19	50621.69
719.38	50697.47
719.57	49968.39
719.76	49904.90
719.94	49579.28
720.13	50220.29
720.32	49988.87
720.51	49970.44
720.69	50048.26
720.88	49992.97
721.07	49943.81
721.26	49976.58
721.44	49796.36
721.63	49579.28
721.82	49560.84
722.01	49399.05
722.20	49726.73
722.38	49454.35
722.57	48958.74
722.76	49585.42
722.95	49280.27
723.13	49063.19
723.32	48995.60
723.51	48782.62
723.70	48698.65
723.88	48997.65
724.07	48891.16
724.26	48995.60
724.44	48145.70
724.63	49249.55
724.82	49210.64
725.01	48700.70
725.19	48569.63
725.38	48565.53
725.57	48354.59
725.76	48968.98
725.94	48129.31
726.13	48637.21
726.32	48438.56
726.51	48106.79
726.69	48592.15
726.88	48520.48
727.07	48282.91
727.25	48368.93
727.44	48092.45
727.63	48162.08
727.82	48241.95
728.00	48149.79
728.19	47981.86
728.38	48684.31
728.56	47717.67
728.75	48192.80
728.94	48272.67
729.12	47926.56
729.31	48198.94
729.50	48114.98
729.69	48430.36
729.87	48184.61
730.06	48114.98
730.25	47811.88
730.43	47828.26
730.62	47906.08
730.81	47803.69
730.99	48110.88
731.18	47566.12
731.37	48307.49
731.55	47822.12
731.74	48102.69
731.93	48049.44
732.11	47562.03
732.30	47758.63
732.49	48010.53
732.67	48020.77
732.86	47711.53
733.05	47654.18
733.23	47328.56
733.42	47535.40
733.61	47496.49
733.79	47516.97
733.98	47830.31
734.17	47652.14
734.35	47746.34
734.54	47793.45
734.73	47908.13
734.91	47611.18
735.10	47490.35
735.29	48000.29
735.47	47490.35
735.66	47519.02
735.84	47613.23
736.03	47138.10
736.22	47703.34
736.40	47187.25
736.59	47240.50
736.78	47164.72
736.96	47443.24
737.15	46931.25
737.33	46941.49
737.52	47256.88
737.71	46976.31
737.89	47129.90
738.08	47062.32
738.27	46439.74
738.45	47033.65
738.64	47111.47
738.82	47299.89
739.01	46736.69
739.20	46597.43
739.38	47064.37
739.57	46945.59
739.75	46871.86
739.94	46714.17
740.13	46824.76
740.31	46861.62
740.50	46660.92
740.68	46691.64
740.87	46961.97
741.06	46996.79
741.24	46560.57
741.43	46122.30
741.61	46640.44
741.80	46363.96
741.99	46406.97
742.17	46241.09
742.36	46480.70
742.54	46241.09
742.73	46083.39
742.91	46202.18
743.10	46120.26
743.29	46310.72
743.47	46503.23
743.66	46105.92
743.84	46054.72
744.03	46196.03
744.21	46083.39
744.40	46081.34
744.59	46046.53
744.77	46046.53
744.96	45960.51
745.14	45774.15
745.33	46388.54
745.51	45956.42
745.70	46140.74
745.88	45882.69
746.07	46382.40
746.26	45684.04
746.44	45487.43
746.63	45733.19
746.81	45718.85
747.00	45440.33
747.18	45749.57
747.37	45094.22
747.55	45432.14
747.74	45983.04
747.92	45344.08
748.11	45708.61
748.29	45385.04
748.48	45706.57
748.66	45575.50
748.85	45055.31
749.03	45102.42
749.22	45010.26
749.41	44877.14
749.59	45192.53
749.78	44807.51
749.96	44574.04
750.15	45124.94
750.33	45030.74
750.52	44883.28
750.70	45016.40
750.89	44791.12
751.07	44627.29
751.26	44741.97
751.44	44741.97
751.63	44752.21
751.81	44877.14
752.00	44758.36
752.18	44801.36
752.37	44498.26
752.55	44344.67
752.74	44739.93
752.92	44471.64
753.10	44320.09
753.29	44645.72
753.47	44391.77
753.66	43978.08
753.84	44602.71
754.03	44377.43
754.21	44252.51
754.40	44262.75
754.58	44455.26
754.77	44078.43
754.95	43885.92
755.14	43810.15
755.32	44209.50
755.51	43406.70
755.69	43701.61
755.88	44057.95
756.06	43914.59
756.24	43648.36
756.43	43570.54
756.61	43955.55
756.80	43867.49
756.98	43437.42
757.17	43390.31
757.35	43629.93
757.54	43554.15
757.72	43707.75
757.90	43437.42
758.09	43199.85
758.27	43328.87
758.46	43230.57
758.64	43732.32
758.83	43210.09
759.01	43414.89
759.19	43490.66
759.38	42915.19
759.56	43582.82
759.75	43453.80
759.93	43007.34
760.12	42737.01
760.30	43208.04
760.48	42845.55
760.67	42919.28
760.85	43042.16
761.04	43038.06
761.22	43154.80
761.40	42968.43
761.59	42806.64
761.77	42763.64
761.96	42859.89
762.14	42700.15
762.32	42542.45
762.51	42431.86
762.69	42538.36
762.88	42415.48
763.06	43048.30
763.24	42458.49
763.43	42614.13
763.61	42448.25
763.80	42384.76
763.98	42521.98
764.16	42319.23
764.35	42024.32
764.53	42155.39
764.72	42325.37
764.90	42145.15
765.08	42167.68
765.27	42233.21
765.45	41987.46
765.63	41866.63
765.82	42239.36
766.00	41807.23
766.18	42208.64
766.37	41997.70
766.55	41999.74
766.74	42052.99
766.92	41999.74
767.10	41862.53
767.29	41450.89
767.47	41594.25
767.65	41983.36
767.84	41483.66
768.02	41796.99
768.20	41190.80
768.39	41409.93
768.57	41764.23
768.75	41622.92
768.94	41192.84
769.12	41379.21
769.30	40949.14
769.49	41272.71
769.67	41244.04
769.85	40465.81
770.04	41424.26
770.22	40773.01
770.40	40551.83
770.59	40723.86
770.77	41221.52
770.95	40981.90
771.14	40695.19
771.32	40496.53
771.50	40054.17
771.69	40596.88
771.87	40859.02
772.05	40580.50
772.24	40175.00
772.42	40351.13
772.60	40603.03
772.78	40344.98
772.97	40129.95
773.15	40508.82
773.33	40347.03
773.52	39982.49
773.70	40283.55
773.88	40834.45
774.07	40232.35
774.25	40293.79
774.43	40600.98
774.61	40596.88
774.80	40301.98
774.98	40383.90
775.16	40390.04
775.34	40398.23
775.53	40527.25
775.71	40414.62
775.89	40324.50
776.08	40588.69
776.26	40498.58
776.44	40426.90
776.62	40289.69
776.81	40492.44
776.99	40580.50
777.17	40449.43
777.35	40410.52
777.54	40764.82
777.72	40553.88
777.90	40459.67
778.08	40930.70
778.27	40631.70
778.45	40840.59
778.63	41215.37
778.81	40951.18
779.00	41270.67
779.18	40795.54
779.36	40938.90
779.54	40986.00
779.73	40744.34
779.91	41375.11
780.09	40916.37
780.27	41340.30
780.46	40986.00
780.64	41416.07
780.82	41299.34
781.00	41487.75
781.19	41321.87
781.37	41538.95
781.55	41002.38
781.73	41383.30
781.91	41104.78
782.10	41471.37
782.28	41299.34
782.46	41481.61
782.64	41457.03
782.82	41282.95
783.01	41520.52
783.19	41844.10
783.37	41944.45
783.55	41225.61
783.74	41295.24
783.92	41244.04
784.10	42179.96
784.28	41579.91
784.46	41512.33
784.64	41170.32
784.83	41942.40
785.01	41862.53
785.19	41919.87
785.37	41862.53
785.55	41620.87
785.74	41608.58
785.92	41418.12
786.10	41704.84
786.28	41727.36
786.46	41743.75
786.64	41072.01
786.83	41268.62
787.01	41596.29
787.19	41162.12
787.37	41465.22
787.55	41274.76
787.74	41172.36
787.92	41309.58
788.10	41145.74
788.28	40652.18
788.46	41184.65
788.64	40295.83
788.82	41289.10
789.01	41131.40
789.19	40973.71
789.37	40867.22
789.55	41215.37
789.73	40263.07
789.91	40254.87
790.09	40801.68
790.28	40396.18
790.46	40056.22
790.64	40994.19
790.82	40613.27
791.00	40443.29
791.18	40426.90
791.36	40551.83
791.55	39941.53
791.73	39923.10
791.91	40005.02
792.09	39785.89
792.27	39882.14
792.45	40101.28
792.63	39550.37
792.81	39529.89
793.00	39488.93
793.18	39372.20
793.36	39505.32
793.54	39323.05
793.72	39515.56
793.90	39431.59
794.08	39126.44
794.26	39314.86
794.44	38966.70
794.62	38749.62
794.81	39179.69
794.99	38845.87
795.17	38532.53
795.35	38671.79
795.53	38899.12
795.71	39001.52
795.89	38475.19
796.07	38032.83
796.25	38192.57
796.43	38426.04
796.61	37963.20
796.80	38331.83
796.98	38122.94
797.16	37907.90
797.34	37842.37
797.52	37604.80
797.70	38032.83
797.88	38208.95
798.06	37475.78
798.24	37701.06
798.42	37092.81
798.60	37254.60
798.78	37324.23
798.96	37291.46
799.14	37156.30
799.32	37553.60
799.51	36734.42
799.69	37365.19
799.87	37062.09
800.05	36552.15
800.23	36599.25
800.41	36984.27
800.59	36828.62
800.77	36601.30
800.95	36261.33
801.13	36556.24
801.31	36333.01
801.49	36406.74
801.67	36095.45
801.85	36081.11
802.03	35530.21
802.21	35692.00
802.39	35608.03
802.57	35976.67
802.75	35493.35
802.93	35816.93
803.11	35634.66
803.29	35337.70
803.47	35030.51
803.65	34977.26
803.83	35161.58
804.01	34964.97
804.19	34885.10
804.37	34739.69
804.55	34856.43
804.73	34739.69
804.91	34913.77
805.09	34881.00
805.27	34815.47
805.45	34766.32
805.63	35059.18
805.81	34399.73
805.99	34586.10
806.17	34747.89
806.35	34723.31
806.53	34119.16
806.71	34295.28
806.89	34500.08
807.07	33990.14
807.25	34217.46
807.43	33797.63
807.61	34438.64
807.79	33945.08
807.97	33926.65
808.15	33576.45
808.33	33431.04
808.51	33379.84
808.69	33488.38
808.87	33404.42
809.05	33166.85
809.23	32990.73
809.41	33127.94
809.59	32837.13
809.77	33334.79
809.95	32808.46
810.13	33166.85
810.31	32845.32
810.49	32544.27
810.67	32609.81
810.84	32904.71
811.02	32517.65
811.20	32636.43
811.38	32448.02
811.56	32198.16
811.74	32169.49
811.92	32286.23
812.10	32314.90
812.28	32269.84
812.46	32175.64
812.64	32163.35
812.82	31741.47
813.00	32001.56
813.18	31933.98
813.36	31761.95
813.53	31884.83
813.71	31735.32
813.89	31778.33
814.07	31960.60
814.25	31868.44
814.43	31884.83
814.61	31323.68
814.79	31442.46
814.97	31489.57
815.15	31161.89
815.33	31141.41
815.50	31022.63
815.68	31215.14
815.86	31159.84
816.04	30709.29
816.22	30801.45
816.40	30660.14
816.58	30721.58
816.76	30703.15
816.94	30510.64
817.11	30615.08
817.29	30418.48
817.47	30592.56
817.65	30719.53
817.83	30410.29
818.01	30244.40
818.19	30268.98
818.37	30125.62
818.54	30256.69
818.72	30174.77
818.90	30031.41
819.08	29988.41
819.26	30228.02
819.44	29802.04
819.62	29998.65
819.80	29808.19
819.97	30055.99
820.15	29595.20
820.33	29578.81
820.51	29705.79
820.69	29466.17
820.87	29494.85
821.05	29472.32
821.22	29548.09
821.40	29187.65
821.58	29345.34
821.76	29222.47
821.94	29500.99
822.12	29341.25
822.29	29283.91
822.47	28771.91
822.65	29197.89
822.83	29263.43
823.01	29308.48
823.19	29126.21
823.36	28700.23
823.54	28741.19
823.72	28544.59
823.90	29044.29
824.08	28511.82
824.25	28898.89
824.43	28515.92
824.61	28636.75
824.79	28581.45
824.97	28309.07
825.15	28628.56
825.32	28511.82
825.50	28139.09
825.68	28440.14
825.86	28415.57
826.04	28147.28
826.21	28200.53
826.39	28141.14
826.57	28241.49
826.75	28114.52
826.93	27983.44
827.10	27635.29
827.28	27911.77
827.46	27913.81
827.64	28071.51
827.81	27661.91
827.99	28053.08
828.17	27727.45
828.35	27250.27
828.53	27410.01
828.70	27590.24
828.88	27729.50
829.06	27432.54
829.24	27608.67
829.41	27293.28
829.59	27510.36
829.77	27416.16
829.95	27532.89
830.12	27133.54
830.30	27115.11
830.48	27340.38
830.66	27324.00
830.84	27317.86
831.01	26990.18
831.19	27098.72
831.37	27139.68
831.55	26783.34
831.72	27025.00
831.90	26715.75
832.08	26910.31
832.25	26846.82
832.43	27086.43
832.61	26777.19
832.79	26656.36
832.96	26689.13
833.14	26742.38
833.32	26666.60
833.50	26488.43
833.67	26543.72
833.85	26562.15
834.03	26150.51
834.20	26373.74
834.38	26441.32
834.56	26809.96
834.74	26160.75
834.91	26388.08
835.09	26117.75
835.27	26201.71
835.44	26109.55
835.62	26017.40
835.80	25867.89
835.98	25966.20
836.15	25867.89
836.33	25740.92
836.51	26220.14
836.68	25964.15
836.86	25937.52
837.04	25898.61
837.21	25724.54
837.39	26103.41
837.57	26023.54
837.75	26013.30
837.92	25482.88
838.10	25384.57
838.28	25382.52
838.45	25589.37
838.63	25394.81
838.81	25697.91
838.98	25468.54
839.16	25259.65
839.34	25255.55
839.51	25542.27
839.69	25060.99
839.87	25216.64
840.04	24825.48
840.22	25013.89
840.40	25388.67
840.57	24864.39
840.75	25011.84
840.93	24766.09
841.10	24899.20
841.28	25312.89
841.46	24721.03
841.63	25013.89
841.81	25159.30
841.98	24745.61
842.16	24686.22
842.34	24661.64
842.51	24370.83
842.69	24813.19
842.87	24551.05
843.04	24573.58
843.22	24319.63
843.40	24559.24
843.57	24424.08
843.75	24311.44
843.92	24419.98
844.10	24358.54
844.28	24276.62
844.45	24317.58
844.63	24215.18
844.81	24065.68
844.98	24530.57
845.16	24184.46
845.33	24184.46
845.51	24174.22
845.69	23985.81
845.86	24059.54
846.04	23858.84
846.21	24049.30
846.39	23957.14
846.57	24114.83
846.74	24006.29
846.92	23764.63
847.09	23940.75
847.27	23574.17
847.45	23840.40
847.62	23707.29
847.80	23881.36
847.97	23824.02
848.15	23738.01
848.32	23627.42
848.50	23682.71
848.68	23488.15
848.85	23393.95
849.03	23002.78
849.20	23424.67
849.38	23150.24
849.56	23348.89
849.73	22947.49
849.91	23262.88
850.08	23422.62
850.26	22916.77
850.43	22982.31
850.61	23008.93
850.78	22949.54
850.96	23013.02
851.14	22804.13
851.31	23039.65
851.49	22929.06
851.66	22929.06
851.84	22869.67
852.01	23058.08
852.19	22685.35
852.36	22861.48
852.54	22822.56
852.71	22515.37
852.89	22691.49
853.07	22701.73
853.24	22734.50
853.42	22599.34
853.59	22732.45
853.77	22750.88
853.94	22580.90
854.12	23049.89
854.29	22406.83
854.47	22521.51
854.64	22570.66
854.82	22507.18
854.99	22486.70
855.17	21993.14
855.34	22261.42
855.52	22558.38
855.69	22388.39
855.87	22044.34
856.04	22236.84
856.22	22019.76
856.39	22212.27
856.57	22314.67
856.74	22011.57
856.92	21954.22
857.09	21954.22
857.27	21882.55
857.44	21896.88
857.62	21997.23
857.79	21986.99
857.97	21776.05
858.14	21831.35
858.32	21653.17
858.49	21581.49
858.67	21595.83
858.84	21571.25
859.02	21647.03
859.19	21589.69
859.37	21466.81
859.54	21466.81
859.72	21675.70
859.89	21360.31
860.06	21479.10
860.24	21378.75
860.41	21671.61
860.59	21155.52
860.76	21327.55
860.94	21083.84
861.11	21380.79
861.29	21192.38
861.46	21280.44
861.64	21042.88
861.81	21096.13
861.98	21225.15
862.16	21208.76
862.33	20596.42
862.51	20762.31
862.68	21120.70
862.86	20760.26
863.03	20938.43
863.21	21059.26
863.38	20717.25
863.55	20534.98
863.73	20752.07
863.90	20723.40
864.08	20813.51
864.25	20563.65
864.43	20778.69
864.60	20897.47
864.77	20205.26
864.95	20616.90
865.12	20248.27
865.30	20854.47
865.47	20367.05
865.64	20192.97
865.82	20657.86
865.99	20481.74
866.17	20332.23
866.34	20453.06
866.51	20047.57
866.69	20127.44
866.86	20477.64
867.04	20264.65
867.21	20149.96
867.38	19693.27
867.56	19988.18
867.73	19766.99
867.91	19871.44
868.08	19936.98
868.25	19875.54
868.43	19719.89
868.60	19601.11
868.78	19521.24
868.95	19865.30
869.12	19701.46
869.30	19666.64
869.47	19857.10
869.64	19908.30
869.82	19457.75
869.99	19586.77
870.16	19586.77
870.34	19601.11
870.51	19543.77
870.69	19044.06
870.86	19558.10
871.03	19420.89
871.21	19064.54
871.38	19812.05
871.55	19023.58
871.73	18958.05
871.90	19242.71
872.07	19154.65
872.25	18706.15
872.42	19125.98
872.59	18845.41
872.77	19021.53
872.94	19324.63
873.11	19013.34
873.29	19015.39
873.46	18925.28
873.63	18820.83
873.81	18685.67
873.98	18589.41
874.15	18890.46
874.33	18413.29
874.50	18478.82
874.67	18702.05
874.85	18378.47
875.02	18519.78
875.19	18401.00
875.37	18595.56
875.54	18304.74
875.71	18310.89
875.88	18001.65
876.06	18271.98
876.23	18044.65
876.40	18181.87
876.58	18087.66
876.75	18343.66
876.92	17917.68
877.10	18069.23
877.27	17884.91
877.44	17837.81
877.61	17893.10
877.79	17946.35
877.96	17802.99
878.13	17727.22
878.31	17764.08
878.48	17544.95
878.65	17665.78
878.82	17518.32
879.00	17573.62
879.17	17633.01
879.34	17383.16
879.51	17354.49
879.69	17415.93
879.86	17481.46
880.03	17381.11
880.21	17168.12
880.38	17499.89
880.55	17503.99
880.72	17213.18
880.90	17395.45
881.07	17149.69
881.24	17241.85
881.41	17227.51
881.59	17153.79
881.76	17057.53
881.93	17329.91
882.10	17086.20
882.28	17059.58
882.45	17329.91
882.62	16922.37
882.79	17469.17
882.96	16848.64
883.14	17145.59
883.31	16920.32
883.48	17133.31
883.65	17053.44
883.83	17080.06
884.00	16713.47
884.17	16723.71
884.34	16664.32
884.51	16623.36
884.69	16609.03
884.86	16361.22
885.03	16781.06
885.20	16338.69
885.38	16539.40
885.55	16518.92
885.72	16682.75
885.89	16387.85
886.06	16477.96
886.24	16424.71
886.41	16361.22
886.58	16768.77
886.75	16740.10
886.92	16408.33
887.10	16496.39
887.27	16330.50
887.44	16293.64
887.61	16441.09
887.78	16475.91
887.95	16426.76
888.13	16168.71
888.30	16099.08
888.47	16074.51
888.64	16226.06
888.81	16273.16
888.99	16189.19
889.16	15576.85
889.33	16275.21
889.50	16131.85
889.67	16011.02
889.84	15863.57
890.01	16209.67
890.19	15732.50
890.36	15900.43
890.53	15804.17
890.70	15859.47
890.87	15937.29
891.04	15570.71
891.22	15812.37
891.39	15724.30
891.56	15707.92
891.73	15757.07
891.90	15666.96
892.07	15413.01
892.24	15623.95
892.42	15681.30
892.59	15449.88
892.76	15468.31
892.93	15333.14
893.10	15523.60
893.27	15630.10
893.44	15218.46
893.61	15279.89
893.79	15501.08
893.96	15396.63
894.13	15238.94
894.30	15574.80
894.47	15501.08
894.64	15333.14
894.81	15181.59
894.98	15394.58
895.15	15533.84
895.33	15234.84
895.50	15253.27
895.67	15367.96
895.84	15255.32
896.01	15490.84
896.18	15015.71
896.35	15652.63
896.52	14995.23
896.69	15294.23
896.86	15118.11
897.04	15286.04
897.21	15296.28
897.38	15077.15
897.55	15126.30
897.72	15212.31
897.89	15312.66
898.06	15253.27
898.23	15001.37
898.40	15261.46
898.57	15091.48
898.74	15052.57
898.91	15206.17
899.08	15253.27
899.26	15191.83
899.43	15329.05
899.60	15177.50
899.77	15349.53
899.94	15130.39
900.11	14960.41
900.28	14960.41
900.45	14874.40
900.62	15013.66
900.79	15298.33
900.96	15030.04
901.13	15173.40
901.30	15027.99
901.47	14962.46
901.64	15136.54
901.81	15060.76
901.98	15134.49
902.15	15185.69
902.32	15005.47
902.49	14919.45
902.66	15066.91
902.83	15150.87
903.01	14950.17
903.18	15077.15
903.35	15294.23
903.52	14909.21
903.69	14933.79
903.86	15001.37
904.03	14833.44
904.20	15068.95
904.37	15079.19
904.54	14913.31
904.71	14956.32
904.88	15101.72
905.05	14927.64
905.22	15075.10
905.39	14935.84
905.56	14739.23
905.73	14851.87
905.90	14968.60
906.07	14995.23
906.24	15339.29
906.41	15025.95
906.58	14870.30
906.75	15001.37
906.92	14878.49
907.09	15005.47
907.26	14944.03
907.43	14946.08
907.60	14780.19
907.77	15015.71
907.93	14898.97
908.10	14968.60
908.27	14958.36
908.44	14794.53
908.61	14810.91
908.78	14700.32
908.95	14796.57
909.12	14831.39
909.29	14884.64
909.46	15091.48
909.63	14735.14
909.80	14925.60
909.97	14984.99
910.14	14948.12
910.31	14968.60
910.48	14890.78
910.65	14839.58
910.82	14722.85
910.99	14759.71
911.16	14647.07
911.33	14642.98
911.50	14679.84
911.66	14692.13
911.83	14737.18
912.00	14548.77
912.17	14608.16
912.34	14561.06
912.51	14487.33
912.68	14473.00
912.85	14380.84
913.02	14610.21
913.19	14599.97
913.36	14417.70
913.53	14540.58
913.70	14493.47
913.86	14753.57
914.03	14372.64
914.20	14319.40
914.37	14251.81
914.54	14499.62
914.71	14290.73
914.88	14534.43
915.05	14159.66
915.22	14067.50
915.39	14221.10
915.55	14237.48
915.72	14182.18
915.89	14143.27
916.06	13850.41
916.23	13891.37
916.40	13926.19
916.57	13698.86
916.74	14073.64
916.91	13946.67
917.07	13791.02
917.24	13887.28
917.41	13696.82
917.58	13745.97
917.75	13655.86
917.92	13655.86
918.09	13614.90
918.26	13635.38
918.42	13522.74
918.59	13473.59
918.76	13217.59
918.93	13315.89
919.10	13221.69
919.27	13346.61
919.44	13442.87
919.60	13393.72
919.77	13207.35
919.94	13049.66
920.11	13088.57
920.28	13295.41
920.45	13178.68
920.61	12791.61
920.78	12982.07
920.95	12824.38
921.12	13027.13
921.29	13008.70
921.46	12902.20
921.62	12599.10
921.79	12869.44
921.96	12879.68
922.13	12640.06
922.30	12402.50
922.47	12648.26
922.63	12470.08
922.80	12601.15
922.97	12488.51
923.14	12175.17
923.31	12498.75
923.47	12220.23
923.64	12382.02
923.81	12224.33
923.98	12222.28
924.15	12066.63
924.32	11960.14
924.48	12187.46
924.65	11951.95
924.82	11865.93
924.99	11763.53
925.15	11757.39
925.32	12009.29
925.49	11511.63
925.66	11824.97
925.83	11706.19
925.99	11716.43
926.16	11634.51
926.33	11611.98
926.50	11638.61
926.67	11628.37
926.83	11611.98
927.00	11509.58
927.17	11433.81
927.34	11224.92
927.50	11370.32
927.67	11405.14
927.84	11229.01
928.01	11020.12
928.17	11304.79
928.34	11231.06
928.51	11171.67
928.68	10944.34
928.84	11063.13
929.01	10747.74
929.18	10624.86
929.35	10698.59
929.51	10798.94
929.68	10710.88
929.85	10602.33
930.02	10598.24
930.18	10553.18
930.35	10528.61
930.52	10504.03
930.69	10563.42
930.85	10438.50
931.02	10270.56
931.19	10168.16
931.36	10141.54
931.52	10362.72
931.69	10278.76
931.86	10340.19
932.02	10151.78
932.19	10190.69
932.36	9971.56
932.53	9867.11
932.69	9899.88
932.86	10170.21
933.03	9856.87
933.19	9699.18
933.36	9650.03
933.53	9799.53
933.70	9867.11
933.86	9944.94
934.03	9844.59
934.20	9308.02
934.36	9576.30
934.53	9242.48
934.70	9215.86
934.86	9342.83
935.03	9092.98
935.20	9203.57
935.36	9205.62
935.53	9095.03
935.70	8845.18
935.86	8900.47
936.03	8871.80
936.20	8656.76
936.36	8828.79
936.53	8441.73
936.70	8615.80
936.86	8714.11
937.03	8511.36
937.20	8339.33
937.36	8269.70
937.53	8054.66
937.70	8017.80
937.86	7939.97
938.03	7919.50
938.20	7962.50
938.36	7675.79
938.53	7759.75
938.70	7569.29
938.86	7526.29
939.03	7454.61
939.20	7247.76
939.36	7395.22
939.53	7198.61
939.70	7251.86
939.86	6913.94
940.03	6735.77
940.19	6920.09
940.36	6825.88
940.53	6989.72
940.69	6623.13
940.86	6639.51
941.03	6557.60
941.19	6389.66
941.36	6522.78
941.52	6467.49
941.69	6252.45
941.86	6373.28
942.02	6326.18
942.19	6123.43
942.35	6090.66
942.52	6010.79
942.69	6068.13
942.85	6156.19
943.02	6002.60
943.18	5863.33
943.35	5857.19
943.52	5717.93
943.68	5734.31
943.85	5746.60
944.01	5633.96
944.18	5646.25
944.35	5728.17
944.51	5629.87
944.68	5547.95
944.84	5535.66
945.01	5588.91
945.17	5474.22
945.34	5547.95
945.51	5394.35
945.67	5414.83
945.84	5560.24
946.00	5451.69
946.17	5476.27
946.33	5328.81
946.50	5502.89
946.67	5359.53
946.83	5285.81
947.00	5441.45
947.16	5296.05
947.33	5304.24
947.49	5439.40
947.66	5287.86
947.82	5318.57
947.99	5240.75
948.16	5410.73
948.32	5316.53
948.49	5472.17
948.65	5455.79
948.82	5310.38
948.98	5246.90
949.15	5189.55
949.31	5439.40
949.48	5396.40
949.64	5382.06
949.81	5449.64
949.97	5226.42
950.14	5349.29
950.30	5296.05
950.47	5416.88
950.63	5242.80
950.80	5267.38
950.96	5371.82
951.13	5332.91
951.30	5261.23
951.46	5435.31
951.63	5369.77
951.79	5355.44
951.96	5642.15
952.12	5416.88
952.29	5439.40
952.45	5224.37
952.62	5429.17
952.78	5482.41
952.94	5367.73
953.11	5414.83
953.27	5332.91
953.44	5562.28
953.60	5365.68
953.77	5410.73
953.93	5433.26
954.10	5402.54
954.26	5410.73
954.43	5431.21
954.59	5631.91
954.76	5572.52
954.92	5597.10
955.09	5441.45
955.25	5425.07
955.42	5384.11
955.58	5568.43
955.75	5570.48
955.91	5337.01
956.07	5466.03
956.24	5445.55
956.40	5461.93
956.57	5504.94
956.73	5457.84
956.90	5488.56
957.06	5353.39
957.23	5506.99
957.39	5402.54
957.56	5441.45
957.72	5412.78
957.88	5447.60
958.05	5566.38
958.21	5564.33
958.38	5486.51
958.54	5435.31
958.71	5631.91
958.87	5500.84
959.03	5582.76
959.20	5515.18
959.36	5554.09
959.53	5492.65
959.69	5427.12
959.85	5566.38
960.02	5552.04
960.18	5685.16
960.35	5347.25
960.51	5629.87
960.68	5513.13
960.84	5468.08
961.00	5433.26
961.17	5506.99
961.33	5593.00
961.50	5683.11
961.66	5576.62
961.82	5484.46
961.99	5619.63
962.15	5463.98
962.31	5459.88
962.48	5574.57
962.64	5644.20
962.81	5306.29
962.97	5515.18
963.13	5490.60
963.30	5474.22
963.46	5310.38
963.62	5365.68
963.79	5455.79
963.95	5339.05
964.12	5394.35
964.28	5367.73
964.44	5347.25
964.61	5443.50
964.77	5373.87
964.93	5617.58
965.10	5414.83
965.26	5394.35
965.42	5435.31
965.59	5328.81
965.75	5332.91
965.92	5334.96
966.08	5328.81
966.24	5377.97
966.41	5314.48
966.57	5341.10
966.73	5392.30
966.90	5246.90
967.06	5257.14
967.22	5449.64
967.39	5304.24
967.55	5158.83
967.71	5255.09
967.88	5375.92
968.04	5144.50
968.20	5263.28
968.37	5265.33
968.53	5230.51
968.69	5218.22
968.85	5267.38
969.02	5169.07
969.18	5253.04
969.34	5154.74
969.51	5300.14
969.67	5271.47
969.83	5173.17
970.00	5185.46
970.16	5156.79
970.32	5185.46
970.48	5248.94
970.65	5179.31
970.81	5146.55
970.97	5154.74
971.14	4974.52
971.30	5160.88
971.46	5015.48
971.63	5042.10
971.79	5146.55
971.95	5066.67
972.11	4960.18
972.28	5033.91
972.44	5031.86
972.60	4997.04
972.76	5081.01
972.93	4962.23
973.09	5044.15
973.25	5095.35
973.42	4906.93
973.58	4982.71
973.74	4894.65
973.90	4997.04
974.07	4806.58
974.23	4966.32
974.39	4921.27
974.55	4968.37
974.72	4904.89
974.88	4802.49
975.04	4929.46
975.20	4755.38
975.37	4880.31
975.53	4896.69
975.69	4927.41
975.85	4771.77
976.01	4693.94
976.18	4659.13
976.34	4902.84
976.50	4890.55
976.66	4784.06
976.83	4798.39
976.99	4704.18
977.15	4665.27
977.31	4698.04
977.47	4618.17
977.64	4648.89
977.80	4636.60
977.96	4704.18
978.12	4624.31
978.29	4509.63
978.45	4583.35
978.61	4681.66
978.77	4736.95
978.93	4710.33
979.10	4478.91
979.26	4558.78
979.42	4429.76
979.58	4493.24
979.74	4446.14
979.91	4677.56
980.07	4474.81
980.23	4497.34
980.39	4507.58
980.55	4569.02
980.71	4419.52
980.88	4409.28
981.04	4513.72
981.20	4325.31
981.36	4478.91
981.52	4372.41
981.68	4499.39
981.85	4390.84
982.01	4480.96
982.17	4390.84
982.33	4380.61
982.49	4497.34
982.65	4399.04
982.82	4431.80
982.98	4317.12
983.14	4173.76
983.30	4374.46
983.46	4313.02
983.62	4286.40
983.79	4245.44
983.95	4368.32
984.11	4147.14
984.27	4288.45
984.43	4245.44
984.59	4327.36
984.75	4349.89
984.91	4120.51
985.08	4190.14
985.24	4249.54
985.40	4177.86
985.56	4108.23
985.72	4089.79
985.88	4249.54
986.04	4173.76
986.20	4102.08
986.37	4134.85
986.53	4063.17
986.69	4153.28
986.85	4077.51
987.01	3991.49
987.17	4138.94
987.33	4046.79
987.49	4042.69
987.65	3944.39
987.82	3989.44
987.98	3991.49
988.14	3944.39
988.30	4091.84
988.46	3919.81
988.62	3880.90
988.78	3905.48
988.94	3950.53
989.10	3909.57
989.26	3817.41
989.42	3880.90
989.59	3821.51
989.75	3928.00
989.91	3966.92
990.07	3676.10
990.23	3907.52
990.39	3813.32
990.55	3852.23
990.71	3811.27
990.87	3794.89
991.03	3868.61
991.19	3850.18
991.35	3704.78
991.51	3805.13
991.67	3798.98
991.83	3729.35
992.00	3825.61
992.16	3833.80
992.32	3764.17
992.48	3647.43
992.64	3803.08
992.80	3743.69
992.96	3616.71
993.12	3729.35
993.28	3723.21
993.44	3657.67
993.60	3669.96
993.76	3600.33
993.92	3577.80
994.08	3624.90
994.24	3631.05
994.40	3651.53
994.56	3588.04
994.72	3565.51
994.88	3573.71
995.04	3653.58
995.20	3563.47
995.36	3563.47
995.52	3549.13
995.68	3467.21
995.84	3526.60
996.00	3571.66
996.16	3585.99
996.32	3512.27
996.48	3456.97
996.64	3487.69
996.80	3405.77
996.96	3434.44
997.12	3391.44
997.28	3327.95
997.44	3373.00
997.60	3370.96
997.76	3321.81
997.92	3416.01
998.08	3416.01
998.24	3334.09
998.40	3387.34
998.56	3407.82
998.72	3299.28
998.88	3424.20
999.04	3317.71
999.20	3352.52
999.36	3317.71
999.52	3387.34
999.68	3311.57
999.84	3424.20
1000.00	3272.65
1000.16	3317.71
1000.32	3213.26
1000.48	3289.04
1000.64	3221.45
1000.80	3235.79
1000.95	3207.12
1001.11	3381.20
1001.27	3194.83
1001.43	3282.89
1001.59	3112.91
1001.75	3231.69
1001.91	3200.98
1002.07	3104.72
1002.23	3074.00
1002.39	3110.86
1002.55	3258.32
1002.71	3174.35
1002.87	3076.05
1003.03	3108.82
1003.19	3094.48
1003.34	3065.81
1003.50	3067.86
1003.66	3084.24
1003.82	3166.16
1003.98	3061.71
1004.14	3043.28
1004.30	2996.18
1004.46	2987.99
1004.62	3016.66
1004.78	3096.53
1004.94	2973.65
1005.09	3084.24
1005.25	3041.23
1005.41	2891.73
1005.57	2916.31
1005.73	2932.69
1005.89	2922.45
1006.05	3069.91
1006.21	2998.23
1006.37	2846.68
1006.52	2987.99
1006.68	2953.17
1006.84	3069.91
1007.00	2965.46
1007.16	2985.94
1007.32	3008.47
1007.48	2863.06
1007.64	2889.68
1007.79	2987.99
1007.95	2754.52
1008.11	2936.79
1008.27	2822.10
1008.43	2893.78
1008.59	2922.45
1008.75	2877.40
1008.91	2805.72
1009.06	2861.01
1009.22	2750.42
1009.38	2799.57
1009.54	2856.92
1009.70	2734.04
1009.86	2822.10
1010.01	2838.48
1010.17	2740.18
1010.33	2873.30
1010.49	2770.90
1010.65	2756.57
1010.81	2762.71
1010.96	2715.61
1011.12	2738.13
1011.28	2705.37
1011.44	2779.09
1011.60	2654.17
1011.76	2682.84
1011.91	2736.09
1012.07	2541.53
1012.23	2598.87
1012.39	2605.02
1012.55	2676.70
1012.71	2639.83
1012.86	2621.40
1013.02	2686.94
1013.18	2633.69
1013.34	2650.07
1013.50	2611.16
1013.65	2582.49
1013.81	2574.30
1013.97	2570.20
1014.13	2672.60
1014.29	2617.30
1014.44	2707.41
1014.60	2531.29
1014.76	2514.91
1014.92	2598.87
1015.07	2559.96
1015.23	2539.48
1015.39	2508.76
1015.55	2539.48
1015.71	2512.86
1015.86	2557.91
1016.02	2545.63
1016.18	2449.37
1016.34	2508.76
1016.49	2578.39
1016.65	2643.93
1016.81	2437.08
1016.97	2521.05
1017.12	2564.06
1017.28	2289.63
1017.44	2396.12
1017.60	2422.75
1017.75	2410.46
1017.91	2449.37
1018.07	2482.14
1018.23	2519.00
1018.38	2482.14
1018.54	2387.93
1018.70	2363.36
1018.86	2422.75
1019.01	2392.03
1019.17	2486.23
1019.33	2539.48
1019.49	2420.70
1019.64	2451.42
1019.80	2459.61
1019.96	2469.85
1020.12	2453.47
1020.27	2306.01
1020.43	2355.16
1020.59	2396.12
1020.74	2338.78
1020.90	2328.54
1021.06	2402.27
1021.22	2349.02
1021.37	2379.74
1021.53	2232.29
1021.69	2349.02
1021.84	2275.29
1022.00	2338.78
1022.16	2287.58
1022.31	2205.66
1022.47	2326.49
1022.63	2340.83
1022.79	2195.42
1022.94	2254.81
1023.10	2308.06
1023.26	2277.34
1023.41	2232.29
1023.57	2332.64
1023.73	2238.43
1023.88	2349.02
1024.04	2238.43
1024.20	2267.10
1024.35	2281.44
1024.51	2232.29
1024.67	2228.19
1024.82	2285.53
1024.98	2220.00
1025.14	2205.66
1025.29	2224.09
1025.45	2314.20
1025.61	2158.56
1025.76	2213.85
1025.92	2205.66
1026.08	2209.76
1026.23	2160.61
1026.39	2344.92
1026.55	2271.20
1026.70	2189.28
1026.86	2146.27
1027.02	2238.43
1027.17	2183.13
1027.33	2277.34
1027.48	2133.98
1027.64	2203.61
1027.80	2176.99
1027.95	2174.94
1028.11	2076.64
1028.27	2117.60
1028.42	2185.18
1028.58	2105.31
1028.73	2125.79
1028.89	2000.87
1029.05	2205.66
1029.20	2125.79
>>>>>End Processed Spectral Data<<<<<
