SpectraSuite Data File
++++++++++++++++++++++++++++++++++++
Date: Fri Jun 02 14:49:29 CEST 2017
User: INFO_000
Dark Spectrum Present: No
Reference Spectrum Present: No
Number of Sampled Component Spectra: 1
Spectrometers: USB4H00879
Integration Time (usec): 80000 (USB4H00879)
Spectra Averaged: 1 (USB4H00879)
Boxcar Smoothing: 0 (USB4H00879)
Correct for Electrical Dark: No (USB4H00879)
Strobe/Lamp Enabled: No (USB4H00879)
Correct for Detector Non-linearity: No (USB4H00879)
Correct for Stray Light: No (USB4H00879)
Number of Pixels in Processed Spectrum: 3648
>>>>>Begin Processed Spectral Data<<<<<
345.13	1304.56
345.34	1304.56
345.56	1304.56
345.78	1251.31
345.99	1335.28
346.21	1679.33
346.42	1673.19
346.64	1705.96
346.86	1820.64
347.07	1679.33
347.29	1773.54
347.50	1624.04
347.72	1685.48
347.94	1742.82
348.15	1615.85
348.37	1576.94
348.59	1740.77
348.80	1689.57
349.02	1802.21
349.23	1888.23
349.45	1882.08
349.67	1939.43
349.88	1824.74
350.10	2015.20
350.31	1804.26
350.53	1826.79
350.75	2027.49
350.96	1724.39
351.18	1869.80
351.39	1816.55
351.61	1781.73
351.82	1916.90
352.04	1912.80
352.26	1863.65
352.47	1896.42
352.69	1953.76
352.90	1779.68
353.12	1910.75
353.34	1857.51
353.55	1929.19
353.77	1855.46
353.98	1820.64
354.20	1832.93
354.41	1953.76
354.63	1896.42
354.85	2025.44
355.06	1916.90
355.28	1830.88
355.49	1912.80
355.71	1894.37
355.92	1822.69
356.14	1869.80
356.35	1837.03
356.57	1869.80
356.79	1863.65
357.00	1882.08
357.22	1918.95
357.43	1957.86
357.65	1964.00
357.86	1851.36
358.08	1925.09
358.29	1996.77
358.51	1941.47
358.72	1976.29
358.94	1945.57
359.16	1920.99
359.37	1935.33
359.59	1865.70
359.80	1996.77
360.02	2045.92
360.23	1964.00
360.45	2043.87
360.66	1943.52
360.88	1847.27
361.09	1966.05
361.31	1990.63
361.52	1941.47
361.74	2060.26
361.95	2007.01
362.17	1910.75
362.38	2056.16
362.60	2021.35
362.81	1964.00
363.03	1912.80
363.24	1986.53
363.46	1980.39
363.67	2035.68
363.89	1998.82
364.10	1961.95
364.32	2060.26
364.53	2031.58
364.75	1925.09
364.96	2013.15
365.18	2019.30
365.39	1970.15
365.61	1974.24
365.82	2119.65
366.04	1986.53
366.25	1961.95
366.47	2043.87
366.68	2088.93
366.90	1945.57
367.11	2082.78
367.33	2072.54
367.54	2031.58
367.76	2052.06
367.97	2050.02
368.19	2062.30
368.40	2076.64
368.62	1961.95
368.83	1974.24
369.05	2152.42
369.26	2013.15
369.48	2060.26
369.69	2017.25
369.91	2095.07
370.12	1980.39
370.33	2088.93
370.55	1945.57
370.76	2019.30
370.98	2109.41
371.19	2052.06
371.41	2115.55
371.62	2068.45
371.84	2027.49
372.05	2166.75
372.27	2076.64
372.48	2093.02
372.69	2052.06
372.91	2226.14
373.12	2181.09
373.34	2064.35
373.55	2105.31
373.77	2129.89
373.98	2162.66
374.20	2127.84
374.41	2277.34
374.62	2144.22
374.84	2179.04
375.05	2133.98
375.27	2205.66
375.48	2224.09
375.70	2168.80
375.91	2220.00
376.12	2279.39
376.34	2199.52
376.55	2131.94
376.77	2176.99
376.98	2117.60
377.19	2142.18
377.41	2170.85
377.62	2230.24
377.84	2236.38
378.05	2328.54
378.27	2183.13
378.48	2308.06
378.69	2369.50
378.91	2346.97
379.12	2240.48
379.34	2279.39
379.55	2312.16
379.76	2287.58
379.98	2275.29
380.19	2238.43
380.41	2297.82
380.62	2301.92
380.83	2226.14
381.05	2246.62
381.26	2437.08
381.47	2246.62
381.69	2211.81
381.90	2351.07
382.12	2299.87
382.33	2244.57
382.54	2273.25
382.76	2285.53
382.97	2369.50
383.19	2213.85
383.40	2379.74
383.61	2363.36
383.83	2299.87
384.04	2361.31
384.25	2306.01
384.47	2328.54
384.68	2426.84
384.89	2346.97
385.11	2277.34
385.32	2400.22
385.54	2293.72
385.75	2367.45
385.96	2398.17
386.18	2453.47
386.39	2394.08
386.60	2349.02
386.82	2379.74
387.03	2543.58
387.24	2486.23
387.46	2363.36
387.67	2457.56
387.88	2572.25
388.10	2443.23
388.31	2457.56
388.52	2475.99
388.74	2533.34
388.95	2432.99
389.16	2568.15
389.38	2482.14
389.59	2549.72
389.80	2541.53
390.02	2506.71
390.23	2709.46
390.44	2516.95
390.66	2557.91
390.87	2553.82
391.08	2592.73
391.30	2738.13
391.51	2568.15
391.72	2684.89
391.94	2709.46
392.15	2641.88
392.36	2629.59
392.58	2566.10
392.79	2660.31
393.00	2635.74
393.22	2627.54
393.43	2756.57
393.64	2805.72
393.85	2752.47
394.07	2592.73
394.28	2693.08
394.49	2766.81
394.71	2791.38
394.92	2820.05
395.13	2680.79
395.35	2772.95
395.56	2781.14
395.77	2779.09
395.98	2727.89
396.20	2744.28
396.41	2879.44
396.62	2869.20
396.84	2906.07
397.05	2873.30
397.26	2768.85
397.47	2942.93
397.69	2762.71
397.90	3035.09
398.11	2867.16
398.32	2942.93
398.54	2949.08
398.75	2928.60
398.96	2861.01
399.18	3100.62
399.39	2953.17
399.60	3030.99
399.81	2926.55
400.03	2891.73
400.24	3303.37
400.45	2944.98
400.66	2985.94
400.88	2951.12
401.09	3084.24
401.30	3024.85
401.51	3063.76
401.73	3092.43
401.94	3129.30
402.15	3098.58
402.36	3055.57
402.58	3231.69
402.79	3180.50
403.00	3162.06
403.21	3104.72
403.43	3200.98
403.64	3235.79
403.85	3139.54
404.06	3241.93
404.27	3157.97
404.49	3209.17
404.70	3071.95
404.91	3346.38
405.12	3280.85
405.34	3162.06
405.55	3389.39
405.76	3059.67
405.97	3239.89
406.19	3321.81
406.40	3207.12
406.61	3258.32
406.82	3311.57
407.03	3295.18
407.25	3258.32
407.46	3295.18
407.67	3303.37
407.88	3366.86
408.09	3270.61
408.31	3352.52
408.52	3438.54
408.73	3409.87
408.94	3401.68
409.15	3418.06
409.37	3565.51
409.58	3436.49
409.79	3469.26
410.00	3551.18
410.21	3354.57
410.43	3442.64
410.64	3330.00
410.85	3477.45
411.06	3565.51
411.27	3553.23
411.48	3522.51
411.70	3479.50
411.91	3465.16
412.12	3645.38
412.33	3633.10
412.54	3569.61
412.76	3776.45
412.97	3717.06
413.18	3522.51
413.39	3710.92
413.60	3643.34
413.81	3667.91
414.03	3690.44
414.24	3618.76
414.45	3844.04
414.66	3594.19
414.87	3774.41
415.08	3764.17
415.30	3674.06
415.51	3631.05
415.72	3725.26
415.93	3688.39
416.14	3717.06
416.35	3878.85
416.56	3755.97
416.78	3946.44
416.99	3907.52
417.20	3778.50
417.41	3919.81
417.62	3868.61
417.83	3907.52
418.04	3899.33
418.26	3950.53
418.47	3825.61
418.68	4011.97
418.89	3960.77
419.10	4104.13
419.31	3895.24
419.52	4114.37
419.73	4057.03
419.95	4097.99
420.16	3958.72
420.37	3989.44
420.58	4181.95
420.79	3807.17
421.00	4065.22
421.21	4206.53
421.42	3958.72
421.63	4079.55
421.85	4118.47
422.06	4177.86
422.27	4083.65
422.48	4206.53
422.69	4335.55
422.90	4143.04
423.11	4319.17
423.32	4329.41
423.53	4370.37
423.75	4378.56
423.96	4374.46
424.17	4470.72
424.38	4362.17
424.59	4333.50
424.80	4462.52
425.01	4417.47
425.22	4458.43
425.43	4442.04
425.64	4603.83
425.85	4544.44
426.06	4452.28
426.28	4575.16
426.49	4530.11
426.70	4495.29
426.91	4544.44
427.12	4628.41
427.33	4677.56
427.54	4734.90
427.75	4728.76
427.96	4755.38
428.17	4865.97
428.38	4726.71
428.59	4837.30
428.80	4782.01
429.01	4730.81
429.23	4868.02
429.44	4911.03
429.65	4925.36
429.86	4808.63
430.07	4831.16
430.28	4812.73
430.49	5048.24
430.70	5099.44
430.91	5150.64
431.12	4935.60
431.33	5062.58
431.54	5275.57
431.75	5089.20
431.96	5154.74
432.17	5062.58
432.38	5130.16
432.59	5347.25
432.80	5222.32
433.01	5328.81
433.22	5156.79
433.43	5279.66
433.64	5328.81
433.85	5261.23
434.06	5449.64
434.27	5203.89
434.49	5394.35
434.70	5343.15
434.91	5441.45
435.12	5437.36
435.33	5533.61
435.54	5416.88
435.75	5257.14
435.96	5461.93
436.17	5382.06
436.38	5531.56
436.59	5631.91
436.80	5572.52
437.01	5728.17
437.22	5633.96
437.43	5756.84
437.64	5412.78
437.85	5779.37
438.06	5697.45
438.27	5601.19
438.48	5730.22
438.69	5797.80
438.90	5787.56
439.11	5599.15
439.32	5861.29
439.53	5613.48
439.74	5803.94
439.95	5867.43
440.16	5791.66
440.37	5857.19
440.57	5713.83
440.78	6033.32
440.99	5910.44
441.20	6021.03
441.41	5787.56
441.62	6086.56
441.83	5828.52
442.04	6023.08
442.25	5900.20
442.46	5928.87
442.67	6188.96
442.88	6502.30
443.09	6098.85
443.30	6131.62
443.51	6010.79
443.72	6438.81
443.93	6031.27
444.14	6440.86
444.35	6205.35
444.56	6279.07
444.77	6205.35
444.98	6408.09
445.19	6457.25
445.40	6410.14
445.61	6272.93
445.81	6553.50
446.02	6641.56
446.23	6457.25
446.44	6277.02
446.65	6320.03
446.86	6498.20
447.07	6610.84
447.28	6629.27
447.49	6631.32
447.70	6432.67
447.91	6680.47
448.12	6483.87
448.33	6823.83
448.54	6719.39
448.74	6703.00
448.95	6782.87
449.16	6877.08
449.37	6899.61
449.58	6709.15
449.79	6881.18
450.00	6813.59
450.21	6825.88
450.42	7034.77
450.63	6983.57
450.84	6922.13
451.05	7102.36
451.25	7069.59
451.46	6885.27
451.67	7264.15
451.88	7260.05
452.09	7022.48
452.30	6995.86
452.51	7077.78
452.72	7245.71
452.93	7540.62
453.13	7366.54
453.34	7350.16
453.55	7169.94
453.76	7452.56
453.97	7571.34
454.18	7444.37
454.39	7425.93
454.60	7430.03
454.81	7413.65
455.01	7667.60
455.22	7346.06
455.43	7616.40
455.64	7759.75
455.85	7937.93
456.06	7958.41
456.27	7720.84
456.48	7763.85
456.68	7755.66
456.89	7853.96
457.10	7913.35
457.31	7942.02
457.52	7757.71
457.73	8114.05
457.94	8265.60
458.14	7827.34
458.35	8253.31
458.56	8122.24
458.77	8052.61
458.98	8318.85
459.19	8155.01
459.39	8388.48
459.60	8314.75
459.81	8365.95
460.02	8447.87
460.23	8378.24
460.44	8744.83
460.65	8572.80
460.85	8626.04
461.06	8904.57
461.27	8523.65
461.48	8931.19
461.69	8990.58
461.89	8710.01
462.10	8959.86
462.31	8646.52
462.52	8767.35
462.73	8951.67
462.94	9045.88
463.14	9054.07
463.35	8933.24
463.56	9609.07
463.77	9480.05
463.98	9058.17
464.18	9262.96
464.39	9510.77
464.60	9584.49
464.81	9568.11
465.02	9437.04
465.23	9658.22
465.43	9582.45
465.64	9918.31
465.85	9643.88
466.06	9533.29
466.27	10045.29
466.47	9926.50
466.68	9838.44
466.89	9989.99
467.10	10035.05
467.30	9901.93
467.51	10293.09
467.72	10463.07
467.93	10057.57
468.14	10207.08
468.34	10434.40
468.55	10350.43
468.76	10510.18
468.97	10377.06
469.17	10631.01
469.38	10651.49
469.59	10753.88
469.80	10608.48
470.01	10749.79
470.21	10741.60
470.42	11253.59
470.63	11087.70
470.84	11018.07
471.04	11110.23
471.25	11210.58
471.46	11255.64
471.67	11446.10
471.87	11362.13
472.08	11480.91
472.29	11773.77
472.50	11325.27
472.70	11628.37
472.91	11718.48
473.12	11894.60
473.33	11976.52
473.53	12105.54
473.74	11937.61
473.95	12052.30
474.16	12207.94
474.36	12216.13
474.57	12572.48
474.78	12373.83
474.99	12437.31
475.19	12402.50
475.40	12851.00
475.61	12982.07
475.81	12873.53
476.02	12982.07
476.23	12912.44
476.44	13272.89
476.64	13307.70
476.85	13465.39
477.06	13502.26
477.27	13668.14
477.47	13621.04
477.68	13606.70
477.89	13954.86
478.09	13811.50
478.30	13793.07
478.51	13844.27
478.71	14061.35
478.92	14196.52
479.13	14147.37
479.34	14247.72
479.54	14352.16
479.75	14546.72
479.96	14534.43
480.16	14663.46
480.37	14632.74
480.58	14819.10
480.78	15253.27
480.99	15044.38
481.20	15247.13
481.41	15208.22
481.61	15509.27
481.82	15603.47
482.03	15413.01
482.23	15742.74
482.44	15873.81
482.65	15984.40
482.85	15929.10
483.06	15929.10
483.27	15814.41
483.47	16037.64
483.68	16166.67
483.89	16494.34
484.09	16318.22
484.30	16525.06
484.51	16727.81
484.71	17000.19
484.92	16844.54
485.13	17069.82
485.33	17041.15
485.54	16889.60
485.75	17172.22
485.95	17227.51
486.16	17571.57
486.37	17555.19
486.57	17651.44
486.78	17319.67
486.98	17716.98
487.19	17860.34
487.40	17956.59
487.60	18065.13
487.81	18104.04
488.02	17950.45
488.22	18018.03
488.43	18292.46
488.64	18300.65
488.84	18763.49
489.05	18626.28
489.25	18722.53
489.46	18833.12
489.67	18861.79
489.87	18781.92
490.08	19136.22
490.29	19191.52
490.49	19353.30
490.70	19414.74
490.90	19402.46
491.11	19392.22
491.32	19478.23
491.52	19766.99
491.73	19588.82
491.94	19586.77
492.14	19564.25
492.35	20346.57
492.55	20106.96
492.76	20070.09
492.97	20252.36
493.17	19949.26
493.38	20569.80
493.58	20719.30
493.79	20778.69
494.00	20616.90
494.20	20360.91
494.41	20762.31
494.61	20946.62
494.82	21446.33
495.02	21225.15
495.23	21341.88
495.44	21305.02
495.64	21546.68
495.85	21749.43
496.05	21610.17
496.26	21620.41
496.47	21747.38
496.67	21860.02
496.88	21952.18
497.08	21778.10
497.29	22023.86
497.49	21864.11
497.70	22277.80
497.91	22531.75
498.11	22476.46
498.32	22402.73
498.52	22544.04
498.73	22914.72
498.93	22587.05
499.14	23002.78
499.34	23084.70
499.55	22988.45
499.76	22679.21
499.96	22988.45
500.17	22961.83
500.37	23244.45
500.58	23223.97
500.78	23396.00
500.99	23549.59
501.19	23727.77
501.40	23340.70
501.60	23639.70
501.81	23916.18
502.02	23940.75
502.22	23389.85
502.43	23713.43
502.63	23983.76
502.84	23899.80
503.04	23924.37
503.25	24075.92
503.45	24182.42
503.66	24268.43
503.86	24354.44
504.07	24770.18
504.27	24323.72
504.48	24649.35
504.68	24321.68
504.89	24774.28
505.09	24723.08
505.30	25085.57
505.50	24630.92
505.71	25011.84
505.91	24970.88
506.12	25056.90
506.32	24764.04
506.53	25020.03
506.73	25372.28
506.94	25099.90
507.14	25366.14
507.35	25333.37
507.55	25507.45
507.76	25370.24
507.96	25208.45
508.17	25482.88
508.37	25714.30
508.58	25740.92
508.78	25478.78
508.99	25841.27
509.19	26130.03
509.40	25759.35
509.60	25941.62
509.81	25831.03
510.01	26160.75
510.22	25964.15
510.42	25988.72
510.63	26470.00
510.83	26300.01
511.04	26179.18
511.24	26394.22
511.44	26314.35
511.65	26715.75
511.85	26760.81
512.06	26654.31
512.26	26691.18
512.47	26517.10
512.67	26750.57
512.88	26865.25
513.08	26508.91
513.29	27125.35
513.49	26775.14
513.69	26689.13
513.90	27178.59
514.10	27272.80
514.31	27092.58
514.51	27389.53
514.72	27262.56
514.92	27188.83
515.13	27317.86
515.33	27416.16
515.53	27694.68
515.74	27407.97
515.94	27797.08
516.15	27977.30
516.35	27604.57
516.56	28069.46
516.76	27903.57
516.96	27461.21
517.17	27770.46
517.37	28069.46
517.58	27645.53
517.78	28376.66
517.99	28061.27
518.19	28515.92
518.39	28341.84
518.60	28673.61
518.80	28511.82
519.01	28806.73
519.21	28407.37
519.41	28550.73
519.62	28380.75
519.82	28497.49
520.03	28960.33
520.23	28798.54
520.43	28888.65
520.64	29111.88
520.84	29201.99
521.05	29195.84
521.25	29455.93
521.45	29218.37
521.66	29427.26
521.86	29525.57
522.07	29902.39
522.27	29374.02
522.47	29599.29
522.68	30010.93
522.88	29802.04
523.08	30176.82
523.29	29980.21
523.49	30203.44
523.70	30322.23
523.90	30459.44
524.10	30164.53
524.31	29890.10
524.51	29943.35
524.71	30531.12
524.92	30613.04
525.12	30756.39
525.33	31069.73
525.53	31053.35
525.73	31090.21
525.94	30940.71
526.14	31178.28
526.34	30973.48
526.55	31114.79
526.75	31309.35
526.95	31239.72
527.16	31325.73
527.36	31266.34
527.56	31514.14
527.77	32009.75
527.97	31637.02
528.17	31725.08
528.38	31802.91
528.58	32034.33
528.78	32103.96
528.99	32347.67
529.19	32032.28
529.39	32198.16
529.60	32714.25
529.80	32538.13
530.00	32427.54
530.21	33029.64
530.41	33107.46
530.61	32708.11
530.82	32704.01
531.02	32833.04
531.22	32816.65
531.43	33109.51
531.63	33437.19
531.83	33691.13
532.04	34049.53
532.24	33564.16
532.44	33631.74
532.64	34278.90
532.85	34053.62
533.05	33773.05
533.25	34403.83
533.46	34115.06
533.66	34862.57
533.86	34248.18
534.07	34608.62
534.27	34602.48
534.47	34749.93
534.67	34948.59
534.88	34762.22
535.08	34807.28
535.28	35018.22
535.49	35093.99
535.69	35689.95
535.89	35327.46
536.09	35554.79
536.30	35765.73
536.50	35622.37
536.70	35724.77
536.91	35692.00
537.11	35743.20
537.31	35993.05
537.51	35991.00
537.72	36187.61
537.92	36349.40
538.12	36644.30
538.32	36167.13
538.53	36722.13
538.73	36306.39
538.93	36361.69
539.13	36707.79
539.34	36920.78
539.54	36744.66
539.74	37025.23
539.94	37076.43
540.15	36730.32
540.35	37113.29
540.55	37094.86
540.75	37207.50
540.96	37465.54
541.16	37420.48
541.36	37422.53
541.56	37785.02
541.77	37754.30
541.97	37533.12
542.17	38092.22
542.37	37844.41
542.58	37866.94
542.78	37944.76
542.98	38108.60
543.18	38278.58
543.38	38397.37
543.59	38354.36
543.79	38354.36
543.99	38634.93
544.19	38677.94
544.40	38626.74
544.60	38872.49
544.80	38677.94
545.00	39058.86
545.20	39028.14
545.41	38698.42
545.61	39128.49
545.81	39069.10
546.01	39445.93
546.21	39024.04
546.42	38706.61
546.62	39296.42
546.82	39040.43
547.02	39194.03
547.22	39409.06
547.43	39138.73
547.63	39349.67
547.83	39912.86
548.03	39392.68
548.23	39974.30
548.44	40084.89
548.64	39720.35
548.84	39464.36
549.04	39751.07
549.24	40523.16
549.45	40754.58
549.65	39859.62
549.85	40220.06
550.05	40359.32
550.25	40299.93
550.45	40693.14
550.66	40541.59
550.86	40560.02
551.06	40629.65
551.26	40428.95
551.46	40687.00
551.66	40603.03
551.87	40695.19
552.07	40942.99
552.27	41121.16
552.47	41172.36
552.67	41164.17
552.87	40844.69
553.07	41092.49
553.28	41239.95
553.48	41409.93
553.68	41139.60
553.88	41622.92
554.08	41397.64
554.28	41313.67
554.48	41102.73
554.69	41737.60
554.89	41479.56
555.09	41313.67
555.29	41047.44
555.49	41715.08
555.69	41977.22
555.89	41817.47
556.10	41835.91
556.30	41405.83
556.50	41680.26
556.70	41606.53
556.90	42171.77
557.10	42085.76
557.30	41645.44
557.50	41987.46
557.70	42104.19
557.91	42014.08
558.11	41983.36
558.31	42282.36
558.51	42229.12
558.71	42249.60
558.91	42382.71
559.11	41950.59
559.31	42395.00
559.51	42415.48
559.72	42198.40
559.92	42392.95
560.12	42059.13
560.32	42491.26
560.52	42235.26
560.72	42620.28
560.92	42694.00
561.12	42999.15
561.32	42868.08
561.52	42339.71
561.72	43038.06
561.93	42669.43
562.13	42874.23
562.33	42730.87
562.53	43085.17
562.73	42888.56
562.93	42841.46
563.13	43023.73
563.33	42749.30
563.53	43029.87
563.73	42714.48
563.93	42917.23
564.13	43382.12
564.33	43306.35
564.53	43232.62
564.74	43724.13
564.94	43238.76
565.14	43580.78
565.34	43388.27
565.54	43308.40
565.74	43664.74
565.94	43664.74
566.14	43744.61
566.34	43277.68
566.54	43947.36
566.74	43597.16
566.94	43398.51
567.14	43734.37
567.34	43533.67
567.54	43906.40
567.74	44037.47
567.94	43801.96
568.14	43808.10
568.34	43984.22
568.54	44004.70
568.74	43935.07
568.94	43849.06
569.14	44287.32
569.34	44006.75
569.54	44469.59
569.75	43736.42
569.95	44176.73
570.15	44764.50
570.35	44602.71
570.55	44119.39
570.75	44574.04
570.95	44219.74
571.15	44426.59
571.35	44320.09
571.55	44946.77
571.75	44416.35
571.95	44684.63
572.15	44461.40
572.35	44582.23
572.55	44453.21
572.75	44637.53
572.95	45040.98
573.15	44647.77
573.35	44862.80
573.55	44590.42
573.75	44860.76
573.95	45135.18
574.15	45374.80
574.35	45163.85
574.55	44881.24
574.75	44887.38
574.95	45077.84
575.15	45047.12
575.34	45526.35
575.54	45346.12
575.74	45540.68
575.94	45317.45
576.14	45364.56
576.34	45577.54
576.54	45720.90
576.74	45790.53
576.94	45829.44
577.14	45806.92
577.34	46015.81
577.54	45376.84
577.74	46277.95
577.94	45710.66
578.14	45960.51
578.34	45942.08
578.54	45446.47
578.74	45776.20
578.94	46312.77
579.14	46347.58
579.34	46363.96
579.54	46351.68
579.74	46566.71
579.94	46411.07
580.13	46392.64
580.33	46247.23
580.53	46662.97
580.73	46708.02
580.93	46490.94
581.13	46587.19
581.33	47121.71
581.53	47031.60
581.73	46908.72
581.93	47105.33
582.13	46976.31
582.33	46951.73
582.53	47037.75
582.73	47435.05
582.92	47220.02
583.12	47316.27
583.32	47545.64
583.52	47246.64
583.72	47727.91
583.92	47418.67
584.12	47562.03
584.32	48082.21
584.52	47510.83
584.72	47969.57
584.92	48049.44
585.11	48424.22
585.31	47971.62
585.51	47781.16
585.71	47551.79
585.91	48454.94
586.11	47484.20
586.31	48020.77
586.51	48426.27
586.71	48422.17
586.91	48559.39
587.10	48446.75
587.30	48276.77
587.50	48653.59
587.70	48600.35
587.90	48846.10
588.10	48907.54
588.30	48702.74
588.50	48903.45
588.69	48905.49
588.89	48409.89
589.09	48837.91
589.29	49038.61
589.49	49059.09
589.69	49032.47
589.89	49313.04
590.08	49259.79
590.28	48864.53
590.48	48807.19
590.68	49138.96
590.88	49302.80
591.08	49317.14
591.28	48737.56
591.47	49708.30
591.67	49243.41
591.87	49337.62
592.07	49825.03
592.27	49751.30
592.47	49417.49
592.67	49708.30
592.86	49628.43
593.06	49833.22
593.26	49968.39
593.46	50324.74
593.66	49896.71
593.86	49970.44
594.05	50138.37
594.25	50461.95
594.45	50091.27
594.65	50271.49
594.85	49808.65
595.05	49900.81
595.24	50773.24
595.44	50304.26
595.64	50308.35
595.84	50537.72
596.04	50451.71
596.23	50611.45
596.43	50984.18
596.63	50425.09
596.83	50601.21
597.03	50830.58
597.22	51199.22
597.42	50625.79
597.62	51141.88
597.82	51256.56
598.02	51109.11
598.21	51477.74
598.41	51082.48
598.61	51537.13
598.81	51086.58
599.01	51610.86
599.20	51637.48
599.40	51266.80
599.60	51559.66
599.80	51377.39
600.00	51756.27
600.19	51784.94
600.39	51274.99
600.59	51877.10
600.79	52204.77
600.98	51739.88
601.18	51897.58
601.38	52442.34
601.58	52356.32
601.78	52229.35
601.97	52368.61
602.17	52477.15
602.37	52624.60
602.57	52456.67
602.76	52733.15
602.96	52235.49
603.16	52559.07
603.36	52417.76
603.55	52925.66
603.75	52436.19
603.95	53019.86
604.15	52888.79
604.34	52751.58
604.54	53150.93
604.74	53066.97
604.94	53462.22
605.13	53130.45
605.33	53195.99
605.53	52630.75
605.73	53540.05
605.92	53146.84
606.12	53140.69
606.32	53507.28
606.52	53132.50
606.71	53515.47
606.91	53630.16
607.11	53200.08
607.30	53724.36
607.50	53664.97
607.70	53943.50
607.90	53783.76
608.09	53527.76
608.29	53857.48
608.49	53775.56
608.68	53744.84
608.88	53841.10
609.08	54021.32
609.28	54203.59
609.47	53773.52
609.67	54572.22
609.87	53992.65
610.06	54156.49
610.26	53976.26
610.46	54478.02
610.66	54006.98
610.85	54486.21
611.05	53957.83
611.25	54449.35
611.44	53992.65
611.64	54127.81
611.84	54336.71
612.03	53904.59
612.23	54443.20
612.43	54301.89
612.62	54086.85
612.82	54910.14
613.02	54279.36
613.21	54480.06
613.41	54314.18
613.61	54817.98
613.80	53957.83
614.00	54738.11
614.20	54295.75
614.39	54670.53
614.59	54621.37
614.79	54602.94
614.98	54752.44
615.18	54961.34
615.38	54871.23
615.57	54478.02
615.77	54953.15
615.97	54867.13
616.16	54490.30
616.36	54297.80
616.56	55254.20
616.75	54494.40
616.95	54133.96
617.15	54717.63
617.34	54797.50
617.54	54613.18
617.74	54908.09
617.93	54781.12
618.13	54437.06
618.32	54967.48
618.52	54361.28
618.72	54580.42
618.91	54449.35
619.11	54629.57
619.31	54140.10
619.50	54564.03
619.70	54670.53
619.90	54459.58
620.09	54590.66
620.29	54940.86
620.48	54758.59
620.68	54777.02
620.88	54549.70
621.07	54547.65
621.27	54736.06
621.46	54312.13
621.66	54691.01
621.86	54230.21
622.05	53998.79
622.25	54869.18
622.44	54516.93
622.64	54121.67
622.84	54633.66
623.03	54592.70
623.23	54387.91
623.42	54578.37
623.62	54416.58
623.82	54609.09
624.01	54725.82
624.21	54287.56
624.40	54445.25
624.60	54650.05
624.80	54213.83
624.99	54725.82
625.19	54234.31
625.38	54217.92
625.58	54531.26
625.77	54531.26
625.97	54838.46
626.17	54068.42
626.36	54457.54
626.56	54852.80
626.75	54086.85
626.95	54750.40
627.14	54144.20
627.34	54613.18
627.54	54564.03
627.73	54547.65
627.93	53984.46
628.12	54293.70
628.32	54195.40
628.51	54420.67
628.71	54179.01
628.90	54547.65
629.10	54676.67
629.30	54179.01
629.49	54621.37
629.69	54535.36
629.88	54097.09
630.08	54615.23
630.27	54668.48
630.47	54707.39
630.66	54052.04
630.86	54533.31
631.05	54043.85
631.25	54817.98
631.44	54781.12
631.64	54443.20
631.84	54248.64
632.03	55026.87
632.23	54437.06
632.42	54621.37
632.62	54680.77
632.81	54119.62
633.01	54551.74
633.20	55055.54
633.40	54385.86
633.59	54471.87
633.79	53966.02
633.98	54596.80
634.18	54572.22
634.37	54842.56
634.57	54482.11
634.76	55190.71
634.96	54903.99
635.15	54580.42
635.35	54467.78
635.54	54609.09
635.74	54584.51
635.93	54295.75
636.13	54703.29
636.32	54686.91
636.52	54199.49
636.71	54613.18
636.91	54787.26
637.10	54781.12
637.30	54822.08
637.49	54396.10
637.69	54588.61
637.88	54648.00
638.08	54582.46
638.27	54801.60
638.46	54664.38
638.66	54637.76
638.85	54875.32
639.05	55026.87
639.24	55284.92
639.44	54371.52
639.63	54762.68
639.83	54908.09
640.02	54754.49
640.22	54498.50
640.41	54877.37
640.61	54578.37
640.80	54473.92
640.99	54752.44
641.19	55114.94
641.38	54652.09
641.58	54633.66
641.77	54260.93
641.97	55133.37
642.16	54965.43
642.36	55114.94
642.55	54963.39
642.74	54860.99
642.94	55401.65
643.13	54555.84
643.33	54994.10
643.52	55213.24
643.72	55323.83
643.91	54418.63
644.10	54979.77
644.30	55213.24
644.49	54746.30
644.69	55428.27
644.88	55293.11
645.08	54719.68
645.27	54932.67
645.46	54801.60
645.66	55559.34
645.85	54883.51
646.05	55268.53
646.24	55252.15
646.43	54910.14
646.63	55547.06
646.82	55366.84
647.02	55444.66
647.21	55055.54
647.40	55252.15
647.60	55469.23
647.79	55508.14
647.99	55506.10
648.18	55489.71
648.37	55923.88
648.57	55755.95
648.76	55415.99
648.96	55424.18
649.15	55612.59
649.34	55579.82
649.54	55747.76
649.73	54901.95
649.92	55346.36
650.12	55647.41
650.31	55502.00
650.51	55817.39
650.70	55751.85
650.89	55422.13
651.09	56353.96
651.28	55919.79
651.47	55938.22
651.67	55415.99
651.86	55958.70
652.06	55057.59
652.25	55696.56
652.44	55418.03
652.64	55198.90
652.83	55817.39
653.02	55319.73
653.22	55620.78
653.41	55379.12
653.60	55299.25
653.80	55719.09
653.99	55811.24
654.18	55522.48
654.38	55680.17
654.57	55792.81
654.76	55678.13
654.96	55721.13
655.15	55860.40
655.34	55766.19
655.54	55864.49
655.73	55260.34
655.92	56255.65
656.12	55776.43
656.31	55760.05
656.50	55942.31
656.70	55671.98
656.89	55684.27
657.08	56153.26
657.28	55985.32
657.47	55956.65
657.66	56245.41
657.86	55882.92
658.05	55620.78
658.24	55975.08
658.43	56196.26
658.63	55997.61
658.82	56368.29
659.01	56132.78
659.21	56087.72
659.40	56169.64
659.59	55981.23
659.79	56177.83
659.98	56061.10
660.17	56505.51
660.36	56327.33
660.56	56130.73
660.75	56269.99
660.94	56167.59
661.14	56112.30
661.33	56114.34
661.52	55817.39
661.71	56566.94
661.91	56102.06
662.10	55780.52
662.29	56513.70
662.49	56214.69
662.68	56218.79
662.87	56280.23
663.06	56163.50
663.26	56399.01
663.45	56165.54
663.64	56104.10
663.83	56523.94
664.03	56358.05
664.22	56140.97
664.41	56368.29
664.60	56235.17
664.80	56480.93
664.99	56245.41
665.18	56192.17
665.37	56415.40
665.57	56435.87
665.76	56040.62
665.95	56603.81
666.14	56491.17
666.34	56411.30
666.53	56456.35
666.72	56097.96
666.91	56173.73
667.11	56114.34
667.30	56151.21
667.49	56108.20
667.68	56229.03
667.87	56038.57
668.07	56394.92
668.26	56276.13
668.45	56237.22
668.64	56005.80
668.84	56530.08
669.03	56439.97
669.22	56202.41
669.41	56542.37
669.60	56577.18
669.80	56644.77
669.99	56800.41
670.18	56429.73
670.37	56335.52
670.57	56917.15
670.76	56521.89
670.95	56779.93
671.14	56712.35
671.33	56353.96
671.53	56781.98
671.72	56675.49
671.91	56640.67
672.10	56476.83
672.29	56618.14
672.48	56677.54
672.68	57035.93
672.87	56327.33
673.06	56808.61
673.25	56566.94
673.44	56235.17
673.64	56032.42
673.83	56704.16
674.02	56274.09
674.21	56401.06
674.40	56401.06
674.59	56460.45
674.79	56306.85
674.98	56435.87
675.17	56562.85
675.36	56317.09
675.55	56730.78
675.74	55942.31
675.94	56458.40
676.13	56657.06
676.32	56915.10
676.51	56882.33
676.70	56550.56
676.89	56179.88
677.08	56308.90
677.28	56032.42
677.47	56466.59
677.66	56870.04
677.85	56765.60
678.04	56865.95
678.23	56759.45
678.42	56837.28
678.62	56407.20
678.81	56632.48
679.00	56431.78
679.19	56786.08
679.38	56444.07
679.57	56622.24
679.76	56530.08
679.96	56480.93
680.15	56644.77
680.34	56335.52
680.53	56544.42
680.72	56331.43
680.91	56454.31
681.10	56134.82
681.29	56665.25
681.48	56425.64
681.68	56001.71
681.87	55973.03
682.06	56241.32
682.25	55868.59
682.44	55923.88
682.63	55979.18
682.82	56280.23
683.01	56188.07
683.20	56054.95
683.39	56308.90
683.59	56011.95
683.78	56304.80
683.97	55749.81
684.16	55936.17
684.35	56210.60
684.54	56239.27
684.73	56171.69
684.92	56134.82
685.11	56108.20
685.30	56085.67
685.49	55858.35
685.69	55731.37
685.88	55784.62
686.07	56186.02
686.26	55809.20
686.45	56038.57
686.64	56052.90
686.83	56022.19
687.02	56040.62
687.21	56429.73
687.40	55714.99
687.59	56024.23
687.78	56130.73
687.97	56241.32
688.16	56050.86
688.35	55477.43
688.54	55823.53
688.74	55530.67
688.93	55801.00
689.12	55620.78
689.31	55823.53
689.50	55819.44
689.69	55719.09
689.88	55080.12
690.07	55661.74
690.26	55776.43
690.45	56433.83
690.64	55598.26
690.83	55659.69
691.02	55469.23
691.21	55088.31
691.40	55284.92
691.59	55610.54
691.78	55526.58
691.97	54936.76
692.16	55524.53
692.35	55770.28
692.54	55674.03
692.73	55538.86
692.92	55751.85
693.11	55305.40
693.30	55203.00
693.49	55485.62
693.68	55110.84
693.87	55272.63
694.06	55168.18
694.25	54822.08
694.44	55022.78
694.63	55274.68
694.82	55192.76
695.01	54523.07
695.20	55059.64
695.39	55063.74
695.58	55112.89
695.77	54748.35
695.96	54748.35
696.15	55096.50
696.34	54772.92
696.53	54863.03
696.72	54719.68
696.91	55047.35
697.10	55057.59
697.29	54578.37
697.48	54748.35
697.67	54478.02
697.86	54269.12
698.05	54469.82
698.24	54852.80
698.43	54168.77
698.62	55004.34
698.81	54480.06
699.00	54650.05
699.19	54228.16
699.38	54981.82
699.57	54236.36
699.76	54899.90
699.95	54469.82
700.14	53859.53
700.32	54056.14
700.51	54346.95
700.70	54879.42
700.89	54670.53
701.08	54320.32
701.27	54285.51
701.46	54469.82
701.65	53130.45
701.84	53935.30
702.03	54512.83
702.22	54215.88
702.41	53839.05
702.60	53998.79
702.79	54193.35
702.98	53822.67
703.17	53920.97
703.35	53521.62
703.54	53970.12
703.73	54158.53
703.92	53877.96
704.11	53892.30
704.30	53355.73
704.49	53476.56
704.68	53081.30
704.87	53742.80
705.06	53202.13
705.25	53222.61
705.43	53755.08
705.62	53451.98
705.81	53261.52
706.00	53089.49
706.19	52952.28
706.38	53429.46
706.57	53069.01
706.76	52806.87
706.95	53056.73
707.14	52825.31
707.32	52600.03
707.51	52782.30
707.70	52595.93
707.89	52935.90
708.08	53026.01
708.27	52950.23
708.46	52856.03
708.65	52718.81
708.84	52739.29
709.02	52905.18
709.21	52563.17
709.40	53097.69
709.59	52561.12
709.78	52442.34
709.97	52718.81
710.16	52933.85
710.34	52643.04
710.53	52665.56
710.72	51852.52
710.91	52679.90
711.10	52571.36
711.29	52864.22
711.48	52847.83
711.66	52251.87
711.85	52446.43
712.04	52446.43
712.23	52049.13
712.42	51799.27
712.61	52032.74
712.80	52024.55
712.98	52296.93
713.17	52071.65
713.36	51645.68
713.55	52243.68
713.74	51942.63
713.93	52212.96
714.11	52190.44
714.30	51461.36
714.49	51934.44
714.68	52010.21
714.87	51737.83
715.06	52024.55
715.24	51551.47
715.43	51836.14
715.62	51180.79
715.81	51393.78
716.00	51426.54
716.18	51080.44
716.37	50894.07
716.56	50982.13
716.75	51868.90
716.94	51074.29
717.12	50857.21
717.31	51379.44
717.50	51283.19
717.69	51352.82
717.88	50668.79
718.06	51076.34
718.25	51244.27
718.44	50918.65
718.63	50730.23
718.82	50904.31
719.00	50640.12
719.19	50717.95
719.38	50203.91
719.57	50113.80
719.76	49909.00
719.94	49661.19
720.13	50220.29
720.32	50236.67
720.51	50115.84
720.69	50201.86
720.88	50228.48
721.07	49796.36
721.26	49429.77
721.44	50007.30
721.63	49489.16
721.82	49538.32
722.01	49212.69
722.20	49480.97
722.38	49444.11
722.57	49069.33
722.76	49761.54
722.95	49257.74
723.13	49243.41
723.32	49124.63
723.51	48964.88
723.70	49034.52
723.88	49356.05
724.07	48690.46
724.26	49208.59
724.44	48407.84
724.63	49085.72
724.82	48835.86
725.01	48588.06
725.19	48862.49
725.38	48135.46
725.57	48543.00
725.76	48923.93
725.94	48448.80
726.13	48284.96
726.32	48672.03
726.51	48354.59
726.69	48774.42
726.88	48209.18
727.07	48405.79
727.25	48145.70
727.44	48469.28
727.63	48188.70
727.82	48026.92
728.00	48712.98
728.19	48229.66
728.38	48596.25
728.56	47703.34
728.75	48600.35
728.94	48039.20
729.12	48020.77
729.31	48129.31
729.50	47938.85
729.69	48102.69
729.87	47775.02
730.06	47863.08
730.25	48254.24
730.43	48403.74
730.62	48100.64
730.81	47955.24
730.99	48160.03
731.18	48031.01
731.37	47846.69
731.55	48211.23
731.74	48616.73
731.93	48252.19
732.11	48219.42
732.30	48178.46
732.49	47756.58
732.67	47936.80
732.86	47437.10
733.05	47928.61
733.23	47549.74
733.42	47709.48
733.61	47736.10
733.79	47195.44
733.98	47965.48
734.17	47729.96
734.35	47711.53
734.54	47871.27
734.73	48125.22
734.91	47260.97
735.10	47510.83
735.29	47645.99
735.47	47514.92
735.66	47650.09
735.84	47557.93
736.03	47469.87
736.22	47254.83
736.40	47191.34
736.59	47455.53
736.78	47097.14
736.96	47426.86
737.15	47555.88
737.33	46763.32
737.52	47238.45
737.71	47217.97
737.89	46945.59
738.08	46622.01
738.27	46761.27
738.45	47236.40
738.64	47322.41
738.82	46603.58
739.01	46802.23
739.20	46855.48
739.38	47076.66
739.57	47070.51
739.75	47082.80
739.94	46744.89
740.13	47271.21
740.31	46953.78
740.50	46509.37
740.68	47142.19
740.87	46918.96
741.06	46794.04
741.24	46626.10
741.43	46658.87
741.61	46654.78
741.80	46396.73
741.99	46329.15
742.17	46091.58
742.36	46564.67
742.54	46130.50
742.73	46300.48
742.91	46480.70
743.10	46406.97
743.29	46574.91
743.47	46339.39
743.66	46343.48
743.84	46376.25
744.03	46406.97
744.21	46185.79
744.40	46415.16
744.59	46085.44
744.77	45811.01
744.96	46130.50
745.14	46226.75
745.33	46208.32
745.51	46064.96
745.70	46134.59
745.88	46009.67
746.07	45958.47
746.26	45763.91
746.44	45481.29
746.63	45700.42
746.81	46071.10
747.00	45735.24
747.18	45974.85
747.37	45598.02
747.55	45663.56
747.74	45983.04
747.92	45497.67
748.11	45641.03
748.29	45397.32
748.48	45557.06
748.66	45595.98
748.85	45571.40
749.03	45411.66
749.22	45217.10
749.41	45327.69
749.59	45385.04
749.78	45483.34
749.96	45342.03
750.15	45253.97
750.33	44928.34
750.52	44940.63
750.70	45229.39
750.89	44936.53
751.07	44975.44
751.26	45110.61
751.44	44692.82
751.63	45118.80
751.81	44807.51
752.00	44825.94
752.18	45086.03
752.37	45079.89
752.55	44645.72
752.74	44387.67
752.92	44598.62
753.10	44574.04
753.29	44832.08
753.47	44438.87
753.66	44375.39
753.84	44774.74
754.03	44522.84
754.21	44217.69
754.40	44563.80
754.58	44717.40
754.77	44283.23
754.95	44225.89
755.14	44027.23
755.32	44240.22
755.51	44399.96
755.69	44023.14
755.88	44016.99
756.06	43752.80
756.24	43838.82
756.43	44205.41
756.61	44025.18
756.80	43847.01
756.98	43939.17
757.17	43871.59
757.35	44152.16
757.54	43820.39
757.72	43924.83
757.90	43734.37
758.09	43517.29
758.27	43629.93
758.46	43779.43
758.64	43455.85
758.83	44037.47
759.01	44062.05
759.19	43484.52
759.38	43670.89
759.56	43830.63
759.75	43455.85
759.93	43371.88
760.12	43210.09
760.30	43588.97
760.48	43085.17
760.67	43083.12
760.85	43285.87
761.04	43677.03
761.22	43402.60
761.40	43591.01
761.59	43144.56
761.77	42513.78
761.96	43285.87
762.14	43259.24
762.32	42921.33
762.51	42933.62
762.69	42841.46
762.88	43033.97
763.06	43025.78
763.24	43023.73
763.43	42882.42
763.61	42526.07
763.80	42904.95
763.98	42616.18
764.16	42675.57
764.35	42556.79
764.53	42341.75
764.72	42659.19
764.90	42661.24
765.08	42816.88
765.27	42280.31
765.45	42478.97
765.63	41674.12
765.82	42659.19
766.00	41778.56
766.18	42001.79
766.37	42687.86
766.55	42173.82
766.74	42126.72
766.92	41958.78
767.10	41823.62
767.29	42151.29
767.47	41725.32
767.65	42018.17
767.84	41590.15
768.02	41805.19
768.20	41442.70
768.39	42134.91
768.57	41768.32
768.75	41938.30
768.94	41751.94
769.12	41889.15
769.30	41872.77
769.49	41149.84
769.67	41805.19
769.85	40945.04
770.04	41457.03
770.22	41190.80
770.40	41061.77
770.59	41278.86
770.77	41401.74
770.95	40971.66
771.14	40945.04
771.32	40758.67
771.50	40861.07
771.69	40830.35
771.87	41072.01
772.05	40488.34
772.24	40785.30
772.42	40431.00
772.60	40633.75
772.78	40324.50
772.97	40670.61
773.15	41463.18
773.33	40758.67
773.52	40418.71
773.70	41350.54
773.88	40660.37
774.07	40330.65
774.25	40484.25
774.43	41020.81
774.61	40582.55
774.80	40973.71
774.98	40691.09
775.16	40617.36
775.34	40781.20
775.53	41063.82
775.71	40504.73
775.89	41014.67
776.08	40850.83
776.26	40971.66
776.44	40979.85
776.62	40840.59
776.81	40715.67
776.99	41223.56
777.17	40709.52
777.35	40873.36
777.54	41475.46
777.72	40957.33
777.90	40945.04
778.08	41375.11
778.27	41047.44
778.45	41194.89
778.63	41239.95
778.81	41205.13
779.00	42376.57
779.18	41395.59
779.36	41436.55
779.54	41016.72
779.73	41340.30
779.91	41426.31
780.09	41108.88
780.27	41354.63
780.46	41586.05
780.64	41559.43
780.82	41522.57
781.00	41670.02
781.19	41772.42
781.37	41934.21
781.55	41809.28
781.73	42171.77
781.91	41698.69
782.10	41645.44
782.28	41606.53
782.46	41985.41
782.64	41801.09
782.82	41563.53
783.01	42001.79
783.19	41717.12
783.37	41815.43
783.55	41543.05
783.74	42091.90
783.92	41862.53
784.10	42438.01
784.28	42128.77
784.46	41862.53
784.64	41743.75
784.83	42456.44
785.01	42395.00
785.19	41680.26
785.37	42229.12
785.55	41637.25
785.74	41465.22
785.92	41495.94
786.10	41831.81
786.28	41579.91
786.46	41799.04
786.64	41604.49
786.83	41100.68
787.01	42063.23
787.19	41710.98
787.37	41866.63
787.55	41622.92
787.74	41463.18
787.92	41440.65
788.10	41211.28
788.28	40779.15
788.46	41209.23
788.64	40975.76
788.82	41336.20
789.01	41553.29
789.19	41258.38
789.37	41151.88
789.55	41377.16
789.73	40727.95
789.91	40942.99
790.09	41368.97
790.28	40725.91
790.46	40717.71
790.64	40795.54
790.82	40818.07
791.00	40365.46
791.18	40469.91
791.36	40658.32
791.55	40426.90
791.73	40457.62
791.91	40070.56
792.09	40416.66
792.27	39986.59
792.45	40050.08
792.63	40254.87
792.81	39830.94
793.00	39966.11
793.18	39544.23
793.36	40000.93
793.54	39830.94
793.72	39488.93
793.90	39617.96
794.08	39251.37
794.26	39818.66
794.44	39226.79
794.62	39151.02
794.81	39110.06
794.99	39091.63
795.17	39325.10
795.35	39105.96
795.53	39349.67
795.71	39071.15
795.89	38307.26
796.07	38550.96
796.25	38483.38
796.43	38059.45
796.61	37973.44
796.80	38327.74
796.98	38530.48
797.16	38100.41
797.34	38321.59
797.52	38337.98
797.70	38303.16
797.88	37942.72
798.06	37754.30
798.24	37819.84
798.42	37770.69
798.60	37557.70
798.78	37690.82
798.96	37705.15
799.14	37158.34
799.32	37725.63
799.51	36920.78
799.69	36802.00
799.87	37029.32
800.05	36961.74
800.23	37041.61
800.41	36677.07
800.59	36738.51
800.77	36955.60
800.95	36554.19
801.13	36664.78
801.31	36255.19
801.49	36480.47
801.67	36355.54
801.85	36300.25
802.03	36031.96
802.21	36130.26
802.39	35708.38
802.57	36015.58
802.75	35562.98
802.93	36130.26
803.11	35685.86
803.29	35661.28
803.47	35417.57
803.65	35530.21
803.83	35562.98
804.01	35278.31
804.19	35042.79
804.37	35302.89
804.55	35161.58
804.73	34948.59
804.91	34852.33
805.09	34987.50
805.27	34678.25
805.45	34833.90
805.63	34835.95
805.81	34850.28
805.99	34674.16
806.17	34797.04
806.35	34960.87
806.53	34602.48
806.71	34592.24
806.89	34450.93
807.07	34301.43
807.25	34323.96
807.43	33775.10
807.61	34442.74
807.79	33957.37
807.97	33789.44
808.15	33682.94
808.33	33551.87
808.51	33433.09
808.69	33566.21
808.87	33373.70
809.05	33050.12
809.23	33469.95
809.41	33017.35
809.59	33365.51
809.77	33181.19
809.95	33082.89
810.13	33297.92
810.31	32841.23
810.49	33162.76
810.67	32900.62
810.84	32595.47
811.02	32714.25
811.20	32527.89
811.38	32574.99
811.56	32093.72
811.74	32437.78
811.92	32208.40
812.10	32353.81
812.28	32622.09
812.46	32318.99
812.64	32488.98
812.82	32112.15
813.00	31972.89
813.18	32218.64
813.36	32077.33
813.53	31864.35
813.71	31667.74
813.89	31571.49
814.07	31841.82
814.25	31874.59
814.43	31297.06
814.61	31442.46
814.79	31374.88
814.97	31305.25
815.15	31589.92
815.33	31071.78
815.50	31127.08
815.68	31145.51
815.86	31749.66
816.04	31084.07
816.22	31045.16
816.40	30985.77
816.58	30598.70
816.76	30694.96
816.94	30578.22
817.11	30971.43
817.29	30627.37
817.47	30197.30
817.65	30455.34
817.83	30758.44
818.01	30271.03
818.19	30330.42
818.37	30193.20
818.54	30000.69
818.72	30076.47
818.90	30219.83
819.08	30244.40
819.26	30015.03
819.44	29939.26
819.62	30035.51
819.80	29808.19
819.97	29929.02
820.15	29627.96
820.33	29410.88
820.51	29707.83
820.69	29148.74
820.87	29500.99
821.05	29556.28
821.22	29378.11
821.40	29441.60
821.58	29017.67
821.76	29232.71
821.94	29310.53
822.12	29218.37
822.29	29249.09
822.47	29259.33
822.65	29312.58
822.83	29034.05
823.01	29089.35
823.19	28640.84
823.36	28827.21
823.54	28847.69
823.72	28868.17
823.90	28554.83
824.08	28634.70
824.25	28755.53
824.43	28550.73
824.61	28798.54
824.79	28614.22
824.97	28782.15
825.15	28427.85
825.32	28542.54
825.50	28225.11
825.68	28089.94
825.86	28595.79
826.04	28221.01
826.21	28194.39
826.39	28294.74
826.57	28241.49
826.75	28040.79
826.93	27870.81
827.10	28020.31
827.28	28102.23
827.46	27879.00
827.64	27760.22
827.81	28229.20
827.99	27844.18
828.17	27678.30
828.35	27614.81
828.53	27741.78
828.70	27774.55
828.88	27115.11
829.06	27393.63
829.24	27727.45
829.41	27594.33
829.59	27512.41
829.77	27461.21
829.95	27340.38
830.12	27475.55
830.30	27065.96
830.48	27285.09
830.66	27356.77
830.84	27401.82
831.01	26883.69
831.19	27227.74
831.37	27139.68
831.55	26877.54
831.72	26719.85
831.90	26791.53
832.08	26648.17
832.25	26918.50
832.43	26963.56
832.61	26529.39
832.79	26433.13
832.96	26476.14
833.14	26574.44
833.32	26525.29
833.50	26652.27
833.67	26662.51
833.85	26467.95
834.03	26244.72
834.20	26394.22
834.38	26556.01
834.56	26300.01
834.74	26140.27
834.91	26353.26
835.09	26205.81
835.27	25894.52
835.44	26052.21
835.62	25761.40
835.80	26058.35
835.98	26140.27
836.15	25818.74
836.33	25615.99
836.51	26111.60
836.68	25712.25
836.86	25661.05
837.04	26136.18
837.21	25937.52
837.39	25865.85
837.57	25841.27
837.75	25831.03
837.92	25585.27
838.10	25659.00
838.28	25429.63
838.45	25738.87
838.63	25370.24
838.81	25452.16
838.98	25124.48
839.16	25142.91
839.34	25077.38
839.51	25220.74
839.69	25040.51
839.87	25050.75
840.04	24938.12
840.22	25192.06
840.40	24936.07
840.57	24858.24
840.75	25001.60
840.93	24657.54
841.10	24940.16
841.28	25069.19
841.46	24424.08
841.63	25038.47
841.81	24333.96
841.98	24567.43
842.16	24999.55
842.34	24680.07
842.51	24370.83
842.69	24692.36
842.87	24704.65
843.04	24960.64
843.22	24209.04
843.40	24280.72
843.57	24458.89
843.75	24397.45
843.92	24604.30
844.10	24235.66
844.28	24403.60
844.45	24221.33
844.63	24329.87
844.81	24299.15
844.98	24379.02
845.16	24428.17
845.33	24266.38
845.51	24245.90
845.69	23832.21
845.86	23893.65
846.04	23852.69
846.21	23697.05
846.39	24114.83
846.57	23582.36
846.74	23672.47
846.92	23885.46
847.09	23608.98
847.27	23543.45
847.45	23658.14
847.62	23858.84
847.80	23883.41
847.97	23711.38
848.15	23486.11
848.32	23338.65
848.50	23572.12
848.68	23269.02
848.85	23297.69
849.03	23023.26
849.20	23346.84
849.38	23082.66
849.56	22994.59
849.73	23029.41
849.91	23246.49
850.08	23367.32
850.26	23127.71
850.43	22972.07
850.61	23250.59
850.78	22812.32
850.96	23033.50
851.14	23021.22
851.31	22896.29
851.49	22922.91
851.66	23230.11
851.84	22779.56
852.01	22961.83
852.19	22822.56
852.36	22480.55
852.54	22689.45
852.71	22451.88
852.89	22556.33
853.07	22468.27
853.24	22537.90
853.42	22709.93
853.59	22593.19
853.77	22705.83
853.94	22404.78
854.12	22718.12
854.29	22142.64
854.47	22372.01
854.64	22666.92
854.82	22308.52
854.99	22458.03
855.17	22306.48
855.34	22400.68
855.52	22374.06
855.69	22197.93
855.87	22126.25
856.04	21954.22
856.22	22187.69
856.39	22181.55
856.57	22124.21
856.74	21989.04
856.92	21966.51
857.09	21812.92
857.27	21937.84
857.44	21933.75
857.62	22187.69
857.79	21630.65
857.97	21638.84
858.14	21898.93
858.32	21733.04
858.49	21593.78
858.67	21737.14
858.84	21485.24
859.02	21604.02
859.19	21464.76
859.37	21636.79
859.54	21606.07
859.72	21745.33
859.89	21677.75
860.06	21438.14
860.24	21477.05
860.41	21161.66
860.59	21319.35
860.76	21483.19
860.94	21038.78
861.11	21436.09
861.29	21087.93
861.46	21182.14
861.64	21092.03
861.81	21092.03
861.98	20854.47
862.16	20885.19
862.33	20727.49
862.51	20862.66
862.68	21239.48
862.86	20741.83
863.03	20930.24
863.21	20854.47
863.38	21020.35
863.55	20539.08
863.73	21018.30
863.90	20580.04
864.08	20729.54
864.25	20553.41
864.43	20874.95
864.60	20448.97
864.77	20258.51
864.95	20268.75
865.12	20487.88
865.30	20444.87
865.47	20186.83
865.64	20467.40
865.82	20573.89
865.99	20805.31
866.17	20166.35
866.34	20154.06
866.51	20139.72
866.69	20123.34
866.86	20305.61
867.04	20283.08
867.21	20121.29
867.38	19900.11
867.56	19871.44
867.73	20092.62
867.91	20109.01
868.08	19723.99
868.25	19812.05
868.43	19576.53
868.60	19652.31
868.78	19668.69
868.95	19687.12
869.12	19502.81
869.30	19734.23
869.47	19611.35
869.64	19279.58
869.82	19511.00
869.99	19531.48
870.16	19572.44
870.34	19607.25
870.51	19701.46
870.69	19603.16
870.86	19539.67
871.03	19283.67
871.21	19361.50
871.38	19568.34
871.55	19209.95
871.73	19115.74
871.90	19214.04
872.07	19269.34
872.25	19078.88
872.42	18966.24
872.59	18974.43
872.77	19193.56
872.94	19048.16
873.11	19113.69
873.29	18829.02
873.46	18804.45
873.63	18990.81
873.81	18786.02
873.98	18562.79
874.15	18835.17
874.33	18577.12
874.50	18558.69
874.67	18501.35
874.85	18693.86
875.02	18372.33
875.19	18433.77
875.37	18235.11
875.54	18034.41
875.71	18401.00
875.88	18171.63
876.06	18360.04
876.23	18257.64
876.40	18257.64
876.58	18192.11
876.75	17889.01
876.92	18171.63
877.10	17997.55
877.27	17952.49
877.44	17839.86
877.61	17749.75
877.79	17708.79
877.96	17657.59
878.13	17893.10
878.31	17800.94
878.48	17796.85
878.65	17452.79
878.82	17547.00
879.00	17385.21
879.17	17678.07
879.34	17694.45
879.51	17368.82
879.69	17508.08
879.86	17374.97
880.03	17301.24
880.21	17145.59
880.38	17563.38
880.55	17655.54
880.72	17094.40
880.90	17286.90
881.07	16985.85
881.24	17211.13
881.41	17299.19
881.59	17266.42
881.76	17166.07
881.93	17155.83
882.10	16959.23
882.28	17090.30
882.45	16912.13
882.62	17063.68
882.79	17303.29
882.96	16776.96
883.14	17055.48
883.31	16977.66
883.48	16764.67
883.65	16983.80
883.83	17137.40
884.00	16815.87
884.17	16715.52
884.34	16799.49
884.51	16830.21
884.69	17028.86
884.86	16580.36
885.03	16555.78
885.20	16543.49
885.38	16584.45
885.55	16379.65
885.72	16760.58
885.89	16568.07
886.06	16574.21
886.24	16510.72
886.41	16322.31
886.58	16860.93
886.75	16746.24
886.92	16178.95
887.10	16498.44
887.27	16418.57
887.44	16418.57
887.61	16561.92
887.78	16267.02
887.95	16402.18
888.13	16437.00
888.30	16445.19
888.47	15931.15
888.64	16109.32
888.81	16238.34
888.99	16391.94
889.16	16066.31
889.33	16060.17
889.50	15961.87
889.67	16072.46
889.84	16025.36
890.01	16107.27
890.19	16289.54
890.36	15884.05
890.53	15992.59
890.70	15654.67
890.87	15816.46
891.04	15533.84
891.22	15855.37
891.39	15759.12
891.56	15671.06
891.73	15742.74
891.90	15855.37
892.07	15537.94
892.24	15623.95
892.42	15580.95
892.59	15513.36
892.76	15853.33
892.93	15521.56
893.10	15425.30
893.27	15795.98
893.44	15283.99
893.61	15431.44
893.79	15443.73
893.96	15320.85
894.13	15449.88
894.30	15476.50
894.47	15349.53
894.64	15570.71
894.81	15494.93
894.98	15564.56
895.15	15451.92
895.33	15320.85
895.50	15382.29
895.67	15351.57
895.84	15261.46
896.01	15300.37
896.18	15134.49
896.35	15621.91
896.52	15290.13
896.69	15277.85
896.86	15292.18
897.04	15089.43
897.21	15310.61
897.38	15232.79
897.55	15322.90
897.72	15376.15
897.89	15314.71
898.06	15410.96
898.23	15234.84
898.40	15212.31
898.57	15388.44
898.74	15154.97
898.91	15157.02
899.08	15089.43
899.26	15324.95
899.43	15253.27
899.60	15220.50
899.77	15269.66
899.94	15163.16
900.11	15099.67
900.28	15183.64
900.45	15257.37
900.62	15120.15
900.79	15355.67
900.96	15253.27
901.13	15202.07
901.30	15187.74
901.47	14911.26
901.64	15308.57
901.81	15240.98
901.98	15068.95
902.15	15296.28
902.32	15144.73
902.49	14941.98
902.66	15066.91
902.83	15144.73
903.01	15243.03
903.18	15304.47
903.35	14974.75
903.52	14978.84
903.69	15034.14
903.86	15185.69
904.03	15265.56
904.20	15071.00
904.37	15251.22
904.54	14870.30
904.71	15036.19
904.88	15040.28
905.05	14962.46
905.22	15140.63
905.39	15122.20
905.56	15079.19
905.73	15054.62
905.90	15138.58
906.07	15165.21
906.24	15083.29
906.41	15030.04
906.58	15140.63
906.75	15167.26
906.92	14960.41
907.09	15163.16
907.26	15103.77
907.43	15316.76
907.60	15009.56
907.77	15204.12
907.93	14823.20
908.10	15120.15
908.27	15157.02
908.44	14913.31
908.61	14604.07
908.78	15126.30
908.95	15046.43
909.12	14806.81
909.29	15066.91
909.46	15038.23
909.63	14849.82
909.80	15052.57
909.97	15048.47
910.14	14894.88
910.31	14880.54
910.48	14552.87
910.65	14995.23
910.82	14960.41
910.99	14929.69
911.16	14825.25
911.33	14946.08
911.50	14743.33
911.66	14804.77
911.83	14806.81
912.00	14604.07
912.17	14651.17
912.34	14724.90
912.51	14675.74
912.68	14565.15
912.85	14724.90
913.02	14593.83
913.19	14479.14
913.36	14647.07
913.53	14817.05
913.70	14505.76
913.86	14612.26
914.03	14466.85
914.20	14462.76
914.37	14298.92
914.54	14298.92
914.71	14688.03
914.88	14429.99
915.05	14143.27
915.22	14227.24
915.39	14333.73
915.55	14169.90
915.72	14231.33
915.89	14196.52
916.06	14114.60
916.23	14208.81
916.40	13924.14
916.57	13932.33
916.74	14065.45
916.91	13866.80
917.07	13709.10
917.24	13844.27
917.41	13782.83
917.58	13909.80
917.75	13707.05
917.92	13600.56
918.09	13721.39
918.26	13741.87
918.42	13598.51
918.59	13690.67
918.76	13530.93
918.93	13651.76
919.10	13391.67
919.27	13180.73
919.44	13485.87
919.60	13668.14
919.77	13315.89
919.94	13283.13
920.11	13158.20
920.28	13418.29
920.45	13143.86
920.61	13053.75
920.78	13072.18
920.95	13094.71
921.12	12992.31
921.29	12871.48
921.46	12986.17
921.62	12881.72
921.79	12842.81
921.96	12730.17
922.13	12867.39
922.30	12826.43
922.47	12568.38
922.63	12533.57
922.80	12785.47
922.97	12560.19
923.14	12498.75
923.31	12595.01
923.47	12552.00
923.64	12705.60
923.81	12416.83
923.98	12375.88
924.15	12244.81
924.32	12377.92
924.48	12160.84
924.65	12234.57
924.82	12070.73
924.99	11997.00
925.15	11845.45
925.32	11953.99
925.49	11833.16
925.66	11966.28
925.83	11769.68
925.99	11779.92
926.16	11755.34
926.33	11831.12
926.50	11470.67
926.67	11736.91
926.83	11722.57
927.00	11646.80
927.17	11296.60
927.34	11433.81
927.50	11480.91
927.67	11544.40
927.84	11327.32
928.01	11206.48
928.17	11081.56
928.34	11065.18
928.51	11052.89
928.68	11030.36
928.84	11214.68
929.01	11147.09
929.18	10637.15
929.35	10973.02
929.51	10807.13
929.68	10792.80
929.85	10780.51
930.02	10719.07
930.18	10663.77
930.35	10532.70
930.52	10592.09
930.69	10557.28
930.85	10489.70
931.02	10231.65
931.19	10405.73
931.36	10481.50
931.52	10493.79
931.69	10317.67
931.86	10289.00
932.02	10196.84
932.19	10133.35
932.36	9989.99
932.53	10092.39
932.69	10141.54
932.86	10190.69
933.03	10057.57
933.19	9846.63
933.36	9820.01
933.53	9910.12
933.70	9609.07
933.86	9645.93
934.03	9629.55
934.20	9598.83
934.36	9643.88
934.53	9285.49
934.70	9252.72
934.86	9496.43
935.03	9283.44
935.20	9191.28
935.36	9101.17
935.53	8982.39
935.70	8882.04
935.86	9107.32
936.03	8920.95
936.20	8865.66
936.36	8669.05
936.53	8793.98
936.70	8562.56
936.86	8771.45
937.03	8427.39
937.20	8341.38
937.36	8353.66
937.53	8161.16
937.70	8085.38
937.86	8105.86
938.03	8003.46
938.20	7989.13
938.36	7663.50
938.53	7749.51
938.70	7464.85
938.86	7413.65
939.03	7276.43
939.20	7335.82
939.36	7448.46
939.53	7376.78
939.70	7462.80
939.86	7100.31
940.03	6938.52
940.19	6846.36
940.36	6940.57
940.53	6727.58
940.69	6678.43
940.86	6743.96
941.03	6569.88
941.19	6533.02
941.36	6475.68
941.52	6475.68
941.69	6334.37
941.86	6270.88
942.02	6231.97
942.19	6172.58
942.35	6129.57
942.52	6152.10
942.69	6164.39
942.85	5986.21
943.02	5914.53
943.18	5900.20
943.35	5902.25
943.52	5885.86
943.68	5840.81
943.85	5816.23
944.01	5726.12
944.18	5601.19
944.35	5687.21
944.51	5679.02
944.68	5498.80
944.84	5605.29
945.01	5558.19
945.17	5523.37
945.34	5625.77
945.51	5646.25
945.67	5488.56
945.84	5427.12
946.00	5441.45
946.17	5373.87
946.33	5367.73
946.50	5375.92
946.67	5380.01
946.83	5222.32
947.00	5461.93
947.16	5476.27
947.33	5398.45
947.49	5324.72
947.66	5359.53
947.82	5466.03
947.99	5322.67
948.16	5480.36
948.32	5410.73
948.49	5461.93
948.65	5400.49
948.82	5281.71
948.98	5248.94
949.15	5240.75
949.31	5308.34
949.48	5425.07
949.64	5201.84
949.81	5547.95
949.97	5236.66
950.14	5384.11
950.30	5343.15
950.47	5353.39
950.63	5353.39
950.80	5377.97
950.96	5451.69
951.13	5390.25
951.30	5343.15
951.46	5420.97
951.63	5425.07
951.79	5447.60
951.96	5527.47
952.12	5474.22
952.29	5521.32
952.45	5279.66
952.62	5488.56
952.78	5427.12
952.94	5396.40
953.11	5595.05
953.27	5402.54
953.44	5588.91
953.60	5447.60
953.77	5461.93
953.93	5390.25
954.10	5525.42
954.26	5459.88
954.43	5484.46
954.59	5500.84
954.76	5566.38
954.92	5566.38
955.09	5511.08
955.25	5441.45
955.42	5416.88
955.58	5601.19
955.75	5566.38
955.91	5670.83
956.07	5451.69
956.24	5476.27
956.40	5556.14
956.57	5658.54
956.73	5406.64
956.90	5400.49
957.06	5558.19
957.23	5429.17
957.39	5486.51
957.56	5449.64
957.72	5509.04
957.88	5347.25
958.05	5554.09
958.21	5730.22
958.38	5521.32
958.54	5560.24
958.71	5664.68
958.87	5580.71
959.03	5605.29
959.20	5537.71
959.36	5390.25
959.53	5461.93
959.69	5478.32
959.85	5568.43
960.02	5363.63
960.18	5420.97
960.35	5461.93
960.51	5539.76
960.68	5463.98
960.84	5500.84
961.00	5461.93
961.17	5412.78
961.33	5537.71
961.50	5533.61
961.66	5506.99
961.82	5533.61
961.99	5443.50
962.15	5672.87
962.31	5488.56
962.48	5349.29
962.64	5509.04
962.81	5488.56
962.97	5506.99
963.13	5463.98
963.30	5550.00
963.46	5296.05
963.62	5271.47
963.79	5666.73
963.95	5486.51
964.12	5523.37
964.28	5480.36
964.44	5429.17
964.61	5474.22
964.77	5337.01
964.93	5494.70
965.10	5506.99
965.26	5375.92
965.42	5339.05
965.59	5459.88
965.75	5470.12
965.92	5304.24
966.08	5560.24
966.24	5310.38
966.41	5363.63
966.57	5463.98
966.73	5408.69
966.90	5332.91
967.06	5420.97
967.22	5404.59
967.39	5396.40
967.55	5078.96
967.71	5394.35
967.88	5289.90
968.04	5226.42
968.20	5240.75
968.37	5087.15
968.53	5253.04
968.69	5324.72
968.85	5185.46
969.02	5263.28
969.18	5287.86
969.34	5248.94
969.51	5263.28
969.67	5164.98
969.83	5179.31
970.00	5322.67
970.16	5099.44
970.32	5078.96
970.48	5300.14
970.65	5101.49
970.81	5130.16
970.97	5210.03
971.14	4974.52
971.30	5273.52
971.46	5107.63
971.63	5169.07
971.79	5128.11
971.95	5023.67
972.11	5058.48
972.28	5103.54
972.44	5015.48
972.60	4956.08
972.76	5025.72
972.93	4997.04
973.09	5056.43
973.25	5109.68
973.42	4984.76
973.58	5033.91
973.74	4882.36
973.90	5058.48
974.07	4865.97
974.23	4937.65
974.39	4878.26
974.55	4919.22
974.72	4978.61
974.88	4743.10
975.04	4937.65
975.20	4882.36
975.37	4906.93
975.53	4804.53
975.69	4896.69
975.85	4833.21
976.01	4779.96
976.18	4753.34
976.34	4820.92
976.50	4931.51
976.66	4886.45
976.83	4812.73
976.99	4759.48
977.15	4671.42
977.31	4558.78
977.47	4782.01
977.64	4603.83
977.80	4796.34
977.96	4702.14
978.12	4671.42
978.29	4644.79
978.45	4511.68
978.61	4652.98
978.77	4628.41
978.93	4548.54
979.10	4640.70
979.26	4638.65
979.42	4616.12
979.58	4460.48
979.74	4440.00
979.91	4550.59
980.07	4540.35
980.23	4333.50
980.39	4507.58
980.55	4585.40
980.71	4540.35
980.88	4485.05
981.04	4411.32
981.20	4376.51
981.36	4325.31
981.52	4427.71
981.68	4444.09
981.85	4581.31
982.01	4347.84
982.17	4296.64
982.33	4409.28
982.49	4411.32
982.65	4335.55
982.82	4394.94
982.98	4370.37
983.14	4198.34
983.30	4319.17
983.46	4409.28
983.62	4433.85
983.79	4241.34
983.95	4161.47
984.11	4188.10
984.27	4255.68
984.43	4296.64
984.59	4145.09
984.75	4276.16
984.91	4134.85
985.08	4335.55
985.24	4177.86
985.40	4120.51
985.56	4095.94
985.72	4065.22
985.88	4054.98
986.04	4255.68
986.20	4061.12
986.37	4108.23
986.53	4003.78
986.69	4147.14
986.85	4032.45
987.01	4011.97
987.17	4138.94
987.33	4054.98
987.49	4038.59
987.65	4030.40
987.82	4112.32
987.98	3794.89
988.14	4001.73
988.30	4149.18
988.46	3989.44
988.62	3962.82
988.78	3809.22
988.94	3911.62
989.10	3833.80
989.26	3891.14
989.42	3907.52
989.59	3784.65
989.75	3850.18
989.91	3948.48
990.07	3817.41
990.23	3868.61
990.39	3831.75
990.55	3887.04
990.71	3731.40
990.87	3893.19
991.03	3882.95
991.19	3792.84
991.35	3741.64
991.51	3733.45
991.67	3923.91
991.83	3753.93
992.00	3821.51
992.16	3770.31
992.32	3758.02
992.48	3805.13
992.64	3698.63
992.80	3661.77
992.96	3735.50
993.12	3715.02
993.28	3669.96
993.44	3712.97
993.60	3700.68
993.76	3762.12
993.92	3749.83
994.08	3649.48
994.24	3682.25
994.40	3600.33
994.56	3678.15
994.72	3547.08
994.88	3616.71
995.04	3631.05
995.20	3497.93
995.36	3549.13
995.52	3645.38
995.68	3508.17
995.84	3506.12
996.00	3682.25
996.16	3596.23
996.32	3514.31
996.48	3536.84
996.64	3639.24
996.80	3340.24
996.96	3452.88
997.12	3375.05
997.28	3426.25
997.44	3319.76
997.60	3461.07
997.76	3364.81
997.92	3413.96
998.08	3395.53
998.24	3383.24
998.40	3405.77
998.56	3422.16
998.72	3213.26
998.88	3325.90
999.04	3334.09
999.20	3383.24
999.36	3399.63
999.52	3350.48
999.68	3379.15
999.84	3409.87
1000.00	3295.18
1000.16	3291.09
1000.32	3307.47
1000.48	3264.46
1000.64	3125.20
1000.80	3332.05
1000.95	3211.22
1001.11	3233.74
1001.27	3125.20
1001.43	3354.57
1001.59	3194.83
1001.75	3141.58
1001.91	3106.77
1002.07	3160.02
1002.23	2998.23
1002.39	3166.16
1002.55	3151.82
1002.71	3168.21
1002.87	3162.06
1003.03	3139.54
1003.19	3098.58
1003.34	3114.96
1003.50	3106.77
1003.66	3149.78
1003.82	3102.67
1003.98	3151.82
1004.14	3047.38
1004.30	2955.22
1004.46	3008.47
1004.62	3018.71
1004.78	2963.41
1004.94	3074.00
1005.09	3022.80
1005.25	3082.19
1005.41	3055.57
1005.57	3018.71
1005.73	2979.79
1005.89	3022.80
1006.05	3061.71
1006.21	2998.23
1006.37	2940.88
1006.52	2908.12
1006.68	2838.48
1006.84	3026.90
1007.00	2904.02
1007.16	3016.66
1007.32	2830.29
1007.48	2871.25
1007.64	2963.41
1007.79	2934.74
1007.95	2908.12
1008.11	3071.95
1008.27	2832.34
1008.43	2830.29
1008.59	2797.53
1008.75	2918.36
1008.91	2871.25
1009.06	2834.39
1009.22	2928.60
1009.38	2879.44
1009.54	2828.24
1009.70	2840.53
1009.86	2856.92
1010.01	2764.76
1010.17	2715.61
1010.33	2738.13
1010.49	2789.33
1010.65	2754.52
1010.81	2676.70
1010.96	2711.51
1011.12	2752.47
1011.28	2699.22
1011.44	2750.42
1011.60	2645.98
1011.76	2719.70
1011.91	2768.85
1012.07	2564.06
1012.23	2678.74
1012.39	2580.44
1012.55	2678.74
1012.71	2682.84
1012.86	2598.87
1013.02	2633.69
1013.18	2615.26
1013.34	2633.69
1013.50	2637.78
1013.65	2592.73
1013.81	2605.02
1013.97	2660.31
1014.13	2615.26
1014.29	2543.58
1014.44	2686.94
1014.60	2594.78
1014.76	2584.54
1014.92	2523.10
1015.07	2643.93
1015.23	2488.28
1015.39	2467.80
1015.55	2574.30
1015.71	2486.23
1015.86	2463.71
1016.02	2572.25
1016.18	2463.71
1016.34	2650.07
1016.49	2519.00
1016.65	2502.62
1016.81	2602.97
1016.97	2486.23
1017.12	2478.04
1017.28	2461.66
1017.44	2426.84
1017.60	2525.15
1017.75	2492.38
1017.91	2471.90
1018.07	2465.75
1018.23	2551.77
1018.38	2394.08
1018.54	2463.71
1018.70	2459.61
1018.86	2435.03
1019.01	2338.78
1019.17	2353.12
1019.33	2416.60
1019.49	2408.41
1019.64	2387.93
1019.80	2445.27
1019.96	2455.51
1020.12	2465.75
1020.27	2355.16
1020.43	2420.70
1020.59	2422.75
1020.74	2428.89
1020.90	2346.97
1021.06	2357.21
1021.22	2349.02
1021.37	2346.97
1021.53	2338.78
1021.69	2455.51
1021.84	2230.24
1022.00	2279.39
1022.16	2297.82
1022.31	2285.53
1022.47	2351.07
1022.63	2252.77
1022.79	2322.40
1022.94	2340.83
1023.10	2389.98
1023.26	2244.57
1023.41	2236.38
1023.57	2287.58
1023.73	2291.68
1023.88	2310.11
1024.04	2265.05
1024.20	2197.47
1024.35	2265.05
1024.51	2258.91
1024.67	2250.72
1024.82	2312.16
1024.98	2123.74
1025.14	2193.37
1025.29	2211.81
1025.45	2295.77
1025.61	2144.22
1025.76	2150.37
1025.92	2207.71
1026.08	2224.09
1026.23	2242.53
1026.39	2281.44
1026.55	2215.90
1026.70	2144.22
1026.86	2099.17
1027.02	2158.56
1027.17	2211.81
1027.33	2230.24
1027.48	2185.18
1027.64	2189.28
1027.80	2090.98
1027.95	2201.57
1028.11	2007.01
1028.27	2127.84
1028.42	2152.42
1028.58	2097.12
1028.73	2115.55
1028.89	2039.78
1029.05	2172.89
1029.20	2170.85
>>>>>End Processed Spectral Data<<<<<
