SpectraSuite Data File
++++++++++++++++++++++++++++++++++++
Date: Fri Jun 02 14:49:25 CEST 2017
User: INFO_000
Dark Spectrum Present: No
Reference Spectrum Present: No
Number of Sampled Component Spectra: 1
Spectrometers: USB4H00879
Integration Time (usec): 80000 (USB4H00879)
Spectra Averaged: 1 (USB4H00879)
Boxcar Smoothing: 0 (USB4H00879)
Correct for Electrical Dark: No (USB4H00879)
Strobe/Lamp Enabled: No (USB4H00879)
Correct for Detector Non-linearity: No (USB4H00879)
Correct for Stray Light: No (USB4H00879)
Number of Pixels in Processed Spectrum: 3648
>>>>>Begin Processed Spectral Data<<<<<
345.13	1255.40
345.34	1255.40
345.56	1255.40
345.78	1263.60
345.99	1310.70
346.21	1744.87
346.42	1769.44
346.64	1597.42
346.86	1728.49
347.07	1691.62
347.29	1677.29
347.50	1681.38
347.72	1720.29
347.94	1798.12
348.15	1593.32
348.37	1646.57
348.59	1699.81
348.80	1640.42
349.02	1802.21
349.23	1888.23
349.45	1855.46
349.67	1931.23
349.88	1812.45
350.10	1988.58
350.31	1818.60
350.53	1906.66
350.75	1929.19
350.96	1742.82
351.18	1855.46
351.39	1914.85
351.61	1802.21
351.82	1929.19
352.04	1910.75
352.26	1804.26
352.47	1916.90
352.69	1951.71
352.90	1767.40
353.12	1816.55
353.34	1828.84
353.55	1927.14
353.77	1918.95
353.98	1771.49
354.20	1828.84
354.41	1990.63
354.63	1945.57
354.85	2035.68
355.06	1892.32
355.28	1728.49
355.49	1822.69
355.71	1947.62
355.92	1830.88
356.14	1937.38
356.35	1859.56
356.57	1855.46
356.79	1990.63
357.00	1906.66
357.22	2009.06
357.43	1853.41
357.65	1974.24
357.86	1832.93
358.08	1886.18
358.29	1947.62
358.51	1933.28
358.72	1959.91
358.94	1908.71
359.16	1966.05
359.37	1998.82
359.59	1871.84
359.80	1992.67
360.02	1916.90
360.23	2033.63
360.45	2011.11
360.66	1892.32
360.88	1804.26
361.09	1904.61
361.31	2045.92
361.52	2019.30
361.74	2052.06
361.95	2093.02
362.17	2025.44
362.38	2080.74
362.60	2097.12
362.81	1974.24
363.03	1910.75
363.24	1972.19
363.46	1996.77
363.67	2027.49
363.89	1996.77
364.10	2013.15
364.32	1982.43
364.53	2052.06
364.75	1951.71
364.96	2054.11
365.18	1992.67
365.39	2019.30
365.61	2045.92
365.82	2166.75
366.04	1972.19
366.25	1953.76
366.47	2088.93
366.68	2052.06
366.90	2019.30
367.11	2058.21
367.33	2068.45
367.54	2115.55
367.76	1974.24
367.97	2093.02
368.19	2035.68
368.40	2047.97
368.62	2004.96
368.83	1941.47
369.05	2035.68
369.26	1945.57
369.48	1955.81
369.69	2007.01
369.91	1980.39
370.12	2050.02
370.33	2129.89
370.55	1912.80
370.76	2039.78
370.98	2080.74
371.19	2136.03
371.41	2013.15
371.62	1957.86
371.84	1994.72
372.05	2140.13
372.27	2031.58
372.48	2105.31
372.69	2043.87
372.91	2164.70
373.12	2166.75
373.34	2181.09
373.55	2131.94
373.77	2150.37
373.98	2027.49
374.20	2174.94
374.41	2224.09
374.62	2088.93
374.84	2148.32
375.05	2176.99
375.27	2142.18
375.48	2265.05
375.70	2205.66
375.91	2220.00
376.12	2301.92
376.34	2117.60
376.55	2172.89
376.77	2224.09
376.98	2164.70
377.19	2142.18
377.41	2068.45
377.62	2291.68
377.84	2295.77
378.05	2338.78
378.27	2109.41
378.48	2330.59
378.69	2344.92
378.91	2340.83
379.12	2199.52
379.34	2232.29
379.55	2269.15
379.76	2256.86
379.98	2154.46
380.19	2172.89
380.41	2252.77
380.62	2295.77
380.83	2267.10
381.05	2234.33
381.26	2351.07
381.47	2279.39
381.69	2326.49
381.90	2447.32
382.12	2312.16
382.33	2328.54
382.54	2279.39
382.76	2322.40
382.97	2398.17
383.19	2211.81
383.40	2324.44
383.61	2281.44
383.83	2285.53
384.04	2301.92
384.25	2332.64
384.47	2426.84
384.68	2344.92
384.89	2312.16
385.11	2373.60
385.32	2408.41
385.54	2234.33
385.75	2381.79
385.96	2373.60
386.18	2516.95
386.39	2379.74
386.60	2334.68
386.82	2396.12
387.03	2379.74
387.24	2482.14
387.46	2365.40
387.67	2506.71
387.88	2422.75
388.10	2344.92
388.31	2422.75
388.52	2525.15
388.74	2525.15
388.95	2396.12
389.16	2590.68
389.38	2471.90
389.59	2541.53
389.80	2568.15
390.02	2652.12
390.23	2623.45
390.44	2506.71
390.66	2656.22
390.87	2475.99
391.08	2566.10
391.30	2748.37
391.51	2586.58
391.72	2615.26
391.94	2621.40
392.15	2668.50
392.36	2672.60
392.58	2582.49
392.79	2615.26
393.00	2674.65
393.22	2676.70
393.43	2729.94
393.64	2809.81
393.85	2729.94
394.07	2625.50
394.28	2758.61
394.49	2721.75
394.71	2748.37
394.92	2818.00
395.13	2693.08
395.35	2697.17
395.56	2711.51
395.77	2707.41
395.98	2756.57
396.20	2877.40
396.41	2787.29
396.62	2908.12
396.84	2762.71
397.05	2846.68
397.26	2822.10
397.47	2975.70
397.69	2930.64
397.90	2955.22
398.11	2852.82
398.32	2729.94
398.54	2768.85
398.75	2852.82
398.96	2899.92
399.18	3127.25
399.39	2944.98
399.60	3117.01
399.81	2889.68
400.03	2963.41
400.24	3184.59
400.45	2912.21
400.66	3057.62
400.88	2979.79
401.09	3243.98
401.30	3071.95
401.51	3096.53
401.73	3028.95
401.94	3168.21
402.15	3157.97
402.36	3096.53
402.58	3035.09
402.79	3088.34
403.00	3139.54
403.21	3102.67
403.43	3139.54
403.64	3133.39
403.85	3053.52
404.06	3241.93
404.27	3149.78
404.49	3174.35
404.70	3047.38
404.91	3276.75
405.12	3262.41
405.34	3262.41
405.55	3348.43
405.76	3125.20
405.97	3217.36
406.19	3209.17
406.40	3260.37
406.61	3225.55
406.82	3278.80
407.03	3305.42
407.25	3286.99
407.46	3332.05
407.67	3346.38
407.88	3424.20
408.09	3342.28
408.31	3436.49
408.52	3360.72
408.73	3334.09
408.94	3332.05
409.15	3436.49
409.37	3454.92
409.58	3471.31
409.79	3356.62
410.00	3454.92
410.21	3424.20
410.43	3452.88
410.64	3338.19
410.85	3538.89
411.06	3534.79
411.27	3534.79
411.48	3655.62
411.70	3461.07
411.91	3547.08
412.12	3678.15
412.33	3592.14
412.54	3499.98
412.76	3694.54
412.97	3655.62
413.18	3473.36
413.39	3598.28
413.60	3672.01
413.81	3745.73
414.03	3577.80
414.24	3622.86
414.45	3743.69
414.66	3475.40
414.87	3684.30
415.08	3700.68
415.30	3749.83
415.51	3772.36
415.72	3704.78
415.93	3768.26
416.14	3725.26
416.35	3874.76
416.56	3876.80
416.78	3776.45
416.99	3893.19
417.20	3852.23
417.41	3819.46
417.62	3964.87
417.83	3960.77
418.04	3672.01
418.26	3975.11
418.47	3975.11
418.68	4030.40
418.89	3880.90
419.10	4022.21
419.31	3913.67
419.52	3946.44
419.73	3925.96
419.95	4073.41
420.16	3948.48
420.37	4050.88
420.58	4032.45
420.79	3923.91
421.00	3991.49
421.21	4087.75
421.42	4038.59
421.63	4237.25
421.85	4153.28
422.06	4241.34
422.27	4249.54
422.48	4220.86
422.69	4251.58
422.90	4120.51
423.11	4206.53
423.32	4249.54
423.53	4329.41
423.75	4364.22
423.96	4458.43
424.17	4272.06
424.38	4454.33
424.59	4353.98
424.80	4489.15
425.01	4370.37
425.22	4321.21
425.43	4296.64
425.64	4513.72
425.85	4628.41
426.06	4530.11
426.28	4540.35
426.49	4382.65
426.70	4460.48
426.91	4648.89
427.12	4640.70
427.33	4685.75
427.54	4652.98
427.75	4624.31
427.96	4804.53
428.17	4767.67
428.38	4665.27
428.59	4827.06
428.80	4675.51
429.01	4812.73
429.23	4808.63
429.44	4884.41
429.65	4812.73
429.86	4888.50
430.07	4810.68
430.28	4759.48
430.49	4935.60
430.70	5042.10
430.91	4958.13
431.12	4845.49
431.33	5005.24
431.54	5144.50
431.75	5089.20
431.96	4933.56
432.17	5029.81
432.38	5040.05
432.59	5271.47
432.80	5060.53
433.01	5306.29
433.22	5257.14
433.43	5261.23
433.64	5267.38
433.85	5136.31
434.06	5367.73
434.27	5214.13
434.49	5232.56
434.70	5382.06
434.91	5459.88
435.12	5480.36
435.33	5287.86
435.54	5414.83
435.75	5300.14
435.96	5316.53
436.17	5255.09
436.38	5545.90
436.59	5466.03
436.80	5443.50
437.01	5775.27
437.22	5734.31
437.43	5568.43
437.64	5332.91
437.85	5765.03
438.06	5728.17
438.27	5525.42
438.48	5633.96
438.69	5752.74
438.90	5601.19
439.11	5715.88
439.32	5762.98
439.53	5590.95
439.74	5779.37
439.95	5885.86
440.16	5691.31
440.37	5760.94
440.57	5732.26
440.78	5865.38
440.99	6025.12
441.20	5842.85
441.41	5703.59
441.62	5885.86
441.83	5697.45
442.04	6010.79
442.25	5947.30
442.46	5959.59
442.67	6205.35
442.88	6551.45
443.09	6014.88
443.30	6088.61
443.51	6074.28
443.72	6299.55
443.93	6004.64
444.14	6383.52
444.35	6098.85
444.56	6426.53
444.77	6301.60
444.98	6358.94
445.19	6410.14
445.40	6281.12
445.61	6422.43
445.81	6567.84
446.02	6510.49
446.23	6467.49
446.44	6174.63
446.65	6498.20
446.86	6535.07
447.07	6543.26
447.28	6649.75
447.49	6729.63
447.70	6567.84
447.91	6705.05
448.12	6643.61
448.33	6836.12
448.54	6713.24
448.74	6621.08
448.95	6836.12
449.16	6555.55
449.37	7096.21
449.58	6774.68
449.79	6952.85
450.00	6698.91
450.21	6805.40
450.42	7073.68
450.63	6948.76
450.84	6981.53
451.05	6979.48
451.25	6928.28
451.46	6889.37
451.67	6987.67
451.88	7020.44
452.09	7098.26
452.30	6975.38
452.51	7210.90
452.72	7448.46
452.93	7440.27
453.13	7178.13
453.34	7249.81
453.55	7397.26
453.76	7278.48
453.97	7511.95
454.18	7583.63
454.39	7415.69
454.60	7518.09
454.81	7278.48
455.01	7739.27
455.22	7378.83
455.43	7477.13
455.64	7665.55
455.85	7751.56
456.06	7939.97
456.27	7923.59
456.48	7600.01
456.68	7698.31
456.89	7800.71
457.10	7925.64
457.31	7989.13
457.52	8015.75
457.73	7917.45
457.94	8177.54
458.14	7884.68
458.35	8081.28
458.56	8277.89
458.77	8241.03
458.98	8265.60
459.19	8066.95
459.39	8370.05
459.60	8374.14
459.81	8339.33
460.02	8486.78
460.23	8435.58
460.44	8560.51
460.65	8605.56
460.85	8707.96
461.06	8624.00
461.27	8361.86
461.48	8705.92
461.69	8857.46
461.89	8513.41
462.10	8843.13
462.31	8703.87
462.52	8703.87
462.73	8662.91
462.94	8992.63
463.14	8820.60
463.35	8908.66
463.56	9351.03
463.77	9285.49
463.98	9037.69
464.18	9340.79
464.39	9123.70
464.60	9461.62
464.81	9242.48
465.02	9289.59
465.23	9598.83
465.43	9445.23
465.64	9592.69
465.85	9594.73
466.06	9500.53
466.27	9858.92
466.47	9713.52
466.68	9924.46
466.89	9723.76
467.10	10020.71
467.30	9717.61
467.51	9985.90
467.72	10139.49
467.93	9768.81
468.14	10219.36
468.34	10233.70
468.55	10368.87
468.76	10334.05
468.97	10131.30
469.17	10364.77
469.38	10575.71
469.59	10798.94
469.80	10661.73
470.01	10641.25
470.21	10600.29
470.42	10821.47
470.63	10915.67
470.84	10762.08
471.04	11011.93
471.25	11065.18
471.46	10934.11
471.67	11298.64
471.87	11183.96
472.08	11237.20
472.29	11353.94
472.50	11243.35
472.70	11253.59
472.91	11470.67
473.12	11644.75
473.33	11702.09
473.53	11751.24
473.74	11865.93
473.95	12001.10
474.16	12134.21
474.36	12136.26
474.57	12128.07
474.78	12410.69
474.99	12396.35
475.19	12457.79
475.40	12525.38
475.61	12840.76
475.81	12828.48
476.02	12744.51
476.23	12785.47
476.44	13252.41
476.64	13035.32
476.85	13143.86
477.06	13201.21
477.27	13426.48
477.47	13393.72
477.68	13416.24
477.89	13575.98
478.09	13496.11
478.30	13776.69
478.51	13694.77
478.71	13887.28
478.92	13946.67
479.13	14145.32
479.34	14235.43
479.54	14188.33
479.75	14542.63
479.96	14464.80
480.16	14604.07
480.37	14657.31
480.58	14636.83
480.78	15066.91
480.99	14833.44
481.20	14964.51
481.41	15107.87
481.61	15230.74
481.82	15281.94
482.03	15468.31
482.23	15501.08
482.44	15736.59
482.65	15709.97
482.85	15904.53
483.06	15773.46
483.27	16074.51
483.47	16049.93
483.68	15861.52
483.89	16271.11
484.09	16318.22
484.30	16441.09
484.51	16711.42
484.71	16645.89
484.92	16580.36
485.13	16686.85
485.33	16776.96
485.54	16994.04
485.75	17264.38
485.95	17331.96
486.16	17145.59
486.37	17497.84
486.57	17407.73
486.78	17663.73
486.98	17444.60
487.19	17602.29
487.40	17991.41
487.60	17991.41
487.81	18204.39
488.02	18257.64
488.22	18044.65
488.43	18523.88
488.64	18484.97
488.84	18394.86
489.05	18671.33
489.25	18736.87
489.46	18781.92
489.67	18726.63
489.87	19046.11
490.08	19140.32
490.29	19287.77
490.49	19492.57
490.70	19533.53
490.90	19570.39
491.11	19519.19
491.32	19572.44
491.52	19803.86
491.73	19717.84
491.94	20016.85
492.14	19910.35
492.35	20182.73
492.55	20127.44
492.76	20420.30
492.97	20577.99
493.17	20563.65
493.38	20496.07
493.58	21018.30
493.79	20561.61
494.00	20772.55
494.20	20870.85
494.41	21051.07
494.61	21059.26
494.82	21079.74
495.02	21212.86
495.23	21223.10
495.44	21532.34
495.64	21540.54
495.85	21526.20
496.05	21690.04
496.26	21628.60
496.47	22025.90
496.67	21943.99
496.88	22122.16
497.08	21751.48
497.29	22001.33
497.49	22242.99
497.70	22251.18
497.91	22271.66
498.11	22521.51
498.32	22738.60
498.52	22515.37
498.73	22875.81
498.93	22474.41
499.14	22881.95
499.34	22443.69
499.55	22929.06
499.76	22650.53
499.96	22787.75
500.17	22804.13
500.37	23137.95
500.58	23262.88
500.78	23234.21
500.99	23326.36
501.19	23563.93
501.40	23479.96
501.60	23355.04
501.81	23400.09
502.02	23637.66
502.22	23578.26
502.43	23752.34
502.63	23953.04
502.84	24125.07
503.04	23893.65
503.25	24145.55
503.45	24209.04
503.66	23815.83
503.86	23953.04
504.07	24483.47
504.27	24061.58
504.48	24688.26
504.68	24479.37
504.89	24829.57
505.09	24657.54
505.30	24835.72
505.50	24925.83
505.71	24622.73
505.91	24835.72
506.12	24645.26
506.32	24600.20
506.53	24886.92
506.73	25222.78
506.94	24940.16
507.14	24907.40
507.35	25073.28
507.55	25071.23
507.76	25511.55
507.96	25190.02
508.17	25366.14
508.37	25368.19
508.58	25276.03
508.78	25609.85
508.99	25876.09
509.19	25890.42
509.40	25665.14
509.60	25564.79
509.81	25867.89
510.01	25228.93
510.22	25849.46
510.42	25685.62
510.63	25884.28
510.83	25990.77
511.04	25982.58
511.24	26254.96
511.44	25663.10
511.65	26130.03
511.85	25820.79
512.06	25978.48
512.26	26257.01
512.47	26175.09
512.67	26443.37
512.88	26392.17
513.08	26519.15
513.29	26490.48
513.49	26646.12
513.69	26420.84
513.90	26498.67
514.10	26709.61
514.31	26887.78
514.51	26998.37
514.72	26764.90
514.92	26605.16
515.13	26750.57
515.33	27016.80
515.53	27082.34
515.74	27051.62
515.94	27016.80
516.15	27088.48
516.35	26992.23
516.56	27534.94
516.76	26981.99
516.96	27194.98
517.17	27639.39
517.37	27401.82
517.58	27756.12
517.78	27713.11
517.99	27770.46
518.19	27975.25
518.39	27803.22
518.60	27792.98
518.80	27663.96
519.01	27967.06
519.21	28008.02
519.41	28071.51
519.62	27997.78
519.82	28032.60
520.03	28175.95
520.23	28077.65
520.43	28296.78
520.64	28608.08
520.84	28841.54
521.05	28589.64
521.25	28737.10
521.45	28675.66
521.66	28907.08
521.86	29081.16
522.07	28698.19
522.27	28812.87
522.47	29257.28
522.68	29171.27
522.88	28925.51
523.08	29560.38
523.29	29406.78
523.49	29566.52
523.70	29660.73
523.90	29771.32
524.10	29709.88
524.31	29853.24
524.51	29654.59
524.71	30066.23
524.92	29681.21
525.12	30221.87
525.33	29808.19
525.53	30318.13
525.73	30314.03
525.94	30471.73
526.14	30457.39
526.34	31051.30
526.55	30740.01
526.75	30537.26
526.95	31458.85
527.16	30760.49
527.36	30953.00
527.56	31434.27
527.77	31450.66
527.97	31311.39
528.17	31342.11
528.38	31893.02
528.58	31510.05
528.78	32232.98
528.99	31723.04
529.19	32314.90
529.39	31952.41
529.60	32224.79
529.80	32030.23
530.00	32079.38
530.21	32382.48
530.41	32554.51
530.61	32517.65
530.82	32841.23
531.02	32618.00
531.22	32876.04
531.43	32663.05
531.63	32912.91
531.83	32992.78
532.04	33394.18
532.24	33205.77
532.44	33478.15
532.64	33857.02
532.85	33854.97
533.05	34203.13
533.25	33953.27
533.46	34008.57
533.66	34313.72
533.86	34051.58
534.07	34266.61
534.27	34448.88
534.47	34549.23
534.67	34516.47
534.88	34483.70
535.08	34829.80
535.28	35253.73
535.49	35007.98
535.69	35122.66
535.89	34854.38
536.09	35161.58
536.30	35485.15
536.50	35380.71
536.70	35984.86
536.91	35706.34
537.11	35677.66
537.31	35749.34
537.51	35923.42
537.72	36308.44
537.92	36586.96
538.12	36537.81
538.32	36349.40
538.53	36679.12
538.73	36386.26
538.93	36566.48
539.13	36503.00
539.34	36877.77
539.54	36802.00
539.74	36953.55
539.94	36996.56
540.15	37180.87
540.35	37182.92
540.55	37242.31
540.75	37242.31
540.96	37623.23
541.16	37461.44
541.36	37995.96
541.56	37664.19
541.77	37848.51
541.97	37703.10
542.17	37832.13
542.37	37938.62
542.58	38235.58
542.78	38133.18
542.98	37883.33
543.18	38389.17
543.38	38870.45
543.59	38802.86
543.79	38565.30
543.99	38548.92
544.19	38841.78
544.40	38550.96
544.60	38935.98
544.80	38983.09
545.00	38884.78
545.20	39404.97
545.41	38798.77
545.61	39437.73
545.81	39495.08
546.01	39140.78
546.21	39460.26
546.42	39527.84
546.62	39591.33
546.82	39425.45
547.02	39552.42
547.22	39710.11
547.43	39769.51
547.63	39656.87
547.83	39812.51
548.03	40088.99
548.23	39888.29
548.44	39880.10
548.64	40254.87
548.84	40271.26
549.04	40084.89
549.24	40273.31
549.45	40596.88
549.65	40523.16
549.85	40252.83
550.05	40949.14
550.25	40261.02
550.45	40924.56
550.66	40600.98
550.86	40711.57
551.06	40773.01
551.26	40412.57
551.46	40476.05
551.66	40777.11
551.87	40914.32
552.07	41014.67
552.27	40922.51
552.47	41272.71
552.67	41432.46
552.87	40773.01
553.07	41178.51
553.28	41592.20
553.48	41467.27
553.68	41514.37
553.88	41643.40
554.08	41031.05
554.28	41391.50
554.48	41035.15
554.69	41403.78
554.89	41497.99
555.09	41526.66
555.29	41538.95
555.49	41620.87
555.69	41446.79
555.89	41395.59
556.10	41743.75
556.30	41620.87
556.50	41764.23
556.70	41438.60
556.90	41823.62
557.10	42337.66
557.30	41760.13
557.50	41893.25
557.70	42186.11
557.91	42130.81
558.11	41760.13
558.31	42677.62
558.51	42464.63
558.71	42294.65
558.91	42585.46
559.11	42466.68
559.31	42167.68
559.51	42253.69
559.72	42218.88
559.92	42405.24
560.12	42071.42
560.32	42564.98
560.52	42341.75
560.72	42415.48
560.92	42528.12
561.12	42358.14
561.32	43122.03
561.52	42448.25
561.72	42962.29
561.93	42235.26
562.13	42630.52
562.33	42577.27
562.53	42827.12
562.73	42538.36
562.93	42638.71
563.13	42847.60
563.33	42302.84
563.53	42876.27
563.73	42528.12
563.93	42732.92
564.13	42843.51
564.33	42956.14
564.53	42550.65
564.74	43142.51
564.94	42663.28
565.14	43169.13
565.34	42755.44
565.54	43081.07
565.74	42923.38
565.94	43300.20
566.14	42403.19
566.34	42798.45
566.54	43038.06
566.74	42925.42
566.94	43365.74
567.14	43214.19
567.34	42976.62
567.54	43068.78
567.74	43212.14
567.94	43085.17
568.14	43443.56
568.34	43435.37
568.54	43615.59
568.74	43369.83
568.94	43373.93
569.14	43369.83
569.34	43447.66
569.54	43681.13
569.75	43335.02
569.95	43472.23
570.15	43734.37
570.35	43234.67
570.55	43552.10
570.75	43693.41
570.95	43674.98
571.15	44176.73
571.35	43408.75
571.55	43898.21
571.75	43865.44
571.95	43877.73
572.15	43789.67
572.35	43875.68
572.55	44029.28
572.75	43838.82
572.95	43961.70
573.15	44127.58
573.35	44078.43
573.55	43990.37
573.75	43916.64
573.95	44176.73
574.15	44303.71
574.35	44047.71
574.55	44252.51
574.75	44125.53
574.95	43883.87
575.15	43906.40
575.34	44111.20
575.54	44520.79
575.74	44668.25
575.94	44633.43
576.14	44539.22
576.34	44762.45
576.54	45266.25
576.74	44918.10
576.94	44641.62
577.14	44571.99
577.34	45194.57
577.54	45008.21
577.74	45278.54
577.94	44858.71
578.14	45356.36
578.34	45774.15
578.54	44688.73
578.74	44686.68
578.94	45227.34
579.14	45004.11
579.34	45458.76
579.54	45776.20
579.74	45874.50
579.94	45862.21
580.13	45804.87
580.33	45555.02
580.53	45516.11
580.73	45821.25
580.93	45735.24
581.13	46259.52
581.33	46296.38
581.53	46165.31
581.73	46048.58
581.93	46105.92
582.13	46087.49
582.33	46490.94
582.53	46626.10
582.73	46548.28
582.92	46673.21
583.12	46931.25
583.32	46544.19
583.52	46495.03
583.72	46572.86
583.92	46509.37
584.12	46757.17
584.32	47177.01
584.52	46658.87
584.72	46951.73
584.92	47535.40
585.11	47209.78
585.31	47232.30
585.51	47068.47
585.71	47322.41
585.91	47494.44
586.11	46937.40
586.31	46947.64
586.51	47564.07
586.71	47818.02
586.91	47793.45
587.10	47467.82
587.30	47836.45
587.50	47740.20
587.70	47756.58
587.90	47967.52
588.10	48067.87
588.30	47828.26
588.50	48287.01
588.69	48133.41
588.89	48299.30
589.09	48153.89
589.29	48500.00
589.49	49091.86
589.69	48303.39
589.89	48590.11
590.08	48575.77
590.28	48577.82
590.48	48745.75
590.68	48514.33
590.88	48764.18
591.08	48631.07
591.28	48375.07
591.47	48743.70
591.67	48678.17
591.87	48665.88
592.07	48989.46
592.27	48678.17
592.47	49255.70
592.67	49607.95
592.86	49370.38
593.06	49261.84
593.26	49542.41
593.46	49349.90
593.66	49677.58
593.86	49822.98
594.05	49679.63
594.25	50287.87
594.45	49530.12
594.65	50109.70
594.85	49341.71
595.05	49898.76
595.24	50435.33
595.44	49960.20
595.64	50105.60
595.84	49825.03
596.04	50709.75
596.23	50341.12
596.43	50679.03
596.63	50363.65
596.83	50662.65
597.03	50533.63
597.22	50703.61
597.42	50902.26
597.62	51387.63
597.82	50785.53
598.02	50480.38
598.21	51111.16
598.41	50855.16
598.61	51131.64
598.81	50838.78
599.01	51240.18
599.20	51209.46
599.40	51131.64
599.60	51320.05
599.80	52002.02
600.00	51680.49
600.19	52102.37
600.39	51483.89
600.59	52262.11
600.79	52024.55
600.98	51768.55
601.18	51995.88
601.38	51926.25
601.58	52511.97
601.78	52397.28
601.97	52073.70
602.17	52944.09
602.37	52333.79
602.57	52540.64
602.76	52745.44
602.96	52243.68
603.16	52530.40
603.36	52557.02
603.55	53058.77
603.75	52794.59
603.95	52919.51
604.15	52772.06
604.34	53167.32
604.54	52944.09
604.74	53064.92
604.94	53269.72
605.13	53425.36
605.33	53327.06
605.53	53263.57
605.73	53492.94
605.92	53482.70
606.12	53675.21
606.32	53703.88
606.52	53644.49
606.71	53902.54
606.91	53961.93
607.11	53589.20
607.30	54031.56
607.50	53791.95
607.70	54037.70
607.90	53578.96
608.09	53816.52
608.29	53843.15
608.49	53916.87
608.68	53966.02
608.88	54480.06
609.08	54174.92
609.28	54217.92
609.47	54453.44
609.67	55112.89
609.87	54439.11
610.06	54703.29
610.26	54320.32
610.46	54561.98
610.66	54275.27
610.85	54420.67
611.05	54254.79
611.25	54965.43
611.44	54500.54
611.64	54629.57
611.84	54455.49
612.03	54600.89
612.23	54893.75
612.43	54969.53
612.62	54770.88
612.82	54709.44
613.02	54842.56
613.21	54795.45
613.41	54885.56
613.61	54990.01
613.80	54445.25
614.00	54463.68
614.20	55393.46
614.39	54772.92
614.59	55176.37
614.79	55098.55
614.98	54549.70
615.18	54736.06
615.38	55178.42
615.57	54619.33
615.77	54906.04
615.97	54727.87
616.16	55053.50
616.36	54516.93
616.56	54699.20
616.75	55100.60
616.95	54836.41
617.15	54965.43
617.34	54828.22
617.54	54604.99
617.74	55123.13
617.93	55329.97
618.13	54731.96
618.32	54801.60
618.52	55147.70
618.72	54754.49
618.91	55368.88
619.11	54703.29
619.31	54797.50
619.50	54631.61
619.70	54396.10
619.90	54707.39
620.09	54897.85
620.29	54723.77
620.48	54795.45
620.68	54908.09
620.88	54623.42
621.07	54691.01
621.27	54973.63
621.46	54510.78
621.66	54770.88
621.86	54658.24
622.05	54435.01
622.25	54811.84
622.44	54711.49
622.64	54189.25
622.84	54459.58
623.03	54402.24
623.23	54686.91
623.42	54742.20
623.62	55170.23
623.82	54891.71
624.01	54486.21
624.21	54543.55
624.40	55147.70
624.60	54719.68
624.80	54404.29
624.99	54932.67
625.19	53900.49
625.38	54162.63
625.58	54770.88
625.77	54664.38
625.97	54465.73
626.17	53884.11
626.36	54922.43
626.56	54684.86
626.75	54117.57
626.95	54545.60
627.14	54418.63
627.34	54901.95
627.54	54471.87
627.73	54602.94
627.93	54394.05
628.12	53851.34
628.32	54650.05
628.51	54428.87
628.71	54191.30
628.90	54518.98
629.10	54504.64
629.30	54176.97
629.49	54437.06
629.69	54478.02
629.88	54293.70
630.08	54316.23
630.27	54545.60
630.47	53927.11
630.66	54514.88
630.86	54234.31
631.05	54170.82
631.25	54359.23
631.44	54449.35
631.64	54195.40
631.84	54181.06
632.03	55051.45
632.23	54226.12
632.42	54848.70
632.62	54187.21
632.81	53808.33
633.01	54211.78
633.20	54604.99
633.40	54635.71
633.59	53980.36
633.79	53699.79
633.98	53894.35
634.18	54179.01
634.37	54279.36
634.57	54375.62
634.76	54564.03
634.96	54416.58
635.15	54478.02
635.35	53744.84
635.54	54158.53
635.74	54449.35
635.93	53890.25
636.13	54144.20
636.32	54144.20
636.52	53587.15
636.71	53953.74
636.91	54478.02
637.10	54279.36
637.30	54138.05
637.49	54009.03
637.69	54199.49
637.88	54312.13
638.08	53814.47
638.27	54244.55
638.46	54170.82
638.66	53558.48
638.85	54475.97
639.05	54045.90
639.24	53939.40
639.44	54140.10
639.63	54312.13
639.83	54150.34
640.02	54193.35
640.22	54043.85
640.41	54324.42
640.61	53714.12
640.80	54189.25
640.99	53839.05
641.19	54645.95
641.38	53810.38
641.58	54256.84
641.77	53945.54
641.97	53843.15
642.16	54267.08
642.36	54500.54
642.55	54070.47
642.74	54127.81
642.94	54486.21
643.13	54297.80
643.33	54461.63
643.52	54224.07
643.72	54226.12
643.91	54187.21
644.10	54658.24
644.30	54752.44
644.49	54269.12
644.69	54465.73
644.88	54136.01
645.08	54049.99
645.27	54230.21
645.46	53908.68
645.66	54174.92
645.85	54645.95
646.05	54426.82
646.24	54289.60
646.43	53935.30
646.63	54465.73
646.82	54504.64
647.02	54342.85
647.21	54105.29
647.40	54062.28
647.60	54883.51
647.79	54570.18
647.99	54009.03
648.18	54273.22
648.37	55203.00
648.57	54299.84
648.76	54875.32
648.96	54392.00
649.15	54535.36
649.34	54729.92
649.54	55030.97
649.73	54281.41
649.92	54297.80
650.12	54447.30
650.31	54580.42
650.51	54881.47
650.70	54965.43
650.89	54604.99
651.09	55387.31
651.28	54432.96
651.47	54785.21
651.67	54432.96
651.86	55268.53
652.06	54195.40
652.25	54961.34
652.44	54533.31
652.64	54383.81
652.83	54740.16
653.02	54367.43
653.22	54977.72
653.41	54711.49
653.60	54318.28
653.80	54334.66
653.99	54445.25
654.18	54404.29
654.38	54832.32
654.57	54809.79
654.76	55104.70
654.96	54623.42
655.15	54582.46
655.34	54412.48
655.54	54811.84
655.73	54719.68
655.92	54809.79
656.12	54768.83
656.31	55342.26
656.50	54969.53
656.70	54953.15
656.89	54805.69
657.08	55139.51
657.28	54887.61
657.47	54793.40
657.66	55514.29
657.86	54736.06
658.05	55272.63
658.24	54992.06
658.43	55028.92
658.63	55297.20
658.82	55092.41
659.01	55366.84
659.21	55053.50
659.40	54897.85
659.59	54676.67
659.79	55407.79
659.98	55325.88
660.17	54951.10
660.36	55356.60
660.56	55383.22
660.75	55481.52
660.94	55039.16
661.14	55334.07
661.33	55268.53
661.52	54545.60
661.71	55260.34
661.91	55203.00
662.10	55151.80
662.29	55313.59
662.49	55157.94
662.68	55612.59
662.87	55041.21
663.06	55403.70
663.26	55076.02
663.45	55809.20
663.64	55112.89
663.83	55882.92
664.03	55577.78
664.22	55784.62
664.41	55622.83
664.60	55411.89
664.80	55633.07
664.99	55409.84
665.18	55538.86
665.37	55786.67
665.57	55803.05
665.76	55469.23
665.95	56177.83
666.14	55598.26
666.34	55485.62
666.53	55401.65
666.72	55653.55
666.91	55188.66
667.11	55508.14
667.30	55817.39
667.49	55471.28
667.68	55872.68
667.87	55041.21
668.07	56116.39
668.26	55608.50
668.45	55911.59
668.64	55610.54
668.84	56052.90
669.03	55999.66
669.22	55653.55
669.41	55801.00
669.60	55954.60
669.80	55491.76
669.99	56259.75
670.18	55180.47
670.37	55887.02
670.57	56216.74
670.76	55909.55
670.95	56063.14
671.14	55975.08
671.33	55710.89
671.53	56525.99
671.72	56145.06
671.91	55829.68
672.10	56046.76
672.29	55807.15
672.48	55825.58
672.68	56538.27
672.87	56243.37
673.06	56040.62
673.25	55852.20
673.44	55573.68
673.64	56210.60
673.83	56030.38
674.02	56198.31
674.21	55383.22
674.40	55991.47
674.59	55719.09
674.79	55844.01
674.98	55723.18
675.17	56122.54
675.36	55342.26
675.55	56370.34
675.74	55987.37
675.94	55950.51
676.13	56636.58
676.32	56313.00
676.51	56640.67
676.70	56116.39
676.89	56171.69
677.08	56781.98
677.28	55846.06
677.47	56294.56
677.66	56581.28
677.85	56083.62
678.04	55893.16
678.23	56612.00
678.42	55868.59
678.62	56009.90
678.81	56183.97
679.00	56401.06
679.19	56820.89
679.38	56462.50
679.57	56521.89
679.76	56171.69
679.96	56284.33
680.15	56370.34
680.34	56505.51
680.53	56120.49
680.72	56644.77
680.91	56214.69
681.10	56501.41
681.29	56743.07
681.48	56210.60
681.68	56325.28
681.87	56366.24
682.06	56212.65
682.25	55960.75
682.44	55876.78
682.63	56394.92
682.82	55743.66
683.01	56091.82
683.20	56093.86
683.39	55903.40
683.59	56032.42
683.78	55794.86
683.97	55741.61
684.16	56126.63
684.35	55743.66
684.54	56331.43
684.73	55846.06
684.92	55850.16
685.11	56048.81
685.30	56157.35
685.49	56226.98
685.69	56159.40
685.88	56161.45
686.07	56003.75
686.26	56007.85
686.45	56102.06
686.64	56100.01
686.83	56128.68
687.02	56157.35
687.21	56067.24
687.40	56278.18
687.59	55917.74
687.78	56280.23
687.97	56351.91
688.16	56310.95
688.35	55579.82
688.54	55596.21
688.74	56200.36
688.93	55745.71
689.12	55555.25
689.31	56120.49
689.50	56317.09
689.69	55776.43
689.88	55135.41
690.07	55801.00
690.26	55846.06
690.45	56235.17
690.64	56177.83
690.83	56087.72
691.02	55280.82
691.21	55710.89
691.40	55846.06
691.59	55684.27
691.78	55516.34
691.97	55833.77
692.16	55508.14
692.35	55932.07
692.54	55696.56
692.73	56073.38
692.92	55461.04
693.11	55766.19
693.30	56046.76
693.49	55927.98
693.68	55633.07
693.87	55577.78
694.06	55520.43
694.25	55348.40
694.44	55276.72
694.63	55297.20
694.82	55502.00
695.01	55213.24
695.20	55170.23
695.39	54979.77
695.58	55497.91
695.77	55129.27
695.96	55198.90
696.15	55022.78
696.34	54711.49
696.53	55248.05
696.72	55282.87
696.91	55393.46
697.10	55250.10
697.29	55145.65
697.48	55327.92
697.67	55211.19
697.86	54709.44
698.05	54678.72
698.24	55534.77
698.43	54742.20
698.62	54961.34
698.81	54727.87
699.00	55446.71
699.19	54541.50
699.38	55270.58
699.57	54533.31
699.76	55399.60
699.95	54408.39
700.14	54338.75
700.32	54981.82
700.51	54707.39
700.70	55119.03
700.89	55219.38
701.08	54699.20
701.27	54555.84
701.46	54621.37
701.65	54127.81
701.84	54295.75
702.03	54203.59
702.22	54211.78
702.41	54514.88
702.60	54289.60
702.79	54385.86
702.98	54244.55
703.17	54588.61
703.35	54039.75
703.54	53957.83
703.73	54682.81
703.92	53882.06
704.11	54136.01
704.30	53900.49
704.49	53847.24
704.68	53773.52
704.87	54076.61
705.06	53652.69
705.25	53564.62
705.43	53613.77
705.62	53834.95
705.81	53415.12
706.00	53613.77
706.19	53150.93
706.38	53531.86
706.57	53648.59
706.76	53312.72
706.95	53454.03
707.14	52968.66
707.32	53527.76
707.51	52774.11
707.70	53583.05
707.89	53282.00
708.08	53441.74
708.27	53464.27
708.46	53599.44
708.65	53116.12
708.84	53144.79
709.02	53439.70
709.21	53030.10
709.40	53253.33
709.59	53363.92
709.78	52839.64
709.97	53069.01
710.16	53003.48
710.34	52839.64
710.53	53122.26
710.72	52724.96
710.91	52356.32
711.10	52548.83
711.29	52651.23
711.48	52835.55
711.66	52745.44
711.85	52638.94
712.04	52526.30
712.23	52135.14
712.42	52034.79
712.61	52460.77
712.80	52270.31
712.98	52675.80
713.17	51848.42
713.36	52063.46
713.55	52159.72
713.74	52331.75
713.93	52090.09
714.11	51854.57
714.30	52036.84
714.49	51649.77
714.68	51715.31
714.87	51819.75
715.06	52073.70
715.24	51889.38
715.43	51510.51
715.62	51330.29
715.81	51735.79
716.00	51963.11
716.18	51236.08
716.37	51109.11
716.56	51133.68
716.75	51481.84
716.94	51406.06
717.12	50736.38
717.31	51324.14
717.50	51385.58
717.69	51012.85
717.88	50679.03
718.06	50859.26
718.25	51406.06
718.44	50488.57
718.63	50945.27
718.82	50818.30
719.00	50728.19
719.19	50398.46
719.38	50840.82
719.57	49843.46
719.76	49782.02
719.94	50300.16
720.13	50099.46
720.32	50457.85
720.51	50087.17
720.69	49308.94
720.88	49802.50
721.07	50103.56
721.26	49263.89
721.44	49935.62
721.63	49732.87
721.82	49542.41
722.01	49437.97
722.20	49640.71
722.38	49175.83
722.57	48987.41
722.76	49108.24
722.95	49526.03
723.13	48856.34
723.32	48739.61
723.51	48788.76
723.70	48862.49
723.88	49005.84
724.07	48690.46
724.26	48717.08
724.44	48248.10
724.63	48876.82
724.82	48762.14
725.01	48487.71
725.19	48452.89
725.38	48534.81
725.57	48375.07
725.76	48485.66
725.94	48217.38
726.13	48059.68
726.32	48346.40
726.51	47938.85
726.69	48383.26
726.88	48495.90
727.07	48125.22
727.25	47975.72
727.44	48330.01
727.63	47869.22
727.82	47957.28
728.00	47732.01
728.19	48125.22
728.38	48246.05
728.56	47285.55
728.75	48237.86
728.94	47955.24
729.12	47899.94
729.31	47959.33
729.50	47732.01
729.69	47877.41
729.87	47852.84
730.06	47457.58
730.25	47805.73
730.43	47955.24
730.62	47529.26
730.81	47424.81
730.99	47842.60
731.18	47523.11
731.37	47938.85
731.55	47879.46
731.74	47596.84
731.93	47361.33
732.11	47732.01
732.30	47605.03
732.49	47781.16
732.67	47252.78
732.86	46859.57
733.05	47306.03
733.23	47392.04
733.42	47117.62
733.61	46949.68
733.79	47355.18
733.98	47451.44
734.17	47047.99
734.35	46980.40
734.54	47525.16
734.73	47570.22
734.91	47332.65
735.10	46976.31
735.29	47007.03
735.47	46646.58
735.66	47064.37
735.84	46896.44
736.03	46902.58
736.22	47271.21
736.40	46556.47
736.59	46818.61
736.78	46935.35
736.96	46912.82
737.15	46591.29
737.33	46814.52
737.52	46386.49
737.71	46646.58
737.89	46382.40
738.08	46357.82
738.27	46200.13
738.45	46384.44
738.64	46683.45
738.82	46529.85
739.01	46427.45
739.20	46370.11
739.38	46392.64
739.57	46599.48
739.75	46503.23
739.94	46269.76
740.13	46163.26
740.31	45858.12
740.50	46114.11
740.68	46210.37
740.87	46386.49
741.06	46200.13
741.24	45774.15
741.43	45473.10
741.61	46265.66
741.80	45778.25
741.99	45667.66
742.17	46142.78
742.36	46216.51
742.54	45704.52
742.73	46083.39
742.91	46269.76
743.10	45366.60
743.29	45866.31
743.47	45870.40
743.66	45593.93
743.84	45700.42
744.03	45770.05
744.21	45704.52
744.40	45913.41
744.59	45083.98
744.77	45278.54
744.96	45223.25
745.14	45598.02
745.33	45194.57
745.51	45540.68
745.70	45423.95
745.88	44848.47
746.07	45399.37
746.26	45096.27
746.44	45348.17
746.63	45094.22
746.81	45352.27
747.00	44840.28
747.18	45290.83
747.37	44916.05
747.55	44772.69
747.74	45245.77
747.92	44586.33
748.11	45126.99
748.29	44903.76
748.48	44858.71
748.66	44522.84
748.85	44658.01
749.03	44737.88
749.22	44647.77
749.41	44698.97
749.59	44582.23
749.78	44305.76
749.96	44205.41
750.15	44428.63
750.33	44840.28
750.52	44449.11
750.70	44404.06
750.89	44229.98
751.07	44160.35
751.26	44236.12
751.44	44309.85
751.63	44404.06
751.81	43892.07
752.00	44553.56
752.18	44438.87
752.37	44141.92
752.55	43693.41
752.74	43875.68
752.92	44002.66
753.10	43892.07
753.29	43607.40
753.47	43894.11
753.66	43324.78
753.84	43924.83
754.03	43791.72
754.21	43484.52
754.40	43605.35
754.58	43736.42
754.77	43945.31
754.95	43054.45
755.14	43496.81
755.32	43601.25
755.51	43136.37
755.69	43468.14
755.88	43156.85
756.06	43728.23
756.24	43576.68
756.43	43318.64
756.61	43720.04
756.80	42915.19
756.98	43132.27
757.17	43099.50
757.35	43363.69
757.54	43404.65
757.72	43214.19
757.90	43165.04
758.09	43199.85
758.27	42820.98
758.46	42732.92
758.64	42782.07
758.83	43038.06
759.01	43081.07
759.19	42820.98
759.38	42855.79
759.56	42845.55
759.75	42728.82
759.93	42796.40
760.12	42655.09
760.30	42931.57
760.48	42691.96
760.67	42614.13
760.85	42696.05
761.04	42669.43
761.22	42587.51
761.40	42476.92
761.59	42384.76
761.77	42282.36
761.96	42622.33
762.14	42358.14
762.32	42175.87
762.51	42108.29
762.69	42026.37
762.88	42397.05
763.06	42188.16
763.24	42243.45
763.43	42421.62
763.61	42304.89
763.80	42139.00
763.98	41913.73
764.16	42339.71
764.35	41635.20
764.53	41989.50
764.72	42311.03
764.90	41899.39
765.08	41876.86
765.27	42102.14
765.45	41592.20
765.63	41225.61
765.82	41819.52
766.00	41436.55
766.18	41479.56
766.37	42220.92
766.55	41964.93
766.74	41897.34
766.92	41436.55
767.10	41215.37
767.29	41883.01
767.47	41084.30
767.65	41244.04
767.84	41289.10
768.02	41389.45
768.20	41104.78
768.39	41321.87
768.57	41526.66
768.75	40873.36
768.94	41401.74
769.12	41014.67
769.30	40631.70
769.49	40959.38
769.67	40811.92
769.85	40670.61
770.04	41051.53
770.22	40699.28
770.40	40426.90
770.59	40678.80
770.77	40719.76
770.95	40664.47
771.14	40299.93
771.32	40400.28
771.50	40273.31
771.69	40195.48
771.87	40535.45
772.05	40582.55
772.24	40166.81
772.42	40132.00
772.60	40132.00
772.78	40412.57
772.97	40144.28
773.15	40265.11
773.33	40056.22
773.52	39839.14
773.70	40232.35
773.88	40461.72
774.07	40392.09
774.25	40007.07
774.43	40553.88
774.61	39941.53
774.80	40431.00
774.98	40160.67
775.16	40375.70
775.34	40424.86
775.53	39744.93
775.71	40336.79
775.89	40373.66
776.08	40420.76
776.26	40789.39
776.44	40424.86
776.62	40275.35
776.81	40328.60
776.99	40598.93
777.17	40387.99
777.35	40574.36
777.54	40580.50
777.72	40703.38
777.90	40451.48
778.08	40799.63
778.27	40261.02
778.45	40863.12
778.63	41043.34
778.81	40502.68
779.00	41547.14
779.18	41080.21
779.36	41063.82
779.54	41000.33
779.73	40492.44
779.91	41223.56
780.09	41102.73
780.27	41461.13
780.46	40908.18
780.64	41123.21
780.82	41024.91
781.00	41016.72
781.19	41467.27
781.37	41237.90
781.55	41387.40
781.73	41606.53
781.91	41575.81
782.10	41338.25
782.28	41493.89
782.46	41358.73
782.64	41395.59
782.82	41336.20
783.01	41782.66
783.19	41393.54
783.37	41684.36
783.55	41457.03
783.74	42157.44
783.92	41538.95
784.10	41977.22
784.28	41590.15
784.46	41428.36
784.64	41805.19
784.83	41643.40
785.01	42081.66
785.19	41543.05
785.37	41588.10
785.55	41981.31
785.74	41205.13
785.92	41500.04
786.10	41633.16
786.28	41520.52
786.46	41608.58
786.64	41524.61
786.83	41721.22
787.01	41809.28
787.19	41461.13
787.37	41682.31
787.55	41262.47
787.74	41500.04
787.92	41383.30
788.10	41252.23
788.28	40914.32
788.46	41178.51
788.64	40965.52
788.82	41346.44
789.01	41092.49
789.19	41241.99
789.37	41231.75
789.55	41405.83
789.73	41010.57
789.91	41112.97
790.09	40875.41
790.28	41037.20
790.46	40449.43
790.64	40852.88
790.82	40940.94
791.00	40592.79
791.18	40514.97
791.36	40799.63
791.55	40494.49
791.73	40107.42
791.91	39886.24
792.09	40250.78
792.27	40299.93
792.45	40238.49
792.63	40148.38
792.81	40158.62
793.00	40019.36
793.18	40039.84
793.36	39730.59
793.54	39828.90
793.72	39384.49
793.90	39585.19
794.08	39302.57
794.26	39880.10
794.44	39277.99
794.62	39077.29
794.81	39191.98
794.99	39001.52
795.17	39126.44
795.35	39189.93
795.53	39245.23
795.71	39038.38
795.89	38407.61
796.07	38495.67
796.25	38354.36
796.43	38614.45
796.61	38696.37
796.80	38440.37
796.98	38258.10
797.16	38297.02
797.34	38157.75
797.52	38217.14
797.70	38569.40
797.88	38071.74
798.06	37760.45
798.24	38053.31
798.42	37721.54
798.60	37803.46
798.78	37612.99
798.96	37725.63
799.14	37264.84
799.32	37379.53
799.51	37258.70
799.69	37393.86
799.87	37549.51
800.05	37002.70
800.23	37307.85
800.41	36969.93
800.59	37060.04
800.77	36765.14
800.95	36683.22
801.13	36851.15
801.31	36691.41
801.49	36701.65
801.67	36640.21
801.85	36060.63
802.03	36191.70
802.21	36072.92
802.39	36257.24
802.57	36093.40
802.75	35784.16
802.93	36146.65
803.11	35825.12
803.29	35460.58
803.47	35337.70
803.65	35325.41
803.83	35519.97
804.01	35540.45
804.19	35663.33
804.37	35214.82
804.55	35202.53
804.73	34903.53
804.91	35155.43
805.09	35210.73
805.27	35241.45
805.45	35296.74
805.63	34993.64
805.81	35280.36
805.99	34887.15
806.17	34956.78
806.35	34577.90
806.53	34328.05
806.71	34577.90
806.89	34377.20
807.07	34369.01
807.25	34186.74
807.43	34027.00
807.61	34538.99
807.79	33922.55
807.97	33938.94
808.15	33949.18
808.33	33408.51
808.51	33705.47
808.69	33744.38
808.87	33629.69
809.05	33396.23
809.23	33472.00
809.41	33455.62
809.59	33015.30
809.77	33433.09
809.95	33207.81
810.13	33238.53
810.31	33371.65
810.49	33111.56
810.67	33314.31
810.84	32781.84
811.02	32863.75
811.20	32671.25
811.38	33039.88
811.56	32603.66
811.74	32839.18
811.92	32656.91
812.10	32794.12
812.28	32949.77
812.46	32568.85
812.64	32687.63
812.82	32355.86
813.00	32777.74
813.18	32355.86
813.36	32339.47
813.53	32171.54
813.71	32433.68
813.89	31954.46
814.07	31856.15
814.25	31813.15
814.43	31544.86
814.61	31759.90
814.79	31565.34
814.97	31385.12
815.15	31989.27
815.33	31493.66
815.50	31067.69
815.68	31618.59
815.86	31409.70
816.04	31440.42
816.22	31180.32
816.40	31135.27
816.58	31245.86
816.76	31004.20
816.94	30989.86
817.11	30780.97
817.29	31153.70
817.47	30692.91
817.65	30762.54
817.83	30567.98
818.01	30643.76
818.19	30654.00
818.37	30846.51
818.54	30512.69
818.72	30172.72
818.90	30424.62
819.08	30445.10
819.26	30289.46
819.44	30338.61
819.62	30152.24
819.80	30275.12
819.97	30164.53
820.15	30152.24
820.33	29720.12
820.51	29843.00
820.69	29849.14
820.87	29795.90
821.05	29759.03
821.22	29449.79
821.40	29814.33
821.58	29470.27
821.76	29345.34
821.94	29535.81
822.12	29419.07
822.29	29593.15
822.47	29302.34
822.65	29378.11
822.83	29339.20
823.01	29302.34
823.19	29210.18
823.36	29331.01
823.54	29199.94
823.72	29173.31
823.90	28956.23
824.08	28835.40
824.25	28857.93
824.43	28700.23
824.61	28632.65
824.79	28862.02
824.97	28808.78
825.15	28780.10
825.32	28583.50
825.50	28556.88
825.68	28491.34
825.86	28757.58
826.04	28495.44
826.21	28636.75
826.39	28208.72
826.57	28458.57
826.75	28202.58
826.93	27838.04
827.10	28079.70
827.28	28161.62
827.46	28022.36
827.64	28038.74
827.81	27743.83
827.99	27762.26
828.17	27674.20
828.35	27858.52
828.53	27709.02
828.70	27508.32
828.88	27651.67
829.06	27792.98
829.24	27860.57
829.41	27276.90
829.59	27702.87
829.77	27432.54
829.95	27217.50
830.12	27133.54
830.30	27569.76
830.48	27522.65
830.66	27237.98
830.84	27266.66
831.01	27194.98
831.19	27580.00
831.37	27229.79
831.55	27055.72
831.72	27068.00
831.90	26832.49
832.08	27172.45
832.25	26795.62
832.43	26785.38
832.61	26721.90
832.79	26992.23
832.96	26685.03
833.14	26984.04
833.32	26904.17
833.50	26848.87
833.67	26834.53
833.85	26582.63
834.03	26064.50
834.20	26408.56
834.38	26621.55
834.56	26814.05
834.74	26398.32
834.91	26588.78
835.09	26291.82
835.27	26121.84
835.44	26127.99
835.62	25822.84
835.80	25966.20
835.98	26168.94
836.15	26228.34
836.33	26080.88
836.51	26252.91
836.68	25988.72
836.86	25945.72
837.04	25972.34
837.21	25945.72
837.39	26025.59
837.57	26007.16
837.75	25945.72
837.92	25671.29
838.10	26056.31
838.28	25304.70
838.45	25462.40
838.63	25403.00
838.81	25366.14
838.98	25183.87
839.16	25427.58
839.34	25140.86
839.51	25486.97
839.69	25446.01
839.87	24970.88
840.04	24960.64
840.22	25220.74
840.40	24845.96
840.57	24958.60
840.75	24868.48
840.93	24741.51
841.10	24735.37
841.28	25144.96
841.46	24860.29
841.63	25054.85
841.81	24938.12
841.98	24581.77
842.16	24735.37
842.34	24796.81
842.51	24125.07
842.69	24827.53
842.87	24546.95
843.04	24499.85
843.22	24299.15
843.40	24303.25
843.57	24120.98
843.75	24612.49
843.92	24594.06
844.10	24293.01
844.28	24159.89
844.45	24323.72
844.63	24385.16
844.81	24196.75
844.98	24417.93
845.16	24002.19
845.33	24149.65
845.51	24149.65
845.69	24030.87
845.86	23994.00
846.04	23539.35
846.21	23965.33
846.39	23879.32
846.57	23940.75
846.74	23727.77
846.92	23979.67
847.09	23844.50
847.27	23426.71
847.45	23643.80
847.62	23785.11
847.80	23942.80
847.97	23725.72
848.15	23746.20
848.32	23324.32
848.50	23350.94
848.68	23078.56
848.85	23080.61
849.03	23109.28
849.20	23250.59
849.38	23281.31
849.56	23115.42
849.73	23176.86
849.91	23103.14
850.08	23404.19
850.26	22902.43
850.43	23230.11
850.61	23078.56
850.78	22716.07
850.96	22662.82
851.14	22779.56
851.31	22957.73
851.49	22726.31
851.66	22980.26
851.84	22818.47
852.01	22912.67
852.19	22519.46
852.36	22650.53
852.54	22697.64
852.71	22931.11
852.89	22458.03
853.07	22570.66
853.24	22685.35
853.42	22521.51
853.59	22179.50
853.77	22693.54
853.94	22261.42
854.12	22787.75
854.29	22146.73
854.47	22396.59
854.64	22576.81
854.82	22333.10
854.99	22167.21
855.17	22218.41
855.34	21958.32
855.52	22202.03
855.69	22177.45
855.87	22038.19
856.04	22095.53
856.22	21964.46
856.39	21731.00
856.57	21954.22
856.74	21872.31
856.92	21903.03
857.09	21483.19
857.27	21782.20
857.44	21925.55
857.62	21737.14
857.79	21634.74
857.97	21722.80
858.14	21692.08
858.32	21544.63
858.49	21524.15
858.67	21524.15
858.84	21456.57
859.02	21421.75
859.19	21567.16
859.37	21190.33
859.54	21194.43
859.72	21526.20
859.89	21518.01
860.06	21268.16
860.24	21337.79
860.41	21317.31
860.59	20971.20
860.76	21165.76
860.94	21079.74
861.11	21286.59
861.29	21196.48
861.46	20905.66
861.64	21063.36
861.81	20920.00
861.98	20719.30
862.16	20897.47
862.33	20428.49
862.51	20987.58
862.68	21001.92
862.86	20801.22
863.03	20864.71
863.21	20754.12
863.38	20471.50
863.55	20621.00
863.73	20698.82
863.90	20629.19
864.08	20559.56
864.25	20373.19
864.43	20604.61
864.60	20553.41
864.77	20317.90
864.95	20405.96
865.12	20111.05
865.30	20494.02
865.47	20485.83
865.64	20278.99
865.82	20123.34
865.99	20545.22
866.17	20201.16
866.34	20156.11
866.51	19908.30
866.69	20213.45
866.86	20125.39
867.04	19885.78
867.21	19859.15
867.38	19912.40
867.56	19795.67
867.73	19623.64
867.91	19568.34
868.08	19728.08
868.25	19631.83
868.43	19642.07
868.60	19607.25
868.78	19433.18
868.95	19582.68
869.12	19414.74
869.30	19535.57
869.47	19427.03
869.64	19052.25
869.82	19392.22
869.99	19257.05
870.16	19580.63
870.34	19506.90
870.51	19449.56
870.69	19220.19
870.86	19379.93
871.03	19136.22
871.21	19091.16
871.38	19310.30
871.55	18857.70
871.73	19185.37
871.90	19027.68
872.07	18929.38
872.25	18697.95
872.42	18894.56
872.59	18999.01
872.77	18878.18
872.94	18695.91
873.11	18833.12
873.29	18693.86
873.46	18829.02
873.63	18943.71
873.81	18675.43
873.98	18644.71
874.15	18456.29
874.33	18419.43
874.50	18487.01
874.67	18269.93
874.85	18241.26
875.02	17970.93
875.19	18196.20
875.37	18087.66
875.54	17968.88
875.71	18319.08
875.88	18104.04
876.06	18161.39
876.23	18104.04
876.40	18050.80
876.58	18075.37
876.75	17960.69
876.92	17704.69
877.10	17936.11
877.27	17770.22
877.44	17729.27
877.61	17616.63
877.79	17735.41
877.96	17815.28
878.13	17802.99
878.31	17407.73
878.48	17544.95
878.65	17477.37
878.82	17323.77
879.00	17506.04
879.17	17215.23
879.34	17413.88
879.51	17123.07
879.69	17252.09
879.86	17032.96
880.03	17092.35
880.21	16983.80
880.38	17092.35
880.55	17362.68
880.72	17110.78
880.90	17317.62
881.07	16961.28
881.24	17035.00
881.41	16918.27
881.59	16998.14
881.76	17000.19
881.93	16883.45
882.10	16525.06
882.28	16865.02
882.45	17088.25
882.62	16746.24
882.79	16731.90
882.96	16326.41
883.14	16854.78
883.31	16969.47
883.48	16572.16
883.65	16799.49
883.83	16584.45
884.00	16662.27
884.17	16535.30
884.34	16692.99
884.51	16592.64
884.69	16604.93
884.86	16535.30
885.03	16621.31
885.20	16230.15
885.38	16166.67
885.55	16430.85
885.72	16305.93
885.89	16183.05
886.06	16189.19
886.24	16131.85
886.41	16316.17
886.58	16338.69
886.75	16297.74
886.92	16246.54
887.10	16455.43
887.27	16217.86
887.44	16109.32
887.61	16295.69
887.78	16172.81
887.95	16416.52
888.13	16062.22
888.30	16015.12
888.47	16076.55
888.64	15998.73
888.81	15779.60
888.99	15949.58
889.16	15892.24
889.33	15795.98
889.50	15998.73
889.67	15927.05
889.84	15886.09
890.01	15683.34
890.19	15626.00
890.36	15822.61
890.53	15785.74
890.70	15697.68
890.87	15546.13
891.04	15646.48
891.22	15548.18
891.39	15519.51
891.56	15652.63
891.73	15466.26
891.90	15562.51
892.07	15200.02
892.24	15333.14
892.42	15355.67
892.59	15222.55
892.76	15456.02
892.93	15327.00
893.10	15370.01
893.27	15296.28
893.44	15142.68
893.61	15298.33
893.79	15288.09
893.96	15116.06
894.13	15001.37
894.30	15281.94
894.47	15286.04
894.64	15353.62
894.81	15073.05
894.98	15079.19
895.15	15449.88
895.33	15193.88
895.50	15183.64
895.67	15265.56
895.84	15013.66
896.01	15021.85
896.18	15159.06
896.35	15417.11
896.52	14913.31
896.69	15095.58
896.86	15068.95
897.04	14972.70
897.21	14847.77
897.38	14896.92
897.55	15073.05
897.72	15257.37
897.89	15058.71
898.06	14923.55
898.23	14884.64
898.40	15169.30
898.57	14980.89
898.74	15183.64
898.91	15214.36
899.08	14823.20
899.26	15118.11
899.43	15150.87
899.60	15021.85
899.77	14968.60
899.94	15105.82
900.11	14761.76
900.28	14935.84
900.45	14866.21
900.62	14917.40
900.79	15021.85
900.96	15013.66
901.13	15066.91
901.30	14855.97
901.47	14780.19
901.64	14919.45
901.81	14802.72
901.98	14907.16
902.15	15204.12
902.32	14716.70
902.49	15181.59
902.66	14866.21
902.83	14937.88
903.01	14661.41
903.18	14960.41
903.35	14919.45
903.52	15011.61
903.69	15060.76
903.86	14923.55
904.03	14915.36
904.20	15015.71
904.37	14767.90
904.54	15206.17
904.71	14855.97
904.88	15040.28
905.05	14616.35
905.22	14833.44
905.39	14647.07
905.56	15023.90
905.73	14786.33
905.90	14855.97
906.07	14958.36
906.24	14944.03
906.41	14870.30
906.58	15177.50
906.75	14886.68
906.92	15030.04
907.09	14751.52
907.26	14962.46
907.43	14753.57
907.60	14710.56
907.77	15013.66
907.93	14892.83
908.10	14776.09
908.27	15165.21
908.44	14798.62
908.61	14649.12
908.78	14698.27
908.95	15044.38
909.12	14823.20
909.29	14776.09
909.46	14724.90
909.63	14952.22
909.80	14995.23
909.97	14860.06
910.14	14651.17
910.31	14733.09
910.48	14952.22
910.65	14788.38
910.82	14655.26
910.99	14663.46
911.16	14589.73
911.33	14774.05
911.50	14710.56
911.66	14552.87
911.83	14583.59
912.00	14602.02
912.17	14362.40
912.34	14362.40
912.51	14540.58
912.68	14315.30
912.85	14466.85
913.02	14429.99
913.19	14374.69
913.36	14305.06
913.53	14475.04
913.70	14339.88
913.86	14311.21
914.03	14362.40
914.20	14194.47
914.37	14139.18
914.54	14047.02
914.71	14350.12
914.88	14202.66
915.05	14143.27
915.22	14206.76
915.39	14006.06
915.55	14225.19
915.72	14094.12
915.89	14032.68
916.06	13840.17
916.23	13813.55
916.40	13909.80
916.57	13858.60
916.74	13860.65
916.91	13770.54
917.07	13578.03
917.24	13721.39
917.41	13702.96
917.58	13614.90
917.75	13508.40
917.92	13641.52
918.09	13324.08
918.26	13410.10
918.42	13553.46
918.59	13575.98
918.76	13102.90
918.93	13131.58
919.10	13094.71
919.27	13231.93
919.44	13408.05
919.60	13203.25
919.77	13217.59
919.94	13135.67
920.11	13262.65
920.28	13236.02
920.45	13209.40
920.61	12842.81
920.78	12908.35
920.95	12914.49
921.12	12928.83
921.29	12812.09
921.46	12748.61
921.62	12707.65
921.79	12728.13
921.96	12683.07
922.13	12539.71
922.30	12658.49
922.47	12668.73
922.63	12554.05
922.80	12556.10
922.97	12345.16
923.14	12216.13
923.31	12334.92
923.47	12240.71
923.64	12521.28
923.81	12324.68
923.98	12289.86
924.15	12058.44
924.32	12228.42
924.48	12074.82
924.65	12162.89
924.82	11935.56
924.99	11976.52
925.15	11972.43
925.32	11978.57
925.49	11863.88
925.66	11747.15
925.83	11685.71
925.99	11714.38
926.16	11749.20
926.33	11822.92
926.50	11300.69
926.67	11644.75
926.83	11478.86
927.00	11513.68
927.17	11308.88
927.34	11276.12
927.50	11243.35
927.67	11413.33
927.84	11247.44
928.01	11145.05
928.17	11265.88
928.34	11097.94
928.51	11153.24
928.68	10897.24
928.84	11009.88
929.01	11056.98
929.18	10831.71
929.35	10792.80
929.51	10862.43
929.68	10708.83
929.85	10688.35
930.02	10497.89
930.18	10778.46
930.35	10311.52
930.52	10465.12
930.69	10567.52
930.85	10579.81
931.02	10415.97
931.19	10395.49
931.36	10299.23
931.52	10420.06
931.69	10313.57
931.86	10190.69
932.02	10184.55
932.19	10002.28
932.36	10002.28
932.53	10108.77
932.69	9801.58
932.86	9924.46
933.03	10327.91
933.19	9895.78
933.36	9781.10
933.53	9764.72
933.70	9820.01
933.86	9514.86
934.03	9619.31
934.20	9572.21
934.36	9551.73
934.53	9244.53
934.70	9250.67
934.86	9318.26
935.03	9158.52
935.20	8990.58
935.36	9041.78
935.53	9006.97
935.70	8888.18
935.86	8968.06
936.03	8961.91
936.20	8677.24
936.36	8707.96
936.53	8660.86
936.70	8441.73
936.86	8689.53
937.03	8605.56
937.20	8324.99
937.36	8445.82
937.53	8204.16
937.70	8314.75
937.86	8048.52
938.03	8038.28
938.20	7985.03
938.36	7759.75
938.53	7798.66
938.70	7419.79
938.86	7700.36
939.03	7344.02
939.20	7391.12
939.36	7397.26
939.53	7339.92
939.70	7323.54
939.86	6975.38
940.03	7077.78
940.19	7047.06
940.36	6934.42
940.53	6866.84
940.69	6686.62
940.86	6625.18
941.03	6555.55
941.19	6510.49
941.36	6543.26
941.52	6352.80
941.69	6238.11
941.86	6401.95
942.02	6242.21
942.19	6055.84
942.35	6172.58
942.52	6115.23
942.69	6043.56
942.85	6000.55
943.02	5992.36
943.18	6010.79
943.35	5865.38
943.52	6098.85
943.68	5820.33
943.85	5902.25
944.01	5652.39
944.18	5670.83
944.35	5668.78
944.51	5625.77
944.68	5539.76
944.84	5484.46
945.01	5619.63
945.17	5525.42
945.34	5623.72
945.51	5529.52
945.67	5541.80
945.84	5343.15
946.00	5394.35
946.17	5418.93
946.33	5449.64
946.50	5353.39
946.67	5533.61
946.83	5347.25
947.00	5590.95
947.16	5384.11
947.33	5369.77
947.49	5457.84
947.66	5431.21
947.82	5402.54
947.99	5291.95
948.16	5392.30
948.32	5294.00
948.49	5310.38
948.65	5476.27
948.82	5382.06
948.98	5250.99
949.15	5283.76
949.31	5506.99
949.48	5328.81
949.64	5304.24
949.81	5371.82
949.97	5167.03
950.14	5570.48
950.30	5361.58
950.47	5515.18
950.63	5504.94
950.80	5310.38
950.96	5439.40
951.13	5541.80
951.30	5334.96
951.46	5326.77
951.63	5455.79
951.79	5466.03
951.96	5468.08
952.12	5392.30
952.29	5318.57
952.45	5365.68
952.62	5390.25
952.78	5554.09
952.94	5429.17
953.11	5533.61
953.27	5416.88
953.44	5578.67
953.60	5437.36
953.77	5509.04
953.93	5480.36
954.10	5468.08
954.26	5445.55
954.43	5375.92
954.59	5658.54
954.76	5498.80
954.92	5509.04
955.09	5642.15
955.25	5478.32
955.42	5570.48
955.58	5664.68
955.75	5525.42
955.91	5615.53
956.07	5547.95
956.24	5455.79
956.40	5560.24
956.57	5636.01
956.73	5640.11
956.90	5500.84
957.06	5554.09
957.23	5498.80
957.39	5562.28
957.56	5506.99
957.72	5535.66
957.88	5541.80
958.05	5521.32
958.21	5463.98
958.38	5496.75
958.54	5521.32
958.71	5840.81
958.87	5420.97
959.03	5609.39
959.20	5638.06
959.36	5486.51
959.53	5488.56
959.69	5388.21
959.85	5550.00
960.02	5488.56
960.18	5515.18
960.35	5484.46
960.51	5640.11
960.68	5457.84
960.84	5627.82
961.00	5496.75
961.17	5423.02
961.33	5523.37
961.50	5515.18
961.66	5609.39
961.82	5449.64
961.99	5566.38
962.15	5330.86
962.31	5517.23
962.48	5568.43
962.64	5527.47
962.81	5470.12
962.97	5547.95
963.13	5533.61
963.30	5580.71
963.46	5410.73
963.62	5443.50
963.79	5388.21
963.95	5550.00
964.12	5369.77
964.28	5537.71
964.44	5433.26
964.61	5701.54
964.77	5414.83
964.93	5457.84
965.10	5527.47
965.26	5271.47
965.42	5425.07
965.59	5578.67
965.75	5367.73
965.92	5451.69
966.08	5367.73
966.24	5463.98
966.41	5412.78
966.57	5259.18
966.73	5474.22
966.90	5328.81
967.06	5343.15
967.22	5320.62
967.39	5380.01
967.55	5218.22
967.71	5453.74
967.88	5183.41
968.04	5308.34
968.20	5191.60
968.37	5238.70
968.53	5142.45
968.69	5332.91
968.85	5324.72
969.02	5367.73
969.18	5238.70
969.34	5361.58
969.51	5177.26
969.67	5398.45
969.83	5195.70
970.00	5316.53
970.16	5173.17
970.32	5222.32
970.48	5218.22
970.65	5146.55
970.81	5044.15
970.97	5156.79
971.14	5035.96
971.30	5257.14
971.46	5136.31
971.63	5216.18
971.79	5197.74
971.95	5001.14
972.11	4884.41
972.28	5064.63
972.44	5054.39
972.60	5046.20
972.76	5115.83
972.93	4990.90
973.09	5099.44
973.25	4896.69
973.42	5031.86
973.58	4984.76
973.74	4997.04
973.90	5025.72
974.07	4853.69
974.23	4935.60
974.39	4995.00
974.55	4888.50
974.72	4853.69
974.88	4812.73
975.04	4951.99
975.20	4870.07
975.37	4951.99
975.53	4825.01
975.69	4929.46
975.85	4816.82
976.01	4802.49
976.18	4884.41
976.34	4741.05
976.50	4878.26
976.66	4913.08
976.83	4736.95
976.99	4710.33
977.15	4689.85
977.31	4648.89
977.47	4745.14
977.64	4728.76
977.80	4716.47
977.96	4495.29
978.12	4775.86
978.29	4751.29
978.45	4618.17
978.61	4624.31
978.77	4759.48
978.93	4609.98
979.10	4569.02
979.26	4648.89
979.42	4587.45
979.58	4548.54
979.74	4394.94
979.91	4589.50
980.07	4444.09
980.23	4605.88
980.39	4493.24
980.55	4390.84
980.71	4507.58
980.88	4313.02
981.04	4495.29
981.20	4261.82
981.36	4472.76
981.52	4450.24
981.68	4343.74
981.85	4388.80
982.01	4411.32
982.17	4218.82
982.33	4331.45
982.49	4394.94
982.65	4368.32
982.82	4378.56
982.98	4382.65
983.14	4325.31
983.30	4396.99
983.46	4181.95
983.62	4448.19
983.79	4333.50
983.95	4233.15
984.11	4306.88
984.27	4239.30
984.43	4310.97
984.59	4282.30
984.75	4366.27
984.91	4310.97
985.08	4270.01
985.24	4112.32
985.40	4155.33
985.56	4241.34
985.72	4265.92
985.88	4204.48
986.04	4130.75
986.20	4165.57
986.37	4032.45
986.53	3971.01
986.69	4231.10
986.85	3985.35
987.01	4003.78
987.17	4044.74
987.33	3968.96
987.49	3940.29
987.65	4071.36
987.82	4034.50
987.98	3960.77
988.14	3944.39
988.30	3874.76
988.46	4120.51
988.62	4032.45
988.78	4044.74
988.94	3981.25
989.10	3946.44
989.26	3915.72
989.42	3846.09
989.59	3809.22
989.75	3905.48
989.91	3921.86
990.07	3729.35
990.23	3852.23
990.39	3844.04
990.55	3860.42
990.71	3825.61
990.87	3825.61
991.03	4001.73
991.19	3788.74
991.35	3846.09
991.51	3723.21
991.67	3882.95
991.83	3825.61
992.00	3778.50
992.16	3858.37
992.32	3798.98
992.48	3829.70
992.64	3569.61
992.80	3755.97
992.96	3694.54
993.12	3723.21
993.28	3626.95
993.44	3743.69
993.60	3805.13
993.76	3604.42
993.92	3678.15
994.08	3682.25
994.24	3680.20
994.40	3631.05
994.56	3723.21
994.72	3618.76
994.88	3575.75
995.04	3545.03
995.20	3532.75
995.36	3524.55
995.52	3610.57
995.68	3499.98
995.84	3553.23
996.00	3637.19
996.16	3538.89
996.32	3508.17
996.48	3465.16
996.64	3559.37
996.80	3301.33
996.96	3377.10
997.12	3428.30
997.28	3336.14
997.44	3319.76
997.60	3481.55
997.76	3444.68
997.92	3467.21
998.08	3510.22
998.24	3270.61
998.40	3442.64
998.56	3491.79
998.72	3338.19
998.88	3309.52
999.04	3289.04
999.20	3422.16
999.36	3280.85
999.52	3477.45
999.68	3362.76
999.84	3409.87
1000.00	3325.90
1000.16	3334.09
1000.32	3262.41
1000.48	3360.72
1000.64	3190.74
1000.80	3229.65
1000.95	3229.65
1001.11	3268.56
1001.27	3207.12
1001.43	3284.94
1001.59	3147.73
1001.75	3141.58
1001.91	3229.65
1002.07	3186.64
1002.23	3149.78
1002.39	3174.35
1002.55	3145.68
1002.71	3092.43
1002.87	3117.01
1003.03	3117.01
1003.19	3162.06
1003.34	3078.10
1003.50	3055.57
1003.66	3239.89
1003.82	3188.69
1003.98	2969.55
1004.14	3119.06
1004.30	3092.43
1004.46	3059.67
1004.62	3055.57
1004.78	3028.95
1004.94	3022.80
1005.09	3049.43
1005.25	3106.77
1005.41	2998.23
1005.57	2957.27
1005.73	3100.62
1005.89	2879.44
1006.05	2975.70
1006.21	3063.76
1006.37	2904.02
1006.52	2944.98
1006.68	2848.72
1006.84	3045.33
1007.00	2885.59
1007.16	2973.65
1007.32	2942.93
1007.48	2963.41
1007.64	2895.83
1007.79	2820.05
1007.95	2756.57
1008.11	2932.69
1008.27	2897.88
1008.43	2934.74
1008.59	2920.40
1008.75	2959.31
1008.91	2875.35
1009.06	2756.57
1009.22	2871.25
1009.38	2844.63
1009.54	2830.29
1009.70	2813.91
1009.86	2783.19
1010.01	2846.68
1010.17	2744.28
1010.33	2807.77
1010.49	2805.72
1010.65	2785.24
1010.81	2734.04
1010.96	2748.37
1011.12	2656.22
1011.28	2621.40
1011.44	2762.71
1011.60	2717.65
1011.76	2619.35
1011.91	2807.77
1012.07	2639.83
1012.23	2662.36
1012.39	2598.87
1012.55	2820.05
1012.71	2531.29
1012.86	2545.63
1013.02	2594.78
1013.18	2744.28
1013.34	2590.68
1013.50	2633.69
1013.65	2678.74
1013.81	2559.96
1013.97	2623.45
1014.13	2598.87
1014.29	2547.67
1014.44	2684.89
1014.60	2516.95
1014.76	2592.73
1014.92	2652.12
1015.07	2691.03
1015.23	2572.25
1015.39	2537.43
1015.55	2539.48
1015.71	2545.63
1015.86	2514.91
1016.02	2396.12
1016.18	2461.66
1016.34	2473.95
1016.49	2506.71
1016.65	2590.68
1016.81	2521.05
1016.97	2510.81
1017.12	2525.15
1017.28	2416.60
1017.44	2435.03
1017.60	2533.34
1017.75	2453.47
1017.91	2422.75
1018.07	2424.80
1018.23	2492.38
1018.38	2461.66
1018.54	2498.52
1018.70	2451.42
1018.86	2398.17
1019.01	2459.61
1019.17	2396.12
1019.33	2451.42
1019.49	2465.75
1019.64	2383.84
1019.80	2381.79
1019.96	2437.08
1020.12	2402.27
1020.27	2385.88
1020.43	2355.16
1020.59	2410.46
1020.74	2412.51
1020.90	2322.40
1021.06	2346.97
1021.22	2334.68
1021.37	2334.68
1021.53	2322.40
1021.69	2365.40
1021.84	2312.16
1022.00	2330.59
1022.16	2285.53
1022.31	2330.59
1022.47	2369.50
1022.63	2365.40
1022.79	2306.01
1022.94	2293.72
1023.10	2394.08
1023.26	2281.44
1023.41	2248.67
1023.57	2265.05
1023.73	2320.35
1023.88	2346.97
1024.04	2228.19
1024.20	2275.29
1024.35	2297.82
1024.51	2199.52
1024.67	2160.61
1024.82	2281.44
1024.98	2150.37
1025.14	2209.76
1025.29	2220.00
1025.45	2281.44
1025.61	2181.09
1025.76	2189.28
1025.92	2203.61
1026.08	2238.43
1026.23	2220.00
1026.39	2242.53
1026.55	2172.89
1026.70	2140.13
1026.86	2136.03
1027.02	2303.96
1027.17	2133.98
1027.33	2176.99
1027.48	2093.02
1027.64	2133.98
1027.80	2172.89
1027.95	2185.18
1028.11	2072.54
1028.27	2203.61
1028.42	2179.04
1028.58	2160.61
1028.73	2013.15
1028.89	2041.82
1029.05	2084.83
1029.20	2189.28
>>>>>End Processed Spectral Data<<<<<
