SpectraSuite Data File
++++++++++++++++++++++++++++++++++++
Date: Fri Jun 02 14:49:30 CEST 2017
User: INFO_000
Dark Spectrum Present: No
Reference Spectrum Present: No
Number of Sampled Component Spectra: 1
Spectrometers: USB4H00879
Integration Time (usec): 80000 (USB4H00879)
Spectra Averaged: 1 (USB4H00879)
Boxcar Smoothing: 0 (USB4H00879)
Correct for Electrical Dark: No (USB4H00879)
Strobe/Lamp Enabled: No (USB4H00879)
Correct for Detector Non-linearity: No (USB4H00879)
Correct for Stray Light: No (USB4H00879)
Number of Pixels in Processed Spectrum: 3648
>>>>>Begin Processed Spectral Data<<<<<
345.13	1308.65
345.34	1308.65
345.56	1308.65
345.78	1271.79
345.99	1294.32
346.21	1677.29
346.42	1650.66
346.64	1728.49
346.86	1779.68
347.07	1669.09
347.29	1740.77
347.50	1621.99
347.72	1675.24
347.94	1724.39
348.15	1615.85
348.37	1710.05
348.59	1724.39
348.80	1689.57
349.02	1708.01
349.23	1822.69
349.45	1798.12
349.67	1904.61
349.88	1820.64
350.10	1959.91
350.31	1787.88
350.53	1796.07
350.75	1920.99
350.96	1773.54
351.18	1839.08
351.39	1847.27
351.61	1828.84
351.82	1863.65
352.04	1894.37
352.26	1810.40
352.47	1918.95
352.69	1970.15
352.90	1648.61
353.12	1855.46
353.34	1880.04
353.55	1857.51
353.77	1920.99
353.98	1927.14
354.20	1861.60
354.41	1957.86
354.63	1980.39
354.85	1996.77
355.06	1884.13
355.28	1822.69
355.49	1875.94
355.71	1832.93
355.92	1920.99
356.14	1986.53
356.35	1875.94
356.57	1845.22
356.79	2002.91
357.00	1789.92
357.22	1949.67
357.43	1892.32
357.65	1918.95
357.86	1882.08
358.08	1927.14
358.29	2031.58
358.51	1966.05
358.72	2011.11
358.94	1920.99
359.16	1918.95
359.37	1927.14
359.59	1959.91
359.80	1949.67
360.02	1970.15
360.23	1976.29
360.45	2013.15
360.66	1998.82
360.88	1918.95
361.09	1890.28
361.31	1972.19
361.52	1945.57
361.74	2058.21
361.95	2097.12
362.17	1996.77
362.38	2054.11
362.60	2035.68
362.81	1998.82
363.03	1943.52
363.24	1998.82
363.46	2052.06
363.67	2002.91
363.89	1986.53
364.10	1986.53
364.32	2009.06
364.53	2013.15
364.75	1988.58
364.96	2076.64
365.18	2082.78
365.39	2025.44
365.61	1937.38
365.82	2142.18
366.04	1957.86
366.25	1916.90
366.47	2074.59
366.68	2127.84
366.90	2033.63
367.11	2050.02
367.33	2086.88
367.54	2093.02
367.76	2033.63
367.97	2064.35
368.19	2039.78
368.40	2154.46
368.62	2037.73
368.83	1896.42
369.05	2140.13
369.26	2060.26
369.48	2062.30
369.69	1947.62
369.91	2136.03
370.12	2033.63
370.33	2123.74
370.55	2052.06
370.76	1970.15
370.98	2183.13
371.19	2111.46
371.41	2021.35
371.62	2095.07
371.84	2078.69
372.05	2205.66
372.27	2127.84
372.48	1992.67
372.69	2088.93
372.91	2215.90
373.12	2191.33
373.34	1986.53
373.55	2244.57
373.77	2131.94
373.98	2047.97
374.20	2189.28
374.41	2248.67
374.62	2179.04
374.84	2054.11
375.05	2228.19
375.27	2150.37
375.48	2213.85
375.70	2187.23
375.91	2273.25
376.12	2310.11
376.34	2125.79
376.55	2136.03
376.77	2207.71
376.98	2111.46
377.19	2152.42
377.41	2172.89
377.62	2142.18
377.84	2271.20
378.05	2303.96
378.27	2138.08
378.48	2260.96
378.69	2363.36
378.91	2246.62
379.12	2205.66
379.34	2205.66
379.55	2236.38
379.76	2215.90
379.98	2172.89
380.19	2240.48
380.41	2299.87
380.62	2373.60
380.83	2217.95
381.05	2240.48
381.26	2351.07
381.47	2160.61
381.69	2330.59
381.90	2478.04
382.12	2353.12
382.33	2318.30
382.54	2256.86
382.76	2336.73
382.97	2226.14
383.19	2318.30
383.40	2344.92
383.61	2314.20
383.83	2310.11
384.04	2379.74
384.25	2310.11
384.47	2418.65
384.68	2410.46
384.89	2256.86
385.11	2338.78
385.32	2336.73
385.54	2217.95
385.75	2359.26
385.96	2371.55
386.18	2467.80
386.39	2478.04
386.60	2279.39
386.82	2394.08
387.03	2432.99
387.24	2392.03
387.46	2396.12
387.67	2418.65
387.88	2480.09
388.10	2441.18
388.31	2494.43
388.52	2490.33
388.74	2494.43
388.95	2598.87
389.16	2467.80
389.38	2451.42
389.59	2600.92
389.80	2633.69
390.02	2486.23
390.23	2557.91
390.44	2574.30
390.66	2469.85
390.87	2437.08
391.08	2543.58
391.30	2684.89
391.51	2664.41
391.72	2566.10
391.94	2557.91
392.15	2633.69
392.36	2639.83
392.58	2664.41
392.79	2590.68
393.00	2801.62
393.22	2760.66
393.43	2680.79
393.64	2838.48
393.85	2729.94
394.07	2688.98
394.28	2815.96
394.49	2633.69
394.71	2682.84
394.92	2797.53
395.13	2637.78
395.35	2660.31
395.56	2717.65
395.77	2846.68
395.98	2787.29
396.20	2906.07
396.41	2754.52
396.62	2901.97
396.84	2762.71
397.05	2772.95
397.26	2916.31
397.47	2990.03
397.69	2854.87
397.90	2953.17
398.11	2934.74
398.32	2787.29
398.54	2877.40
398.75	2934.74
398.96	2987.99
399.18	3076.05
399.39	2936.79
399.60	3028.95
399.81	2936.79
400.03	2891.73
400.24	3227.60
400.45	2836.44
400.66	3049.43
400.88	2961.36
401.09	3162.06
401.30	3074.00
401.51	3131.34
401.73	3117.01
401.94	3182.54
402.15	3100.62
402.36	3147.73
402.58	3155.92
402.79	3100.62
403.00	3157.97
403.21	3194.83
403.43	3141.58
403.64	3125.20
403.85	3090.38
404.06	3133.39
404.27	3057.62
404.49	3149.78
404.70	3063.76
404.91	3274.70
405.12	3246.03
405.34	3256.27
405.55	3342.28
405.76	3174.35
405.97	3250.13
406.19	3358.67
406.40	3188.69
406.61	3358.67
406.82	3309.52
407.03	3286.99
407.25	3334.09
407.46	3399.63
407.67	3344.33
407.88	3534.79
408.09	3330.00
408.31	3295.18
408.52	3323.85
408.73	3344.33
408.94	3362.76
409.15	3391.44
409.37	3481.55
409.58	3424.20
409.79	3373.00
410.00	3557.32
410.21	3313.61
410.43	3418.06
410.64	3434.44
410.85	3594.19
411.06	3661.77
411.27	3571.66
411.48	3674.06
411.70	3448.78
411.91	3588.04
412.12	3622.86
412.33	3493.83
412.54	3469.26
412.76	3678.15
412.97	3637.19
413.18	3608.52
413.39	3643.34
413.60	3614.66
413.81	3796.93
414.03	3588.04
414.24	3602.38
414.45	3809.22
414.66	3532.75
414.87	3784.65
415.08	3735.50
415.30	3721.16
415.51	3762.12
415.72	3706.82
415.93	3706.82
416.14	3889.09
416.35	3731.40
416.56	3921.86
416.78	3760.07
416.99	3823.56
417.20	3901.38
417.41	3852.23
417.62	3856.33
417.83	3958.72
418.04	3897.28
418.26	3776.45
418.47	3944.39
418.68	3952.58
418.89	3919.81
419.10	4151.23
419.31	4007.87
419.52	4044.74
419.73	4016.07
419.95	4083.65
420.16	3985.35
420.37	4018.11
420.58	4165.57
420.79	4081.60
421.00	4122.56
421.21	4048.83
421.42	4073.41
421.63	4192.19
421.85	4091.84
422.06	4157.38
422.27	4134.85
422.48	4089.79
422.69	4241.34
422.90	4165.57
423.11	4224.96
423.32	4220.86
423.53	4399.04
423.75	4302.78
423.96	4425.66
424.17	4323.26
424.38	4456.38
424.59	4356.03
424.80	4673.46
425.01	4425.66
425.22	4411.32
425.43	4444.09
425.64	4612.03
425.85	4669.37
426.06	4679.61
426.28	4603.83
426.49	4503.48
426.70	4560.83
426.91	4663.22
427.12	4712.38
427.33	4661.18
427.54	4546.49
427.75	4595.64
427.96	4816.82
428.17	4706.23
428.38	4671.42
428.59	4865.97
428.80	4741.05
429.01	4773.82
429.23	4865.97
429.44	4976.56
429.65	4882.36
429.86	4995.00
430.07	4841.40
430.28	4677.56
430.49	5046.20
430.70	5046.20
430.91	5068.72
431.12	4974.52
431.33	5144.50
431.54	5269.42
431.75	5060.53
431.96	5130.16
432.17	5044.15
432.38	5148.59
432.59	5377.97
432.80	5230.51
433.01	5263.28
433.22	5240.75
433.43	5302.19
433.64	5203.89
433.85	5275.57
434.06	5369.77
434.27	5261.23
434.49	5390.25
434.70	5457.84
434.91	5441.45
435.12	5377.97
435.33	5398.45
435.54	5441.45
435.75	5302.19
435.96	5437.36
436.17	5308.34
436.38	5584.81
436.59	5556.14
436.80	5480.36
437.01	5666.73
437.22	5738.41
437.43	5590.95
437.64	5506.99
437.85	5687.21
438.06	5740.46
438.27	5623.72
438.48	5615.53
438.69	5932.97
438.90	5783.46
439.11	5656.49
439.32	5754.79
439.53	5795.75
439.74	5816.23
439.95	5801.90
440.16	5842.85
440.37	5816.23
440.57	5801.90
440.78	5883.81
440.99	5912.49
441.20	5945.25
441.41	6012.84
441.62	5883.81
441.83	5898.15
442.04	5943.21
442.25	5986.21
442.46	5975.97
442.67	6010.79
442.88	6481.82
443.09	5889.96
443.30	5932.97
443.51	6107.04
443.72	6301.60
443.93	6131.62
444.14	6369.18
444.35	6023.08
444.56	6143.91
444.77	6121.38
444.98	6344.61
445.19	6305.70
445.40	6332.32
445.61	6363.04
445.81	6430.62
446.02	6461.34
446.23	6434.72
446.44	6145.95
446.65	6365.09
446.86	6522.78
447.07	6524.83
447.28	6543.26
447.49	6610.84
447.70	6369.18
447.91	6467.49
448.12	6625.18
448.33	6838.17
448.54	6651.80
448.74	6592.41
448.95	6676.38
449.16	6565.79
449.37	7006.10
449.58	6707.10
449.79	6950.81
450.00	6645.66
450.21	6887.32
450.42	6985.62
450.63	6979.48
450.84	6987.67
451.05	6991.77
451.25	6942.61
451.46	6784.92
451.67	7194.51
451.88	7180.18
452.09	6979.48
452.30	7063.44
452.51	7284.62
452.72	7266.19
452.93	7436.17
453.13	7202.71
453.34	7171.99
453.55	7391.12
453.76	7253.91
453.97	7726.99
454.18	7391.12
454.39	7487.37
454.60	7352.21
454.81	7593.87
455.01	7774.09
455.22	7391.12
455.43	7653.26
455.64	7876.49
455.85	7927.69
456.06	7892.87
456.27	7858.06
456.48	7853.96
456.68	7954.31
456.89	7939.97
457.10	7896.97
457.31	7970.69
457.52	8032.13
457.73	8062.85
457.94	8363.90
458.14	7815.05
458.35	8550.27
458.56	8163.20
458.77	8097.67
458.98	8363.90
459.19	8230.79
459.39	8406.91
459.60	8591.23
459.81	8574.85
460.02	8404.86
460.23	8523.65
460.44	8701.82
460.65	8748.92
460.85	8716.16
461.06	8763.26
461.27	8519.55
461.48	8855.42
461.69	8966.01
461.89	8603.52
462.10	8853.37
462.31	8886.14
462.52	8693.63
462.73	9086.84
462.94	9340.79
463.14	9009.01
463.35	9103.22
463.56	9478.00
463.77	9348.98
463.98	9101.17
464.18	9365.36
464.39	9506.67
464.60	9750.38
464.81	9514.86
465.02	9584.49
465.23	9656.17
465.43	9523.05
465.64	10059.62
465.85	9883.50
466.06	9770.86
466.27	9961.32
466.47	9893.74
466.68	9940.84
466.89	10026.86
467.10	9903.98
467.30	9903.98
467.51	10235.75
467.72	10413.92
467.93	10088.29
468.14	10481.50
468.34	10399.59
468.55	10567.52
468.76	10563.42
468.97	10385.25
469.17	10571.61
469.38	10819.42
469.59	10915.67
469.80	10665.82
470.01	10721.12
470.21	10805.08
470.42	11044.70
470.63	11128.66
470.84	11253.59
471.04	11226.96
471.25	11229.01
471.46	11108.18
471.67	11501.39
471.87	11419.47
472.08	11495.25
472.29	11898.70
472.50	11454.29
472.70	11560.78
472.91	11581.26
473.12	11970.38
473.33	11964.23
473.53	12199.75
473.74	11847.50
473.95	12181.32
474.16	12304.20
474.36	12099.40
474.57	12398.40
474.78	12515.14
474.99	12422.98
475.19	12390.21
475.40	12756.80
475.61	12754.75
475.81	12838.72
476.02	13068.09
476.23	12889.92
476.44	12955.45
476.64	13242.17
476.85	13231.93
477.06	13326.13
477.27	13614.90
477.47	13440.82
477.68	13522.74
477.89	13862.70
478.09	13696.82
478.30	13870.89
478.51	14122.79
478.71	13989.67
478.92	14173.99
479.13	14249.77
479.34	14384.93
479.54	14464.80
479.75	14257.96
479.96	14575.39
480.16	14708.51
480.37	14550.82
480.58	14659.36
480.78	14941.98
480.99	14825.25
481.20	14913.31
481.41	15034.14
481.61	15296.28
481.82	15312.66
482.03	15273.75
482.23	15345.43
482.44	15650.58
482.65	16068.36
482.85	15843.09
483.06	15884.05
483.27	15863.57
483.47	15865.61
483.68	16043.79
483.89	16281.35
484.09	16262.92
484.30	16443.14
484.51	16547.59
484.71	16723.71
484.92	16682.75
485.13	16910.08
485.33	16869.12
485.54	16692.99
485.75	17061.63
485.95	17090.30
486.16	17403.64
486.37	17186.55
486.57	17078.01
486.78	17356.54
486.98	17334.01
487.19	17688.31
487.40	17825.52
487.60	17663.73
487.81	18085.61
488.02	17970.93
488.22	17895.15
488.43	18134.76
488.64	18288.36
488.84	18419.43
489.05	18489.06
489.25	18345.70
489.46	18720.48
489.67	18800.35
489.87	18927.33
490.08	18894.56
490.29	18802.40
490.49	19304.15
490.70	19017.44
490.90	19549.91
491.11	19164.89
491.32	19250.91
491.52	19586.77
491.73	19674.84
491.94	19556.05
492.14	19678.93
492.35	20012.75
492.55	19842.77
492.76	20102.86
492.97	20485.83
493.17	20160.20
493.38	20307.66
493.58	20575.94
493.79	20625.09
494.00	20385.48
494.20	20520.65
494.41	20950.72
494.61	20889.28
494.82	21012.16
495.02	20872.90
495.23	21186.24
495.44	21057.21
495.64	21452.47
495.85	21325.50
496.05	21462.71
496.26	21481.14
496.47	21505.72
496.67	21890.74
496.88	22156.97
497.08	21685.94
497.29	22075.06
497.49	21743.28
497.70	22374.06
497.91	22204.08
498.11	22220.46
498.32	22351.53
498.52	22562.47
498.73	22666.92
498.93	22636.20
499.14	22945.44
499.34	22937.25
499.55	22734.50
499.76	22912.67
499.96	22906.53
500.17	23137.95
500.37	22965.92
500.58	23191.20
500.78	23223.97
500.99	23266.97
501.19	23740.05
501.40	23432.86
501.60	23445.15
501.81	23776.92
502.02	23674.52
502.22	23672.47
502.43	24223.37
502.63	23940.75
502.84	24223.37
503.04	24077.97
503.25	24442.51
503.45	24405.64
503.66	24096.40
503.86	24379.02
504.07	24800.90
504.27	24807.05
504.48	24870.53
504.68	24669.83
504.89	24805.00
505.09	24915.59
505.30	24843.91
505.50	25044.61
505.71	24942.21
505.91	25466.49
506.12	25288.32
506.32	25230.98
506.53	25116.29
506.73	25405.05
506.94	25597.56
507.14	25421.44
507.35	25331.33
507.55	25585.27
507.76	26013.30
507.96	25427.58
508.17	25810.55
508.37	25906.80
508.58	25986.68
508.78	26031.73
508.99	25953.91
509.19	25939.57
509.40	26218.10
509.60	26138.23
509.81	26541.68
510.01	26183.28
510.22	26553.96
510.42	26494.57
510.63	26678.89
510.83	26472.04
511.04	26510.96
511.24	26814.05
511.44	26678.89
511.65	26775.14
511.85	26928.74
512.06	26734.18
512.26	26730.09
512.47	27188.83
512.67	26988.13
512.88	26938.98
513.08	26986.08
513.29	27070.05
513.49	27172.45
513.69	27086.43
513.90	27450.97
514.10	27493.98
514.31	27391.58
514.51	27647.58
514.72	27483.74
514.92	27616.86
515.13	27489.88
515.33	27860.57
515.53	27860.57
515.74	27385.44
515.94	27729.50
516.15	27688.54
516.35	27948.63
516.56	28077.65
516.76	27848.28
516.96	27960.92
517.17	28180.05
517.37	27936.34
517.58	28028.50
517.78	28421.71
517.99	28364.37
518.19	28358.22
518.39	28458.57
518.60	28939.85
518.80	28501.58
519.01	28786.25
519.21	28567.12
519.41	28896.84
519.62	28849.74
519.82	29001.29
520.03	28890.70
520.23	28870.22
520.43	28927.56
520.64	29249.09
520.84	29273.67
521.05	29511.23
521.25	29515.33
521.45	29507.13
521.66	29595.20
521.86	29675.07
522.07	29802.04
522.27	29435.45
522.47	29484.61
522.68	30002.74
522.88	29654.59
523.08	29939.26
523.29	29754.94
523.49	30053.94
523.70	30033.46
523.90	30162.48
524.10	30406.19
524.31	30821.93
524.51	30033.46
524.71	30883.37
524.92	30737.96
525.12	30946.86
525.33	30621.23
525.53	30940.71
525.73	31153.70
525.94	31020.58
526.14	30953.00
526.34	31000.10
526.55	30989.86
526.75	31274.53
526.95	31483.42
527.16	31247.91
527.36	31264.29
527.56	31389.22
527.77	31778.33
527.97	31460.90
528.17	31659.55
528.38	31575.58
528.58	31831.58
528.78	32019.99
528.99	31630.88
529.19	32286.23
529.39	31823.39
529.60	32452.11
529.80	32443.92
530.00	32581.13
530.21	32491.02
530.41	32964.10
530.61	32626.19
530.82	32544.27
531.02	32613.90
531.22	33271.30
531.43	32718.35
531.63	32990.73
531.83	33394.18
532.04	33607.17
532.24	33322.50
532.44	33488.38
532.64	33711.61
532.85	33533.44
533.05	33457.67
533.25	33711.61
533.46	33873.40
533.66	34080.25
533.86	33912.31
534.07	34428.40
534.27	34246.13
534.47	34442.74
534.67	34641.39
534.88	34184.69
535.08	34553.33
535.28	34563.57
535.49	34575.86
535.69	34981.35
535.89	35036.65
536.09	34938.35
536.30	34975.21
536.50	35153.38
536.70	35503.59
536.91	35104.23
537.11	35349.99
537.31	35665.38
537.51	35239.40
537.72	36099.55
537.92	36011.48
538.12	35804.64
538.32	35677.66
538.53	36179.42
538.73	36034.01
538.93	35900.89
539.13	36031.96
539.34	36296.15
539.54	36474.32
539.74	36611.54
539.94	36396.50
540.15	36416.98
540.35	36793.81
540.55	36519.38
540.75	36799.95
540.96	37021.13
541.16	36896.20
541.36	37131.72
541.56	37043.66
541.77	36947.40
541.97	37189.06
542.17	37656.00
542.37	37209.54
542.58	37197.26
542.78	37451.20
542.98	37352.90
543.18	37815.74
543.38	38124.99
543.59	38127.03
543.79	37651.91
543.99	37887.42
544.19	38041.02
544.40	38108.60
544.60	38602.16
544.80	38147.51
545.00	38057.40
545.20	38237.62
545.41	38299.06
545.61	38276.54
545.81	38968.75
546.01	38770.10
546.21	38854.06
546.42	38684.08
546.62	38555.06
546.82	38567.35
547.02	38790.58
547.22	39407.01
547.43	38931.89
547.63	38882.73
547.83	39228.84
548.03	39011.76
548.23	39114.16
548.44	39277.99
548.64	39343.53
548.84	39568.80
549.04	39622.05
549.24	39841.18
549.45	40132.00
549.65	39523.75
549.85	39663.01
550.05	40121.76
550.25	39857.57
550.45	40166.81
550.66	40191.39
550.86	39693.73
551.06	40220.06
551.26	40523.16
551.46	40621.46
551.66	40658.32
551.87	40539.54
552.07	40385.94
552.27	40572.31
552.47	40531.35
552.67	41006.48
552.87	40723.86
553.07	40715.67
553.28	40930.70
553.48	41190.80
553.68	40971.66
553.88	41250.19
554.08	40938.90
554.28	40957.33
554.48	40916.37
554.69	41600.39
554.89	41551.24
555.09	41598.34
555.29	41305.48
555.49	41551.24
555.69	41457.03
555.89	41530.76
556.10	41706.88
556.30	41373.06
556.50	42012.03
556.70	41883.01
556.90	41954.69
557.10	41940.35
557.30	42073.47
557.50	42014.08
557.70	41852.29
557.91	41895.30
558.11	42419.58
558.31	42429.82
558.51	42259.84
558.71	42171.77
558.91	42573.17
559.11	42612.09
559.31	42726.77
559.51	42851.70
559.72	42356.09
559.92	42481.02
560.12	42231.16
560.32	42978.67
560.52	42816.88
560.72	42438.01
560.92	43119.98
561.12	43173.23
561.32	43308.40
561.52	42747.25
561.72	43191.66
561.93	43146.61
562.13	43230.57
562.33	43165.04
562.53	43599.21
562.73	43087.21
562.93	43251.05
563.13	43306.35
563.33	43302.25
563.53	43865.44
563.73	43249.00
563.93	43285.87
564.13	43949.41
564.33	43611.49
564.53	43658.60
564.74	43566.44
564.94	43644.26
565.14	43855.20
565.34	43552.10
565.54	43971.94
565.74	44008.80
565.94	44016.99
566.14	43949.41
566.34	43767.14
566.54	44221.79
566.74	43650.41
566.94	43752.80
567.14	44295.52
567.34	44113.25
567.54	44586.33
567.74	44313.95
567.94	43906.40
568.14	44830.04
568.34	44451.16
568.54	44293.47
568.74	44584.28
568.94	44545.37
569.14	45008.21
569.34	44373.34
569.54	44543.32
569.75	44703.06
569.95	44746.07
570.15	45241.68
570.35	45057.36
570.55	44791.12
570.75	44782.93
570.95	45110.61
571.15	44889.43
571.35	44897.62
571.55	44934.48
571.75	44565.85
571.95	45225.29
572.15	45159.76
572.35	45309.26
572.55	45579.59
572.75	45237.58
572.95	45598.02
573.15	45655.37
573.35	45145.42
573.55	45120.85
573.75	45518.15
573.95	45823.30
574.15	45411.66
574.35	45911.36
574.55	46112.06
574.75	45530.44
574.95	45954.37
575.15	45866.31
575.34	45909.32
575.54	45870.40
575.74	46355.77
575.94	46306.62
576.14	46331.20
576.34	46351.68
576.54	46478.65
576.74	46224.70
576.94	46081.34
577.14	46355.77
577.34	46660.92
577.54	46339.39
577.74	46081.34
577.94	46134.59
578.14	46568.76
578.34	46650.68
578.54	45997.38
578.74	46642.49
578.94	46587.19
579.14	46634.30
579.34	46615.86
579.54	46921.01
579.74	47086.90
579.94	47308.08
580.13	46875.96
580.33	47168.82
580.53	47342.89
580.73	47340.85
580.93	47011.12
581.13	47500.59
581.33	47324.46
581.53	47914.28
581.73	47473.96
581.93	47662.38
582.13	47695.14
582.33	47895.85
582.53	47539.50
582.73	47510.83
582.92	47740.20
583.12	47744.30
583.32	47697.19
583.52	47387.95
583.72	48477.47
583.92	47906.08
584.12	48071.97
584.32	48198.94
584.52	48143.65
584.72	48289.06
584.92	48205.09
585.11	48192.80
585.31	48182.56
585.51	48354.59
585.71	47951.14
585.91	48690.46
586.11	48608.54
586.31	48274.72
586.51	49034.52
586.71	48280.86
586.91	48721.18
587.10	48510.24
587.30	48538.91
587.50	48977.17
587.70	48518.43
587.90	49073.43
588.10	49526.03
588.30	48817.43
588.50	48848.15
588.69	48882.97
588.89	48428.32
589.09	48690.46
589.29	48715.03
589.49	49485.07
589.69	48543.00
589.89	49093.91
590.08	49087.76
590.28	49044.76
590.48	49026.32
590.68	48932.12
590.88	49280.27
591.08	49270.03
591.28	49128.72
591.47	49239.31
591.67	49415.44
591.87	49620.23
592.07	49394.96
592.27	49681.67
592.47	49288.46
592.67	49487.12
592.86	49245.46
593.06	49765.64
593.26	49593.61
593.46	49681.67
593.66	49435.92
593.86	49878.28
594.05	49833.22
594.25	50201.86
594.45	49521.93
594.65	50003.20
594.85	49501.45
595.05	50347.26
595.24	49937.67
595.44	50087.17
595.64	50111.75
595.84	49921.29
596.04	50214.15
596.23	50201.86
596.43	50631.93
596.63	49886.47
596.83	50300.16
597.03	50554.11
597.22	50789.62
597.42	50375.94
597.62	50834.68
597.82	50750.71
598.02	50107.65
598.21	51041.53
598.41	50550.01
598.61	50259.20
598.81	50603.26
599.01	50920.70
599.20	50894.07
599.40	50609.40
599.60	50781.43
599.80	50554.11
600.00	50857.21
600.19	50939.13
600.39	50928.89
600.59	51578.09
600.79	51320.05
600.98	51295.47
601.18	51598.57
601.38	51332.34
601.58	51533.04
601.78	51348.72
601.97	51420.40
602.17	51762.41
602.37	51705.07
602.57	51332.34
602.76	51877.10
602.96	51713.26
603.16	51967.21
603.36	51219.70
603.55	52102.37
603.75	51821.80
603.95	52362.46
604.15	52405.47
604.34	51748.07
604.54	52051.17
604.74	52067.56
604.94	51983.59
605.13	52301.03
605.33	52423.90
605.53	52133.09
605.73	52337.89
605.92	52462.82
606.12	52681.95
606.32	52407.52
606.52	52366.56
606.71	52667.61
606.91	52589.79
607.11	52483.30
607.30	52757.72
607.50	51999.97
607.70	52782.30
607.90	53075.16
608.09	52733.15
608.29	52839.64
608.49	52874.46
608.68	52876.51
608.88	52765.91
609.08	52780.25
609.28	53146.84
609.47	52776.15
609.67	52794.59
609.87	53009.62
610.06	53345.49
610.26	52862.17
610.46	53353.68
610.66	52870.36
610.85	53357.78
611.05	53155.03
611.25	53365.97
611.44	53294.29
611.64	53466.32
611.84	53193.94
612.03	53034.20
612.23	53220.56
612.43	53613.77
612.62	53357.78
612.82	53642.45
613.02	53177.56
613.21	53400.79
613.41	53359.83
613.61	53613.77
613.80	53171.41
614.00	53720.27
614.20	53712.08
614.39	53882.06
614.59	53339.35
614.79	53736.65
614.98	53515.47
615.18	53619.92
615.38	53163.22
615.57	53802.19
615.77	53505.23
615.97	53742.80
616.16	53398.74
616.36	53726.41
616.56	54291.65
616.75	53953.74
616.95	53525.71
617.15	53640.40
617.34	53402.83
617.54	53679.31
617.74	53984.46
617.93	54236.36
618.13	53826.76
618.32	53896.39
618.52	53744.84
618.72	54019.27
618.91	54172.87
619.11	53980.36
619.31	53830.86
619.50	53882.06
619.70	53847.24
619.90	53683.40
620.09	54129.86
620.29	53869.77
620.48	53912.78
620.68	53992.65
620.88	53626.06
621.07	53927.11
621.27	54072.52
621.46	53992.65
621.66	53820.62
621.86	53914.83
622.05	53654.73
622.25	54133.96
622.44	54052.04
622.64	53609.68
622.84	54219.97
623.03	53634.25
623.23	53779.66
623.42	53882.06
623.62	54316.23
623.82	54217.92
624.01	54195.40
624.21	54490.30
624.40	54154.44
624.60	54226.12
624.80	54359.23
624.99	54117.57
625.19	53564.62
625.38	54381.76
625.58	53851.34
625.77	54125.77
625.97	54267.08
626.17	53877.96
626.36	53914.83
626.56	53976.26
626.75	53736.65
626.95	54590.66
627.14	54166.73
627.34	54639.81
627.54	54240.45
627.73	53687.50
627.93	54103.24
628.12	53632.21
628.32	54133.96
628.51	54367.43
628.71	54334.66
628.90	54037.70
629.10	54230.21
629.30	54230.21
629.49	54312.13
629.69	54039.75
629.88	54326.47
630.08	54777.02
630.27	54734.01
630.47	54789.31
630.66	54242.50
630.86	54410.43
631.05	54156.49
631.25	55108.79
631.44	54604.99
631.64	54305.99
631.84	54277.32
632.03	55041.21
632.23	54596.80
632.42	55170.23
632.62	54586.56
632.81	54330.56
633.01	54721.72
633.20	55000.25
633.40	54727.87
633.59	54645.95
633.79	54406.34
633.98	54478.02
634.18	54799.55
634.37	54942.91
634.57	54465.73
634.76	55276.72
634.96	55405.75
635.15	54658.24
635.35	54611.13
635.54	54924.47
635.74	55276.72
635.93	54588.61
636.13	55088.31
636.32	55319.73
636.52	54652.09
636.71	55272.63
636.91	54856.89
637.10	55237.81
637.30	55518.38
637.49	55477.43
637.69	55493.81
637.88	55559.34
638.08	55559.34
638.27	55116.98
638.46	55233.72
638.66	55295.16
638.85	55317.68
639.05	55061.69
639.24	55375.03
639.44	55219.38
639.63	55614.64
639.83	55524.53
640.02	55100.60
640.22	54850.75
640.41	55579.82
640.61	54965.43
640.80	55821.48
640.99	55694.51
641.19	55917.74
641.38	55721.13
641.58	55796.91
641.77	55803.05
641.97	55231.67
642.16	55938.22
642.36	55805.10
642.55	55973.03
642.74	55669.93
642.94	56480.93
643.13	55592.11
643.33	55884.97
643.52	55850.16
643.72	56345.76
643.91	55833.77
644.10	56028.33
644.30	56302.76
644.49	55289.01
644.69	56149.16
644.88	55641.26
645.08	55688.37
645.27	55876.78
645.46	55573.68
645.66	56308.90
645.85	55805.10
646.05	56577.18
646.24	56071.34
646.43	55862.44
646.63	56413.35
646.82	56493.22
647.02	56554.66
647.21	56374.44
647.40	56120.49
647.60	56597.66
647.79	56468.64
647.99	56362.15
648.18	56022.19
648.37	56947.87
648.57	56038.57
648.76	56276.13
648.96	56376.48
649.15	56196.26
649.34	56560.80
649.54	57093.27
649.73	56261.80
649.92	56665.25
650.12	56485.03
650.31	57091.22
650.51	56515.75
650.70	56544.42
650.89	56548.51
651.09	56954.01
651.28	56804.51
651.47	56792.22
651.67	56583.33
651.86	56743.07
652.06	56136.87
652.25	56788.13
652.44	56804.51
652.64	56687.78
652.83	56724.64
653.02	56571.04
653.22	56929.44
653.41	56988.83
653.60	56464.55
653.80	57080.98
653.99	56968.35
654.18	56724.64
654.38	56763.55
654.57	56743.07
654.76	56700.06
654.96	56730.78
655.15	56525.99
655.34	56724.64
655.54	56482.98
655.73	57019.55
655.92	57109.66
656.12	56673.44
656.31	57062.55
656.50	56401.06
656.70	56683.68
656.89	56820.89
657.08	57015.45
657.28	56917.15
657.47	56900.76
657.66	57283.73
657.86	57121.94
658.05	57142.42
658.24	56796.32
658.43	56954.01
658.63	56741.02
658.82	56997.02
659.01	57066.65
659.21	57216.15
659.40	57312.41
659.59	56919.20
659.79	56943.77
659.98	57054.36
660.17	56945.82
660.36	57035.93
660.56	56767.65
660.75	57238.68
660.94	56630.43
661.14	56943.77
661.33	57054.36
661.52	56571.04
661.71	57527.44
661.91	56675.49
662.10	56599.71
662.29	57027.74
662.49	56890.52
662.68	57072.79
662.87	57156.76
663.06	57480.34
663.26	56546.47
663.45	57144.47
663.64	56755.36
663.83	57633.94
664.03	57013.40
664.22	56945.82
664.41	56906.91
664.60	56681.63
664.80	56882.33
664.99	56632.48
665.18	57074.84
665.37	56769.69
665.57	57169.05
665.76	56898.72
665.95	57212.06
666.14	57128.09
666.34	56964.25
666.53	56779.93
666.72	56921.24
666.91	56603.81
667.11	56904.86
667.30	56763.55
667.49	56693.92
667.68	56638.62
667.87	56464.55
668.07	57087.13
668.26	56839.32
668.45	56865.95
668.64	56476.83
668.84	57439.38
669.03	57343.12
669.22	56882.33
669.41	56851.61
669.60	57402.52
669.80	56677.54
669.99	56911.00
670.18	56683.68
670.37	56939.68
670.57	56970.39
670.76	56736.93
670.95	56951.96
671.14	56519.84
671.33	56456.35
671.53	57210.01
671.72	56849.56
671.91	56558.75
672.10	56614.05
672.29	56601.76
672.48	56577.18
672.68	57191.58
672.87	57076.89
673.06	56532.13
673.25	56370.34
673.44	56272.04
673.64	56419.49
673.83	56353.96
674.02	56091.82
674.21	56173.73
674.40	56370.34
674.59	56288.42
674.79	55901.36
674.98	56433.83
675.17	56474.79
675.36	55905.45
675.55	56321.19
675.74	55970.99
675.94	55944.36
676.13	56335.52
676.32	56054.95
676.51	56568.99
676.70	56095.91
676.89	56364.20
677.08	56079.53
677.28	56120.49
677.47	56417.44
677.66	56452.26
677.85	56147.11
678.04	56329.38
678.23	56556.70
678.42	56808.61
678.62	55762.09
678.81	56599.71
679.00	55858.35
679.19	56491.17
679.38	56337.57
679.57	56114.34
679.76	55846.06
679.96	56251.56
680.15	55635.12
680.34	56046.76
680.53	56208.55
680.72	55473.33
680.91	55993.51
681.10	55946.41
681.29	55934.12
681.48	55837.87
681.68	55502.00
681.87	55665.84
682.06	55329.97
682.25	55397.55
682.44	55532.72
682.63	55518.38
682.82	55323.83
683.01	55344.31
683.20	55051.45
683.39	55377.08
683.59	55190.71
683.78	55211.19
683.97	55135.41
684.16	55305.40
684.35	54973.63
684.54	55319.73
684.73	55368.88
684.92	55137.46
685.11	54748.35
685.30	55088.31
685.49	55293.11
685.69	55362.74
685.88	55174.33
686.07	54838.46
686.26	54897.85
686.45	55415.99
686.64	55057.59
686.83	54738.11
687.02	55088.31
687.21	55311.54
687.40	55162.04
687.59	55145.65
687.78	55106.74
687.97	54942.91
688.16	55086.26
688.35	54799.55
688.54	55010.49
688.74	54936.76
688.93	54537.41
689.12	54531.26
689.31	54985.91
689.50	55100.60
689.69	54359.23
689.88	54432.96
690.07	54619.33
690.26	54068.42
690.45	54719.68
690.64	54629.57
690.83	54455.49
691.02	53816.52
691.21	54238.40
691.40	54281.41
691.59	54133.96
691.78	54207.68
691.97	54807.74
692.16	54412.48
692.35	54650.05
692.54	54285.51
692.73	54389.95
692.92	54031.56
693.11	53759.18
693.30	54049.99
693.49	54140.10
693.68	53843.15
693.87	53910.73
694.06	53544.14
694.25	53753.04
694.44	53779.66
694.63	53617.87
694.82	54072.52
695.01	53728.46
695.20	53593.29
695.39	53646.54
695.58	53595.34
695.77	53404.88
695.96	53662.93
696.15	53507.28
696.34	53359.83
696.53	53392.59
696.72	53556.43
696.91	53648.59
697.10	53408.98
697.29	53435.60
697.48	53404.88
697.67	53597.39
697.86	52997.34
698.05	53118.17
698.24	53527.76
698.43	52997.34
698.62	53513.42
698.81	52864.22
699.00	53515.47
699.19	53206.23
699.38	53406.93
699.57	52968.66
699.76	53519.57
699.95	53185.75
700.14	52665.56
700.32	53091.54
700.51	52589.79
700.70	53275.86
700.89	53220.56
701.08	53157.08
701.27	52694.24
701.46	53232.85
701.65	52446.43
701.84	52806.87
702.03	52915.42
702.22	52993.24
702.41	52649.18
702.60	52671.71
702.79	52802.78
702.98	52608.22
703.17	52514.01
703.35	52235.49
703.54	52233.44
703.73	52516.06
703.92	52450.53
704.11	52282.59
704.30	51995.88
704.49	52534.49
704.68	51856.62
704.87	52432.10
705.06	52204.77
705.25	52284.64
705.43	52180.20
705.62	52479.20
705.81	51940.58
706.00	51913.96
706.19	52229.35
706.38	51938.54
706.57	51733.74
706.76	52018.41
706.95	52180.20
707.14	51979.49
707.32	52243.68
707.51	51483.89
707.70	51944.68
707.89	51571.95
708.08	52045.03
708.27	51840.23
708.46	51967.21
708.65	51686.64
708.84	52217.06
709.02	51959.02
709.21	52159.72
709.40	51793.13
709.59	51643.63
709.78	51346.67
709.97	51768.55
710.16	51559.66
710.34	51821.80
710.53	51877.10
710.72	51748.07
710.91	51291.38
711.10	51784.94
711.29	51600.62
711.48	51578.09
711.66	51240.18
711.85	51393.78
712.04	51401.97
712.23	51352.82
712.42	51442.93
712.61	51492.08
712.80	51328.24
712.98	51299.57
713.17	51395.82
713.36	51180.79
713.55	51295.47
713.74	51209.46
713.93	50975.99
714.11	51154.16
714.30	50666.75
714.49	50863.35
714.68	51164.40
714.87	51086.58
715.06	50820.34
715.24	50746.62
715.43	50959.61
715.62	50681.08
715.81	50617.60
716.00	51176.69
716.18	50728.19
716.37	50599.16
716.56	50414.85
716.75	51264.75
716.94	50246.91
717.12	50175.23
717.31	50298.11
717.50	50689.27
717.69	50214.15
717.88	50478.33
718.06	50806.01
718.25	51059.96
718.44	50001.16
718.63	50162.95
718.82	49851.66
719.00	50197.76
719.19	50158.85
719.38	50314.50
719.57	49747.21
719.76	49386.77
719.94	49476.88
720.13	49372.43
720.32	49802.50
720.51	49816.84
720.69	50027.78
720.88	49487.12
721.07	49460.49
721.26	49075.48
721.44	49513.74
721.63	49663.24
721.82	49321.23
722.01	49200.40
722.20	49577.23
722.38	49036.56
722.57	48887.06
722.76	49198.35
722.95	49362.19
723.13	49079.57
723.32	48715.03
723.51	48500.00
723.70	48682.27
723.88	49284.37
724.07	48641.31
724.26	48981.27
724.44	48405.79
724.63	49141.01
724.82	48581.91
725.01	49044.76
725.19	48721.18
725.38	48422.17
725.57	48567.58
725.76	48966.93
725.94	48389.41
726.13	48737.56
726.32	48854.29
726.51	48266.53
726.69	48491.80
726.88	48512.28
727.07	48180.51
727.25	48506.14
727.44	48209.18
727.63	48510.24
727.82	48317.73
728.00	48028.96
728.19	48370.97
728.38	48287.01
728.56	47754.54
728.75	48530.72
728.94	48041.25
729.12	48416.03
729.31	48848.15
729.50	48485.66
729.69	48364.83
729.87	48506.14
730.06	47981.86
730.25	48233.76
730.43	48799.00
730.62	47858.98
730.81	48680.22
730.99	48280.86
731.18	48342.30
731.37	48440.60
731.55	48360.73
731.74	48852.25
731.93	48067.87
732.11	48481.56
732.30	48600.35
732.49	48172.32
732.67	48063.78
732.86	48098.59
733.05	48551.20
733.23	47920.42
733.42	48346.40
733.61	47971.62
733.79	48092.45
733.98	48536.86
734.17	48289.06
734.35	48291.10
734.54	48295.20
734.73	48579.87
734.91	48155.94
735.10	48043.30
735.29	48477.47
735.47	48117.03
735.66	48018.72
735.84	48577.82
736.03	47928.61
736.22	48809.24
736.40	48026.92
736.59	48420.13
736.78	48237.86
736.96	47920.42
737.15	48031.01
737.33	47940.90
737.52	48096.55
737.71	47811.88
737.89	47783.21
738.08	47760.68
738.27	47637.80
738.45	48155.94
738.64	47887.65
738.82	47793.45
739.01	47926.56
739.20	47756.58
739.38	47625.51
739.57	47883.56
739.75	47680.81
739.94	47768.87
740.13	47936.80
740.31	47594.79
740.50	47658.28
740.68	47645.99
740.87	47602.99
741.06	47717.67
741.24	47715.62
741.43	47277.36
741.61	47836.45
741.80	47381.80
741.99	47398.19
742.17	47553.83
742.36	47584.55
742.54	47160.62
742.73	47420.72
742.91	47572.27
743.10	47627.56
743.29	47428.91
743.47	47129.90
743.66	47338.80
743.84	47441.20
744.03	47369.52
744.21	47179.06
744.40	47453.48
744.59	46720.31
744.77	46986.55
744.96	46937.40
745.14	47355.18
745.33	47252.78
745.51	46935.35
745.70	47437.10
745.88	46556.47
746.07	47396.14
746.26	46540.09
746.44	47154.48
746.63	47068.47
746.81	47203.63
747.00	46323.01
747.18	47078.71
747.37	46871.86
747.55	46945.59
747.74	47027.51
747.92	46650.68
748.11	46439.74
748.29	46622.01
748.48	46499.13
748.66	46595.38
748.85	46542.14
749.03	46339.39
749.22	46679.35
749.41	46654.78
749.59	46441.79
749.78	46290.24
749.96	46198.08
750.15	46583.10
750.33	46275.90
750.52	46241.09
750.70	46372.16
750.89	45950.27
751.07	45985.09
751.26	46277.95
751.44	46042.43
751.63	45720.90
751.81	45897.03
752.00	46011.71
752.18	46081.34
752.37	45849.92
752.55	45587.78
752.74	46001.47
752.92	46085.44
753.10	45397.32
753.29	46234.94
753.47	45630.79
753.66	45702.47
753.84	45954.37
754.03	45839.68
754.21	45083.98
754.40	45731.14
754.58	45493.58
754.77	45632.84
754.95	44924.24
755.14	45952.32
755.32	45153.62
755.51	44973.39
755.69	45036.88
755.88	45380.94
756.06	45253.97
756.24	45329.74
756.43	45155.66
756.61	45192.53
756.80	45282.64
756.98	44950.87
757.17	45004.11
757.35	45219.15
757.54	44686.68
757.72	45139.28
757.90	44799.32
758.09	44813.65
758.27	44774.74
758.46	45004.11
758.64	44678.49
758.83	44807.51
759.01	45231.44
759.19	44682.58
759.38	44442.97
759.56	44809.56
759.75	44586.33
759.93	44553.56
760.12	44264.80
760.30	44412.25
760.48	44094.82
760.67	44512.60
760.85	44344.67
761.04	44418.39
761.22	44500.31
761.40	44369.24
761.59	44010.85
761.77	43892.07
761.96	44227.93
762.14	44098.91
762.32	43971.94
762.51	43693.41
762.69	43881.83
762.88	43965.79
763.06	43916.64
763.24	43588.97
763.43	44041.57
763.61	43615.59
763.80	43998.56
763.98	43474.28
764.16	43746.66
764.35	43578.73
764.53	42964.34
764.72	43664.74
764.90	43554.15
765.08	43560.30
765.27	43122.03
765.45	42820.98
765.63	42792.31
765.82	43068.78
766.00	42890.61
766.18	43197.80
766.37	43644.26
766.55	43132.27
766.74	43091.31
766.92	43066.73
767.10	43023.73
767.29	42825.07
767.47	42857.84
767.65	43025.78
767.84	42239.36
768.02	42900.85
768.20	42562.93
768.39	42777.97
768.57	42091.90
768.75	42521.98
768.94	42347.90
769.12	42341.75
769.30	42020.22
769.49	42290.55
769.67	41971.07
769.85	41588.10
770.04	42296.70
770.22	41850.24
770.40	41473.42
770.59	41727.36
770.77	42315.13
770.95	41979.26
771.14	41878.91
771.32	41411.98
771.50	41307.53
771.69	41545.09
771.87	41596.29
772.05	41465.22
772.24	40973.71
772.42	41473.42
772.60	41510.28
772.78	41033.10
772.97	41133.45
773.15	41493.89
773.33	41391.50
773.52	40971.66
773.70	41428.36
773.88	41162.12
774.07	40955.28
774.25	41356.68
774.43	41305.48
774.61	41129.36
774.80	41239.95
774.98	41354.63
775.16	41022.86
775.34	41330.06
775.53	41215.37
775.71	41612.68
775.89	41293.19
776.08	41190.80
776.26	41209.23
776.44	41112.97
776.62	41018.77
776.81	40940.94
776.99	41784.71
777.17	41422.22
777.35	41121.16
777.54	41743.75
777.72	41239.95
777.90	41543.05
778.08	41452.94
778.27	41430.41
778.45	41858.43
778.63	41731.46
778.81	41305.48
779.00	42128.77
779.18	41756.03
779.36	41846.15
779.54	41608.58
779.73	41213.32
779.91	41446.79
780.09	41776.51
780.27	41694.60
780.46	41567.62
780.64	41581.96
780.82	41766.27
781.00	41571.72
781.19	41848.19
781.37	41893.25
781.55	41766.27
781.73	42093.95
781.91	41497.99
782.10	42081.66
782.28	42120.57
782.46	42022.27
782.64	42063.23
782.82	41710.98
783.01	41950.59
783.19	42098.05
783.37	42057.09
783.55	41526.66
783.74	41887.10
783.92	41667.97
784.10	42089.85
784.28	41647.49
784.46	42061.18
784.64	41635.20
784.83	42055.04
785.01	42091.90
785.19	42329.47
785.37	41991.55
785.55	41784.71
785.74	41608.58
785.92	41246.09
786.10	42139.00
786.28	41502.09
786.46	41446.79
786.64	41151.88
786.83	41227.66
787.01	41698.69
787.19	41653.64
787.37	41661.83
787.55	41567.62
787.74	40973.71
787.92	41266.57
788.10	41014.67
788.28	41213.32
788.46	41262.47
788.64	40660.37
788.82	41153.93
789.01	40895.89
789.19	41246.09
789.37	40813.97
789.55	40770.96
789.73	40566.16
789.91	40502.68
790.09	40580.50
790.28	40494.49
790.46	40175.00
790.64	40455.57
790.82	40664.47
791.00	40101.28
791.18	39841.18
791.36	40011.17
791.55	40132.00
791.73	39738.79
791.91	39763.36
792.09	40084.89
792.27	39751.07
792.45	39916.96
792.63	39511.46
792.81	39568.80
793.00	39194.03
793.18	39251.37
793.36	39290.28
793.54	39212.46
793.72	39210.41
793.90	39017.90
794.08	39052.72
794.26	38833.58
794.44	38743.47
794.62	38602.16
794.81	38385.08
794.99	38598.07
795.17	38753.71
795.35	38632.88
795.53	38354.36
795.71	38630.83
795.89	38163.90
796.07	37946.81
796.25	37885.37
796.43	37696.96
796.61	37610.95
796.80	37328.33
796.98	37719.49
797.16	37645.76
797.34	37692.86
797.52	37328.33
797.70	37770.69
797.88	37377.48
798.06	37410.25
798.24	37357.00
798.42	37184.97
798.60	36888.01
798.78	37135.82
798.96	37227.98
799.14	36349.40
799.32	36699.60
799.51	36251.09
799.69	36431.32
799.87	36795.85
800.05	36156.89
800.23	36228.57
800.41	36120.02
800.59	36273.62
800.77	35853.79
800.95	35790.30
801.13	35866.08
801.31	35659.23
801.49	35937.76
801.67	35485.15
801.85	35788.25
802.03	35274.21
802.21	35014.12
802.39	35282.41
802.57	35349.99
802.75	34905.58
802.93	34819.56
803.11	34743.79
803.29	34885.10
803.47	34633.20
803.65	34760.17
803.83	34987.50
804.01	34676.21
804.19	34209.27
804.37	34067.96
804.55	33773.05
804.73	34299.38
804.91	34182.65
805.09	34127.35
805.27	33996.28
805.45	33750.52
805.63	34096.63
805.81	33682.94
805.99	33883.64
806.17	33873.40
806.35	33746.43
806.53	33363.46
806.71	33551.87
806.89	33275.40
807.07	33656.32
807.25	33291.78
807.43	33324.55
807.61	33533.44
807.79	33146.37
807.97	32943.63
808.15	33033.74
808.33	32769.55
808.51	32720.40
808.69	32683.53
808.87	32302.61
809.05	32466.45
809.23	32521.74
809.41	31917.59
809.59	32177.68
809.77	32189.97
809.95	32185.88
810.13	32202.26
810.31	32146.97
810.49	32359.95
810.67	32013.85
810.84	31823.39
811.02	31919.64
811.20	31522.34
811.38	31895.07
811.56	31421.98
811.74	31598.11
811.92	31491.62
812.10	31462.94
812.28	31467.04
812.46	31036.97
812.64	31571.49
812.82	31329.83
813.00	31088.17
813.18	31225.38
813.36	31051.30
813.53	30799.40
813.71	31090.21
813.89	30932.52
814.07	31104.55
814.25	30594.61
814.43	30545.45
814.61	30174.77
814.79	30594.61
814.97	30359.09
815.15	30428.72
815.33	30103.09
815.50	30297.65
815.68	30316.08
815.86	30465.58
816.04	30359.09
816.22	30137.91
816.40	30115.38
816.58	30193.20
816.76	29642.30
816.94	29560.38
817.11	29779.51
817.29	29636.16
817.47	29836.86
817.65	29746.75
817.83	29703.74
818.01	29568.57
818.19	29574.72
818.37	29648.44
818.54	29273.67
818.72	29142.60
818.90	29083.20
819.08	29378.11
819.26	29175.36
819.44	29206.08
819.62	29267.52
819.80	29263.43
819.97	29005.38
820.15	28702.28
820.33	28741.19
820.51	28870.22
820.69	28436.05
820.87	28864.07
821.05	28700.23
821.22	28769.86
821.40	28771.91
821.58	28671.56
821.76	28352.08
821.94	28360.27
822.12	28442.19
822.29	28583.50
822.47	28378.70
822.65	28546.64
822.83	28421.71
823.01	28223.06
823.19	27780.70
823.36	28116.56
823.54	27960.92
823.72	28018.26
823.90	28022.36
824.08	27985.49
824.25	27727.45
824.43	27995.73
824.61	27784.79
824.79	28100.18
824.97	27663.96
825.15	27854.42
825.32	27694.68
825.50	27674.20
825.68	27483.74
825.86	27879.00
826.04	27649.63
826.21	27352.67
826.39	27569.76
826.57	27117.15
826.75	27311.71
826.93	27309.66
827.10	27240.03
827.28	27235.94
827.46	27324.00
827.64	27082.34
827.81	27027.04
827.99	27577.95
828.17	27049.57
828.35	26955.36
828.53	26977.89
828.70	26779.24
828.88	27082.34
829.06	26680.94
829.24	26938.98
829.41	26707.56
829.59	26793.58
829.77	26504.81
829.95	26859.11
830.12	26357.36
830.30	26482.28
830.48	26748.52
830.66	26392.17
830.84	26273.39
831.01	26713.70
831.19	26627.69
831.37	26353.26
831.55	26261.10
831.72	26404.46
831.90	26119.79
832.08	26334.83
832.25	26084.98
832.43	26164.85
832.61	25757.30
832.79	25851.51
832.96	25925.24
833.14	26191.47
833.32	26078.83
833.50	25892.47
833.67	26060.40
833.85	25669.24
834.03	25814.65
834.20	25867.89
834.38	25949.81
834.56	25863.80
834.74	25800.31
834.91	25550.46
835.09	25601.66
835.27	25460.35
835.44	25552.51
835.62	24993.41
835.80	25456.25
835.98	25296.51
836.15	25101.95
836.33	25466.49
836.51	25601.66
836.68	25013.89
836.86	25417.34
837.04	25241.21
837.21	25376.38
837.39	25470.59
837.57	25450.11
837.75	25290.37
837.92	25202.30
838.10	25212.54
838.28	24839.81
838.45	24952.45
838.63	25044.61
838.81	25028.23
838.98	25208.45
839.16	24704.65
839.34	24573.58
839.51	24829.57
839.69	24653.45
839.87	24829.57
840.04	24407.69
840.22	24866.44
840.40	24766.09
840.57	24278.67
840.75	24594.06
840.93	24297.10
841.10	24772.23
841.28	24675.98
841.46	24766.09
841.63	24624.78
841.81	24569.48
841.98	24759.94
842.16	24274.57
842.34	24282.77
842.51	24260.24
842.69	24376.97
842.87	24202.89
843.04	24049.30
843.22	23940.75
843.40	24149.65
843.57	24127.12
843.75	24034.96
843.92	24225.42
844.10	24104.59
844.28	24059.54
844.45	24000.15
844.63	23963.28
844.81	23922.32
844.98	24180.37
845.16	23592.60
845.33	23879.32
845.51	23989.91
845.69	23873.17
845.86	23670.42
846.04	23539.35
846.21	23545.50
846.39	23473.82
846.57	23439.00
846.74	23824.02
846.92	23860.88
847.09	23600.79
847.27	23430.81
847.45	23682.71
847.62	23469.72
847.80	23582.36
847.97	23586.46
848.15	23555.74
848.32	23101.09
848.50	23336.60
848.68	23293.60
848.85	23350.94
849.03	23076.51
849.20	23004.83
849.38	23156.38
849.56	23131.81
849.73	23047.84
849.91	23021.22
850.08	23314.08
850.26	22625.96
850.43	22865.57
850.61	23049.89
850.78	22748.84
850.96	22851.24
851.14	23029.41
851.31	22771.36
851.49	22834.85
851.66	22861.48
851.84	22691.49
852.01	22949.54
852.19	22759.08
852.36	22787.75
852.54	22613.67
852.71	22595.24
852.89	22570.66
853.07	22845.09
853.24	22740.64
853.42	22781.60
853.59	22834.85
853.77	22775.46
853.94	22718.12
854.12	22793.89
854.29	22193.84
854.47	22152.88
854.64	22482.60
854.82	22611.62
854.99	22642.34
855.17	22449.83
855.34	22302.38
855.52	22343.34
855.69	22707.88
855.87	22286.00
856.04	21839.54
856.22	22095.53
856.39	21780.15
856.57	22140.59
856.74	22011.57
856.92	22386.35
857.09	21796.53
857.27	21970.61
857.44	21886.64
857.62	22148.78
857.79	22163.12
857.97	21905.07
858.14	21595.83
858.32	21700.28
858.49	21892.79
858.67	21829.30
858.84	21536.44
859.02	21665.46
859.19	21860.02
859.37	21487.29
859.54	21579.45
859.72	21507.77
859.89	21325.50
860.06	21526.20
860.24	21507.77
860.41	21880.50
860.59	21188.28
860.76	21386.94
860.94	21409.47
861.11	21407.42
861.29	21483.19
861.46	21149.37
861.64	21425.85
861.81	21196.48
861.98	21165.76
862.16	21083.84
862.33	21012.16
862.51	21110.46
862.68	21614.26
862.86	21421.75
863.03	21065.41
863.21	20842.18
863.38	21182.14
863.55	21063.36
863.73	20876.99
863.90	21176.00
864.08	21098.17
864.25	20989.63
864.43	20711.11
864.60	20876.99
864.77	20688.58
864.95	20735.68
865.12	20565.70
865.30	20776.64
865.47	20627.14
865.64	20588.23
865.82	20483.78
865.99	20926.14
866.17	20389.58
866.34	20717.25
866.51	20262.60
866.69	20743.88
866.86	20553.41
867.04	20680.39
867.21	20518.60
867.38	20287.18
867.56	20553.41
867.73	20252.36
867.91	20025.04
868.08	20299.47
868.25	20113.10
868.43	19853.01
868.60	20270.79
868.78	20086.48
868.95	20289.23
869.12	19988.18
869.30	20035.28
869.47	20080.33
869.64	19879.63
869.82	20115.15
869.99	19709.65
870.16	19967.70
870.34	19961.55
870.51	19777.23
870.69	19711.70
870.86	19861.20
871.03	19906.26
871.21	19775.19
871.38	19717.84
871.55	19769.04
871.73	19443.42
871.90	19781.33
872.07	19328.73
872.25	19404.50
872.42	19439.32
872.59	19461.85
872.77	19435.22
872.94	19842.77
873.11	19326.68
873.29	19517.14
873.46	19205.85
873.63	19445.46
873.81	19193.56
873.98	19336.92
874.15	19402.46
874.33	18820.83
874.50	18777.83
874.67	19068.64
874.85	19035.87
875.02	18657.00
875.19	18685.67
875.37	18718.43
875.54	18644.71
875.71	18509.54
875.88	18820.83
876.06	18814.69
876.23	18757.35
876.40	18577.12
876.58	18595.56
876.75	18683.62
876.92	18372.33
877.10	18452.20
877.27	18401.00
877.44	18439.91
877.61	18411.24
877.79	18208.49
877.96	18210.54
878.13	18249.45
878.31	18122.48
878.48	18044.65
878.65	18224.87
878.82	18091.76
879.00	17889.01
879.17	17946.35
879.34	17751.79
879.51	17929.97
879.69	17876.72
879.86	18085.61
880.03	17864.43
880.21	17741.55
880.38	17858.29
880.55	17757.94
880.72	17663.73
880.90	17817.33
881.07	17649.39
881.24	17805.04
881.41	17702.64
881.59	17573.62
881.76	17501.94
881.93	17420.02
882.10	17221.37
882.28	17614.58
882.45	17661.68
882.62	17313.53
882.79	17641.20
882.96	17082.11
883.14	17497.84
883.31	17510.13
883.48	17276.66
883.65	17516.28
883.83	17350.39
884.00	17301.24
884.17	17319.67
884.34	17426.17
884.51	17182.46
884.69	17247.99
884.86	17284.86
885.03	17295.10
885.20	17020.67
885.38	17297.14
885.55	17090.30
885.72	17098.49
885.89	16819.97
886.06	17211.13
886.24	16992.00
886.41	16963.33
886.58	17176.31
886.75	17188.60
886.92	16920.32
887.10	17063.68
887.27	16760.58
887.44	16828.16
887.61	17069.82
887.78	17053.44
887.95	17039.10
888.13	16754.43
888.30	16682.75
888.47	16637.70
888.64	16842.50
888.81	16572.16
888.99	16523.01
889.16	16185.10
889.33	16518.92
889.50	16293.64
889.67	16494.34
889.84	16725.76
890.01	16551.68
890.19	16416.52
890.36	16408.33
890.53	16506.63
890.70	16234.25
890.87	16355.08
891.04	16342.79
891.22	16197.38
891.39	16248.58
891.56	15986.44
891.73	16074.51
891.90	16178.95
892.07	16002.83
892.24	16068.36
892.42	15957.77
892.59	16211.72
892.76	15922.96
892.93	15961.87
893.10	16004.88
893.27	15925.00
893.44	15861.52
893.61	15828.75
893.79	16219.91
893.96	15920.91
894.13	16074.51
894.30	16084.75
894.47	15884.05
894.64	16240.39
894.81	16054.03
894.98	15918.86
895.15	16051.98
895.33	15853.33
895.50	15707.92
895.67	16064.27
895.84	15812.37
896.01	15873.81
896.18	15564.56
896.35	15867.66
896.52	15890.19
896.69	15517.46
896.86	15691.54
897.04	15914.77
897.21	15875.85
897.38	15691.54
897.55	15697.68
897.72	15830.80
897.89	15576.85
898.06	15838.99
898.23	15673.10
898.40	15767.31
898.57	15814.41
898.74	15544.08
898.91	15650.58
899.08	15904.53
899.26	15748.88
899.43	15572.75
899.60	15431.44
899.77	15474.45
899.94	15531.80
900.11	15623.95
900.28	15429.40
900.45	15726.35
900.62	15798.03
900.79	15873.81
900.96	15548.18
901.13	15673.10
901.30	15525.65
901.47	15488.79
901.64	15585.04
901.81	15740.69
901.98	15380.25
902.15	15765.26
902.32	15546.13
902.49	15718.16
902.66	15689.49
902.83	15560.47
903.01	15396.63
903.18	15617.81
903.35	15683.34
903.52	15591.19
903.69	15714.06
903.86	15656.72
904.03	15662.86
904.20	15777.55
904.37	15597.33
904.54	15286.04
904.71	15503.12
904.88	15558.42
905.05	15427.35
905.22	15611.67
905.39	15507.22
905.56	15552.27
905.73	15253.27
905.90	15427.35
906.07	15574.80
906.24	15542.03
906.41	15648.53
906.58	15750.93
906.75	15130.39
906.92	15623.95
907.09	15327.00
907.26	15605.52
907.43	15159.06
907.60	15384.34
907.77	15441.68
907.93	15216.41
908.10	15736.59
908.27	15363.86
908.44	15347.48
908.61	15267.61
908.78	15169.30
908.95	15494.93
909.12	15427.35
909.29	15251.22
909.46	15380.25
909.63	15496.98
909.80	15148.82
909.97	15374.10
910.14	15365.91
910.31	15050.52
910.48	15382.29
910.65	15257.37
910.82	15126.30
910.99	15105.82
911.16	15146.78
911.33	15042.33
911.50	15068.95
911.66	14907.16
911.83	15212.31
912.00	15150.87
912.17	15019.80
912.34	15068.95
912.51	14968.60
912.68	14935.84
912.85	15013.66
913.02	14907.16
913.19	14878.49
913.36	14952.22
913.53	14944.03
913.70	14747.42
913.86	14790.43
914.03	14688.03
914.20	14761.76
914.37	14886.68
914.54	14706.46
914.71	14788.38
914.88	14778.14
915.05	14565.15
915.22	14589.73
915.39	14843.68
915.55	14714.66
915.72	14487.33
915.89	14497.57
916.06	14378.79
916.23	14233.38
916.40	14274.34
916.57	14331.69
916.74	14509.86
916.91	14333.73
917.07	14067.50
917.24	14204.71
917.41	14090.02
917.58	14126.89
917.75	13918.00
917.92	13868.84
918.09	14137.13
918.26	13905.71
918.42	13901.61
918.59	13840.17
918.76	13764.40
918.93	13784.88
919.10	13659.95
919.27	13725.49
919.44	13721.39
919.60	13629.23
919.77	13555.51
919.94	13547.31
920.11	13608.75
920.28	13537.07
920.45	13422.39
920.61	13268.79
920.78	13225.78
920.95	13340.47
921.12	13311.80
921.29	13301.56
921.46	13053.75
921.62	12934.97
921.79	13190.97
921.96	13125.43
922.13	13018.94
922.30	13002.55
922.47	12918.59
922.63	12836.67
922.80	12873.53
922.97	12859.20
923.14	12648.26
923.31	12650.30
923.47	12525.38
923.64	12595.01
923.81	12648.26
923.98	12392.26
924.15	12304.20
924.32	12379.97
924.48	12357.44
924.65	12457.79
924.82	12212.04
924.99	12037.96
925.15	11872.07
925.32	12216.13
925.49	11853.64
925.66	11960.14
925.83	11994.95
925.99	12093.26
926.16	11900.75
926.33	11814.73
926.50	11538.26
926.67	11890.51
926.83	11603.79
927.00	11718.48
927.17	11497.30
927.34	11614.03
927.50	11493.20
927.67	11614.03
927.84	11384.66
928.01	11382.61
928.17	11257.68
928.34	11272.02
928.51	11337.56
928.68	11259.73
928.84	11216.72
929.01	10993.50
929.18	10788.70
929.35	11048.79
929.51	10751.84
929.68	10901.34
929.85	10889.05
930.02	10803.04
930.18	10825.56
930.35	10723.16
930.52	10602.33
930.69	10831.71
930.85	10671.97
931.02	10491.74
931.19	10520.42
931.36	10399.59
931.52	10391.39
931.69	10215.27
931.86	10225.51
932.02	10270.56
932.19	10219.36
932.36	10141.54
932.53	10045.29
932.69	9926.50
932.86	10213.22
933.03	10067.81
933.19	9895.78
933.36	9799.53
933.53	9959.27
933.70	9906.02
933.86	9801.58
934.03	9723.76
934.20	9582.45
934.36	9539.44
934.53	9523.05
934.70	9281.39
934.86	9287.54
935.03	9174.90
935.20	9035.64
935.36	9191.28
935.53	9154.42
935.70	8931.19
935.86	9060.21
936.03	8896.38
936.20	8863.61
936.36	8793.98
936.53	8523.65
936.70	8572.80
936.86	8644.48
937.03	8449.92
937.20	8368.00
937.36	8355.71
937.53	8191.88
937.70	8112.00
937.86	8015.75
938.03	7925.64
938.20	8064.90
938.36	7716.75
938.53	7669.64
938.70	7608.20
938.86	7597.96
939.03	7356.30
939.20	7268.24
939.36	7567.24
939.53	7251.86
939.70	7405.46
939.86	6993.81
940.03	6954.90
940.19	6928.28
940.36	6729.63
940.53	6809.50
940.69	6774.68
940.86	6713.24
941.03	6645.66
941.19	6467.49
941.36	6442.91
941.52	6385.57
941.69	6248.35
941.86	6305.70
942.02	6274.98
942.19	6117.28
942.35	6209.44
942.52	6160.29
942.69	6004.64
942.85	5889.96
943.02	5967.78
943.18	5910.44
943.35	5928.87
943.52	5740.46
943.68	5973.92
943.85	5810.09
944.01	5558.19
944.18	5550.00
944.35	5713.83
944.51	5513.13
944.68	5459.88
944.84	5447.60
945.01	5554.09
945.17	5521.32
945.34	5380.01
945.51	5439.40
945.67	5388.21
945.84	5449.64
946.00	5377.97
946.17	5408.69
946.33	5277.62
946.50	5404.59
946.67	5300.14
946.83	5396.40
947.00	5545.90
947.16	5320.62
947.33	5337.01
947.49	5240.75
947.66	5308.34
947.82	5341.10
947.99	5289.90
948.16	5392.30
948.32	5236.66
948.49	5343.15
948.65	5443.50
948.82	5279.66
948.98	5179.31
949.15	5152.69
949.31	5420.97
949.48	5349.29
949.64	5474.22
949.81	5312.43
949.97	5302.19
950.14	5294.00
950.30	5330.86
950.47	5455.79
950.63	5418.93
950.80	5345.20
950.96	5328.81
951.13	5271.47
951.30	5334.96
951.46	5418.93
951.63	5461.93
951.79	5375.92
951.96	5431.21
952.12	5277.62
952.29	5490.60
952.45	5304.24
952.62	5359.53
952.78	5406.64
952.94	5388.21
953.11	5316.53
953.27	5214.13
953.44	5531.56
953.60	5345.20
953.77	5402.54
953.93	5400.49
954.10	5472.17
954.26	5451.69
954.43	5431.21
954.59	5558.19
954.76	5578.67
954.92	5390.25
955.09	5308.34
955.25	5320.62
955.42	5517.23
955.58	5521.32
955.75	5357.49
955.91	5466.03
956.07	5394.35
956.24	5445.55
956.40	5509.04
956.57	5500.84
956.73	5418.93
956.90	5404.59
957.06	5550.00
957.23	5531.56
957.39	5169.07
957.56	5457.84
957.72	5312.43
957.88	5201.84
958.05	5466.03
958.21	5543.85
958.38	5506.99
958.54	5443.50
958.71	5588.91
958.87	5466.03
959.03	5466.03
959.20	5470.12
959.36	5353.39
959.53	5453.74
959.69	5443.50
959.85	5306.29
960.02	5279.66
960.18	5449.64
960.35	5492.65
960.51	5504.94
960.68	5527.47
960.84	5451.69
961.00	5328.81
961.17	5392.30
961.33	5402.54
961.50	5478.32
961.66	5394.35
961.82	5328.81
961.99	5351.34
962.15	5443.50
962.31	5394.35
962.48	5457.84
962.64	5386.16
962.81	5382.06
962.97	5420.97
963.13	5416.88
963.30	5406.64
963.46	5390.25
963.62	5439.40
963.79	5275.57
963.95	5240.75
964.12	5310.38
964.28	5468.08
964.44	5289.90
964.61	5246.90
964.77	5527.47
964.93	5427.12
965.10	5273.52
965.26	5228.46
965.42	5390.25
965.59	5328.81
965.75	5353.39
965.92	5261.23
966.08	5345.20
966.24	5218.22
966.41	5289.90
966.57	5273.52
966.73	5257.14
966.90	5250.99
967.06	5253.04
967.22	5091.25
967.39	5060.53
967.55	5105.59
967.71	5296.05
967.88	5326.77
968.04	5103.54
968.20	5103.54
968.37	5078.96
968.53	5093.30
968.69	5105.59
968.85	5171.12
969.02	5164.98
969.18	5089.20
969.34	5109.68
969.51	5042.10
969.67	5105.59
969.83	5023.67
970.00	5302.19
970.16	5173.17
970.32	5035.96
970.48	5173.17
970.65	5009.33
970.81	4976.56
970.97	5019.57
971.14	4915.12
971.30	5087.15
971.46	4868.02
971.63	4911.03
971.79	4919.22
971.95	4886.45
972.11	4896.69
972.28	4855.73
972.44	5070.77
972.60	4792.25
972.76	4941.75
972.93	4900.79
973.09	4919.22
973.25	4833.21
973.42	4808.63
973.58	4898.74
973.74	4884.41
973.90	4859.83
974.07	4853.69
974.23	4882.36
974.39	4755.38
974.55	4827.06
974.72	4749.24
974.88	4632.51
975.04	4880.31
975.20	4708.28
975.37	4837.30
975.53	4714.42
975.69	4646.84
975.85	4687.80
976.01	4691.90
976.18	4747.19
976.34	4644.79
976.50	4648.89
976.66	4708.28
976.83	4583.35
976.99	4612.03
977.15	4655.03
977.31	4448.19
977.47	4587.45
977.64	4661.18
977.80	4628.41
977.96	4507.58
978.12	4470.72
978.29	4642.75
978.45	4476.86
978.61	4501.44
978.77	4622.27
978.93	4440.00
979.10	4478.91
979.26	4507.58
979.42	4427.71
979.58	4390.84
979.74	4419.52
979.91	4427.71
980.07	4384.70
980.23	4335.55
980.39	4329.41
980.55	4442.04
980.71	4333.50
980.88	4323.26
981.04	4386.75
981.20	4337.60
981.36	4329.41
981.52	4282.30
981.68	4319.17
981.85	4327.36
982.01	4298.69
982.17	4224.96
982.33	4433.85
982.49	4360.13
982.65	4173.76
982.82	4323.26
982.98	4302.78
983.14	4112.32
983.30	4261.82
983.46	4442.04
983.62	4128.70
983.79	4067.27
983.95	4208.58
984.11	4165.57
984.27	4151.23
984.43	4161.47
984.59	4106.18
984.75	4157.38
984.91	4081.60
985.08	4163.52
985.24	3964.87
985.40	3903.43
985.56	4093.89
985.72	4067.27
985.88	4054.98
986.04	4052.93
986.20	4116.42
986.37	4075.46
986.53	3952.58
986.69	4140.99
986.85	3923.91
987.01	3956.68
987.17	4108.23
987.33	4007.87
987.49	3841.99
987.65	3983.30
987.82	3895.24
987.98	3837.89
988.14	3891.14
988.30	3952.58
988.46	3821.51
988.62	3848.13
988.78	3915.72
988.94	3897.28
989.10	3819.46
989.26	3739.59
989.42	3784.65
989.59	3772.36
989.75	3669.96
989.91	3786.69
990.07	3708.87
990.23	3649.48
990.39	3854.28
990.55	3895.24
990.71	3620.81
990.87	3786.69
991.03	3801.03
991.19	3592.14
991.35	3659.72
991.51	3708.87
991.67	3764.17
991.83	3760.07
992.00	3682.25
992.16	3698.63
992.32	3688.39
992.48	3667.91
992.64	3635.14
992.80	3721.16
992.96	3604.42
993.12	3694.54
993.28	3549.13
993.44	3649.48
993.60	3620.81
993.76	3608.52
993.92	3598.28
994.08	3608.52
994.24	3567.56
994.40	3567.56
994.56	3590.09
994.72	3459.02
994.88	3571.66
995.04	3436.49
995.20	3479.50
995.36	3459.02
995.52	3676.10
995.68	3489.74
995.84	3428.30
996.00	3540.94
996.16	3456.97
996.32	3375.05
996.48	3452.88
996.64	3444.68
996.80	3430.35
996.96	3487.69
997.12	3444.68
997.28	3248.08
997.44	3313.61
997.60	3420.11
997.76	3274.70
997.92	3413.96
998.08	3434.44
998.24	3203.02
998.40	3303.37
998.56	3291.09
998.72	3272.65
998.88	3272.65
999.04	3354.57
999.20	3231.69
999.36	3196.88
999.52	3358.67
999.68	3336.14
999.84	3250.13
1000.00	3311.57
1000.16	3274.70
1000.32	3196.88
1000.48	3362.76
1000.64	3131.34
1000.80	3182.54
1000.95	3149.78
1001.11	3264.46
1001.27	3131.34
1001.43	3176.40
1001.59	3078.10
1001.75	3057.62
1001.91	3182.54
1002.07	3057.62
1002.23	3123.15
1002.39	3110.86
1002.55	3108.82
1002.71	3096.53
1002.87	3174.35
1003.03	3127.25
1003.19	2951.12
1003.34	3084.24
1003.50	2998.23
1003.66	3080.14
1003.82	3051.47
1003.98	2897.88
1004.14	3035.09
1004.30	3002.32
1004.46	3030.99
1004.62	2942.93
1004.78	3080.14
1004.94	2985.94
1005.09	3030.99
1005.25	3071.95
1005.41	2916.31
1005.57	2965.46
1005.73	2953.17
1005.89	2861.01
1006.05	3008.47
1006.21	2836.44
1006.37	2877.40
1006.52	2951.12
1006.68	2795.48
1006.84	3043.28
1007.00	2879.44
1007.16	2867.16
1007.32	2777.05
1007.48	2826.20
1007.64	2904.02
1007.79	2832.34
1007.95	2840.53
1008.11	2824.15
1008.27	2787.29
1008.43	2875.35
1008.59	2795.48
1008.75	2848.72
1008.91	2742.23
1009.06	2772.95
1009.22	2869.20
1009.38	2736.09
1009.54	2801.62
1009.70	2789.33
1009.86	2795.48
1010.01	2830.29
1010.17	2768.85
1010.33	2746.33
1010.49	2803.67
1010.65	2729.94
1010.81	2703.32
1010.96	2779.09
1011.12	2656.22
1011.28	2607.06
1011.44	2795.48
1011.60	2629.59
1011.76	2707.41
1011.91	2740.18
1012.07	2570.20
1012.23	2549.72
1012.39	2488.28
1012.55	2736.09
1012.71	2627.54
1012.86	2658.26
1013.02	2637.78
1013.18	2584.54
1013.34	2564.06
1013.50	2564.06
1013.65	2639.83
1013.81	2600.92
1013.97	2471.90
1014.13	2592.73
1014.29	2535.39
1014.44	2625.50
1014.60	2527.19
1014.76	2521.05
1014.92	2523.10
1015.07	2580.44
1015.23	2555.86
1015.39	2453.47
1015.55	2635.74
1015.71	2631.64
1015.86	2529.24
1016.02	2547.67
1016.18	2428.89
1016.34	2437.08
1016.49	2549.72
1016.65	2502.62
1016.81	2475.99
1016.97	2506.71
1017.12	2492.38
1017.28	2344.92
1017.44	2363.36
1017.60	2387.93
1017.75	2381.79
1017.91	2447.32
1018.07	2502.62
1018.23	2480.09
1018.38	2414.56
1018.54	2406.36
1018.70	2387.93
1018.86	2369.50
1019.01	2361.31
1019.17	2441.18
1019.33	2463.71
1019.49	2359.26
1019.64	2392.03
1019.80	2422.75
1019.96	2381.79
1020.12	2363.36
1020.27	2295.77
1020.43	2316.25
1020.59	2328.54
1020.74	2324.44
1020.90	2336.73
1021.06	2377.69
1021.22	2265.05
1021.37	2379.74
1021.53	2353.12
1021.69	2410.46
1021.84	2240.48
1022.00	2349.02
1022.16	2318.30
1022.31	2277.34
1022.47	2297.82
1022.63	2273.25
1022.79	2131.94
1022.94	2246.62
1023.10	2318.30
1023.26	2224.09
1023.41	2308.06
1023.57	2248.67
1023.73	2222.05
1023.88	2183.13
1024.04	2224.09
1024.20	2193.37
1024.35	2299.87
1024.51	2230.24
1024.67	2213.85
1024.82	2238.43
1024.98	2103.26
1025.14	2297.82
1025.29	2152.42
1025.45	2220.00
1025.61	2115.55
1025.76	2232.29
1025.92	2222.05
1026.08	2172.89
1026.23	2279.39
1026.39	2213.85
1026.55	2179.04
1026.70	2189.28
1026.86	2226.14
1027.02	2174.94
1027.17	2187.23
1027.33	2191.33
1027.48	2121.70
1027.64	2082.78
1027.80	2179.04
1027.95	2123.74
1028.11	2047.97
1028.27	2213.85
1028.42	2125.79
1028.58	2029.54
1028.73	2039.78
1028.89	1943.52
1029.05	2074.59
1029.20	2148.32
>>>>>End Processed Spectral Data<<<<<
