SpectraSuite Data File
++++++++++++++++++++++++++++++++++++
Date: Fri Jun 02 14:49:24 CEST 2017
User: INFO_000
Dark Spectrum Present: No
Reference Spectrum Present: No
Number of Sampled Component Spectra: 1
Spectrometers: USB4H00879
Integration Time (usec): 80000 (USB4H00879)
Spectra Averaged: 1 (USB4H00879)
Boxcar Smoothing: 0 (USB4H00879)
Correct for Electrical Dark: No (USB4H00879)
Strobe/Lamp Enabled: No (USB4H00879)
Correct for Detector Non-linearity: No (USB4H00879)
Correct for Stray Light: No (USB4H00879)
Number of Pixels in Processed Spectrum: 3648
>>>>>Begin Processed Spectral Data<<<<<
345.13	1302.51
345.34	1302.51
345.56	1302.51
345.78	1292.27
345.99	1312.75
346.21	1744.87
346.42	1687.53
346.64	1673.19
346.86	1798.12
347.07	1665.00
347.29	1716.20
347.50	1662.95
347.72	1683.43
347.94	1751.01
348.15	1626.09
348.37	1630.18
348.59	1687.53
348.80	1648.61
349.02	1726.44
349.23	1757.16
349.45	1806.31
349.67	1894.37
349.88	1802.21
350.10	1961.95
350.31	1849.32
350.53	1855.46
350.75	1990.63
350.96	1759.21
351.18	1822.69
351.39	1810.40
351.61	1798.12
351.82	1841.12
352.04	1943.52
352.26	1804.26
352.47	1937.38
352.69	1898.47
352.90	1763.30
353.12	1861.60
353.34	1769.44
353.55	1877.99
353.77	1900.52
353.98	1773.54
354.20	1828.84
354.41	1935.33
354.63	1818.60
354.85	2056.16
355.06	1888.23
355.28	1771.49
355.49	1869.80
355.71	1925.09
355.92	1884.13
356.14	1880.04
356.35	1837.03
356.57	1941.47
356.79	2000.87
357.00	1839.08
357.22	1970.15
357.43	1875.94
357.65	1961.95
357.86	1841.12
358.08	1982.43
358.29	1957.86
358.51	1927.14
358.72	1961.95
358.94	1863.65
359.16	1902.56
359.37	1945.57
359.59	1929.19
359.80	1966.05
360.02	2025.44
360.23	2011.11
360.45	2000.87
360.66	2060.26
360.88	1890.28
361.09	1865.70
361.31	1970.15
361.52	1982.43
361.74	2013.15
361.95	2066.40
362.17	1927.14
362.38	2052.06
362.60	2084.83
362.81	2039.78
363.03	1900.52
363.24	1945.57
363.46	2082.78
363.67	1945.57
363.89	1970.15
364.10	1927.14
364.32	2000.87
364.53	2035.68
364.75	1851.36
364.96	2068.45
365.18	1984.48
365.39	2007.01
365.61	1994.72
365.82	2133.98
366.04	2011.11
366.25	1939.43
366.47	2058.21
366.68	2029.54
366.90	1890.28
367.11	2125.79
367.33	2029.54
367.54	1998.82
367.76	2007.01
367.97	2052.06
368.19	1998.82
368.40	2168.80
368.62	2025.44
368.83	1927.14
369.05	2031.58
369.26	2027.49
369.48	1986.53
369.69	1941.47
369.91	2072.54
370.12	2043.87
370.33	2205.66
370.55	1959.91
370.76	2113.50
370.98	2019.30
371.19	2121.70
371.41	2027.49
371.62	1970.15
371.84	1966.05
372.05	2189.28
372.27	1980.39
372.48	1998.82
372.69	2052.06
372.91	2093.02
373.12	2060.26
373.34	2007.01
373.55	2242.53
373.77	2174.94
373.98	2117.60
374.20	2166.75
374.41	2281.44
374.62	2170.85
374.84	2207.71
375.05	2164.70
375.27	2107.36
375.48	2234.33
375.70	2148.32
375.91	2271.20
376.12	2230.24
376.34	2123.74
376.55	2101.22
376.77	2191.33
376.98	2136.03
377.19	2160.61
377.41	2250.72
377.62	2222.05
377.84	2277.34
378.05	2371.55
378.27	2256.86
378.48	2224.09
378.69	2283.49
378.91	2308.06
379.12	2297.82
379.34	2201.57
379.55	2408.41
379.76	2293.72
379.98	2256.86
380.19	2254.81
380.41	2291.68
380.62	2269.15
380.83	2246.62
381.05	2117.60
381.26	2340.83
381.47	2201.57
381.69	2279.39
381.90	2408.41
382.12	2217.95
382.33	2316.25
382.54	2328.54
382.76	2387.93
382.97	2314.20
383.19	2273.25
383.40	2412.51
383.61	2260.96
383.83	2295.77
384.04	2303.96
384.25	2398.17
384.47	2301.92
384.68	2408.41
384.89	2277.34
385.11	2340.83
385.32	2273.25
385.54	2316.25
385.75	2426.84
385.96	2344.92
386.18	2392.03
386.39	2478.04
386.60	2396.12
386.82	2424.80
387.03	2443.23
387.24	2496.47
387.46	2383.84
387.67	2439.13
387.88	2475.99
388.10	2514.91
388.31	2510.81
388.52	2580.44
388.74	2496.47
388.95	2512.86
389.16	2594.78
389.38	2559.96
389.59	2600.92
389.80	2557.91
390.02	2543.58
390.23	2594.78
390.44	2588.63
390.66	2564.06
390.87	2449.37
391.08	2617.30
391.30	2664.41
391.51	2670.55
391.72	2541.53
391.94	2615.26
392.15	2598.87
392.36	2641.88
392.58	2566.10
392.79	2607.06
393.00	2582.49
393.22	2744.28
393.43	2701.27
393.64	2793.43
393.85	2705.37
394.07	2648.02
394.28	2725.85
394.49	2719.70
394.71	2725.85
394.92	2793.43
395.13	2660.31
395.35	2738.13
395.56	2723.80
395.77	2789.33
395.98	2789.33
396.20	2844.63
396.41	2791.38
396.62	2875.35
396.84	2820.05
397.05	2834.39
397.26	2895.83
397.47	2910.16
397.69	2820.05
397.90	3016.66
398.11	2916.31
398.32	2877.40
398.54	2797.53
398.75	2879.44
398.96	2938.84
399.18	2985.94
399.39	2877.40
399.60	2992.08
399.81	3002.32
400.03	3016.66
400.24	3174.35
400.45	2979.79
400.66	3055.57
400.88	3051.47
401.09	3153.87
401.30	3053.52
401.51	3094.48
401.73	3192.78
401.94	3078.10
402.15	3149.78
402.36	3186.64
402.58	3131.34
402.79	3164.11
403.00	3209.17
403.21	3256.27
403.43	3139.54
403.64	3100.62
403.85	3186.64
404.06	3219.41
404.27	3145.68
404.49	3188.69
404.70	3147.73
404.91	3243.98
405.12	3248.08
405.34	3231.69
405.55	3370.96
405.76	3133.39
405.97	3112.91
406.19	3264.46
406.40	3243.98
406.61	3383.24
406.82	3413.96
407.03	3266.51
407.25	3284.94
407.46	3243.98
407.67	3409.87
407.88	3375.05
408.09	3330.00
408.31	3309.52
408.52	3471.31
408.73	3346.38
408.94	3295.18
409.15	3348.43
409.37	3440.59
409.58	3461.07
409.79	3452.88
410.00	3516.36
410.21	3411.92
410.43	3348.43
410.64	3379.15
410.85	3614.66
411.06	3504.07
411.27	3551.18
411.48	3571.66
411.70	3497.93
411.91	3573.71
412.12	3536.84
412.33	3612.62
412.54	3436.49
412.76	3620.81
412.97	3633.10
413.18	3467.21
413.39	3483.59
413.60	3659.72
413.81	3755.97
414.03	3618.76
414.24	3626.95
414.45	3794.89
414.66	3622.86
414.87	3719.11
415.08	3760.07
415.30	3686.34
415.51	3710.92
415.72	3725.26
415.93	3813.32
416.14	3825.61
416.35	3760.07
416.56	3796.93
416.78	3846.09
416.99	3854.28
417.20	3762.12
417.41	3874.76
417.62	3870.66
417.83	3966.92
418.04	3841.99
418.26	3868.61
418.47	3821.51
418.68	3968.96
418.89	3985.35
419.10	4065.22
419.31	3968.96
419.52	3964.87
419.73	4079.55
419.95	3958.72
420.16	3897.28
420.37	3977.16
420.58	3983.30
420.79	3858.37
421.00	4134.85
421.21	4048.83
421.42	3942.34
421.63	4202.43
421.85	4114.37
422.06	4102.08
422.27	4173.76
422.48	4161.47
422.69	4296.64
422.90	4259.78
423.11	4282.30
423.32	4220.86
423.53	4337.60
423.75	4382.65
423.96	4526.01
424.17	4372.41
424.38	4470.72
424.59	4317.12
424.80	4583.35
425.01	4407.23
425.22	4427.71
425.43	4427.71
425.64	4569.02
425.85	4659.13
426.06	4560.83
426.28	4485.05
426.49	4548.54
426.70	4560.83
426.91	4812.73
427.12	4644.79
427.33	4661.18
427.54	4603.83
427.75	4693.94
427.96	4839.35
428.17	4620.22
428.38	4865.97
428.59	4831.16
428.80	4757.43
429.01	4843.45
429.23	4878.26
429.44	4937.65
429.65	4894.65
429.86	4913.08
430.07	4794.29
430.28	4886.45
430.49	5011.38
430.70	5033.91
430.91	5085.11
431.12	4915.12
431.33	5152.69
431.54	5234.61
431.75	5138.35
431.96	5087.15
432.17	5109.68
432.38	5005.24
432.59	5283.76
432.80	5304.24
433.01	5287.86
433.22	5296.05
433.43	5238.70
433.64	5447.60
433.85	5189.55
434.06	5285.81
434.27	5267.38
434.49	5531.56
434.70	5361.58
434.91	5441.45
435.12	5392.30
435.33	5369.77
435.54	5519.28
435.75	5189.55
435.96	5482.41
436.17	5351.34
436.38	5568.43
436.59	5674.92
436.80	5296.05
437.01	5779.37
437.22	5722.02
437.43	5494.70
437.64	5377.97
437.85	5715.88
438.06	5834.66
438.27	5736.36
438.48	5636.01
438.69	5801.90
438.90	5681.07
439.11	5506.99
439.32	5758.89
439.53	5760.94
439.74	5795.75
439.95	5783.46
440.16	5705.64
440.37	5676.97
440.57	5767.08
440.78	5975.97
440.99	5971.88
441.20	5918.63
441.41	5693.35
441.62	5924.77
441.83	5750.70
442.04	5980.07
442.25	6053.80
442.46	5842.85
442.67	6109.09
442.88	6467.49
443.09	5908.39
443.30	5988.26
443.51	6061.99
443.72	6242.21
443.93	5930.92
444.14	6279.07
444.35	5961.64
444.56	6303.65
444.77	6268.83
444.98	6277.02
445.19	6213.54
445.40	6164.39
445.61	6381.47
445.81	6385.57
446.02	6397.85
446.23	6410.14
446.44	6135.71
446.65	6399.90
446.86	6346.66
447.07	6500.25
447.28	6657.95
447.49	6602.65
447.70	6457.25
447.91	6580.12
448.12	6610.84
448.33	6635.42
448.54	6827.93
448.74	6619.04
448.95	6604.70
449.16	6623.13
449.37	6940.57
449.58	6709.15
449.79	6946.71
450.00	6748.06
450.21	6721.43
450.42	6924.18
450.63	7067.54
450.84	6889.37
451.05	6985.62
451.25	6961.05
451.46	6748.06
451.67	7090.07
451.88	7155.60
452.09	7102.36
452.30	7030.68
452.51	7137.17
452.72	7399.31
452.93	7634.83
453.13	6997.91
453.34	7196.56
453.55	7196.56
453.76	7360.40
453.97	7657.36
454.18	7337.87
454.39	7622.54
454.60	7382.93
454.81	7585.68
455.01	7620.49
455.22	7452.56
455.43	7491.47
455.64	7743.37
455.85	7829.38
456.06	7802.76
456.27	7935.88
456.48	7894.92
456.68	7862.15
456.89	7919.50
457.10	7851.91
457.31	8155.01
457.52	7935.88
457.73	8128.39
457.94	8259.46
458.14	8081.28
458.35	8662.91
458.56	8245.12
458.77	8224.64
458.98	8345.47
459.19	8230.79
459.39	8482.69
459.60	8572.80
459.81	8345.47
460.02	8464.25
460.23	8333.18
460.44	8658.81
460.65	8738.68
460.85	8789.88
461.06	8738.68
461.27	8597.37
461.48	9031.54
461.69	8982.39
461.89	8646.52
462.10	9078.65
462.31	8820.60
462.52	8918.90
462.73	9119.60
462.94	9162.61
463.14	9135.99
463.35	9080.69
463.56	9633.64
463.77	9543.53
463.98	9135.99
464.18	9183.09
464.39	9418.61
464.60	9744.24
464.81	9496.43
465.02	9430.90
465.23	9678.70
465.43	9590.64
465.64	9797.48
465.85	9844.59
466.06	9680.75
466.27	10057.57
466.47	10006.38
466.68	10024.81
466.89	9828.20
467.10	10135.40
467.30	10028.90
467.51	9989.99
467.72	10444.64
467.93	10039.14
468.14	10266.47
468.34	10364.77
468.55	10342.24
468.76	10594.14
468.97	10338.15
469.17	10651.49
469.38	10590.05
469.59	10827.61
469.80	10680.16
470.01	10628.96
470.21	10813.28
470.42	11005.78
470.63	10964.82
470.84	10868.57
471.04	11016.02
471.25	11165.53
471.46	11134.81
471.67	11564.88
471.87	11220.82
472.08	11429.71
472.29	11577.17
472.50	11382.61
472.70	11292.50
472.91	11605.84
473.12	11759.44
473.33	11816.78
473.53	11810.64
473.74	11900.75
473.95	12207.94
474.16	12214.09
474.36	12132.17
474.57	12345.16
474.78	12504.90
474.99	12533.57
475.19	12312.39
475.40	12539.71
475.61	12668.73
475.81	12797.76
476.02	12881.72
476.23	12916.54
476.44	12801.85
476.64	13299.51
476.85	13305.65
477.06	13248.31
477.27	13461.30
477.47	13481.78
477.68	13518.64
477.89	13545.27
478.09	13729.58
478.30	13653.81
478.51	14077.74
478.71	13934.38
478.92	14231.33
479.13	14061.35
479.34	14176.04
479.54	14247.72
479.75	14118.70
479.96	14286.63
480.16	14364.45
480.37	14778.14
480.58	14788.38
480.78	15003.42
480.99	14915.36
481.20	14958.36
481.41	15159.06
481.61	15118.11
481.82	15273.75
482.03	15292.18
482.23	15288.09
482.44	15589.14
482.65	15644.43
482.85	15548.18
483.06	15582.99
483.27	15818.51
483.47	15779.60
483.68	16187.14
483.89	16260.87
484.09	16271.11
484.30	16172.81
484.51	16561.92
484.71	16770.82
484.92	16641.79
485.13	16703.23
485.33	16740.10
485.54	16764.67
485.75	16969.47
485.95	17288.95
486.16	17084.16
486.37	17422.07
486.57	17018.62
486.78	17489.65
486.98	17471.22
487.19	17684.21
487.40	17944.30
487.60	17817.33
487.81	18161.39
488.02	17952.49
488.22	18159.34
488.43	18108.14
488.64	18192.11
488.84	18321.13
489.05	18470.63
489.25	18458.34
489.46	18751.20
489.67	18630.37
489.87	19009.25
490.08	18927.33
490.29	18788.07
490.49	19265.24
490.70	19115.74
490.90	19261.15
491.11	19470.04
491.32	19640.02
491.52	19603.16
491.73	19689.17
491.94	19889.87
492.14	19754.71
492.35	20131.53
492.55	20405.96
492.76	19992.27
492.97	20586.18
493.17	20528.84
493.38	20332.23
493.58	20491.98
493.79	20778.69
494.00	20897.47
494.20	20745.92
494.41	20991.68
494.61	20950.72
494.82	21071.55
495.02	21089.98
495.23	21290.68
495.44	21493.43
495.64	21685.94
495.85	21726.90
496.05	21391.03
496.26	21694.13
496.47	22048.43
496.67	21796.53
496.88	22046.38
497.08	21874.35
497.29	22220.46
497.49	21999.28
497.70	22140.59
497.91	22410.92
498.11	22404.78
498.32	22509.22
498.52	22640.29
498.73	23117.47
498.93	22943.39
499.14	22986.40
499.34	22986.40
499.55	23037.60
499.76	22558.38
499.96	22879.91
500.17	23223.97
500.37	23529.11
500.58	23561.88
500.78	23451.29
500.99	23768.73
501.19	23680.66
501.40	23482.01
501.60	23856.79
501.81	23563.93
502.02	23703.19
502.22	23635.61
502.43	24155.79
502.63	24256.14
502.84	24211.09
503.04	24016.53
503.25	24391.31
503.45	24221.33
503.66	24438.41
503.86	24632.97
504.07	24913.54
504.27	24448.65
504.48	24772.23
504.68	24819.33
504.89	24886.92
505.09	25134.72
505.30	24821.38
505.50	24925.83
505.71	24817.29
505.91	25370.24
506.12	25077.38
506.32	24929.92
506.53	25001.60
506.73	25013.89
506.94	25495.16
507.14	25302.65
507.35	25581.18
507.55	25570.94
507.76	25366.14
507.96	25812.60
508.17	25599.61
508.37	25550.46
508.58	25863.80
508.78	25857.65
508.99	25953.91
509.19	26240.62
509.40	25890.42
509.60	25990.77
509.81	26377.84
510.01	25927.28
510.22	26263.15
510.42	26297.97
510.63	26277.49
510.83	26044.02
511.04	26383.98
511.24	26482.28
511.44	26707.56
511.65	26480.24
511.85	26302.06
512.06	26525.29
512.26	26736.23
512.47	26728.04
512.67	26664.55
512.88	26588.78
513.08	26496.62
513.29	26826.34
513.49	26842.73
513.69	27022.95
513.90	26793.58
514.10	26941.03
514.31	26793.58
514.51	26912.36
514.72	26994.28
514.92	26953.32
515.13	27270.75
515.33	27266.66
515.53	27450.97
515.74	27446.88
515.94	27334.24
516.15	27313.76
516.35	27340.38
516.56	27563.61
516.76	27510.36
516.96	27641.43
517.17	27813.46
517.37	27795.03
517.58	27571.80
517.78	28022.36
517.99	27623.00
518.19	27905.62
518.39	27942.49
518.60	28143.19
518.80	27909.72
519.01	28051.03
519.21	28212.82
519.41	28165.71
519.62	27881.05
519.82	28284.50
520.03	28399.18
520.23	28851.78
520.43	28370.51
520.64	29099.59
520.84	28968.52
521.05	28722.76
521.25	28853.83
521.45	28866.12
521.66	28769.86
521.86	28675.66
522.07	28941.89
522.27	28880.46
522.47	28950.09
522.68	29460.03
522.88	29371.97
523.08	29613.63
523.29	29574.72
523.49	29773.37
523.70	29603.39
523.90	29810.23
524.10	29677.12
524.31	30223.92
524.51	29961.78
524.71	30520.88
524.92	29855.29
525.12	30342.70
525.33	30398.00
525.53	30834.22
525.73	30737.96
525.94	30287.41
526.14	30303.79
526.34	30514.73
526.55	30735.92
526.75	30629.42
526.95	31120.93
527.16	30850.60
527.36	31221.28
527.56	31149.60
527.77	31462.94
527.97	31149.60
528.17	31546.91
528.38	31704.60
528.58	31606.30
528.78	31886.87
528.99	31745.56
529.19	31807.00
529.39	31778.33
529.60	32140.82
529.80	32144.92
530.00	32318.99
530.21	32452.11
530.41	32386.58
530.61	32486.93
530.82	32327.19
531.02	32753.16
531.22	32622.09
531.43	32818.70
531.63	33039.88
531.83	33183.24
532.04	33691.13
532.24	33515.01
532.44	33684.99
532.64	33678.85
532.85	33869.31
533.05	33789.44
533.25	33523.20
533.46	33900.03
533.66	34000.38
533.86	34307.57
534.07	34608.62
534.27	34006.52
534.47	34600.43
534.67	34469.36
534.88	34688.49
535.08	34276.85
535.28	34637.30
535.49	34678.25
535.69	35333.60
535.89	35335.65
536.09	35483.11
536.30	35325.41
536.50	35857.88
536.70	35724.77
536.91	35661.28
537.11	36197.85
537.31	35991.00
537.51	36054.49
537.72	36255.19
537.92	36027.87
538.12	36312.53
538.32	36259.29
538.53	36906.44
538.73	36490.71
538.93	36625.87
539.13	36711.89
539.34	36511.19
539.54	36804.05
539.74	37037.51
539.94	37182.92
540.15	36928.97
540.35	37113.29
540.55	37201.35
540.75	37498.31
540.96	37914.05
541.16	37676.48
541.36	37643.71
541.56	37658.05
541.77	37807.55
541.97	37727.68
542.17	37977.53
542.37	38223.29
542.58	38483.38
542.78	38051.26
542.98	38221.24
543.18	38327.74
543.38	38946.22
543.59	39095.72
543.79	38372.79
543.99	38766.00
544.19	39007.66
544.40	39005.61
544.60	38843.82
544.80	38993.32
545.00	38835.63
545.20	38985.13
545.41	39538.08
545.61	39490.98
545.81	39452.07
546.01	39589.28
546.21	39400.87
546.42	39548.32
546.62	39820.70
546.82	39558.56
547.02	39589.28
547.22	39787.94
547.43	39826.85
547.63	39986.59
547.83	40125.85
548.03	40052.12
548.23	40179.10
548.44	40097.18
548.64	40340.89
548.84	40056.22
549.04	40269.21
549.24	40562.07
549.45	40910.22
549.65	40469.91
549.85	40555.93
550.05	40746.39
550.25	40807.83
550.45	41006.48
550.66	40930.70
550.86	40682.90
551.06	41606.53
551.26	41121.16
551.46	41313.67
551.66	40908.18
551.87	40592.79
552.07	41166.22
552.27	41217.42
552.47	41184.65
552.67	41565.57
552.87	41495.94
553.07	41477.51
553.28	41450.89
553.48	41823.62
553.68	41471.37
553.88	41981.31
554.08	41774.47
554.28	41641.35
554.48	41837.95
554.69	41743.75
554.89	41926.02
555.09	41950.59
555.29	41645.44
555.49	42179.96
555.69	42055.04
555.89	41715.08
556.10	41899.39
556.30	41825.67
556.50	41969.02
556.70	41717.12
556.90	42225.02
557.10	42360.19
557.30	41948.54
557.50	42194.30
557.70	42610.04
557.91	42689.91
558.11	42147.20
558.31	42685.81
558.51	42456.44
558.71	42456.44
558.91	42720.63
559.11	42358.14
559.31	42366.33
559.51	42374.52
559.72	42460.54
559.92	42569.08
560.12	42114.43
560.32	42577.27
560.52	42419.58
560.72	42497.40
560.92	42585.46
561.12	42737.01
561.32	43095.41
561.52	42704.24
561.72	42841.46
561.93	42689.91
562.13	42874.23
562.33	42505.59
562.53	43173.23
562.73	42737.01
562.93	42841.46
563.13	42974.58
563.33	43013.49
563.53	43281.77
563.73	42651.00
563.93	42767.73
564.13	43201.90
564.33	43152.75
564.53	42823.03
564.74	42995.06
564.94	43023.73
565.14	43275.63
565.34	42939.76
565.54	43091.31
565.74	43054.45
565.94	43351.40
566.14	42919.28
566.34	42925.42
566.54	43599.21
566.74	42956.14
566.94	43292.01
567.14	43505.00
567.34	43169.13
567.54	43515.24
567.74	43304.30
567.94	42943.86
568.14	43433.32
568.34	43244.91
568.54	43769.19
568.74	43367.79
568.94	43642.21
569.14	43853.15
569.34	43554.15
569.54	43873.63
569.75	43451.75
569.95	43740.52
570.15	44148.06
570.35	43795.81
570.55	43670.89
570.75	43855.20
570.95	44084.58
571.15	44016.99
571.35	43910.50
571.55	44227.93
571.75	44025.18
571.95	44066.14
572.15	44240.22
572.35	44076.38
572.55	43842.92
572.75	44268.89
572.95	44258.65
573.15	44103.01
573.35	44117.34
573.55	44209.50
573.75	44522.84
573.95	44350.81
574.15	44184.93
574.35	44316.00
574.55	44522.84
574.75	44131.68
574.95	44602.71
575.15	44033.38
575.34	44762.45
575.54	44674.39
575.74	45100.37
575.94	44725.59
576.14	44676.44
576.34	45182.29
576.54	45323.60
576.74	45231.44
576.94	44641.62
577.14	45106.51
577.34	45282.64
577.54	45204.81
577.74	45393.23
577.94	45124.94
578.14	45378.89
578.34	45540.68
578.54	44612.95
578.74	44969.30
578.94	45794.63
579.14	45417.80
579.34	45436.23
579.54	45727.05
579.74	45839.68
579.94	45991.23
580.13	46257.47
580.33	45745.48
580.53	45970.75
580.73	46011.71
580.93	46308.67
581.13	46419.26
581.33	46658.87
581.53	46478.65
581.73	46150.98
581.93	46454.08
582.13	46679.35
582.33	46462.27
582.53	46413.12
582.73	46728.50
582.92	46505.27
583.12	46802.23
583.32	47086.90
583.52	46861.62
583.72	46908.72
583.92	46781.75
584.12	47166.77
584.32	47539.50
584.52	47611.18
584.72	47041.84
584.92	47043.89
585.11	47908.13
585.31	47684.90
585.51	47428.91
585.71	47404.33
585.91	47592.75
586.11	47537.45
586.31	47422.76
586.51	47562.03
586.71	48106.79
586.91	48209.18
587.10	48043.30
587.30	48250.14
587.50	48534.81
587.70	48131.36
587.90	48229.66
588.10	48559.39
588.30	48276.77
588.50	48651.55
588.69	48334.11
588.89	48467.23
589.09	48461.08
589.29	48502.04
589.49	49071.38
589.69	48473.37
589.89	49138.96
590.08	49032.47
590.28	48747.80
590.48	49333.52
590.68	48878.87
590.88	48682.27
591.08	48891.16
591.28	48710.94
591.47	49681.67
591.67	48971.03
591.87	49528.08
592.07	49349.90
592.27	49235.22
592.47	49450.25
592.67	49843.46
592.86	49437.97
593.06	50031.88
593.26	49890.57
593.46	49831.18
593.66	49704.20
593.86	50521.34
594.05	49806.60
594.25	50447.61
594.45	49923.33
594.65	49890.57
594.85	49956.10
595.05	50545.92
595.24	50459.90
595.44	50365.70
595.64	50361.60
595.84	50554.11
596.04	50476.29
596.23	50676.99
596.43	51002.61
596.63	50935.03
596.83	51225.84
597.03	51328.24
597.22	51213.55
597.42	51266.80
597.62	51365.10
597.82	51412.21
598.02	51387.63
598.21	51557.61
598.41	51090.68
598.61	51346.67
598.81	51711.21
599.01	52112.61
599.20	51463.41
599.40	51639.53
599.60	52163.81
599.80	52239.59
600.00	51975.40
600.19	52337.89
600.39	52147.43
600.59	52026.60
600.79	52501.73
600.98	52065.51
601.18	52479.20
601.38	52085.99
601.58	52600.03
601.78	52649.18
601.97	52995.29
602.17	53007.58
602.37	52935.90
602.57	52679.90
602.76	52948.18
602.96	52473.06
603.16	52794.59
603.36	52774.11
603.55	53365.97
603.75	52976.86
603.95	53050.58
604.15	53525.71
604.34	53316.82
604.54	53359.83
604.74	53191.89
604.94	53443.79
605.13	53439.70
605.33	53419.22
605.53	53279.96
605.73	53804.24
605.92	53578.96
606.12	53970.12
606.32	54142.15
606.52	53769.42
606.71	54041.80
606.91	54080.71
607.11	53925.07
607.30	54551.74
607.50	54383.81
607.70	54203.59
607.90	53900.49
608.09	54228.16
608.29	54342.85
608.49	54693.05
608.68	54179.01
608.88	54379.71
609.08	54473.92
609.28	54486.21
609.47	54236.36
609.67	54543.55
609.87	54351.04
610.06	55002.30
610.26	54944.95
610.46	54492.35
610.66	54242.50
610.85	54697.15
611.05	54404.29
611.25	55061.69
611.44	54875.32
611.64	55190.71
611.84	54731.96
612.03	54535.36
612.23	55289.01
612.43	54600.89
612.62	54342.85
612.82	54760.64
613.02	55080.12
613.21	54801.60
613.41	54392.00
613.61	55125.17
613.80	54602.94
614.00	55104.70
614.20	54785.21
614.39	54666.43
614.59	54756.54
614.79	54926.52
614.98	54678.72
615.18	55047.35
615.38	55006.39
615.57	54713.53
615.77	54998.20
615.97	55264.44
616.16	54922.43
616.36	54498.50
616.56	54785.21
616.75	55293.11
616.95	54596.80
617.15	55055.54
617.34	54953.15
617.54	55010.49
617.74	55153.85
617.93	55000.25
618.13	54754.49
618.32	54758.59
618.52	54770.88
618.72	54555.84
618.91	54609.09
619.11	54389.95
619.31	54674.62
619.50	54879.42
619.70	54207.68
619.90	54586.56
620.09	54666.43
620.29	54191.30
620.48	54185.16
620.68	54975.67
620.88	54557.89
621.07	54762.68
621.27	54533.31
621.46	54394.05
621.66	54762.68
621.86	54193.35
622.05	54211.78
622.25	55358.64
622.44	53916.87
622.64	53937.35
622.84	54080.71
623.03	53865.67
623.23	54453.44
623.42	54160.58
623.62	54611.13
623.82	54441.15
624.01	54269.12
624.21	54439.11
624.40	54363.33
624.60	54115.53
624.80	54457.54
624.99	54324.42
625.19	54060.23
625.38	54334.66
625.58	54131.91
625.77	54365.38
625.97	53976.26
626.17	53789.90
626.36	54017.22
626.56	53988.55
626.75	53621.97
626.95	54305.99
627.14	53888.20
627.34	54473.92
627.54	53732.56
627.73	54285.51
627.93	54396.10
628.12	53558.48
628.32	53947.59
628.51	54310.08
628.71	54023.37
628.90	53646.54
629.10	54121.67
629.30	53458.13
629.49	53994.70
629.69	54047.94
629.88	54109.38
630.08	54299.84
630.27	54166.73
630.47	54013.13
630.66	53728.46
630.86	54305.99
631.05	53615.82
631.25	54107.33
631.44	54097.09
631.64	53806.28
631.84	53849.29
632.03	54322.37
632.23	53949.64
632.42	53732.56
632.62	53935.30
632.81	53507.28
633.01	53669.07
633.20	54140.10
633.40	54088.90
633.59	53769.42
633.79	53505.23
633.98	53791.95
634.18	53968.07
634.37	53834.95
634.57	53554.38
634.76	54031.56
634.96	54047.94
635.15	54117.57
635.35	53683.40
635.54	53626.06
635.74	54203.59
635.93	53806.28
636.13	54031.56
636.32	54072.52
636.52	53155.03
636.71	53429.46
636.91	54125.77
637.10	53834.95
637.30	53777.61
637.49	54115.53
637.69	53697.74
637.88	54158.53
638.08	53662.93
638.27	53646.54
638.46	53601.49
638.66	53593.29
638.85	53474.51
639.05	54062.28
639.24	53961.93
639.44	53533.90
639.63	53822.67
639.83	53998.79
640.02	53925.07
640.22	53886.15
640.41	54009.03
640.61	53476.56
640.80	53863.63
640.99	54047.94
641.19	54496.45
641.38	53763.28
641.58	53857.48
641.77	53834.95
641.97	53470.42
642.16	53974.22
642.36	54113.48
642.55	54658.24
642.74	53755.08
642.94	54412.48
643.13	53673.16
643.33	54215.88
643.52	53933.26
643.72	54467.78
643.91	54074.57
644.10	54428.87
644.30	53920.97
644.49	54246.60
644.69	54633.66
644.88	54068.42
645.08	54193.35
645.27	54637.76
645.46	54289.60
645.66	54738.11
645.85	54015.18
646.05	54486.21
646.24	54500.54
646.43	54283.46
646.63	54588.61
646.82	54570.18
647.02	54363.33
647.21	54809.79
647.40	54494.40
647.60	55147.70
647.79	54750.40
647.99	54738.11
648.18	54461.63
648.37	55352.50
648.57	54695.10
648.76	54891.71
648.96	54676.67
649.15	55026.87
649.34	54883.51
649.54	54709.44
649.73	54740.16
649.92	54686.91
650.12	54842.56
650.31	54891.71
650.51	55139.51
650.70	55481.52
650.89	55051.45
651.09	55583.92
651.28	55311.54
651.47	55430.32
651.67	54895.80
651.86	55708.85
652.06	54695.10
652.25	55235.77
652.44	55000.25
652.64	55106.74
652.83	55137.46
653.02	55262.39
653.22	55280.82
653.41	55162.04
653.60	54942.91
653.80	55178.42
653.99	55456.95
654.18	54740.16
654.38	55305.40
654.57	55424.18
654.76	55375.03
654.96	55497.91
655.15	55364.79
655.34	55534.77
655.54	55334.07
655.73	55788.72
655.92	55502.00
656.12	55846.06
656.31	55758.00
656.50	55579.82
656.70	55862.44
656.89	55549.10
657.08	55841.96
657.28	55790.76
657.47	55934.12
657.66	55803.05
657.86	55502.00
658.05	55706.80
658.24	56030.38
658.43	56034.47
658.63	55645.36
658.82	55723.18
659.01	56274.09
659.21	56523.94
659.40	55809.20
659.59	55921.83
659.79	56206.50
659.98	56124.58
660.17	56300.71
660.36	56165.54
660.56	56149.16
660.75	56269.99
660.94	56523.94
661.14	56650.91
661.33	56112.30
661.52	55983.27
661.71	56609.95
661.91	56245.41
662.10	55958.70
662.29	56560.80
662.49	56669.34
662.68	56439.97
662.87	56292.52
663.06	56323.24
663.26	56143.02
663.45	56683.68
663.64	56661.15
663.83	57130.14
664.03	56634.53
664.22	56622.24
664.41	56603.81
664.60	56513.70
664.80	56548.51
664.99	56911.00
665.18	56818.84
665.37	56872.09
665.57	57177.24
665.76	56882.33
665.95	56992.92
666.14	56900.76
666.34	56708.25
666.53	56427.68
666.72	56679.58
666.91	56726.69
667.11	56601.76
667.30	56886.43
667.49	56693.92
667.68	56831.13
667.87	56269.99
668.07	57242.77
668.26	56874.14
668.45	56427.68
668.64	56704.16
668.84	57623.70
669.03	56927.39
669.22	56956.06
669.41	56874.14
669.60	57080.98
669.80	57140.38
669.99	57152.66
670.18	57121.94
670.37	57001.11
670.57	57418.90
670.76	57150.62
670.95	57373.84
671.14	56923.29
671.33	56820.89
671.53	57635.98
671.72	57564.31
671.91	57138.33
672.10	57222.29
672.29	57314.45
672.48	56915.10
672.68	57537.68
672.87	57033.88
673.06	57171.10
673.25	56949.92
673.44	57027.74
673.64	56992.92
673.83	56947.87
674.02	56548.51
674.21	56743.07
674.40	57310.36
674.59	56960.15
674.79	56880.28
674.98	56767.65
675.17	57291.93
675.36	57042.07
675.55	57308.31
675.74	56738.97
675.94	56868.00
676.13	57128.09
676.32	57533.59
676.51	57740.43
676.70	57179.29
676.89	57136.28
677.08	57169.05
677.28	56530.08
677.47	57480.34
677.66	57502.87
677.85	56935.58
678.04	57611.41
678.23	57701.52
678.42	57834.64
678.62	56898.72
678.81	57779.34
679.00	57042.07
679.19	57564.31
679.38	57332.89
679.57	56808.61
679.76	57148.57
679.96	57691.28
680.15	56894.62
680.34	56931.48
680.53	57087.13
680.72	57048.22
680.91	57382.04
681.10	56515.75
681.29	57554.07
681.48	56888.48
681.68	56939.68
681.87	56870.04
682.06	56784.03
682.25	56849.56
682.44	56329.38
682.63	56894.62
682.82	56698.01
683.01	56448.16
683.20	56114.34
683.39	56485.03
683.59	56532.13
683.78	56239.27
683.97	56515.75
684.16	56751.26
684.35	56566.94
684.54	56546.47
684.73	56640.67
684.92	56575.14
685.11	56130.73
685.30	56579.23
685.49	56659.10
685.69	56480.93
685.88	56399.01
686.07	56366.24
686.26	56384.68
686.45	56093.86
686.64	56401.06
686.83	56571.04
687.02	56456.35
687.21	56597.66
687.40	56642.72
687.59	56536.23
687.78	56476.83
687.97	56423.59
688.16	56405.16
688.35	55915.69
688.54	55831.72
688.74	56415.40
688.93	56235.17
689.12	55911.59
689.31	55907.50
689.50	56335.52
689.69	55860.40
689.88	55542.96
690.07	56061.10
690.26	55637.17
690.45	56222.89
690.64	55862.44
690.83	55645.36
691.02	55612.59
691.21	55835.82
691.40	55295.16
691.59	55651.50
691.78	55915.69
691.97	56147.11
692.16	55725.23
692.35	55479.47
692.54	55841.96
692.73	55387.31
692.92	55825.58
693.11	55714.99
693.30	55919.79
693.49	55776.43
693.68	55139.51
693.87	55157.94
694.06	55076.02
694.25	54793.40
694.44	54768.83
694.63	55221.43
694.82	55334.07
695.01	54811.84
695.20	54729.92
695.39	55219.38
695.58	54652.09
695.77	54305.99
695.96	54975.67
696.15	55061.69
696.34	54191.30
696.53	55211.19
696.72	54871.23
696.91	54809.79
697.10	55114.94
697.29	54545.60
697.48	54990.01
697.67	54344.90
697.86	54170.82
698.05	54138.05
698.24	54152.39
698.43	54322.37
698.62	54334.66
698.81	54115.53
699.00	54310.08
699.19	53998.79
699.38	54072.52
699.57	53546.19
699.76	54617.28
699.95	54236.36
700.14	53859.53
700.32	53931.21
700.51	53595.34
700.70	54277.32
700.89	53998.79
701.08	53910.73
701.27	53269.72
701.46	54279.36
701.65	53449.94
701.84	53613.77
702.03	53615.82
702.22	53222.61
702.41	53429.46
702.60	53714.12
702.79	53351.63
702.98	53204.18
703.17	53222.61
703.35	53599.44
703.54	53064.92
703.73	53107.93
703.92	53136.60
704.11	52815.07
704.30	52978.90
704.49	53034.20
704.68	52720.86
704.87	52651.23
705.06	52501.73
705.25	52741.34
705.43	52630.75
705.62	53329.11
705.81	52405.47
706.00	52761.82
706.19	52471.01
706.38	52661.47
706.57	52473.06
706.76	51832.04
706.95	52675.80
707.14	51997.93
707.32	52237.54
707.51	51889.38
707.70	52245.73
707.89	52116.71
708.08	52036.84
708.27	52085.99
708.46	52423.90
708.65	51979.49
708.84	52270.31
709.02	52198.63
709.21	51942.63
709.40	51774.70
709.59	51672.30
709.78	51621.10
709.97	51799.27
710.16	51868.90
710.34	51533.04
710.53	51471.60
710.72	51238.13
710.91	51614.96
711.10	51774.70
711.29	51389.68
711.48	51547.37
711.66	51262.71
711.85	51059.96
712.04	51211.51
712.23	51291.38
712.42	51539.18
712.61	51393.78
712.80	50957.56
712.98	51074.29
713.17	51064.05
713.36	50810.10
713.55	51078.39
713.74	50945.27
713.93	51109.11
714.11	50926.84
714.30	50808.06
714.49	50566.40
714.68	50932.98
714.87	50873.59
715.06	50996.47
715.24	50302.21
715.43	50504.96
715.62	50154.75
715.81	50353.41
716.00	50607.36
716.18	50296.06
716.37	50451.71
716.56	50119.94
716.75	50541.82
716.94	50369.79
717.12	49603.85
717.31	50453.76
717.50	50085.12
717.69	50175.23
717.88	49650.95
718.06	49988.87
718.25	49923.33
718.44	49669.39
718.63	50029.83
718.82	49632.52
719.00	49577.23
719.19	49456.40
719.38	49528.08
719.57	49040.66
719.76	48973.08
719.94	49190.16
720.13	48778.52
720.32	49145.11
720.51	49448.21
720.69	48805.14
720.88	48975.12
721.07	48684.31
721.26	48616.73
721.44	48786.71
721.63	48755.99
721.82	48387.36
722.01	48559.39
722.20	48649.50
722.38	48108.83
722.57	48366.88
722.76	48231.71
722.95	48678.17
723.13	47932.71
723.32	48137.51
723.51	47965.48
723.70	48114.98
723.88	48309.53
724.07	48069.92
724.26	48219.42
724.44	47439.15
724.63	47863.08
724.82	47869.22
725.01	48037.16
725.19	47748.39
725.38	47271.21
725.57	47670.57
725.76	47666.47
725.94	47277.36
726.13	47658.28
726.32	47215.92
726.51	47273.26
726.69	47916.32
726.88	47512.88
727.07	47119.66
727.25	47301.93
727.44	47080.75
727.63	46978.36
727.82	47621.42
728.00	47379.76
728.19	47211.82
728.38	47510.83
728.56	47066.42
728.75	47457.58
728.94	47025.46
729.12	47420.72
729.31	47707.43
729.50	47246.64
729.69	47453.48
729.87	47371.57
730.06	47367.47
730.25	46906.68
730.43	47271.21
730.62	47150.38
730.81	47361.33
730.99	46966.07
731.18	46914.87
731.37	47224.11
731.55	47623.47
731.74	48000.29
731.93	47121.71
732.11	47373.61
732.30	47654.18
732.49	46961.97
732.67	47521.07
732.86	46740.79
733.05	47306.03
733.23	47074.61
733.42	47076.66
733.61	47080.75
733.79	46953.78
733.98	47406.38
734.17	47220.02
734.35	47707.43
734.54	47097.14
734.73	47439.15
734.91	47346.99
735.10	46652.73
735.29	47127.86
735.47	46630.20
735.66	47281.45
735.84	47355.18
736.03	46894.39
736.22	47332.65
736.40	46564.67
736.59	47226.16
736.78	46988.60
736.96	46970.16
737.15	46964.02
737.33	46957.88
737.52	46554.43
737.71	46667.06
737.89	46646.58
738.08	46376.25
738.27	46759.22
738.45	47121.71
738.64	46927.16
738.82	46579.00
739.01	46681.40
739.20	46904.63
739.38	46873.91
739.57	46875.96
739.75	46904.63
739.94	46277.95
740.13	46595.38
740.31	46808.37
740.50	46566.71
740.68	46583.10
740.87	46552.38
741.06	46867.76
741.24	46959.92
741.43	46390.59
741.61	46699.83
741.80	46482.75
741.99	46447.93
742.17	46148.93
742.36	46275.90
742.54	46273.85
742.73	46284.09
742.91	46320.96
743.10	46314.81
743.29	46716.22
743.47	46628.15
743.66	46134.59
743.84	46392.64
744.03	46363.96
744.21	45829.44
744.40	46503.23
744.59	46210.37
744.77	45983.04
744.96	46099.78
745.14	45905.22
745.33	46443.84
745.51	46269.76
745.70	46259.52
745.88	46136.64
746.07	46595.38
746.26	45980.99
746.44	45917.51
746.63	46067.01
746.81	46112.06
747.00	46085.44
747.18	46224.70
747.37	45962.56
747.55	45909.32
747.74	46134.59
747.92	45698.37
748.11	45948.23
748.29	45804.87
748.48	45940.04
748.66	45694.28
748.85	46075.20
749.03	45817.16
749.22	46050.63
749.41	45505.87
749.59	45450.57
749.78	45376.84
749.96	45075.79
750.15	45262.16
750.33	45260.11
750.52	46001.47
750.70	45450.57
750.89	45485.39
751.07	45438.28
751.26	45970.75
751.44	45137.23
751.63	45618.50
751.81	44899.67
752.00	45143.38
752.18	45405.52
752.37	45239.63
752.55	45038.93
752.74	45073.74
752.92	45061.46
753.10	44926.29
753.29	45245.77
753.47	45184.33
753.66	44838.23
753.84	45385.04
754.03	45215.05
754.21	45026.64
754.40	45280.59
754.58	45065.55
754.77	44885.33
754.95	44725.59
755.14	44897.62
755.32	44666.20
755.51	44920.15
755.69	44488.03
755.88	44856.66
756.06	45172.05
756.24	44604.76
756.43	44563.80
756.61	44701.01
756.80	44533.08
756.98	44604.76
757.17	44653.91
757.35	44873.04
757.54	44559.70
757.72	44705.11
757.90	44270.94
758.09	44215.65
758.27	44750.17
758.46	44215.65
758.64	44232.03
758.83	44709.21
759.01	44402.01
759.19	44053.86
759.38	44559.70
759.56	44612.95
759.75	44279.13
759.93	44639.57
760.12	44131.68
760.30	44703.06
760.48	44361.05
760.67	44006.75
760.85	43847.01
761.04	44195.17
761.22	44547.42
761.40	44060.00
761.59	44029.28
761.77	43910.50
761.96	43838.82
762.14	43867.49
762.32	43693.41
762.51	43775.33
762.69	43332.97
762.88	43930.98
763.06	44354.91
763.24	43865.44
763.43	43767.14
763.61	43654.50
763.80	43826.53
763.98	43533.67
764.16	43416.94
764.35	43468.14
764.53	43271.53
764.72	43328.87
764.90	43593.06
765.08	43337.07
765.27	43220.33
765.45	42956.14
765.63	42853.75
765.82	43582.82
766.00	42849.65
766.18	43177.33
766.37	43603.30
766.55	43081.07
766.74	43066.73
766.92	42775.92
767.10	43138.41
767.29	43074.93
767.47	42569.08
767.65	42792.31
767.84	42161.53
768.02	42945.90
768.20	42540.41
768.39	42562.93
768.57	42786.16
768.75	42726.77
768.94	42866.03
769.12	42837.36
769.30	42491.26
769.49	42308.99
769.67	42665.33
769.85	41997.70
770.04	42556.79
770.22	42524.02
770.40	41919.87
770.59	42206.59
770.77	42583.41
770.95	42458.49
771.14	41651.59
771.32	41981.31
771.50	41641.35
771.69	41631.11
771.87	42210.68
772.05	41923.97
772.24	41375.11
772.42	41692.55
772.60	41655.68
772.78	41311.63
772.97	41481.61
773.15	41786.75
773.33	41207.18
773.52	41317.77
773.70	41430.41
773.88	41702.79
774.07	41399.69
774.25	41631.11
774.43	41440.65
774.61	41692.55
774.80	41956.74
774.98	40994.19
775.16	41301.39
775.34	41772.42
775.53	41665.92
775.71	41919.87
775.89	41217.42
776.08	41684.36
776.26	41643.40
776.44	41860.48
776.62	41756.03
776.81	41375.11
776.99	41862.53
777.17	41827.71
777.35	41674.12
777.54	42225.02
777.72	41686.40
777.90	41766.27
778.08	41825.67
778.27	41817.47
778.45	41885.06
778.63	42194.30
778.81	41715.08
779.00	41964.93
779.18	42128.77
779.36	42128.77
779.54	42227.07
779.73	41850.24
779.91	42472.82
780.09	42057.09
780.27	42315.13
780.46	42003.84
780.64	42333.56
780.82	42380.67
781.00	42472.82
781.19	42431.86
781.37	42333.56
781.55	42401.14
781.73	42319.23
781.91	42302.84
782.10	42532.22
782.28	41954.69
782.46	42526.07
782.64	42749.30
782.82	42063.23
783.01	42427.77
783.19	42562.93
783.37	42345.85
783.55	42548.60
783.74	42952.05
783.92	41923.97
784.10	42890.61
784.28	42331.51
784.46	42468.73
784.64	42038.65
784.83	42481.02
785.01	42308.99
785.19	42452.34
785.37	42485.11
785.55	42536.31
785.74	41743.75
785.92	41852.29
786.10	41940.35
786.28	42321.27
786.46	42089.85
786.64	41874.82
786.83	41799.04
787.01	42409.34
787.19	42192.25
787.37	41856.39
787.55	41799.04
787.74	41715.08
787.92	41653.64
788.10	41600.39
788.28	41678.21
788.46	41678.21
788.64	41082.25
788.82	41786.75
789.01	41883.01
789.19	41639.30
789.37	41444.74
789.55	41805.19
789.73	41219.47
789.91	41500.04
790.09	41358.73
790.28	40736.15
790.46	40770.96
790.64	41258.38
790.82	40967.57
791.00	41084.30
791.18	40396.18
791.36	40547.73
791.55	40932.75
791.73	40883.60
791.91	40320.41
792.09	40121.76
792.27	39867.81
792.45	40379.80
792.63	40373.66
792.81	40158.62
793.00	39959.97
793.18	39761.31
793.36	39853.47
793.54	39554.47
793.72	39179.69
793.90	39521.70
794.08	39372.20
794.26	39304.62
794.44	39110.06
794.62	38964.65
794.81	38978.99
794.99	39196.07
795.17	39312.81
795.35	38620.59
795.53	39179.69
795.71	38950.32
795.89	38622.64
796.07	38596.02
796.25	38079.93
796.43	38337.98
796.61	37959.10
796.80	38055.36
796.98	38340.02
797.16	37858.75
797.34	38221.24
797.52	37539.27
797.70	37834.17
797.88	37858.75
798.06	37658.05
798.24	37529.03
798.42	37453.25
798.60	37557.70
798.78	37295.56
798.96	37123.53
799.14	37154.25
799.32	37223.88
799.51	37041.61
799.69	37103.05
799.87	36861.39
800.05	36718.03
800.23	36486.61
800.41	36462.04
800.59	36511.19
800.77	36253.14
800.95	36179.42
801.13	36484.56
801.31	36083.16
801.49	36111.83
801.67	35810.78
801.85	35997.15
802.03	35505.63
802.21	35468.77
802.39	35612.13
802.57	35687.90
802.75	35456.48
802.93	35493.35
803.11	35286.50
803.29	34846.19
803.47	34934.25
803.65	35141.10
803.83	34840.04
804.01	34801.13
804.19	34029.05
804.37	34819.56
804.55	34645.49
804.73	34385.40
804.91	34588.14
805.09	34655.73
805.27	34061.82
805.45	34641.39
805.63	34160.12
805.81	34027.00
805.99	34276.85
806.17	34117.11
806.35	33975.80
806.53	33644.03
806.71	33787.39
806.89	33777.15
807.07	33525.25
807.25	33678.85
807.43	33545.73
807.61	33527.30
807.79	33525.25
807.97	33078.79
808.15	32708.11
808.33	33115.65
808.51	32738.83
808.69	32566.80
808.87	32761.36
809.05	32437.78
809.23	32368.15
809.41	32253.46
809.59	32333.33
809.77	32503.31
809.95	32159.25
810.13	32472.59
810.31	31997.46
810.49	32452.11
810.67	32175.64
810.84	32335.38
811.02	31927.83
811.20	31831.58
811.38	31909.40
811.56	31479.33
811.74	31880.73
811.92	31372.83
812.10	31712.80
812.28	31516.19
812.46	31665.69
812.64	31594.01
812.82	31231.52
813.00	31405.60
813.18	31061.54
813.36	30944.81
813.53	31315.49
813.71	31211.04
813.89	31282.72
814.07	30877.22
814.25	31041.06
814.43	30776.87
814.61	30508.59
814.79	30479.92
814.97	30629.42
815.15	30481.97
815.33	30254.64
815.50	30191.16
815.68	29969.97
815.86	30303.79
816.04	29910.58
816.22	30127.67
816.40	29955.64
816.58	29990.45
816.76	29724.22
816.94	29935.16
817.11	29783.61
817.29	30101.04
817.47	29810.23
817.65	29853.24
817.83	29871.67
818.01	29095.49
818.19	29318.72
818.37	29767.23
818.54	29500.99
818.72	29154.88
818.90	29369.92
819.08	29261.38
819.26	29507.13
819.44	28962.37
819.62	29120.07
819.80	28763.72
819.97	28915.27
820.15	29021.77
820.33	28773.96
820.51	29079.11
820.69	28515.92
820.87	28388.94
821.05	28890.70
821.22	28563.02
821.40	28366.42
821.58	28386.89
821.76	28274.26
821.94	28642.89
822.12	28233.30
822.29	28356.18
822.47	28210.77
822.65	28505.68
822.83	28517.96
823.01	28048.98
823.19	28274.26
823.36	28059.22
823.54	27735.64
823.72	27709.02
823.90	27948.63
824.08	27840.09
824.25	27917.91
824.43	27731.54
824.61	27973.21
824.79	27819.61
824.97	27655.77
825.15	27354.72
825.32	27582.04
825.50	27287.14
825.68	27111.01
825.86	27592.28
826.04	27393.63
826.21	27211.36
826.39	27244.13
826.57	26975.84
826.75	27016.80
826.93	27143.78
827.10	27121.25
827.28	26981.99
827.46	27102.82
827.64	26916.45
827.81	26969.70
827.99	27242.08
828.17	26769.00
828.35	26713.70
828.53	26627.69
828.70	26775.14
828.88	26498.67
829.06	26857.06
829.24	26900.07
829.41	26558.06
829.59	26764.90
829.77	26562.15
829.95	26394.22
830.12	26625.64
830.30	26431.08
830.48	26588.78
830.66	26678.89
830.84	26459.76
831.01	26082.93
831.19	26238.58
831.37	26056.31
831.55	26060.40
831.72	26271.34
831.90	26011.25
832.08	25898.61
832.25	26005.11
832.43	26035.83
832.61	25605.75
832.79	25955.96
832.96	25579.13
833.14	26150.51
833.32	26138.23
833.50	25923.19
833.67	25642.62
833.85	25775.73
834.03	25439.87
834.20	25812.60
834.38	25751.16
834.56	25933.43
834.74	25282.17
834.91	25331.33
835.09	25290.37
835.27	25181.82
835.44	25237.12
835.62	24798.85
835.80	25108.10
835.98	25181.82
836.15	25101.95
836.33	25267.84
836.51	25470.59
836.68	25028.23
836.86	25147.01
837.04	25376.38
837.21	25255.55
837.39	24868.48
837.57	25405.05
837.75	25134.72
837.92	24923.78
838.10	24534.67
838.28	24841.86
838.45	24716.93
838.63	24768.13
838.81	24825.48
838.98	24739.46
839.16	24530.57
839.34	24450.70
839.51	24688.26
839.69	24065.68
839.87	24346.25
840.04	24364.68
840.22	24805.00
840.40	24632.97
840.57	24145.55
840.75	24581.77
840.93	24030.87
841.10	24489.61
841.28	24653.45
841.46	24151.70
841.63	24274.57
841.81	24370.83
841.98	23985.81
842.16	24125.07
842.34	24016.53
842.51	23946.90
842.69	24262.29
842.87	23963.28
843.04	24145.55
843.22	23946.90
843.40	23805.59
843.57	23731.86
843.75	23914.13
843.92	23910.04
844.10	23555.74
844.28	23787.16
844.45	24061.58
844.63	23873.17
844.81	23625.37
844.98	23750.29
845.16	23979.67
845.33	23858.84
845.51	23742.10
845.69	23404.19
845.86	23740.05
846.04	23260.83
846.21	23377.56
846.39	23471.77
846.57	23256.73
846.74	23244.45
846.92	23260.83
847.09	23215.77
847.27	23103.14
847.45	23639.70
847.62	23355.04
847.80	23373.47
847.97	23125.66
848.15	23189.15
848.32	23047.84
848.50	23226.01
848.68	22986.40
848.85	23322.27
849.03	22597.29
849.20	23166.62
849.38	23002.78
849.56	23045.79
849.73	22789.80
849.91	22830.76
850.08	23148.19
850.26	22554.28
850.43	22767.27
850.61	22701.73
850.78	22505.13
850.96	22890.15
851.14	22738.60
851.31	22869.67
851.49	22312.62
851.66	22562.47
851.84	22787.75
852.01	22744.74
852.19	22691.49
852.36	22632.10
852.54	22658.73
852.71	22142.64
852.89	22423.21
853.07	22593.19
853.24	22482.60
853.42	22615.72
853.59	22347.44
853.77	22249.13
853.94	22345.39
854.12	22658.73
854.29	21935.79
854.47	22355.63
854.64	22281.90
854.82	22058.67
854.99	22081.20
855.17	21794.48
855.34	22232.75
855.52	22445.74
855.69	22382.25
855.87	21978.80
856.04	21911.22
856.22	21749.43
856.39	21634.74
856.57	22073.01
856.74	21892.79
856.92	21870.26
857.09	21585.59
857.27	21860.02
857.44	21960.37
857.62	21710.52
857.79	22009.52
857.97	21690.04
858.14	21778.10
858.32	21687.99
858.49	21687.99
858.67	21728.95
858.84	21485.24
859.02	21847.73
859.19	21362.36
859.37	21243.58
859.54	21536.44
859.72	21622.45
859.89	21638.84
860.06	21679.80
860.24	21399.23
860.41	21634.74
860.59	21309.11
860.76	21640.89
860.94	21110.46
861.11	21395.13
861.29	21176.00
861.46	21532.34
861.64	20897.47
861.81	21380.79
861.98	21075.65
862.16	20842.18
862.33	20852.42
862.51	20993.73
862.68	21151.42
862.86	20807.36
863.03	21008.06
863.21	20743.88
863.38	20913.86
863.55	20733.64
863.73	20766.40
863.90	20956.86
864.08	20811.46
864.25	21016.26
864.43	20930.24
864.60	20727.49
864.77	20571.85
864.95	20571.85
865.12	20516.55
865.30	20756.16
865.47	20913.86
865.64	20854.47
865.82	20403.91
865.99	20588.23
866.17	20319.95
866.34	20756.16
866.51	20307.66
866.69	20569.80
866.86	20313.80
867.04	20506.31
867.21	20379.34
867.38	20506.31
867.56	20389.58
867.73	20410.06
867.91	20256.46
868.08	20367.05
868.25	20141.77
868.43	20162.25
868.60	19734.23
868.78	19865.30
868.95	20100.81
869.12	19810.00
869.30	19994.32
869.47	20139.72
869.64	19719.89
869.82	19973.84
869.99	19810.00
870.16	20006.61
870.34	19793.62
870.51	19820.24
870.69	19693.27
870.86	19857.10
871.03	19941.07
871.21	19787.47
871.38	19906.26
871.55	19424.98
871.73	19801.81
871.90	19588.82
872.07	19445.46
872.25	19345.11
872.42	19424.98
872.59	19576.53
872.77	19529.43
872.94	19451.61
873.11	19379.93
873.29	19527.38
873.46	19168.99
873.63	19367.64
873.81	19168.99
873.98	19119.84
874.15	19273.43
874.33	18980.57
874.50	18933.47
874.67	19068.64
874.85	19111.64
875.02	18908.90
875.19	18771.68
875.37	18816.74
875.54	18663.14
875.71	18745.06
875.88	18521.83
876.06	18904.80
876.23	18808.54
876.40	18613.99
876.58	18644.71
876.75	18357.99
876.92	18450.15
877.10	18646.76
877.27	18390.76
877.44	18181.87
877.61	18247.40
877.79	18288.36
877.96	18259.69
878.13	18310.89
878.31	18040.56
878.48	18077.42
878.65	18112.24
878.82	17843.95
879.00	18263.79
879.17	18013.93
879.34	18173.67
879.51	17673.97
879.69	18069.23
879.86	17770.22
880.03	17864.43
880.21	17811.18
880.38	17792.75
880.55	18005.74
880.72	17811.18
880.90	17854.19
881.07	17692.40
881.24	17876.72
881.41	18097.90
881.59	17723.12
881.76	17661.68
881.93	17483.51
882.10	17391.35
882.28	17727.22
882.45	17841.90
882.62	17635.06
882.79	17661.68
882.96	17366.78
883.14	17434.36
883.31	17753.84
883.48	17383.16
883.65	17503.99
883.83	17618.68
884.00	17430.26
884.17	17266.42
884.34	17510.13
884.51	17121.02
884.69	17395.45
884.86	17102.59
885.03	17256.18
885.20	16942.85
885.38	17270.52
885.55	17170.17
885.72	17225.47
885.89	17217.27
886.06	17393.40
886.24	17198.84
886.41	16787.20
886.58	17405.69
886.75	17460.98
886.92	17035.00
887.10	17215.23
887.27	16762.62
887.44	16897.79
887.61	17309.43
887.78	17032.96
887.95	17028.86
888.13	16979.71
888.30	16803.58
888.47	16770.82
888.64	16848.64
888.81	16535.30
888.99	16606.98
889.16	16383.75
889.33	16770.82
889.50	16590.59
889.67	16518.92
889.84	16264.97
890.01	16449.28
890.19	16344.84
890.36	16781.06
890.53	16398.09
890.70	16424.71
890.87	16353.03
891.04	16226.06
891.22	16328.45
891.39	16391.94
891.56	16213.77
891.73	16181.00
891.90	16318.22
892.07	16189.19
892.24	15951.63
892.42	16185.10
892.59	15941.39
892.76	16121.61
892.93	15922.96
893.10	16047.88
893.27	15927.05
893.44	15965.96
893.61	16047.88
893.79	15865.61
893.96	16148.23
894.13	16205.58
894.30	16064.27
894.47	15961.87
894.64	16230.15
894.81	15613.71
894.98	16051.98
895.15	15957.77
895.33	15957.77
895.50	15873.81
895.67	16078.60
895.84	16013.07
896.01	16037.64
896.18	15613.71
896.35	15841.04
896.52	15699.73
896.69	15515.41
896.86	15922.96
897.04	15798.03
897.21	15818.51
897.38	15871.76
897.55	15865.61
897.72	15929.10
897.89	15726.35
898.06	15832.85
898.23	15900.43
898.40	15873.81
898.57	15800.08
898.74	15814.41
898.91	15652.63
899.08	16023.31
899.26	15718.16
899.43	15691.54
899.60	15585.04
899.77	15744.78
899.94	15652.63
900.11	15476.50
900.28	15816.46
900.45	15669.01
900.62	15544.08
900.79	15935.24
900.96	15693.58
901.13	15601.43
901.30	15539.99
901.47	15429.40
901.64	15652.63
901.81	15701.78
901.98	15476.50
902.15	15779.60
902.32	15603.47
902.49	15474.45
902.66	15996.68
902.83	15679.25
903.01	15736.59
903.18	15742.74
903.35	15607.57
903.52	15505.17
903.69	15720.21
903.86	15746.83
904.03	15681.30
904.20	15853.33
904.37	15640.34
904.54	15894.29
904.71	15609.62
904.88	15793.94
905.05	15396.63
905.22	15441.68
905.39	15488.79
905.56	15591.19
905.73	15523.60
905.90	15486.74
906.07	15492.88
906.24	15429.40
906.41	15437.59
906.58	15644.43
906.75	15685.39
906.92	15413.01
907.09	15515.41
907.26	15587.09
907.43	15353.62
907.60	15374.10
907.77	15349.53
907.93	15519.51
908.10	15390.49
908.27	15666.96
908.44	15378.20
908.61	15232.79
908.78	15437.59
908.95	15443.73
909.12	15468.31
909.29	15163.16
909.46	15245.08
909.63	15400.72
909.80	15589.14
909.97	15353.62
910.14	15488.79
910.31	15105.82
910.48	15468.31
910.65	15255.32
910.82	15175.45
910.99	15206.17
911.16	15179.54
911.33	15042.33
911.50	15232.79
911.66	15011.61
911.83	15306.52
912.00	15062.81
912.17	14812.96
912.34	15036.19
912.51	14995.23
912.68	14909.21
912.85	15111.96
913.02	14821.15
913.19	14866.21
913.36	15091.48
913.53	14784.29
913.70	14774.05
913.86	15132.44
914.03	14929.69
914.20	14712.61
914.37	15034.14
914.54	14632.74
914.71	14798.62
914.88	14753.57
915.05	14761.76
915.22	14565.15
915.39	14569.25
915.55	14647.07
915.72	14661.41
915.89	14276.39
916.06	14223.14
916.23	14436.13
916.40	14206.76
916.57	14282.53
916.74	14118.70
916.91	14116.65
917.07	13924.14
917.24	14173.99
917.41	14065.45
917.58	14169.90
917.75	13975.34
917.92	13797.17
918.09	13981.48
918.26	13627.18
918.42	13983.53
918.59	13913.90
918.76	13872.94
918.93	13670.19
919.10	13842.22
919.27	13528.88
919.44	13569.84
919.60	13559.60
919.77	13518.64
919.94	13621.04
920.11	13463.35
920.28	13543.22
920.45	13639.47
920.61	13473.59
920.78	13596.46
920.95	13082.42
921.12	13027.13
921.29	13102.90
921.46	13041.46
921.62	13059.90
921.79	13082.42
921.96	13002.55
922.13	12994.36
922.30	12910.40
922.47	12848.96
922.63	13053.75
922.80	12812.09
922.97	12676.93
923.14	12601.15
923.31	12558.14
923.47	12613.44
923.64	12717.89
923.81	12441.41
923.98	12660.54
924.15	12248.90
924.32	12484.42
924.48	12513.09
924.65	12158.79
924.82	12242.76
924.99	12062.54
925.15	12080.97
925.32	12136.26
925.49	12095.30
925.66	11908.94
925.83	11917.13
925.99	11941.71
926.16	11827.02
926.33	11734.86
926.50	11568.98
926.67	11837.26
926.83	11730.76
927.00	11638.61
927.17	11415.38
927.34	11321.17
927.50	11407.19
927.67	11474.77
927.84	11310.93
928.01	11558.74
928.17	11317.08
928.34	11253.59
928.51	11118.42
928.68	11054.94
928.84	11200.34
929.01	10932.06
929.18	11001.69
929.35	10911.58
929.51	10983.26
929.68	10760.03
929.85	10778.46
930.02	10692.44
930.18	10819.42
930.35	10649.44
930.52	10569.57
930.69	10504.03
930.85	10563.42
931.02	10383.20
931.19	10547.04
931.36	10401.63
931.52	10415.97
931.69	10477.41
931.86	10262.37
932.02	10178.40
932.19	10129.25
932.36	10080.10
932.53	10088.29
932.69	9748.33
932.86	10207.08
933.03	10039.14
933.19	9856.87
933.36	9998.18
933.53	9930.60
933.70	9779.05
933.86	9731.95
934.03	9453.42
934.20	9408.37
934.36	9660.27
934.53	9463.66
934.70	9238.39
934.86	9205.62
935.03	9219.96
935.20	9111.41
935.36	9127.80
935.53	8849.27
935.70	9090.93
935.86	8937.34
936.03	8763.26
936.20	8712.06
936.36	8509.31
936.53	8679.29
936.70	8673.15
936.86	8669.05
937.03	8441.73
937.20	8222.59
937.36	8253.31
937.53	7982.98
937.70	8157.06
937.86	7907.21
938.03	7899.02
938.20	7950.21
938.36	7720.84
938.53	7534.48
938.70	7466.89
938.86	7653.26
939.03	7436.17
939.20	7260.05
939.36	7417.74
939.53	7034.77
939.70	7370.64
939.86	6803.35
940.03	6993.81
940.19	6870.94
940.36	6739.87
940.53	6811.54
940.69	6739.87
940.86	6733.72
941.03	6496.16
941.19	6545.31
941.36	6420.38
941.52	6496.16
941.69	6238.11
941.86	6307.74
942.02	6295.46
942.19	6209.44
942.35	6113.19
942.52	6186.91
942.69	5939.11
942.85	6041.51
943.02	5818.28
943.18	5812.14
943.35	5941.16
943.52	5869.48
943.68	5783.46
943.85	5781.42
944.01	5648.30
944.18	5760.94
944.35	5578.67
944.51	5590.95
944.68	5468.08
944.84	5576.62
945.01	5377.97
945.17	5449.64
945.34	5423.02
945.51	5502.89
945.67	5482.41
945.84	5486.51
946.00	5296.05
946.17	5273.52
946.33	5302.19
946.50	5404.59
946.67	5353.39
946.83	5328.81
947.00	5310.38
947.16	5271.47
947.33	5257.14
947.49	5271.47
947.66	5199.79
947.82	5361.58
947.99	5250.99
948.16	5220.27
948.32	5367.73
948.49	5414.83
948.65	5339.05
948.82	5310.38
948.98	5195.70
949.15	5300.14
949.31	5224.37
949.48	5156.79
949.64	5339.05
949.81	5337.01
949.97	5173.17
950.14	5478.32
950.30	5205.94
950.47	5351.34
950.63	5230.51
950.80	5480.36
950.96	5195.70
951.13	5236.66
951.30	5289.90
951.46	5285.81
951.63	5367.73
951.79	5263.28
951.96	5304.24
952.12	5414.83
952.29	5416.88
952.45	5150.64
952.62	5427.12
952.78	5359.53
952.94	5341.10
953.11	5412.78
953.27	5205.94
953.44	5355.44
953.60	5349.29
953.77	5304.24
953.93	5320.62
954.10	5355.44
954.26	5404.59
954.43	5203.89
954.59	5550.00
954.76	5558.19
954.92	5289.90
955.09	5371.82
955.25	5275.57
955.42	5410.73
955.58	5584.81
955.75	5504.94
955.91	5332.91
956.07	5449.64
956.24	5392.30
956.40	5287.86
956.57	5593.00
956.73	5418.93
956.90	5369.77
957.06	5388.21
957.23	5281.71
957.39	5322.67
957.56	5468.08
957.72	5439.40
957.88	5277.62
958.05	5392.30
958.21	5535.66
958.38	5414.83
958.54	5361.58
958.71	5466.03
958.87	5476.27
959.03	5400.49
959.20	5414.83
959.36	5294.00
959.53	5238.70
959.69	5306.29
959.85	5371.82
960.02	5250.99
960.18	5357.49
960.35	5302.19
960.51	5472.17
960.68	5349.29
960.84	5380.01
961.00	5418.93
961.17	5400.49
961.33	5550.00
961.50	5394.35
961.66	5373.87
961.82	5324.72
961.99	5451.69
962.15	5277.62
962.31	5398.45
962.48	5308.34
962.64	5396.40
962.81	5246.90
962.97	5384.11
963.13	5271.47
963.30	5400.49
963.46	5320.62
963.62	5205.94
963.79	5332.91
963.95	5261.23
964.12	5216.18
964.28	5361.58
964.44	5279.66
964.61	5296.05
964.77	5369.77
964.93	5371.82
965.10	5291.95
965.26	5238.70
965.42	5267.38
965.59	5355.44
965.75	5234.61
965.92	5201.84
966.08	5296.05
966.24	5228.46
966.41	5146.55
966.57	5236.66
966.73	5304.24
966.90	5275.57
967.06	5259.18
967.22	5187.50
967.39	5230.51
967.55	5081.01
967.71	5044.15
967.88	5107.63
968.04	4974.52
968.20	5105.59
968.37	5162.93
968.53	5013.43
968.69	5136.31
968.85	5152.69
969.02	5187.50
969.18	5201.84
969.34	5025.72
969.51	5064.63
969.67	5154.74
969.83	4904.89
970.00	5214.13
970.16	5015.48
970.32	5056.43
970.48	5066.67
970.65	5040.05
970.81	4974.52
970.97	5003.19
971.14	4810.68
971.30	4958.13
971.46	4771.77
971.63	4892.60
971.79	5007.28
971.95	4906.93
972.11	4782.01
972.28	4933.56
972.44	4919.22
972.60	4833.21
972.76	4808.63
972.93	4849.59
973.09	4913.08
973.25	4929.46
973.42	4788.15
973.58	4980.66
973.74	4792.25
973.90	4816.82
974.07	4718.52
974.23	4763.58
974.39	4704.18
974.55	4726.71
974.72	4644.79
974.88	4693.94
975.04	4775.86
975.20	4720.57
975.37	4616.12
975.53	4712.38
975.69	4695.99
975.85	4698.04
976.01	4663.22
976.18	4763.58
976.34	4677.56
976.50	4679.61
976.66	4790.20
976.83	4691.90
976.99	4532.15
977.15	4626.36
977.31	4544.44
977.47	4546.49
977.64	4546.49
977.80	4517.82
977.96	4583.35
978.12	4634.55
978.29	4505.53
978.45	4374.46
978.61	4306.88
978.77	4569.02
978.93	4485.05
979.10	4411.32
979.26	4444.09
979.42	4499.39
979.58	4288.45
979.74	4425.66
979.91	4362.17
980.07	4339.65
980.23	4505.53
980.39	4315.07
980.55	4419.52
980.71	4495.29
980.88	4294.59
981.04	4175.81
981.20	4376.51
981.36	4341.69
981.52	4247.49
981.68	4315.07
981.85	4300.73
982.01	4216.77
982.17	4222.91
982.33	4251.58
982.49	4345.79
982.65	4192.19
982.82	4145.09
982.98	4155.33
983.14	4054.98
983.30	4163.52
983.46	4169.66
983.62	4227.01
983.79	4173.76
983.95	4140.99
984.11	4054.98
984.27	4249.54
984.43	4067.27
984.59	4042.69
984.75	4155.33
984.91	4102.08
985.08	4140.99
985.24	4063.17
985.40	4177.86
985.56	4087.75
985.72	4188.10
985.88	4151.23
986.04	3934.15
986.20	4067.27
986.37	3932.10
986.53	3887.04
986.69	4016.07
986.85	3911.62
987.01	3966.92
987.17	3907.52
987.33	3878.85
987.49	3919.81
987.65	3997.64
987.82	3882.95
987.98	3880.90
988.14	3923.91
988.30	3846.09
988.46	3854.28
988.62	3864.52
988.78	3823.56
988.94	3817.41
989.10	3878.85
989.26	3721.16
989.42	3831.75
989.59	3735.50
989.75	3755.97
989.91	3807.17
990.07	3633.10
990.23	3755.97
990.39	3717.06
990.55	3764.17
990.71	3692.49
990.87	3735.50
991.03	3702.73
991.19	3622.86
991.35	3796.93
991.51	3655.62
991.67	3854.28
991.83	3717.06
992.00	3741.64
992.16	3645.38
992.32	3624.90
992.48	3622.86
992.64	3590.09
992.80	3649.48
992.96	3672.01
993.12	3694.54
993.28	3669.96
993.44	3665.86
993.60	3567.56
993.76	3538.89
993.92	3557.32
994.08	3608.52
994.24	3624.90
994.40	3612.62
994.56	3579.85
994.72	3508.17
994.88	3495.88
995.04	3495.88
995.20	3411.92
995.36	3438.54
995.52	3475.40
995.68	3483.59
995.84	3428.30
996.00	3493.83
996.16	3356.62
996.32	3291.09
996.48	3403.72
996.64	3413.96
996.80	3422.16
996.96	3370.96
997.12	3309.52
997.28	3368.91
997.44	3485.64
997.60	3364.81
997.76	3391.44
997.92	3325.90
998.08	3432.40
998.24	3225.55
998.40	3303.37
998.56	3362.76
998.72	3182.54
998.88	3303.37
999.04	3340.24
999.20	3340.24
999.36	3231.69
999.52	3393.48
999.68	3291.09
999.84	3256.27
1000.00	3207.12
1000.16	3313.61
1000.32	3184.59
1000.48	3319.76
1000.64	3186.64
1000.80	3133.39
1000.95	3051.47
1001.11	3157.97
1001.27	3110.86
1001.43	3157.97
1001.59	3110.86
1001.75	3188.69
1001.91	3127.25
1002.07	3145.68
1002.23	3053.52
1002.39	3135.44
1002.55	3117.01
1002.71	3145.68
1002.87	3149.78
1003.03	3051.47
1003.19	3039.19
1003.34	3076.05
1003.50	3039.19
1003.66	3061.71
1003.82	2996.18
1003.98	2955.22
1004.14	3082.19
1004.30	3006.42
1004.46	2947.03
1004.62	3043.28
1004.78	3020.75
1004.94	2934.74
1005.09	3014.61
1005.25	2951.12
1005.41	2973.65
1005.57	2936.79
1005.73	2944.98
1005.89	2846.68
1006.05	2947.03
1006.21	3024.85
1006.37	2818.00
1006.52	2875.35
1006.68	2805.72
1006.84	3039.19
1007.00	2858.96
1007.16	2912.21
1007.32	2846.68
1007.48	2830.29
1007.64	2850.77
1007.79	2822.10
1007.95	2795.48
1008.11	2897.88
1008.27	2805.72
1008.43	2813.91
1008.59	2834.39
1008.75	2885.59
1008.91	2850.77
1009.06	2803.67
1009.22	2865.11
1009.38	2863.06
1009.54	2820.05
1009.70	2754.52
1009.86	2744.28
1010.01	2871.25
1010.17	2711.51
1010.33	2727.89
1010.49	2807.77
1010.65	2748.37
1010.81	2666.46
1010.96	2711.51
1011.12	2625.50
1011.28	2619.35
1011.44	2703.32
1011.60	2738.13
1011.76	2656.22
1011.91	2830.29
1012.07	2629.59
1012.23	2613.21
1012.39	2463.71
1012.55	2650.07
1012.71	2645.98
1012.86	2592.73
1013.02	2672.60
1013.18	2535.39
1013.34	2549.72
1013.50	2590.68
1013.65	2607.06
1013.81	2559.96
1013.97	2580.44
1014.13	2695.13
1014.29	2557.91
1014.44	2678.74
1014.60	2547.67
1014.76	2478.04
1014.92	2609.11
1015.07	2512.86
1015.23	2475.99
1015.39	2494.43
1015.55	2514.91
1015.71	2564.06
1015.86	2500.57
1016.02	2494.43
1016.18	2402.27
1016.34	2461.66
1016.49	2408.41
1016.65	2568.15
1016.81	2453.47
1016.97	2432.99
1017.12	2539.48
1017.28	2465.75
1017.44	2467.80
1017.60	2408.41
1017.75	2422.75
1017.91	2406.36
1018.07	2365.40
1018.23	2467.80
1018.38	2422.75
1018.54	2482.14
1018.70	2453.47
1018.86	2398.17
1019.01	2387.93
1019.17	2318.30
1019.33	2502.62
1019.49	2363.36
1019.64	2406.36
1019.80	2406.36
1019.96	2437.08
1020.12	2437.08
1020.27	2346.97
1020.43	2383.84
1020.59	2338.78
1020.74	2318.30
1020.90	2396.12
1021.06	2369.50
1021.22	2314.20
1021.37	2310.11
1021.53	2385.88
1021.69	2349.02
1021.84	2265.05
1022.00	2215.90
1022.16	2291.68
1022.31	2248.67
1022.47	2322.40
1022.63	2240.48
1022.79	2152.42
1022.94	2207.71
1023.10	2328.54
1023.26	2281.44
1023.41	2183.13
1023.57	2281.44
1023.73	2346.97
1023.88	2303.96
1024.04	2224.09
1024.20	2197.47
1024.35	2336.73
1024.51	2279.39
1024.67	2170.85
1024.82	2277.34
1024.98	2162.66
1025.14	2164.70
1025.29	2224.09
1025.45	2318.30
1025.61	2189.28
1025.76	2168.80
1025.92	2189.28
1026.08	2154.46
1026.23	2170.85
1026.39	2246.62
1026.55	2199.52
1026.70	2162.66
1026.86	2115.55
1027.02	2211.81
1027.17	2174.94
1027.33	2189.28
1027.48	2179.04
1027.64	2170.85
1027.80	2050.02
1027.95	2197.47
1028.11	2009.06
1028.27	2189.28
1028.42	2148.32
1028.58	2007.01
1028.73	2129.89
1028.89	2154.46
1029.05	2185.18
1029.20	2170.85
>>>>>End Processed Spectral Data<<<<<
