SpectraSuite Data File
++++++++++++++++++++++++++++++++++++
Date: Fri Jun 02 14:49:24 CEST 2017
User: INFO_000
Dark Spectrum Present: No
Reference Spectrum Present: No
Number of Sampled Component Spectra: 1
Spectrometers: USB4H00879
Integration Time (usec): 80000 (USB4H00879)
Spectra Averaged: 1 (USB4H00879)
Boxcar Smoothing: 0 (USB4H00879)
Correct for Electrical Dark: No (USB4H00879)
Strobe/Lamp Enabled: No (USB4H00879)
Correct for Detector Non-linearity: No (USB4H00879)
Correct for Stray Light: No (USB4H00879)
Number of Pixels in Processed Spectrum: 3648
>>>>>Begin Processed Spectral Data<<<<<
345.13	1308.65
345.34	1308.65
345.56	1308.65
345.78	1300.46
345.99	1259.50
346.21	1718.25
346.42	1744.87
346.64	1615.85
346.86	1828.84
347.07	1658.85
347.29	1679.33
347.50	1693.67
347.72	1648.61
347.94	1773.54
348.15	1640.42
348.37	1675.24
348.59	1681.38
348.80	1714.15
349.02	1699.81
349.23	1886.18
349.45	1724.39
349.67	1791.97
349.88	1720.29
350.10	1931.23
350.31	1765.35
350.53	1765.35
350.75	1886.18
350.96	1640.42
351.18	1798.12
351.39	1769.44
351.61	1732.58
351.82	1875.94
352.04	1779.68
352.26	1798.12
352.47	1834.98
352.69	1855.46
352.90	1621.99
353.12	1802.21
353.34	1691.62
353.55	1834.98
353.77	1820.64
353.98	1853.41
354.20	1652.71
354.41	1853.41
354.63	1871.84
354.85	1986.53
355.06	1824.74
355.28	1658.85
355.49	1851.36
355.71	1837.03
355.92	1794.02
356.14	1888.23
356.35	1710.05
356.57	1738.73
356.79	1828.84
357.00	1773.54
357.22	1857.51
357.43	1732.58
357.65	1814.50
357.86	1843.17
358.08	1787.88
358.29	1841.12
358.51	1830.88
358.72	1964.00
358.94	1826.79
359.16	1843.17
359.37	1904.61
359.59	1865.70
359.80	1918.95
360.02	1869.80
360.23	1886.18
360.45	1908.71
360.66	1845.22
360.88	1652.71
361.09	1724.39
361.31	1918.95
361.52	1785.83
361.74	1980.39
361.95	1959.91
362.17	1794.02
362.38	2015.20
362.60	1966.05
362.81	1892.32
363.03	1871.84
363.24	1822.69
363.46	1929.19
363.67	1875.94
363.89	1912.80
364.10	1916.90
364.32	1859.56
364.53	1906.66
364.75	1880.04
364.96	1880.04
365.18	2011.11
365.39	1918.95
365.61	1822.69
365.82	2056.16
366.04	1880.04
366.25	1808.36
366.47	1970.15
366.68	1972.19
366.90	1974.24
367.11	2029.54
367.33	2019.30
367.54	1994.72
367.76	1880.04
367.97	1968.10
368.19	1908.71
368.40	1988.58
368.62	1892.32
368.83	1871.84
369.05	1888.23
369.26	1869.80
369.48	1818.60
369.69	1976.29
369.91	1937.38
370.12	1925.09
370.33	2027.49
370.55	1871.84
370.76	1820.64
370.98	2068.45
371.19	1978.34
371.41	1892.32
371.62	1945.57
371.84	2033.63
372.05	2017.25
372.27	1984.48
372.48	1996.77
372.69	1968.10
372.91	2066.40
373.12	2041.82
373.34	1869.80
373.55	2035.68
373.77	2027.49
373.98	2052.06
374.20	2113.50
374.41	2109.41
374.62	2052.06
374.84	2052.06
375.05	2052.06
375.27	2084.83
375.48	2103.26
375.70	2039.78
375.91	2140.13
376.12	2203.61
376.34	2037.73
376.55	1920.99
376.77	2117.60
376.98	2060.26
377.19	2004.96
377.41	2101.22
377.62	2191.33
377.84	2224.09
378.05	2273.25
378.27	2101.22
378.48	2207.71
378.69	2283.49
378.91	2224.09
379.12	2195.42
379.34	2109.41
379.55	2174.94
379.76	2162.66
379.98	2131.94
380.19	2265.05
380.41	2187.23
380.62	2209.76
380.83	2189.28
381.05	2123.74
381.26	2320.35
381.47	2123.74
381.69	2234.33
381.90	2293.72
382.12	2273.25
382.33	2240.48
382.54	2189.28
382.76	2140.13
382.97	2226.14
383.19	2111.46
383.40	2334.68
383.61	2211.81
383.83	2252.77
384.04	2273.25
384.25	2361.31
384.47	2387.93
384.68	2265.05
384.89	2279.39
385.11	2299.87
385.32	2267.10
385.54	2326.49
385.75	2277.34
385.96	2293.72
386.18	2387.93
386.39	2371.55
386.60	2410.46
386.82	2410.46
387.03	2412.51
387.24	2475.99
387.46	2344.92
387.67	2461.66
387.88	2398.17
388.10	2342.88
388.31	2484.19
388.52	2488.28
388.74	2516.95
388.95	2465.75
389.16	2484.19
389.38	2525.15
389.59	2592.73
389.80	2629.59
390.02	2469.85
390.23	2578.39
390.44	2543.58
390.66	2492.38
390.87	2453.47
391.08	2568.15
391.30	2623.45
391.51	2510.81
391.72	2615.26
391.94	2648.02
392.15	2576.34
392.36	2537.43
392.58	2553.82
392.79	2629.59
393.00	2744.28
393.22	2684.89
393.43	2699.22
393.64	2752.47
393.85	2844.63
394.07	2568.15
394.28	2777.05
394.49	2744.28
394.71	2791.38
394.92	2809.81
395.13	2731.99
395.35	2672.60
395.56	2768.85
395.77	2736.09
395.98	2736.09
396.20	2875.35
396.41	2785.24
396.62	2838.48
396.84	2858.96
397.05	2813.91
397.26	2908.12
397.47	2842.58
397.69	2756.57
397.90	3012.56
398.11	2953.17
398.32	2836.44
398.54	2858.96
398.75	2850.77
398.96	2930.64
399.18	3112.91
399.39	2961.36
399.60	3043.28
399.81	2918.36
400.03	2877.40
400.24	3260.37
400.45	3043.28
400.66	3123.15
400.88	2904.02
401.09	3131.34
401.30	3076.05
401.51	3162.06
401.73	3108.82
401.94	3182.54
402.15	3096.53
402.36	3149.78
402.58	3084.24
402.79	3090.38
403.00	3235.79
403.21	3164.11
403.43	3260.37
403.64	3319.76
403.85	3037.14
404.06	3211.22
404.27	3035.09
404.49	3241.93
404.70	3129.30
404.91	3321.81
405.12	3258.32
405.34	3235.79
405.55	3309.52
405.76	3135.44
405.97	3151.82
406.19	3383.24
406.40	3186.64
406.61	3305.42
406.82	3241.93
407.03	3272.65
407.25	3305.42
407.46	3229.65
407.67	3409.87
407.88	3426.25
408.09	3350.48
408.31	3411.92
408.52	3387.34
408.73	3284.94
408.94	3387.34
409.15	3436.49
409.37	3506.12
409.58	3497.93
409.79	3424.20
410.00	3622.86
410.21	3375.05
410.43	3483.59
410.64	3409.87
410.85	3555.27
411.06	3495.88
411.27	3514.31
411.48	3641.29
411.70	3493.83
411.91	3637.19
412.12	3641.29
412.33	3575.75
412.54	3579.85
412.76	3661.77
412.97	3715.02
413.18	3524.55
413.39	3561.42
413.60	3614.66
413.81	3688.39
414.03	3502.03
414.24	3540.94
414.45	3760.07
414.66	3608.52
414.87	3755.97
415.08	3596.23
415.30	3737.54
415.51	3829.70
415.72	3729.35
415.93	3731.40
416.14	3776.45
416.35	3874.76
416.56	3739.59
416.78	3837.89
416.99	3880.90
417.20	3827.65
417.41	3819.46
417.62	3936.20
417.83	3903.43
418.04	3815.37
418.26	3844.04
418.47	3852.23
418.68	3989.44
418.89	3862.47
419.10	4034.50
419.31	4046.79
419.52	3973.06
419.73	4036.55
419.95	4067.27
420.16	3841.99
420.37	3987.40
420.58	4095.94
420.79	3903.43
421.00	4095.94
421.21	4097.99
421.42	3975.11
421.63	4057.03
421.85	4036.55
422.06	4192.19
422.27	4138.94
422.48	4161.47
422.69	4229.06
422.90	4130.75
423.11	4313.02
423.32	4421.56
423.53	4343.74
423.75	4386.75
423.96	4366.27
424.17	4308.93
424.38	4505.53
424.59	4362.17
424.80	4450.24
425.01	4478.91
425.22	4335.55
425.43	4341.69
425.64	4595.64
425.85	4695.99
426.06	4548.54
426.28	4571.07
426.49	4491.20
426.70	4538.30
426.91	4458.43
427.12	4612.03
427.33	4704.18
427.54	4622.27
427.75	4614.07
427.96	4847.54
428.17	4708.28
428.38	4704.18
428.59	4839.35
428.80	4657.08
429.01	4888.50
429.23	4814.77
429.44	4908.98
429.65	4921.27
429.86	4906.93
430.07	4921.27
430.28	4884.41
430.49	4933.56
430.70	5031.86
430.91	4988.85
431.12	4837.30
431.33	5101.49
431.54	5074.87
431.75	5171.12
431.96	5121.97
432.17	5171.12
432.38	5189.55
432.59	5371.82
432.80	5365.68
433.01	5226.42
433.22	5240.75
433.43	5283.76
433.64	5300.14
433.85	5173.17
434.06	5380.01
434.27	5267.38
434.49	5238.70
434.70	5380.01
434.91	5320.62
435.12	5410.73
435.33	5427.12
435.54	5451.69
435.75	5265.33
435.96	5435.31
436.17	5330.86
436.38	5472.17
436.59	5599.15
436.80	5506.99
437.01	5578.67
437.22	5691.31
437.43	5693.35
437.64	5404.59
437.85	5676.97
438.06	5777.32
438.27	5683.11
438.48	5574.57
438.69	5748.65
438.90	5648.30
439.11	5713.83
439.32	5865.38
439.53	5810.09
439.74	5873.57
439.95	5928.87
440.16	5824.42
440.37	5793.70
440.57	5701.54
440.78	6059.94
440.99	5885.86
441.20	6021.03
441.41	5769.13
441.62	5814.18
441.83	5832.62
442.04	6129.57
442.25	6070.18
442.46	6018.98
442.67	5900.20
442.88	6547.36
443.09	6039.46
443.30	5992.36
443.51	6223.78
443.72	6492.06
443.93	6123.43
444.14	6442.91
444.35	6107.04
444.56	6381.47
444.77	6293.41
444.98	6281.12
445.19	6367.13
445.40	6266.78
445.61	6307.74
445.81	6430.62
446.02	6391.71
446.23	6401.95
446.44	6369.18
446.65	6381.47
446.86	6528.92
447.07	6555.55
447.28	6643.61
447.49	6698.91
447.70	6432.67
447.91	6614.94
448.12	6711.19
448.33	6872.98
448.54	6709.15
448.74	6600.60
448.95	6610.84
449.16	6498.20
449.37	6938.52
449.58	6629.27
449.79	6928.28
450.00	6557.60
450.21	6877.08
450.42	7032.72
450.63	6913.94
450.84	6817.69
451.05	6899.61
451.25	6915.99
451.46	6793.11
451.67	7061.40
451.88	7008.15
452.09	7235.47
452.30	7063.44
452.51	7128.98
452.72	7346.06
452.93	7333.78
453.13	7116.69
453.34	7184.27
453.55	7270.29
453.76	7286.67
453.97	7737.23
454.18	7214.99
454.39	7475.09
454.60	7270.29
454.81	7368.59
455.01	7575.44
455.22	7108.50
455.43	7557.00
455.64	7862.15
455.85	7804.81
456.06	7919.50
456.27	7677.83
456.48	7630.73
456.68	7753.61
456.89	7849.86
457.10	7823.24
457.31	7819.14
457.52	7794.57
457.73	7944.07
457.94	8120.20
458.14	7874.44
458.35	8257.41
458.56	8056.71
458.77	8015.75
458.98	8122.24
459.19	8279.94
459.39	8308.61
459.60	8363.90
459.81	8363.90
460.02	8462.21
460.23	8374.14
460.44	8509.31
460.65	8560.51
460.85	8683.39
461.06	8533.89
461.27	8445.82
461.48	8761.21
461.69	8968.06
461.89	8413.06
462.10	8875.90
462.31	8533.89
462.52	8697.72
462.73	8861.56
462.94	9070.45
463.14	8914.81
463.35	9047.93
463.56	9314.16
463.77	9451.38
463.98	9109.36
464.18	9285.49
464.39	9348.98
464.60	9512.81
464.81	9600.88
465.02	9602.93
465.23	9668.46
465.43	9625.45
465.64	9801.58
465.85	9621.36
466.06	9576.30
466.27	9975.66
466.47	9840.49
466.68	10012.52
466.89	9731.95
467.10	9983.85
467.30	9891.69
467.51	10270.56
467.72	10393.44
467.93	9901.93
468.14	10219.36
468.34	10608.48
468.55	10411.87
468.76	10289.00
468.97	10311.52
469.17	10573.66
469.38	10571.61
469.59	10743.64
469.80	10557.28
470.01	10809.18
470.21	10925.91
470.42	10848.09
470.63	11016.02
470.84	11136.85
471.04	11085.65
471.25	11169.62
471.46	11003.74
471.67	11528.02
471.87	11433.81
472.08	11575.12
472.29	11761.48
472.50	11106.13
472.70	11513.68
472.91	11601.74
473.12	11867.98
473.33	12027.72
473.53	12050.25
473.74	11855.69
473.95	12089.16
474.16	12074.82
474.36	12308.29
474.57	12517.18
474.78	12439.36
474.99	12359.49
475.19	12642.11
475.40	12658.49
475.61	12808.00
475.81	12955.45
476.02	12980.03
476.23	12846.91
476.44	13172.54
476.64	13358.90
476.85	13461.30
477.06	13420.34
477.27	13573.94
477.47	13725.49
477.68	13526.83
477.89	13864.75
478.09	13741.87
478.30	13930.28
478.51	13989.67
478.71	14079.79
478.92	14112.55
479.13	14014.25
479.34	14642.98
479.54	14186.28
479.75	14452.52
479.96	14260.01
480.16	14626.59
480.37	14608.16
480.58	14925.60
480.78	14995.23
480.99	15140.63
481.20	14929.69
481.41	15388.44
481.61	15517.46
481.82	15496.98
482.03	15281.94
482.23	15492.88
482.44	15861.52
482.65	15984.40
482.85	16107.27
483.06	15912.72
483.27	16041.74
483.47	16019.21
483.68	16189.19
483.89	16066.31
484.09	16015.12
484.30	16490.24
484.51	16516.87
484.71	16561.92
484.92	16516.87
485.13	16883.45
485.33	17004.28
485.54	16736.00
485.75	17067.77
485.95	17176.31
486.16	17100.54
486.37	17516.28
486.57	17467.13
486.78	17364.73
486.98	17448.69
487.19	17747.70
487.40	17950.45
487.60	17749.75
487.81	18181.87
488.02	17975.02
488.22	18032.36
488.43	18124.52
488.64	18401.00
488.84	18480.87
489.05	18282.22
489.25	18462.44
489.46	18822.88
489.67	18654.95
489.87	18919.14
490.08	18992.86
490.29	18999.01
490.49	19332.82
490.70	19242.71
490.90	19629.78
491.11	19195.61
491.32	19674.84
491.52	19506.90
491.73	19521.24
491.94	19601.11
492.14	19664.60
492.35	19840.72
492.55	20068.05
492.76	19859.15
492.97	20295.37
493.17	20088.53
493.38	20416.20
493.58	20637.38
493.79	20532.93
494.00	20244.17
494.20	20680.39
494.41	20768.45
494.61	20774.60
494.82	20934.34
495.02	21176.00
495.23	20983.49
495.44	21223.10
495.64	21319.35
495.85	21518.01
496.05	21647.03
496.26	21341.88
496.47	21706.42
496.67	21616.31
496.88	21814.96
497.08	21710.52
497.29	21923.51
497.49	21821.11
497.70	22085.30
497.91	21976.75
498.11	22695.59
498.32	22611.62
498.52	22498.98
498.73	22748.84
498.93	22630.05
499.14	22797.99
499.34	22875.81
499.55	22927.01
499.76	22808.23
499.96	22806.18
500.17	22748.84
500.37	23252.64
500.58	22900.39
500.78	23260.83
500.99	23336.60
501.19	23273.12
501.40	23563.93
501.60	23486.11
501.81	23418.52
502.02	23549.59
502.22	23463.58
502.43	23506.59
502.63	23611.03
502.84	23998.10
503.04	23922.32
503.25	24063.63
503.45	24073.87
503.66	24430.22
503.86	23824.02
504.07	24602.25
504.27	24233.61
504.48	24649.35
504.68	24446.60
504.89	24397.45
505.09	24567.43
505.30	24385.16
505.50	24415.88
505.71	24716.93
505.91	25116.29
506.12	24782.47
506.32	24790.66
506.53	25097.86
506.73	24602.25
506.94	25190.02
507.14	25101.95
507.35	24977.03
507.55	25251.45
507.76	25241.21
507.96	25355.90
508.17	25370.24
508.37	25493.12
508.58	25466.49
508.78	25306.75
508.99	25949.81
509.19	25431.68
509.40	25759.35
509.60	26035.83
509.81	25716.34
510.01	25898.61
510.22	26187.38
510.42	26132.08
510.63	26168.94
510.83	26087.03
511.04	26115.70
511.24	26390.13
511.44	26205.81
511.65	26531.44
511.85	26304.11
512.06	26236.53
512.26	26230.38
512.47	26664.55
512.67	26771.05
512.88	26732.14
513.08	26310.25
513.29	27266.66
513.49	26852.97
513.69	26873.45
513.90	26893.93
514.10	26949.22
514.31	27166.31
514.51	27164.26
514.72	27059.81
514.92	26779.24
515.13	27383.39
515.33	27180.64
515.53	26961.51
515.74	27422.30
515.94	27625.05
516.15	27567.71
516.35	27825.75
516.56	27790.94
516.76	27547.23
516.96	27547.23
517.17	28157.52
517.37	28001.88
517.58	27840.09
517.78	28337.74
517.99	27831.90
518.19	28173.91
518.39	28116.56
518.60	28483.15
518.80	28649.03
519.01	28649.03
519.21	28567.12
519.41	28780.10
519.62	28483.15
519.82	28724.81
520.03	28640.84
520.23	28708.43
520.43	28769.86
520.64	28923.46
520.84	29236.80
521.05	28997.19
521.25	29261.38
521.45	29472.32
521.66	29261.38
521.86	29503.04
522.07	29476.41
522.27	29789.75
522.47	29562.43
522.68	29980.21
522.88	29455.93
523.08	30021.17
523.29	29929.02
523.49	30080.56
523.70	30023.22
523.90	30178.87
524.10	30101.04
524.31	30099.00
524.51	30144.05
524.71	30531.12
524.92	30326.32
525.12	30991.91
525.33	30815.79
525.53	30926.38
525.73	31303.20
525.94	31147.56
526.14	30893.61
526.34	30862.89
526.55	31135.27
526.75	31008.29
526.95	31571.49
527.16	31389.22
527.36	31467.04
527.56	31446.56
527.77	31858.20
527.97	31704.60
528.17	31913.50
528.38	32063.00
528.58	31825.43
528.78	32249.36
528.99	31997.46
529.19	32263.70
529.39	32019.99
529.60	32232.98
529.80	32431.63
530.00	32405.01
530.21	32992.78
530.41	32783.88
530.61	32744.97
530.82	32577.04
531.02	32792.08
531.22	32837.13
531.43	32984.58
531.63	33418.75
531.83	33596.93
532.04	33621.50
532.24	33117.70
532.44	33789.44
532.64	33758.72
532.85	33877.50
533.05	34053.62
533.25	33818.11
533.46	34016.76
533.66	34104.82
533.86	34051.58
534.07	34190.84
534.27	34096.63
534.47	34569.71
534.67	34534.90
534.88	34377.20
535.08	34721.26
535.28	34899.44
535.49	34864.62
535.69	35235.30
535.89	35104.23
536.09	35366.37
536.30	35515.87
536.50	35368.42
536.70	35393.00
536.91	35282.41
537.11	35444.20
537.31	35835.36
537.51	35509.73
537.72	35841.50
537.92	35857.88
538.12	36128.22
538.32	36044.25
538.53	36230.62
538.73	36177.37
538.93	36167.13
539.13	36275.67
539.34	36263.38
539.54	36382.16
539.74	36685.26
539.94	36582.87
540.15	36318.68
540.35	36836.81
540.55	36894.16
540.75	37096.91
540.96	37103.05
541.16	37053.90
541.36	36943.31
541.56	37506.50
541.77	37830.08
541.97	37385.67
542.17	37529.03
542.37	37438.92
542.58	37932.48
542.78	37400.01
542.98	37772.74
543.18	37682.62
543.38	38102.46
543.59	38041.02
543.79	37901.76
543.99	38372.79
544.19	38401.46
544.40	37969.34
544.60	38624.69
544.80	38342.07
545.00	38622.64
545.20	38675.89
545.41	38725.04
545.61	38370.74
545.81	39122.35
546.01	38964.65
546.21	38772.14
546.42	39001.52
546.62	38962.61
546.82	38938.03
547.02	39151.02
547.22	39302.57
547.43	39335.34
547.63	39126.44
547.83	39329.19
548.03	39429.54
548.23	39593.38
548.44	39597.48
548.64	39439.78
548.84	39615.91
549.04	39493.03
549.24	40179.10
549.45	40265.11
549.65	39609.76
549.85	39910.82
550.05	40312.22
550.25	40056.22
550.45	40723.86
550.66	40377.75
550.86	40342.94
551.06	40240.54
551.26	40748.43
551.46	40785.30
551.66	40353.18
551.87	40306.07
552.07	40555.93
552.27	40224.15
552.47	40801.68
552.67	40510.87
552.87	40715.67
553.07	40465.81
553.28	41137.55
553.48	41131.40
553.68	40615.32
553.88	41434.50
554.08	41098.64
554.28	41080.21
554.48	40732.05
554.69	41383.30
554.89	41135.50
555.09	41588.10
555.29	41328.01
555.49	41616.77
555.69	41657.73
555.89	41465.22
556.10	41573.77
556.30	41844.10
556.50	41569.67
556.70	41786.75
556.90	41805.19
557.10	41893.25
557.30	41360.78
557.50	42184.06
557.70	42233.21
557.91	42478.97
558.11	42003.84
558.31	42575.22
558.51	42050.94
558.71	42188.16
558.91	42378.62
559.11	42210.68
559.31	42089.85
559.51	41762.18
559.72	42304.89
559.92	42495.35
560.12	42272.12
560.32	42476.92
560.52	42161.53
560.72	42796.40
560.92	42438.01
561.12	42829.17
561.32	42923.38
561.52	42401.14
561.72	43146.61
561.93	42884.47
562.13	42843.51
562.33	42638.71
562.53	43367.79
562.73	42974.58
562.93	42868.08
563.13	43070.83
563.33	43074.93
563.53	43320.68
563.73	42931.57
563.93	43119.98
564.13	43644.26
564.33	43296.11
564.53	42657.14
564.74	43437.42
564.94	42915.19
565.14	43162.99
565.34	43201.90
565.54	43541.86
565.74	43089.26
565.94	43699.56
566.14	43310.44
566.34	43083.12
566.54	43740.52
566.74	43394.41
566.94	43558.25
567.14	43615.59
567.34	43453.80
567.54	43898.21
567.74	43490.66
567.94	43619.69
568.14	43826.53
568.34	44232.03
568.54	43904.35
568.74	44324.19
568.94	43978.08
569.14	44012.90
569.34	43912.55
569.54	44359.00
569.75	44100.96
569.95	43951.46
570.15	44719.45
570.35	44506.46
570.55	44488.03
570.75	44471.64
570.95	44307.80
571.15	44490.07
571.35	44195.17
571.55	44512.60
571.75	44678.49
571.95	44438.87
572.15	44080.48
572.35	44774.74
572.55	44615.00
572.75	44465.50
572.95	44510.55
573.15	44911.95
573.35	44686.68
573.55	44586.33
573.75	44619.10
573.95	44995.92
574.15	44741.97
574.35	45251.92
574.55	44983.63
574.75	44911.95
574.95	45110.61
575.15	45262.16
575.34	45213.01
575.54	45333.84
575.74	45614.41
575.94	45847.88
576.14	45393.23
576.34	45774.15
576.54	45684.04
576.74	45872.45
576.94	45851.97
577.14	45770.05
577.34	45970.75
577.54	45598.02
577.74	45684.04
577.94	45557.06
578.14	46124.35
578.34	46458.17
578.54	45182.29
578.74	45487.43
578.94	46087.49
579.14	45927.75
579.34	46110.02
579.54	46531.90
579.74	46169.41
579.94	46628.15
580.13	46523.71
580.33	46200.13
580.53	46619.96
580.73	46728.50
580.93	46677.30
581.13	47052.08
581.33	46949.68
581.53	46701.88
581.73	46968.12
581.93	47043.89
582.13	46882.10
582.33	47156.53
582.53	47105.33
582.73	47050.03
582.92	47248.69
583.12	47230.26
583.32	47547.69
583.52	47215.92
583.72	47392.04
583.92	47117.62
584.12	47088.95
584.32	48041.25
584.52	47602.99
584.72	47924.52
584.92	47734.06
585.11	48205.09
585.31	47488.30
585.51	47924.52
585.71	47899.94
585.91	48477.47
586.11	47811.88
586.31	48280.86
586.51	48059.68
586.71	48364.83
586.91	48405.79
587.10	48370.97
587.30	48512.28
587.50	48241.95
587.70	48768.28
587.90	48506.14
588.10	48653.59
588.30	48379.17
588.50	48858.39
588.69	48735.51
588.89	48516.38
589.09	48899.35
589.29	48661.79
589.49	49399.05
589.69	48749.85
589.89	49169.68
590.08	49151.25
590.28	49026.32
590.48	49116.43
590.68	49280.27
590.88	49259.79
591.08	49020.18
591.28	49134.87
591.47	49401.10
591.67	49147.15
591.87	49493.26
592.07	49415.44
592.27	49882.37
592.47	49632.52
592.67	49638.67
592.86	49415.44
593.06	49749.26
593.26	49802.50
593.46	50140.42
593.66	50199.81
593.86	49984.77
594.05	49796.36
594.25	50363.65
594.45	49702.15
594.65	50308.35
594.85	50089.22
595.05	50117.89
595.24	50253.06
595.44	49777.93
595.64	50119.94
595.84	50320.64
596.04	50502.91
596.23	50423.04
596.43	50664.70
596.63	50183.43
596.83	50509.05
597.03	51045.62
597.22	50902.26
597.42	50943.22
597.62	50871.54
597.82	51029.24
598.02	50715.90
598.21	50984.18
598.41	50894.07
598.61	50871.54
598.81	50951.41
599.01	51062.00
599.20	51094.77
599.40	51164.40
599.60	50863.35
599.80	51109.11
600.00	51367.15
600.19	51522.80
600.39	51356.91
600.59	51549.42
600.79	51836.14
600.98	51451.12
601.18	51887.34
601.38	51952.87
601.58	51786.99
601.78	51961.06
601.97	52024.55
602.17	51893.48
602.37	52284.64
602.57	52219.11
602.76	52139.24
602.96	51889.38
603.16	52417.76
603.36	52376.80
603.55	52446.43
603.75	52190.44
603.95	52640.99
604.15	52374.75
604.34	52292.83
604.54	52710.62
604.74	52991.19
604.94	52704.48
605.13	52874.46
605.33	52800.73
605.53	52565.21
605.73	53128.41
605.92	52884.70
606.12	53245.14
606.32	53173.46
606.52	52860.12
606.71	53564.62
606.91	53224.66
607.11	52686.04
607.30	53150.93
607.50	53355.73
607.70	52942.04
607.90	53105.88
608.09	53073.11
608.29	53724.36
608.49	53538.00
608.68	53406.93
608.88	53621.97
609.08	53427.41
609.28	53167.32
609.47	53437.65
609.67	54424.77
609.87	53503.18
610.06	53908.68
610.26	53818.57
610.46	53834.95
610.66	53560.53
610.85	53533.90
611.05	53662.93
611.25	54000.84
611.44	53908.68
611.64	53785.80
611.84	53746.89
612.03	53533.90
612.23	54099.14
612.43	54187.21
612.62	53683.40
612.82	54021.32
613.02	53826.76
613.21	54138.05
613.41	54017.22
613.61	54260.93
613.80	53705.93
614.00	53963.98
614.20	53877.96
614.39	53904.59
614.59	54035.66
614.79	54140.10
614.98	54109.38
615.18	53974.22
615.38	54090.95
615.57	53794.00
615.77	54475.97
615.97	53841.10
616.16	54310.08
616.36	53777.61
616.56	53925.07
616.75	54295.75
616.95	54164.68
617.15	53990.60
617.34	54006.98
617.54	54090.95
617.74	54437.06
617.93	54336.71
618.13	53521.62
618.32	54217.92
618.52	53847.24
618.72	54273.22
618.91	54172.87
619.11	54004.94
619.31	54303.94
619.50	53683.40
619.70	53953.74
619.90	53990.60
620.09	54070.47
620.29	54052.04
620.48	54015.18
620.68	54242.50
620.88	53732.56
621.07	54131.91
621.27	54211.78
621.46	54082.76
621.66	54142.15
621.86	54207.68
622.05	53961.93
622.25	54568.13
622.44	54267.08
622.64	53777.61
622.84	54111.43
623.03	54049.99
623.23	54093.00
623.42	53943.50
623.62	54246.60
623.82	54353.09
624.01	53853.39
624.21	54058.18
624.40	54287.56
624.60	54009.03
624.80	54164.68
624.99	54181.06
625.19	54058.18
625.38	54465.73
625.58	53851.34
625.77	54308.04
625.97	54047.94
626.17	53720.27
626.36	54203.59
626.56	54359.23
626.75	53681.36
626.95	54387.91
627.14	53875.91
627.34	54609.09
627.54	54015.18
627.73	54461.63
627.93	53959.88
628.12	53818.57
628.32	54140.10
628.51	53867.72
628.71	54240.45
628.90	53857.48
629.10	54342.85
629.30	53945.54
629.49	54254.79
629.69	54088.90
629.88	54371.52
630.08	54480.06
630.27	54578.37
630.47	54127.81
630.66	54129.86
630.86	54652.09
631.05	54162.63
631.25	54547.65
631.44	54381.76
631.64	54236.36
631.84	54420.67
632.03	54828.22
632.23	53996.74
632.42	54858.94
632.62	54410.43
632.81	54269.12
633.01	54385.86
633.20	54273.22
633.40	54432.96
633.59	54277.32
633.79	54250.69
633.98	54672.57
634.18	54826.17
634.37	54713.53
634.57	54443.20
634.76	54529.22
634.96	54750.40
635.15	54809.79
635.35	54566.08
635.54	54432.96
635.74	54783.16
635.93	54596.80
636.13	54799.55
636.32	55057.59
636.52	54219.97
636.71	54521.02
636.91	54342.85
637.10	54885.56
637.30	54877.37
637.49	54570.18
637.69	54717.63
637.88	55205.05
638.08	54549.70
638.27	55194.81
638.46	54742.20
638.66	54539.46
638.85	54725.82
639.05	54686.91
639.24	54731.96
639.44	54527.17
639.63	54820.03
639.83	54944.95
640.02	54875.32
640.22	54785.21
640.41	55520.43
640.61	54549.70
640.80	54865.08
640.99	54754.49
641.19	55514.29
641.38	54936.76
641.58	54576.32
641.77	54924.47
641.97	54961.34
642.16	55055.54
642.36	55278.77
642.55	55227.57
642.74	54820.03
642.94	55542.96
643.13	55299.25
643.33	55571.63
643.52	55469.23
643.72	55350.45
643.91	55178.42
644.10	55549.10
644.30	55442.61
644.49	55219.38
644.69	55557.30
644.88	55334.07
645.08	54955.19
645.27	54953.15
645.46	54990.01
645.66	55422.13
645.85	55182.52
646.05	55106.74
646.24	55669.93
646.43	55121.08
646.63	55655.60
646.82	56007.85
647.02	55518.38
647.21	55760.05
647.40	56067.24
647.60	55827.63
647.79	55694.51
647.99	56052.90
648.18	55739.57
648.37	55604.40
648.57	55708.85
648.76	55700.65
648.96	55516.34
649.15	56165.54
649.34	56155.30
649.54	55923.88
649.73	55325.88
649.92	56102.06
650.12	55776.43
650.31	56126.63
650.51	55841.96
650.70	56163.50
650.89	55825.58
651.09	56640.67
651.28	56269.99
651.47	56071.34
651.67	56075.43
651.86	56126.63
652.06	55352.50
652.25	56157.35
652.44	55594.16
652.64	55909.55
652.83	55866.54
653.02	55391.41
653.22	55962.79
653.41	55536.82
653.60	55526.58
653.80	55495.86
653.99	56689.82
654.18	55719.09
654.38	55839.92
654.57	56028.33
654.76	56130.73
654.96	56024.23
655.15	55954.60
655.34	55825.58
655.54	55872.68
655.73	55866.54
655.92	56544.42
656.12	56263.85
656.31	56278.18
656.50	56239.27
656.70	55981.23
656.89	56267.94
657.08	55788.72
657.28	56325.28
657.47	56102.06
657.66	56245.41
657.86	55870.64
658.05	56259.75
658.24	56396.96
658.43	56087.72
658.63	56491.17
658.82	56274.09
659.01	56243.37
659.21	56534.18
659.40	56339.62
659.59	56075.43
659.79	56366.24
659.98	56530.08
660.17	56628.38
660.36	56390.82
660.56	56272.04
660.75	56333.48
660.94	56175.78
661.14	56501.41
661.33	56263.85
661.52	55637.17
661.71	56693.92
661.91	55950.51
662.10	55940.27
662.29	56597.66
662.49	56442.02
662.68	56077.48
662.87	56134.82
663.06	55651.50
663.26	56337.57
663.45	56988.83
663.64	56011.95
663.83	56661.15
664.03	56743.07
664.22	55917.74
664.41	56290.47
664.60	56210.60
664.80	56333.48
664.99	56444.07
665.18	56147.11
665.37	56470.69
665.57	56509.60
665.76	56061.10
665.95	56415.40
666.14	56329.38
666.34	56183.97
666.53	55940.27
666.72	55874.73
666.91	56100.01
667.11	55960.75
667.30	55878.83
667.49	56296.61
667.68	55940.27
667.87	55907.50
668.07	56265.89
668.26	56044.71
668.45	56233.13
668.64	55680.17
668.84	56837.28
669.03	56538.27
669.22	56276.13
669.41	56274.09
669.60	56372.39
669.80	55659.69
669.99	56345.76
670.18	55788.72
670.37	56276.13
670.57	56501.41
670.76	56310.95
670.95	56442.02
671.14	55944.36
671.33	55606.45
671.53	56792.22
671.72	56100.01
671.91	55940.27
672.10	56151.21
672.29	55825.58
672.48	56145.06
672.68	56458.40
672.87	56001.71
673.06	56431.78
673.25	56224.93
673.44	55809.20
673.64	55827.63
673.83	55932.07
674.02	56081.58
674.21	55751.85
674.40	56188.07
674.59	55590.06
674.79	55604.40
674.98	55532.72
675.17	56331.43
675.36	55571.63
675.55	55780.52
675.74	55833.77
675.94	55899.31
676.13	55911.59
676.32	56374.44
676.51	56112.30
676.70	55633.07
676.89	55954.60
677.08	55987.37
677.28	55704.75
677.47	55997.61
677.66	56368.29
677.85	56345.76
678.04	56149.16
678.23	55841.96
678.42	56300.71
678.62	56300.71
678.81	56210.60
679.00	55592.11
679.19	56333.48
679.38	55835.82
679.57	55727.28
679.76	55766.19
679.96	56063.14
680.15	55669.93
680.34	55450.80
680.53	56202.41
680.72	55866.54
680.91	56226.98
681.10	55549.10
681.29	55772.33
681.48	56108.20
681.68	55680.17
681.87	55702.70
682.06	55934.12
682.25	55637.17
682.44	55645.36
682.63	55682.22
682.82	55049.40
683.01	55450.80
683.20	55309.49
683.39	55407.79
683.59	55348.40
683.78	55123.13
683.97	55551.15
684.16	55387.31
684.35	55213.24
684.54	55354.55
684.73	55235.77
684.92	55047.35
685.11	55047.35
685.30	55334.07
685.49	55565.49
685.69	55506.10
685.88	55659.69
686.07	55364.79
686.26	55092.41
686.45	55276.72
686.64	55307.44
686.83	55104.70
687.02	55293.11
687.21	55276.72
687.40	55145.65
687.59	55116.98
687.78	55061.69
687.97	55903.40
688.16	55362.74
688.35	55139.51
688.54	55018.68
688.74	55270.58
688.93	55141.56
689.12	55153.85
689.31	55145.65
689.50	55084.22
689.69	55076.02
689.88	54938.81
690.07	55082.17
690.26	54811.84
690.45	55145.65
690.64	54942.91
690.83	54908.09
691.02	54240.45
691.21	54533.31
691.40	54320.32
691.59	54965.43
691.78	54488.26
691.97	55039.16
692.16	54842.56
692.35	54604.99
692.54	54938.81
692.73	54936.76
692.92	54621.37
693.11	54842.56
693.30	54619.33
693.49	55043.26
693.68	54543.55
693.87	54822.08
694.06	54543.55
694.25	54586.56
694.44	54463.68
694.63	54156.49
694.82	54381.76
695.01	54580.42
695.20	54207.68
695.39	54463.68
695.58	54435.01
695.77	54469.82
695.96	54596.80
696.15	54344.90
696.34	54375.62
696.53	54185.16
696.72	54365.38
696.91	54277.32
697.10	54553.79
697.29	54467.78
697.48	54750.40
697.67	53974.22
697.86	54287.56
698.05	54072.52
698.24	54721.72
698.43	53505.23
698.62	54072.52
698.81	53867.72
699.00	54762.68
699.19	53818.57
699.38	54150.34
699.57	53933.26
699.76	54469.82
699.95	53916.87
700.14	53482.70
700.32	53707.98
700.51	53843.15
700.70	54181.06
700.89	54037.70
701.08	53914.83
701.27	53689.55
701.46	53699.79
701.65	53347.54
701.84	53634.25
702.03	53761.23
702.22	53474.51
702.41	53621.97
702.60	53654.73
702.79	53236.95
702.98	53318.87
703.17	53474.51
703.35	53046.49
703.54	53591.25
703.73	53376.21
703.92	53294.29
704.11	52954.33
704.30	53122.26
704.49	53056.73
704.68	53308.63
704.87	53028.05
705.06	53015.77
705.25	53130.45
705.43	53142.74
705.62	52950.23
705.81	53355.73
706.00	53265.62
706.19	52946.14
706.38	53046.49
706.57	52456.67
706.76	52710.62
706.95	53069.01
707.14	52831.45
707.32	52915.42
707.51	52851.93
707.70	53202.13
707.89	52759.77
708.08	52821.21
708.27	52745.44
708.46	52978.90
708.65	52456.67
708.84	52870.36
709.02	52862.17
709.21	52784.35
709.40	52210.92
709.59	52372.70
709.78	52329.70
709.97	52309.22
710.16	52360.42
710.34	52018.41
710.53	52479.20
710.72	51922.15
710.91	52165.86
711.10	52016.36
711.29	52593.89
711.48	52176.10
711.66	51967.21
711.85	51961.06
712.04	52030.69
712.23	51950.82
712.42	52077.80
712.61	52061.41
712.80	51823.85
712.98	51774.70
713.17	51754.22
713.36	52028.65
713.55	51483.89
713.74	51799.27
713.93	51737.83
714.11	51459.31
714.30	51459.31
714.49	51494.13
714.68	51526.89
714.87	51918.06
715.06	51682.54
715.24	51660.01
715.43	51508.46
715.62	51260.66
715.81	51223.79
716.00	51307.76
716.18	51389.68
716.37	51107.06
716.56	51098.87
716.75	51197.17
716.94	51014.90
717.12	50810.10
717.31	51148.02
717.50	51367.15
717.69	51123.44
717.88	50812.15
718.06	50951.41
718.25	51090.68
718.44	51012.85
718.63	51135.73
718.82	50459.90
719.00	50932.98
719.19	50261.25
719.38	50533.63
719.57	50144.51
719.76	49755.40
719.94	50150.66
720.13	50042.12
720.32	50210.05
720.51	49732.87
720.69	49894.66
720.88	49995.01
721.07	49358.09
721.26	49145.11
721.44	49933.57
721.63	49890.57
721.82	49673.48
722.01	49575.18
722.20	49685.77
722.38	49812.74
722.57	49401.10
722.76	49470.73
722.95	49294.61
723.13	49177.87
723.32	49116.43
723.51	48786.71
723.70	49325.33
723.88	49073.43
724.07	48784.66
724.26	49167.63
724.44	48354.59
724.63	48885.01
724.82	48805.14
725.01	48882.97
725.19	48762.14
725.38	48520.48
725.57	48473.37
725.76	48829.72
725.94	48319.77
726.13	48588.06
726.32	48663.83
726.51	48031.01
726.69	48524.57
726.88	48293.15
727.07	48479.52
727.25	48293.15
727.44	48004.39
727.63	48033.06
727.82	48143.65
728.00	48321.82
728.19	48231.71
728.38	48420.13
728.56	47838.50
728.75	48448.80
728.94	48117.03
729.12	48522.52
729.31	48010.53
729.50	48096.55
729.69	48375.07
729.87	48143.65
730.06	47873.32
730.25	48002.34
730.43	48592.15
730.62	47621.42
730.81	48305.44
730.99	47734.06
731.18	48039.20
731.37	48362.78
731.55	48379.17
731.74	48516.38
731.93	48205.09
732.11	48125.22
732.30	48047.39
732.49	47602.99
732.67	48071.97
732.86	47789.35
733.05	47809.83
733.23	47404.33
733.42	47805.73
733.61	47643.94
733.79	47674.66
733.98	48026.92
734.17	47899.94
734.35	47787.30
734.54	47627.56
734.73	47779.11
734.91	47838.50
735.10	47535.40
735.29	47955.24
735.47	47326.51
735.66	47719.72
735.84	47764.78
736.03	47172.91
736.22	47754.54
736.40	47349.04
736.59	47488.30
736.78	47336.75
736.96	47080.75
737.15	47050.03
737.33	46886.20
737.52	47500.59
737.71	46683.45
737.89	46908.72
738.08	46595.38
738.27	46884.15
738.45	47256.88
738.64	47336.75
738.82	46976.31
739.01	47191.34
739.20	47365.42
739.38	47308.08
739.57	47355.18
739.75	47555.88
739.94	47211.82
740.13	46921.01
740.31	47025.46
740.50	46806.33
740.68	46931.25
740.87	47265.07
741.06	47279.41
741.24	47396.14
741.43	46781.75
741.61	47088.95
741.80	46615.86
741.99	46628.15
742.17	46546.23
742.36	46773.56
742.54	46353.72
742.73	46535.99
742.91	46855.48
743.10	46581.05
743.29	46837.05
743.47	46427.45
743.66	46531.90
743.84	46300.48
744.03	46665.02
744.21	46667.06
744.40	46697.78
744.59	46703.93
744.77	46128.45
744.96	45882.69
745.14	46554.43
745.33	46323.01
745.51	46142.78
745.70	46484.79
745.88	46095.68
746.07	46388.54
746.26	46032.19
746.44	46157.12
746.63	46220.61
746.81	46290.24
747.00	46087.49
747.18	45999.43
747.37	46009.67
747.55	45831.49
747.74	46406.97
747.92	45974.85
748.11	46093.63
748.29	45557.06
748.48	45999.43
748.66	45770.05
748.85	45534.54
749.03	45548.87
749.22	45700.42
749.41	45589.83
749.59	45630.79
749.78	45835.59
749.96	44969.30
750.15	45354.32
750.33	45555.02
750.52	45548.87
750.70	45268.30
750.89	45352.27
751.07	44864.85
751.26	45020.50
751.44	45417.80
751.63	45180.24
751.81	45286.73
752.00	45010.26
752.18	45225.29
752.37	45124.94
752.55	44832.08
752.74	44635.48
752.92	44897.62
753.10	44698.97
753.29	44795.22
753.47	44621.14
753.66	44574.04
753.84	44764.50
754.03	44893.52
754.21	44227.93
754.40	44639.57
754.58	44780.88
754.77	44805.46
754.95	44649.81
755.14	44332.38
755.32	44752.21
755.51	44569.94
755.69	44242.27
755.88	44268.89
756.06	44680.53
756.24	44373.34
756.43	44289.37
756.61	44383.58
756.80	44397.91
756.98	44088.67
757.17	44260.70
757.35	44066.14
757.54	44416.35
757.72	44236.12
757.90	44205.41
758.09	44047.71
758.27	44268.89
758.46	44033.38
758.64	43916.64
758.83	44346.72
759.01	44062.05
759.19	44168.54
759.38	43943.27
759.56	44037.47
759.75	43756.90
759.93	43693.41
760.12	43654.50
760.30	43910.50
760.48	43726.18
760.67	43662.69
760.85	43908.45
761.04	43701.61
761.22	43707.75
761.40	43332.97
761.59	43423.08
761.77	43410.79
761.96	43572.58
762.14	43257.20
762.32	42988.91
762.51	43226.48
762.69	43173.23
762.88	42980.72
763.06	42966.38
763.24	43122.03
763.43	43083.12
763.61	42896.75
763.80	42943.86
763.98	42851.70
764.16	43222.38
764.35	42978.67
764.53	42667.38
764.72	43040.11
764.90	42894.71
765.08	42651.00
765.27	42931.57
765.45	42556.79
765.63	42171.77
765.82	42442.10
766.00	42325.37
766.18	42583.41
766.37	42999.15
766.55	42427.77
766.74	42290.55
766.92	41987.46
767.10	42646.90
767.29	42005.89
767.47	41784.71
767.65	42319.23
767.84	42153.34
768.02	42368.38
768.20	41989.50
768.39	42020.22
768.57	42351.99
768.75	42001.79
768.94	42147.20
769.12	41897.34
769.30	41575.81
769.49	41979.26
769.67	41569.67
769.85	41287.05
770.04	41926.02
770.22	41407.88
770.40	41446.79
770.59	41409.93
770.77	41547.14
770.95	41569.67
771.14	40967.57
771.32	40641.94
771.50	41022.86
771.69	41237.90
771.87	41266.57
772.05	40553.88
772.24	41020.81
772.42	41487.75
772.60	41016.72
772.78	40605.08
772.97	40951.18
773.15	40945.04
773.33	41051.53
773.52	40539.54
773.70	40693.14
773.88	40637.84
774.07	40691.09
774.25	40732.05
774.43	40959.38
774.61	40498.58
774.80	40768.91
774.98	41076.11
775.16	41348.49
775.34	40979.85
775.53	40498.58
775.71	41170.32
775.89	40924.56
776.08	40824.21
776.26	41198.99
776.44	41125.26
776.62	40596.88
776.81	40791.44
776.99	41270.67
777.17	41366.92
777.35	41196.94
777.54	40947.09
777.72	40852.88
777.90	40695.19
778.08	41137.55
778.27	41125.26
778.45	41002.38
778.63	41571.72
778.81	40816.02
779.00	41756.03
779.18	41252.23
779.36	41299.34
779.54	40752.53
779.73	40826.26
779.91	41842.05
780.09	41391.50
780.27	41796.99
780.46	41172.36
780.64	41741.70
780.82	41221.52
781.00	41506.18
781.19	41862.53
781.37	41684.36
781.55	41520.52
781.73	41745.80
781.91	41211.28
782.10	41342.35
782.28	41571.72
782.46	41411.98
782.64	41663.88
782.82	41162.12
783.01	41966.98
783.19	41735.56
783.37	41475.46
783.55	41885.06
783.74	41592.20
783.92	41014.67
784.10	42014.08
784.28	42096.00
784.46	41721.22
784.64	41846.15
784.83	41475.46
785.01	41612.68
785.19	41895.30
785.37	42161.53
785.55	41749.89
785.74	41280.91
785.92	41356.68
786.10	42083.71
786.28	41502.09
786.46	41368.97
786.64	41395.59
786.83	41026.96
787.01	41805.19
787.19	41500.04
787.37	41084.30
787.55	41264.52
787.74	41297.29
787.92	41158.03
788.10	40889.74
788.28	40488.34
788.46	40981.90
788.64	40949.14
788.82	40924.56
789.01	41387.40
789.19	40781.20
789.37	40805.78
789.55	40928.66
789.73	40537.49
789.91	40672.66
790.09	40705.43
790.28	40449.43
790.46	40224.15
790.64	40750.48
790.82	40336.79
791.00	40175.00
791.18	40103.32
791.36	39998.88
791.55	40431.00
791.73	40273.31
791.91	39814.56
792.09	40031.65
792.27	39880.10
792.45	40125.85
792.63	39824.80
792.81	39667.11
793.00	39548.32
793.18	39191.98
793.36	39097.77
793.54	39189.93
793.72	39032.24
793.90	39019.95
794.08	38876.59
794.26	38892.97
794.44	38688.18
794.62	38655.41
794.81	39116.20
794.99	38583.73
795.17	38149.56
795.35	38745.52
795.53	38604.21
795.71	38653.36
795.89	38221.24
796.07	38135.23
796.25	37854.65
796.43	37930.43
796.61	38225.34
796.80	37709.25
796.98	37707.20
797.16	37715.39
797.34	37596.61
797.52	37567.94
797.70	37479.88
797.88	37062.09
798.06	37144.01
798.24	37512.64
798.42	37041.61
798.60	37154.25
798.78	36931.02
798.96	37254.60
799.14	36652.50
799.32	36769.23
799.51	36466.13
799.69	36675.02
799.87	36902.35
800.05	36140.50
800.23	36443.60
800.41	35917.28
800.59	36210.14
800.77	35913.18
800.95	35853.79
801.13	35775.97
801.31	35870.17
801.49	35632.61
801.67	35620.32
801.85	35732.96
802.03	35433.96
802.21	35317.22
802.39	35327.46
802.57	35169.77
802.75	35278.31
802.93	35169.77
803.11	34891.24
803.29	34813.42
803.47	35034.60
803.65	34903.53
803.83	34692.59
804.01	34903.53
804.19	34354.68
804.37	34416.11
804.55	34674.16
804.73	34414.07
804.91	34493.94
805.09	34653.68
805.27	34035.19
805.45	34002.43
805.63	34270.71
805.81	34221.56
805.99	33981.95
806.17	33998.33
806.35	33756.67
806.53	33785.34
806.71	33951.23
806.89	33373.70
807.07	33508.86
807.25	33574.40
807.43	33625.60
807.61	33261.06
807.79	33134.09
807.97	33197.57
808.15	33261.06
808.33	32744.97
808.51	32910.86
808.69	32972.30
808.87	32611.85
809.05	32581.13
809.23	32663.05
809.41	32417.30
809.59	32226.84
809.77	32624.14
809.95	32175.64
810.13	32640.53
810.31	32210.45
810.49	32474.64
810.67	32312.85
810.84	32194.07
811.02	32267.80
811.20	31807.00
811.38	31802.91
811.56	31370.79
811.74	31993.37
811.92	31671.84
812.10	31469.09
812.28	31753.76
812.46	32169.49
812.64	31639.07
812.82	31520.29
813.00	31749.66
813.18	31614.49
813.36	30819.88
813.53	31262.24
813.71	31317.54
813.89	31227.43
814.07	31108.65
814.25	30897.70
814.43	30799.40
814.61	31032.87
814.79	30713.39
814.97	30840.36
815.15	30791.21
815.33	30533.17
815.50	30180.92
815.68	30592.56
815.86	30864.94
816.04	30219.83
816.22	30103.09
816.40	30518.83
816.58	30252.59
816.76	29922.87
816.94	30228.02
817.11	30019.13
817.29	30058.04
817.47	29947.45
817.65	29779.51
817.83	29859.38
818.01	29318.72
818.19	29969.97
818.37	29398.59
818.54	29466.17
818.72	29724.22
818.90	29728.31
819.08	29390.40
819.26	29427.26
819.44	29742.65
819.62	29111.88
819.80	29527.61
819.97	29183.55
820.15	29400.64
820.33	29095.49
820.51	29003.33
820.69	28862.02
820.87	29216.32
821.05	28786.25
821.22	28923.46
821.40	29029.96
821.58	28567.12
821.76	28821.06
821.94	28974.66
822.12	28864.07
822.29	28886.60
822.47	28780.10
822.65	28806.73
822.83	28784.20
823.01	28548.68
823.19	28274.26
823.36	28485.20
823.54	28290.64
823.72	28304.98
823.90	28390.99
824.08	28106.32
824.25	28454.48
824.43	28147.28
824.61	28231.25
824.79	27965.01
824.97	28085.84
825.15	28096.08
825.32	28100.18
825.50	27854.42
825.68	27922.01
825.86	27817.56
826.04	27981.40
826.21	27917.91
826.39	27913.81
826.57	27620.95
826.75	27649.63
826.93	27600.47
827.10	27551.32
827.28	27711.07
827.46	27371.10
827.64	27606.62
827.81	27287.14
827.99	27346.53
828.17	26988.13
828.35	27248.22
828.53	27287.14
828.70	27229.79
828.88	27340.38
829.06	27113.06
829.24	27518.56
829.41	27029.09
829.59	27201.12
829.77	27029.09
829.95	26883.69
830.12	26766.95
830.30	27006.56
830.48	27147.87
830.66	27016.80
830.84	26736.23
831.01	26629.74
831.19	26617.45
831.37	26529.39
831.55	26404.46
831.72	26938.98
831.90	26678.89
832.08	26654.31
832.25	26478.19
832.43	26572.39
832.61	26316.40
832.79	26375.79
832.96	26513.00
833.14	26510.96
833.32	26594.92
833.50	26470.00
833.67	25937.52
833.85	26433.13
834.03	26019.44
834.20	26494.57
834.38	26230.38
834.56	26357.36
834.74	25931.38
834.91	26232.43
835.09	26195.57
835.27	25638.52
835.44	25663.10
835.62	25667.19
835.80	25912.95
835.98	25806.45
836.15	25808.50
836.33	25669.24
836.51	25917.04
836.68	25638.52
836.86	25728.63
837.04	25751.16
837.21	25667.19
837.39	25724.54
837.57	25695.86
837.75	25783.93
837.92	25523.83
838.10	25271.93
838.28	25224.83
838.45	25364.09
838.63	25091.71
838.81	25364.09
838.98	25228.93
839.16	25388.67
839.34	25069.19
839.51	25022.08
839.69	25034.37
839.87	24964.74
840.04	25208.45
840.22	25384.57
840.40	24751.75
840.57	24974.98
840.75	25020.03
840.93	24688.26
841.10	24964.74
841.28	24983.17
841.46	24802.95
841.63	25005.70
841.81	24675.98
841.98	24927.88
842.16	25015.94
842.34	24843.91
842.51	24561.29
842.69	24751.75
842.87	24665.74
843.04	24725.13
843.22	24434.32
843.40	24573.58
843.57	24411.79
843.75	24393.36
843.92	24497.80
844.10	24256.14
844.28	24712.84
844.45	24276.62
844.63	24413.84
844.81	24430.22
844.98	24518.28
845.16	24307.34
845.33	24067.73
845.51	24376.97
845.69	24194.70
845.86	24170.13
846.04	24006.29
846.21	24127.12
846.39	24137.36
846.57	24102.54
846.74	23969.43
846.92	23869.08
847.09	23883.41
847.27	23705.24
847.45	23762.58
847.62	23862.93
847.80	23781.01
847.97	23613.08
848.15	23846.55
848.32	23592.60
848.50	23758.49
848.68	23422.62
848.85	23512.73
849.03	23322.27
849.20	23686.81
849.38	23592.60
849.56	23375.52
849.73	23269.02
849.91	23314.08
850.08	23447.19
850.26	23346.84
850.43	23498.39
850.61	23217.82
850.78	23242.40
850.96	23193.25
851.14	22916.77
851.31	23189.15
851.49	23262.88
851.66	23252.64
851.84	23328.41
852.01	23002.78
852.19	23060.13
852.36	23178.91
852.54	22861.48
852.71	22841.00
852.89	23254.69
853.07	22875.81
853.24	23131.81
853.42	23031.46
853.59	22804.13
853.77	22738.60
853.94	23254.69
854.12	22748.84
854.29	22537.90
854.47	22711.97
854.64	22664.87
854.82	22605.48
854.99	23027.36
855.17	22546.09
855.34	22568.62
855.52	22691.49
855.69	22658.73
855.87	22535.85
856.04	22462.12
856.22	22525.61
856.39	22204.08
856.57	22652.58
856.74	22269.61
856.92	22202.03
857.09	22058.67
857.27	22005.42
857.44	22187.69
857.62	22089.39
857.79	21948.08
857.97	22212.27
858.14	22156.97
858.32	21933.75
858.49	22079.15
858.67	22091.44
858.84	21776.05
859.02	21950.13
859.19	21970.61
859.37	21638.84
859.54	21634.74
859.72	22185.65
859.89	21864.11
860.06	21915.31
860.24	21718.71
860.41	21888.69
860.59	21481.14
860.76	21927.60
860.94	21814.96
861.11	21653.17
861.29	21792.44
861.46	21599.93
861.64	21472.95
861.81	21585.59
861.98	21391.03
862.16	21202.62
862.33	21348.03
862.51	21284.54
862.68	21307.07
862.86	21270.20
863.03	21286.59
863.21	21022.40
863.38	21206.72
863.55	21413.56
863.73	21085.89
863.90	21214.91
864.08	21046.97
864.25	21165.76
864.43	21028.54
864.60	21075.65
864.77	20842.18
864.95	21059.26
865.12	20801.22
865.30	20965.06
865.47	20747.97
865.64	20627.14
865.82	20948.67
865.99	20883.14
866.17	20848.32
866.34	21049.02
866.51	20399.82
866.69	20670.15
866.86	20504.26
867.04	20426.44
867.21	20367.05
867.38	20434.63
867.56	20186.83
867.73	20086.48
867.91	20293.32
868.08	20022.99
868.25	20250.32
868.43	20029.13
868.60	20133.58
868.78	20145.87
868.95	20453.06
869.12	20440.78
869.30	19947.22
869.47	19932.88
869.64	20066.00
869.82	19951.31
869.99	19896.02
870.16	19920.59
870.34	20053.71
870.51	19945.17
870.69	19744.47
870.86	19844.82
871.03	20059.85
871.21	19830.48
871.38	19838.67
871.55	19658.45
871.73	19551.96
871.90	19379.93
872.07	19543.77
872.25	19224.28
872.42	19361.50
872.59	19613.40
872.77	19554.01
872.94	19285.72
873.11	19355.35
873.29	19279.58
873.46	19341.02
873.63	19068.64
873.81	19050.21
873.98	18859.74
874.15	19173.08
874.33	18822.88
874.50	18800.35
874.67	18831.07
874.85	18953.95
875.02	18505.45
875.19	18734.82
875.37	18509.54
875.54	18818.78
875.71	18505.45
875.88	18564.84
876.06	18824.93
876.23	18736.87
876.40	18472.68
876.58	18380.52
876.75	18231.02
876.92	18423.53
877.10	18202.35
877.27	18319.08
877.44	18421.48
877.61	18108.14
877.79	18132.72
877.96	18216.68
878.13	18339.56
878.31	17985.26
878.48	18073.32
878.65	18015.98
878.82	17686.26
879.00	17897.20
879.17	17913.58
879.34	17970.93
879.51	17944.30
879.69	17878.77
879.86	17796.85
880.03	17747.70
880.21	17889.01
880.38	17721.07
880.55	17843.95
880.72	17854.19
880.90	17649.39
881.07	17514.23
881.24	17708.79
881.41	17374.97
881.59	17651.44
881.76	17303.29
881.93	17317.62
882.10	17460.98
882.28	17149.69
882.45	17288.95
882.62	17153.79
882.79	17325.82
882.96	16903.93
883.14	17133.31
883.31	17168.12
883.48	17286.90
883.65	17149.69
883.83	17338.10
884.00	17303.29
884.17	17157.88
884.34	17069.82
884.51	17000.19
884.69	16852.73
884.86	16801.54
885.03	16779.01
885.20	16703.23
885.38	16895.74
885.55	16881.41
885.72	16852.73
885.89	16654.08
886.06	16762.62
886.24	16629.51
886.41	16703.23
886.58	16731.90
886.75	16738.05
886.92	16406.28
887.10	16852.73
887.27	16412.42
887.44	16717.57
887.61	16881.41
887.78	16561.92
887.95	16598.79
888.13	16910.08
888.30	16346.89
888.47	16525.06
888.64	16301.83
888.81	16606.98
888.99	16318.22
889.16	16267.02
889.33	16375.56
889.50	16187.14
889.67	16267.02
889.84	16064.27
890.01	16267.02
890.19	16023.31
890.36	16011.02
890.53	15945.48
890.70	15951.63
890.87	15882.00
891.04	16140.04
891.22	16011.02
891.39	15978.25
891.56	16099.08
891.73	15816.46
891.90	16006.92
892.07	15875.85
892.24	15722.26
892.42	15650.58
892.59	15554.32
892.76	15619.86
892.93	15511.32
893.10	15517.46
893.27	15636.24
893.44	15331.09
893.61	15413.01
893.79	15732.50
893.96	15312.66
894.13	15558.42
894.30	15798.03
894.47	15519.51
894.64	15750.93
894.81	15341.33
894.98	15417.11
895.15	15564.56
895.33	15460.12
895.50	15310.61
895.67	15558.42
895.84	15445.78
896.01	15402.77
896.18	15499.03
896.35	15382.29
896.52	15370.01
896.69	15210.26
896.86	15464.21
897.04	15247.13
897.21	15206.17
897.38	15394.58
897.55	15265.56
897.72	15337.24
897.89	15429.40
898.06	15363.86
898.23	15427.35
898.40	15324.95
898.57	15398.68
898.74	15124.25
898.91	15390.49
899.08	14915.36
899.26	15417.11
899.43	15499.03
899.60	15210.26
899.77	15122.20
899.94	15159.06
900.11	15204.12
900.28	15179.54
900.45	15126.30
900.62	15308.57
900.79	15206.17
900.96	15095.58
901.13	15281.94
901.30	15140.63
901.47	15042.33
901.64	15214.36
901.81	15378.20
901.98	15208.22
902.15	15159.06
902.32	15097.63
902.49	15044.38
902.66	15089.43
902.83	15177.50
903.01	15050.52
903.18	15273.75
903.35	15292.18
903.52	15118.11
903.69	15212.31
903.86	15304.47
904.03	15087.39
904.20	15423.25
904.37	15134.49
904.54	15339.29
904.71	15062.81
904.88	15050.52
905.05	14886.68
905.22	14896.92
905.39	15011.61
905.56	15081.24
905.73	14898.97
905.90	14976.80
906.07	15109.91
906.24	15036.19
906.41	14976.80
906.58	15025.95
906.75	14921.50
906.92	14858.01
907.09	14702.37
907.26	15130.39
907.43	14921.50
907.60	14939.93
907.77	15103.77
907.93	14956.32
908.10	15142.68
908.27	14954.27
908.44	14941.98
908.61	14673.70
908.78	14888.73
908.95	14905.12
909.12	14614.30
909.29	14761.76
909.46	14788.38
909.63	14898.97
909.80	14878.49
909.97	14950.17
910.14	14815.01
910.31	14665.50
910.48	14968.60
910.65	14909.21
910.82	14772.00
910.99	15011.61
911.16	14962.46
911.33	14827.29
911.50	14978.84
911.66	14354.21
911.83	14726.94
912.00	14516.00
912.17	14640.93
912.34	14614.30
912.51	14554.91
912.68	14460.71
912.85	14569.25
913.02	14378.79
913.19	14235.43
913.36	14544.67
913.53	14509.86
913.70	14479.14
913.86	14460.71
914.03	14485.28
914.20	14282.53
914.37	14565.15
914.54	14155.56
914.71	14298.92
914.88	14333.73
915.05	14247.72
915.22	14329.64
915.39	14227.24
915.55	14010.15
915.72	13979.43
915.89	14100.26
916.06	13946.67
916.23	13844.27
916.40	13913.90
916.57	13729.58
916.74	13862.70
916.91	13823.79
917.07	13668.14
917.24	13547.31
917.41	13778.73
917.58	13676.34
917.75	13553.46
917.92	13504.31
918.09	13528.88
918.26	13440.82
918.42	13649.71
918.59	13621.04
918.76	13385.52
918.93	13143.86
919.10	13365.04
919.27	12990.27
919.44	13422.39
919.60	13346.61
919.77	13430.58
919.94	13092.66
920.11	13272.89
920.28	13190.97
920.45	13041.46
920.61	12988.22
920.78	12730.17
920.95	12871.48
921.12	12914.49
921.29	12771.13
921.46	12910.40
921.62	12746.56
921.79	12705.60
921.96	12711.74
922.13	12658.49
922.30	12719.93
922.47	12439.36
922.63	12615.49
922.80	12568.38
922.97	12353.35
923.14	12248.90
923.31	12316.48
923.47	12244.81
923.64	12291.91
923.81	12046.15
923.98	11925.32
924.15	12113.74
924.32	12212.04
924.48	12240.71
924.65	12265.28
924.82	12013.38
924.99	12052.30
925.15	11804.49
925.32	11931.47
925.49	11808.59
925.66	11773.77
925.83	11718.48
925.99	11812.68
926.16	11636.56
926.33	11714.38
926.50	11489.10
926.67	11644.75
926.83	11624.27
927.00	11364.18
927.17	11317.08
927.34	11343.70
927.50	11312.98
927.67	11517.78
927.84	11097.94
928.01	11362.13
928.17	11110.23
928.34	11229.01
928.51	11050.84
928.68	10985.30
928.84	10829.66
929.01	10725.21
929.18	10700.64
929.35	10755.93
929.51	10712.92
929.68	10569.57
929.85	10612.57
930.02	10663.77
930.18	10463.07
930.35	10512.22
930.52	10669.92
930.69	10479.46
930.85	10461.02
931.02	10164.07
931.19	10266.47
931.36	10139.49
931.52	10252.13
931.69	10194.79
931.86	10389.35
932.02	10010.47
932.19	9996.14
932.36	10082.15
932.53	10045.29
932.69	9969.51
932.86	10035.05
933.03	9822.06
933.19	9742.19
933.36	9822.06
933.53	9826.15
933.70	9672.56
933.86	9609.07
934.03	9484.14
934.20	9293.68
934.36	9678.70
934.53	9121.65
934.70	9228.15
934.86	9322.35
935.03	9060.21
935.20	8966.01
935.36	9095.03
935.53	8886.14
935.70	8863.61
935.86	8953.72
936.03	8722.30
936.20	8685.44
936.36	8644.48
936.53	8802.17
936.70	8519.55
936.86	8595.32
937.03	8372.10
937.20	8302.47
937.36	8261.51
937.53	8009.61
937.70	8040.33
937.86	7966.60
938.03	7935.88
938.20	7935.88
938.36	7745.42
938.53	7708.55
938.70	7434.13
938.86	7653.26
939.03	7374.74
939.20	7331.73
939.36	7280.53
939.53	7202.71
939.70	7333.78
939.86	7010.20
940.03	6975.38
940.19	6791.06
940.36	6819.74
940.53	6846.36
940.69	6719.39
940.86	6731.67
941.03	6455.20
941.19	6483.87
941.36	6381.47
941.52	6340.51
941.69	6289.31
941.86	6305.70
942.02	6201.25
942.19	6180.77
942.35	6186.91
942.52	6057.89
942.69	6016.93
942.85	5877.67
943.02	5879.72
943.18	5838.76
943.35	5814.18
943.52	5810.09
943.68	5769.13
943.85	5750.70
944.01	5627.82
944.18	5562.28
944.35	5726.12
944.51	5568.43
944.68	5439.40
944.84	5513.13
945.01	5398.45
945.17	5474.22
945.34	5371.82
945.51	5316.53
945.67	5453.74
945.84	5377.97
946.00	5343.15
946.17	5408.69
946.33	5488.56
946.50	5439.40
946.67	5406.64
946.83	5437.36
947.00	5337.01
947.16	5277.62
947.33	5285.81
947.49	5199.79
947.66	5210.03
947.82	5427.12
947.99	5384.11
948.16	5357.49
948.32	5425.07
948.49	5193.65
948.65	5320.62
948.82	5457.84
948.98	5341.10
949.15	5160.88
949.31	5377.97
949.48	5351.34
949.64	5304.24
949.81	5320.62
949.97	5234.61
950.14	5316.53
950.30	5287.86
950.47	5400.49
950.63	5255.09
950.80	5361.58
950.96	5250.99
951.13	5371.82
951.30	5388.21
951.46	5461.93
951.63	5441.45
951.79	5269.42
951.96	5244.85
952.12	5328.81
952.29	5400.49
952.45	5361.58
952.62	5369.77
952.78	5406.64
952.94	5427.12
953.11	5394.35
953.27	5263.28
953.44	5588.91
953.60	5558.19
953.77	5402.54
953.93	5547.95
954.10	5410.73
954.26	5515.18
954.43	5439.40
954.59	5461.93
954.76	5541.80
954.92	5412.78
955.09	5504.94
955.25	5382.06
955.42	5603.24
955.58	5558.19
955.75	5488.56
955.91	5441.45
956.07	5396.40
956.24	5547.95
956.40	5488.56
956.57	5545.90
956.73	5451.69
956.90	5357.49
957.06	5472.17
957.23	5476.27
957.39	5334.96
957.56	5468.08
957.72	5384.11
957.88	5349.29
958.05	5533.61
958.21	5648.30
958.38	5523.37
958.54	5525.42
958.71	5484.46
958.87	5320.62
959.03	5488.56
959.20	5412.78
959.36	5353.39
959.53	5400.49
959.69	5408.69
959.85	5459.88
960.02	5457.84
960.18	5500.84
960.35	5474.22
960.51	5509.04
960.68	5433.26
960.84	5410.73
961.00	5418.93
961.17	5461.93
961.33	5279.66
961.50	5482.41
961.66	5478.32
961.82	5457.84
961.99	5459.88
962.15	5459.88
962.31	5414.83
962.48	5418.93
962.64	5500.84
962.81	5506.99
962.97	5369.77
963.13	5566.38
963.30	5380.01
963.46	5431.21
963.62	5447.60
963.79	5427.12
963.95	5353.39
964.12	5369.77
964.28	5584.81
964.44	5285.81
964.61	5394.35
964.77	5605.29
964.93	5461.93
965.10	5337.01
965.26	5367.73
965.42	5277.62
965.59	5298.10
965.75	5300.14
965.92	5351.34
966.08	5369.77
966.24	5441.45
966.41	5277.62
966.57	5304.24
966.73	5220.27
966.90	5351.34
967.06	5230.51
967.22	5121.97
967.39	5322.67
967.55	5189.55
967.71	5214.13
967.88	5320.62
968.04	5181.36
968.20	5238.70
968.37	5259.18
968.53	5189.55
968.69	5300.14
968.85	5216.18
969.02	5300.14
969.18	5246.90
969.34	5259.18
969.51	5320.62
969.67	5187.50
969.83	5058.48
970.00	5187.50
970.16	5132.21
970.32	5099.44
970.48	5152.69
970.65	5029.81
970.81	4886.45
970.97	5044.15
971.14	4935.60
971.30	5097.39
971.46	5091.25
971.63	5076.91
971.79	5121.97
971.95	5091.25
972.11	4997.04
972.28	4933.56
972.44	5078.96
972.60	4859.83
972.76	5107.63
972.93	5044.15
973.09	5033.91
973.25	4925.36
973.42	4980.66
973.58	4980.66
973.74	4847.54
973.90	4880.31
974.07	4837.30
974.23	4982.71
974.39	4861.88
974.55	4872.12
974.72	4759.48
974.88	4659.13
975.04	4874.17
975.20	4736.95
975.37	4939.70
975.53	4833.21
975.69	4761.53
975.85	4763.58
976.01	4753.34
976.18	4693.94
976.34	4847.54
976.50	4902.84
976.66	4743.10
976.83	4743.10
976.99	4618.17
977.15	4734.90
977.31	4644.79
977.47	4710.33
977.64	4767.67
977.80	4644.79
977.96	4726.71
978.12	4638.65
978.29	4626.36
978.45	4442.04
978.61	4605.88
978.77	4691.90
978.93	4509.63
979.10	4597.69
979.26	4566.97
979.42	4497.34
979.58	4343.74
979.74	4464.57
979.91	4534.20
980.07	4485.05
980.23	4483.00
980.39	4360.13
980.55	4337.60
980.71	4493.24
980.88	4343.74
981.04	4462.52
981.20	4462.52
981.36	4452.28
981.52	4423.61
981.68	4392.89
981.85	4284.35
982.01	4419.52
982.17	4401.08
982.33	4386.75
982.49	4370.37
982.65	4222.91
982.82	4468.67
982.98	4288.45
983.14	4184.00
983.30	4245.44
983.46	4339.65
983.62	4280.25
983.79	4272.06
983.95	4282.30
984.11	4140.99
984.27	4257.73
984.43	4100.03
984.59	4272.06
984.75	4224.96
984.91	4249.54
985.08	4222.91
985.24	4136.90
985.40	4085.70
985.56	4061.12
985.72	4151.23
985.88	4128.70
986.04	3987.40
986.20	4042.69
986.37	4120.51
986.53	4024.26
986.69	3993.54
986.85	4130.75
987.01	4022.21
987.17	4022.21
987.33	4071.36
987.49	3909.57
987.65	4110.27
987.82	4046.79
987.98	3901.38
988.14	3923.91
988.30	4016.07
988.46	3925.96
988.62	3790.79
988.78	3885.00
988.94	3903.43
989.10	3885.00
989.26	3839.94
989.42	3938.24
989.59	3870.66
989.75	3698.63
989.91	3741.64
990.07	3661.77
990.23	3809.22
990.39	3848.13
990.55	3852.23
990.71	3731.40
990.87	3710.92
991.03	3928.00
991.19	3706.82
991.35	3741.64
991.51	3829.70
991.67	3731.40
991.83	3805.13
992.00	3792.84
992.16	3764.17
992.32	3782.60
992.48	3786.69
992.64	3629.00
992.80	3692.49
992.96	3723.21
993.12	3704.78
993.28	3641.29
993.44	3721.16
993.60	3659.72
993.76	3653.58
993.92	3602.38
994.08	3776.45
994.24	3547.08
994.40	3653.58
994.56	3629.00
994.72	3633.10
994.88	3514.31
995.04	3524.55
995.20	3561.42
995.36	3557.32
995.52	3526.60
995.68	3522.51
995.84	3399.63
996.00	3559.37
996.16	3493.83
996.32	3475.40
996.48	3590.09
996.64	3514.31
996.80	3526.60
996.96	3493.83
997.12	3389.39
997.28	3383.24
997.44	3346.38
997.60	3379.15
997.76	3309.52
997.92	3401.68
998.08	3477.45
998.24	3295.18
998.40	3379.15
998.56	3475.40
998.72	3207.12
998.88	3317.71
999.04	3354.57
999.20	3387.34
999.36	3182.54
999.52	3336.14
999.68	3327.95
999.84	3305.42
1000.00	3305.42
1000.16	3270.61
1000.32	3055.57
1000.48	3387.34
1000.64	3243.98
1000.80	3149.78
1000.95	3157.97
1001.11	3289.04
1001.27	3190.74
1001.43	3198.93
1001.59	3133.39
1001.75	3131.34
1001.91	3125.20
1002.07	3151.82
1002.23	3127.25
1002.39	3151.82
1002.55	3108.82
1002.71	3090.38
1002.87	3119.06
1003.03	3137.49
1003.19	3043.28
1003.34	2992.08
1003.50	3127.25
1003.66	3096.53
1003.82	3172.30
1003.98	2938.84
1004.14	3100.62
1004.30	2992.08
1004.46	2990.03
1004.62	2957.27
1004.78	3022.80
1004.94	3051.47
1005.09	3039.19
1005.25	3063.76
1005.41	2990.03
1005.57	3035.09
1005.73	2934.74
1005.89	2985.94
1006.05	3010.51
1006.21	2949.08
1006.37	2846.68
1006.52	2873.30
1006.68	2840.53
1006.84	2975.70
1007.00	2842.58
1007.16	2924.50
1007.32	2885.59
1007.48	2848.72
1007.64	2830.29
1007.79	2957.27
1007.95	2865.11
1008.11	2934.74
1008.27	2830.29
1008.43	2867.16
1008.59	2828.24
1008.75	2891.73
1008.91	2852.82
1009.06	2742.23
1009.22	2830.29
1009.38	2750.42
1009.54	2838.48
1009.70	2731.99
1009.86	2736.09
1010.01	2793.43
1010.17	2676.70
1010.33	2744.28
1010.49	2746.33
1010.65	2815.96
1010.81	2670.55
1010.96	2666.46
1011.12	2639.83
1011.28	2559.96
1011.44	2731.99
1011.60	2748.37
1011.76	2822.10
1011.91	2727.89
1012.07	2631.64
1012.23	2578.39
1012.39	2695.13
1012.55	2508.76
1012.71	2641.88
1012.86	2582.49
1013.02	2650.07
1013.18	2559.96
1013.34	2531.29
1013.50	2670.55
1013.65	2641.88
1013.81	2547.67
1013.97	2574.30
1014.13	2551.77
1014.29	2551.77
1014.44	2605.02
1014.60	2576.34
1014.76	2668.50
1014.92	2594.78
1015.07	2514.91
1015.23	2584.54
1015.39	2508.76
1015.55	2519.00
1015.71	2535.39
1015.86	2508.76
1016.02	2437.08
1016.18	2379.74
1016.34	2387.93
1016.49	2475.99
1016.65	2564.06
1016.81	2500.57
1016.97	2490.33
1017.12	2478.04
1017.28	2396.12
1017.44	2263.01
1017.60	2445.27
1017.75	2365.40
1017.91	2389.98
1018.07	2439.13
1018.23	2326.49
1018.38	2320.35
1018.54	2322.40
1018.70	2418.65
1018.86	2340.83
1019.01	2379.74
1019.17	2404.32
1019.33	2435.03
1019.49	2379.74
1019.64	2381.79
1019.80	2353.12
1019.96	2326.49
1020.12	2342.88
1020.27	2250.72
1020.43	2344.92
1020.59	2357.21
1020.74	2258.91
1020.90	2344.92
1021.06	2291.68
1021.22	2316.25
1021.37	2287.58
1021.53	2271.20
1021.69	2301.92
1021.84	2246.62
1022.00	2371.55
1022.16	2199.52
1022.31	2265.05
1022.47	2373.60
1022.63	2312.16
1022.79	2136.03
1022.94	2154.46
1023.10	2312.16
1023.26	2127.84
1023.41	2232.29
1023.57	2158.56
1023.73	2236.38
1023.88	2308.06
1024.04	2105.31
1024.20	2256.86
1024.35	2203.61
1024.51	2222.05
1024.67	2172.89
1024.82	2318.30
1024.98	2078.69
1025.14	2084.83
1025.29	2236.38
1025.45	2226.14
1025.61	2101.22
1025.76	2138.08
1025.92	2158.56
1026.08	2076.64
1026.23	2203.61
1026.39	2197.47
1026.55	2170.85
1026.70	2076.64
1026.86	2066.40
1027.02	2199.52
1027.17	2195.42
1027.33	2109.41
1027.48	2127.84
1027.64	2084.83
1027.80	2021.35
1027.95	2041.82
1028.11	1998.82
1028.27	1970.15
1028.42	2109.41
1028.58	2047.97
1028.73	1916.90
1028.89	1908.71
1029.05	2060.26
1029.20	1992.67
>>>>>End Processed Spectral Data<<<<<
