SpectraSuite Data File
++++++++++++++++++++++++++++++++++++
Date: Fri Jun 02 14:49:24 CEST 2017
User: INFO_000
Dark Spectrum Present: No
Reference Spectrum Present: No
Number of Sampled Component Spectra: 1
Spectrometers: USB4H00879
Integration Time (usec): 80000 (USB4H00879)
Spectra Averaged: 1 (USB4H00879)
Boxcar Smoothing: 0 (USB4H00879)
Correct for Electrical Dark: No (USB4H00879)
Strobe/Lamp Enabled: No (USB4H00879)
Correct for Detector Non-linearity: No (USB4H00879)
Correct for Stray Light: No (USB4H00879)
Number of Pixels in Processed Spectrum: 3648
>>>>>Begin Processed Spectral Data<<<<<
345.13	1271.79
345.34	1271.79
345.56	1271.79
345.78	1306.60
345.99	1255.40
346.21	1695.72
346.42	1724.39
346.64	1679.33
346.86	1841.12
347.07	1689.57
347.29	1705.96
347.50	1576.94
347.72	1677.29
347.94	1673.19
348.15	1533.93
348.37	1636.33
348.59	1695.72
348.80	1628.14
349.02	1837.03
349.23	1798.12
349.45	1771.49
349.67	1789.92
349.88	1773.54
350.10	1941.47
350.31	1763.30
350.53	1759.21
350.75	1894.37
350.96	1746.92
351.18	1775.59
351.39	1787.88
351.61	1742.82
351.82	1839.08
352.04	1859.56
352.26	1732.58
352.47	1839.08
352.69	1886.18
352.90	1617.90
353.12	1839.08
353.34	1734.63
353.55	1855.46
353.77	1820.64
353.98	1755.11
354.20	1765.35
354.41	1898.47
354.63	1857.51
354.85	1974.24
355.06	1834.98
355.28	1665.00
355.49	1884.13
355.71	1826.79
355.92	1816.55
356.14	1847.27
356.35	1847.27
356.57	1826.79
356.79	1871.84
357.00	1779.68
357.22	1925.09
357.43	1779.68
357.65	1871.84
357.86	1753.06
358.08	1828.84
358.29	1789.92
358.51	1875.94
358.72	1939.43
358.94	1869.80
359.16	1837.03
359.37	1892.32
359.59	1894.37
359.80	1943.52
360.02	1822.69
360.23	1853.41
360.45	1920.99
360.66	1847.27
360.88	1877.99
361.09	1902.56
361.31	1830.88
361.52	1861.60
361.74	2009.06
361.95	2007.01
362.17	1853.41
362.38	1992.67
362.60	1990.63
362.81	1892.32
363.03	1904.61
363.24	1826.79
363.46	1974.24
363.67	1857.51
363.89	1855.46
364.10	1945.57
364.32	1920.99
364.53	1961.95
364.75	1810.40
364.96	1912.80
365.18	1910.75
365.39	1951.71
365.61	1888.23
365.82	2074.59
366.04	2011.11
366.25	1888.23
366.47	1957.86
366.68	1943.52
366.90	1953.76
367.11	1994.72
367.33	2013.15
367.54	1935.33
367.76	1974.24
367.97	2039.78
368.19	1996.77
368.40	2007.01
368.62	1886.18
368.83	1947.62
369.05	1955.81
369.26	1925.09
369.48	1839.08
369.69	1943.52
369.91	1986.53
370.12	1943.52
370.33	2009.06
370.55	1935.33
370.76	1871.84
370.98	2097.12
371.19	2060.26
371.41	1945.57
371.62	1970.15
371.84	1937.38
372.05	2084.83
372.27	1978.34
372.48	1966.05
372.69	1980.39
372.91	2138.08
373.12	2013.15
373.34	2007.01
373.55	2088.93
373.77	2146.27
373.98	1992.67
374.20	2164.70
374.41	2187.23
374.62	2050.02
374.84	2123.74
375.05	2074.59
375.27	2183.13
375.48	2207.71
375.70	2140.13
375.91	2228.19
376.12	2230.24
376.34	2133.98
376.55	2082.78
376.77	2150.37
376.98	2011.11
377.19	2123.74
377.41	2140.13
377.62	2187.23
377.84	2199.52
378.05	2328.54
378.27	2164.70
378.48	2211.81
378.69	2332.64
378.91	2271.20
379.12	2256.86
379.34	2232.29
379.55	2252.77
379.76	2277.34
379.98	2301.92
380.19	2234.33
380.41	2160.61
380.62	2267.10
380.83	2203.61
381.05	2146.27
381.26	2467.80
381.47	2181.09
381.69	2203.61
381.90	2389.98
382.12	2273.25
382.33	2314.20
382.54	2222.05
382.76	2267.10
382.97	2197.47
383.19	2265.05
383.40	2349.02
383.61	2320.35
383.83	2228.19
384.04	2412.51
384.25	2389.98
384.47	2402.27
384.68	2340.83
384.89	2285.53
385.11	2275.29
385.32	2232.29
385.54	2361.31
385.75	2314.20
385.96	2383.84
386.18	2449.37
386.39	2351.07
386.60	2254.81
386.82	2437.08
387.03	2328.54
387.24	2453.47
387.46	2432.99
387.67	2471.90
387.88	2412.51
388.10	2490.33
388.31	2437.08
388.52	2594.78
388.74	2549.72
388.95	2502.62
389.16	2527.19
389.38	2502.62
389.59	2602.97
389.80	2602.97
390.02	2596.82
390.23	2535.39
390.44	2394.08
390.66	2514.91
390.87	2447.32
391.08	2478.04
391.30	2559.96
391.51	2619.35
391.72	2615.26
391.94	2648.02
392.15	2680.79
392.36	2592.73
392.58	2494.43
392.79	2650.07
393.00	2662.36
393.22	2721.75
393.43	2809.81
393.64	2772.95
393.85	2793.43
394.07	2635.74
394.28	2754.52
394.49	2697.17
394.71	2705.37
394.92	2744.28
395.13	2684.89
395.35	2715.61
395.56	2695.13
395.77	2754.52
395.98	2809.81
396.20	2674.65
396.41	2785.24
396.62	2850.77
396.84	2744.28
397.05	2838.48
397.26	2848.72
397.47	2994.13
397.69	2795.48
397.90	3012.56
398.11	2934.74
398.32	2836.44
398.54	2887.64
398.75	2875.35
398.96	2924.50
399.18	3067.86
399.39	2959.31
399.60	2873.30
399.81	2836.44
400.03	2820.05
400.24	3223.50
400.45	2951.12
400.66	3059.67
400.88	2979.79
401.09	3223.50
401.30	3028.95
401.51	3104.72
401.73	3082.19
401.94	3043.28
402.15	3121.10
402.36	3047.38
402.58	3145.68
402.79	3178.45
403.00	3160.02
403.21	3125.20
403.43	3231.69
403.64	3278.80
403.85	3110.86
404.06	3235.79
404.27	3053.52
404.49	3125.20
404.70	3174.35
404.91	3170.26
405.12	3203.02
405.34	3213.26
405.55	3340.24
405.76	3063.76
405.97	3209.17
406.19	3280.85
406.40	3213.26
406.61	3297.23
406.82	3264.46
407.03	3250.13
407.25	3301.33
407.46	3434.44
407.67	3381.20
407.88	3442.64
408.09	3293.13
408.31	3352.52
408.52	3401.68
408.73	3426.25
408.94	3344.33
409.15	3465.16
409.37	3526.60
409.58	3495.88
409.79	3459.02
410.00	3575.75
410.21	3266.51
410.43	3293.13
410.64	3434.44
410.85	3477.45
411.06	3475.40
411.27	3549.13
411.48	3637.19
411.70	3569.61
411.91	3639.24
412.12	3688.39
412.33	3557.32
412.54	3461.07
412.76	3669.96
412.97	3614.66
413.18	3616.71
413.39	3688.39
413.60	3678.15
413.81	3645.38
414.03	3600.33
414.24	3590.09
414.45	3794.89
414.66	3499.98
414.87	3643.34
415.08	3588.04
415.30	3631.05
415.51	3708.87
415.72	3624.90
415.93	3739.59
416.14	3731.40
416.35	3753.93
416.56	3749.83
416.78	3803.08
416.99	3803.08
417.20	3862.47
417.41	3889.09
417.62	3919.81
417.83	3854.28
418.04	3889.09
418.26	3950.53
418.47	3813.32
418.68	3901.38
418.89	3852.23
419.10	3936.20
419.31	3987.40
419.52	3981.25
419.73	4165.57
419.95	4009.92
420.16	3925.96
420.37	3907.52
420.58	4030.40
420.79	3850.18
421.00	4089.79
421.21	4143.04
421.42	4024.26
421.63	4026.31
421.85	4071.36
422.06	4257.73
422.27	4233.15
422.48	4085.70
422.69	4071.36
422.90	4347.84
423.11	4177.86
423.32	4218.82
423.53	4288.45
423.75	4237.25
423.96	4349.89
424.17	4288.45
424.38	4530.11
424.59	4329.41
424.80	4497.34
425.01	4450.24
425.22	4440.00
425.43	4431.80
425.64	4587.45
425.85	4661.18
426.06	4526.01
426.28	4569.02
426.49	4497.34
426.70	4616.12
426.91	4695.99
427.12	4562.87
427.33	4526.01
427.54	4607.93
427.75	4689.85
427.96	4712.38
428.17	4622.27
428.38	4792.25
428.59	4845.49
428.80	4708.28
429.01	4878.26
429.23	4747.19
429.44	5003.19
429.65	4841.40
429.86	4804.53
430.07	4779.96
430.28	4718.52
430.49	4868.02
430.70	4980.66
430.91	5142.45
431.12	4917.17
431.33	5052.34
431.54	5171.12
431.75	5052.34
431.96	4958.13
432.17	5062.58
432.38	5140.40
432.59	5375.92
432.80	5181.36
433.01	5267.38
433.22	5259.18
433.43	5117.87
433.64	5197.74
433.85	5121.97
434.06	5316.53
434.27	5250.99
434.49	5310.38
434.70	5556.14
434.91	5328.81
435.12	5523.37
435.33	5384.11
435.54	5504.94
435.75	5296.05
435.96	5390.25
436.17	5343.15
436.38	5693.35
436.59	5439.40
436.80	5506.99
437.01	5771.18
437.22	5699.50
437.43	5728.17
437.64	5377.97
437.85	5760.94
438.06	5603.24
438.27	5550.00
438.48	5638.06
438.69	5797.80
438.90	5666.73
439.11	5705.64
439.32	5906.34
439.53	5808.04
439.74	5889.96
439.95	5760.94
440.16	5701.54
440.37	5894.05
440.57	5771.18
440.78	5982.12
440.99	6008.74
441.20	6031.27
441.41	5873.57
441.62	6010.79
441.83	5930.92
442.04	6068.13
442.25	5939.11
442.46	5844.90
442.67	6047.65
442.88	6363.04
443.09	5902.25
443.30	6037.41
443.51	6086.56
443.72	6223.78
443.93	6039.46
444.14	6299.55
444.35	6107.04
444.56	6164.39
444.77	6219.68
444.98	6170.53
445.19	6168.48
445.40	6287.26
445.61	6336.42
445.81	6336.42
446.02	6459.29
446.23	6348.70
446.44	6334.37
446.65	6387.61
446.86	6586.27
447.07	6588.32
447.28	6430.62
447.49	6713.24
447.70	6522.78
447.91	6508.44
448.12	6600.60
448.33	6541.21
448.54	6686.62
448.74	6795.16
448.95	6735.77
449.16	6573.98
449.37	7016.34
449.58	6735.77
449.79	6858.65
450.00	6795.16
450.21	6909.85
450.42	6918.04
450.63	6959.00
450.84	6944.66
451.05	6850.46
451.25	6934.42
451.46	6821.78
451.67	7002.01
451.88	7210.90
452.09	7047.06
452.30	6993.81
452.51	6973.33
452.72	7249.81
452.93	7425.93
453.13	7108.50
453.34	7114.64
453.55	7202.71
453.76	7202.71
453.97	7532.43
454.18	7360.40
454.39	7526.29
454.60	7470.99
454.81	7393.17
455.01	7507.85
455.22	7311.25
455.43	7528.33
455.64	7745.42
455.85	7780.23
456.06	7751.56
456.27	7700.36
456.48	7647.12
456.68	7667.60
456.89	7636.88
457.10	7966.60
457.31	7749.51
457.52	7894.92
457.73	8105.86
457.94	8128.39
458.14	8034.18
458.35	8275.84
458.56	7980.93
458.77	8062.85
458.98	8310.66
459.19	8161.16
459.39	8427.39
459.60	8382.34
459.81	8148.87
460.02	8529.79
460.23	8458.11
460.44	8689.53
460.65	8443.78
460.85	8728.44
461.06	8806.27
461.27	8599.42
461.48	8828.79
461.69	8783.74
461.89	8503.17
462.10	8701.82
462.31	8617.85
462.52	8667.00
462.73	8814.46
462.94	8931.19
463.14	9066.36
463.35	9199.48
463.56	9281.39
463.77	9193.33
463.98	9084.79
464.18	9357.17
464.39	9324.40
464.60	9627.50
464.81	9525.10
465.02	9391.98
465.23	9840.49
465.43	9414.51
465.64	9668.46
465.85	9652.08
466.06	9473.90
466.27	9897.83
466.47	9887.59
466.68	9910.12
466.89	9959.27
467.10	9998.18
467.30	9992.04
467.51	10176.36
467.72	10448.74
467.93	10119.01
468.14	10121.06
468.34	10227.56
468.55	10508.13
468.76	10461.02
468.97	10289.00
469.17	10493.79
469.38	10610.53
469.59	10846.04
469.80	10657.63
470.01	10784.60
470.21	10588.00
470.42	11155.29
470.63	11079.51
470.84	10925.91
471.04	11128.66
471.25	11128.66
471.46	10927.96
471.67	11396.95
471.87	11321.17
472.08	11482.96
472.29	11521.87
472.50	11325.27
472.70	11470.67
472.91	11646.80
473.12	11841.36
473.33	11718.48
473.53	12126.02
473.74	11837.26
473.95	12128.07
474.16	12238.66
474.36	12080.97
474.57	12339.01
474.78	12425.03
474.99	12443.46
475.19	12306.24
475.40	12785.47
475.61	12824.38
475.81	12889.92
476.02	13100.86
476.23	12889.92
476.44	13143.86
476.64	13125.43
476.85	13322.04
477.06	13254.45
477.27	13545.27
477.47	13590.32
477.68	13436.72
477.89	13633.33
478.09	13645.62
478.30	13748.01
478.51	13942.57
478.71	14079.79
478.92	14049.07
479.13	14427.94
479.34	14534.43
479.54	14155.56
479.75	14479.14
479.96	14358.31
480.16	14761.76
480.37	14735.14
480.58	14810.91
480.78	15185.69
480.99	14894.88
481.20	15173.40
481.41	15329.05
481.61	15302.42
481.82	15259.42
482.03	15296.28
482.23	15566.61
482.44	15769.36
482.65	15824.65
482.85	15658.77
483.06	15914.77
483.27	16035.60
483.47	15838.99
483.68	16090.89
483.89	16178.95
484.09	16248.58
484.30	16553.73
484.51	16582.40
484.71	16688.90
484.92	16586.50
485.13	16877.31
485.33	17069.82
485.54	16758.53
485.75	17041.15
485.95	17143.55
486.16	17440.50
486.37	17383.16
486.57	17452.79
486.78	17567.48
486.98	17364.73
487.19	17561.33
487.40	17798.90
487.60	17893.10
487.81	18108.14
488.02	18018.03
488.22	18128.62
488.43	18245.35
488.64	18073.32
488.84	18278.12
489.05	18280.17
489.25	18460.39
489.46	18958.05
489.67	18478.82
489.87	18859.74
490.08	18902.75
490.29	18728.67
490.49	19404.50
490.70	19085.02
490.90	19195.61
491.11	19267.29
491.32	19175.13
491.52	19732.18
491.73	19766.99
491.94	19818.19
492.14	19705.56
492.35	20215.50
492.55	20041.42
492.76	19998.41
492.97	20463.30
493.17	20127.44
493.38	20354.76
493.58	20438.73
493.79	20498.12
494.00	20651.72
494.20	20637.38
494.41	20788.93
494.61	20719.30
494.82	21046.97
495.02	20768.45
495.23	21237.44
495.44	21132.99
495.64	21515.96
495.85	21317.31
496.05	21624.50
496.26	21434.04
496.47	21495.48
496.67	21427.90
496.88	21673.65
497.08	21561.02
497.29	22023.86
497.49	21857.97
497.70	22183.60
497.91	21995.18
498.11	22126.25
498.32	22361.77
498.52	22337.20
498.73	22406.83
498.93	22134.45
499.14	22658.73
499.34	22531.75
499.55	22787.75
499.76	22621.86
499.96	22980.26
500.17	22947.49
500.37	23053.98
500.58	22900.39
500.78	23103.14
500.99	23336.60
501.19	23250.59
501.40	23352.99
501.60	23236.25
501.81	23410.33
502.02	23647.90
502.22	23510.68
502.43	23731.86
502.63	23781.01
502.84	23932.56
503.04	23756.44
503.25	23621.27
503.45	23914.13
503.66	23907.99
503.86	23977.62
504.07	24401.55
504.27	23873.17
504.48	24501.90
504.68	24194.70
504.89	24708.74
505.09	24469.13
505.30	24944.26
505.50	24565.39
505.71	24741.51
505.91	24610.44
506.12	24688.26
506.32	24952.45
506.53	24989.31
506.73	25095.81
506.94	25071.23
507.14	24784.52
507.35	25161.34
507.55	25013.89
507.76	25267.84
507.96	25163.39
508.17	25468.54
508.37	25341.57
508.58	25458.30
508.78	25773.69
508.99	25974.39
509.19	25802.36
509.40	25593.47
509.60	25908.85
509.81	26076.79
510.01	25912.95
510.22	25988.72
510.42	26062.45
510.63	26093.17
510.83	26125.94
511.04	26207.86
511.24	26410.60
511.44	26371.69
511.65	26322.54
511.85	26412.65
512.06	26306.16
512.26	26361.45
512.47	26576.49
512.67	26326.64
512.88	26498.67
513.08	26281.58
513.29	26490.48
513.49	26981.99
513.69	26590.83
513.90	26912.36
514.10	27217.50
514.31	26895.97
514.51	27197.02
514.72	27217.50
514.92	27035.24
515.13	27190.88
515.33	27168.35
515.53	27194.98
515.74	27094.63
515.94	27723.35
516.15	27459.16
516.35	27268.70
516.56	27952.73
516.76	27764.31
516.96	27547.23
517.17	27887.19
517.37	27825.75
517.58	27815.51
517.78	28087.89
517.99	27614.81
518.19	28386.89
518.39	28132.95
518.60	28458.57
518.80	28008.02
519.01	28511.82
519.21	28413.52
519.41	28296.78
519.62	28118.61
519.82	28649.03
520.03	28608.08
520.23	28603.98
520.43	28505.68
520.64	29017.67
520.84	29163.08
521.05	28948.04
521.25	29032.00
521.45	29343.30
521.66	29707.83
521.86	29087.30
522.07	29394.50
522.27	29351.49
522.47	29445.69
522.68	29533.76
522.88	29556.28
523.08	30105.14
523.29	30021.17
523.49	29691.45
523.70	29918.78
523.90	30076.47
524.10	29980.21
524.31	30209.59
524.51	30039.61
524.71	30625.32
524.92	30479.92
525.12	30535.21
525.33	30588.46
525.53	30942.76
525.73	30561.84
525.94	30660.14
526.14	30842.41
526.34	30893.61
526.55	31206.95
526.75	31000.10
526.95	31368.74
527.16	31342.11
527.36	31252.00
527.56	31276.58
527.77	31757.85
527.97	31512.10
528.17	31483.42
528.38	31714.84
528.58	31495.71
528.78	32116.25
528.99	31817.24
529.19	32409.11
529.39	32065.05
529.60	32149.01
529.80	32075.29
530.00	32267.80
530.21	32427.54
530.41	32667.15
530.61	32853.51
530.82	32802.32
531.02	32757.26
531.22	32794.12
531.43	32972.30
531.63	33531.39
531.83	33201.67
532.04	33777.15
532.24	33142.28
532.44	33887.74
532.64	33127.94
532.85	33572.35
533.05	33799.68
533.25	33787.39
533.46	33672.70
533.66	34309.62
533.86	34385.40
534.07	34280.95
534.27	34448.88
534.47	34608.62
534.67	34649.58
534.88	34549.23
535.08	34438.64
535.28	34872.81
535.49	34842.09
535.69	35116.52
535.89	34870.76
536.09	35118.57
536.30	35728.86
536.50	35274.21
536.70	35540.45
536.91	35384.80
537.11	35806.69
537.31	35804.64
537.51	35472.87
537.72	35892.70
537.92	36046.30
538.12	36357.59
538.32	36267.48
538.53	36189.66
538.73	36031.96
538.93	36371.92
539.13	36402.64
539.34	36439.51
539.54	36351.45
539.74	36638.16
539.94	36662.74
540.15	36429.27
540.35	36795.85
540.55	36847.05
540.75	37004.75
540.96	37191.11
541.16	37070.28
541.36	37133.77
541.56	37121.48
541.77	37522.88
541.97	37309.89
542.17	37608.90
542.37	38116.79
542.58	37553.60
542.78	37950.91
542.98	37803.46
543.18	37836.22
543.38	38055.36
543.59	38038.97
543.79	37877.18
543.99	38290.87
544.19	38188.47
544.40	38225.34
544.60	38503.86
544.80	38188.47
545.00	38524.34
545.20	38950.32
545.41	38665.65
545.61	38712.75
545.81	38763.95
546.01	38960.56
546.21	38682.03
546.42	38698.42
546.62	38946.22
546.82	38798.77
547.02	39177.64
547.22	39114.16
547.43	39132.59
547.63	39161.26
547.83	39265.70
548.03	39036.33
548.23	39521.70
548.44	39046.57
548.64	39464.36
548.84	39724.45
549.04	39591.33
549.24	39636.39
549.45	39581.09
549.65	39652.77
549.85	39642.53
550.05	39810.46
550.25	39912.86
550.45	40109.47
550.66	40281.50
550.86	39927.20
551.06	39916.96
551.26	40312.22
551.46	40404.38
551.66	40220.06
551.87	39996.83
552.07	40246.68
552.27	40785.30
552.47	40424.86
552.67	40701.33
552.87	40328.60
553.07	40773.01
553.28	40465.81
553.48	40730.00
553.68	40727.95
553.88	41262.47
554.08	41043.34
554.28	40789.39
554.48	40496.53
554.69	40854.93
554.89	41194.89
555.09	40906.13
555.29	41110.92
555.49	41125.26
555.69	41348.49
555.89	41305.48
556.10	41461.13
556.30	41287.05
556.50	41764.23
556.70	41395.59
556.90	42014.08
557.10	41420.17
557.30	41205.13
557.50	41489.80
557.70	41784.71
557.91	41993.60
558.11	41741.70
558.31	41995.65
558.51	42032.51
558.71	41825.67
558.91	42315.13
559.11	41547.14
559.31	42112.38
559.51	41657.73
559.72	42161.53
559.92	42308.99
560.12	42272.12
560.32	42462.58
560.52	42190.20
560.72	42468.73
560.92	42466.68
561.12	42571.13
561.32	42642.81
561.52	41805.19
561.72	43140.46
561.93	42360.19
562.13	42554.74
562.33	42505.59
562.53	43177.33
562.73	42335.61
562.93	42540.41
563.13	42792.31
563.33	42796.40
563.53	43079.02
563.73	42423.67
563.93	42868.08
564.13	43228.52
564.33	43031.92
564.53	42859.89
564.74	42896.75
564.94	42906.99
565.14	43754.85
565.34	42909.04
565.54	43351.40
565.74	43255.15
565.94	43459.94
566.14	43136.37
566.34	43175.28
566.54	43394.41
566.74	43515.24
566.94	43613.54
567.14	43523.43
567.34	43613.54
567.54	43660.65
567.74	43697.51
567.94	43464.04
568.14	44244.32
568.34	43877.73
568.54	43990.37
568.74	44283.23
568.94	43611.49
569.14	43900.26
569.34	44123.49
569.54	44111.20
569.75	43773.28
569.95	43851.11
570.15	44680.53
570.35	44467.55
570.55	44262.75
570.75	44072.29
570.95	44043.62
571.15	44297.56
571.35	44514.65
571.55	44862.80
571.75	44449.11
571.95	44471.64
572.15	44479.83
572.35	44569.94
572.55	44565.85
572.75	44539.22
572.95	44371.29
573.15	44768.60
573.35	44643.67
573.55	44658.01
573.75	45100.37
573.95	45147.47
574.15	44707.16
574.35	45253.97
574.55	44883.28
574.75	44883.28
574.95	44731.73
575.15	44967.25
575.34	45165.90
575.54	45319.50
575.74	45251.92
575.94	45577.54
576.14	45129.04
576.34	45671.75
576.54	45888.84
576.74	45749.57
576.94	45616.46
577.14	45679.94
577.34	46069.06
577.54	45512.01
577.74	45913.41
577.94	45739.33
578.14	45989.19
578.34	46402.88
578.54	45501.77
578.74	45862.21
578.94	46296.38
579.14	45821.25
579.34	46024.00
579.54	45991.23
579.74	46540.09
579.94	46591.29
580.13	46693.69
580.33	46425.40
580.53	46523.71
580.73	46671.16
580.93	46818.61
581.13	46878.00
581.33	46773.56
581.53	46925.11
581.73	46767.41
581.93	47103.28
582.13	46994.74
582.33	47217.97
582.53	46947.64
582.73	47263.02
582.92	47070.51
583.12	47215.92
583.32	47009.07
583.52	46841.14
583.72	47602.99
583.92	47281.45
584.12	47256.88
584.32	47826.21
584.52	47627.56
584.72	47762.73
584.92	48006.44
585.11	48051.49
585.31	47875.37
585.51	47707.43
585.71	47609.13
585.91	47815.97
586.11	48028.96
586.31	47760.68
586.51	47830.31
586.71	48200.99
586.91	48545.05
587.10	48233.76
587.30	48061.73
587.50	47953.19
587.70	48434.46
587.90	48624.92
588.10	48850.20
588.30	48264.48
588.50	48612.63
588.69	48745.75
588.89	48383.26
589.09	48456.99
589.29	48641.31
589.49	48985.36
589.69	48741.66
589.89	49022.23
590.08	48893.21
590.28	48985.36
590.48	49067.28
590.68	48696.60
590.88	48706.84
591.08	49141.01
591.28	48626.97
591.47	49437.97
591.67	49239.31
591.87	48960.79
592.07	49028.37
592.27	49190.16
592.47	49372.43
592.67	49507.60
592.86	49296.66
593.06	49298.70
593.26	49630.47
593.46	49595.66
593.66	49741.06
593.86	50117.89
594.05	49855.75
594.25	50377.98
594.45	49755.40
594.65	50115.84
594.85	49667.34
595.05	50504.96
595.24	49988.87
595.44	50271.49
595.64	49886.47
595.84	50183.43
596.04	50107.65
596.23	50240.77
596.43	50685.18
596.63	50439.42
596.83	50302.21
597.03	50570.49
597.22	50752.76
597.42	50498.81
597.62	50750.71
597.82	51203.31
598.02	50861.30
598.21	50783.48
598.41	50498.81
598.61	50830.58
598.81	50715.90
599.01	51406.06
599.20	50969.85
599.40	50734.33
599.60	50959.61
599.80	50937.08
600.00	51172.60
600.19	51522.80
600.39	51023.09
600.59	51430.64
600.79	51428.59
600.98	51197.17
601.18	51528.94
601.38	51516.65
601.58	51559.66
601.78	51717.35
601.97	51768.55
602.17	51748.07
602.37	51819.75
602.57	51873.00
602.76	52262.11
602.96	51879.14
603.16	52184.29
603.36	51764.46
603.55	52348.13
603.75	51950.82
603.95	52126.95
604.15	52638.94
604.34	52419.81
604.54	52511.97
604.74	52108.52
604.94	52466.91
605.13	52839.64
605.33	52434.14
605.53	52286.69
605.73	52659.42
605.92	52384.99
606.12	53056.73
606.32	53075.16
606.52	53105.88
606.71	52993.24
606.91	52983.00
607.11	52585.69
607.30	52763.87
607.50	53144.79
607.70	53150.93
607.90	53001.43
608.09	52946.14
608.29	52985.05
608.49	52991.19
608.68	53062.87
608.88	53384.40
609.08	53222.61
609.28	53576.91
609.47	53404.88
609.67	53675.21
609.87	53325.01
610.06	54033.61
610.26	53363.92
610.46	53773.52
610.66	53683.40
610.85	53345.49
611.05	53257.43
611.25	53341.39
611.44	53470.42
611.64	53527.76
611.84	53726.41
612.03	53269.72
612.23	53982.41
612.43	53820.62
612.62	53671.12
612.82	54195.40
613.02	54142.15
613.21	54136.01
613.41	53556.43
613.61	53941.45
613.80	53869.77
614.00	54150.34
614.20	53945.54
614.39	54097.09
614.59	54326.47
614.79	54164.68
614.98	53865.67
615.18	53896.39
615.38	54160.58
615.57	53916.87
615.77	53839.05
615.97	54217.92
616.16	53810.38
616.36	53699.79
616.56	54093.00
616.75	54125.77
616.95	53601.49
617.15	53765.32
617.34	54041.80
617.54	53746.89
617.74	54447.30
617.93	54305.99
618.13	54023.37
618.32	54260.93
618.52	53892.30
618.72	53931.21
618.91	54271.17
619.11	54314.18
619.31	53843.15
619.50	54072.52
619.70	53818.57
619.90	53982.41
620.09	54082.76
620.29	54023.37
620.48	54226.12
620.68	54365.38
620.88	54006.98
621.07	54056.14
621.27	54056.14
621.46	53796.04
621.66	54031.56
621.86	54269.12
622.05	53779.66
622.25	54652.09
622.44	54170.82
622.64	53976.26
622.84	54203.59
623.03	53869.77
623.23	53677.26
623.42	54021.32
623.62	54144.20
623.82	54197.44
624.01	54148.29
624.21	54338.75
624.40	54080.71
624.60	54154.44
624.80	54033.61
624.99	53894.35
625.19	53970.12
625.38	54490.30
625.58	54756.54
625.77	54375.62
625.97	54232.26
626.17	53738.70
626.36	54072.52
626.56	54369.47
626.75	53746.89
626.95	54351.04
627.14	53830.86
627.34	54432.96
627.54	53900.49
627.73	53974.22
627.93	54437.06
628.12	54052.04
628.32	54174.92
628.51	53949.64
628.71	53998.79
628.90	54475.97
629.10	53925.07
629.30	54041.80
629.49	53853.39
629.69	54222.02
629.88	54310.08
630.08	54379.71
630.27	54383.81
630.47	54265.03
630.66	54502.59
630.86	54281.41
631.05	53626.06
631.25	54361.28
631.44	54396.10
631.64	54099.14
631.84	54105.29
632.03	54631.61
632.23	54293.70
632.42	54490.30
632.62	54387.91
632.81	53855.43
633.01	54570.18
633.20	54435.01
633.40	54539.46
633.59	54607.04
633.79	54043.85
633.98	54342.85
634.18	54441.15
634.37	54392.00
634.57	54289.60
634.76	54879.42
634.96	54639.81
635.15	54604.99
635.35	54383.81
635.54	53974.22
635.74	54858.94
635.93	54131.91
636.13	54695.10
636.32	54727.87
636.52	54156.49
636.71	54187.21
636.91	54897.85
637.10	54664.38
637.30	54615.23
637.49	54486.21
637.69	54592.70
637.88	54635.71
638.08	54553.79
638.27	54596.80
638.46	54971.58
638.66	54697.15
638.85	54666.43
639.05	54768.83
639.24	54494.40
639.44	54498.50
639.63	54758.59
639.83	54697.15
640.02	54676.67
640.22	54523.07
640.41	54992.06
640.61	54486.21
640.80	54949.05
640.99	55055.54
641.19	55026.87
641.38	54875.32
641.58	54875.32
641.77	55084.22
641.97	54613.18
642.16	54627.52
642.36	55018.68
642.55	55502.00
642.74	54836.41
642.94	55368.88
643.13	54770.88
643.33	54887.61
643.52	55395.51
643.72	55162.04
643.91	54774.97
644.10	55069.88
644.30	55250.10
644.49	55338.16
644.69	55024.82
644.88	55407.79
645.08	54455.49
645.27	55235.77
645.46	54906.04
645.66	55395.51
645.85	54836.41
646.05	55465.14
646.24	55137.46
646.43	54975.67
646.63	55250.10
646.82	55987.37
647.02	55538.86
647.21	55329.97
647.40	55153.85
647.60	55481.52
647.79	55305.40
647.99	55762.09
648.18	55035.06
648.37	55993.51
648.57	55289.01
648.76	55481.52
648.96	55108.79
649.15	55704.75
649.34	55721.13
649.54	55483.57
649.73	55200.95
649.92	55688.37
650.12	55329.97
650.31	55688.37
650.51	55698.61
650.70	55882.92
650.89	55207.09
651.09	56046.76
651.28	55870.64
651.47	56255.65
651.67	55841.96
651.86	55848.11
652.06	55164.09
652.25	55680.17
652.44	55262.39
652.64	55680.17
652.83	55504.05
653.02	55348.40
653.22	55362.74
653.41	55561.39
653.60	55399.60
653.80	55571.63
653.99	55747.76
654.18	55700.65
654.38	55252.15
654.57	56024.23
654.76	55841.96
654.96	55569.58
655.15	55733.42
655.34	55581.87
655.54	55690.41
655.73	55852.20
655.92	55581.87
656.12	56126.63
656.31	55825.58
656.50	55880.88
656.70	55733.42
656.89	55872.68
657.08	55899.31
657.28	56106.15
657.47	55868.59
657.66	55837.87
657.86	55729.33
658.05	55801.00
658.24	55647.41
658.43	55407.79
658.63	55678.13
658.82	56022.19
659.01	55934.12
659.21	55952.55
659.40	55899.31
659.59	55970.99
659.79	55977.13
659.98	56280.23
660.17	56016.04
660.36	56380.58
660.56	56173.73
660.75	55714.99
660.94	55825.58
661.14	55866.54
661.33	56028.33
661.52	55798.96
661.71	55925.93
661.91	55973.03
662.10	55952.55
662.29	55866.54
662.49	56179.88
662.68	56222.89
662.87	56040.62
663.06	56145.06
663.26	55874.73
663.45	56153.26
663.64	56554.66
663.83	56620.19
664.03	56194.21
664.22	56018.09
664.41	56210.60
664.60	55901.36
664.80	55942.31
664.99	56341.67
665.18	56470.69
665.37	56356.00
665.57	56100.01
665.76	55979.18
665.95	56353.96
666.14	56374.44
666.34	55966.89
666.53	56145.06
666.72	55753.90
666.91	55819.44
667.11	55602.35
667.30	56310.95
667.49	56212.65
667.68	55919.79
667.87	55729.33
668.07	56315.04
668.26	56020.14
668.45	56194.21
668.64	55858.35
668.84	56485.03
669.03	56253.61
669.22	56302.76
669.41	55731.37
669.60	56384.68
669.80	56042.66
669.99	56476.83
670.18	56048.81
670.37	56503.46
670.57	55958.70
670.76	56181.93
670.95	56050.86
671.14	55870.64
671.33	55780.52
671.53	56626.34
671.72	56669.34
671.91	56360.10
672.10	55725.23
672.29	55796.91
672.48	55807.15
672.68	56550.56
672.87	55825.58
673.06	55878.83
673.25	55776.43
673.44	56114.34
673.64	55989.42
673.83	55936.17
674.02	55579.82
674.21	55663.79
674.40	56202.41
674.59	55624.88
674.79	55796.91
674.98	55895.21
675.17	56067.24
675.36	55874.73
675.55	56337.57
675.74	55655.60
675.94	55903.40
676.13	55723.18
676.32	56177.83
676.51	56243.37
676.70	56128.68
676.89	55876.78
677.08	56083.62
677.28	55465.14
677.47	56304.80
677.66	56177.83
677.85	55899.31
678.04	55927.98
678.23	56677.54
678.42	56360.10
678.62	56204.45
678.81	55989.42
679.00	56231.08
679.19	56333.48
679.38	55782.57
679.57	56024.23
679.76	55907.50
679.96	56075.43
680.15	56145.06
680.34	55856.30
680.53	55708.85
680.72	55514.29
680.91	56153.26
681.10	55385.27
681.29	55717.04
681.48	55903.40
681.68	55526.58
681.87	55620.78
682.06	55608.50
682.25	55581.87
682.44	55626.93
682.63	55391.41
682.82	55526.58
683.01	55801.00
683.20	54844.60
683.39	55526.58
683.59	55489.71
683.78	55426.23
683.97	55051.45
684.16	55284.92
684.35	55362.74
684.54	55497.91
684.73	55452.85
684.92	55573.68
685.11	55499.95
685.30	55260.34
685.49	55786.67
685.69	55379.12
685.88	55618.74
686.07	55221.43
686.26	55112.89
686.45	55549.10
686.64	55426.23
686.83	55442.61
687.02	55190.71
687.21	55540.91
687.40	55372.98
687.59	55415.99
687.78	55293.11
687.97	55428.27
688.16	55129.27
688.35	54967.48
688.54	54744.25
688.74	55235.77
688.93	55057.59
689.12	55037.11
689.31	55407.79
689.50	55225.53
689.69	54539.46
689.88	54680.77
690.07	54971.58
690.26	54641.85
690.45	55180.47
690.64	54707.39
690.83	54860.99
691.02	54588.61
691.21	54418.63
691.40	54480.06
691.59	54381.76
691.78	54480.06
691.97	54779.07
692.16	54658.24
692.35	54695.10
692.54	54899.90
692.73	54580.42
692.92	54961.34
693.11	54777.02
693.30	54568.13
693.49	54953.15
693.68	54674.62
693.87	54418.63
694.06	54244.55
694.25	54082.76
694.44	53974.22
694.63	54361.28
694.82	54744.25
695.01	54539.46
695.20	54222.02
695.39	54088.90
695.58	54258.88
695.77	54287.56
695.96	53822.67
696.15	54062.28
696.34	54351.04
696.53	53818.57
696.72	53953.74
696.91	54267.08
697.10	54183.11
697.29	54211.78
697.48	54289.60
697.67	53740.75
697.86	53583.05
698.05	53581.01
698.24	54029.51
698.43	53443.79
698.62	54222.02
698.81	53228.76
699.00	54033.61
699.19	53974.22
699.38	53535.95
699.57	53210.32
699.76	54195.40
699.95	53816.52
700.14	53052.63
700.32	53744.84
700.51	53228.76
700.70	54090.95
700.89	54146.25
701.08	53839.05
701.27	53781.71
701.46	53451.98
701.65	52901.08
701.84	53558.48
702.03	53490.90
702.22	52884.70
702.41	53232.85
702.60	53564.62
702.79	53284.05
702.98	53105.88
703.17	53279.96
703.35	52796.63
703.54	53388.50
703.73	53259.48
703.92	52761.82
704.11	52995.29
704.30	52700.38
704.49	52624.60
704.68	52636.89
704.87	52882.65
705.06	52684.00
705.25	53288.15
705.43	52903.13
705.62	52835.55
705.81	52786.39
706.00	52468.96
706.19	52452.58
706.38	52395.23
706.57	52464.86
706.76	52438.24
706.95	52352.23
707.14	52249.83
707.32	52106.47
707.51	52307.17
707.70	52684.00
707.89	52233.44
708.08	52344.03
708.27	52503.77
708.46	52630.75
708.65	52589.79
708.84	52501.73
709.02	52305.12
709.21	52262.11
709.40	52200.68
709.59	52436.19
709.78	51795.18
709.97	52184.29
710.16	51500.27
710.34	51959.02
710.53	52061.41
710.72	51676.40
710.91	51842.28
711.10	52149.48
711.29	51954.92
711.48	52047.08
711.66	52165.86
711.85	51502.32
712.04	51719.40
712.23	51705.07
712.42	51578.09
712.61	51533.04
712.80	51817.71
712.98	51463.41
713.17	51381.49
713.36	51176.69
713.55	51119.35
713.74	51891.43
713.93	51846.38
714.11	51361.01
714.30	51424.50
714.49	51014.90
714.68	51518.70
714.87	51473.65
715.06	51635.44
715.24	51205.36
715.43	50935.03
715.62	50951.41
715.81	50926.84
716.00	50904.31
716.18	50941.17
716.37	50824.44
716.56	50648.32
716.75	51283.19
716.94	50603.26
717.12	50836.73
717.31	50881.78
717.50	50623.74
717.69	50595.07
717.88	50486.53
718.06	50418.94
718.25	50953.46
718.44	50281.73
718.63	50078.98
718.82	50244.87
719.00	50179.33
719.19	50322.69
719.38	50414.85
719.57	49681.67
719.76	49865.99
719.94	49466.64
720.13	49988.87
720.32	49890.57
720.51	49583.37
720.69	49341.71
720.88	49323.28
721.07	49702.15
721.26	49245.46
721.44	49634.57
721.63	49423.63
721.82	49093.91
722.01	49169.68
722.20	49620.23
722.38	49407.25
722.57	48710.94
722.76	49159.44
722.95	49308.94
723.13	48983.32
723.32	48932.12
723.51	48772.38
723.70	48704.79
723.88	49028.37
724.07	48676.12
724.26	49128.72
724.44	48444.70
724.63	49093.91
724.82	48682.27
725.01	48522.52
725.19	48479.52
725.38	48506.14
725.57	48309.53
725.76	48471.32
725.94	48346.40
726.13	47916.32
726.32	48442.65
726.51	48039.20
726.69	48354.59
726.88	48504.09
727.07	48014.63
727.25	48057.63
727.44	48244.00
727.63	47949.09
727.82	48108.83
728.00	47973.67
728.19	48440.60
728.38	48366.88
728.56	47945.00
728.75	47883.56
728.94	47865.13
729.12	48303.39
729.31	48217.38
729.50	48203.04
729.69	47901.99
729.87	47828.26
730.06	48086.31
730.25	48200.99
730.43	48405.79
730.62	47514.92
730.81	48262.43
730.99	48096.55
731.18	47828.26
731.37	48219.42
731.55	48141.60
731.74	47928.61
731.93	48295.20
732.11	48006.44
732.30	48039.20
732.49	47885.61
732.67	47842.60
732.86	47576.36
733.05	47652.14
733.23	47781.16
733.42	47969.57
733.61	47193.39
733.79	47842.60
733.98	48039.20
734.17	47793.45
734.35	47740.20
734.54	47605.03
734.73	48192.80
734.91	47349.04
735.10	47772.97
735.29	48172.32
735.47	47578.41
735.66	47549.74
735.84	47414.57
736.03	47185.20
736.22	47971.62
736.40	47168.82
736.59	47822.12
736.78	47414.57
736.96	47529.26
737.15	47510.83
737.33	47465.77
737.52	47473.96
737.71	47011.12
737.89	47631.66
738.08	46652.73
738.27	47060.27
738.45	47478.06
738.64	47215.92
738.82	47519.02
739.01	47328.56
739.20	47164.72
739.38	47146.29
739.57	46964.02
739.75	47265.07
739.94	47045.94
740.13	47355.18
740.31	46998.83
740.50	47090.99
740.68	46609.72
740.87	47097.14
741.06	46986.55
741.24	47068.47
741.43	46374.20
741.61	46785.85
741.80	46396.73
741.99	46898.48
742.17	46339.39
742.36	46863.67
742.54	46521.66
742.73	46347.58
742.91	46228.80
743.10	46257.47
743.29	46730.55
743.47	46531.90
743.66	46220.61
743.84	46564.67
744.03	46599.48
744.21	46355.77
744.40	46624.06
744.59	46230.85
744.77	46073.15
744.96	46507.32
745.14	46656.82
745.33	46538.04
745.51	46347.58
745.70	46462.27
745.88	46099.78
746.07	46421.31
746.26	45876.55
746.44	45743.43
746.63	46038.34
746.81	46222.65
747.00	46044.48
747.18	46028.10
747.37	46114.11
747.55	45681.99
747.74	46359.87
747.92	45401.42
748.11	45907.27
748.29	46056.77
748.48	45706.57
748.66	45667.66
748.85	45679.94
749.03	45573.45
749.22	45573.45
749.41	45323.60
749.59	45354.32
749.78	45550.92
749.96	45032.78
750.15	45714.76
750.33	45147.47
750.52	45432.14
750.70	45282.64
750.89	45190.48
751.07	44893.52
751.26	45268.30
751.44	44885.33
751.63	45237.58
751.81	44668.25
752.00	45204.81
752.18	45217.10
752.37	44754.26
752.55	44582.23
752.74	44703.06
752.92	44840.28
753.10	44885.33
753.29	45249.87
753.47	44488.03
753.66	44449.11
753.84	44918.10
754.03	44658.01
754.21	44361.05
754.40	44772.69
754.58	44981.59
754.77	44619.10
754.95	44461.40
755.14	44432.73
755.32	44027.23
755.51	44242.27
755.69	44199.26
755.88	44354.91
756.06	44004.70
756.24	43947.36
756.43	44113.25
756.61	43830.63
756.80	43941.22
756.98	44201.31
757.17	44504.41
757.35	44322.14
757.54	44348.76
757.72	44303.71
757.90	43982.18
758.09	43670.89
758.27	43904.35
758.46	43699.56
758.64	43738.47
758.83	44139.87
759.01	44193.12
759.19	43470.18
759.38	43711.84
759.56	43853.15
759.75	43916.64
759.93	43611.49
760.12	43369.83
760.30	43605.35
760.48	43726.18
760.67	43578.73
760.85	43568.49
761.04	43064.69
761.22	43486.57
761.40	43490.66
761.59	43423.08
761.77	43195.76
761.96	43089.26
762.14	43273.58
762.32	42757.49
762.51	43089.26
762.69	43251.05
762.88	42757.49
763.06	43249.00
763.24	43472.23
763.43	42880.37
763.61	42972.53
763.80	43007.34
763.98	42718.58
764.16	42847.60
764.35	42562.93
764.53	42581.37
764.72	42505.59
764.90	42147.20
765.08	42610.04
765.27	42665.33
765.45	42325.37
765.63	42118.53
765.82	42556.79
766.00	42538.36
766.18	42726.77
766.37	42415.48
766.55	42237.31
766.74	42405.24
766.92	41815.43
767.10	42378.62
767.29	41926.02
767.47	41596.29
767.65	41985.41
767.84	41418.12
768.02	42012.03
768.20	41659.78
768.39	42196.35
768.57	41649.54
768.75	41862.53
768.94	42177.92
769.12	41379.21
769.30	41600.39
769.49	41661.83
769.67	41121.16
769.85	40947.09
770.04	41213.32
770.22	41305.48
770.40	41360.78
770.59	41319.82
770.77	41448.84
770.95	41000.33
771.14	40818.07
771.32	41006.48
771.50	40672.66
771.69	40725.91
771.87	40775.06
772.05	40918.42
772.24	40713.62
772.42	40566.16
772.60	40899.98
772.78	40646.04
772.97	40162.72
773.15	40521.11
773.33	40408.47
773.52	40451.48
773.70	40586.64
773.88	40584.60
774.07	40551.83
774.25	40514.97
774.43	40496.53
774.61	40535.45
774.80	40463.77
774.98	40793.49
775.16	40705.43
775.34	40822.16
775.53	40119.71
775.71	40596.88
775.89	40545.69
776.08	40654.23
776.26	40600.98
776.44	40531.35
776.62	40312.22
776.81	39949.73
776.99	40596.88
777.17	40768.91
777.35	40506.77
777.54	41176.46
777.72	40336.79
777.90	40701.33
778.08	40965.52
778.27	40435.10
778.45	41334.15
778.63	41217.42
778.81	40770.96
779.00	41162.12
779.18	40781.20
779.36	41467.27
779.54	40969.61
779.73	40924.56
779.91	41153.93
780.09	41047.44
780.27	41100.68
780.46	41047.44
780.64	41104.78
780.82	40965.52
781.00	41139.60
781.19	41604.49
781.37	41559.43
781.55	41198.99
781.73	41723.27
781.91	41260.43
782.10	41452.94
782.28	41190.80
782.46	41541.00
782.64	41610.63
782.82	41239.95
783.01	41510.28
783.19	41454.98
783.37	41512.33
783.55	41561.48
783.74	41682.31
783.92	41356.68
784.10	41760.13
784.28	41500.04
784.46	40981.90
784.64	40928.66
784.83	41739.65
785.01	41743.75
785.19	41602.44
785.37	41588.10
785.55	41248.14
785.74	41049.49
785.92	40961.42
786.10	41244.04
786.28	41035.15
786.46	40838.54
786.64	41121.16
786.83	41321.87
787.01	41260.43
787.19	41108.88
787.37	40932.75
787.55	40662.42
787.74	40977.81
787.92	40678.80
788.10	40818.07
788.28	40727.95
788.46	41139.60
788.64	40582.55
788.82	41057.68
789.01	40457.62
789.19	40897.94
789.37	40691.09
789.55	40834.45
789.73	40492.44
789.91	40447.38
790.09	40508.82
790.28	40293.79
790.46	39900.58
790.64	40543.64
790.82	40152.48
791.00	39941.53
791.18	39916.96
791.36	40117.66
791.55	39998.88
791.73	39697.83
791.91	39484.84
792.09	39751.07
792.27	39517.60
792.45	39767.46
792.63	39265.70
792.81	39376.30
793.00	39130.54
793.18	39202.22
793.36	39167.40
793.54	38974.89
793.72	39069.10
793.90	38849.97
794.08	39067.05
794.26	38798.77
794.44	38380.98
794.62	38378.93
794.81	38903.21
794.99	38604.21
795.17	38194.62
795.35	38342.07
795.53	38581.68
795.71	38409.65
795.89	37912.00
796.07	37948.86
796.25	37574.08
796.43	37606.85
796.61	37418.44
796.80	37672.39
796.98	37678.53
797.16	37404.10
797.34	37359.05
797.52	37139.91
797.70	37324.23
797.88	37275.08
798.06	37025.23
798.24	37139.91
798.42	37166.54
798.60	36976.08
798.78	36971.98
798.96	37014.99
799.14	36546.00
799.32	36599.25
799.51	36470.23
799.69	36726.22
799.87	36789.71
800.05	36132.31
800.23	36388.31
800.41	36240.86
800.59	36058.59
800.77	35915.23
800.95	36081.11
801.13	35972.57
801.31	35503.59
801.49	35999.19
801.67	35665.38
801.85	35771.87
802.03	35081.70
802.21	35022.31
802.39	34817.52
802.57	35343.84
802.75	35130.86
802.93	35282.41
803.11	34952.68
803.29	34637.30
803.47	34672.11
803.65	34932.20
803.83	34774.51
804.01	34524.66
804.19	34516.47
804.37	34516.47
804.55	34651.63
804.73	34239.99
804.91	34315.76
805.09	33789.44
805.27	34194.93
805.45	34303.48
805.63	34172.41
805.81	34237.94
805.99	34213.37
806.17	34041.34
806.35	33728.00
806.53	33453.57
806.71	33629.69
806.89	33682.94
807.07	33394.18
807.25	33428.99
807.43	33345.03
807.61	33259.01
807.79	33046.02
807.97	33050.12
808.15	32747.02
808.33	33334.79
808.51	32646.67
808.69	32697.87
808.87	32638.48
809.05	32722.44
809.23	32521.74
809.41	32353.81
809.59	32507.41
809.77	32427.54
809.95	32560.66
810.13	32642.57
810.31	32378.39
810.49	32249.36
810.67	31987.22
810.84	32126.49
811.02	32103.96
811.20	31587.87
811.38	31890.97
811.56	31757.85
811.74	31856.15
811.92	31551.01
812.10	31632.93
812.28	31520.29
812.46	31704.60
812.64	31514.14
812.82	31542.81
813.00	31233.57
813.18	31399.46
813.36	31321.63
813.53	30989.86
813.71	31145.51
813.89	31163.94
814.07	31110.69
814.25	31211.04
814.43	30981.67
814.61	30758.44
814.79	30580.27
814.97	31000.10
815.15	31237.67
815.33	30404.14
815.50	30488.11
815.68	30684.72
815.86	30938.66
816.04	30574.13
816.22	30223.92
816.40	30367.28
816.58	30027.32
816.76	30205.49
816.94	30121.52
817.11	29879.86
817.29	29812.28
817.47	29918.78
817.65	29771.32
817.83	29836.86
818.01	30064.18
818.19	29646.40
818.37	29654.59
818.54	29845.05
818.72	29775.42
818.90	29642.30
819.08	29621.82
819.26	29750.84
819.44	29421.12
819.62	29351.49
819.80	29189.70
819.97	29376.06
820.15	29238.85
820.33	28970.57
820.51	29351.49
820.69	28958.28
820.87	29220.42
821.05	29259.33
821.22	29021.77
821.40	28943.94
821.58	28769.86
821.76	28790.34
821.94	28792.39
822.12	28679.75
822.29	28989.00
822.47	28579.40
822.65	29214.27
822.83	28939.85
823.01	28442.19
823.19	28931.65
823.36	28374.61
823.54	28429.90
823.72	28452.43
823.90	28444.24
824.08	28188.24
824.25	28116.56
824.43	28171.86
824.61	28452.43
824.79	28153.43
824.97	28102.23
825.15	28024.40
825.32	27958.87
825.50	27790.94
825.68	28061.27
825.86	28061.27
826.04	28089.94
826.21	27907.67
826.39	28003.92
826.57	27567.71
826.75	27737.69
826.93	27453.02
827.10	27569.76
827.28	27518.56
827.46	27620.95
827.64	27635.29
827.81	27502.17
827.99	27235.94
828.17	27264.61
828.35	27098.72
828.53	27141.73
828.70	27317.86
828.88	27283.04
829.06	27295.33
829.24	27297.38
829.41	27248.22
829.59	27106.91
829.77	27102.82
829.95	27201.12
830.12	26818.15
830.30	26855.01
830.48	26904.17
830.66	26867.30
830.84	26615.40
831.01	27008.61
831.19	26842.73
831.37	26510.96
831.55	26627.69
831.72	26431.08
831.90	26685.03
832.08	26582.63
832.25	26416.75
832.43	26531.44
832.61	26361.45
832.79	26609.26
832.96	26363.50
833.14	26422.89
833.32	26711.66
833.50	26527.34
833.67	25876.09
833.85	26250.86
834.03	26205.81
834.20	26062.45
834.38	26314.35
834.56	26324.59
834.74	26041.97
834.91	26220.14
835.09	25964.15
835.27	25499.26
835.44	25644.66
835.62	25646.71
835.80	25519.74
835.98	25951.86
836.15	25892.47
836.33	25472.64
836.51	25724.54
836.68	25538.17
836.86	25736.82
837.04	25603.71
837.21	25499.26
837.39	25712.25
837.57	25593.47
837.75	25499.26
837.92	25273.98
838.10	25310.85
838.28	24981.12
838.45	25175.68
838.63	25046.66
838.81	24962.69
838.98	25132.67
839.16	25095.81
839.34	24997.51
839.51	25093.76
839.69	24776.33
839.87	24905.35
840.04	24751.75
840.22	24956.55
840.40	24837.76
840.57	24454.79
840.75	24706.70
840.93	24600.20
841.10	24895.11
841.28	24915.59
841.46	24626.82
841.63	24592.01
841.81	24764.04
841.98	24764.04
842.16	24757.89
842.34	24585.86
842.51	24383.12
842.69	24798.85
842.87	24540.81
843.04	24749.70
843.22	24348.30
843.40	24325.77
843.57	24241.81
843.75	24387.21
843.92	24395.40
844.10	24194.70
844.28	24338.06
844.45	24307.34
844.63	24278.67
844.81	24239.76
844.98	24182.42
845.16	24305.29
845.33	24149.65
845.51	24235.66
845.69	24002.19
845.86	23649.94
846.04	23752.34
846.21	23738.01
846.39	23869.08
846.57	23944.85
846.74	24127.12
846.92	23588.50
847.09	23651.99
847.27	23711.38
847.45	23631.51
847.62	23629.46
847.80	23936.66
847.97	23611.03
848.15	23572.12
848.32	23502.49
848.50	23488.15
848.68	23389.85
848.85	23582.36
849.03	23031.46
849.20	23439.00
849.38	23160.48
849.56	23439.00
849.73	22937.25
849.91	23248.54
850.08	23598.74
850.26	22978.21
850.43	23185.05
850.61	23183.01
850.78	22859.43
850.96	22965.92
851.14	23004.83
851.31	23191.20
851.49	22615.72
851.66	23045.79
851.84	22947.49
852.01	23076.51
852.19	22806.18
852.36	22677.16
852.54	22797.99
852.71	22785.70
852.89	22722.21
853.07	22967.97
853.24	22711.97
853.42	22562.47
853.59	22462.12
853.77	22644.39
853.94	22619.81
854.12	22881.95
854.29	22390.44
854.47	22228.65
854.64	22748.84
854.82	22546.09
854.99	22431.40
855.17	22296.24
855.34	22589.10
855.52	22374.06
855.69	22388.39
855.87	22109.87
856.04	22242.99
856.22	22148.78
856.39	22107.82
856.57	22122.16
856.74	22169.26
856.92	22154.93
857.09	21943.99
857.27	21788.34
857.44	22232.75
857.62	21946.03
857.79	22056.62
857.97	22109.87
858.14	22107.82
858.32	21958.32
858.49	22036.14
858.67	21685.94
858.84	21733.04
859.02	21655.22
859.19	21544.63
859.37	21427.90
859.54	21538.49
859.72	21837.49
859.89	21776.05
860.06	21724.85
860.24	21227.20
860.41	21718.71
860.59	21366.46
860.76	21425.85
860.94	21202.62
861.11	21771.96
861.29	21425.85
861.46	21317.31
861.64	21053.12
861.81	21085.89
861.98	21288.64
862.16	21022.40
862.33	20793.03
862.51	21241.53
862.68	21075.65
862.86	21016.26
863.03	21081.79
863.21	20975.30
863.38	21022.40
863.55	21165.76
863.73	20987.58
863.90	20680.39
864.08	20846.27
864.25	20858.56
864.43	20895.43
864.60	20729.54
864.77	20567.75
864.95	20928.19
865.12	20659.91
865.30	20770.50
865.47	20713.16
865.64	20598.47
865.82	20760.26
865.99	20422.34
866.17	20479.69
866.34	20395.72
866.51	20328.14
866.69	20528.84
866.86	20303.56
867.04	20448.97
867.21	20260.55
867.38	20299.47
867.56	19988.18
867.73	20111.05
867.91	20094.67
868.08	19982.03
868.25	20092.62
868.43	20080.33
868.60	19906.26
868.78	20180.68
868.95	20301.51
869.12	19945.17
869.30	19998.41
869.47	19881.68
869.64	19713.75
869.82	19871.44
869.99	19754.71
870.16	20076.24
870.34	19810.00
870.51	19998.41
870.69	19635.92
870.86	19607.25
871.03	19879.63
871.21	19627.73
871.38	19719.89
871.55	19437.27
871.73	19502.81
871.90	19263.19
872.07	19218.14
872.25	19220.19
872.42	19289.82
872.59	19300.06
872.77	19420.89
872.94	19107.55
873.11	19211.99
873.29	19320.54
873.46	18904.80
873.63	18943.71
873.81	19066.59
873.98	19037.92
874.15	18861.79
874.33	18822.88
874.50	18790.11
874.67	18589.41
874.85	18568.93
875.02	18816.74
875.19	18607.84
875.37	18468.58
875.54	18757.35
875.71	18497.25
875.88	18585.32
876.06	18630.37
876.23	18654.95
876.40	18353.90
876.58	18491.11
876.75	18153.20
876.92	18329.32
877.10	18044.65
877.27	17948.40
877.44	18196.20
877.61	17913.58
877.79	18071.28
877.96	18032.36
878.13	17819.38
878.31	17979.12
878.48	17723.12
878.65	17696.50
878.82	17747.70
879.00	17837.81
879.17	17901.29
879.34	17721.07
879.51	17630.96
879.69	17475.32
879.86	17499.89
880.03	17780.46
880.21	17499.89
880.38	17759.98
880.55	17493.75
880.72	17633.01
880.90	17518.32
881.07	17213.18
881.24	17438.45
881.41	17467.13
881.59	17311.48
881.76	17307.38
881.93	17215.23
882.10	17129.21
882.28	17149.69
882.45	17078.01
882.62	17325.82
882.79	17497.84
882.96	17071.87
883.14	17360.63
883.31	17184.51
883.48	17018.62
883.65	17219.32
883.83	17336.06
884.00	16856.83
884.17	16992.00
884.34	17047.29
884.51	17010.43
884.69	16897.79
884.86	16899.84
885.03	16903.93
885.20	16586.50
885.38	16959.23
885.55	16774.91
885.72	16852.73
885.89	16645.89
886.06	16852.73
886.24	16705.28
886.41	16600.83
886.58	16918.27
886.75	16756.48
886.92	16748.29
887.10	16942.85
887.27	16539.40
887.44	16758.53
887.61	16842.50
887.78	16518.92
887.95	16654.08
888.13	16455.43
888.30	16453.38
888.47	16264.97
888.64	16420.61
888.81	16592.64
888.99	16297.74
889.16	16193.29
889.33	16215.82
889.50	16267.02
889.67	16224.01
889.84	16209.67
890.01	16279.30
890.19	15998.73
890.36	16250.63
890.53	16168.71
890.70	15869.71
890.87	15879.95
891.04	16109.32
891.22	16072.46
891.39	15945.48
891.56	15916.81
891.73	15855.37
891.90	15638.29
892.07	15875.85
892.24	15761.17
892.42	15675.15
892.59	15677.20
892.76	15773.46
892.93	15503.12
893.10	15654.67
893.27	15578.90
893.44	15304.47
893.61	15439.64
893.79	15535.89
893.96	15413.01
894.13	15507.22
894.30	15523.60
894.47	15578.90
894.64	15675.15
894.81	15470.36
894.98	15447.83
895.15	15464.21
895.33	15447.83
895.50	15560.47
895.67	15748.88
895.84	15421.20
896.01	15374.10
896.18	15406.87
896.35	15642.39
896.52	15406.87
896.69	15322.90
896.86	15415.06
897.04	15343.38
897.21	15335.19
897.38	15167.26
897.55	15310.61
897.72	15361.81
897.89	15443.73
898.06	15472.40
898.23	15292.18
898.40	15537.94
898.57	15343.38
898.74	15466.26
898.91	15193.88
899.08	15300.37
899.26	15226.65
899.43	15408.92
899.60	15167.26
899.77	15464.21
899.94	15267.61
900.11	15298.33
900.28	15238.94
900.45	15167.26
900.62	15144.73
900.79	15339.29
900.96	15210.26
901.13	15384.34
901.30	15038.23
901.47	15124.25
901.64	15146.78
901.81	15294.23
901.98	15138.58
902.15	15363.86
902.32	14966.56
902.49	15271.70
902.66	15234.84
902.83	15140.63
903.01	14978.84
903.18	15134.49
903.35	15134.49
903.52	14872.35
903.69	15097.63
903.86	15224.60
904.03	15255.32
904.20	15234.84
904.37	15255.32
904.54	15171.35
904.71	15286.04
904.88	15019.80
905.05	15068.95
905.22	14993.18
905.39	15048.47
905.56	14948.12
905.73	14888.73
905.90	15157.02
906.07	15128.35
906.24	15257.37
906.41	14905.12
906.58	15027.99
906.75	15286.04
906.92	14810.91
907.09	15154.97
907.26	15071.00
907.43	15027.99
907.60	14855.97
907.77	15189.78
907.93	14962.46
908.10	14968.60
908.27	15023.90
908.44	14683.94
908.61	14989.08
908.78	14921.50
908.95	15036.19
909.12	14831.39
909.29	14954.27
909.46	14798.62
909.63	15292.18
909.80	14960.41
909.97	14884.64
910.14	14950.17
910.31	14939.93
910.48	14804.77
910.65	14761.76
910.82	14958.36
910.99	14767.90
911.16	14739.23
911.33	14939.93
911.50	14653.22
911.66	14731.04
911.83	14817.05
912.00	14550.82
912.17	14442.28
912.34	14708.51
912.51	14403.36
912.68	14552.87
912.85	14720.80
913.02	14450.47
913.19	14675.74
913.36	14446.37
913.53	14759.71
913.70	14262.05
913.86	14526.24
914.03	14477.09
914.20	14290.73
914.37	14526.24
914.54	14249.77
914.71	14288.68
914.88	14153.51
915.05	14155.56
915.22	14356.26
915.39	14083.88
915.55	14315.30
915.72	14116.65
915.89	14040.87
916.06	13903.66
916.23	13928.24
916.40	13870.89
916.57	13983.53
916.74	13913.90
916.91	13915.95
917.07	13715.25
917.24	13825.84
917.41	13725.49
917.58	13815.60
917.75	13598.51
917.92	13557.55
918.09	13516.59
918.26	13477.68
918.42	13512.50
918.59	13563.70
918.76	13563.70
918.93	13156.15
919.10	13303.60
919.27	13381.43
919.44	13358.90
919.60	13246.26
919.77	13363.00
919.94	13348.66
920.11	13066.04
920.28	13197.11
920.45	13006.65
920.61	12998.46
920.78	12984.12
920.95	12877.63
921.12	12934.97
921.29	12642.11
921.46	12869.44
921.62	12808.00
921.79	12783.42
921.96	12654.40
922.13	12717.89
922.30	12439.36
922.47	12566.34
922.63	12652.35
922.80	12781.37
922.97	12676.93
923.14	12203.85
923.31	12293.96
923.47	12095.30
923.64	12441.41
923.81	12238.66
923.98	12283.72
924.15	12021.58
924.32	12289.86
924.48	12187.46
924.65	12326.72
924.82	12015.43
924.99	11775.82
925.15	11685.71
925.32	11728.72
925.49	11781.96
925.66	11726.67
925.83	11722.57
925.99	11530.06
926.16	11640.65
926.33	11683.66
926.50	11331.41
926.67	11605.84
926.83	11470.67
927.00	11325.27
927.17	11392.85
927.34	11263.83
927.50	11075.42
927.67	11310.93
927.84	11272.02
928.01	11263.83
928.17	10882.91
928.34	11124.57
928.51	11038.55
928.68	10887.00
928.84	10880.86
929.01	10907.48
929.18	10667.87
929.35	10590.05
929.51	10737.50
929.68	10626.91
929.85	10686.30
930.02	10501.98
930.18	10538.85
930.35	10649.44
930.52	10491.74
930.69	10295.14
930.85	10325.86
931.02	10289.00
931.19	10323.81
931.36	10299.23
931.52	10239.84
931.69	10254.18
931.86	10047.33
932.02	10119.01
932.19	9969.51
932.36	9926.50
932.53	10057.57
932.69	9842.54
932.86	9930.60
933.03	9772.91
933.19	9805.67
933.36	9713.52
933.53	9807.72
933.70	9684.84
933.86	9572.21
934.03	9500.53
934.20	9293.68
934.36	9443.18
934.53	9301.87
934.70	9047.93
934.86	9090.93
935.03	8945.53
935.20	8951.67
935.36	8908.66
935.53	8951.67
935.70	8832.89
935.86	8894.33
936.03	8636.28
936.20	8443.78
936.36	8546.17
936.53	8515.45
936.70	8423.30
936.86	8570.75
937.03	8384.38
937.20	8140.68
937.36	8337.28
937.53	7866.25
937.70	7829.38
937.86	7980.93
938.03	7921.54
938.20	7729.03
938.36	7591.82
938.53	7620.49
938.70	7442.32
938.86	7413.65
939.03	7286.67
939.20	7352.21
939.36	7276.43
939.53	7309.20
939.70	7294.86
939.86	6989.72
940.03	6868.89
940.19	6756.25
940.36	6774.68
940.53	6746.01
940.69	6674.33
940.86	6735.77
941.03	6459.29
941.19	6393.76
941.36	6377.37
941.52	6256.54
941.69	6240.16
941.86	6219.68
942.02	6148.00
942.19	6104.99
942.35	6039.46
942.52	5849.00
942.69	5971.88
942.85	6023.08
943.02	5922.73
943.18	6033.32
943.35	5767.08
943.52	5746.60
943.68	5631.91
943.85	5810.09
944.01	5640.11
944.18	5476.27
944.35	5570.48
944.51	5439.40
944.68	5369.77
944.84	5416.88
945.01	5439.40
945.17	5414.83
945.34	5388.21
945.51	5435.31
945.67	5396.40
945.84	5431.21
946.00	5369.77
946.17	5332.91
946.33	5279.66
946.50	5445.55
946.67	5230.51
946.83	5394.35
947.00	5382.06
947.16	5244.85
947.33	5312.43
947.49	5339.05
947.66	5226.42
947.82	5322.67
947.99	5212.08
948.16	5257.14
948.32	5259.18
948.49	5431.21
948.65	5328.81
948.82	5236.66
948.98	5279.66
949.15	5207.98
949.31	5238.70
949.48	5234.61
949.64	5304.24
949.81	5318.57
949.97	5312.43
950.14	5312.43
950.30	5033.91
950.47	5328.81
950.63	5320.62
950.80	5371.82
950.96	5347.25
951.13	5328.81
951.30	5318.57
951.46	5347.25
951.63	5386.16
951.79	5271.47
951.96	5468.08
952.12	5277.62
952.29	5377.97
952.45	5451.69
952.62	5269.42
952.78	5304.24
952.94	5447.60
953.11	5175.22
953.27	5275.57
953.44	5566.38
953.60	5455.79
953.77	5351.34
953.93	5363.63
954.10	5476.27
954.26	5410.73
954.43	5410.73
954.59	5423.02
954.76	5625.77
954.92	5320.62
955.09	5494.70
955.25	5296.05
955.42	5447.60
955.58	5640.11
955.75	5476.27
955.91	5343.15
956.07	5492.65
956.24	5492.65
956.40	5676.97
956.57	5498.80
956.73	5396.40
956.90	5394.35
957.06	5433.26
957.23	5533.61
957.39	5369.77
957.56	5332.91
957.72	5431.21
957.88	5449.64
958.05	5550.00
958.21	5519.28
958.38	5414.83
958.54	5414.83
958.71	5545.90
958.87	5437.36
959.03	5390.25
959.20	5435.31
959.36	5482.41
959.53	5357.49
959.69	5441.45
959.85	5375.92
960.02	5412.78
960.18	5377.97
960.35	5402.54
960.51	5533.61
960.68	5349.29
960.84	5306.29
961.00	5455.79
961.17	5318.57
961.33	5517.23
961.50	5406.64
961.66	5519.28
961.82	5318.57
961.99	5533.61
962.15	5312.43
962.31	5429.17
962.48	5281.71
962.64	5517.23
962.81	5509.04
962.97	5373.87
963.13	5347.25
963.30	5472.17
963.46	5240.75
963.62	5320.62
963.79	5398.45
963.95	5371.82
964.12	5427.12
964.28	5300.14
964.44	5234.61
964.61	5300.14
964.77	5345.20
964.93	5400.49
965.10	5361.58
965.26	5257.14
965.42	5289.90
965.59	5334.96
965.75	5291.95
965.92	5339.05
966.08	5328.81
966.24	5283.76
966.41	5314.48
966.57	5232.56
966.73	5310.38
966.90	5418.93
967.06	5257.14
967.22	5205.94
967.39	5214.13
967.55	5167.03
967.71	5134.26
967.88	5191.60
968.04	5238.70
968.20	5056.43
968.37	5074.87
968.53	5146.55
968.69	5089.20
968.85	5310.38
969.02	5095.35
969.18	5185.46
969.34	5070.77
969.51	5177.26
969.67	5074.87
969.83	4927.41
970.00	5351.34
970.16	5130.16
970.32	5156.79
970.48	5089.20
970.65	4894.65
970.81	4990.90
970.97	4970.42
971.14	4890.55
971.30	5113.78
971.46	5097.39
971.63	5031.86
971.79	5128.11
971.95	5068.72
972.11	4759.48
972.28	4911.03
972.44	4962.23
972.60	4976.56
972.76	4927.41
972.93	4913.08
973.09	4951.99
973.25	4933.56
973.42	4782.01
973.58	4859.83
973.74	4812.73
973.90	4884.41
974.07	4822.97
974.23	4841.40
974.39	4927.41
974.55	4943.80
974.72	4816.82
974.88	4687.80
975.04	4769.72
975.20	4759.48
975.37	4695.99
975.53	4841.40
975.69	4841.40
975.85	4849.59
976.01	4724.66
976.18	4691.90
976.34	4739.00
976.50	4734.90
976.66	4538.30
976.83	4667.32
976.99	4739.00
977.15	4556.73
977.31	4573.11
977.47	4753.34
977.64	4655.03
977.80	4593.59
977.96	4655.03
978.12	4607.93
978.29	4599.74
978.45	4523.96
978.61	4511.68
978.77	4536.25
978.93	4421.56
979.10	4560.83
979.26	4526.01
979.42	4470.72
979.58	4435.90
979.74	4448.19
979.91	4652.98
980.07	4429.76
980.23	4427.71
980.39	4437.95
980.55	4403.13
980.71	4444.09
980.88	4349.89
981.04	4415.42
981.20	4440.00
981.36	4407.23
981.52	4392.89
981.68	4374.46
981.85	4493.24
982.01	4399.04
982.17	4272.06
982.33	4284.35
982.49	4294.59
982.65	4349.89
982.82	4282.30
982.98	4364.22
983.14	4149.18
983.30	4345.79
983.46	4333.50
983.62	4270.01
983.79	4313.02
983.95	4231.10
984.11	4214.72
984.27	4147.14
984.43	4227.01
984.59	4175.81
984.75	4282.30
984.91	4159.42
985.08	4284.35
985.24	4214.72
985.40	4075.46
985.56	4140.99
985.72	4206.53
985.88	4063.17
986.04	4100.03
986.20	4108.23
986.37	4083.65
986.53	3985.35
986.69	4120.51
986.85	3981.25
987.01	4001.73
987.17	4110.27
987.33	4030.40
987.49	4005.83
987.65	4095.94
987.82	3966.92
987.98	3848.13
988.14	3958.72
988.30	3958.72
988.46	3973.06
988.62	3895.24
988.78	3878.85
988.94	3889.09
989.10	3796.93
989.26	3876.80
989.42	3753.93
989.59	3825.61
989.75	3856.33
989.91	3966.92
990.07	3659.72
990.23	3862.47
990.39	3860.42
990.55	3870.66
990.71	3694.54
990.87	3723.21
991.03	3805.13
991.19	3778.50
991.35	3796.93
991.51	3667.91
991.67	3903.43
991.83	3772.36
992.00	3653.58
992.16	3801.03
992.32	3686.34
992.48	3680.20
992.64	3669.96
992.80	3667.91
992.96	3684.30
993.12	3737.54
993.28	3682.25
993.44	3686.34
993.60	3629.00
993.76	3553.23
993.92	3665.86
994.08	3659.72
994.24	3706.82
994.40	3573.71
994.56	3686.34
994.72	3411.92
994.88	3467.21
995.04	3491.79
995.20	3567.56
995.36	3510.22
995.52	3557.32
995.68	3428.30
995.84	3479.50
996.00	3610.57
996.16	3559.37
996.32	3461.07
996.48	3450.83
996.64	3416.01
996.80	3471.31
996.96	3516.36
997.12	3407.82
997.28	3434.44
997.44	3444.68
997.60	3340.24
997.76	3348.43
997.92	3407.82
998.08	3342.28
998.24	3379.15
998.40	3354.57
998.56	3495.88
998.72	3217.36
998.88	3344.33
999.04	3377.10
999.20	3356.62
999.36	3248.08
999.52	3389.39
999.68	3182.54
999.84	3370.96
1000.00	3295.18
1000.16	3297.23
1000.32	3303.37
1000.48	3291.09
1000.64	3196.88
1000.80	3166.16
1000.95	3143.63
1001.11	3350.48
1001.27	3102.67
1001.43	3110.86
1001.59	3125.20
1001.75	3149.78
1001.91	3176.40
1002.07	3119.06
1002.23	3166.16
1002.39	3045.33
1002.55	3092.43
1002.71	3211.22
1002.87	3153.87
1003.03	2918.36
1003.19	3084.24
1003.34	3162.06
1003.50	3129.30
1003.66	3149.78
1003.82	3233.74
1003.98	3012.56
1004.14	3039.19
1004.30	2897.88
1004.46	3063.76
1004.62	2961.36
1004.78	2985.94
1004.94	3092.43
1005.09	3088.34
1005.25	3053.52
1005.41	2926.55
1005.57	2852.82
1005.73	2955.22
1005.89	2942.93
1006.05	3000.27
1006.21	2959.31
1006.37	2916.31
1006.52	2947.03
1006.68	2840.53
1006.84	3039.19
1007.00	2820.05
1007.16	2971.60
1007.32	2856.92
1007.48	2856.92
1007.64	2822.10
1007.79	2797.53
1007.95	2822.10
1008.11	2924.50
1008.27	2785.24
1008.43	2777.05
1008.59	2891.73
1008.75	2858.96
1008.91	2791.38
1009.06	2877.40
1009.22	2844.63
1009.38	2777.05
1009.54	2791.38
1009.70	2738.13
1009.86	2789.33
1010.01	2768.85
1010.17	2719.70
1010.33	2791.38
1010.49	2832.34
1010.65	2891.73
1010.81	2633.69
1010.96	2727.89
1011.12	2766.81
1011.28	2699.22
1011.44	2707.41
1011.60	2670.55
1011.76	2609.11
1011.91	2699.22
1012.07	2576.34
1012.23	2664.41
1012.39	2639.83
1012.55	2592.73
1012.71	2660.31
1012.86	2674.65
1013.02	2615.26
1013.18	2592.73
1013.34	2535.39
1013.50	2715.61
1013.65	2707.41
1013.81	2674.65
1013.97	2580.44
1014.13	2600.92
1014.29	2582.49
1014.44	2682.84
1014.60	2650.07
1014.76	2541.53
1014.92	2545.63
1015.07	2602.97
1015.23	2627.54
1015.39	2490.33
1015.55	2531.29
1015.71	2521.05
1015.86	2459.61
1016.02	2437.08
1016.18	2383.84
1016.34	2525.15
1016.49	2514.91
1016.65	2453.47
1016.81	2512.86
1016.97	2488.28
1017.12	2500.57
1017.28	2441.18
1017.44	2389.98
1017.60	2396.12
1017.75	2346.97
1017.91	2361.31
1018.07	2475.99
1018.23	2449.37
1018.38	2398.17
1018.54	2406.36
1018.70	2422.75
1018.86	2416.60
1019.01	2318.30
1019.17	2363.36
1019.33	2484.19
1019.49	2447.32
1019.64	2451.42
1019.80	2410.46
1019.96	2381.79
1020.12	2435.03
1020.27	2295.77
1020.43	2303.96
1020.59	2389.98
1020.74	2367.45
1020.90	2326.49
1021.06	2293.72
1021.22	2316.25
1021.37	2320.35
1021.53	2238.43
1021.69	2420.70
1021.84	2246.62
1022.00	2353.12
1022.16	2293.72
1022.31	2267.10
1022.47	2293.72
1022.63	2328.54
1022.79	2228.19
1022.94	2222.05
1023.10	2400.22
1023.26	2199.52
1023.41	2248.67
1023.57	2195.42
1023.73	2240.48
1023.88	2291.68
1024.04	2162.66
1024.20	2123.74
1024.35	2277.34
1024.51	2283.49
1024.67	2158.56
1024.82	2222.05
1024.98	2164.70
1025.14	2179.04
1025.29	2109.41
1025.45	2232.29
1025.61	2117.60
1025.76	2103.26
1025.92	2129.89
1026.08	2234.33
1026.23	2133.98
1026.39	2197.47
1026.55	2062.30
1026.70	2093.02
1026.86	2170.85
1027.02	2150.37
1027.17	2150.37
1027.33	2148.32
1027.48	2056.16
1027.64	2125.79
1027.80	2019.30
1027.95	2148.32
1028.11	1953.76
1028.27	2109.41
1028.42	2119.65
1028.58	2066.40
1028.73	2058.21
1028.89	2027.49
1029.05	2142.18
1029.20	2064.35
>>>>>End Processed Spectral Data<<<<<
