SpectraSuite Data File
++++++++++++++++++++++++++++++++++++
Date: Fri Jun 02 14:49:26 CEST 2017
User: INFO_000
Dark Spectrum Present: No
Reference Spectrum Present: No
Number of Sampled Component Spectra: 1
Spectrometers: USB4H00879
Integration Time (usec): 80000 (USB4H00879)
Spectra Averaged: 1 (USB4H00879)
Boxcar Smoothing: 0 (USB4H00879)
Correct for Electrical Dark: No (USB4H00879)
Strobe/Lamp Enabled: No (USB4H00879)
Correct for Detector Non-linearity: No (USB4H00879)
Correct for Stray Light: No (USB4H00879)
Number of Pixels in Processed Spectrum: 3648
>>>>>Begin Processed Spectral Data<<<<<
345.13	1265.64
345.34	1265.64
345.56	1265.64
345.78	1335.28
345.99	1277.93
346.21	1705.96
346.42	1679.33
346.64	1613.80
346.86	1804.26
347.07	1683.43
347.29	1728.49
347.50	1605.61
347.72	1726.44
347.94	1781.73
348.15	1601.51
348.37	1630.18
348.59	1718.25
348.80	1660.90
349.02	1822.69
349.23	1884.13
349.45	1861.60
349.67	1847.27
349.88	1810.40
350.10	1964.00
350.31	1779.68
350.53	1834.98
350.75	1923.04
350.96	1751.01
351.18	1841.12
351.39	1863.65
351.61	1816.55
351.82	1886.18
352.04	1908.71
352.26	1781.73
352.47	1880.04
352.69	1931.23
352.90	1775.59
353.12	1912.80
353.34	1871.84
353.55	1910.75
353.77	1910.75
353.98	1841.12
354.20	1804.26
354.41	1863.65
354.63	1931.23
354.85	1982.43
355.06	1898.47
355.28	1808.36
355.49	1814.50
355.71	1896.42
355.92	1935.33
356.14	1925.09
356.35	1871.84
356.57	1894.37
356.79	1929.19
357.00	1822.69
357.22	1961.95
357.43	1816.55
357.65	1994.72
357.86	1890.28
358.08	1933.28
358.29	1941.47
358.51	1912.80
358.72	1961.95
358.94	1902.56
359.16	1863.65
359.37	1841.12
359.59	1912.80
359.80	2035.68
360.02	1998.82
360.23	1978.34
360.45	2002.91
360.66	1949.67
360.88	1851.36
361.09	1927.14
361.31	2074.59
361.52	1986.53
361.74	1974.24
361.95	2060.26
362.17	1961.95
362.38	2052.06
362.60	2070.50
362.81	2002.91
363.03	2011.11
363.24	2017.25
363.46	2017.25
363.67	1984.48
363.89	1927.14
364.10	2045.92
364.32	1964.00
364.53	2002.91
364.75	1951.71
364.96	2002.91
365.18	2000.87
365.39	2050.02
365.61	2011.11
365.82	2174.94
366.04	2047.97
366.25	1939.43
366.47	2066.40
366.68	2084.83
366.90	2009.06
367.11	2029.54
367.33	2131.94
367.54	2084.83
367.76	2074.59
367.97	2101.22
368.19	2033.63
368.40	1986.53
368.62	1992.67
368.83	1927.14
369.05	2068.45
369.26	2029.54
369.48	1912.80
369.69	2052.06
369.91	2078.69
370.12	2052.06
370.33	2131.94
370.55	1978.34
370.76	2050.02
370.98	2127.84
371.19	2101.22
371.41	2033.63
371.62	2025.44
371.84	1957.86
372.05	2187.23
372.27	2127.84
372.48	2009.06
372.69	2109.41
372.91	2103.26
373.12	2066.40
373.34	2074.59
373.55	2093.02
373.77	2127.84
373.98	2170.85
374.20	2107.36
374.41	2244.57
374.62	2123.74
374.84	2109.41
375.05	2230.24
375.27	2150.37
375.48	2209.76
375.70	2121.70
375.91	2236.38
376.12	2240.48
376.34	2107.36
376.55	2129.89
376.77	2172.89
376.98	2166.75
377.19	2187.23
377.41	2199.52
377.62	2265.05
377.84	2164.70
378.05	2271.20
378.27	2195.42
378.48	2254.81
378.69	2398.17
378.91	2281.44
379.12	2279.39
379.34	2211.81
379.55	2236.38
379.76	2316.25
379.98	2228.19
380.19	2154.46
380.41	2217.95
380.62	2351.07
380.83	2248.67
381.05	2222.05
381.26	2353.12
381.47	2226.14
381.69	2236.38
381.90	2426.84
382.12	2232.29
382.33	2314.20
382.54	2267.10
382.76	2271.20
382.97	2334.68
383.19	2306.01
383.40	2318.30
383.61	2422.75
383.83	2353.12
384.04	2242.53
384.25	2273.25
384.47	2443.23
384.68	2344.92
384.89	2396.12
385.11	2279.39
385.32	2432.99
385.54	2254.81
385.75	2265.05
385.96	2418.65
386.18	2365.40
386.39	2432.99
386.60	2363.36
386.82	2410.46
387.03	2478.04
387.24	2498.52
387.46	2377.69
387.67	2488.28
387.88	2584.54
388.10	2516.95
388.31	2459.61
388.52	2494.43
388.74	2494.43
388.95	2482.14
389.16	2508.76
389.38	2455.51
389.59	2541.53
389.80	2613.21
390.02	2521.05
390.23	2648.02
390.44	2537.43
390.66	2435.03
390.87	2549.72
391.08	2572.25
391.30	2682.84
391.51	2764.76
391.72	2674.65
391.94	2641.88
392.15	2572.25
392.36	2529.24
392.58	2570.20
392.79	2688.98
393.00	2674.65
393.22	2686.94
393.43	2617.30
393.64	2815.96
393.85	2877.40
394.07	2695.13
394.28	2731.99
394.49	2768.85
394.71	2680.79
394.92	2910.16
395.13	2697.17
395.35	2797.53
395.56	2740.18
395.77	2785.24
395.98	2750.42
396.20	2906.07
396.41	2805.72
396.62	2899.92
396.84	2846.68
397.05	2787.29
397.26	2904.02
397.47	2938.84
397.69	2725.85
397.90	2928.60
398.11	2850.77
398.32	2838.48
398.54	2858.96
398.75	2869.20
398.96	2838.48
399.18	3096.53
399.39	2953.17
399.60	3071.95
399.81	2940.88
400.03	2891.73
400.24	3254.22
400.45	2959.31
400.66	3061.71
400.88	2885.59
401.09	3063.76
401.30	2990.03
401.51	3147.73
401.73	3069.91
401.94	3059.67
402.15	3067.86
402.36	3131.34
402.58	3153.87
402.79	3192.78
403.00	3184.59
403.21	3194.83
403.43	3170.26
403.64	3289.04
403.85	3059.67
404.06	3188.69
404.27	2934.74
404.49	3157.97
404.70	3227.60
404.91	3393.48
405.12	3172.30
405.34	3145.68
405.55	3420.11
405.76	3135.44
405.97	3223.50
406.19	3377.10
406.40	3117.01
406.61	3303.37
406.82	3282.89
407.03	3346.38
407.25	3137.49
407.46	3317.71
407.67	3397.58
407.88	3418.06
408.09	3387.34
408.31	3438.54
408.52	3311.57
408.73	3395.53
408.94	3340.24
409.15	3432.40
409.37	3540.94
409.58	3534.79
409.79	3418.06
410.00	3606.47
410.21	3375.05
410.43	3518.41
410.64	3389.39
410.85	3579.85
411.06	3530.70
411.27	3553.23
411.48	3614.66
411.70	3442.64
411.91	3579.85
412.12	3592.14
412.33	3575.75
412.54	3506.12
412.76	3624.90
412.97	3606.47
413.18	3592.14
413.39	3598.28
413.60	3629.00
413.81	3581.90
414.03	3547.08
414.24	3667.91
414.45	3749.83
414.66	3575.75
414.87	3798.98
415.08	3678.15
415.30	3665.86
415.51	3772.36
415.72	3702.73
415.93	3577.80
416.14	3733.45
416.35	3798.98
416.56	3786.69
416.78	3729.35
416.99	3862.47
417.20	3932.10
417.41	3862.47
417.62	3923.91
417.83	3860.42
418.04	3977.16
418.26	3815.37
418.47	3997.64
418.68	3923.91
418.89	3983.30
419.10	4063.17
419.31	3923.91
419.52	4126.66
419.73	3891.14
419.95	4026.31
420.16	4001.73
420.37	3985.35
420.58	3989.44
420.79	3860.42
421.00	4018.11
421.21	4130.75
421.42	4087.75
421.63	4059.07
421.85	4067.27
422.06	4235.20
422.27	4102.08
422.48	4188.10
422.69	4253.63
422.90	4165.57
423.11	4280.25
423.32	4202.43
423.53	4364.22
423.75	4255.68
423.96	4345.79
424.17	4419.52
424.38	4550.59
424.59	4396.99
424.80	4616.12
425.01	4501.44
425.22	4390.84
425.43	4413.37
425.64	4526.01
425.85	4630.46
426.06	4497.34
426.28	4476.86
426.49	4419.52
426.70	4573.11
426.91	4542.39
427.12	4644.79
427.33	4722.62
427.54	4509.63
427.75	4747.19
427.96	4689.85
428.17	4712.38
428.38	4677.56
428.59	4706.23
428.80	4747.19
429.01	4767.67
429.23	4667.32
429.44	4782.01
429.65	4755.38
429.86	4949.94
430.07	4804.53
430.28	4878.26
430.49	4865.97
430.70	4976.56
430.91	4997.04
431.12	4964.28
431.33	5076.91
431.54	4988.85
431.75	4982.71
431.96	5044.15
432.17	5070.77
432.38	4919.22
432.59	5380.01
432.80	5203.89
433.01	5203.89
433.22	5146.55
433.43	5177.26
433.64	5214.13
433.85	5177.26
434.06	5367.73
434.27	5038.00
434.49	5230.51
434.70	5410.73
434.91	5275.57
435.12	5357.49
435.33	5322.67
435.54	5294.00
435.75	5238.70
435.96	5230.51
436.17	5443.50
436.38	5416.88
436.59	5554.09
436.80	5351.34
437.01	5623.72
437.22	5799.85
437.43	5380.01
437.64	5380.01
437.85	5636.01
438.06	5742.50
438.27	5676.97
438.48	5638.06
438.69	5754.79
438.90	5603.24
439.11	5578.67
439.32	5769.13
439.53	5709.74
439.74	5812.14
439.95	5744.55
440.16	5861.29
440.37	5818.28
440.57	5584.81
440.78	5867.43
440.99	5955.49
441.20	5887.91
441.41	5896.10
441.62	5982.12
441.83	5736.36
442.04	6035.36
442.25	5965.73
442.46	5894.05
442.67	6215.59
442.88	6328.22
443.09	5873.57
443.30	6006.69
443.51	6016.93
443.72	6502.30
443.93	6107.04
444.14	6401.95
444.35	6160.29
444.56	6240.16
444.77	6250.40
444.98	6246.30
445.19	6295.46
445.40	6303.65
445.61	6418.33
445.81	6274.98
446.02	6543.26
446.23	6348.70
446.44	6358.94
446.65	6387.61
446.86	6424.48
447.07	6557.60
447.28	6799.26
447.49	6524.83
447.70	6377.37
447.91	6551.45
448.12	6678.43
448.33	6684.57
448.54	6731.67
448.74	6567.84
448.95	6834.07
449.16	6692.76
449.37	6858.65
449.58	6682.52
449.79	6975.38
450.00	6696.86
450.21	6838.17
450.42	6999.96
450.63	6825.88
450.84	7045.01
451.05	7088.02
451.25	6983.57
451.46	6895.51
451.67	6969.24
451.88	7194.51
452.09	7114.64
452.30	6989.72
452.51	6991.77
452.72	7270.29
452.93	7593.87
453.13	7180.18
453.34	7128.98
453.55	7198.61
453.76	7272.34
453.97	7483.28
454.18	7432.08
454.39	7483.28
454.60	7337.87
454.81	7341.97
455.01	7737.23
455.22	7309.20
455.43	7638.92
455.64	7810.95
455.85	7921.54
456.06	7950.21
456.27	7884.68
456.48	7755.66
456.68	7810.95
456.89	7888.78
457.10	7935.88
457.31	8003.46
457.52	7788.43
457.73	8097.67
457.94	8140.68
458.14	7866.25
458.35	8265.60
458.56	7974.79
458.77	8036.23
458.98	8191.88
459.19	8290.18
459.39	8247.17
459.60	8408.96
459.81	8378.24
460.02	8537.98
460.23	8435.58
460.44	8564.61
460.65	8591.23
460.85	8816.51
461.06	8724.35
461.27	8554.37
461.48	8931.19
461.69	8757.11
461.89	8646.52
462.10	8910.71
462.31	8626.04
462.52	8879.99
462.73	8949.62
462.94	9092.98
463.14	8841.08
463.35	9043.83
463.56	9369.46
463.77	9310.07
463.98	9082.74
464.18	8996.73
464.39	9453.42
464.60	9441.14
464.81	9373.55
465.02	9240.44
465.23	9633.64
465.43	9539.44
465.64	9582.45
465.85	9633.64
466.06	9643.88
466.27	9877.35
466.47	9869.16
466.68	9983.85
466.89	9901.93
467.10	9832.30
467.30	9828.20
467.51	10071.91
467.72	10209.12
467.93	10055.53
468.14	10332.00
468.34	10375.01
468.55	10278.76
468.76	10364.77
468.97	10250.08
469.17	10426.21
469.38	10456.93
469.59	10862.43
469.80	10561.37
470.01	10508.13
470.21	10661.73
470.42	10798.94
470.63	11099.99
470.84	10717.02
471.04	11083.61
471.25	11052.89
471.46	11079.51
471.67	11204.44
471.87	11202.39
472.08	11323.22
472.29	11446.10
472.50	11300.69
472.70	11370.32
472.91	11462.48
473.12	11497.30
473.33	11714.38
473.53	11798.35
473.74	11685.71
473.95	12058.44
474.16	12232.52
474.36	11980.62
474.57	12107.59
474.78	12410.69
474.99	12310.34
475.19	12193.61
475.40	12631.87
475.61	12756.80
475.81	12754.75
476.02	12967.74
476.23	12654.40
476.44	12857.15
476.64	12988.22
476.85	13213.49
477.06	13004.60
477.27	13387.57
477.47	13608.75
477.68	13584.18
477.89	13647.66
478.09	13623.09
478.30	13692.72
478.51	13899.56
478.71	13854.51
478.92	13938.48
479.13	14176.04
479.34	14315.30
479.54	14081.83
479.75	14075.69
479.96	14473.00
480.16	14593.83
480.37	14597.92
480.58	14792.48
480.78	15120.15
480.99	14812.96
481.20	15167.26
481.41	15130.39
481.61	15310.61
481.82	15351.57
482.03	15150.87
482.23	15427.35
482.44	15658.77
482.65	15671.06
482.85	15933.20
483.06	15519.51
483.27	15994.64
483.47	15937.29
483.68	16119.56
483.89	16174.86
484.09	16267.02
484.30	16273.16
484.51	16242.44
484.71	16576.26
484.92	16713.47
485.13	16658.18
485.33	16850.69
485.54	16715.52
485.75	17104.64
485.95	17221.37
486.16	17262.33
486.37	17448.69
486.57	17469.17
486.78	17452.79
486.98	17487.61
487.19	17778.42
487.40	17778.42
487.60	18161.39
487.81	18071.28
488.02	17952.49
488.22	17889.01
488.43	18116.33
488.64	18239.21
488.84	18472.68
489.05	18296.55
489.25	18556.64
489.46	18456.29
489.67	18992.86
489.87	18925.28
490.08	18804.45
490.29	19099.36
490.49	19177.18
490.70	19168.99
490.90	19343.06
491.11	19328.73
491.32	19373.78
491.52	19795.67
491.73	19834.58
491.94	19838.67
492.14	19775.19
492.35	19803.86
492.55	20139.72
492.76	20276.94
492.97	19973.84
493.17	20674.24
493.38	20721.35
493.58	20582.09
493.79	20612.81
494.00	20573.89
494.20	20920.00
494.41	20811.46
494.61	21343.93
494.82	21083.84
495.02	20948.67
495.23	21356.22
495.44	21255.87
495.64	21350.07
495.85	21675.70
496.05	21487.29
496.26	21327.55
496.47	21669.56
496.67	21534.39
496.88	21989.04
497.08	21814.96
497.29	22124.21
497.49	22046.38
497.70	22359.72
497.91	22478.50
498.11	22595.24
498.32	22757.03
498.52	22742.69
498.73	22679.21
498.93	22560.42
499.14	22707.88
499.34	22783.65
499.55	23127.71
499.76	22771.36
499.96	23137.95
500.17	23201.44
500.37	23295.64
500.58	23234.21
500.78	23332.51
500.99	23297.69
501.19	23637.66
501.40	23686.81
501.60	23314.08
501.81	23525.02
502.02	23633.56
502.22	23750.29
502.43	23860.88
502.63	23996.05
502.84	24333.96
503.04	23848.60
503.25	24178.32
503.45	24168.08
503.66	24344.20
503.86	24141.46
504.07	24520.33
504.27	24503.95
504.48	24456.84
504.68	24616.58
504.89	24684.17
505.09	24835.72
505.30	24866.44
505.50	25058.95
505.71	24735.37
505.91	25120.38
506.12	25060.99
506.32	24925.83
506.53	25341.57
506.73	25226.88
506.94	25446.01
507.14	25245.31
507.35	24850.05
507.55	25253.50
507.76	25472.64
507.96	25507.45
508.17	25587.32
508.37	25511.55
508.58	25695.86
508.78	25532.03
508.99	25851.51
509.19	25589.37
509.40	26076.79
509.60	25861.75
509.81	26084.98
510.01	26158.70
510.22	25783.93
510.42	25904.76
510.63	26095.22
510.83	26351.21
511.04	26265.20
511.24	26310.25
511.44	26261.10
511.65	26467.95
511.85	26248.82
512.06	26220.14
512.26	26719.85
512.47	26551.91
512.67	26433.13
512.88	26646.12
513.08	26287.73
513.29	26865.25
513.49	26863.21
513.69	26744.42
513.90	27100.77
514.10	26754.66
514.31	27164.26
514.51	27065.96
514.72	27041.38
514.92	26707.56
515.13	26900.07
515.33	26986.08
515.53	27025.00
515.74	27377.25
515.94	27461.21
516.15	27471.45
516.35	27250.27
516.56	27647.58
516.76	27362.91
516.96	27719.26
517.17	27868.76
517.37	27756.12
517.58	27973.21
517.78	27780.70
517.99	27792.98
518.19	27790.94
518.39	27936.34
518.60	28147.28
518.80	28018.26
519.01	28216.91
519.21	28241.49
519.41	28460.62
519.62	28114.52
519.82	28366.42
520.03	28724.81
520.23	28411.47
520.43	28190.29
520.64	28741.19
520.84	28696.14
521.05	28632.65
521.25	28614.22
521.45	28929.61
521.66	28917.32
521.86	28798.54
522.07	28991.05
522.27	28950.09
522.47	29087.30
522.68	29560.38
522.88	29656.64
523.08	29537.85
523.29	29171.27
523.49	29822.52
523.70	29681.21
523.90	29716.03
524.10	29746.75
524.31	29744.70
524.51	29529.66
524.71	30201.40
524.92	29883.96
525.12	30438.96
525.33	30381.62
525.53	30686.76
525.73	30299.70
525.94	30236.21
526.14	30678.57
526.34	30889.51
526.55	30582.32
526.75	30539.31
526.95	31127.08
527.16	30963.24
527.36	30983.72
527.56	31159.84
527.77	31307.30
527.97	31381.03
528.17	31444.51
528.38	31456.80
528.58	31383.07
528.78	31643.17
528.99	31718.94
529.19	32063.00
529.39	31688.22
529.60	32073.24
529.80	32026.14
530.00	31714.84
530.21	32161.30
530.41	32427.54
530.61	32413.20
530.82	32441.87
531.02	32335.38
531.22	32687.63
531.43	32613.90
531.63	32626.19
531.83	33371.65
532.04	33385.99
532.24	33150.47
532.44	33277.44
532.64	33465.86
532.85	33549.82
533.05	33082.89
533.25	33287.68
533.46	33527.30
533.66	33842.68
533.86	33973.75
534.07	34092.54
534.27	33998.33
534.47	34473.46
534.67	34346.48
534.88	34205.17
535.08	34446.83
535.28	34751.98
535.49	34874.86
535.69	35167.72
535.89	35005.93
536.09	35161.58
536.30	35284.45
536.50	35284.45
536.70	35153.38
536.91	35175.91
537.11	35638.75
537.31	35495.39
537.51	35499.49
537.72	35986.91
537.92	35972.57
538.12	36113.88
538.32	35974.62
538.53	36154.84
538.73	36230.62
538.93	36361.69
539.13	36290.01
539.34	36470.23
539.54	36687.31
539.74	36703.70
539.94	36967.88
540.15	36419.03
540.35	36668.88
540.55	36849.10
540.75	37029.32
540.96	36996.56
541.16	37193.16
541.36	37328.33
541.56	37328.33
541.77	37565.89
541.97	37379.53
542.17	37598.66
542.37	37623.23
542.58	37856.70
542.78	37512.64
542.98	37815.74
543.18	37778.88
543.38	37989.82
543.59	38401.46
543.79	38274.49
543.99	38041.02
544.19	38417.85
544.40	38639.03
544.60	38573.49
544.80	38579.64
545.00	38935.98
545.20	39009.71
545.41	38696.37
545.61	38614.45
545.81	38995.37
546.01	39210.41
546.21	38800.82
546.42	39263.66
546.62	39443.88
546.82	39169.45
547.02	39353.77
547.22	39437.73
547.43	39570.85
547.63	39251.37
547.83	39800.22
548.03	39065.00
548.23	40093.08
548.44	39744.93
548.64	40484.25
548.84	39951.77
549.04	39443.88
549.24	40142.24
549.45	40377.75
549.65	40002.97
549.85	40293.79
550.05	40465.81
550.25	40353.18
550.45	41084.30
550.66	40285.59
550.86	40555.93
551.06	40865.17
551.26	40830.35
551.46	40795.54
551.66	40766.87
551.87	40299.93
552.07	40725.91
552.27	40914.32
552.47	40998.29
552.67	40863.12
552.87	41090.44
553.07	41465.22
553.28	41616.77
553.48	41751.94
553.68	41117.07
553.88	41424.26
554.08	41469.32
554.28	41205.13
554.48	41366.92
554.69	41627.01
554.89	41579.91
555.09	41885.06
555.29	41649.54
555.49	41829.76
555.69	41497.99
555.89	41938.30
556.10	42134.91
556.30	41770.37
556.50	42069.37
556.70	42026.37
556.90	41799.04
557.10	42132.86
557.30	41594.25
557.50	42202.49
557.70	42505.59
557.91	42466.68
558.11	42290.55
558.31	42644.85
558.51	42433.91
558.71	42767.73
558.91	42542.45
559.11	42429.82
559.31	42349.95
559.51	42229.12
559.72	42409.34
559.92	42483.06
560.12	42435.96
560.32	42581.37
560.52	42218.88
560.72	42481.02
560.92	42542.45
561.12	42796.40
561.32	43156.85
561.52	42931.57
561.72	43529.58
561.93	42911.09
562.13	42837.36
562.33	42917.23
562.53	43351.40
562.73	42743.16
562.93	42581.37
563.13	43126.13
563.33	43027.82
563.53	42947.95
563.73	43060.59
563.93	43177.33
564.13	43550.06
564.33	43177.33
564.53	42986.86
564.74	43279.72
564.94	43437.42
565.14	43373.93
565.34	43457.90
565.54	43771.24
565.74	43537.77
565.94	43685.22
566.14	43660.65
566.34	43494.76
566.54	44129.63
566.74	43124.08
566.94	43597.16
567.14	43834.72
567.34	43576.68
567.54	44121.44
567.74	43904.35
567.94	43603.30
568.14	43726.18
568.34	44107.10
568.54	44045.66
568.74	44023.14
568.94	43912.55
569.14	44268.89
569.34	44086.62
569.54	43943.27
569.75	43631.97
569.95	44045.66
570.15	44715.35
570.35	44569.94
570.55	44002.66
570.75	44332.38
570.95	44733.78
571.15	44262.75
571.35	44477.79
571.55	44899.67
571.75	44367.20
571.95	44799.32
572.15	44242.27
572.35	44582.23
572.55	44668.25
572.75	44549.46
572.95	44428.63
573.15	44678.49
573.35	44848.47
573.55	44631.38
573.75	44490.07
573.95	44842.32
574.15	44754.26
574.35	44856.66
574.55	44754.26
574.75	44815.70
574.95	44893.52
575.15	44674.39
575.34	44864.85
575.54	45372.75
575.74	44979.54
575.94	45323.60
576.14	45114.70
576.34	45315.40
576.54	45522.25
576.74	45876.55
576.94	45432.14
577.14	45745.48
577.34	45673.80
577.54	44979.54
577.74	45479.24
577.94	45509.96
578.14	46003.52
578.34	45972.80
578.54	45049.17
578.74	45430.09
578.94	45784.39
579.14	45348.17
579.34	45436.23
579.54	45987.14
579.74	46177.60
579.94	45839.68
580.13	46513.47
580.33	45950.27
580.53	45897.03
580.73	45972.80
580.93	46384.44
581.13	46429.50
581.33	46288.19
581.53	46228.80
581.73	46548.28
581.93	46898.48
582.13	46658.87
582.33	46869.81
582.53	46787.89
582.73	46673.21
582.92	46650.68
583.12	46785.85
583.32	46759.22
583.52	46791.99
583.72	47207.73
583.92	46976.31
584.12	47078.71
584.32	47648.04
584.52	47099.19
584.72	47125.81
584.92	47346.99
585.11	47885.61
585.31	47011.12
585.51	47031.60
585.71	47013.17
585.91	47422.76
586.11	47760.68
586.31	47338.80
586.51	47320.37
586.71	47703.34
586.91	47633.71
587.10	47789.35
587.30	47777.06
587.50	47744.30
587.70	48131.36
587.90	47609.13
588.10	47910.18
588.30	47985.96
588.50	48309.53
588.69	47865.13
588.89	47863.08
589.09	48469.28
589.29	48237.86
589.49	48606.49
589.69	48260.38
589.89	48344.35
590.08	48227.62
590.28	48096.55
590.48	48631.07
590.68	48305.44
590.88	48352.54
591.08	48342.30
591.28	48377.12
591.47	49249.55
591.67	48571.67
591.87	48819.48
592.07	48690.46
592.27	48796.95
592.47	48919.83
592.67	48813.34
592.86	48760.09
593.06	48858.39
593.26	49093.91
593.46	49024.28
593.66	49124.63
593.86	49468.69
594.05	49538.32
594.25	49980.68
594.45	49202.45
594.65	49560.84
594.85	49288.46
595.05	49491.21
595.24	49835.27
595.44	49585.42
595.64	49440.01
595.84	49489.16
596.04	49696.01
596.23	50091.27
596.43	50199.81
596.63	50124.04
596.83	49632.52
597.03	50347.26
597.22	50390.27
597.42	50294.02
597.62	50433.28
597.82	50324.74
598.02	50300.16
598.21	50730.23
598.41	50031.88
598.61	50799.86
598.81	50726.14
599.01	50742.52
599.20	51072.24
599.40	50734.33
599.60	51019.00
599.80	50750.71
600.00	51035.38
600.19	51256.56
600.39	51197.17
600.59	51133.68
600.79	51770.60
600.98	51270.90
601.18	51483.89
601.38	51762.41
601.58	51172.60
601.78	51987.69
601.97	51770.60
602.17	51842.28
602.37	51741.93
602.57	52004.07
602.76	52008.17
602.96	51539.18
603.16	51907.82
603.36	51838.18
603.55	52616.41
603.75	52106.47
603.95	51926.25
604.15	52432.10
604.34	52278.50
604.54	52360.42
604.74	52792.54
604.94	52501.73
605.13	52810.97
605.33	52268.26
605.53	52618.46
605.73	52675.80
605.92	52411.62
606.12	53040.34
606.32	52692.19
606.52	53152.98
606.71	53296.34
606.91	53449.94
607.11	53249.24
607.30	53349.59
607.50	53327.06
607.70	53286.10
607.90	53363.92
608.09	53392.59
608.29	53103.83
608.49	53550.29
608.68	53142.74
608.88	53724.36
609.08	53390.55
609.28	53753.04
609.47	53523.66
609.67	54324.42
609.87	53875.91
610.06	53816.52
610.26	53730.51
610.46	54023.37
610.66	53566.67
610.85	53703.88
611.05	53447.89
611.25	54150.34
611.44	54121.67
611.64	53918.92
611.84	53331.15
612.03	54062.28
612.23	53916.87
612.43	53646.54
612.62	53976.26
612.82	54555.84
613.02	54248.64
613.21	54207.68
613.41	54383.81
613.61	54351.04
613.80	54015.18
614.00	54154.44
614.20	54617.28
614.39	54707.39
614.59	54758.59
614.79	54445.25
614.98	54428.87
615.18	54303.94
615.38	54074.57
615.57	54195.40
615.77	54863.03
615.97	54244.55
616.16	54344.90
616.36	54332.61
616.56	54928.57
616.75	54457.54
616.95	54068.42
617.15	54258.88
617.34	54023.37
617.54	54187.21
617.74	55030.97
617.93	54133.96
618.13	54484.16
618.32	54445.25
618.52	54596.80
618.72	54822.08
618.91	54803.64
619.11	54437.06
619.31	54625.47
619.50	54480.06
619.70	54027.46
619.90	54547.65
620.09	54093.00
620.29	54387.91
620.48	54826.17
620.68	54639.81
620.88	54148.29
621.07	54441.15
621.27	55012.54
621.46	54496.45
621.66	54793.40
621.86	54621.37
622.05	53943.50
622.25	55012.54
622.44	54318.28
622.64	54457.54
622.84	54781.12
623.03	54187.21
623.23	54779.07
623.42	54437.06
623.62	54793.40
623.82	55096.50
624.01	54678.72
624.21	55004.34
624.40	54604.99
624.60	54402.24
624.80	54269.12
624.99	54742.20
625.19	54471.87
625.38	54887.61
625.58	54781.12
625.77	54768.83
625.97	54746.30
626.17	54222.02
626.36	54715.58
626.56	54637.76
626.75	54293.70
626.95	55059.64
627.14	54695.10
627.34	55295.16
627.54	54570.18
627.73	54703.29
627.93	54580.42
628.12	54049.99
628.32	54541.50
628.51	54543.55
628.71	54820.03
628.90	54539.46
629.10	54561.98
629.30	54639.81
629.49	54115.53
629.69	54516.93
629.88	54500.54
630.08	54820.03
630.27	54983.86
630.47	54496.45
630.66	54580.42
630.86	54740.16
631.05	54668.48
631.25	54834.36
631.44	54967.48
631.64	54676.67
631.84	55049.40
632.03	55125.17
632.23	54445.25
632.42	54987.96
632.62	54650.05
632.81	54633.66
633.01	54703.29
633.20	54713.53
633.40	54629.57
633.59	54807.74
633.79	54373.57
633.98	54768.83
634.18	55002.30
634.37	54807.74
634.57	54697.15
634.76	55063.74
634.96	54799.55
635.15	54951.10
635.35	54625.47
635.54	54975.67
635.74	54828.22
635.93	54613.18
636.13	54879.42
636.32	54916.28
636.52	54371.52
636.71	54568.13
636.91	54514.88
637.10	54740.16
637.30	55082.17
637.49	55159.99
637.69	54609.09
637.88	55004.34
638.08	54858.94
638.27	55172.28
638.46	54523.07
638.66	55037.11
638.85	54891.71
639.05	54858.94
639.24	55178.42
639.44	54596.80
639.63	54918.33
639.83	54957.24
640.02	54906.04
640.22	55024.82
640.41	55424.18
640.61	54756.54
640.80	54901.95
640.99	54537.41
641.19	54969.53
641.38	55010.49
641.58	54744.25
641.77	54629.57
641.97	55395.51
642.16	54762.68
642.36	55186.61
642.55	55272.63
642.74	54621.37
642.94	55377.08
643.13	54738.11
643.33	54918.33
643.52	55336.12
643.72	55010.49
643.91	55221.43
644.10	55129.27
644.30	55096.50
644.49	55067.83
644.69	55284.92
644.88	54725.82
645.08	54942.91
645.27	55303.35
645.46	55129.27
645.66	55182.52
645.85	55102.65
646.05	55164.09
646.24	55342.26
646.43	55372.98
646.63	55825.58
646.82	55354.55
647.02	55186.61
647.21	55686.32
647.40	55299.25
647.60	55448.75
647.79	55205.05
647.99	55456.95
648.18	55176.37
648.37	55598.26
648.57	55944.36
648.76	55268.53
648.96	55342.26
649.15	55450.80
649.34	55780.52
649.54	55461.04
649.73	55157.94
649.92	55669.93
650.12	55571.63
650.31	55770.28
650.51	55440.56
650.70	55837.87
650.89	55291.06
651.09	55923.88
651.28	55991.47
651.47	55702.70
651.67	55747.76
651.86	55858.35
652.06	54983.86
652.25	55583.92
652.44	55678.13
652.64	55411.89
652.83	55602.35
653.02	55305.40
653.22	55712.94
653.41	55884.97
653.60	55661.74
653.80	55684.27
653.99	55747.76
654.18	55278.77
654.38	55461.04
654.57	55364.79
654.76	55454.90
654.96	55514.29
655.15	55694.51
655.34	55133.37
655.54	55207.09
655.73	55510.19
655.92	55407.79
656.12	55358.64
656.31	55469.23
656.50	55055.54
656.70	55465.14
656.89	55555.25
657.08	55612.59
657.28	55827.63
657.47	55770.28
657.66	55993.51
657.86	55809.20
658.05	55825.58
658.24	55817.39
658.43	55678.13
658.63	55555.25
658.82	55696.56
659.01	55497.91
659.21	55792.81
659.40	55549.10
659.59	55674.03
659.79	55264.44
659.98	55981.23
660.17	55835.82
660.36	55450.80
660.56	55657.65
660.75	55653.55
660.94	55618.74
661.14	55565.49
661.33	55860.40
661.52	55379.12
661.71	55921.83
661.91	55497.91
662.10	55217.33
662.29	56067.24
662.49	55284.92
662.68	55567.54
662.87	55676.08
663.06	56097.96
663.26	55665.84
663.45	55995.56
663.64	55776.43
663.83	56341.67
664.03	55776.43
664.22	55997.61
664.41	55934.12
664.60	55653.55
664.80	55594.16
664.99	55563.44
665.18	55811.24
665.37	55614.64
665.57	56333.48
665.76	55321.78
665.95	55942.31
666.14	55467.19
666.34	55755.95
666.53	55780.52
666.72	55708.85
666.91	55610.54
667.11	55637.17
667.30	55530.67
667.49	55637.17
667.68	55653.55
667.87	55731.37
668.07	55678.13
668.26	55657.65
668.45	55907.50
668.64	55473.33
668.84	55866.54
669.03	55962.79
669.22	55635.12
669.41	55682.22
669.60	55880.88
669.80	55239.86
669.99	55770.28
670.18	55991.47
670.37	55706.80
670.57	56138.92
670.76	56026.28
670.95	55973.03
671.14	55647.41
671.33	55575.73
671.53	56171.69
671.72	56057.00
671.91	55723.18
672.10	55563.44
672.29	55768.24
672.48	55475.38
672.68	56132.78
672.87	55295.16
673.06	55811.24
673.25	55704.75
673.44	55645.36
673.64	55571.63
673.83	55674.03
674.02	55334.07
674.21	55340.21
674.40	55733.42
674.59	55424.18
674.79	55426.23
674.98	55684.27
675.17	55565.49
675.36	55116.98
675.55	55493.81
675.74	55442.61
675.94	55436.47
676.13	55458.99
676.32	55395.51
676.51	55702.70
676.70	55463.09
676.89	55571.63
677.08	55880.88
677.28	55428.27
677.47	55884.97
677.66	55502.00
677.85	55399.60
678.04	55776.43
678.23	56120.49
678.42	55753.90
678.62	55956.65
678.81	56136.87
679.00	55755.95
679.19	56112.30
679.38	55624.88
679.57	55411.89
679.76	55874.73
679.96	55796.91
680.15	55737.52
680.34	55751.85
680.53	55411.89
680.72	55872.68
680.91	55923.88
681.10	55172.28
681.29	55555.25
681.48	55278.77
681.68	55243.96
681.87	55356.60
682.06	55475.38
682.25	55252.15
682.44	55477.43
682.63	55387.31
682.82	55129.27
683.01	55121.08
683.20	54838.46
683.39	55254.20
683.59	54834.36
683.78	54955.19
683.97	54684.86
684.16	54932.67
684.35	55413.94
684.54	55379.12
684.73	54998.20
684.92	55002.30
685.11	55342.26
685.30	55012.54
685.49	55366.84
685.69	55131.32
685.88	55612.59
686.07	54998.20
686.26	54971.58
686.45	55526.58
686.64	55489.71
686.83	54953.15
687.02	54928.57
687.21	54805.69
687.40	55284.92
687.59	54764.73
687.78	55026.87
687.97	55454.90
688.16	54801.60
688.35	54965.43
688.54	55227.57
688.74	54973.63
688.93	54973.63
689.12	55176.37
689.31	54903.99
689.50	55311.54
689.69	54367.43
689.88	54076.61
690.07	54932.67
690.26	54678.72
690.45	55078.07
690.64	54588.61
690.83	54684.86
691.02	54772.92
691.21	54762.68
691.40	54799.55
691.59	54973.63
691.78	54287.56
691.97	54645.95
692.16	54699.20
692.35	54877.37
692.54	54654.14
692.73	54832.32
692.92	54604.99
693.11	54936.76
693.30	54617.28
693.49	54807.74
693.68	54510.78
693.87	54652.09
694.06	54148.29
694.25	54615.23
694.44	54447.30
694.63	54361.28
694.82	54176.97
695.01	54809.79
695.20	54637.76
695.39	54336.71
695.58	54410.43
695.77	53976.26
695.96	54451.39
696.15	54494.40
696.34	54713.53
696.53	54283.46
696.72	54662.33
696.91	53980.36
697.10	54570.18
697.29	54305.99
697.48	54541.50
697.67	54146.25
697.86	53843.15
698.05	53828.81
698.24	54138.05
698.43	53296.34
698.62	54285.51
698.81	53849.29
699.00	54305.99
699.19	53646.54
699.38	54252.74
699.57	54146.25
699.76	54564.03
699.95	54090.95
700.14	53761.23
700.32	53744.84
700.51	53710.03
700.70	54295.75
700.89	53834.95
701.08	54564.03
701.27	53978.31
701.46	54113.48
701.65	53083.35
701.84	53605.58
702.03	53724.36
702.22	53581.01
702.41	53673.16
702.60	53724.36
702.79	53466.32
702.98	53564.62
703.17	53394.64
703.35	53400.79
703.54	53236.95
703.73	54023.37
703.92	53810.38
704.11	53337.30
704.30	53306.58
704.49	53198.04
704.68	53138.65
704.87	52796.63
705.06	53349.59
705.25	53009.62
705.43	53331.15
705.62	53150.93
705.81	52948.18
706.00	53013.72
706.19	52667.61
706.38	52819.16
706.57	52829.40
706.76	52706.52
706.95	52597.98
707.14	53073.11
707.32	52862.17
707.51	52673.76
707.70	52868.31
707.89	53028.05
708.08	53392.59
708.27	52937.94
708.46	53286.10
708.65	52720.86
708.84	53267.67
709.02	53423.31
709.21	52243.68
709.40	52321.51
709.59	53030.10
709.78	52227.30
709.97	52460.77
710.16	52368.61
710.34	52419.81
710.53	52690.14
710.72	52122.85
710.91	52421.86
711.10	52696.28
711.29	52772.06
711.48	52268.26
711.66	52362.46
711.85	52212.96
712.04	51975.40
712.23	51887.34
712.42	51983.59
712.61	52188.39
712.80	52102.37
712.98	52223.20
713.17	51838.18
713.36	52090.09
713.55	52045.03
713.74	52135.14
713.93	52014.31
714.11	51907.82
714.30	51698.92
714.49	51868.90
714.68	51672.30
714.87	51670.25
715.06	52384.99
715.24	51651.82
715.43	51418.35
715.62	51197.17
715.81	51653.87
716.00	51676.40
716.18	51412.21
716.37	51188.98
716.56	51231.99
716.75	52010.21
716.94	51586.28
717.12	50957.56
717.31	51442.93
717.50	51426.54
717.69	51334.38
717.88	51205.36
718.06	51152.12
718.25	51528.94
718.44	50754.81
718.63	51119.35
718.82	50570.49
719.00	50969.85
719.19	50892.02
719.38	50773.24
719.57	50332.93
719.76	50224.39
719.94	49962.25
720.13	50318.59
720.32	50353.41
720.51	50144.51
720.69	50183.43
720.88	50070.79
721.07	50242.82
721.26	49702.15
721.44	49870.09
721.63	49736.97
721.82	49562.89
722.01	49708.30
722.20	50113.80
722.38	49888.52
722.57	49329.42
722.76	49460.49
722.95	49818.89
723.13	49538.32
723.32	49792.26
723.51	48942.36
723.70	49335.57
723.88	49126.67
724.07	49128.72
724.26	49472.78
724.44	48780.57
724.63	49685.77
724.82	49431.82
725.01	49128.72
725.19	49270.03
725.38	48727.32
725.57	48712.98
725.76	48663.83
725.94	49024.28
726.13	48723.22
726.32	48753.94
726.51	48024.87
726.69	48753.94
726.88	48911.64
727.07	48622.87
727.25	48651.55
727.44	48944.41
727.63	48373.02
727.82	48520.48
728.00	48258.34
728.19	48413.98
728.38	48545.05
728.56	48411.93
728.75	48932.12
728.94	48530.72
729.12	48577.82
729.31	48633.11
729.50	48549.15
729.69	48463.13
729.87	48524.57
730.06	48184.61
730.25	48520.48
730.43	48432.41
730.62	48284.96
730.81	48534.81
730.99	48715.03
731.18	48274.72
731.37	48762.14
731.55	48530.72
731.74	48620.83
731.93	48338.21
732.11	48258.34
732.30	48313.63
732.49	48127.27
732.67	47895.85
732.86	48405.79
733.05	48190.75
733.23	48131.36
733.42	48117.03
733.61	47877.41
733.79	48289.06
733.98	48600.35
734.17	48059.68
734.35	48237.86
734.54	48114.98
734.73	48450.84
734.91	47766.82
735.10	47707.43
735.29	47957.28
735.47	47734.06
735.66	47932.71
735.84	47998.24
736.03	47979.81
736.22	47961.38
736.40	47815.97
736.59	47809.83
736.78	47736.10
736.96	47830.31
737.15	47557.93
737.33	47519.02
737.52	47689.00
737.71	47494.44
737.89	47564.07
738.08	47070.51
738.27	46957.88
738.45	47766.82
738.64	47396.14
738.82	47459.63
739.01	47453.48
739.20	46701.88
739.38	47269.17
739.57	47342.89
739.75	47256.88
739.94	47111.47
740.13	47555.88
740.31	46671.16
740.50	47271.21
740.68	47336.75
740.87	47246.64
741.06	47492.40
741.24	46716.22
741.43	46892.34
741.61	47105.33
741.80	46953.78
741.99	46540.09
742.17	46806.33
742.36	46585.15
742.54	46929.20
742.73	46773.56
742.91	47168.82
743.10	46531.90
743.29	46796.09
743.47	46476.60
743.66	46452.03
743.84	46480.70
744.03	46576.95
744.21	46513.47
744.40	46939.44
744.59	46339.39
744.77	46372.16
744.96	46431.55
745.14	46513.47
745.33	46503.23
745.51	46531.90
745.70	46339.39
745.88	46095.68
746.07	46218.56
746.26	45954.37
746.44	45923.65
746.63	46384.44
746.81	46308.67
747.00	45757.77
747.18	46081.34
747.37	45847.88
747.55	45811.01
747.74	46589.24
747.92	45440.33
748.11	45993.28
748.29	45634.89
748.48	45966.66
748.66	45991.23
748.85	45622.60
749.03	45600.07
749.22	45620.55
749.41	45389.13
749.59	45843.78
749.78	45368.65
749.96	44993.87
750.15	45571.40
750.33	45923.65
750.52	45460.81
750.70	45604.17
750.89	44889.43
751.07	45006.16
751.26	45155.66
751.44	45004.11
751.63	45053.26
751.81	45008.21
752.00	44905.81
752.18	45217.10
752.37	44862.80
752.55	44555.61
752.74	44905.81
752.92	44514.65
753.10	44406.11
753.29	44750.17
753.47	44434.78
753.66	44660.05
753.84	45057.36
754.03	45036.88
754.21	44066.14
754.40	44758.36
754.58	44561.75
754.77	44170.59
754.95	44197.21
755.14	44080.48
755.32	44047.71
755.51	44113.25
755.69	44342.62
755.88	44219.74
756.06	44606.81
756.24	44070.24
756.43	43701.61
756.61	44135.77
756.80	43855.20
756.98	43619.69
757.17	44033.38
757.35	43834.72
757.54	43726.18
757.72	43697.51
757.90	43558.25
758.09	43539.82
758.27	43687.27
758.46	43533.67
758.64	43767.14
758.83	43668.84
759.01	43365.74
759.19	43451.75
759.38	43255.15
759.56	43357.55
759.75	43502.95
759.93	43406.70
760.12	42954.10
760.30	43517.29
760.48	43246.96
760.67	42808.69
760.85	43021.68
761.04	43226.48
761.22	42882.42
761.40	43070.83
761.59	43029.87
761.77	42898.80
761.96	42806.64
762.14	43277.68
762.32	42622.33
762.51	42208.64
762.69	42423.67
762.88	43191.66
763.06	42681.72
763.24	42616.18
763.43	43046.26
763.61	42489.21
763.80	42704.24
763.98	42397.05
764.16	42528.12
764.35	42161.53
764.53	42179.96
764.72	41960.83
764.90	42298.75
765.08	42347.90
765.27	42091.90
765.45	42196.35
765.63	41950.59
765.82	42542.45
766.00	41737.60
766.18	41940.35
766.37	42194.30
766.55	42112.38
766.74	41938.30
766.92	41858.43
767.10	41702.79
767.29	41833.86
767.47	41239.95
767.65	41645.44
767.84	41422.22
768.02	41848.19
768.20	41203.08
768.39	41479.56
768.57	41659.78
768.75	41446.79
768.94	41391.50
769.12	41438.60
769.30	41055.63
769.49	41067.92
769.67	41229.71
769.85	40496.53
770.04	41059.73
770.22	40922.51
770.40	40682.90
770.59	40742.29
770.77	40867.22
770.95	40818.07
771.14	40621.46
771.32	40396.18
771.50	40353.18
771.69	40392.09
771.87	40834.45
772.05	40584.60
772.24	40007.07
772.42	40537.49
772.60	40236.44
772.78	40283.55
772.97	40021.41
773.15	40359.32
773.33	40224.15
773.52	40039.84
773.70	40349.08
773.88	40416.66
774.07	40002.97
774.25	40199.58
774.43	40351.13
774.61	39957.92
774.80	40269.21
774.98	40158.62
775.16	40437.14
775.34	40238.49
775.53	40150.43
775.71	40441.24
775.89	40246.68
776.08	40361.37
776.26	40344.98
776.44	40138.14
776.62	40289.69
776.81	40252.83
776.99	40265.11
777.17	40355.22
777.35	40426.90
777.54	40719.76
777.72	40457.62
777.90	40306.07
778.08	40566.16
778.27	40492.44
778.45	40801.68
778.63	40607.12
778.81	40289.69
779.00	41061.77
779.18	40338.84
779.36	41162.12
779.54	40617.36
779.73	40744.34
779.91	40564.12
780.09	40643.99
780.27	41014.67
780.46	41155.98
780.64	40981.90
780.82	40652.18
781.00	40523.16
781.19	41260.43
781.37	40711.57
781.55	40738.19
781.73	41665.92
781.91	40840.59
782.10	40951.18
782.28	40981.90
782.46	41080.21
782.64	41311.63
782.82	40990.09
783.01	41508.23
783.19	41221.52
783.37	41450.89
783.55	41082.25
783.74	41446.79
783.92	41012.62
784.10	41846.15
784.28	41051.53
784.46	40969.61
784.64	41115.02
784.83	41166.22
785.01	41735.56
785.19	41018.77
785.37	41676.16
785.55	41084.30
785.74	40586.64
785.92	40574.36
786.10	41080.21
786.28	41201.04
786.46	40977.81
786.64	40983.95
786.83	41301.39
787.01	41563.53
787.19	40818.07
787.37	40799.63
787.55	40787.35
787.74	40648.08
787.92	41112.97
788.10	40635.80
788.28	40207.77
788.46	40879.50
788.64	40455.57
788.82	40836.50
789.01	40734.10
789.19	40523.16
789.37	40447.38
789.55	40596.88
789.73	40136.09
789.91	40527.25
790.09	40361.37
790.28	39984.54
790.46	40420.76
790.64	40265.11
790.82	39978.40
791.00	39789.98
791.18	39794.08
791.36	39673.25
791.55	39796.13
791.73	39910.82
791.91	39536.04
792.09	39841.18
792.27	39490.98
792.45	39710.11
792.63	39577.00
792.81	39339.43
793.00	39013.80
793.18	38589.88
793.36	39032.24
793.54	39044.52
793.72	38684.08
793.90	38802.86
794.08	39110.06
794.26	38770.10
794.44	38546.87
794.62	38493.62
794.81	38690.23
794.99	38317.50
795.17	38342.07
795.35	38403.51
795.53	38514.10
795.71	38647.22
795.89	38372.79
796.07	38024.64
796.25	37572.03
796.43	37707.20
796.61	37754.30
796.80	37922.24
796.98	37635.52
797.16	37172.68
797.34	37357.00
797.52	37221.83
797.70	37275.08
797.88	37373.38
798.06	36947.40
798.24	37633.47
798.42	36976.08
798.60	37234.12
798.78	36951.50
798.96	36937.16
799.14	36885.97
799.32	37090.76
799.51	36539.86
799.69	36529.62
799.87	36511.19
800.05	36343.25
800.23	36253.14
800.41	36011.48
800.59	36312.53
800.77	36083.16
800.95	35986.91
801.13	35796.45
801.31	35829.21
801.49	35933.66
801.67	35431.91
801.85	35855.84
802.03	35610.08
802.21	35491.30
802.39	35603.94
802.57	35399.14
802.75	35485.15
802.93	35231.21
803.11	34993.64
803.29	35014.12
803.47	34633.20
803.65	34635.25
803.83	34921.96
804.01	34678.25
804.19	34297.33
804.37	34391.54
804.55	34649.58
804.73	34391.54
804.91	34455.03
805.09	34143.74
805.27	33879.55
805.45	34194.93
805.63	34385.40
805.81	34498.03
805.99	34219.51
806.17	34205.17
806.35	33818.11
806.53	33988.09
806.71	34014.71
806.89	33760.76
807.07	33826.30
807.25	33717.76
807.43	33234.44
807.61	33730.05
807.79	33283.59
807.97	33136.13
808.15	33152.52
808.33	32966.15
808.51	33183.24
808.69	32835.08
808.87	32904.71
809.05	33037.83
809.23	32599.57
809.41	32534.03
809.59	32767.50
809.77	32640.53
809.95	32620.05
810.13	32943.63
810.31	32462.35
810.49	32595.47
810.67	32611.85
810.84	32134.68
811.02	32390.67
811.20	32437.78
811.38	32570.90
811.56	31979.03
811.74	32155.16
811.92	31897.11
812.10	31882.78
812.28	32161.30
812.46	31673.88
812.64	31764.00
812.82	31907.35
813.00	31749.66
813.18	31663.64
813.36	31477.28
813.53	31295.01
813.71	31505.95
813.89	31305.25
814.07	31276.58
814.25	31286.82
814.43	30932.52
814.61	31297.06
814.79	31262.24
814.97	30930.47
815.15	31110.69
815.33	30909.99
815.50	30527.02
815.68	30926.38
815.86	30895.66
816.04	30531.12
816.22	30844.46
816.40	30701.10
816.58	30342.70
816.76	30365.23
816.94	30778.92
817.11	30430.77
817.29	29877.82
817.47	29978.17
817.65	29976.12
817.83	30336.56
818.01	30213.68
818.19	30039.61
818.37	30217.78
818.54	29605.44
818.72	29861.43
818.90	30215.73
819.08	29945.40
819.26	29603.39
819.44	29492.80
819.62	29871.67
819.80	29625.92
819.97	29474.37
820.15	28872.26
820.33	29320.77
820.51	29748.79
820.69	29009.48
820.87	29613.63
821.05	29441.60
821.22	29431.36
821.40	28921.41
821.58	29138.50
821.76	28948.04
821.94	29032.00
822.12	28960.33
822.29	29294.14
822.47	28900.94
822.65	28862.02
822.83	28761.67
823.01	28739.15
823.19	28776.01
823.36	28483.15
823.54	28890.70
823.72	28218.96
823.90	28816.97
824.08	28286.54
824.25	28425.81
824.43	28149.33
824.61	28470.86
824.79	28612.17
824.97	28665.42
825.15	28198.48
825.32	28241.49
825.50	28198.48
825.68	28329.55
825.86	28200.53
826.04	28171.86
826.21	28118.61
826.39	28036.69
826.57	27981.40
826.75	27827.80
826.93	27903.57
827.10	27960.92
827.28	27852.38
827.46	28180.05
827.64	27684.44
827.81	27332.19
827.99	27692.63
828.17	27768.41
828.35	27614.81
828.53	27530.84
828.70	27825.75
828.88	27358.81
829.06	27524.70
829.24	27455.07
829.41	27233.89
829.59	27061.86
829.77	27254.37
829.95	27149.92
830.12	27344.48
830.30	27115.11
830.48	27213.41
830.66	27016.80
830.84	27129.44
831.01	27158.11
831.19	27391.58
831.37	27104.87
831.55	26828.39
831.72	27029.09
831.90	26764.90
832.08	27051.62
832.25	26500.72
832.43	26619.50
832.61	26785.38
832.79	26435.18
832.96	26553.96
833.14	26746.47
833.32	26838.63
833.50	26631.79
833.67	26664.55
833.85	26455.66
834.03	26236.53
834.20	26662.51
834.38	26388.08
834.56	26472.04
834.74	25955.96
834.91	26302.06
835.09	26050.16
835.27	25740.92
835.44	26336.88
835.62	25734.78
835.80	25740.92
835.98	26003.06
836.15	26056.31
836.33	25939.57
836.51	26089.07
836.68	25917.04
836.86	25783.93
837.04	26023.54
837.21	25638.52
837.39	25921.14
837.57	26089.07
837.75	25773.69
837.92	25454.20
838.10	25699.96
838.28	25300.61
838.45	25591.42
838.63	25642.62
838.81	25288.32
838.98	25101.95
839.16	25536.12
839.34	25319.04
839.51	25200.26
839.69	25200.26
839.87	24934.02
840.04	25210.50
840.22	25400.96
840.40	25069.19
840.57	24714.89
840.75	25212.54
840.93	24794.76
841.10	25104.00
841.28	24845.96
841.46	24813.19
841.63	25009.79
841.81	24909.44
841.98	24850.05
842.16	24989.31
842.34	24774.28
842.51	24438.41
842.69	24618.63
842.87	24841.86
843.04	24745.61
843.22	24336.01
843.40	24446.60
843.57	24194.70
843.75	24372.88
843.92	24405.64
844.10	24477.32
844.28	24530.57
844.45	24571.53
844.63	24637.06
844.81	24407.69
844.98	24508.04
845.16	24383.12
845.33	24383.12
845.51	24446.60
845.69	24108.69
845.86	24125.07
846.04	23758.49
846.21	24014.48
846.39	24198.80
846.57	24534.67
846.74	23996.05
846.92	23709.33
847.09	23613.08
847.27	23914.13
847.45	23910.04
847.62	23946.90
847.80	23946.90
847.97	24114.83
848.15	23807.64
848.32	23385.76
848.50	23559.83
848.68	23541.40
848.85	23414.43
849.03	23254.69
849.20	23643.80
849.38	23305.88
849.56	23606.94
849.73	23277.21
849.91	23402.14
850.08	23617.18
850.26	23291.55
850.43	23420.57
850.61	23350.94
850.78	22822.56
850.96	23244.45
851.14	22787.75
851.31	23252.64
851.49	23066.27
851.66	23334.56
851.84	22937.25
852.01	22869.67
852.19	23043.74
852.36	22972.07
852.54	22849.19
852.71	22904.48
852.89	23017.12
853.07	22929.06
853.24	22668.97
853.42	22660.77
853.59	22765.22
853.77	22898.34
853.94	22625.96
854.12	22916.77
854.29	22687.40
854.47	22601.38
854.64	22412.97
854.82	22390.44
854.99	22595.24
855.17	22648.49
855.34	22304.43
855.52	22628.01
855.69	22611.62
855.87	22546.09
856.04	22427.31
856.22	22482.60
856.39	22066.86
856.57	22335.15
856.74	21849.78
856.92	22517.42
857.09	21890.74
857.27	21962.42
857.44	22224.56
857.62	21929.65
857.79	21851.83
857.97	22290.09
858.14	22101.68
858.32	22062.77
858.49	22154.93
858.67	21810.87
858.84	21780.15
859.02	21751.48
859.19	21722.80
859.37	21753.52
859.54	21790.39
859.72	21884.59
859.89	21616.31
860.06	21819.06
860.24	21321.40
860.41	21626.55
860.59	21116.61
860.76	21890.74
860.94	21253.82
861.11	21644.98
861.29	21296.83
861.46	21438.14
861.64	21061.31
861.81	21606.07
861.98	21132.99
862.16	21169.85
862.33	21135.04
862.51	21268.16
862.68	21059.26
862.86	21112.51
863.03	21300.92
863.21	21378.75
863.38	20879.04
863.55	21044.93
863.73	20932.29
863.90	21139.13
864.08	20893.38
864.25	20813.51
864.43	20967.10
864.60	20819.65
864.77	20713.16
864.95	20661.96
865.12	20577.99
865.30	20651.72
865.47	20365.00
865.64	21046.97
865.82	20803.27
865.99	20696.77
866.17	20532.93
866.34	20676.29
866.51	20350.67
866.69	20555.46
866.86	20688.58
867.04	20385.48
867.21	20389.58
867.38	20074.19
867.56	20031.18
867.73	20457.16
867.91	20084.43
868.08	20190.92
868.25	19877.58
868.43	19865.30
868.60	19828.43
868.78	19885.78
868.95	20201.16
869.12	19957.46
869.30	19803.86
869.47	19889.87
869.64	19660.50
869.82	19959.50
869.99	19689.17
870.16	19633.88
870.34	19873.49
870.51	19719.89
870.69	19846.87
870.86	19635.92
871.03	19666.64
871.21	19723.99
871.38	19734.23
871.55	19345.11
871.73	19095.26
871.90	19562.20
872.07	19523.29
872.25	19373.78
872.42	19388.12
872.59	19361.50
872.77	19123.93
872.94	19232.47
873.11	19031.77
873.29	19216.09
873.46	19039.97
873.63	19130.08
873.81	18915.04
873.98	18685.67
874.15	18951.90
874.33	18773.73
874.50	18609.89
874.67	18919.14
874.85	18573.03
875.02	18775.78
875.19	18458.34
875.37	18585.32
875.54	18300.65
875.71	18519.78
875.88	18439.91
876.06	18482.92
876.23	18501.35
876.40	18454.25
876.58	18378.47
876.75	18300.65
876.92	18403.05
877.10	18419.43
877.27	18237.16
877.44	18171.63
877.61	18284.26
877.79	18028.27
877.96	17946.35
878.13	17919.73
878.31	17833.71
878.48	17673.97
878.65	17846.00
878.82	17598.20
879.00	17886.96
879.17	17762.03
879.34	17555.19
879.51	17815.28
879.69	17839.86
879.86	17354.49
880.03	17585.91
880.21	17628.92
880.38	17512.18
880.55	17639.15
880.72	17379.06
880.90	17626.87
881.07	17344.25
881.24	17374.97
881.41	17485.56
881.59	17245.94
881.76	17243.90
881.93	17606.39
882.10	17053.44
882.28	17245.94
882.45	17174.27
882.62	17243.90
882.79	17413.88
882.96	16799.49
883.14	17291.00
883.31	17121.02
883.48	16992.00
883.65	17088.25
883.83	17094.40
884.00	17018.62
884.17	17018.62
884.34	17172.22
884.51	16752.38
884.69	16815.87
884.86	16862.97
885.03	16803.58
885.20	16670.47
885.38	16627.46
885.55	16774.91
885.72	16779.01
885.89	16883.45
886.06	16695.04
886.24	16633.60
886.41	16498.44
886.58	16930.56
886.75	16647.94
886.92	16535.30
887.10	16473.86
887.27	16199.43
887.44	16598.79
887.61	16828.16
887.78	16570.12
887.95	16520.96
888.13	16400.13
888.30	16375.56
888.47	16426.76
888.64	16295.69
888.81	16209.67
888.99	16416.52
889.16	16070.41
889.33	16312.07
889.50	16144.14
889.67	16201.48
889.84	16080.65
890.01	16299.78
890.19	16062.22
890.36	15845.13
890.53	15902.48
890.70	15910.67
890.87	15963.92
891.04	15927.05
891.22	15888.14
891.39	15703.82
891.56	15804.17
891.73	15740.69
891.90	15763.22
892.07	15597.33
892.24	15922.96
892.42	15499.03
892.59	15576.85
892.76	15509.27
892.93	15675.15
893.10	15935.24
893.27	15494.93
893.44	15482.64
893.61	15523.60
893.79	15736.59
893.96	15648.53
894.13	15499.03
894.30	15462.16
894.47	15224.60
894.64	15732.50
894.81	15482.64
894.98	15517.46
895.15	15609.62
895.33	15220.50
895.50	15609.62
895.67	15615.76
895.84	15288.09
896.01	15329.05
896.18	15355.67
896.35	15666.96
896.52	15009.56
896.69	15253.27
896.86	15243.03
897.04	15386.39
897.21	15327.00
897.38	15286.04
897.55	15040.28
897.72	15224.60
897.89	15200.02
898.06	15279.89
898.23	15474.45
898.40	15398.68
898.57	15204.12
898.74	15298.33
898.91	15261.46
899.08	14995.23
899.26	15068.95
899.43	15480.60
899.60	15181.59
899.77	15040.28
899.94	15187.74
900.11	14984.99
900.28	15167.26
900.45	14974.75
900.62	15101.72
900.79	15095.58
900.96	15245.08
901.13	15290.13
901.30	15314.71
901.47	15066.91
901.64	15116.06
901.81	15185.69
901.98	15050.52
902.15	15267.61
902.32	15306.52
902.49	15191.83
902.66	15089.43
902.83	15081.24
903.01	15075.10
903.18	15071.00
903.35	15298.33
903.52	14872.35
903.69	15265.56
903.86	15073.05
904.03	14991.13
904.20	14997.28
904.37	15079.19
904.54	15093.53
904.71	14835.49
904.88	15091.48
905.05	14901.02
905.22	15191.83
905.39	14919.45
905.56	14915.36
905.73	14898.97
905.90	15165.21
906.07	15273.75
906.24	15208.22
906.41	14946.08
906.58	15048.47
906.75	14800.67
906.92	15019.80
907.09	15073.05
907.26	14917.40
907.43	14851.87
907.60	14987.04
907.77	15077.15
907.93	15173.40
908.10	14960.41
908.27	15097.63
908.44	14696.22
908.61	14921.50
908.78	14855.97
908.95	14739.23
909.12	14956.32
909.29	14995.23
909.46	14931.74
909.63	14982.94
909.80	14837.53
909.97	14855.97
910.14	14790.43
910.31	14739.23
910.48	14855.97
910.65	14767.90
910.82	14759.71
910.99	14542.63
911.16	14808.86
911.33	14810.91
911.50	14837.53
911.66	14733.09
911.83	14868.25
912.00	14548.77
912.17	14466.85
912.34	14626.59
912.51	14599.97
912.68	14419.75
912.85	14432.04
913.02	14356.26
913.19	14425.89
913.36	14464.80
913.53	14548.77
913.70	14243.62
913.86	14319.40
914.03	14399.27
914.20	14378.79
914.37	14554.91
914.54	14184.23
914.71	14282.53
914.88	14337.83
915.05	14311.21
915.22	14124.84
915.39	14034.73
915.55	13967.15
915.72	14071.59
915.89	13829.93
916.06	13713.20
916.23	14128.94
916.40	14032.68
916.57	13807.41
916.74	13844.27
916.91	13825.84
917.07	13551.41
917.24	13455.15
917.41	13717.29
917.58	13633.33
917.75	13635.38
917.92	13379.38
918.09	13563.70
918.26	13657.90
918.42	13457.20
918.59	13420.34
918.76	13358.90
918.93	13395.76
919.10	13324.08
919.27	13111.10
919.44	13360.95
919.60	13297.46
919.77	13223.73
919.94	13209.40
920.11	13035.32
920.28	13250.36
920.45	13311.80
920.61	12877.63
920.78	12990.27
920.95	12822.33
921.12	12826.43
921.29	12769.09
921.46	12658.49
921.62	12619.58
921.79	12617.54
921.96	12752.70
922.13	12478.27
922.30	12605.25
922.47	12508.99
922.63	12502.85
922.80	12500.80
922.97	12394.31
923.14	12244.81
923.31	12443.46
923.47	12261.19
923.64	12764.99
923.81	11984.71
923.98	12220.23
924.15	12013.38
924.32	12068.68
924.48	12148.55
924.65	12121.93
924.82	11915.08
924.99	11753.29
925.15	11685.71
925.32	11802.44
925.49	11489.10
925.66	11786.06
925.83	11454.29
925.99	11540.30
926.16	11501.39
926.33	11761.48
926.50	11448.15
926.67	11571.02
926.83	11554.64
927.00	11415.38
927.17	11349.84
927.34	11280.21
927.50	11345.75
927.67	11267.92
927.84	11145.05
928.01	10983.26
928.17	10942.30
928.34	11026.26
928.51	10876.76
928.68	11020.12
928.84	10790.75
929.01	10774.36
929.18	10669.92
929.35	10641.25
929.51	10704.73
929.68	10690.40
929.85	10661.73
930.02	10479.46
930.18	10549.09
930.35	10504.03
930.52	10624.86
930.69	10581.85
930.85	10372.96
931.02	10209.12
931.19	10463.07
931.36	10178.40
931.52	10395.49
931.69	10282.85
931.86	10205.03
932.02	10053.48
932.19	10022.76
932.36	9930.60
932.53	10014.57
932.69	9854.83
932.86	10020.71
933.03	9807.72
933.19	9647.98
933.36	9652.08
933.53	9697.13
933.70	9527.15
933.86	9529.20
934.03	9637.74
934.20	9451.38
934.36	9594.73
934.53	9400.18
934.70	9187.19
934.86	9238.39
935.03	8957.82
935.20	8892.28
935.36	9052.02
935.53	8859.51
935.70	8873.85
935.86	9002.87
936.03	8863.61
936.20	8671.10
936.36	8488.83
936.53	8644.48
936.70	8540.03
936.86	8439.68
937.03	8400.77
937.20	8234.88
937.36	8134.53
937.53	8042.37
937.70	8101.76
937.86	7923.59
938.03	7874.44
938.20	7913.35
938.36	7788.43
938.53	7757.71
938.70	7403.41
938.86	7563.15
939.03	7458.70
939.20	7303.06
939.36	7104.40
939.53	7182.23
939.70	7360.40
939.86	7102.36
940.03	6932.37
940.19	6868.89
940.36	6750.10
940.53	6889.37
940.69	6522.78
940.86	6741.91
941.03	6500.25
941.19	6432.67
941.36	6438.81
941.52	6467.49
941.69	6127.52
941.86	6274.98
942.02	6203.30
942.19	6148.00
942.35	6102.95
942.52	6078.37
942.69	5887.91
942.85	5945.25
943.02	5826.47
943.18	5769.13
943.35	5773.22
943.52	5926.82
943.68	5726.12
943.85	5498.80
944.01	5650.35
944.18	5638.06
944.35	5705.64
944.51	5502.89
944.68	5543.85
944.84	5439.40
945.01	5332.91
945.17	5380.01
945.34	5588.91
945.51	5382.06
945.67	5556.14
945.84	5351.34
946.00	5371.82
946.17	5371.82
946.33	5318.57
946.50	5357.49
946.67	5271.47
946.83	5506.99
947.00	5394.35
947.16	5330.86
947.33	5328.81
947.49	5300.14
947.66	5386.16
947.82	5388.21
947.99	5353.39
948.16	5353.39
948.32	5390.25
948.49	5255.09
948.65	5439.40
948.82	5400.49
948.98	5285.81
949.15	5068.72
949.31	5261.23
949.48	5255.09
949.64	5081.01
949.81	5296.05
949.97	5318.57
950.14	5334.96
950.30	5101.49
950.47	5435.31
950.63	5324.72
950.80	5328.81
950.96	5263.28
951.13	5171.12
951.30	5406.64
951.46	5304.24
951.63	5558.19
951.79	5382.06
951.96	5447.60
952.12	5330.86
952.29	5492.65
952.45	5314.48
952.62	5500.84
952.78	5416.88
952.94	5273.52
953.11	5353.39
953.27	5304.24
953.44	5474.22
953.60	5427.12
953.77	5517.23
953.93	5484.46
954.10	5447.60
954.26	5408.69
954.43	5408.69
954.59	5523.37
954.76	5578.67
954.92	5380.01
955.09	5416.88
955.25	5369.77
955.42	5463.98
955.58	5361.58
955.75	5509.04
955.91	5427.12
956.07	5412.78
956.24	5486.51
956.40	5453.74
956.57	5527.47
956.73	5343.15
956.90	5437.36
957.06	5472.17
957.23	5459.88
957.39	5459.88
957.56	5482.41
957.72	5375.92
957.88	5386.16
958.05	5547.95
958.21	5490.60
958.38	5582.76
958.54	5386.16
958.71	5744.55
958.87	5449.64
959.03	5558.19
959.20	5519.28
959.36	5445.55
959.53	5562.28
959.69	5445.55
959.85	5380.01
960.02	5300.14
960.18	5488.56
960.35	5388.21
960.51	5529.52
960.68	5463.98
960.84	5500.84
961.00	5318.57
961.17	5425.07
961.33	5525.42
961.50	5377.97
961.66	5500.84
961.82	5373.87
961.99	5511.08
962.15	5472.17
962.31	5463.98
962.48	5418.93
962.64	5535.66
962.81	5449.64
962.97	5367.73
963.13	5484.46
963.30	5451.69
963.46	5326.77
963.62	5361.58
963.79	5558.19
963.95	5547.95
964.12	5283.76
964.28	5386.16
964.44	5431.21
964.61	5506.99
964.77	5382.06
964.93	5468.08
965.10	5453.74
965.26	5320.62
965.42	5371.82
965.59	5369.77
965.75	5361.58
965.92	5418.93
966.08	5367.73
966.24	5337.01
966.41	5312.43
966.57	5273.52
966.73	5328.81
966.90	5476.27
967.06	5314.48
967.22	5187.50
967.39	5175.22
967.55	5230.51
967.71	5218.22
967.88	5316.53
968.04	5224.37
968.20	5154.74
968.37	5119.92
968.53	5144.50
968.69	5119.92
968.85	5230.51
969.02	5078.96
969.18	5119.92
969.34	5132.21
969.51	5072.82
969.67	5152.69
969.83	5027.76
970.00	5259.18
970.16	5121.97
970.32	5040.05
970.48	5103.54
970.65	5162.93
970.81	4984.76
970.97	5031.86
971.14	5013.43
971.30	5167.03
971.46	4902.84
971.63	5093.30
971.79	5253.04
971.95	4986.80
972.11	4941.75
972.28	4927.41
972.44	4951.99
972.60	4906.93
972.76	4919.22
972.93	4847.54
973.09	5066.67
973.25	4949.94
973.42	4847.54
973.58	4888.50
973.74	5017.52
973.90	5056.43
974.07	4857.78
974.23	4886.45
974.39	4933.56
974.55	4900.79
974.72	4788.15
974.88	4728.76
975.04	4853.69
975.20	4841.40
975.37	4773.82
975.53	4786.10
975.69	4841.40
975.85	4650.94
976.01	4835.25
976.18	4702.14
976.34	4755.38
976.50	4702.14
976.66	4859.83
976.83	4741.05
976.99	4624.31
977.15	4718.52
977.31	4736.95
977.47	4673.46
977.64	4624.31
977.80	4497.34
977.96	4691.90
978.12	4650.94
978.29	4628.41
978.45	4573.11
978.61	4573.11
978.77	4669.37
978.93	4491.20
979.10	4628.41
979.26	4648.89
979.42	4581.31
979.58	4360.13
979.74	4526.01
979.91	4487.10
980.07	4306.88
980.23	4583.35
980.39	4366.27
980.55	4509.63
980.71	4384.70
980.88	4384.70
981.04	4392.89
981.20	4444.09
981.36	4499.39
981.52	4335.55
981.68	4388.80
981.85	4349.89
982.01	4345.79
982.17	4364.22
982.33	4302.78
982.49	4313.02
982.65	4298.69
982.82	4272.06
982.98	4274.11
983.14	4220.86
983.30	4466.62
983.46	4267.97
983.62	4454.33
983.79	4284.35
983.95	4296.64
984.11	4063.17
984.27	4208.58
984.43	4126.66
984.59	4315.07
984.75	4245.44
984.91	4186.05
985.08	4231.10
985.24	4054.98
985.40	4069.31
985.56	4134.85
985.72	4214.72
985.88	4202.43
986.04	4122.56
986.20	4057.03
986.37	4210.62
986.53	4034.50
986.69	4089.79
986.85	4007.87
987.01	4018.11
987.17	4130.75
987.33	3936.20
987.49	3930.05
987.65	4095.94
987.82	4071.36
987.98	3948.48
988.14	3870.66
988.30	3964.87
988.46	3909.57
988.62	3954.63
988.78	4024.26
988.94	3901.38
989.10	3872.71
989.26	3737.54
989.42	4059.07
989.59	3815.37
989.75	3862.47
989.91	3823.56
990.07	3702.73
990.23	3749.83
990.39	3878.85
990.55	3856.33
990.71	3844.04
990.87	3850.18
991.03	3856.33
991.19	3719.11
991.35	3727.30
991.51	3770.31
991.67	3897.28
991.83	3821.51
992.00	3712.97
992.16	3755.97
992.32	3694.54
992.48	3700.68
992.64	3588.04
992.80	3772.36
992.96	3620.81
993.12	3803.08
993.28	3749.83
993.44	3600.33
993.60	3760.07
993.76	3698.63
993.92	3631.05
994.08	3575.75
994.24	3534.79
994.40	3588.04
994.56	3663.82
994.72	3620.81
994.88	3528.65
995.04	3569.61
995.20	3534.79
995.36	3532.75
995.52	3610.57
995.68	3502.03
995.84	3573.71
996.00	3696.58
996.16	3510.22
996.32	3373.00
996.48	3456.97
996.64	3583.95
996.80	3499.98
996.96	3506.12
997.12	3368.91
997.28	3442.64
997.44	3461.07
997.60	3379.15
997.76	3442.64
997.92	3350.48
998.08	3327.95
998.24	3336.14
998.40	3377.10
998.56	3536.84
998.72	3235.79
998.88	3364.81
999.04	3291.09
999.20	3403.72
999.36	3198.93
999.52	3373.00
999.68	3311.57
999.84	3403.72
1000.00	3227.60
1000.16	3231.69
1000.32	3194.83
1000.48	3321.81
1000.64	3129.30
1000.80	3293.13
1000.95	3170.26
1001.11	3164.11
1001.27	3127.25
1001.43	3207.12
1001.59	2998.23
1001.75	3114.96
1001.91	3143.63
1002.07	3205.07
1002.23	3213.26
1002.39	3108.82
1002.55	3121.10
1002.71	3055.57
1002.87	3071.95
1003.03	3125.20
1003.19	3082.19
1003.34	3133.39
1003.50	3049.43
1003.66	3055.57
1003.82	3094.48
1003.98	3022.80
1004.14	3065.81
1004.30	2899.92
1004.46	2951.12
1004.62	3033.04
1004.78	3035.09
1004.94	3071.95
1005.09	3014.61
1005.25	3047.38
1005.41	3055.57
1005.57	2910.16
1005.73	2871.25
1005.89	2940.88
1006.05	3010.51
1006.21	3016.66
1006.37	2881.49
1006.52	2795.48
1006.68	2865.11
1006.84	2934.74
1007.00	2916.31
1007.16	2977.75
1007.32	2904.02
1007.48	2967.51
1007.64	2887.64
1007.79	2936.79
1007.95	2752.47
1008.11	2965.46
1008.27	2760.66
1008.43	2844.63
1008.59	2777.05
1008.75	2797.53
1008.91	2811.86
1009.06	2822.10
1009.22	2789.33
1009.38	2854.87
1009.54	2877.40
1009.70	2684.89
1009.86	2766.81
1010.01	2863.06
1010.17	2791.38
1010.33	2947.03
1010.49	2746.33
1010.65	2750.42
1010.81	2723.80
1010.96	2797.53
1011.12	2697.17
1011.28	2643.93
1011.44	2611.16
1011.60	2736.09
1011.76	2719.70
1011.91	2795.48
1012.07	2666.46
1012.23	2639.83
1012.39	2590.68
1012.55	2783.19
1012.71	2598.87
1012.86	2648.02
1013.02	2660.31
1013.18	2611.16
1013.34	2568.15
1013.50	2731.99
1013.65	2674.65
1013.81	2633.69
1013.97	2693.08
1014.13	2703.32
1014.29	2635.74
1014.44	2617.30
1014.60	2590.68
1014.76	2580.44
1014.92	2588.63
1015.07	2527.19
1015.23	2553.82
1015.39	2543.58
1015.55	2516.95
1015.71	2564.06
1015.86	2484.19
1016.02	2484.19
1016.18	2408.41
1016.34	2555.86
1016.49	2555.86
1016.65	2557.91
1016.81	2480.09
1016.97	2504.67
1017.12	2498.52
1017.28	2353.12
1017.44	2375.64
1017.60	2451.42
1017.75	2441.18
1017.91	2592.73
1018.07	2451.42
1018.23	2402.27
1018.38	2453.47
1018.54	2437.08
1018.70	2342.88
1018.86	2420.70
1019.01	2416.60
1019.17	2396.12
1019.33	2396.12
1019.49	2426.84
1019.64	2379.74
1019.80	2381.79
1019.96	2404.32
1020.12	2437.08
1020.27	2322.40
1020.43	2379.74
1020.59	2412.51
1020.74	2381.79
1020.90	2445.27
1021.06	2308.06
1021.22	2418.65
1021.37	2408.41
1021.53	2250.72
1021.69	2318.30
1021.84	2293.72
1022.00	2363.36
1022.16	2342.88
1022.31	2318.30
1022.47	2273.25
1022.63	2346.97
1022.79	2312.16
1022.94	2271.20
1023.10	2279.39
1023.26	2250.72
1023.41	2215.90
1023.57	2252.77
1023.73	2293.72
1023.88	2232.29
1024.04	2199.52
1024.20	2273.25
1024.35	2275.29
1024.51	2238.43
1024.67	2252.77
1024.82	2271.20
1024.98	2211.81
1025.14	2201.57
1025.29	2174.94
1025.45	2179.04
1025.61	2199.52
1025.76	2211.81
1025.92	2166.75
1026.08	2252.77
1026.23	2154.46
1026.39	2244.57
1026.55	2193.37
1026.70	2170.85
1026.86	2183.13
1027.02	2131.94
1027.17	2148.32
1027.33	2248.67
1027.48	2156.51
1027.64	2068.45
1027.80	2166.75
1027.95	2131.94
1028.11	2123.74
1028.27	2097.12
1028.42	2113.50
1028.58	2099.17
1028.73	2084.83
1028.89	2019.30
1029.05	2289.63
1029.20	2215.90
>>>>>End Processed Spectral Data<<<<<
