SpectraSuite Data File
++++++++++++++++++++++++++++++++++++
Date: Fri Jun 02 14:49:29 CEST 2017
User: INFO_000
Dark Spectrum Present: No
Reference Spectrum Present: No
Number of Sampled Component Spectra: 1
Spectrometers: USB4H00879
Integration Time (usec): 80000 (USB4H00879)
Spectra Averaged: 1 (USB4H00879)
Boxcar Smoothing: 0 (USB4H00879)
Correct for Electrical Dark: No (USB4H00879)
Strobe/Lamp Enabled: No (USB4H00879)
Correct for Detector Non-linearity: No (USB4H00879)
Correct for Stray Light: No (USB4H00879)
Number of Pixels in Processed Spectrum: 3648
>>>>>Begin Processed Spectral Data<<<<<
345.13	1339.37
345.34	1339.37
345.56	1339.37
345.78	1284.08
345.99	1294.32
346.21	1681.38
346.42	1722.34
346.64	1605.61
346.86	1757.16
347.07	1705.96
347.29	1677.29
347.50	1607.66
347.72	1673.19
347.94	1794.02
348.15	1599.46
348.37	1605.61
348.59	1767.40
348.80	1665.00
349.02	1810.40
349.23	1839.08
349.45	1847.27
349.67	1941.47
349.88	1822.69
350.10	1941.47
350.31	1810.40
350.53	1794.02
350.75	1953.76
350.96	1822.69
351.18	1812.45
351.39	1900.52
351.61	1804.26
351.82	1918.95
352.04	1910.75
352.26	1849.32
352.47	1892.32
352.69	1875.94
352.90	1738.73
353.12	1847.27
353.34	1894.37
353.55	1888.23
353.77	1896.42
353.98	1851.36
354.20	1857.51
354.41	1927.14
354.63	1961.95
354.85	2031.58
355.06	1914.85
355.28	1755.11
355.49	1902.56
355.71	1888.23
355.92	1894.37
356.14	1916.90
356.35	1939.43
356.57	1898.47
356.79	1884.13
357.00	1845.22
357.22	1863.65
357.43	1896.42
357.65	1968.10
357.86	1845.22
358.08	1972.19
358.29	1949.67
358.51	1959.91
358.72	1933.28
358.94	1886.18
359.16	1865.70
359.37	1900.52
359.59	1953.76
359.80	1947.62
360.02	1972.19
360.23	1968.10
360.45	1984.48
360.66	1882.08
360.88	1884.13
361.09	1927.14
361.31	1931.23
361.52	1959.91
361.74	2013.15
361.95	2050.02
362.17	1976.29
362.38	2107.36
362.60	1935.33
362.81	1941.47
363.03	1877.99
363.24	1941.47
363.46	2045.92
363.67	2002.91
363.89	2000.87
364.10	2070.50
364.32	1912.80
364.53	2064.35
364.75	1933.28
364.96	2015.20
365.18	1984.48
365.39	2017.25
365.61	1951.71
365.82	2068.45
366.04	2035.68
366.25	1947.62
366.47	2060.26
366.68	2031.58
366.90	1933.28
367.11	2031.58
367.33	2076.64
367.54	2031.58
367.76	2035.68
367.97	2148.32
368.19	2074.59
368.40	2074.59
368.62	1982.43
368.83	1984.48
369.05	2101.22
369.26	1970.15
369.48	2019.30
369.69	2035.68
369.91	2025.44
370.12	2023.39
370.33	2158.56
370.55	1951.71
370.76	2093.02
370.98	2142.18
371.19	2050.02
371.41	1959.91
371.62	2043.87
371.84	2013.15
372.05	2127.84
372.27	1982.43
372.48	2095.07
372.69	2056.16
372.91	2080.74
373.12	2150.37
373.34	2084.83
373.55	2121.70
373.77	2181.09
373.98	2168.80
374.20	2111.46
374.41	2205.66
374.62	2107.36
374.84	2224.09
375.05	2150.37
375.27	2174.94
375.48	2121.70
375.70	2109.41
375.91	2170.85
376.12	2297.82
376.34	2162.66
376.55	2203.61
376.77	2222.05
376.98	2146.27
377.19	2076.64
377.41	2240.48
377.62	2232.29
377.84	2199.52
378.05	2330.59
378.27	2258.91
378.48	2314.20
378.69	2340.83
378.91	2334.68
379.12	2326.49
379.34	2289.63
379.55	2232.29
379.76	2273.25
379.98	2226.14
380.19	2240.48
380.41	2260.96
380.62	2250.72
380.83	2277.34
381.05	2226.14
381.26	2451.42
381.47	2170.85
381.69	2263.01
381.90	2392.03
382.12	2234.33
382.33	2242.53
382.54	2297.82
382.76	2297.82
382.97	2303.96
383.19	2271.20
383.40	2420.70
383.61	2340.83
383.83	2238.43
384.04	2277.34
384.25	2441.18
384.47	2265.05
384.68	2375.64
384.89	2271.20
385.11	2314.20
385.32	2308.06
385.54	2346.97
385.75	2445.27
385.96	2418.65
386.18	2385.88
386.39	2408.41
386.60	2371.55
386.82	2441.18
387.03	2355.16
387.24	2428.89
387.46	2445.27
387.67	2529.24
387.88	2475.99
388.10	2422.75
388.31	2494.43
388.52	2523.10
388.74	2482.14
388.95	2514.91
389.16	2557.91
389.38	2478.04
389.59	2629.59
389.80	2623.45
390.02	2478.04
390.23	2598.87
390.44	2543.58
390.66	2574.30
390.87	2463.71
391.08	2559.96
391.30	2664.41
391.51	2590.68
391.72	2625.50
391.94	2650.07
392.15	2721.75
392.36	2584.54
392.58	2574.30
392.79	2678.74
393.00	2674.65
393.22	2721.75
393.43	2691.03
393.64	2766.81
393.85	2729.94
394.07	2754.52
394.28	2680.79
394.49	2711.51
394.71	2740.18
394.92	2762.71
395.13	2617.30
395.35	2664.41
395.56	2686.94
395.77	2783.19
395.98	2799.57
396.20	2910.16
396.41	2881.49
396.62	2856.92
396.84	2764.76
397.05	2844.63
397.26	2858.96
397.47	2981.84
397.69	2818.00
397.90	2940.88
398.11	2883.54
398.32	2930.64
398.54	2742.23
398.75	2967.51
398.96	2957.27
399.18	2992.08
399.39	2895.83
399.60	3047.38
399.81	2836.44
400.03	2916.31
400.24	3274.70
400.45	2969.55
400.66	3078.10
400.88	3045.33
401.09	3200.98
401.30	2967.51
401.51	3121.10
401.73	3043.28
401.94	3063.76
402.15	3096.53
402.36	3160.02
402.58	3076.05
402.79	3180.50
403.00	3170.26
403.21	3264.46
403.43	3174.35
403.64	3266.51
403.85	3084.24
404.06	3309.52
404.27	3084.24
404.49	3125.20
404.70	3225.55
404.91	3325.90
405.12	3319.76
405.34	3289.04
405.55	3450.83
405.76	3162.06
405.97	3205.07
406.19	3239.89
406.40	3246.03
406.61	3358.67
406.82	3403.72
407.03	3346.38
407.25	3239.89
407.46	3370.96
407.67	3311.57
407.88	3477.45
408.09	3444.68
408.31	3362.76
408.52	3430.35
408.73	3348.43
408.94	3301.33
409.15	3426.25
409.37	3446.73
409.58	3491.79
409.79	3540.94
410.00	3549.13
410.21	3508.17
410.43	3477.45
410.64	3467.21
410.85	3446.73
411.06	3499.98
411.27	3575.75
411.48	3626.95
411.70	3518.41
411.91	3534.79
412.12	3641.29
412.33	3674.06
412.54	3667.91
412.76	3755.97
412.97	3753.93
413.18	3581.90
413.39	3579.85
413.60	3616.71
413.81	3745.73
414.03	3534.79
414.24	3532.75
414.45	3936.20
414.66	3604.42
414.87	3786.69
415.08	3559.37
415.30	3635.14
415.51	3755.97
415.72	3760.07
415.93	3715.02
416.14	3770.31
416.35	3764.17
416.56	3723.21
416.78	3815.37
416.99	3823.56
417.20	3928.00
417.41	3997.64
417.62	3878.85
417.83	3921.86
418.04	3938.24
418.26	3895.24
418.47	3768.26
418.68	3948.48
418.89	3977.16
419.10	4124.61
419.31	3971.01
419.52	4042.69
419.73	4075.46
419.95	3991.49
420.16	3981.25
420.37	3895.24
420.58	4132.80
420.79	3928.00
421.00	3989.44
421.21	4116.42
421.42	3944.39
421.63	4009.92
421.85	4067.27
422.06	4138.94
422.27	4161.47
422.48	4200.38
422.69	4376.51
422.90	4206.53
423.11	4192.19
423.32	4272.06
423.53	4366.27
423.75	4392.89
423.96	4458.43
424.17	4345.79
424.38	4394.94
424.59	4396.99
424.80	4550.59
425.01	4282.30
425.22	4427.71
425.43	4497.34
425.64	4548.54
425.85	4452.28
426.06	4591.55
426.28	4620.22
426.49	4368.32
426.70	4450.24
426.91	4593.59
427.12	4669.37
427.33	4573.11
427.54	4609.98
427.75	4730.81
427.96	4722.62
428.17	4671.42
428.38	4706.23
428.59	4870.07
428.80	4882.36
429.01	4878.26
429.23	4769.72
429.44	4997.04
429.65	4911.03
429.86	5050.29
430.07	4868.02
430.28	4763.58
430.49	5011.38
430.70	5164.98
430.91	5076.91
431.12	5015.48
431.33	5097.39
431.54	5193.65
431.75	4997.04
431.96	4986.80
432.17	5162.93
432.38	5091.25
432.59	5402.54
432.80	5224.37
433.01	5353.39
433.22	5242.80
433.43	5310.38
433.64	5224.37
433.85	5269.42
434.06	5240.75
434.27	5210.03
434.49	5265.33
434.70	5492.65
434.91	5433.26
435.12	5601.19
435.33	5445.55
435.54	5449.64
435.75	5210.03
435.96	5599.15
436.17	5433.26
436.38	5623.72
436.59	5574.57
436.80	5459.88
437.01	5697.45
437.22	5889.96
437.43	5547.95
437.64	5527.47
437.85	5654.44
438.06	5787.56
438.27	5646.25
438.48	5683.11
438.69	5744.55
438.90	5863.33
439.11	5652.39
439.32	5898.15
439.53	5840.81
439.74	5971.88
439.95	5820.33
440.16	5803.94
440.37	5922.73
440.57	5910.44
440.78	6064.04
440.99	5805.99
441.20	5904.29
441.41	5752.74
441.62	5953.45
441.83	5873.57
442.04	6098.85
442.25	6010.79
442.46	6158.24
442.67	6109.09
442.88	6465.44
443.09	5889.96
443.30	6115.23
443.51	6197.15
443.72	6303.65
443.93	6182.82
444.14	6287.26
444.35	6045.60
444.56	6256.54
444.77	6375.33
444.98	6162.34
445.19	6354.85
445.40	6451.10
445.61	6387.61
445.81	6313.89
446.02	6582.17
446.23	6416.29
446.44	6324.13
446.65	6389.66
446.86	6639.51
447.07	6412.19
447.28	6637.47
447.49	6696.86
447.70	6434.72
447.91	6610.84
448.12	6668.19
448.33	6746.01
448.54	6606.75
448.74	6492.06
448.95	6680.47
449.16	6651.80
449.37	6999.96
449.58	6795.16
449.79	6872.98
450.00	6752.15
450.21	6913.94
450.42	7010.20
450.63	6932.37
450.84	6997.91
451.05	6932.37
451.25	6930.33
451.46	7040.92
451.67	7034.77
451.88	7241.62
452.09	7102.36
452.30	7157.65
452.51	6967.19
452.72	7270.29
452.93	7546.76
453.13	7108.50
453.34	7090.07
453.55	7243.67
453.76	7278.48
453.97	7661.45
454.18	7319.44
454.39	7520.14
454.60	7344.02
454.81	7450.51
455.01	7532.43
455.22	7253.91
455.43	7573.39
455.64	7755.66
455.85	7784.33
456.06	8028.04
456.27	7810.95
456.48	7671.69
456.68	7813.00
456.89	7827.34
457.10	8093.57
457.31	7853.96
457.52	7915.40
457.73	7763.85
457.94	8304.51
458.14	7847.82
458.35	8329.09
458.56	8193.92
458.77	8161.16
458.98	8316.80
459.19	8327.04
459.39	8216.45
459.60	8400.77
459.81	8150.92
460.02	8398.72
460.23	8415.10
460.44	8652.67
460.65	8722.30
460.85	8652.67
461.06	8796.03
461.27	8556.41
461.48	8849.27
461.69	8920.95
461.89	8589.18
462.10	8818.55
462.31	8595.32
462.52	8607.61
462.73	8904.57
462.94	9111.41
463.14	8914.81
463.35	9031.54
463.56	9330.55
463.77	9348.98
463.98	8986.49
464.18	9232.24
464.39	9375.60
464.60	9725.80
464.81	9514.86
465.02	9410.42
465.23	9746.28
465.43	9543.53
465.64	9766.76
465.85	9734.00
466.06	9756.52
466.27	9977.70
466.47	10174.31
466.68	10051.43
466.89	9944.94
467.10	10137.45
467.30	9957.22
467.51	10061.67
467.72	10264.42
467.93	10145.64
468.14	10264.42
468.34	10514.27
468.55	10528.61
468.76	10338.15
468.97	10321.76
469.17	10665.82
469.38	10706.78
469.59	10807.13
469.80	10712.92
470.01	10743.64
470.21	10721.12
470.42	11147.09
470.63	11151.19
470.84	11046.74
471.04	11245.40
471.25	11171.67
471.46	11079.51
471.67	11634.51
471.87	11523.92
472.08	11568.98
472.29	11685.71
472.50	11362.13
472.70	11550.54
472.91	11677.52
473.12	12023.62
473.33	12007.24
473.53	12029.77
473.74	11878.22
473.95	12183.37
474.16	12463.94
474.36	12248.90
474.57	12394.31
474.78	12635.97
474.99	12386.12
475.19	12406.59
475.40	12816.19
475.61	12928.83
475.81	13053.75
476.02	13123.38
476.23	12842.81
476.44	13102.90
476.64	13424.44
476.85	13371.19
477.06	13467.44
477.27	13606.70
477.47	13756.21
477.68	13711.15
477.89	13815.60
478.09	14006.06
478.30	13918.00
478.51	14020.39
478.71	14102.31
478.92	14173.99
479.13	14507.81
479.34	14556.96
479.54	14462.76
479.75	14462.76
479.96	14647.07
480.16	14751.52
480.37	14790.43
480.58	15103.77
480.78	15157.02
480.99	14903.07
481.20	15341.33
481.41	15120.15
481.61	15281.94
481.82	15617.81
482.03	15603.47
482.23	15494.93
482.44	16029.45
482.65	15888.14
482.85	15802.13
483.06	15920.91
483.27	16244.49
483.47	15972.11
483.68	16226.06
483.89	16514.82
484.09	16516.87
484.30	16381.70
484.51	16719.62
484.71	16797.44
484.92	16733.95
485.13	16942.85
485.33	16942.85
485.54	17116.92
485.75	17166.07
485.95	17438.45
486.16	17479.41
486.37	17633.01
486.57	17438.45
486.78	17295.10
486.98	17417.97
487.19	17596.15
487.40	17989.36
487.60	17964.78
487.81	18083.56
488.02	17809.14
488.22	18290.41
488.43	18314.98
488.64	18245.35
488.84	18591.46
489.05	18452.20
489.25	18587.36
489.46	18790.11
489.67	18767.59
489.87	18820.83
490.08	19035.87
490.29	19009.25
490.49	19422.94
490.70	19384.02
490.90	19676.88
491.11	19414.74
491.32	19621.59
491.52	19674.84
491.73	19723.99
491.94	19848.91
492.14	19560.15
492.35	20168.40
492.55	20149.96
492.76	20233.93
492.97	19996.37
493.17	20289.23
493.38	20494.02
493.58	20430.54
493.79	20731.59
494.00	20647.62
494.20	20702.92
494.41	20844.23
494.61	20889.28
494.82	20725.44
495.02	20881.09
495.23	20846.27
495.44	21286.59
495.64	21315.26
495.85	21288.64
496.05	21612.21
496.26	21468.86
496.47	21411.51
496.67	21397.18
496.88	21866.16
497.08	21737.14
497.29	21884.59
497.49	21655.22
497.70	22064.82
497.91	22273.71
498.11	22326.96
498.32	22468.27
498.52	22603.43
498.73	22601.38
498.93	22329.00
499.14	22441.64
499.34	22767.27
499.55	22843.04
499.76	22705.83
499.96	22849.19
500.17	22955.68
500.37	22992.55
500.58	23072.42
500.78	23174.81
500.99	23514.78
501.19	23473.82
501.40	23264.92
501.60	23219.87
501.81	23303.84
502.02	23352.99
502.22	23439.00
502.43	23514.78
502.63	23764.63
502.84	23930.51
503.04	23813.78
503.25	23735.96
503.45	23936.66
503.66	24163.98
503.86	24174.22
504.07	24123.02
504.27	24094.35
504.48	24780.42
504.68	24358.54
504.89	24673.93
505.09	24499.85
505.30	24792.71
505.50	24870.53
505.71	24639.11
505.91	24739.46
506.12	24759.94
506.32	25239.17
506.53	25015.94
506.73	24925.83
506.94	25362.04
507.14	24995.46
507.35	25448.06
507.55	25233.02
507.76	25200.26
507.96	25308.80
508.17	25597.56
508.37	25515.64
508.58	25378.43
508.78	25566.84
508.99	25808.50
509.19	25755.26
509.40	25941.62
509.60	25704.06
509.81	26324.59
510.01	25679.48
510.22	26103.41
510.42	26003.06
510.63	26367.60
510.83	25687.67
511.04	26150.51
511.24	26529.39
511.44	26267.25
511.65	26537.58
511.85	26603.11
512.06	26556.01
512.26	26611.31
512.47	26809.96
512.67	26699.37
512.88	26709.61
513.08	26560.11
513.29	27115.11
513.49	27078.24
513.69	27002.47
513.90	26652.27
514.10	27475.55
514.31	27162.21
514.51	27397.73
514.72	27068.00
514.92	27090.53
515.13	27422.30
515.33	27442.78
515.53	27360.86
515.74	27432.54
515.94	27715.16
516.15	27625.05
516.35	27442.78
516.56	27926.10
516.76	27625.05
516.96	28110.42
517.17	28132.95
517.37	27819.61
517.58	28415.57
517.78	27987.54
517.99	28214.87
518.19	28530.25
518.39	28606.03
518.60	28417.61
518.80	28630.60
519.01	28776.01
519.21	28741.19
519.41	28511.82
519.62	28597.84
519.82	28956.23
520.03	29193.79
520.23	28851.78
520.43	28945.99
520.64	29103.68
520.84	29220.42
521.05	29292.10
521.25	29439.55
521.45	29566.52
521.66	29892.15
521.86	29283.91
522.07	29652.54
522.27	29763.13
522.47	29537.85
522.68	30211.64
522.88	29660.73
523.08	30238.26
523.29	29875.77
523.49	30377.52
523.70	30307.89
523.90	30463.54
524.10	30479.92
524.31	30901.80
524.51	30135.86
524.71	30932.52
524.92	30479.92
525.12	30963.24
525.33	30621.23
525.53	31440.42
525.73	31286.82
525.94	30993.96
526.14	30979.62
526.34	31309.35
526.55	31252.00
526.75	31389.22
526.95	31612.45
527.16	31677.98
527.36	31792.67
527.56	32116.25
527.77	32040.47
527.97	31903.26
528.17	32009.75
528.38	32120.34
528.58	32173.59
528.78	32503.31
528.99	32337.43
529.19	32609.81
529.39	32179.73
529.60	32814.60
529.80	32595.47
530.00	32290.32
530.21	32982.54
530.41	33015.30
530.61	33043.98
530.82	33017.35
531.02	33220.10
531.22	33447.43
531.43	33289.73
531.63	33510.91
531.83	33916.41
532.04	34012.66
532.24	33162.76
532.44	34074.10
532.64	34049.53
532.85	34215.41
533.05	34192.89
533.25	34270.71
533.46	33910.27
533.66	34735.60
533.86	34506.23
534.07	35245.54
534.27	34870.76
534.47	34700.78
534.67	34936.30
534.88	34821.61
535.08	34885.10
535.28	35313.13
535.49	35243.49
535.69	35532.26
535.89	35349.99
536.09	35481.06
536.30	36150.74
536.50	35485.15
536.70	35853.79
536.91	35821.02
537.11	35689.95
537.31	35900.89
537.51	35790.30
537.72	36029.91
537.92	36398.55
538.12	36752.85
538.32	36189.66
538.53	36500.95
538.73	36371.92
538.93	36695.50
539.13	36517.33
539.34	36787.66
539.54	36519.38
539.74	37258.70
539.94	36961.74
540.15	36971.98
540.35	37057.99
540.55	37328.33
540.75	37217.74
540.96	37264.84
541.16	37330.37
541.36	37580.23
541.56	37733.82
541.77	37660.10
541.97	38034.88
542.17	37699.01
542.37	37797.31
542.58	37856.70
542.78	37815.74
542.98	37850.56
543.18	38401.46
543.38	38262.20
543.59	38409.65
543.79	38196.67
543.99	38563.25
544.19	38514.10
544.40	38315.45
544.60	38766.00
544.80	38600.12
545.00	38661.55
545.20	38948.27
545.41	38712.75
545.61	38553.01
545.81	39032.24
546.01	39134.63
546.21	39138.73
546.42	38942.13
546.62	39347.62
546.82	39343.53
547.02	39132.59
547.22	39482.79
547.43	39423.40
547.63	39138.73
547.83	39384.49
548.03	39245.23
548.23	39728.55
548.44	39507.37
548.64	39507.37
548.84	39951.77
549.04	39384.49
549.24	40027.55
549.45	40342.94
549.65	39828.90
549.85	40033.69
550.05	40306.07
550.25	39779.74
550.45	40447.38
550.66	40211.87
550.86	40105.37
551.06	40406.42
551.26	40244.63
551.46	40613.27
551.66	40682.90
551.87	40850.83
552.07	40525.21
552.27	40476.05
552.47	40504.73
552.67	40973.71
552.87	40492.44
553.07	40678.80
553.28	40922.51
553.48	40908.18
553.68	40586.64
553.88	41055.63
554.08	40920.46
554.28	41020.81
554.48	40826.26
554.69	41121.16
554.89	41565.57
555.09	41250.19
555.29	41059.73
555.49	41399.69
555.69	41207.18
555.89	41053.58
556.10	41579.91
556.30	41391.50
556.50	41624.96
556.70	41422.22
556.90	41506.18
557.10	41196.94
557.30	41813.38
557.50	41600.39
557.70	42081.66
557.91	42263.93
558.11	41948.54
558.31	42333.56
558.51	42079.61
558.71	42268.03
558.91	42136.96
559.11	41948.54
559.31	42052.99
559.51	41434.50
559.72	41876.86
559.92	42319.23
560.12	42026.37
560.32	42270.08
560.52	42065.28
560.72	42149.24
560.92	42734.96
561.12	42550.65
561.32	42573.17
561.52	42288.51
561.72	42827.12
561.93	42503.54
562.13	42728.82
562.33	42521.98
562.53	43230.57
562.73	42567.03
562.93	42706.29
563.13	42898.80
563.33	42820.98
563.53	42794.36
563.73	42380.67
563.93	42708.34
564.13	43302.25
564.33	43316.59
564.53	42954.10
564.74	43316.59
564.94	43212.14
565.14	43443.56
565.34	42863.99
565.54	43238.76
565.74	43044.21
565.94	43550.06
566.14	43588.97
566.34	42999.15
566.54	43857.25
566.74	43042.16
566.94	43742.56
567.14	43775.33
567.34	43208.04
567.54	43787.62
567.74	43507.05
567.94	43517.29
568.14	43736.42
568.34	43939.17
568.54	43765.09
568.74	43887.97
568.94	43711.84
569.14	44350.81
569.34	44092.77
569.54	44397.91
569.75	43795.81
569.95	43892.07
570.15	44260.70
570.35	44135.77
570.55	44103.01
570.75	44330.33
570.95	44316.00
571.15	44303.71
571.35	44344.67
571.55	44488.03
571.75	44520.79
571.95	44215.65
572.15	44393.82
572.35	44420.44
572.55	44639.57
572.75	44651.86
572.95	44346.72
573.15	44991.83
573.35	44934.48
573.55	44326.24
573.75	44856.66
573.95	45184.33
574.15	44864.85
574.35	45286.73
574.55	44832.08
574.75	45225.29
574.95	45327.69
575.15	45010.26
575.34	45184.33
575.54	45399.37
575.74	45436.23
575.94	45473.10
576.14	45442.38
576.34	46140.74
576.54	45856.07
576.74	46167.36
576.94	45436.23
577.14	45948.23
577.34	46359.87
577.54	45882.69
577.74	46437.69
577.94	45995.33
578.14	45909.32
578.34	46347.58
578.54	45804.87
578.74	46093.63
578.94	46466.36
579.14	46366.01
579.34	45794.63
579.54	46619.96
579.74	46933.30
579.94	46480.70
580.13	46519.61
580.33	46622.01
580.53	46769.46
580.73	46769.46
580.93	46732.60
581.13	47021.36
581.33	47322.41
581.53	47381.80
581.73	46939.44
581.93	47111.47
582.13	47068.47
582.33	47273.26
582.53	47484.20
582.73	47469.87
582.92	47682.86
583.12	47576.36
583.32	47711.53
583.52	47359.28
583.72	47785.25
583.92	47641.90
584.12	47828.26
584.32	48420.13
584.52	47547.69
584.72	47908.13
584.92	47953.19
585.11	48506.14
585.31	47760.68
585.51	48264.48
585.71	47832.36
585.91	48563.48
586.11	48555.29
586.31	48325.92
586.51	48229.66
586.71	48352.54
586.91	48880.92
587.10	48932.12
587.30	48882.97
587.50	48727.32
587.70	49300.75
587.90	48751.90
588.10	48839.96
588.30	48508.19
588.50	49104.15
588.69	48997.65
588.89	48842.01
589.09	49368.33
589.29	49231.12
589.49	49607.95
589.69	48727.32
589.89	49464.59
590.08	49542.41
590.28	49284.37
590.48	49048.85
590.68	49415.44
590.88	49433.87
591.08	49640.71
591.28	49233.17
591.47	49755.40
591.67	49671.43
591.87	50087.17
592.07	50035.97
592.27	49878.28
592.47	50038.02
592.67	49997.06
592.86	49829.13
593.06	49968.39
593.26	50482.43
593.46	50185.47
593.66	50322.69
593.86	50664.70
594.05	50345.22
594.25	50550.01
594.45	50164.99
594.65	50345.22
594.85	50271.49
595.05	50447.61
595.24	50722.04
595.44	50957.56
595.64	50447.61
595.84	50830.58
596.04	50576.64
596.23	50537.72
596.43	50978.04
596.63	50527.48
596.83	51143.92
597.03	51457.26
597.22	51274.99
597.42	51258.61
597.62	51461.36
597.82	50738.43
598.02	51608.81
598.21	51619.05
598.41	51490.03
598.61	51733.74
598.81	51250.42
599.01	51805.42
599.20	51148.02
599.40	51500.27
599.60	51791.08
599.80	51733.74
600.00	51961.06
600.19	52319.46
600.39	51619.05
600.59	52172.00
600.79	52172.00
600.98	51823.85
601.18	52614.37
601.38	52245.73
601.58	52245.73
601.78	52511.97
601.97	52313.31
602.17	52417.76
602.37	52102.37
602.57	52718.81
602.76	52602.08
602.96	52440.29
603.16	52853.98
603.36	52438.24
603.55	53292.24
603.75	52917.46
603.95	52835.55
604.15	52663.52
604.34	52810.97
604.54	53230.80
604.74	52890.84
604.94	52944.09
605.13	52905.18
605.33	53128.41
605.53	53005.53
605.73	52974.81
605.92	53427.41
606.12	53507.28
606.32	53609.68
606.52	53619.92
606.71	53538.00
606.91	53828.81
607.11	53208.28
607.30	53523.66
607.50	53458.13
607.70	53646.54
607.90	53699.79
608.09	53642.45
608.29	53611.73
608.49	53984.46
608.68	53875.91
608.88	54201.54
609.08	53753.04
609.28	53978.31
609.47	54015.18
609.67	54703.29
609.87	54166.73
610.06	54191.30
610.26	53480.66
610.46	54439.11
610.66	53757.13
610.85	54035.66
611.05	53859.53
611.25	54277.32
611.44	53814.47
611.64	54205.64
611.84	53918.92
612.03	53841.10
612.23	54203.59
612.43	53933.26
612.62	53914.83
612.82	54363.33
613.02	54373.57
613.21	54441.15
613.41	53996.74
613.61	54441.15
613.80	54297.80
614.00	54334.66
614.20	54273.22
614.39	54373.57
614.59	54559.94
614.79	54121.67
614.98	54154.44
615.18	54344.90
615.38	54195.40
615.57	53818.57
615.77	54291.65
615.97	54310.08
616.16	54293.70
616.36	54088.90
616.56	54275.27
616.75	54154.44
616.95	54267.08
617.15	53826.76
617.34	54301.89
617.54	54365.38
617.74	54944.95
617.93	54283.46
618.13	53699.79
618.32	54486.21
618.52	54250.69
618.72	54707.39
618.91	54748.35
619.11	53986.50
619.31	54400.19
619.50	54314.18
619.70	53972.17
619.90	54199.49
620.09	54207.68
620.29	54576.32
620.48	54174.92
620.68	54406.34
620.88	53945.54
621.07	54607.04
621.27	54338.75
621.46	53931.21
621.66	54578.37
621.86	54035.66
622.05	53894.35
622.25	54539.46
622.44	54101.19
622.64	54183.11
622.84	54357.19
623.03	53677.26
623.23	53900.49
623.42	54303.94
623.62	54199.49
623.82	54609.09
624.01	54037.70
624.21	54621.37
624.40	54746.30
624.60	54013.13
624.80	54250.69
624.99	54146.25
625.19	53607.63
625.38	54463.68
625.58	54224.07
625.77	54228.16
625.97	54181.06
626.17	53628.11
626.36	53826.76
626.56	54482.11
626.75	53820.62
626.95	54654.14
627.14	53830.86
627.34	54002.89
627.54	54219.97
627.73	54346.95
627.93	54070.47
628.12	53750.99
628.32	53527.76
628.51	53832.91
628.71	54170.82
628.90	53998.79
629.10	53957.83
629.30	53632.21
629.49	54015.18
629.69	54127.81
629.88	53990.60
630.08	54291.65
630.27	54453.44
630.47	53912.78
630.66	53966.02
630.86	54179.01
631.05	53417.17
631.25	54457.54
631.44	54076.61
631.64	53875.91
631.84	54109.38
632.03	54283.46
632.23	53925.07
632.42	54228.16
632.62	54115.53
632.81	53912.78
633.01	53880.01
633.20	54275.27
633.40	54547.65
633.59	54576.32
633.79	53933.26
633.98	53912.78
634.18	54305.99
634.37	54322.37
634.57	54121.67
634.76	54846.65
634.96	54777.02
635.15	54744.25
635.35	54418.63
635.54	54166.73
635.74	54518.98
635.93	54199.49
636.13	54650.05
636.32	54574.27
636.52	54021.32
636.71	54015.18
636.91	54639.81
637.10	54265.03
637.30	54461.63
637.49	54850.75
637.69	54412.48
637.88	54555.84
638.08	54359.23
638.27	54934.71
638.46	54273.22
638.66	54224.07
638.85	54389.95
639.05	54523.07
639.24	54721.72
639.44	54541.50
639.63	54627.52
639.83	54285.51
640.02	54813.88
640.22	54621.37
640.41	54613.18
640.61	54125.77
640.80	54377.67
640.99	54375.62
641.19	55063.74
641.38	54670.53
641.58	54721.72
641.77	54838.46
641.97	54478.02
642.16	54561.98
642.36	54707.39
642.55	55432.37
642.74	54473.92
642.94	55076.02
643.13	54611.13
643.33	54783.16
643.52	55172.28
643.72	55270.58
643.91	54742.20
644.10	54752.44
644.30	55071.93
644.49	55112.89
644.69	55024.82
644.88	54996.15
645.08	54543.55
645.27	54680.77
645.46	55082.17
645.66	55141.56
645.85	54666.43
646.05	55178.42
646.24	55243.96
646.43	55282.87
646.63	55458.99
646.82	55633.07
647.02	55289.01
647.21	55229.62
647.40	55227.57
647.60	55440.56
647.79	55317.68
647.99	55362.74
648.18	55100.60
648.37	55723.18
648.57	55452.85
648.76	55215.29
648.96	55299.25
649.15	55708.85
649.34	55841.96
649.54	55702.70
649.73	55291.06
649.92	55792.81
650.12	55692.46
650.31	55770.28
650.51	56140.97
650.70	55514.29
650.89	55538.86
651.09	55878.83
651.28	55618.74
651.47	55637.17
651.67	56071.34
651.86	56128.68
652.06	55973.03
652.25	55764.14
652.44	55446.71
652.64	55592.11
652.83	56042.66
653.02	55592.11
653.22	55651.50
653.41	55532.72
653.60	55307.44
653.80	55649.45
653.99	55997.61
654.18	55946.41
654.38	55850.16
654.57	55995.56
654.76	56104.10
654.96	55786.67
655.15	55803.05
655.34	55563.44
655.54	55299.25
655.73	56208.55
655.92	56065.19
656.12	56095.91
656.31	55823.53
656.50	56136.87
656.70	55542.96
656.89	56153.26
657.08	56360.10
657.28	55786.67
657.47	56003.75
657.66	56102.06
657.86	56126.63
658.05	56161.45
658.24	56601.76
658.43	56034.47
658.63	56554.66
658.82	56575.14
659.01	56472.74
659.21	56558.75
659.40	56425.64
659.59	56329.38
659.79	56349.86
659.98	56218.79
660.17	56519.84
660.36	56749.21
660.56	56720.54
660.75	56599.71
660.94	56892.57
661.14	56390.82
661.33	56204.45
661.52	55583.92
661.71	56833.18
661.91	56091.82
662.10	56493.22
662.29	56665.25
662.49	56337.57
662.68	56382.63
662.87	56552.61
663.06	56718.49
663.26	56235.17
663.45	56837.28
663.64	56464.55
663.83	56937.63
664.03	56540.32
664.22	56695.97
664.41	56323.24
664.60	56589.47
664.80	57031.83
664.99	56710.30
665.18	56458.40
665.37	56751.26
665.57	57029.79
665.76	56784.03
665.95	56497.31
666.14	56482.98
666.34	56587.42
666.53	56784.03
666.72	56300.71
666.91	56587.42
667.11	56120.49
667.30	57107.61
667.49	56292.52
667.68	56515.75
667.87	56837.28
668.07	57201.82
668.26	56571.04
668.45	56892.57
668.64	56612.00
668.84	56939.68
669.03	56845.47
669.22	56743.07
669.41	57058.46
669.60	56634.53
669.80	56876.19
669.99	56937.63
670.18	56908.96
670.37	56882.33
670.57	57257.11
670.76	56997.02
670.95	56997.02
671.14	56874.14
671.33	56577.18
671.53	57394.32
671.72	56882.33
671.91	56689.82
672.10	56814.75
672.29	56655.01
672.48	56663.20
672.68	57193.62
672.87	56945.82
673.06	56710.30
673.25	56341.67
673.44	56546.47
673.64	56786.08
673.83	56550.56
674.02	56616.10
674.21	56222.89
674.40	56521.89
674.59	56159.40
674.79	56800.41
674.98	56550.56
675.17	56982.68
675.36	56761.50
675.55	56956.06
675.74	56241.32
675.94	56677.54
676.13	56636.58
676.32	56722.59
676.51	57228.44
676.70	56837.28
676.89	56446.11
677.08	56921.24
677.28	56405.16
677.47	56530.08
677.66	56966.30
677.85	56732.83
678.04	57074.84
678.23	56816.80
678.42	56755.36
678.62	57080.98
678.81	57267.35
679.00	56722.59
679.19	57160.86
679.38	56247.46
679.57	56925.34
679.76	56720.54
679.96	56673.44
680.15	56716.45
680.34	56743.07
680.53	56284.33
680.72	56595.62
680.91	56984.73
681.10	56593.57
681.29	56538.27
681.48	56376.48
681.68	56603.81
681.87	56417.44
682.06	56665.25
682.25	56093.86
682.44	56378.53
682.63	56646.82
682.82	56358.05
683.01	55862.44
683.20	55616.69
683.39	56038.57
683.59	56089.77
683.78	55805.10
683.97	55895.21
684.16	56317.09
684.35	55858.35
684.54	55919.79
684.73	56306.85
684.92	56024.23
685.11	55798.96
685.30	55893.16
685.49	56026.28
685.69	56097.96
685.88	56028.33
686.07	55714.99
686.26	55835.82
686.45	56349.86
686.64	56274.09
686.83	56081.58
687.02	56267.94
687.21	55907.50
687.40	55604.40
687.59	55747.76
687.78	56011.95
687.97	55844.01
688.16	55964.84
688.35	55592.11
688.54	55721.13
688.74	56104.10
688.93	55252.15
689.12	55817.39
689.31	55815.34
689.50	55766.19
689.69	55504.05
689.88	55323.83
690.07	55493.81
690.26	55809.20
690.45	56071.34
690.64	55737.52
690.83	55321.78
691.02	55280.82
691.21	55381.17
691.40	55655.60
691.59	55352.50
691.78	55592.11
691.97	55798.96
692.16	55567.54
692.35	55114.94
692.54	55092.41
692.73	55510.19
692.92	55383.22
693.11	55286.96
693.30	55270.58
693.49	55020.73
693.68	55170.23
693.87	55157.94
694.06	55221.43
694.25	55030.97
694.44	54789.31
694.63	55219.38
694.82	55137.46
695.01	54604.99
695.20	54662.33
695.39	55030.97
695.58	54875.32
695.77	54570.18
695.96	54641.85
696.15	54807.74
696.34	54576.32
696.53	54633.66
696.72	54787.26
696.91	54600.89
697.10	54783.16
697.29	54518.98
697.48	54824.12
697.67	54607.04
697.86	54709.44
698.05	54502.59
698.24	54506.69
698.43	54076.61
698.62	54912.19
698.81	54174.92
699.00	54484.16
699.19	54060.23
699.38	54262.98
699.57	53884.11
699.76	54711.49
699.95	54031.56
700.14	54107.33
700.32	54197.44
700.51	54144.20
700.70	54340.80
700.89	54129.86
701.08	54363.33
701.27	54058.18
701.46	54312.13
701.65	53476.56
701.84	54056.14
702.03	53777.61
702.22	53478.61
702.41	53707.98
702.60	53847.24
702.79	53163.22
702.98	53232.85
703.17	53843.15
703.35	53195.99
703.54	53388.50
703.73	53875.91
703.92	53800.14
704.11	53497.04
704.30	52749.53
704.49	53333.20
704.68	52851.93
704.87	53087.45
705.06	53081.30
705.25	53163.22
705.43	53040.34
705.62	53132.50
705.81	52802.78
706.00	53460.18
706.19	52700.38
706.38	52563.17
706.57	52593.89
706.76	52872.41
706.95	53347.54
707.14	52829.40
707.32	52491.49
707.51	52417.76
707.70	52524.25
707.89	53216.47
708.08	52495.58
708.27	53109.97
708.46	53228.76
708.65	52466.91
708.84	52487.39
709.02	52686.04
709.21	52444.38
709.40	52503.77
709.59	52577.50
709.78	51840.23
709.97	52583.65
710.16	52210.92
710.34	52120.80
710.53	52663.52
710.72	52098.28
710.91	52036.84
711.10	52122.85
711.29	52557.02
711.48	52092.13
711.66	52253.92
711.85	51733.74
712.04	51887.34
712.23	52438.24
712.42	51885.29
712.61	51373.30
712.80	51918.06
712.98	51692.78
713.17	51553.52
713.36	51631.34
713.55	51533.04
713.74	51430.64
713.93	51688.68
714.11	51627.24
714.30	51207.41
714.49	51225.84
714.68	51715.31
714.87	51881.19
715.06	51195.12
715.24	51469.55
715.43	51090.68
715.62	50947.32
715.81	51393.78
716.00	51000.57
716.18	51025.14
716.37	50767.10
716.56	51019.00
716.75	51014.90
716.94	50414.85
717.12	50320.64
717.31	50552.06
717.50	50504.96
717.69	50410.75
717.88	50822.39
718.06	51193.07
718.25	50734.33
718.44	50183.43
718.63	50476.29
718.82	50298.11
719.00	50218.24
719.19	50367.74
719.38	50281.73
719.57	49663.24
719.76	49489.16
719.94	49468.69
720.13	49980.68
720.32	49837.32
720.51	50033.92
720.69	49630.47
720.88	49648.91
721.07	49829.13
721.26	49087.76
721.44	49364.24
721.63	49351.95
721.82	49261.84
722.01	49018.13
722.20	49073.43
722.38	49274.13
722.57	49386.77
722.76	49403.15
722.95	49093.91
723.13	48762.14
723.32	48743.70
723.51	48870.68
723.70	48815.38
723.88	49108.24
724.07	48772.38
724.26	48426.27
724.44	48192.80
724.63	48858.39
724.82	48452.89
725.01	48418.08
725.19	48256.29
725.38	48475.42
725.57	48274.72
725.76	47920.42
725.94	47895.85
726.13	48436.51
726.32	48121.12
726.51	47752.49
726.69	48536.86
726.88	48250.14
727.07	48207.14
727.25	47992.10
727.44	47897.89
727.63	47969.57
727.82	48493.85
728.00	47961.38
728.19	47961.38
728.38	48278.82
728.56	47574.31
728.75	47785.25
728.94	47664.42
729.12	48125.22
729.31	48125.22
729.50	48035.11
729.69	47838.50
729.87	47713.58
730.06	47906.08
730.25	47711.53
730.43	47897.89
730.62	47586.60
730.81	47514.92
730.99	48004.39
731.18	47652.14
731.37	48178.46
731.55	48102.69
731.74	48182.56
731.93	47836.45
732.11	48012.58
732.30	47793.45
732.49	47488.30
732.67	48012.58
732.86	47666.47
733.05	47392.04
733.23	47553.83
733.42	47039.79
733.61	47447.34
733.79	47596.84
733.98	48080.16
734.17	47123.76
734.35	47322.41
734.54	47777.06
734.73	47699.24
734.91	47707.43
735.10	47093.04
735.29	47748.39
735.47	47383.85
735.66	47514.92
735.84	47267.12
736.03	47433.00
736.22	47805.73
736.40	47295.79
736.59	46982.45
736.78	46927.16
736.96	46955.83
737.15	47256.88
737.33	47123.76
737.52	47080.75
737.71	46796.09
737.89	47172.91
738.08	46576.95
738.27	46789.94
738.45	47119.66
738.64	46867.76
738.82	46921.01
739.01	46878.00
739.20	46624.06
739.38	46806.33
739.57	46857.52
739.75	46798.13
739.94	46609.72
740.13	46681.40
740.31	46679.35
740.50	46566.71
740.68	46753.08
740.87	47031.60
741.06	46425.40
741.24	46439.74
741.43	46372.16
741.61	46607.67
741.80	46067.01
741.99	46630.20
742.17	46583.10
742.36	46376.25
742.54	46480.70
742.73	46767.41
742.91	46384.44
743.10	46544.19
743.29	46376.25
743.47	46380.35
743.66	46153.02
743.84	46394.68
744.03	46183.74
744.21	46052.67
744.40	46110.02
744.59	46218.56
744.77	46085.44
744.96	45876.55
745.14	46599.48
745.33	46277.95
745.51	46390.59
745.70	46196.03
745.88	46165.31
746.07	45862.21
746.26	45841.73
746.44	45788.49
746.63	46005.57
746.81	46193.98
747.00	45940.04
747.18	45907.27
747.37	46015.81
747.55	45856.07
747.74	45854.02
747.92	45577.54
748.11	45598.02
748.29	45573.45
748.48	46021.95
748.66	45749.57
748.85	45370.70
749.03	45557.06
749.22	45657.42
749.41	45071.70
749.59	45679.94
749.78	45409.61
749.96	45049.17
750.15	45192.53
750.33	44977.49
750.52	45278.54
750.70	44827.99
750.89	44852.56
751.07	45268.30
751.26	45315.40
751.44	45159.76
751.63	45196.62
751.81	44795.22
752.00	45004.11
752.18	45284.68
752.37	44729.69
752.55	44455.26
752.74	44467.55
752.92	44885.33
753.10	44533.08
753.29	45276.49
753.47	45071.70
753.66	44246.36
753.84	44598.62
754.03	44445.02
754.21	44655.96
754.40	44492.12
754.58	44610.90
754.77	44684.63
754.95	44610.90
755.14	44184.93
755.32	44316.00
755.51	44103.01
755.69	43832.68
755.88	44182.88
756.06	44211.55
756.24	44414.30
756.43	43873.63
756.61	44430.68
756.80	44170.59
756.98	44227.93
757.17	44084.58
757.35	44264.80
757.54	44236.12
757.72	44039.52
757.90	44014.94
758.09	43672.93
758.27	44225.89
758.46	43900.26
758.64	43930.98
758.83	44019.04
759.01	43789.67
759.19	43677.03
759.38	43943.27
759.56	44031.33
759.75	43789.67
759.93	43603.30
760.12	43836.77
760.30	43566.44
760.48	43603.30
760.67	42947.95
760.85	43521.38
761.04	43750.76
761.22	43740.52
761.40	43265.39
761.59	43240.81
761.77	43210.09
761.96	43283.82
762.14	43308.40
762.32	42673.52
762.51	43138.41
762.69	43017.58
762.88	43201.90
763.06	42853.75
763.24	43226.48
763.43	42861.94
763.61	43089.26
763.80	43173.23
763.98	42898.80
764.16	43021.68
764.35	42657.14
764.53	42601.85
764.72	42546.55
764.90	42694.00
765.08	42689.91
765.27	42685.81
765.45	42730.87
765.63	42499.45
765.82	42216.83
766.00	42345.85
766.18	42653.05
766.37	42767.73
766.55	42702.20
766.74	42581.37
766.92	42145.15
767.10	42685.81
767.29	42259.84
767.47	41866.63
767.65	42724.72
767.84	42071.42
768.02	42306.94
768.20	41627.01
768.39	42241.40
768.57	42130.81
768.75	41909.63
768.94	42091.90
769.12	41872.77
769.30	41694.60
769.49	41407.88
769.67	41577.86
769.85	41158.03
770.04	41180.56
770.22	41518.47
770.40	41381.26
770.59	41379.21
770.77	41895.30
770.95	41559.43
771.14	41387.40
771.32	41203.08
771.50	41069.97
771.69	41262.47
771.87	41356.68
772.05	41117.07
772.24	40850.83
772.42	41194.89
772.60	41057.68
772.78	41098.64
772.97	40928.66
773.15	40953.23
773.33	40785.30
773.52	40768.91
773.70	40830.35
773.88	41106.83
774.07	41080.21
774.25	40990.09
774.43	41258.38
774.61	40779.15
774.80	41323.91
774.98	40859.02
775.16	40834.45
775.34	41303.43
775.53	40750.48
775.71	41211.28
775.89	40932.75
776.08	41092.49
776.26	41389.45
776.44	41260.43
776.62	40738.19
776.81	40885.65
776.99	41336.20
777.17	41217.42
777.35	41031.05
777.54	41790.85
777.72	41371.02
777.90	41250.19
778.08	41479.56
778.27	41147.79
778.45	41350.54
778.63	41708.93
778.81	41112.97
779.00	41782.66
779.18	41379.21
779.36	41964.93
779.54	41397.64
779.73	41098.64
779.91	41717.12
780.09	41770.37
780.27	41729.41
780.46	41919.87
780.64	41799.04
780.82	41186.70
781.00	41678.21
781.19	42337.66
781.37	42104.19
781.55	41885.06
781.73	42300.79
781.91	42048.89
782.10	42200.44
782.28	41854.34
782.46	41817.47
782.64	42384.76
782.82	41866.63
783.01	42489.21
783.19	42173.82
783.37	42153.34
783.55	41842.05
783.74	42069.37
783.92	41717.12
784.10	42655.09
784.28	42026.37
784.46	41725.32
784.64	42263.93
784.83	42145.15
785.01	42397.05
785.19	42399.10
785.37	41977.22
785.55	42188.16
785.74	41764.23
785.92	42038.65
786.10	41905.54
786.28	42130.81
786.46	41563.53
786.64	41741.70
786.83	42186.11
787.01	41799.04
787.19	41809.28
787.37	41848.19
787.55	41876.86
787.74	41758.08
787.92	41627.01
788.10	41749.89
788.28	41330.06
788.46	41676.16
788.64	41237.90
788.82	42040.70
789.01	41555.33
789.19	41973.12
789.37	41170.32
789.55	41432.46
789.73	40940.94
789.91	41397.64
790.09	41280.91
790.28	40836.50
790.46	40834.45
790.64	41031.05
790.82	40805.78
791.00	40867.22
791.18	40621.46
791.36	40367.51
791.55	40873.36
791.73	40359.32
791.91	40160.67
792.09	40504.73
792.27	40568.21
792.45	40838.54
792.63	40172.96
792.81	39925.15
793.00	40107.42
793.18	39720.35
793.36	39749.03
793.54	39947.68
793.72	39638.44
793.90	39806.37
794.08	39603.62
794.26	39720.35
794.44	39321.00
794.62	39091.63
794.81	39427.49
794.99	39196.07
795.17	39019.95
795.35	38942.13
795.53	39300.52
795.71	39009.71
795.89	38815.15
796.07	38933.93
796.25	38376.89
796.43	38522.29
796.61	38010.30
796.80	38247.86
796.98	38659.51
797.16	38114.75
797.34	38057.40
797.52	38159.80
797.70	38299.06
797.88	37963.20
798.06	37467.59
798.24	38059.45
798.42	37920.19
798.60	38047.16
798.78	37572.03
798.96	37766.59
799.14	37303.75
799.32	37596.61
799.51	36816.33
799.69	37492.16
799.87	37483.97
800.05	37051.85
800.23	37006.80
800.41	37055.95
800.59	36873.68
800.77	36713.94
800.95	36347.35
801.13	36531.67
801.31	36525.52
801.49	36257.24
801.67	35950.04
801.85	36279.77
802.03	35898.84
802.21	35882.46
802.39	35892.70
802.57	35966.43
802.75	35720.67
802.93	35595.74
803.11	35513.83
803.29	35517.92
803.47	35409.38
803.65	35274.21
803.83	35253.73
804.01	35390.95
804.19	35026.41
804.37	34950.63
804.55	35108.33
804.73	34792.94
804.91	34686.45
805.09	35061.22
805.27	34997.74
805.45	34903.53
805.63	35032.55
805.81	34649.58
805.99	34696.69
806.17	34606.58
806.35	34487.79
806.53	34106.87
806.71	34485.75
806.89	34321.91
807.07	33865.21
807.25	33857.02
807.43	33818.11
807.61	34268.66
807.79	33916.41
807.97	33519.10
808.15	33693.18
808.33	33439.23
808.51	33388.03
808.69	33412.61
808.87	33357.32
809.05	33330.69
809.23	32886.28
809.41	32910.86
809.59	33428.99
809.77	33072.65
809.95	32912.91
810.13	33146.37
810.31	32714.25
810.49	32888.33
810.67	33039.88
810.84	32976.39
811.02	33052.17
811.20	32323.09
811.38	32599.57
811.56	32497.17
811.74	32572.94
811.92	32372.24
812.10	32085.53
812.28	32572.94
812.46	32470.54
812.64	32368.15
812.82	31917.59
813.00	32044.57
813.18	31933.98
813.36	31944.22
813.53	31757.85
813.71	31931.93
813.89	31764.00
814.07	31641.12
814.25	31774.24
814.43	31366.69
814.61	31464.99
814.79	31172.13
814.97	31219.24
815.15	31030.82
815.33	30703.15
815.50	30789.16
815.68	31059.49
815.86	30987.82
816.04	30953.00
816.22	30905.90
816.40	30778.92
816.58	30496.30
816.76	30713.39
816.94	30756.39
817.11	30875.18
817.29	30172.72
817.47	30469.68
817.65	30209.59
817.83	30295.60
818.01	30156.34
818.19	30481.97
818.37	30375.47
818.54	29888.06
818.72	29963.83
818.90	29847.10
819.08	29746.75
819.26	29687.36
819.44	29718.07
819.62	29949.50
819.80	29668.92
819.97	30099.00
820.15	29769.27
820.33	29625.92
820.51	29388.35
820.69	29212.23
820.87	29312.58
821.05	29275.71
821.22	29351.49
821.40	29271.62
821.58	28984.90
821.76	29081.16
821.94	29048.39
822.12	29308.48
822.29	29226.56
822.47	28935.75
822.65	29261.38
822.83	29394.50
823.01	29003.33
823.19	29118.02
823.36	28675.66
823.54	28802.63
823.72	28853.83
823.90	28823.11
824.08	28622.41
824.25	28712.52
824.43	28464.72
824.61	28409.42
824.79	28825.16
824.97	28253.78
825.15	28409.42
825.32	28044.88
825.50	27975.25
825.68	28067.41
825.86	28333.65
826.04	28079.70
826.21	27862.61
826.39	27946.58
826.57	27749.98
826.75	27973.21
826.93	27639.39
827.10	28042.84
827.28	27717.21
827.46	27926.10
827.64	27661.91
827.81	27752.02
827.99	27633.24
828.17	27395.68
828.35	27360.86
828.53	27471.45
828.70	27311.71
828.88	27205.22
829.06	27237.98
829.24	27672.15
829.41	27299.42
829.59	27663.96
829.77	27389.53
829.95	27305.57
830.12	27119.20
830.30	26752.62
830.48	27233.89
830.66	27358.81
830.84	26979.94
831.01	26873.45
831.19	27102.82
831.37	27022.95
831.55	26822.25
831.72	26654.31
831.90	26500.72
832.08	26560.11
832.25	26709.61
832.43	26609.26
832.61	26361.45
832.79	26252.91
832.96	26242.67
833.14	26463.85
833.32	26347.12
833.50	26695.27
833.67	26263.15
833.85	26048.11
834.03	25880.18
834.20	26078.83
834.38	26510.96
834.56	26345.07
834.74	26115.70
834.91	26355.31
835.09	25921.14
835.27	25757.30
835.44	26013.30
835.62	25871.99
835.80	25495.16
835.98	26064.50
836.15	25886.32
836.33	25796.21
836.51	26095.22
836.68	25632.38
836.86	25718.39
837.04	26134.13
837.21	25556.60
837.39	25628.28
837.57	25828.98
837.75	25609.85
837.92	25376.38
838.10	25357.95
838.28	24952.45
838.45	25093.76
838.63	25069.19
838.81	25382.52
838.98	25173.63
839.16	24991.36
839.34	25075.33
839.51	25042.56
839.69	24893.06
839.87	24718.98
840.04	24987.27
840.22	25198.21
840.40	24786.57
840.57	24458.89
840.75	24753.80
840.93	24452.75
841.10	24864.39
841.28	24907.40
841.46	24897.16
841.63	24862.34
841.81	24764.04
841.98	24780.42
842.16	24852.10
842.34	24518.28
842.51	24477.32
842.69	24626.82
842.87	24600.20
843.04	24426.12
843.22	24329.87
843.40	24501.90
843.57	24274.57
843.75	24604.30
843.92	24565.39
844.10	24229.52
844.28	24432.27
844.45	24288.91
844.63	24311.44
844.81	23950.99
844.98	23942.80
845.16	24118.93
845.33	23936.66
845.51	23914.13
845.69	24049.30
845.86	23535.26
846.04	23893.65
846.21	23641.75
846.39	23631.51
846.57	23498.39
846.74	23746.20
846.92	23697.05
847.09	23674.52
847.27	23649.94
847.45	23649.94
847.62	23645.85
847.80	23723.67
847.97	23486.11
848.15	23492.25
848.32	23361.18
848.50	23330.46
848.68	23271.07
848.85	23309.98
849.03	23070.37
849.20	23312.03
849.38	23447.19
849.56	23342.75
849.73	22982.31
849.91	22861.48
850.08	23238.30
850.26	22744.74
850.43	23051.94
850.61	22937.25
850.78	22845.09
850.96	22754.98
851.14	22630.05
851.31	22896.29
851.49	22668.97
851.66	22767.27
851.84	22775.46
852.01	22580.90
852.19	22644.39
852.36	22578.86
852.54	22582.95
852.71	22464.17
852.89	22472.36
853.07	22654.63
853.24	22673.06
853.42	22560.42
853.59	22474.41
853.77	22562.47
853.94	22531.75
854.12	22671.01
854.29	22294.19
854.47	22466.22
854.64	22226.60
854.82	22279.85
854.99	22601.38
855.17	22038.19
855.34	22152.88
855.52	22154.93
855.69	22175.41
855.87	22163.12
856.04	21993.14
856.22	22060.72
856.39	22097.58
856.57	22218.41
856.74	21886.64
856.92	21997.23
857.09	21386.94
857.27	21407.42
857.44	21790.39
857.62	21878.45
857.79	21653.17
857.97	21606.07
858.14	21575.35
858.32	21710.52
858.49	21685.94
858.67	21771.96
858.84	21132.99
859.02	21649.08
859.19	21440.18
859.37	21305.02
859.54	21307.07
859.72	21622.45
859.89	21251.77
860.06	21431.99
860.24	21255.87
860.41	21337.79
860.59	21128.89
860.76	21421.75
860.94	20999.87
861.11	21057.21
861.29	21235.39
861.46	21337.79
861.64	21046.97
861.81	21178.04
861.98	21241.53
862.16	21092.03
862.33	20690.63
862.51	20821.70
862.68	20924.10
862.86	20883.14
863.03	20702.92
863.21	20897.47
863.38	20688.58
863.55	20866.75
863.73	20856.51
863.90	20811.46
864.08	20641.48
864.25	20741.83
864.43	20721.35
864.60	20750.02
864.77	20522.69
864.95	20303.56
865.12	20373.19
865.30	20539.08
865.47	20405.96
865.64	20139.72
865.82	20426.44
865.99	20686.53
866.17	20475.59
866.34	20205.26
866.51	20096.72
866.69	20154.06
866.86	20416.20
867.04	19979.98
867.21	20256.46
867.38	19875.54
867.56	20004.56
867.73	19766.99
867.91	19918.54
868.08	19816.15
868.25	20059.85
868.43	19656.40
868.60	19715.80
868.78	19680.98
868.95	19887.82
869.12	19543.77
869.30	19601.11
869.47	19689.17
869.64	19474.13
869.82	19873.49
869.99	19498.71
870.16	19584.73
870.34	19576.53
870.51	19631.83
870.69	19355.35
870.86	19597.01
871.03	19541.72
871.21	19611.35
871.38	19478.23
871.55	19156.70
871.73	19105.50
871.90	19324.63
872.07	19121.88
872.25	19244.76
872.42	18978.53
872.59	19048.16
872.77	18906.85
872.94	18972.38
873.11	19013.34
873.29	19078.88
873.46	18853.60
873.63	19060.45
873.81	18802.40
873.98	18732.77
874.15	18906.85
874.33	18642.66
874.50	18620.13
874.67	18648.80
874.85	18337.51
875.02	18390.76
875.19	18366.18
875.37	18351.85
875.54	18280.17
875.71	18454.25
875.88	18468.58
876.06	18102.00
876.23	18327.27
876.40	18245.35
876.58	18263.79
876.75	18065.13
876.92	17811.18
877.10	18233.07
877.27	18067.18
877.44	18106.09
877.61	17727.22
877.79	17993.45
877.96	17975.02
878.13	17798.90
878.31	17712.88
878.48	17569.52
878.65	17577.72
878.82	17645.30
879.00	17635.06
879.17	17590.00
879.34	17657.59
879.51	17393.40
879.69	17673.97
879.86	17311.48
880.03	17628.92
880.21	17276.66
880.38	17526.52
880.55	17430.26
880.72	17456.89
880.90	17420.02
881.07	17252.09
881.24	17329.91
881.41	17321.72
881.59	17323.77
881.76	17262.33
881.93	17211.13
882.10	17100.54
882.28	17055.48
882.45	16854.78
882.62	16920.32
882.79	17334.01
882.96	16766.72
883.14	17092.35
883.31	17123.07
883.48	17014.52
883.65	16897.79
883.83	17030.91
884.00	17018.62
884.17	16858.88
884.34	17088.25
884.51	16746.24
884.69	17028.86
884.86	16723.71
885.03	16873.21
885.20	16658.18
885.38	16600.83
885.55	16678.66
885.72	16643.84
885.89	16430.85
886.06	16451.33
886.24	16584.45
886.41	16602.88
886.58	16756.48
886.75	16748.29
886.92	16629.51
887.10	16559.88
887.27	16447.24
887.44	16514.82
887.61	16676.61
887.78	16480.00
887.95	16574.21
888.13	16310.02
888.30	16310.02
888.47	16355.08
888.64	16437.00
888.81	16428.81
888.99	16137.99
889.16	16176.91
889.33	16033.55
889.50	16017.16
889.67	16258.82
889.84	16199.43
890.01	15978.25
890.19	15828.75
890.36	15992.59
890.53	15904.53
890.70	15822.61
890.87	15972.11
891.04	15988.49
891.22	15867.66
891.39	15873.81
891.56	15879.95
891.73	15849.23
891.90	15673.10
892.07	15777.55
892.24	15757.07
892.42	15693.58
892.59	15607.57
892.76	15578.90
892.93	15623.95
893.10	15654.67
893.27	15494.93
893.44	15294.23
893.61	15439.64
893.79	15730.45
893.96	15533.84
894.13	15515.41
894.30	15660.82
894.47	15253.27
894.64	15626.00
894.81	15507.22
894.98	15542.03
895.15	15595.28
895.33	15433.49
895.50	15386.39
895.67	15603.47
895.84	15359.77
896.01	15503.12
896.18	15283.99
896.35	15603.47
896.52	15376.15
896.69	15494.93
896.86	15605.52
897.04	15494.93
897.21	15591.19
897.38	15263.51
897.55	15349.53
897.72	15327.00
897.89	15245.08
898.06	15255.32
898.23	15247.13
898.40	15337.24
898.57	15511.32
898.74	15324.95
898.91	15417.11
899.08	15316.76
899.26	15275.80
899.43	15347.48
899.60	15449.88
899.77	15488.79
899.94	15400.72
900.11	15036.19
900.28	15601.43
900.45	15361.81
900.62	14948.12
900.79	15312.66
900.96	15140.63
901.13	15298.33
901.30	15243.03
901.47	15187.74
901.64	15400.72
901.81	15216.41
901.98	15068.95
902.15	15449.88
902.32	14860.06
902.49	15197.98
902.66	15269.66
902.83	15114.01
903.01	15017.75
903.18	15292.18
903.35	15304.47
903.52	15064.86
903.69	15359.77
903.86	15173.40
904.03	15378.20
904.20	15224.60
904.37	15388.44
904.54	15093.53
904.71	15318.81
904.88	15286.04
905.05	15025.95
905.22	15111.96
905.39	15169.30
905.56	15144.73
905.73	15089.43
905.90	15210.26
906.07	15359.77
906.24	15410.96
906.41	15281.94
906.58	15038.23
906.75	15087.39
906.92	15015.71
907.09	15230.74
907.26	15208.22
907.43	14931.74
907.60	15091.48
907.77	15089.43
907.93	14855.97
908.10	15056.67
908.27	15120.15
908.44	15019.80
908.61	15042.33
908.78	15089.43
908.95	15101.72
909.12	14925.60
909.29	14919.45
909.46	15286.04
909.63	15046.43
909.80	14954.27
909.97	14839.58
910.14	15038.23
910.31	14831.39
910.48	15007.52
910.65	15060.76
910.82	14894.88
910.99	14823.20
911.16	14972.70
911.33	14903.07
911.50	14917.40
911.66	14804.77
911.83	14903.07
912.00	14681.89
912.17	14696.22
912.34	14751.52
912.51	14772.00
912.68	14429.99
912.85	14683.94
913.02	14616.35
913.19	14473.00
913.36	14565.15
913.53	14602.02
913.70	14378.79
913.86	14659.36
914.03	14563.11
914.20	14587.68
914.37	14538.53
914.54	14511.91
914.71	14475.04
914.88	14440.23
915.05	14286.63
915.22	14544.67
915.39	14403.36
915.55	14298.92
915.72	14169.90
915.89	14104.36
916.06	14137.13
916.23	14128.94
916.40	13938.48
916.57	14092.07
916.74	14141.22
916.91	14040.87
917.07	14077.74
917.24	13905.71
917.41	13930.28
917.58	13930.28
917.75	13799.21
917.92	13575.98
918.09	13793.07
918.26	13866.80
918.42	13653.81
918.59	13788.97
918.76	13639.47
918.93	13594.42
919.10	13647.66
919.27	13627.18
919.44	13543.22
919.60	13688.62
919.77	13354.80
919.94	13168.44
920.11	13299.51
920.28	13502.26
920.45	13199.16
920.61	13250.36
920.78	13266.74
920.95	13217.59
921.12	13260.60
921.29	12939.07
921.46	12949.31
921.62	13051.70
921.79	12963.64
921.96	12937.02
922.13	12863.29
922.30	12769.09
922.47	12558.14
922.63	12834.62
922.80	12488.51
922.97	12703.55
923.14	12339.01
923.31	12515.14
923.47	12482.37
923.64	12644.16
923.81	12586.82
923.98	12480.32
924.15	12255.04
924.32	12302.15
924.48	12226.37
924.65	12377.92
924.82	12035.91
924.99	12228.42
925.15	12136.26
925.32	11851.60
925.49	11972.43
925.66	12054.34
925.83	11757.39
925.99	11900.75
926.16	11757.39
926.33	11896.65
926.50	11609.93
926.67	11919.18
926.83	11577.17
927.00	11587.41
927.17	11474.77
927.34	11734.86
927.50	11544.40
927.67	11628.37
927.84	11362.13
928.01	11452.24
928.17	11188.05
928.34	11198.29
928.51	11255.64
928.68	11132.76
928.84	11020.12
929.01	10745.69
929.18	11083.61
929.35	11042.65
929.51	10938.20
929.68	10919.77
929.85	10833.75
930.02	10780.51
930.18	10653.53
930.35	10901.34
930.52	10567.52
930.69	10839.90
930.85	10499.94
931.02	10415.97
931.19	10547.04
931.36	10325.86
931.52	10526.56
931.69	10422.11
931.86	10352.48
932.02	10291.04
932.19	10213.22
932.36	9967.46
932.53	10186.60
932.69	10002.28
932.86	10071.91
933.03	10119.01
933.19	9854.83
933.36	9918.31
933.53	10045.29
933.70	9670.51
933.86	9740.14
934.03	9777.00
934.20	9537.39
934.36	9543.53
934.53	9383.79
934.70	9322.35
934.86	9236.34
935.03	9090.93
935.20	9211.76
935.36	9379.70
935.53	9041.78
935.70	8906.62
935.86	9027.45
936.03	8916.86
936.20	8757.11
936.36	8744.83
936.53	8736.63
936.70	8624.00
936.86	8570.75
937.03	8560.51
937.20	8425.34
937.36	8392.58
937.53	8148.87
937.70	8124.29
937.86	8060.80
938.03	8142.72
938.20	8114.05
938.36	7638.92
938.53	7774.09
938.70	7767.95
938.86	7563.15
939.03	7675.79
939.20	7522.19
939.36	7331.73
939.53	7194.51
939.70	7376.78
939.86	6905.75
940.03	6961.05
940.19	6868.89
940.36	6875.03
940.53	7004.05
940.69	6715.29
940.86	6770.58
941.03	6526.88
941.19	6412.19
941.36	6614.94
941.52	6514.59
941.69	6346.66
941.86	6414.24
942.02	6336.42
942.19	6324.13
942.35	6074.28
942.52	6162.34
942.69	6068.13
942.85	5842.85
943.02	5859.24
943.18	6162.34
943.35	5908.39
943.52	5885.86
943.68	5875.62
943.85	5670.83
944.01	5681.07
944.18	5711.78
944.35	5674.92
944.51	5662.63
944.68	5490.60
944.84	5554.09
945.01	5552.04
945.17	5537.71
945.34	5506.99
945.51	5590.95
945.67	5435.31
945.84	5408.69
946.00	5468.08
946.17	5353.39
946.33	5298.10
946.50	5545.90
946.67	5410.73
946.83	5449.64
947.00	5461.93
947.16	5253.04
947.33	5380.01
947.49	5318.57
947.66	5191.60
947.82	5484.46
947.99	5416.88
948.16	5355.44
948.32	5341.10
948.49	5312.43
948.65	5423.02
948.82	5361.58
948.98	5459.88
949.15	5343.15
949.31	5441.45
949.48	5494.70
949.64	5373.87
949.81	5425.07
949.97	5337.01
950.14	5294.00
950.30	5246.90
950.47	5433.26
950.63	5246.90
950.80	5509.04
950.96	5298.10
951.13	5418.93
951.30	5357.49
951.46	5476.27
951.63	5457.84
951.79	5423.02
951.96	5451.69
952.12	5429.17
952.29	5435.31
952.45	5349.29
952.62	5506.99
952.78	5480.36
952.94	5480.36
953.11	5423.02
953.27	5355.44
953.44	5588.91
953.60	5521.32
953.77	5580.71
953.93	5443.50
954.10	5453.74
954.26	5543.85
954.43	5363.63
954.59	5586.86
954.76	5662.63
954.92	5474.22
955.09	5597.10
955.25	5451.69
955.42	5427.12
955.58	5623.72
955.75	5593.00
955.91	5504.94
956.07	5619.63
956.24	5550.00
956.40	5531.56
956.57	5429.17
956.73	5574.57
956.90	5619.63
957.06	5486.51
957.23	5611.43
957.39	5564.33
957.56	5537.71
957.72	5330.86
957.88	5427.12
958.05	5535.66
958.21	5560.24
958.38	5668.78
958.54	5472.17
958.71	5476.27
958.87	5453.74
959.03	5453.74
959.20	5466.03
959.36	5484.46
959.53	5560.24
959.69	5382.06
959.85	5629.87
960.02	5531.56
960.18	5459.88
960.35	5580.71
960.51	5603.24
960.68	5392.30
960.84	5539.76
961.00	5437.36
961.17	5380.01
961.33	5482.41
961.50	5556.14
961.66	5633.96
961.82	5545.90
961.99	5466.03
962.15	5474.22
962.31	5509.04
962.48	5539.76
962.64	5484.46
962.81	5412.78
962.97	5535.66
963.13	5599.15
963.30	5500.84
963.46	5478.32
963.62	5416.88
963.79	5445.55
963.95	5435.31
964.12	5504.94
964.28	5451.69
964.44	5478.32
964.61	5461.93
964.77	5402.54
964.93	5586.86
965.10	5339.05
965.26	5433.26
965.42	5531.56
965.59	5486.51
965.75	5410.73
965.92	5431.21
966.08	5287.86
966.24	5375.92
966.41	5359.53
966.57	5294.00
966.73	5287.86
966.90	5445.55
967.06	5291.95
967.22	5408.69
967.39	5347.25
967.55	5283.76
967.71	5289.90
967.88	5160.88
968.04	5281.71
968.20	5242.80
968.37	5238.70
968.53	5195.70
968.69	5158.83
968.85	5328.81
969.02	5351.34
969.18	5128.11
969.34	5226.42
969.51	5304.24
969.67	5257.14
969.83	5097.39
970.00	5314.48
970.16	5119.92
970.32	5136.31
970.48	5300.14
970.65	5167.03
970.81	5003.19
970.97	5148.59
971.14	5033.91
971.30	5007.28
971.46	5078.96
971.63	5033.91
971.79	5130.16
971.95	4943.80
972.11	4927.41
972.28	4974.52
972.44	5234.61
972.60	4904.89
972.76	5097.39
972.93	4995.00
973.09	5148.59
973.25	5023.67
973.42	5054.39
973.58	5103.54
973.74	5033.91
973.90	4861.88
974.07	4849.59
974.23	4964.28
974.39	4898.74
974.55	4796.34
974.72	4833.21
974.88	4745.14
975.04	4997.04
975.20	4769.72
975.37	4759.48
975.53	4843.45
975.69	4798.39
975.85	4769.72
976.01	4753.34
976.18	4675.51
976.34	4870.07
976.50	4767.67
976.66	4847.54
976.83	4767.67
976.99	4728.76
977.15	4628.41
977.31	4562.87
977.47	4788.15
977.64	4681.66
977.80	4796.34
977.96	4624.31
978.12	4648.89
978.29	4698.04
978.45	4464.57
978.61	4548.54
978.77	4630.46
978.93	4597.69
979.10	4626.36
979.26	4542.39
979.42	4472.76
979.58	4335.55
979.74	4493.24
979.91	4612.03
980.07	4276.16
980.23	4501.44
980.39	4573.11
980.55	4523.96
980.71	4368.32
980.88	4509.63
981.04	4497.34
981.20	4370.37
981.36	4384.70
981.52	4444.09
981.68	4366.27
981.85	4386.75
982.01	4403.13
982.17	4394.94
982.33	4241.34
982.49	4532.15
982.65	4411.32
982.82	4353.98
982.98	4403.13
983.14	4321.21
983.30	4310.97
983.46	4390.84
983.62	4327.36
983.79	4259.78
983.95	4251.58
984.11	4261.82
984.27	4290.49
984.43	4169.66
984.59	4100.03
984.75	4177.86
984.91	4245.44
985.08	4188.10
985.24	4317.12
985.40	4030.40
985.56	4110.27
985.72	4274.11
985.88	4239.30
986.04	4177.86
986.20	4104.13
986.37	4046.79
986.53	4046.79
986.69	4116.42
986.85	3997.64
987.01	3981.25
987.17	4100.03
987.33	4009.92
987.49	4089.79
987.65	4048.83
987.82	3911.62
987.98	3948.48
988.14	4034.50
988.30	4061.12
988.46	4014.02
988.62	3885.00
988.78	3876.80
988.94	3907.52
989.10	3829.70
989.26	3960.77
989.42	3872.71
989.59	3885.00
989.75	3837.89
989.91	3948.48
990.07	3837.89
990.23	3817.41
990.39	3837.89
990.55	3776.45
990.71	3856.33
990.87	3735.50
991.03	3948.48
991.19	3704.78
991.35	3702.73
991.51	3735.50
991.67	3854.28
991.83	3719.11
992.00	3749.83
992.16	3665.86
992.32	3649.48
992.48	3735.50
992.64	3663.82
992.80	3727.30
992.96	3641.29
993.12	3706.82
993.28	3674.06
993.44	3700.68
993.60	3649.48
993.76	3639.24
993.92	3612.62
994.08	3645.38
994.24	3633.10
994.40	3629.00
994.56	3760.07
994.72	3608.52
994.88	3534.79
995.04	3499.98
995.20	3606.47
995.36	3530.70
995.52	3538.89
995.68	3534.79
995.84	3579.85
996.00	3624.90
996.16	3305.42
996.32	3481.55
996.48	3420.11
996.64	3592.14
996.80	3493.83
996.96	3420.11
997.12	3362.76
997.28	3360.72
997.44	3250.13
997.60	3370.96
997.76	3364.81
997.92	3444.68
998.08	3426.25
998.24	3377.10
998.40	3377.10
998.56	3405.77
998.72	3291.09
998.88	3284.94
999.04	3430.35
999.20	3397.58
999.36	3182.54
999.52	3424.20
999.68	3344.33
999.84	3297.23
1000.00	3305.42
1000.16	3274.70
1000.32	3186.64
1000.48	3395.53
1000.64	3172.30
1000.80	3203.02
1000.95	3254.22
1001.11	3254.22
1001.27	3123.15
1001.43	3248.08
1001.59	3182.54
1001.75	3090.38
1001.91	3268.56
1002.07	3174.35
1002.23	3141.58
1002.39	3227.60
1002.55	3110.86
1002.71	3131.34
1002.87	3104.72
1003.03	3139.54
1003.19	3002.32
1003.34	3108.82
1003.50	3092.43
1003.66	3219.41
1003.82	3217.36
1003.98	3016.66
1004.14	3008.47
1004.30	2928.60
1004.46	3071.95
1004.62	3010.51
1004.78	2910.16
1004.94	3059.67
1005.09	3114.96
1005.25	3074.00
1005.41	2953.17
1005.57	3055.57
1005.73	2973.65
1005.89	2979.79
1006.05	2992.08
1006.21	3000.27
1006.37	2975.70
1006.52	2861.01
1006.68	2983.89
1006.84	3002.32
1007.00	2979.79
1007.16	2981.84
1007.32	2897.88
1007.48	2883.54
1007.64	2932.69
1007.79	2863.06
1007.95	2871.25
1008.11	2879.44
1008.27	2770.90
1008.43	2809.81
1008.59	2811.86
1008.75	2809.81
1008.91	2807.77
1009.06	2754.52
1009.22	2963.41
1009.38	2777.05
1009.54	2813.91
1009.70	2709.46
1009.86	2791.38
1010.01	2846.68
1010.17	2815.96
1010.33	2848.72
1010.49	2723.80
1010.65	2852.82
1010.81	2768.85
1010.96	2748.37
1011.12	2664.41
1011.28	2707.41
1011.44	2705.37
1011.60	2703.32
1011.76	2617.30
1011.91	2846.68
1012.07	2582.49
1012.23	2494.43
1012.39	2539.48
1012.55	2709.46
1012.71	2615.26
1012.86	2699.22
1013.02	2652.12
1013.18	2652.12
1013.34	2619.35
1013.50	2666.46
1013.65	2625.50
1013.81	2633.69
1013.97	2621.40
1014.13	2449.37
1014.29	2594.78
1014.44	2584.54
1014.60	2580.44
1014.76	2537.43
1014.92	2551.77
1015.07	2420.70
1015.23	2582.49
1015.39	2461.66
1015.55	2510.81
1015.71	2535.39
1015.86	2498.52
1016.02	2510.81
1016.18	2377.69
1016.34	2514.91
1016.49	2512.86
1016.65	2527.19
1016.81	2410.46
1016.97	2396.12
1017.12	2551.77
1017.28	2396.12
1017.44	2406.36
1017.60	2432.99
1017.75	2449.37
1017.91	2432.99
1018.07	2525.15
1018.23	2461.66
1018.38	2361.31
1018.54	2551.77
1018.70	2498.52
1018.86	2406.36
1019.01	2330.59
1019.17	2437.08
1019.33	2441.18
1019.49	2453.47
1019.64	2416.60
1019.80	2338.78
1019.96	2381.79
1020.12	2414.56
1020.27	2375.64
1020.43	2336.73
1020.59	2369.50
1020.74	2398.17
1020.90	2359.26
1021.06	2359.26
1021.22	2387.93
1021.37	2314.20
1021.53	2283.49
1021.69	2316.25
1021.84	2224.09
1022.00	2332.64
1022.16	2267.10
1022.31	2308.06
1022.47	2330.59
1022.63	2318.30
1022.79	2189.28
1022.94	2271.20
1023.10	2328.54
1023.26	2349.02
1023.41	2263.01
1023.57	2224.09
1023.73	2252.77
1023.88	2254.81
1024.04	2242.53
1024.20	2197.47
1024.35	2242.53
1024.51	2308.06
1024.67	2224.09
1024.82	2283.49
1024.98	2183.13
1025.14	2240.48
1025.29	2170.85
1025.45	2230.24
1025.61	2158.56
1025.76	2191.33
1025.92	2152.42
1026.08	2215.90
1026.23	2269.15
1026.39	2154.46
1026.55	2154.46
1026.70	2226.14
1026.86	2162.66
1027.02	2355.16
1027.17	2088.93
1027.33	2205.66
1027.48	2187.23
1027.64	2129.89
1027.80	2103.26
1027.95	2238.43
1028.11	2072.54
1028.27	2129.89
1028.42	2160.61
1028.58	2099.17
1028.73	2072.54
1028.89	2017.25
1029.05	2195.42
1029.20	2058.21
>>>>>End Processed Spectral Data<<<<<
