SpectraSuite Data File
++++++++++++++++++++++++++++++++++++
Date: Fri Jun 02 14:49:29 CEST 2017
User: INFO_000
Dark Spectrum Present: No
Reference Spectrum Present: No
Number of Sampled Component Spectra: 1
Spectrometers: USB4H00879
Integration Time (usec): 80000 (USB4H00879)
Spectra Averaged: 1 (USB4H00879)
Boxcar Smoothing: 0 (USB4H00879)
Correct for Electrical Dark: No (USB4H00879)
Strobe/Lamp Enabled: No (USB4H00879)
Correct for Detector Non-linearity: No (USB4H00879)
Correct for Stray Light: No (USB4H00879)
Number of Pixels in Processed Spectrum: 3648
>>>>>Begin Processed Spectral Data<<<<<
345.13	1282.03
345.34	1282.03
345.56	1282.03
345.78	1327.08
345.99	1331.18
346.21	1712.10
346.42	1716.20
346.64	1628.14
346.86	1794.02
347.07	1662.95
347.29	1746.92
347.50	1621.99
347.72	1705.96
347.94	1744.87
348.15	1560.55
348.37	1621.99
348.59	1753.06
348.80	1632.23
349.02	1726.44
349.23	1937.38
349.45	1812.45
349.67	1851.36
349.88	1822.69
350.10	2031.58
350.31	1806.31
350.53	1828.84
350.75	1966.05
350.96	1755.11
351.18	1855.46
351.39	1880.04
351.61	1796.07
351.82	1945.57
352.04	1906.66
352.26	1806.31
352.47	1810.40
352.69	1896.42
352.90	1796.07
353.12	1826.79
353.34	1865.70
353.55	1933.28
353.77	1890.28
353.98	1853.41
354.20	1781.73
354.41	1968.10
354.63	1941.47
354.85	2060.26
355.06	1984.48
355.28	1742.82
355.49	1890.28
355.71	1964.00
355.92	1902.56
356.14	1902.56
356.35	1794.02
356.57	1935.33
356.79	1959.91
357.00	1853.41
357.22	1884.13
357.43	1863.65
357.65	1970.15
357.86	1902.56
358.08	1923.04
358.29	1974.24
358.51	1920.99
358.72	1976.29
358.94	1908.71
359.16	1957.86
359.37	1947.62
359.59	1867.75
359.80	1992.67
360.02	2025.44
360.23	1970.15
360.45	1964.00
360.66	1898.47
360.88	1855.46
361.09	1925.09
361.31	1949.67
361.52	2023.39
361.74	1986.53
361.95	2043.87
362.17	1931.23
362.38	2099.17
362.60	1976.29
362.81	2019.30
363.03	1943.52
363.24	2004.96
363.46	2027.49
363.67	1976.29
363.89	2002.91
364.10	1986.53
364.32	1937.38
364.53	1984.48
364.75	1906.66
364.96	1968.10
365.18	1980.39
365.39	2029.54
365.61	2015.20
365.82	2115.55
366.04	1933.28
366.25	1970.15
366.47	2027.49
366.68	1984.48
366.90	1990.63
367.11	2099.17
367.33	2088.93
367.54	2039.78
367.76	2099.17
367.97	2148.32
368.19	2027.49
368.40	2179.04
368.62	2039.78
368.83	1996.77
369.05	2093.02
369.26	1994.72
369.48	1984.48
369.69	2072.54
369.91	2156.51
370.12	1970.15
370.33	2162.66
370.55	1986.53
370.76	2058.21
370.98	2084.83
371.19	2029.54
371.41	1986.53
371.62	1994.72
371.84	1996.77
372.05	2156.51
372.27	2047.97
372.48	2052.06
372.69	2060.26
372.91	2117.60
373.12	2093.02
373.34	2056.16
373.55	2170.85
373.77	2115.55
373.98	2029.54
374.20	2224.09
374.41	2312.16
374.62	2105.31
374.84	2119.65
375.05	2176.99
375.27	2148.32
375.48	2146.27
375.70	2179.04
375.91	2228.19
376.12	2277.34
376.34	2246.62
376.55	2113.50
376.77	2166.75
376.98	2088.93
377.19	2088.93
377.41	2076.64
377.62	2176.99
377.84	2281.44
378.05	2195.42
378.27	2176.99
378.48	2273.25
378.69	2367.45
378.91	2222.05
379.12	2244.57
379.34	2125.79
379.55	2281.44
379.76	2318.30
379.98	2236.38
380.19	2287.58
380.41	2228.19
380.62	2287.58
380.83	2244.57
381.05	2287.58
381.26	2365.40
381.47	2252.77
381.69	2263.01
381.90	2418.65
382.12	2297.82
382.33	2236.38
382.54	2260.96
382.76	2328.54
382.97	2306.01
383.19	2267.10
383.40	2353.12
383.61	2310.11
383.83	2230.24
384.04	2328.54
384.25	2295.77
384.47	2387.93
384.68	2334.68
384.89	2205.66
385.11	2406.36
385.32	2361.31
385.54	2308.06
385.75	2340.83
385.96	2369.50
386.18	2363.36
386.39	2412.51
386.60	2365.40
386.82	2478.04
387.03	2426.84
387.24	2443.23
387.46	2445.27
387.67	2537.43
387.88	2492.38
388.10	2473.95
388.31	2467.80
388.52	2654.17
388.74	2443.23
388.95	2523.10
389.16	2490.33
389.38	2412.51
389.59	2592.73
389.80	2576.34
390.02	2615.26
390.23	2766.81
390.44	2519.00
390.66	2478.04
390.87	2559.96
391.08	2506.71
391.30	2656.22
391.51	2713.56
391.72	2674.65
391.94	2572.25
392.15	2670.55
392.36	2602.97
392.58	2535.39
392.79	2615.26
393.00	2684.89
393.22	2723.80
393.43	2797.53
393.64	2844.63
393.85	2830.29
394.07	2621.40
394.28	2709.46
394.49	2713.56
394.71	2768.85
394.92	2826.20
395.13	2734.04
395.35	2740.18
395.56	2764.76
395.77	2865.11
395.98	2822.10
396.20	2846.68
396.41	2893.78
396.62	2809.81
396.84	2744.28
397.05	2768.85
397.26	2807.77
397.47	2926.55
397.69	2820.05
397.90	3049.43
398.11	2842.58
398.32	2770.90
398.54	2912.21
398.75	2922.45
398.96	2961.36
399.18	3026.90
399.39	2848.72
399.60	3076.05
399.81	2904.02
400.03	2987.99
400.24	3178.45
400.45	3078.10
400.66	2944.98
400.88	2987.99
401.09	3100.62
401.30	2955.22
401.51	3018.71
401.73	3035.09
401.94	3147.73
402.15	3084.24
402.36	3092.43
402.58	3012.56
402.79	3090.38
403.00	3096.53
403.21	3241.93
403.43	3176.40
403.64	3340.24
403.85	3127.25
404.06	3309.52
404.27	3012.56
404.49	3168.21
404.70	3155.92
404.91	3297.23
405.12	3215.31
405.34	3237.84
405.55	3428.30
405.76	3203.02
405.97	3190.74
406.19	3465.16
406.40	3344.33
406.61	3403.72
406.82	3254.22
407.03	3330.00
407.25	3282.89
407.46	3387.34
407.67	3479.50
407.88	3438.54
408.09	3362.76
408.31	3289.04
408.52	3383.24
408.73	3282.89
408.94	3321.81
409.15	3506.12
409.37	3440.59
409.58	3538.89
409.79	3416.01
410.00	3579.85
410.21	3487.69
410.43	3403.72
410.64	3477.45
410.85	3532.75
411.06	3575.75
411.27	3499.98
411.48	3565.51
411.70	3495.88
411.91	3620.81
412.12	3624.90
412.33	3624.90
412.54	3647.43
412.76	3637.19
412.97	3649.48
413.18	3467.21
413.39	3598.28
413.60	3731.40
413.81	3637.19
414.03	3551.18
414.24	3649.48
414.45	3868.61
414.66	3512.27
414.87	3719.11
415.08	3706.82
415.30	3751.88
415.51	3692.49
415.72	3712.97
415.93	3661.77
416.14	3669.96
416.35	3753.93
416.56	3801.03
416.78	3864.52
416.99	3870.66
417.20	3743.69
417.41	3911.62
417.62	3798.98
417.83	3966.92
418.04	3887.04
418.26	3880.90
418.47	3870.66
418.68	3932.10
418.89	3917.76
419.10	3983.30
419.31	3936.20
419.52	3995.59
419.73	4136.90
419.95	4245.44
420.16	3874.76
420.37	4093.89
420.58	4054.98
420.79	3936.20
421.00	3960.77
421.21	4087.75
421.42	4003.78
421.63	4134.85
421.85	4159.42
422.06	4333.50
422.27	4343.74
422.48	4274.11
422.69	4140.99
422.90	4317.12
423.11	4245.44
423.32	4155.33
423.53	4358.08
423.75	4296.64
423.96	4468.67
424.17	4294.59
424.38	4487.10
424.59	4411.32
424.80	4521.92
425.01	4423.61
425.22	4339.65
425.43	4464.57
425.64	4636.60
425.85	4663.22
426.06	4540.35
426.28	4550.59
426.49	4478.91
426.70	4452.28
426.91	4612.03
427.12	4526.01
427.33	4681.66
427.54	4505.53
427.75	4609.98
427.96	4806.58
428.17	4573.11
428.38	4767.67
428.59	4788.15
428.80	4624.31
429.01	4675.51
429.23	4804.53
429.44	4941.75
429.65	4859.83
429.86	4829.11
430.07	4765.62
430.28	4775.86
430.49	4966.32
430.70	5115.83
430.91	5089.20
431.12	5017.52
431.33	5126.07
431.54	4923.32
431.75	5171.12
431.96	5146.55
432.17	5048.24
432.38	5164.98
432.59	5214.13
432.80	5175.22
433.01	5273.52
433.22	5283.76
433.43	5380.01
433.64	5279.66
433.85	5181.36
434.06	5300.14
434.27	5111.73
434.49	5341.10
434.70	5396.40
434.91	5337.01
435.12	5595.05
435.33	5494.70
435.54	5461.93
435.75	5343.15
435.96	5466.03
436.17	5382.06
436.38	5609.39
436.59	5644.20
436.80	5435.31
437.01	5814.18
437.22	5658.54
437.43	5570.48
437.64	5500.84
437.85	5672.87
438.06	5810.09
438.27	5625.77
438.48	5582.76
438.69	5824.42
438.90	5767.08
439.11	5762.98
439.32	5894.05
439.53	5885.86
439.74	5789.61
439.95	5887.91
440.16	5709.74
440.37	5853.09
440.57	5724.07
440.78	5846.95
440.99	6033.32
441.20	6098.85
441.41	6000.55
441.62	5963.68
441.83	5887.91
442.04	6055.84
442.25	6074.28
442.46	5988.26
442.67	6039.46
442.88	6453.15
443.09	6039.46
443.30	6154.15
443.51	6193.06
443.72	6363.04
443.93	6193.06
444.14	6520.73
444.35	6143.91
444.56	6326.18
444.77	6277.02
444.98	6191.01
445.19	6539.16
445.40	6449.05
445.61	6205.35
445.81	6612.89
446.02	6475.68
446.23	6399.90
446.44	6268.83
446.65	6481.82
446.86	6565.79
447.07	6514.59
447.28	6756.25
447.49	6643.61
447.70	6473.63
447.91	6829.98
448.12	6592.41
448.33	6709.15
448.54	6893.46
448.74	6668.19
448.95	6610.84
449.16	6721.43
449.37	7028.63
449.58	6758.30
449.79	7045.01
450.00	6721.43
450.21	6950.81
450.42	7018.39
450.63	7120.79
450.84	7065.49
451.05	7045.01
451.25	6903.70
451.46	6948.76
451.67	7141.27
451.88	7081.88
452.09	7022.48
452.30	6963.09
452.51	7016.34
452.72	7208.85
452.93	7460.75
453.13	7190.42
453.34	7051.16
453.55	7149.46
453.76	7335.82
453.97	7679.88
454.18	7462.80
454.39	7350.16
454.60	7507.85
454.81	7569.29
455.01	7622.54
455.22	7427.98
455.43	7612.30
455.64	7643.02
455.85	7755.66
456.06	7544.72
456.27	7681.93
456.48	7632.78
456.68	7810.95
456.89	7786.38
457.10	7958.41
457.31	7849.86
457.52	8034.18
457.73	8052.61
457.94	8238.98
458.14	7856.01
458.35	8494.97
458.56	8185.73
458.77	8097.67
458.98	8243.07
459.19	8224.64
459.39	8351.62
459.60	8316.80
459.81	8198.02
460.02	8462.21
460.23	8357.76
460.44	8753.02
460.65	8685.44
460.85	8601.47
461.06	8755.07
461.27	8439.68
461.48	8871.80
461.69	9023.35
461.89	8591.23
462.10	8845.18
462.31	8658.81
462.52	8693.63
462.73	8953.72
462.94	9045.88
463.14	8836.99
463.35	9076.60
463.56	9346.93
463.77	9439.09
463.98	9031.54
464.18	9211.76
464.39	9338.74
464.60	9582.45
464.81	9375.60
465.02	9402.22
465.23	9707.37
465.43	9596.78
465.64	9660.27
465.85	9750.38
466.06	9647.98
466.27	9983.85
466.47	9916.26
466.68	10037.09
466.89	10037.09
467.10	10262.37
467.30	9809.77
467.51	10121.06
467.72	10262.37
467.93	9989.99
468.14	10196.84
468.34	10358.63
468.55	10499.94
468.76	10356.58
468.97	10235.75
469.17	10643.29
469.38	10547.04
469.59	10909.53
469.80	10860.38
470.01	10848.09
470.21	10887.00
470.42	11046.74
470.63	10940.25
470.84	10946.39
471.04	11040.60
471.25	11091.80
471.46	11263.83
471.67	11611.98
471.87	11183.96
472.08	11439.95
472.29	11632.46
472.50	11321.17
472.70	11364.18
472.91	11747.15
473.12	11796.30
473.33	11953.99
473.53	12234.57
473.74	11949.90
473.95	12103.50
474.16	12248.90
474.36	12222.28
474.57	12525.38
474.78	12488.51
474.99	12339.01
475.19	12500.80
475.40	12871.48
475.61	12945.21
475.81	12955.45
476.02	13143.86
476.23	12932.92
476.44	13279.03
476.64	13360.95
476.85	13246.26
477.06	13283.13
477.27	13692.72
477.47	13725.49
477.68	13670.19
477.89	13928.24
478.09	13793.07
478.30	14227.24
478.51	14008.11
478.71	14235.43
478.92	14030.63
479.13	14417.70
479.34	14415.65
479.54	14591.78
479.75	14536.48
479.96	14511.91
480.16	14794.53
480.37	15077.15
480.58	14831.39
480.78	15111.96
480.99	15097.63
481.20	15398.68
481.41	15408.92
481.61	15437.59
481.82	15879.95
482.03	15535.89
482.23	15439.64
482.44	15836.94
482.65	15910.67
482.85	16137.99
483.06	15822.61
483.27	16082.70
483.47	15916.81
483.68	16353.03
483.89	16654.08
484.09	16232.20
484.30	16678.66
484.51	16733.95
484.71	16795.39
484.92	16592.64
485.13	16897.79
485.33	17215.23
485.54	17125.11
485.75	17334.01
485.95	17221.37
486.16	17520.37
486.37	17297.14
486.57	17540.85
486.78	17671.92
486.98	17612.53
487.19	17995.50
487.40	17993.45
487.60	17749.75
487.81	18351.85
488.02	18085.61
488.22	18122.48
488.43	18398.95
488.64	18349.80
488.84	18429.67
489.05	18902.75
489.25	18284.26
489.46	18994.91
489.67	18648.80
489.87	18888.42
490.08	18996.96
490.29	19179.23
490.49	19470.04
490.70	19207.90
490.90	19687.12
491.11	19506.90
491.32	19582.68
491.52	19572.44
491.73	20047.57
491.94	20004.56
492.14	19660.50
492.35	19971.79
492.55	20354.76
492.76	20340.43
492.97	20420.30
493.17	20319.95
493.38	20483.78
493.58	20750.02
493.79	20672.20
494.00	20426.44
494.20	20788.93
494.41	20780.74
494.61	21034.69
494.82	21272.25
495.02	21130.94
495.23	21319.35
495.44	21325.50
495.64	21503.67
495.85	21370.55
496.05	21714.61
496.26	21636.79
496.47	21751.48
496.67	21884.59
496.88	22097.58
497.08	21749.43
497.29	22126.25
497.49	22191.79
497.70	22245.04
497.91	21970.61
498.11	22277.80
498.32	22417.07
498.52	22427.31
498.73	22605.48
498.93	22707.88
499.14	22556.33
499.34	22970.02
499.55	22726.31
499.76	22654.63
499.96	23043.74
500.17	23084.70
500.37	23170.72
500.58	23160.48
500.78	23185.05
500.99	23346.84
501.19	23312.03
501.40	23520.92
501.60	23457.43
501.81	23709.33
502.02	23686.81
502.22	23455.39
502.43	23770.77
502.63	23758.49
502.84	24229.52
503.04	24198.80
503.25	24020.63
503.45	24178.32
503.66	24356.49
503.86	24086.16
504.07	24409.74
504.27	24278.67
504.48	24737.41
504.68	24577.67
504.89	24749.70
505.09	24766.09
505.30	24635.02
505.50	24909.44
505.71	24645.26
505.91	24798.85
506.12	24856.20
506.32	24909.44
506.53	24909.44
506.73	25273.98
506.94	25144.96
507.14	25429.63
507.35	25241.21
507.55	25470.59
507.76	25394.81
507.96	25249.41
508.17	25437.82
508.37	25392.76
508.58	25628.28
508.78	25550.46
508.99	25861.75
509.19	25702.01
509.40	25704.06
509.60	25800.31
509.81	26306.16
510.01	25880.18
510.22	26111.60
510.42	26150.51
510.63	26277.49
510.83	26193.52
511.04	26601.07
511.24	26283.63
511.44	26515.05
511.65	26498.67
511.85	26496.62
512.06	26674.79
512.26	26687.08
512.47	26689.13
512.67	26670.70
512.88	26781.29
513.08	26340.97
513.29	27014.76
513.49	26760.81
513.69	26807.91
513.90	27115.11
514.10	27049.57
514.31	27022.95
514.51	27301.47
514.72	26973.80
514.92	27328.10
515.13	27254.37
515.33	27145.83
515.53	27369.05
515.74	27334.24
515.94	27668.06
516.15	27575.90
516.35	27504.22
516.56	27829.85
516.76	27747.93
516.96	27678.30
517.17	28040.79
517.37	27874.90
517.58	27762.26
517.78	28196.43
517.99	28151.38
518.19	28243.54
518.39	28257.87
518.60	28485.20
518.80	28264.02
519.01	28487.25
519.21	28464.72
519.41	28661.32
519.62	28397.13
519.82	28530.25
520.03	28898.89
520.23	28909.13
520.43	28884.55
520.64	29175.36
520.84	29167.17
521.05	29027.91
521.25	29498.94
521.45	29380.16
521.66	29322.82
521.86	29693.50
522.07	29457.98
522.27	29410.88
522.47	29539.90
522.68	29656.64
522.88	29738.55
523.08	29873.72
523.29	29775.42
523.49	29892.15
523.70	30316.08
523.90	30264.88
524.10	30307.89
524.31	30424.62
524.51	29820.47
524.71	30795.31
524.92	30432.82
525.12	30674.48
525.33	30697.00
525.53	30887.46
525.73	31153.70
525.94	30742.06
526.14	30912.04
526.34	30877.22
526.55	31215.14
526.75	31274.53
526.95	31424.03
527.16	31327.78
527.36	31272.48
527.56	31555.10
527.77	31594.01
527.97	31587.87
528.17	31847.96
528.38	31882.78
528.58	32124.44
528.78	32411.15
528.99	31976.98
529.19	32431.63
529.39	32257.56
529.60	32540.18
529.80	32511.50
530.00	32343.57
530.21	32777.74
530.41	32935.43
530.61	32574.99
530.82	32722.44
531.02	33017.35
531.22	33000.97
531.43	32771.60
531.63	33510.91
531.83	33732.09
532.04	34014.71
532.24	33271.30
532.44	33953.27
532.64	34172.41
532.85	34063.86
533.05	33775.10
533.25	33973.75
533.46	34207.22
533.66	34434.55
533.86	34467.31
534.07	34838.00
534.27	34528.75
534.47	34831.85
534.67	34801.13
534.88	34520.56
535.08	34762.22
535.28	35184.10
535.49	35362.28
535.69	35618.27
535.89	35468.77
536.09	35479.01
536.30	35798.49
536.50	35466.72
536.70	35902.94
536.91	35673.57
537.11	35771.87
537.31	35972.57
537.51	36087.26
537.72	36402.64
537.92	36654.54
538.12	36693.46
538.32	36443.60
538.53	36304.34
538.73	36089.31
538.93	36593.11
539.13	36427.22
539.34	36591.06
539.54	36779.47
539.74	37238.22
539.94	37008.84
540.15	36959.69
540.35	37313.99
540.55	37420.48
540.75	37412.29
540.96	37197.26
541.16	37293.51
541.36	37447.11
541.56	37696.96
541.77	37989.82
541.97	38010.30
542.17	37909.95
542.37	37926.33
542.58	38086.07
542.78	37950.91
542.98	38274.49
543.18	38344.12
543.38	38442.42
543.59	38589.88
543.79	38145.47
543.99	38274.49
544.19	38686.13
544.40	38643.12
544.60	39101.87
544.80	38819.25
545.00	38837.68
545.20	39003.56
545.41	39181.74
545.61	38741.42
545.81	39818.66
546.01	39470.50
546.21	39269.80
546.42	39292.33
546.62	39142.83
546.82	39689.63
547.02	39126.44
547.22	39878.05
547.43	39392.68
547.63	39763.36
547.83	39533.99
548.03	39474.60
548.23	39988.64
548.44	39845.28
548.64	39695.78
548.84	39798.18
549.04	40027.55
549.24	40424.86
549.45	40373.66
549.65	40043.93
549.85	40039.84
550.05	40383.90
550.25	39761.31
550.45	40752.53
550.66	40289.69
550.86	40596.88
551.06	40863.12
551.26	40678.80
551.46	40986.00
551.66	40687.00
551.87	40834.45
552.07	40805.78
552.27	40715.67
552.47	40752.53
552.67	40990.09
552.87	41123.21
553.07	41411.98
553.28	41356.68
553.48	41407.88
553.68	41029.01
553.88	41555.33
554.08	41274.76
554.28	41538.95
554.48	41561.48
554.69	41594.25
554.89	41796.99
555.09	41420.17
555.29	41559.43
555.49	41676.16
555.69	42091.90
555.89	41620.87
556.10	42055.04
556.30	41674.12
556.50	42130.81
556.70	41770.37
556.90	41940.35
557.10	41774.47
557.30	42087.81
557.50	42014.08
557.70	41987.46
557.91	41876.86
558.11	42157.44
558.31	42366.33
558.51	42081.66
558.71	42243.45
558.91	42460.54
559.11	42370.43
559.31	42311.03
559.51	42259.84
559.72	42442.10
559.92	42896.75
560.12	42431.86
560.32	42435.96
560.52	42374.52
560.72	43171.18
560.92	42784.12
561.12	42653.05
561.32	42823.03
561.52	42820.98
561.72	43203.95
561.93	43023.73
562.13	42679.67
562.33	42773.88
562.53	43339.11
562.73	42648.95
562.93	43070.83
563.13	43177.33
563.33	42833.27
563.53	43414.89
563.73	42876.27
563.93	42970.48
564.13	43390.31
564.33	42929.52
564.53	43089.26
564.74	43382.12
564.94	43310.44
565.14	43251.05
565.34	43298.16
565.54	43390.31
565.74	43328.87
565.94	43537.77
566.14	43292.01
566.34	43492.71
566.54	43847.01
566.74	43638.12
566.94	43578.73
567.14	44107.10
567.34	43496.81
567.54	43918.69
567.74	43787.62
567.94	43615.59
568.14	44096.86
568.34	44311.90
568.54	43631.97
568.74	44062.05
568.94	43687.27
569.14	44389.72
569.34	44528.98
569.54	43998.56
569.75	43861.35
569.95	43832.68
570.15	44752.21
570.35	44275.04
570.55	44379.48
570.75	44189.02
570.95	44402.01
571.15	44324.19
571.35	44387.67
571.55	44916.05
571.75	44297.56
571.95	44563.80
572.15	44442.97
572.35	44739.93
572.55	44627.29
572.75	44467.55
572.95	44830.04
573.15	44299.61
573.35	44426.59
573.55	44645.72
573.75	44586.33
573.95	44993.87
574.15	44799.32
574.35	45135.18
574.55	45219.15
574.75	44850.52
574.95	45206.86
575.15	44922.19
575.34	45256.01
575.54	45493.58
575.74	45397.32
575.94	45618.50
576.14	45423.95
576.34	45417.80
576.54	45677.90
576.74	45864.26
576.94	45118.80
577.14	45761.86
577.34	45792.58
577.54	45462.86
577.74	45940.04
577.94	45806.92
578.14	46327.10
578.34	45880.64
578.54	45327.69
578.74	45972.80
578.94	46454.08
579.14	45555.02
579.34	45815.11
579.54	46087.49
579.74	46368.06
579.94	46468.41
580.13	46071.10
580.33	46830.90
580.53	46732.60
580.73	46738.74
580.93	46568.76
581.13	46525.75
581.33	46605.62
581.53	46605.62
581.73	46636.34
581.93	47195.44
582.13	46994.74
582.33	47226.16
582.53	47111.47
582.73	47547.69
582.92	47205.68
583.12	47461.68
583.32	47056.18
583.52	46970.16
583.72	47834.41
583.92	47134.00
584.12	47289.65
584.32	47877.41
584.52	47695.14
584.72	47492.40
584.92	47433.00
585.11	48217.38
585.31	47822.12
585.51	47834.41
585.71	47535.40
585.91	48004.39
586.11	47959.33
586.31	48135.46
586.51	48006.44
586.71	48422.17
586.91	48149.79
587.10	48919.83
587.30	48358.69
587.50	48543.00
587.70	48633.11
587.90	48407.84
588.10	48489.76
588.30	48506.14
588.50	48487.71
588.69	48571.67
588.89	48575.77
589.09	48821.53
589.29	49063.19
589.49	49206.55
589.69	48710.94
589.89	49437.97
590.08	49034.52
590.28	49415.44
590.48	48997.65
590.68	49034.52
590.88	49059.09
591.08	49046.80
591.28	49247.50
591.47	49679.63
591.67	49216.78
591.87	49331.47
592.07	49151.25
592.27	49204.50
592.47	49736.97
592.67	49579.28
592.86	49503.50
593.06	50078.98
593.26	50091.27
593.46	49820.94
593.66	49786.12
593.86	50093.32
594.05	50173.19
594.25	49997.06
594.45	49673.48
594.65	50115.84
594.85	49685.77
595.05	50093.32
595.24	50586.88
595.44	50558.20
595.64	50279.68
595.84	50359.55
596.04	50214.15
596.23	50812.15
596.43	50853.11
596.63	50562.30
596.83	50695.42
597.03	51199.22
597.22	51148.02
597.42	50568.44
597.62	51045.62
597.82	51350.77
598.02	50781.43
598.21	50955.51
598.41	50951.41
598.61	51369.20
598.81	51750.12
599.01	51471.60
599.20	51465.45
599.40	51217.65
599.60	51606.76
599.80	51819.75
600.00	51838.18
600.19	51811.56
600.39	51877.10
600.59	51922.15
600.79	51735.79
600.98	51619.05
601.18	52391.14
601.38	52137.19
601.58	52450.53
601.78	52620.51
601.97	52401.38
602.17	52770.01
602.37	52460.77
602.57	52450.53
602.76	52835.55
602.96	52374.75
603.16	52597.98
603.36	52583.65
603.55	52763.87
603.75	52882.65
603.95	52966.62
604.15	52856.03
604.34	53064.92
604.54	53355.73
604.74	52856.03
604.94	53216.47
605.13	53458.13
605.33	53091.54
605.53	53501.14
605.73	53695.69
605.92	53449.94
606.12	53761.23
606.32	53300.43
606.52	53445.84
606.71	53947.59
606.91	53566.67
607.11	53515.47
607.30	53644.49
607.50	53359.83
607.70	54154.44
607.90	53726.41
608.09	53787.85
608.29	53935.30
608.49	54136.01
608.68	53720.27
608.88	53701.84
609.08	54115.53
609.28	54113.48
609.47	53871.82
609.67	54473.92
609.87	54244.55
610.06	54181.06
610.26	54383.81
610.46	54258.88
610.66	54308.04
610.85	54176.97
611.05	54246.60
611.25	54508.74
611.44	54295.75
611.64	54195.40
611.84	53894.35
612.03	54600.89
612.23	54219.97
612.43	54633.66
612.62	54404.29
612.82	54545.60
613.02	54990.01
613.21	54955.19
613.41	54072.52
613.61	54795.45
613.80	54293.70
614.00	54817.98
614.20	54803.64
614.39	54252.74
614.59	54688.96
614.79	54408.39
614.98	54695.10
615.18	54465.73
615.38	54832.32
615.57	54740.16
615.77	55000.25
615.97	54535.36
616.16	54713.53
616.36	54535.36
616.56	55014.58
616.75	54639.81
616.95	54293.70
617.15	54836.41
617.34	54525.12
617.54	54701.25
617.74	54848.70
617.93	54607.04
618.13	54654.14
618.32	55149.75
618.52	54611.13
618.72	55004.34
618.91	54709.44
619.11	54222.02
619.31	54420.67
619.50	54543.55
619.70	54906.04
619.90	54883.51
620.09	54492.35
620.29	54535.36
620.48	54871.23
620.68	55192.76
620.88	54377.67
621.07	54598.85
621.27	54490.30
621.46	54654.14
621.66	54449.35
621.86	54697.15
622.05	54697.15
622.25	55020.73
622.44	54494.40
622.64	54836.41
622.84	54662.33
623.03	54547.65
623.23	54492.35
623.42	54250.69
623.62	54650.05
623.82	55073.98
624.01	54553.79
624.21	54699.20
624.40	54609.09
624.60	54592.70
624.80	54609.09
624.99	54752.44
625.19	54295.75
625.38	54418.63
625.58	54607.04
625.77	54592.70
625.97	55213.24
626.17	54529.22
626.36	54920.38
626.56	54609.09
626.75	54211.78
626.95	55090.36
627.14	54527.17
627.34	55084.22
627.54	54478.02
627.73	54572.22
627.93	54584.51
628.12	54435.01
628.32	54392.00
628.51	54578.37
628.71	54787.26
628.90	54432.96
629.10	54484.16
629.30	54457.54
629.49	54639.81
629.69	54326.47
629.88	54199.49
630.08	54842.56
630.27	54832.32
630.47	54774.97
630.66	54265.03
630.86	54721.72
631.05	53683.40
631.25	54965.43
631.44	54701.25
631.64	54037.70
631.84	54457.54
632.03	54949.05
632.23	54578.37
632.42	54557.89
632.62	54785.21
632.81	54441.15
633.01	54295.75
633.20	54785.21
633.40	54686.91
633.59	54424.77
633.79	54432.96
633.98	54789.31
634.18	54387.91
634.37	54639.81
634.57	54170.82
634.76	55057.59
634.96	54738.11
635.15	54641.85
635.35	54269.12
635.54	54318.28
635.74	54848.70
635.93	54561.98
636.13	55192.76
636.32	55123.13
636.52	54365.38
636.71	54822.08
636.91	54537.41
637.10	54613.18
637.30	54645.95
637.49	54787.26
637.69	54668.48
637.88	54998.20
638.08	54334.66
638.27	55037.11
638.46	54609.09
638.66	54052.04
638.85	54727.87
639.05	55008.44
639.24	54752.44
639.44	54359.23
639.63	54514.88
639.83	55106.74
640.02	55035.06
640.22	54588.61
640.41	54680.77
640.61	54136.01
640.80	54889.66
640.99	54674.62
641.19	55233.72
641.38	54760.64
641.58	54750.40
641.77	54799.55
641.97	54492.35
642.16	54813.88
642.36	54779.07
642.55	55059.64
642.74	54613.18
642.94	55229.62
643.13	54564.03
643.33	54965.43
643.52	54998.20
643.72	55004.34
643.91	55205.05
644.10	54953.15
644.30	55125.17
644.49	55004.34
644.69	55651.50
644.88	55295.16
645.08	54373.57
645.27	54582.46
645.46	54490.30
645.66	55157.94
645.85	54990.01
646.05	55495.86
646.24	55125.17
646.43	54678.72
646.63	55403.70
646.82	54908.09
647.02	54910.14
647.21	55381.17
647.40	55151.80
647.60	55473.33
647.79	55465.14
647.99	55129.27
648.18	55442.61
648.37	55444.66
648.57	55239.86
648.76	55385.27
648.96	55088.31
649.15	55604.40
649.34	55440.56
649.54	55278.77
649.73	54793.40
649.92	55641.26
650.12	55284.92
650.31	55545.01
650.51	55809.20
650.70	55469.23
650.89	55506.10
651.09	56100.01
651.28	55282.87
651.47	55303.35
651.67	55395.51
651.86	55743.66
652.06	55252.15
652.25	55686.32
652.44	55575.73
652.64	55350.45
652.83	55682.22
653.02	55524.53
653.22	55385.27
653.41	55340.21
653.60	55194.81
653.80	55663.79
653.99	55786.67
654.18	55624.88
654.38	55293.11
654.57	55938.22
654.76	55807.15
654.96	55694.51
655.15	55522.48
655.34	55395.51
655.54	55198.90
655.73	55772.33
655.92	55698.61
656.12	55686.32
656.31	55489.71
656.50	55995.56
656.70	55811.24
656.89	55915.69
657.08	55667.89
657.28	55174.33
657.47	55801.00
657.66	55887.02
657.86	55536.82
658.05	55706.80
658.24	56267.94
658.43	55782.57
658.63	56396.96
658.82	55727.28
659.01	55923.88
659.21	56235.17
659.40	55764.14
659.59	55565.49
659.79	55925.93
659.98	56095.91
660.17	56140.97
660.36	55966.89
660.56	55776.43
660.75	56224.93
660.94	56130.73
661.14	55905.45
661.33	55970.99
661.52	55626.93
661.71	56030.38
661.91	55813.29
662.10	55645.36
662.29	56245.41
662.49	56159.40
662.68	55889.07
662.87	56313.00
663.06	56204.45
663.26	56196.26
663.45	56272.04
663.64	55801.00
663.83	56763.55
664.03	56366.24
664.22	56116.39
664.41	56421.54
664.60	56163.50
664.80	55981.23
664.99	56020.14
665.18	56104.10
665.37	56358.05
665.57	56521.89
665.76	56341.67
665.95	56013.99
666.14	55985.32
666.34	56263.85
666.53	55876.78
666.72	56007.85
666.91	56194.21
667.11	55768.24
667.30	56368.29
667.49	55882.92
667.68	56038.57
667.87	56165.54
668.07	56388.77
668.26	56247.46
668.45	56413.35
668.64	56218.79
668.84	56464.55
669.03	56175.78
669.22	56310.95
669.41	56485.03
669.60	56659.10
669.80	55760.05
669.99	56800.41
670.18	56140.97
670.37	56485.03
670.57	56468.64
670.76	56071.34
670.95	56292.52
671.14	56192.17
671.33	56272.04
671.53	56698.01
671.72	56540.32
671.91	56517.79
672.10	56042.66
672.29	56290.47
672.48	56140.97
672.68	56896.67
672.87	56706.21
673.06	56476.83
673.25	56317.09
673.44	56087.72
673.64	56052.90
673.83	56007.85
674.02	55866.54
674.21	56257.70
674.40	56288.42
674.59	55848.11
674.79	55618.74
674.98	56128.68
675.17	56138.92
675.36	56210.60
675.55	56317.09
675.74	55975.08
675.94	55868.59
676.13	56100.01
676.32	56153.26
676.51	56349.86
676.70	56286.37
676.89	56329.38
677.08	56644.77
677.28	55762.09
677.47	56595.62
677.66	56525.99
677.85	56186.02
678.04	56472.74
678.23	56677.54
678.42	56591.52
678.62	56616.10
678.81	56540.32
679.00	56460.45
679.19	56722.59
679.38	56587.42
679.57	56671.39
679.76	56493.22
679.96	56743.07
680.15	56020.14
680.34	56269.99
680.53	56052.90
680.72	56423.59
680.91	56786.08
681.10	56251.56
681.29	56648.86
681.48	56237.22
681.68	56153.26
681.87	56022.19
682.06	56102.06
682.25	56296.61
682.44	55747.76
682.63	56059.05
682.82	55727.28
683.01	56077.48
683.20	55686.32
683.39	56163.50
683.59	56089.77
683.78	55811.24
683.97	55811.24
684.16	55620.78
684.35	55545.01
684.54	56333.48
684.73	55798.96
684.92	56020.14
685.11	55999.66
685.30	55977.13
685.49	56575.14
685.69	55874.73
685.88	56159.40
686.07	55958.70
686.26	56110.25
686.45	56233.13
686.64	56071.34
686.83	55659.69
687.02	55952.55
687.21	55966.89
687.40	55917.74
687.59	55473.33
687.78	56122.54
687.97	56366.24
688.16	55676.08
688.35	55502.00
688.54	55899.31
688.74	55780.52
688.93	56089.77
689.12	55657.65
689.31	55956.65
689.50	55674.03
689.69	55465.14
689.88	55121.08
690.07	55522.48
690.26	55446.71
690.45	56220.84
690.64	55483.57
690.83	55286.96
691.02	55518.38
691.21	55432.37
691.40	55440.56
691.59	55467.19
691.78	55393.46
691.97	55747.76
692.16	55260.34
692.35	55602.35
692.54	55534.77
692.73	55624.88
692.92	55385.27
693.11	55714.99
693.30	55301.30
693.49	55557.30
693.68	55176.37
693.87	55143.61
694.06	55250.10
694.25	54807.74
694.44	54971.58
694.63	55268.53
694.82	55190.71
695.01	54926.52
695.20	55022.78
695.39	54693.05
695.58	55078.07
695.77	55002.30
695.96	54709.44
696.15	54801.60
696.34	55057.59
696.53	54641.85
696.72	55473.33
696.91	54760.64
697.10	54957.24
697.29	54844.60
697.48	55192.76
697.67	54725.82
697.86	54727.87
698.05	54441.15
698.24	55594.16
698.43	54379.71
698.62	55094.46
698.81	54715.58
699.00	54910.14
699.19	54219.97
699.38	54836.41
699.57	54357.19
699.76	54959.29
699.95	54320.32
700.14	54568.13
700.32	54357.19
700.51	54058.18
700.70	54480.06
700.89	54918.33
701.08	54428.87
701.27	54377.67
701.46	54738.11
701.65	54058.18
701.84	54355.14
702.03	54209.73
702.22	53941.45
702.41	53966.02
702.60	54162.63
702.79	54037.70
702.98	53728.46
703.17	54049.99
703.35	54066.38
703.54	54047.94
703.73	53994.70
703.92	54015.18
704.11	53615.82
704.30	53425.36
704.49	53595.34
704.68	53335.25
704.87	53722.32
705.06	53654.73
705.25	53472.46
705.43	53609.68
705.62	53257.43
705.81	53695.69
706.00	53261.52
706.19	53492.94
706.38	53556.43
706.57	53449.94
706.76	53265.62
706.95	53370.07
707.14	53339.35
707.32	53144.79
707.51	52950.23
707.70	53296.34
707.89	53267.67
708.08	53058.77
708.27	53155.03
708.46	53683.40
708.65	52999.38
708.84	53359.83
709.02	53433.55
709.21	53175.51
709.40	53232.85
709.59	52694.24
709.78	52614.37
709.97	53050.58
710.16	52788.44
710.34	52899.03
710.53	52661.47
710.72	52552.93
710.91	52888.79
711.10	52485.34
711.29	52593.89
711.48	52450.53
711.66	52341.99
711.85	52163.81
712.04	52591.84
712.23	52319.46
712.42	51930.34
712.61	52552.93
712.80	52149.48
712.98	52684.00
713.17	51827.95
713.36	52268.26
713.55	51895.53
713.74	52272.35
713.93	52348.13
714.11	52278.50
714.30	51721.45
714.49	52192.48
714.68	52364.51
714.87	51903.72
715.06	51877.10
715.24	51954.92
715.43	51825.90
715.62	51723.50
715.81	51672.30
716.00	51827.95
716.18	51563.76
716.37	51225.84
716.56	51242.23
716.75	51684.59
716.94	51449.07
717.12	51115.25
717.31	50926.84
717.50	51295.47
717.69	51496.17
717.88	51070.20
718.06	50984.18
718.25	51619.05
718.44	51135.73
718.63	51289.33
718.82	50842.87
719.00	50726.14
719.19	50656.51
719.38	50683.13
719.57	50203.91
719.76	50066.69
719.94	50078.98
720.13	50099.46
720.32	50042.12
720.51	50734.33
720.69	50140.42
720.88	50267.39
721.07	50070.79
721.26	49310.99
721.44	49861.90
721.63	50029.83
721.82	49653.00
722.01	49739.02
722.20	49700.11
722.38	49696.01
722.57	49532.17
722.76	49681.67
722.95	49521.93
723.13	49231.12
723.32	49327.38
723.51	49052.95
723.70	49130.77
723.88	49394.96
724.07	49208.59
724.26	48893.21
724.44	48301.34
724.63	48807.19
724.82	48872.73
725.01	48870.68
725.19	49009.94
725.38	48878.87
725.57	48368.93
725.76	48715.03
725.94	48506.14
726.13	48702.74
726.32	48663.83
726.51	48215.33
726.69	48702.74
726.88	48772.38
727.07	48483.61
727.25	48250.14
727.44	48516.38
727.63	48272.67
727.82	48559.39
728.00	48139.55
728.19	48567.58
728.38	48520.48
728.56	47865.13
728.75	48248.10
728.94	48172.32
729.12	48088.35
729.31	48305.44
729.50	48229.66
729.69	48280.86
729.87	48061.73
730.06	48080.16
730.25	47850.79
730.43	48551.20
730.62	47836.45
730.81	48092.45
730.99	48311.58
731.18	47947.04
731.37	47928.61
731.55	48358.69
731.74	48213.28
731.93	48221.47
732.11	48022.82
732.30	47918.37
732.49	47949.09
732.67	48217.38
732.86	47689.00
733.05	47742.25
733.23	47447.34
733.42	48098.59
733.61	47775.02
733.79	47686.95
733.98	48336.16
734.17	47734.06
734.35	47723.82
734.54	47719.72
734.73	47772.97
734.91	47723.82
735.10	47535.40
735.29	47916.32
735.47	47504.68
735.66	47643.94
735.84	47496.49
736.03	47521.07
736.22	47858.98
736.40	47027.51
736.59	47717.67
736.78	47271.21
736.96	47355.18
737.15	46916.92
737.33	46937.40
737.52	46925.11
737.71	46933.30
737.89	47029.55
738.08	46609.72
738.27	46996.79
738.45	47156.53
738.64	47076.66
738.82	47142.19
739.01	46935.35
739.20	46994.74
739.38	46617.91
739.57	47103.28
739.75	47002.93
739.94	46912.82
740.13	46624.06
740.31	46804.28
740.50	46652.73
740.68	46964.02
740.87	46896.44
741.06	46765.37
741.24	46624.06
741.43	46691.64
741.61	46705.98
741.80	46255.42
741.99	45995.33
742.17	46335.29
742.36	46609.72
742.54	46523.71
742.73	46230.85
742.91	46544.19
743.10	46452.03
743.29	46589.24
743.47	46363.96
743.66	45940.04
743.84	46589.24
744.03	46177.60
744.21	46064.96
744.40	46347.58
744.59	45884.74
744.77	46101.82
744.96	45753.67
745.14	46175.55
745.33	46314.81
745.51	46431.55
745.70	45772.10
745.88	45880.64
746.07	45794.63
746.26	45663.56
746.44	45675.85
746.63	45438.28
746.81	45774.15
747.00	45794.63
747.18	45989.19
747.37	45606.22
747.55	45999.43
747.74	46011.71
747.92	45172.05
748.11	45505.87
748.29	45487.43
748.48	45055.31
748.66	45372.75
748.85	45520.20
749.03	45282.64
749.22	45555.02
749.41	45153.62
749.59	45643.08
749.78	45110.61
749.96	45061.46
750.15	44918.10
750.33	45282.64
750.52	44821.84
750.70	45331.79
750.89	45098.32
751.07	44746.07
751.26	44957.01
751.44	44741.97
751.63	44946.77
751.81	44565.85
752.00	44926.29
752.18	44914.00
752.37	45016.40
752.55	44359.00
752.74	44381.53
752.92	44619.10
753.10	44725.59
753.29	44459.35
753.47	44322.14
753.66	44297.56
753.84	44447.07
754.03	44430.68
754.21	44086.62
754.40	44209.50
754.58	44109.15
754.77	44447.07
754.95	44000.61
755.14	44082.53
755.32	44246.36
755.51	43978.08
755.69	43791.72
755.88	43998.56
756.06	44244.32
756.24	43883.87
756.43	43873.63
756.61	43912.55
756.80	44000.61
756.98	43681.13
757.17	43464.04
757.35	43588.97
757.54	43859.30
757.72	43738.47
757.90	43402.60
758.09	43509.10
758.27	43627.88
758.46	43122.03
758.64	43398.51
758.83	43816.29
759.01	43705.70
759.19	43597.16
759.38	43179.37
759.56	43928.93
759.75	43550.06
759.93	43517.29
760.12	43079.02
760.30	43216.24
760.48	43302.25
760.67	43109.74
760.85	43408.75
761.04	42964.34
761.22	43564.39
761.40	42894.71
761.59	42925.42
761.77	42898.80
761.96	42792.31
762.14	42956.14
762.32	42554.74
762.51	43058.54
762.69	42759.54
762.88	42739.06
763.06	42917.23
763.24	42571.13
763.43	42986.86
763.61	42620.28
763.80	42308.99
763.98	42960.24
764.16	42702.20
764.35	42351.99
764.53	42096.00
764.72	42517.88
764.90	42554.74
765.08	42548.60
765.27	42624.37
765.45	41753.99
765.63	41995.65
765.82	42300.79
766.00	41975.17
766.18	41985.41
766.37	42085.76
766.55	41862.53
766.74	41932.16
766.92	41610.63
767.10	41926.02
767.29	41717.12
767.47	41532.81
767.65	41692.55
767.84	41366.92
768.02	41858.43
768.20	41629.06
768.39	41741.70
768.57	41475.46
768.75	41287.05
768.94	41848.19
769.12	41717.12
769.30	41235.85
769.49	40994.19
769.67	41307.53
769.85	40893.84
770.04	41067.92
770.22	41117.07
770.40	40916.37
770.59	40687.00
770.77	41139.60
770.95	41172.36
771.14	41022.86
771.32	40484.25
771.50	40234.39
771.69	40537.49
771.87	41217.42
772.05	40719.76
772.24	40091.04
772.42	40967.57
772.60	40506.77
772.78	40543.64
772.97	40361.37
773.15	40529.30
773.33	40281.50
773.52	40519.06
773.70	40764.82
773.88	40836.50
774.07	40310.17
774.25	40678.80
774.43	40691.09
774.61	40207.77
774.80	40813.97
774.98	40697.24
775.16	40355.22
775.34	40709.52
775.53	40121.76
775.71	40768.91
775.89	40498.58
776.08	40990.09
776.26	40541.59
776.44	40623.51
776.62	40687.00
776.81	40338.84
776.99	41072.01
777.17	40615.32
777.35	40576.40
777.54	41287.05
777.72	40664.47
777.90	40592.79
778.08	41254.28
778.27	40846.74
778.45	40854.93
778.63	41213.32
778.81	40887.70
779.00	41436.55
779.18	40920.46
779.36	41633.16
779.54	41203.08
779.73	40856.98
779.91	40986.00
780.09	41096.59
780.27	41325.96
780.46	41016.72
780.64	41264.52
780.82	41340.30
781.00	41432.46
781.19	41495.94
781.37	41381.26
781.55	41823.62
781.73	41483.66
781.91	41489.80
782.10	41803.14
782.28	41366.92
782.46	41401.74
782.64	41997.70
782.82	41530.76
783.01	42038.65
783.19	41794.95
783.37	41491.85
783.55	41751.94
783.74	42206.59
783.92	41848.19
784.10	42159.48
784.28	41778.56
784.46	41309.58
784.64	41149.84
784.83	41833.86
785.01	41649.54
785.19	41919.87
785.37	41923.97
785.55	41876.86
785.74	41379.21
785.92	41807.23
786.10	41825.67
786.28	42034.56
786.46	41880.96
786.64	41276.81
786.83	41842.05
787.01	41710.98
787.19	41891.20
787.37	41532.81
787.55	41289.10
787.74	41203.08
787.92	41381.26
788.10	41115.02
788.28	41082.25
788.46	41313.67
788.64	40920.46
788.82	41590.15
789.01	41276.81
789.19	41123.21
789.37	41094.54
789.55	41180.56
789.73	40883.60
789.91	40732.05
790.09	41325.96
790.28	41006.48
790.46	40293.79
790.64	40719.76
790.82	40576.40
791.00	40529.30
791.18	40197.53
791.36	40267.16
791.55	40482.20
791.73	39914.91
791.91	39892.38
792.09	40195.48
792.27	39800.22
792.45	40172.96
792.63	40117.66
792.81	39443.88
793.00	39695.78
793.18	39601.57
793.36	39460.26
793.54	39607.72
793.72	39572.90
793.90	39417.25
794.08	39572.90
794.26	39138.73
794.44	38987.18
794.62	38796.72
794.81	39138.73
794.99	38591.92
795.17	38854.06
795.35	38970.80
795.53	39226.79
795.71	39239.08
795.89	38669.75
796.07	38458.81
796.25	38319.54
796.43	38372.79
796.61	38049.21
796.80	38260.15
796.98	38000.06
797.16	37993.92
797.34	38045.12
797.52	37991.87
797.70	38036.92
797.88	37770.69
798.06	37666.24
798.24	37391.81
798.42	37578.18
798.60	37656.00
798.78	37260.74
798.96	37744.06
799.14	37418.44
799.32	37447.11
799.51	37164.49
799.69	37580.23
799.87	37082.57
800.05	36978.12
800.23	37051.85
800.41	36654.54
800.59	36974.03
800.77	36937.16
800.95	35945.95
801.13	36623.83
801.31	36361.69
801.49	36574.67
801.67	36312.53
801.85	36410.84
802.03	36177.37
802.21	36025.82
802.39	35900.89
802.57	35808.73
802.75	35825.12
802.93	35790.30
803.11	35790.30
803.29	35296.74
803.47	35515.87
803.65	35464.67
803.83	35005.93
804.01	35362.28
804.19	35173.86
804.37	34862.57
804.55	34831.85
804.73	35169.77
804.91	35012.07
805.09	34924.01
805.27	34772.46
805.45	34999.79
805.63	34590.19
805.81	34973.16
805.99	34659.82
806.17	34749.93
806.35	34858.48
806.53	33965.56
806.71	34350.58
806.89	34399.73
807.07	34223.61
807.25	34502.13
807.43	33955.32
807.61	34151.93
807.79	34186.74
807.97	33562.11
808.15	34020.86
808.33	33582.59
808.51	33629.69
808.69	33535.49
808.87	32953.87
809.05	33592.83
809.23	33271.30
809.41	32828.94
809.59	33080.84
809.77	33123.85
809.95	33039.88
810.13	33132.04
810.31	32683.53
810.49	33672.70
810.67	32941.58
810.84	32851.47
811.02	32626.19
811.20	32699.92
811.38	32302.61
811.56	32562.70
811.74	32810.51
811.92	32531.98
812.10	32491.02
812.28	32273.94
812.46	32515.60
812.64	32448.02
812.82	32529.94
813.00	32026.14
813.18	32083.48
813.36	31811.10
813.53	31577.63
813.71	32177.68
813.89	32085.53
814.07	31532.57
814.25	31847.96
814.43	31514.14
814.61	31823.39
814.79	31632.93
814.97	31667.74
815.15	31542.81
815.33	31172.13
815.50	31137.32
815.68	31360.55
815.86	31127.08
816.04	30918.18
816.22	31235.62
816.40	30901.80
816.58	31092.26
816.76	30873.13
816.94	30770.73
817.11	30756.39
817.29	30615.08
817.47	30645.80
817.65	30627.37
817.83	30488.11
818.01	30367.28
818.19	30316.08
818.37	30524.97
818.54	30252.59
818.72	29939.26
818.90	30289.46
819.08	30232.11
819.26	30092.85
819.44	30322.23
819.62	29861.43
819.80	29904.44
819.97	30078.52
820.15	29947.45
820.33	29566.52
820.51	29869.62
820.69	29412.93
820.87	29763.13
821.05	29888.06
821.22	29681.21
821.40	29591.10
821.58	29494.85
821.76	29230.66
821.94	29294.14
822.12	29320.77
822.29	29380.16
822.47	29390.40
822.65	29273.67
822.83	29566.52
823.01	29404.74
823.19	28954.18
823.36	28831.30
823.54	29038.15
823.72	28673.61
823.90	28874.31
824.08	28501.58
824.25	28575.31
824.43	28765.77
824.61	28487.25
824.79	28771.91
824.97	28511.82
825.15	28599.88
825.32	28452.43
825.50	28397.13
825.68	28440.14
825.86	28526.16
826.04	28513.87
826.21	28247.63
826.39	28218.96
826.57	28458.57
826.75	28255.82
826.93	28034.64
827.10	28057.17
827.28	28216.91
827.46	28421.71
827.64	28005.97
827.81	27756.12
827.99	28118.61
828.17	27903.57
828.35	27571.80
828.53	27856.47
828.70	27434.59
828.88	27600.47
829.06	27733.59
829.24	27938.39
829.41	27532.89
829.59	27930.20
829.77	27399.77
829.95	27500.12
830.12	27520.60
830.30	27360.86
830.48	27491.93
830.66	27254.37
830.84	27014.76
831.01	27168.35
831.19	27354.72
831.37	27115.11
831.55	26930.79
831.72	27170.40
831.90	27061.86
832.08	26959.46
832.25	26777.19
832.43	26898.02
832.61	27059.81
832.79	26971.75
832.96	26906.21
833.14	26709.61
833.32	26838.63
833.50	26889.83
833.67	26756.71
833.85	26504.81
834.03	26545.77
834.20	26355.31
834.38	26418.80
834.56	26818.15
834.74	26324.59
834.91	26785.38
835.09	26424.94
835.27	26189.42
835.44	26295.92
835.62	25859.70
835.80	26029.68
835.98	25992.82
836.15	26185.33
836.33	26011.25
836.51	26136.18
836.68	26064.50
836.86	25800.31
837.04	25892.47
837.21	25976.44
837.39	26230.38
837.57	26173.04
837.75	25876.09
837.92	25579.13
838.10	25548.41
838.28	25384.57
838.45	25611.90
838.63	25089.67
838.81	25499.26
838.98	25640.57
839.16	25505.40
839.34	25390.72
839.51	25425.53
839.69	25169.54
839.87	25011.84
840.04	25353.85
840.22	25071.23
840.40	24983.17
840.57	25024.13
840.75	25169.54
840.93	24802.95
841.10	24823.43
841.28	25048.71
841.46	24929.92
841.63	25056.90
841.81	24917.64
841.98	25087.62
842.16	25169.54
842.34	24751.75
842.51	24700.55
842.69	24868.48
842.87	24690.31
843.04	24649.35
843.22	24569.48
843.40	24585.86
843.57	24403.60
843.75	24549.00
843.92	24499.85
844.10	24454.79
844.28	24643.21
844.45	24387.21
844.63	24323.72
844.81	24194.70
844.98	24479.37
845.16	24350.35
845.33	24018.58
845.51	24221.33
845.69	24034.96
845.86	23987.86
846.04	23991.95
846.21	23975.57
846.39	24307.34
846.57	23744.15
846.74	24108.69
846.92	24186.51
847.09	23500.44
847.27	23670.42
847.45	23979.67
847.62	23770.77
847.80	23932.56
847.97	23500.44
848.15	23606.94
848.32	23525.02
848.50	23408.28
848.68	23529.11
848.85	23461.53
849.03	23305.88
849.20	23479.96
849.38	23375.52
849.56	23391.90
849.73	23174.81
849.91	23297.69
850.08	23496.35
850.26	22990.50
850.43	23004.83
850.61	22984.35
850.78	23015.07
850.96	22931.11
851.14	22929.06
851.31	23146.14
851.49	22902.43
851.66	22902.43
851.84	22984.35
852.01	22744.74
852.19	22658.73
852.36	22671.01
852.54	22689.45
852.71	22802.08
852.89	22812.32
853.07	22859.43
853.24	22900.39
853.42	22496.94
853.59	22730.41
853.77	22863.52
853.94	22808.23
854.12	22636.20
854.29	22656.68
854.47	22554.28
854.64	22419.11
854.82	22697.64
854.99	22439.59
855.17	22435.50
855.34	22353.58
855.52	22439.59
855.69	22415.02
855.87	22216.36
856.04	22134.45
856.22	22255.28
856.39	21886.64
856.57	22345.39
856.74	21937.84
856.92	22298.28
857.09	21923.51
857.27	21956.27
857.44	21993.14
857.62	21817.01
857.79	21905.07
857.97	22001.33
858.14	21898.93
858.32	21681.85
858.49	22021.81
858.67	21683.89
858.84	21743.28
859.02	21685.94
859.19	21948.08
859.37	21458.62
859.54	21446.33
859.72	21540.54
859.89	21585.59
860.06	21518.01
860.24	21378.75
860.41	21638.84
860.59	21184.19
860.76	21388.99
860.94	21173.95
861.11	21317.31
861.29	21120.70
861.46	21323.45
861.64	21049.02
861.81	21268.16
861.98	21180.09
862.16	21219.00
862.33	20790.98
862.51	21171.90
862.68	21106.37
862.86	20993.73
863.03	20907.71
863.21	20721.35
863.38	20719.30
863.55	20659.91
863.73	21067.45
863.90	20715.20
864.08	20747.97
864.25	20633.29
864.43	20801.22
864.60	20621.00
864.77	20680.39
864.95	20805.31
865.12	20428.49
865.30	20735.68
865.47	20547.27
865.64	20336.33
865.82	20664.00
865.99	20696.77
866.17	20504.26
866.34	20496.07
866.51	20221.64
866.69	20264.65
866.86	20426.44
867.04	20291.27
867.21	20217.55
867.38	20246.22
867.56	19943.12
867.73	19957.46
867.91	20029.13
868.08	20004.56
868.25	19973.84
868.43	19842.77
868.60	19576.53
868.78	19680.98
868.95	19922.64
869.12	19504.85
869.30	19560.15
869.47	19713.75
869.64	19625.68
869.82	19797.71
869.99	19588.82
870.16	19701.46
870.34	19658.45
870.51	19760.85
870.69	19525.33
870.86	19381.98
871.03	19398.36
871.21	19156.70
871.38	19400.41
871.55	19123.93
871.73	19156.70
871.90	19308.25
872.07	19142.36
872.25	19005.15
872.42	19156.70
872.59	18876.13
872.77	18976.48
872.94	18974.43
873.11	18829.02
873.29	19115.74
873.46	18726.63
873.63	18999.01
873.81	18915.04
873.98	18556.64
874.15	18804.45
874.33	18544.36
874.50	18575.08
874.67	18767.59
874.85	18194.15
875.02	18585.32
875.19	18265.83
875.37	18482.92
875.54	18241.26
875.71	18396.90
875.88	18185.96
876.06	18325.22
876.23	18224.87
876.40	18464.49
876.58	18114.28
876.75	17997.55
876.92	18042.60
877.10	18102.00
877.27	18007.79
877.44	17733.36
877.61	17835.76
877.79	18026.22
877.96	17968.88
878.13	17796.85
878.31	17901.29
878.48	17821.42
878.65	17549.04
878.82	17469.17
879.00	17585.91
879.17	17751.79
879.34	17479.41
879.51	17356.54
879.69	17327.86
879.86	17458.93
880.03	17626.87
880.21	17495.80
880.38	17377.01
880.55	17346.30
880.72	17174.27
880.90	17194.75
881.07	17192.70
881.24	17305.34
881.41	17305.34
881.59	17385.21
881.76	17082.11
881.93	17037.05
882.10	17100.54
882.28	16887.55
882.45	16969.47
882.62	16946.94
882.79	17327.86
882.96	16742.14
883.14	17127.16
883.31	16936.70
883.48	16838.40
883.65	17057.53
883.83	16889.60
884.00	16809.73
884.17	16582.40
884.34	16946.94
884.51	16969.47
884.69	16905.98
884.86	16865.02
885.03	16484.10
885.20	16637.70
885.38	16551.68
885.55	16574.21
885.72	16795.39
885.89	16520.96
886.06	16766.72
886.24	16342.79
886.41	16355.08
886.58	16520.96
886.75	16811.78
886.92	16340.74
887.10	16621.31
887.27	16148.23
887.44	16500.48
887.61	16355.08
887.78	16459.52
887.95	16287.50
888.13	16201.48
888.30	16219.91
888.47	16340.74
888.64	16219.91
888.81	16172.81
888.99	15961.87
889.16	16041.74
889.33	15927.05
889.50	15978.25
889.67	16004.88
889.84	16105.23
890.01	16025.36
890.19	15802.13
890.36	15961.87
890.53	15867.66
890.70	15623.95
890.87	15501.08
891.04	15890.19
891.22	15836.94
891.39	15826.70
891.56	15750.93
891.73	15654.67
891.90	15697.68
892.07	15605.52
892.24	15699.73
892.42	15759.12
892.59	15507.22
892.76	15333.14
892.93	15429.40
893.10	15449.88
893.27	15458.07
893.44	15542.03
893.61	15431.44
893.79	15482.64
893.96	15464.21
894.13	15574.80
894.30	15263.51
894.47	15433.49
894.64	15675.15
894.81	15343.38
894.98	15560.47
895.15	15312.66
895.33	15386.39
895.50	15550.23
895.67	15341.33
895.84	15079.19
896.01	15236.89
896.18	15122.20
896.35	15542.03
896.52	15240.98
896.69	15044.38
896.86	15249.18
897.04	15154.97
897.21	14960.41
897.38	15361.81
897.55	15245.08
897.72	15245.08
897.89	15087.39
898.06	15392.53
898.23	15134.49
898.40	14995.23
898.57	15161.11
898.74	15150.87
898.91	15050.52
899.08	15210.26
899.26	15050.52
899.43	15408.92
899.60	15075.10
899.77	14991.13
899.94	15197.98
900.11	14772.00
900.28	15492.88
900.45	15306.52
900.62	15077.15
900.79	15138.58
900.96	15142.68
901.13	15253.27
901.30	15116.06
901.47	14868.25
901.64	15263.51
901.81	15154.97
901.98	15093.53
902.15	15437.59
902.32	15056.67
902.49	15144.73
902.66	15204.12
902.83	15138.58
903.01	14825.25
903.18	15044.38
903.35	15402.77
903.52	14980.89
903.69	15023.90
903.86	15068.95
904.03	15134.49
904.20	15185.69
904.37	15269.66
904.54	15083.29
904.71	14923.55
904.88	15038.23
905.05	14927.64
905.22	15195.93
905.39	15034.14
905.56	14735.14
905.73	14864.16
905.90	15083.29
906.07	15240.98
906.24	14993.18
906.41	15054.62
906.58	15126.30
906.75	14984.99
906.92	14741.28
907.09	15146.78
907.26	15021.85
907.43	14700.32
907.60	14982.94
907.77	15277.85
907.93	14964.51
908.10	14964.51
908.27	15017.75
908.44	14925.60
908.61	14905.12
908.78	14763.81
908.95	14894.88
909.12	14966.56
909.29	15023.90
909.46	14855.97
909.63	14937.88
909.80	14919.45
909.97	14884.64
910.14	14812.96
910.31	14677.79
910.48	14944.03
910.65	14937.88
910.82	14952.22
910.99	14923.55
911.16	14833.44
911.33	14911.26
911.50	14724.90
911.66	14726.94
911.83	14563.11
912.00	14509.86
912.17	14536.48
912.34	14589.73
912.51	14604.07
912.68	14337.83
912.85	14696.22
913.02	14509.86
913.19	14393.12
913.36	14425.89
913.53	14399.27
913.70	14223.14
913.86	14341.93
914.03	14331.69
914.20	14196.52
914.37	14436.13
914.54	14079.79
914.71	14389.03
914.88	14237.48
915.05	14442.28
915.22	14255.91
915.39	14300.97
915.55	14264.10
915.72	13946.67
915.89	13983.53
916.06	14004.01
916.23	14063.40
916.40	13776.69
916.57	13934.38
916.74	13977.39
916.91	13895.47
917.07	13657.90
917.24	13866.80
917.41	13668.14
917.58	13850.41
917.75	13633.33
917.92	13516.59
918.09	13678.38
918.26	13479.73
918.42	13522.74
918.59	13494.07
918.76	13428.53
918.93	13303.60
919.10	13311.80
919.27	13389.62
919.44	13399.86
919.60	13358.90
919.77	13244.21
919.94	13348.66
920.11	13127.48
920.28	12977.98
920.45	13170.49
920.61	13211.45
920.78	13010.75
920.95	12881.72
921.12	13057.85
921.29	12943.16
921.46	12863.29
921.62	12822.33
921.79	12795.71
921.96	12824.38
922.13	12721.98
922.30	12789.56
922.47	12740.41
922.63	12427.07
922.80	12644.16
922.97	12597.06
923.14	12255.04
923.31	12373.83
923.47	12390.21
923.64	12515.14
923.81	12300.10
923.98	12390.21
924.15	12105.54
924.32	12236.61
924.48	12113.74
924.65	12232.52
924.82	11773.77
924.99	11878.22
925.15	11788.11
925.32	11931.47
925.49	11880.27
925.66	11902.79
925.83	11763.53
925.99	11663.18
926.16	11792.20
926.33	11657.04
926.50	11497.30
926.67	11675.47
926.83	11562.83
927.00	11407.19
927.17	11366.23
927.34	11253.59
927.50	11073.37
927.67	11487.06
927.84	11382.61
928.01	11317.08
928.17	11337.56
928.34	11278.16
928.51	11214.68
928.68	11222.87
928.84	11020.12
929.01	10870.62
929.18	10866.52
929.35	10858.33
929.51	10893.15
929.68	10680.16
929.85	10663.77
930.02	10647.39
930.18	10714.97
930.35	10803.04
930.52	10420.06
930.69	10547.04
930.85	10477.41
931.02	10348.39
931.19	10352.48
931.36	10334.05
931.52	10342.24
931.69	10233.70
931.86	10084.20
932.02	10069.86
932.19	10291.04
932.36	10268.52
932.53	10078.05
932.69	9959.27
932.86	10090.34
933.03	10106.73
933.19	9807.72
933.36	9998.18
933.53	9844.59
933.70	9643.88
933.86	9688.94
934.03	9594.73
934.20	9660.27
934.36	9600.88
934.53	9353.07
934.70	9166.71
934.86	9228.15
935.03	9248.63
935.20	9084.79
935.36	8990.58
935.53	9041.78
935.70	8869.75
935.86	9148.28
936.03	8925.05
936.20	8763.26
936.36	8646.52
936.53	8525.69
936.70	8685.44
936.86	8750.97
937.03	8447.87
937.20	8382.34
937.36	8355.71
937.53	8073.09
937.70	8083.33
937.86	7919.50
938.03	7813.00
938.20	8146.82
938.36	7571.34
938.53	7698.31
938.70	7575.44
938.86	7573.39
939.03	7579.53
939.20	7421.84
939.36	7370.64
939.53	7258.00
939.70	7317.39
939.86	7038.87
940.03	7051.16
940.19	6866.84
940.36	6918.04
940.53	6778.78
940.69	6674.33
940.86	6555.55
941.03	6633.37
941.19	6436.77
941.36	6301.60
941.52	6520.73
941.69	6418.33
941.86	6377.37
942.02	6348.70
942.19	6150.05
942.35	6213.54
942.52	6131.62
942.69	6002.60
942.85	5873.57
943.02	5949.35
943.18	5853.09
943.35	5849.00
943.52	5840.81
943.68	5732.26
943.85	5703.59
944.01	5578.67
944.18	5633.96
944.35	5867.43
944.51	5674.92
944.68	5545.90
944.84	5496.75
945.01	5377.97
945.17	5552.04
945.34	5509.04
945.51	5480.36
945.67	5484.46
945.84	5402.54
946.00	5451.69
946.17	5443.50
946.33	5453.74
946.50	5558.19
946.67	5322.67
946.83	5332.91
947.00	5416.88
947.16	5455.79
947.33	5242.80
947.49	5367.73
947.66	5343.15
947.82	5562.28
947.99	5148.59
948.16	5521.32
948.32	5283.76
948.49	5373.87
948.65	5496.75
948.82	5353.39
948.98	5226.42
949.15	5205.94
949.31	5431.21
949.48	5287.86
949.64	5267.38
949.81	5328.81
949.97	5238.70
950.14	5380.01
950.30	5402.54
950.47	5500.84
950.63	5271.47
950.80	5322.67
950.96	5386.16
951.13	5343.15
951.30	5418.93
951.46	5484.46
951.63	5457.84
951.79	5380.01
951.96	5347.25
952.12	5490.60
952.29	5339.05
952.45	5361.58
952.62	5351.34
952.78	5463.98
952.94	5439.40
953.11	5414.83
953.27	5470.12
953.44	5619.63
953.60	5441.45
953.77	5461.93
953.93	5320.62
954.10	5500.84
954.26	5365.68
954.43	5474.22
954.59	5513.13
954.76	5572.52
954.92	5328.81
955.09	5533.61
955.25	5603.24
955.42	5490.60
955.58	5609.39
955.75	5670.83
955.91	5453.74
956.07	5597.10
956.24	5617.58
956.40	5480.36
956.57	5562.28
956.73	5550.00
956.90	5468.08
957.06	5349.29
957.23	5490.60
957.39	5474.22
957.56	5560.24
957.72	5316.53
957.88	5441.45
958.05	5527.47
958.21	5590.95
958.38	5613.48
958.54	5543.85
958.71	5689.26
958.87	5492.65
959.03	5498.80
959.20	5666.73
959.36	5550.00
959.53	5531.56
959.69	5324.72
959.85	5435.31
960.02	5453.74
960.18	5480.36
960.35	5451.69
960.51	5644.20
960.68	5486.51
960.84	5496.75
961.00	5461.93
961.17	5398.45
961.33	5638.06
961.50	5607.34
961.66	5494.70
961.82	5525.42
961.99	5666.73
962.15	5334.96
962.31	5402.54
962.48	5523.37
962.64	5533.61
962.81	5449.64
962.97	5482.41
963.13	5509.04
963.30	5478.32
963.46	5380.01
963.62	5433.26
963.79	5484.46
963.95	5437.36
964.12	5455.79
964.28	5457.84
964.44	5294.00
964.61	5586.86
964.77	5578.67
964.93	5408.69
965.10	5500.84
965.26	5281.71
965.42	5402.54
965.59	5261.23
965.75	5324.72
965.92	5472.17
966.08	5334.96
966.24	5423.02
966.41	5406.64
966.57	5369.77
966.73	5337.01
966.90	5353.39
967.06	5398.45
967.22	5384.11
967.39	5304.24
967.55	5326.77
967.71	5351.34
967.88	5375.92
968.04	5267.38
968.20	5216.18
968.37	5326.77
968.53	5177.26
968.69	5287.86
968.85	5238.70
969.02	5246.90
969.18	5203.89
969.34	5285.81
969.51	5435.31
969.67	5328.81
969.83	5083.06
970.00	5273.52
970.16	5306.29
970.32	5195.70
970.48	5191.60
970.65	5136.31
970.81	4915.12
970.97	5175.22
971.14	5083.06
971.30	5240.75
971.46	5140.40
971.63	5068.72
971.79	5009.33
971.95	5013.43
972.11	4906.93
972.28	4906.93
972.44	5224.37
972.60	4978.61
972.76	4929.46
972.93	4898.74
973.09	4974.52
973.25	5035.96
973.42	5011.38
973.58	4927.41
973.74	5050.29
973.90	4954.04
974.07	4931.51
974.23	4882.36
974.39	5007.28
974.55	4747.19
974.72	4808.63
974.88	4794.29
975.04	4919.22
975.20	4917.17
975.37	4931.51
975.53	4822.97
975.69	4820.92
975.85	4786.10
976.01	4800.44
976.18	4857.78
976.34	4777.91
976.50	4757.43
976.66	4786.10
976.83	4810.68
976.99	4857.78
977.15	4755.38
977.31	4589.50
977.47	4753.34
977.64	4730.81
977.80	4599.74
977.96	4642.75
978.12	4652.98
978.29	4655.03
978.45	4571.07
978.61	4665.27
978.77	4673.46
978.93	4661.18
979.10	4628.41
979.26	4675.51
979.42	4528.06
979.58	4493.24
979.74	4507.58
979.91	4550.59
980.07	4505.53
980.23	4589.50
980.39	4497.34
980.55	4374.46
980.71	4509.63
980.88	4294.59
981.04	4396.99
981.20	4472.76
981.36	4423.61
981.52	4509.63
981.68	4302.78
981.85	4444.09
982.01	4415.42
982.17	4327.36
982.33	4478.91
982.49	4542.39
982.65	4394.94
982.82	4327.36
982.98	4396.99
983.14	4270.01
983.30	4411.32
983.46	4384.70
983.62	4263.87
983.79	4181.95
983.95	4329.41
984.11	4167.62
984.27	4288.45
984.43	4194.24
984.59	4284.35
984.75	4378.56
984.91	4192.19
985.08	4276.16
985.24	4145.09
985.40	4155.33
985.56	4159.42
985.72	4319.17
985.88	4267.97
986.04	4091.84
986.20	3930.05
986.37	4124.61
986.53	3997.64
986.69	4048.83
986.85	4061.12
987.01	4083.65
987.17	4009.92
987.33	3846.09
987.49	3997.64
987.65	4218.82
987.82	4083.65
987.98	4005.83
988.14	3989.44
988.30	4071.36
988.46	3921.86
988.62	3938.24
988.78	3891.14
988.94	4020.16
989.10	3960.77
989.26	3852.23
989.42	3905.48
989.59	3727.30
989.75	3801.03
989.91	3878.85
990.07	3669.96
990.23	3725.26
990.39	3803.08
990.55	3960.77
990.71	3753.93
990.87	3837.89
991.03	3844.04
991.19	3917.76
991.35	3870.66
991.51	3766.21
991.67	3825.61
991.83	3762.12
992.00	3825.61
992.16	3794.89
992.32	3739.59
992.48	3694.54
992.64	3610.57
992.80	3805.13
992.96	3682.25
993.12	3796.93
993.28	3729.35
993.44	3678.15
993.60	3682.25
993.76	3624.90
993.92	3696.58
994.08	3702.73
994.24	3708.87
994.40	3596.23
994.56	3575.75
994.72	3559.37
994.88	3592.14
995.04	3583.95
995.20	3545.03
995.36	3585.99
995.52	3504.07
995.68	3596.23
995.84	3399.63
996.00	3692.49
996.16	3456.97
996.32	3420.11
996.48	3471.31
996.64	3577.80
996.80	3473.36
996.96	3407.82
997.12	3428.30
997.28	3389.39
997.44	3373.00
997.60	3416.01
997.76	3411.92
997.92	3508.17
998.08	3461.07
998.24	3252.17
998.40	3495.88
998.56	3395.53
998.72	3354.57
998.88	3338.19
999.04	3340.24
999.20	3362.76
999.36	3354.57
999.52	3420.11
999.68	3284.94
999.84	3389.39
1000.00	3346.38
1000.16	3403.72
1000.32	3246.03
1000.48	3422.16
1000.64	3192.78
1000.80	3178.45
1000.95	3110.86
1001.11	3293.13
1001.27	3190.74
1001.43	3280.85
1001.59	3188.69
1001.75	3223.50
1001.91	3182.54
1002.07	3225.55
1002.23	3119.06
1002.39	3155.92
1002.55	3149.78
1002.71	3028.95
1002.87	3063.76
1003.03	3088.34
1003.19	3133.39
1003.34	3170.26
1003.50	3047.38
1003.66	3211.22
1003.82	3076.05
1003.98	3018.71
1004.14	3043.28
1004.30	3088.34
1004.46	3063.76
1004.62	3104.72
1004.78	3018.71
1004.94	3028.95
1005.09	3086.29
1005.25	3018.71
1005.41	2973.65
1005.57	2987.99
1005.73	2940.88
1005.89	3002.32
1006.05	3108.82
1006.21	2998.23
1006.37	2938.84
1006.52	2906.07
1006.68	2912.21
1006.84	2967.51
1007.00	2897.88
1007.16	2992.08
1007.32	2901.97
1007.48	2891.73
1007.64	2887.64
1007.79	2895.83
1007.95	2840.53
1008.11	3016.66
1008.27	2822.10
1008.43	2811.86
1008.59	2818.00
1008.75	2838.48
1008.91	2899.92
1009.06	2797.53
1009.22	2856.92
1009.38	2811.86
1009.54	2887.64
1009.70	2725.85
1009.86	2803.67
1010.01	2867.16
1010.17	2848.72
1010.33	2928.60
1010.49	2723.80
1010.65	2803.67
1010.81	2762.71
1010.96	2838.48
1011.12	2602.97
1011.28	2627.54
1011.44	2795.48
1011.60	2701.27
1011.76	2770.90
1011.91	2723.80
1012.07	2695.13
1012.23	2699.22
1012.39	2621.40
1012.55	2674.65
1012.71	2676.70
1012.86	2656.22
1013.02	2617.30
1013.18	2770.90
1013.34	2688.98
1013.50	2674.65
1013.65	2709.46
1013.81	2512.86
1013.97	2559.96
1014.13	2635.74
1014.29	2566.10
1014.44	2619.35
1014.60	2617.30
1014.76	2480.09
1014.92	2568.15
1015.07	2594.78
1015.23	2658.26
1015.39	2486.23
1015.55	2547.67
1015.71	2521.05
1015.86	2463.71
1016.02	2482.14
1016.18	2455.51
1016.34	2582.49
1016.49	2609.11
1016.65	2533.34
1016.81	2519.00
1016.97	2492.38
1017.12	2496.47
1017.28	2484.19
1017.44	2400.22
1017.60	2566.10
1017.75	2486.23
1017.91	2430.94
1018.07	2441.18
1018.23	2475.99
1018.38	2332.64
1018.54	2473.95
1018.70	2299.87
1018.86	2404.32
1019.01	2363.36
1019.17	2457.56
1019.33	2535.39
1019.49	2471.90
1019.64	2404.32
1019.80	2367.45
1019.96	2387.93
1020.12	2369.50
1020.27	2342.88
1020.43	2404.32
1020.59	2400.22
1020.74	2412.51
1020.90	2453.47
1021.06	2185.18
1021.22	2428.89
1021.37	2367.45
1021.53	2285.53
1021.69	2334.68
1021.84	2265.05
1022.00	2387.93
1022.16	2238.43
1022.31	2258.91
1022.47	2310.11
1022.63	2371.55
1022.79	2207.71
1022.94	2224.09
1023.10	2377.69
1023.26	2318.30
1023.41	2236.38
1023.57	2279.39
1023.73	2238.43
1023.88	2267.10
1024.04	2263.01
1024.20	2242.53
1024.35	2248.67
1024.51	2250.72
1024.67	2258.91
1024.82	2338.78
1024.98	2183.13
1025.14	2123.74
1025.29	2133.98
1025.45	2275.29
1025.61	2138.08
1025.76	2260.96
1025.92	2273.25
1026.08	2224.09
1026.23	2189.28
1026.39	2230.24
1026.55	2213.85
1026.70	2193.37
1026.86	2138.08
1027.02	2181.09
1027.17	2201.57
1027.33	2306.01
1027.48	2125.79
1027.64	2129.89
1027.80	2117.60
1027.95	2138.08
1028.11	1988.58
1028.27	2299.87
1028.42	2037.73
1028.58	2156.51
1028.73	2121.70
1028.89	1998.82
1029.05	2189.28
1029.20	2164.70
>>>>>End Processed Spectral Data<<<<<
