SpectraSuite Data File
++++++++++++++++++++++++++++++++++++
Date: Fri Jun 02 14:49:30 CEST 2017
User: INFO_000
Dark Spectrum Present: No
Reference Spectrum Present: No
Number of Sampled Component Spectra: 1
Spectrometers: USB4H00879
Integration Time (usec): 80000 (USB4H00879)
Spectra Averaged: 1 (USB4H00879)
Boxcar Smoothing: 0 (USB4H00879)
Correct for Electrical Dark: No (USB4H00879)
Strobe/Lamp Enabled: No (USB4H00879)
Correct for Detector Non-linearity: No (USB4H00879)
Correct for Stray Light: No (USB4H00879)
Number of Pixels in Processed Spectrum: 3648
>>>>>Begin Processed Spectral Data<<<<<
345.13	1290.22
345.34	1290.22
345.56	1290.22
345.78	1345.52
345.99	1290.22
346.21	1724.39
346.42	1683.43
346.64	1728.49
346.86	1705.96
347.07	1712.10
347.29	1730.53
347.50	1679.33
347.72	1703.91
347.94	1757.16
348.15	1568.74
348.37	1624.04
348.59	1751.01
348.80	1642.47
349.02	1679.33
349.23	1902.56
349.45	1806.31
349.67	1882.08
349.88	1806.31
350.10	1916.90
350.31	1896.42
350.53	1810.40
350.75	1951.71
350.96	1802.21
351.18	1822.69
351.39	1828.84
351.61	1826.79
351.82	1910.75
352.04	1978.34
352.26	1791.97
352.47	1982.43
352.69	1968.10
352.90	1783.78
353.12	1880.04
353.34	1875.94
353.55	1888.23
353.77	1789.92
353.98	1841.12
354.20	1834.98
354.41	1886.18
354.63	1970.15
354.85	1968.10
355.06	1820.64
355.28	1802.21
355.49	1931.23
355.71	1855.46
355.92	1888.23
356.14	1912.80
356.35	1828.84
356.57	1859.56
356.79	1869.80
357.00	1902.56
357.22	1949.67
357.43	1839.08
357.65	1998.82
357.86	1906.66
358.08	1884.13
358.29	1933.28
358.51	1994.72
358.72	1990.63
358.94	1918.95
359.16	1986.53
359.37	1943.52
359.59	1968.10
359.80	1990.63
360.02	1955.81
360.23	2047.97
360.45	1992.67
360.66	1935.33
360.88	1859.56
361.09	1886.18
361.31	1912.80
361.52	2031.58
361.74	2035.68
361.95	2107.36
362.17	1908.71
362.38	2037.73
362.60	2035.68
362.81	1978.34
363.03	1935.33
363.24	1941.47
363.46	2076.64
363.67	2039.78
363.89	2011.11
364.10	1988.58
364.32	2027.49
364.53	1949.67
364.75	2009.06
364.96	1980.39
365.18	1986.53
365.39	1974.24
365.61	1994.72
365.82	2084.83
366.04	2009.06
366.25	2013.15
366.47	2136.03
366.68	2015.20
366.90	1955.81
367.11	2076.64
367.33	2088.93
367.54	2017.25
367.76	2078.69
367.97	2152.42
368.19	2070.50
368.40	2080.74
368.62	1968.10
368.83	1964.00
369.05	2109.41
369.26	1992.67
369.48	1974.24
369.69	1972.19
369.91	2084.83
370.12	2090.98
370.33	2052.06
370.55	2011.11
370.76	2090.98
370.98	2166.75
371.19	2037.73
371.41	1978.34
371.62	2023.39
371.84	2043.87
372.05	2197.47
372.27	2082.78
372.48	2041.82
372.69	2086.88
372.91	2168.80
373.12	2193.37
373.34	2086.88
373.55	2117.60
373.77	2162.66
373.98	2068.45
374.20	2158.56
374.41	2293.72
374.62	2138.08
374.84	2121.70
375.05	2111.46
375.27	2162.66
375.48	2203.61
375.70	2099.17
375.91	2181.09
376.12	2424.80
376.34	2158.56
376.55	2181.09
376.77	2183.13
376.98	2107.36
377.19	2072.54
377.41	2209.76
377.62	2269.15
377.84	2187.23
378.05	2312.16
378.27	2183.13
378.48	2314.20
378.69	2359.26
378.91	2267.10
379.12	2281.44
379.34	2162.66
379.55	2303.96
379.76	2254.81
379.98	2222.05
380.19	2250.72
380.41	2275.29
380.62	2254.81
380.83	2256.86
381.05	2203.61
381.26	2400.22
381.47	2211.81
381.69	2289.63
381.90	2478.04
382.12	2299.87
382.33	2263.01
382.54	2273.25
382.76	2318.30
382.97	2308.06
383.19	2256.86
383.40	2342.88
383.61	2252.77
383.83	2275.29
384.04	2301.92
384.25	2342.88
384.47	2308.06
384.68	2346.97
384.89	2226.14
385.11	2211.81
385.32	2400.22
385.54	2267.10
385.75	2410.46
385.96	2432.99
386.18	2439.13
386.39	2359.26
386.60	2371.55
386.82	2418.65
387.03	2404.32
387.24	2519.00
387.46	2473.95
387.67	2389.98
387.88	2562.01
388.10	2441.18
388.31	2535.39
388.52	2516.95
388.74	2568.15
388.95	2449.37
389.16	2541.53
389.38	2592.73
389.59	2519.00
389.80	2652.12
390.02	2555.86
390.23	2717.65
390.44	2592.73
390.66	2508.76
390.87	2605.02
391.08	2527.19
391.30	2707.41
391.51	2619.35
391.72	2674.65
391.94	2609.11
392.15	2629.59
392.36	2621.40
392.58	2549.72
392.79	2676.70
393.00	2717.65
393.22	2793.43
393.43	2766.81
393.64	2772.95
393.85	2770.90
394.07	2613.21
394.28	2746.33
394.49	2799.57
394.71	2764.76
394.92	2854.87
395.13	2682.84
395.35	2699.22
395.56	2703.32
395.77	2779.09
395.98	2785.24
396.20	2811.86
396.41	2854.87
396.62	2899.92
396.84	2652.12
397.05	2908.12
397.26	2828.24
397.47	2967.51
397.69	2811.86
397.90	3022.80
398.11	2985.94
398.32	2875.35
398.54	2981.84
398.75	2891.73
398.96	2877.40
399.18	3002.32
399.39	2856.92
399.60	2944.98
399.81	2940.88
400.03	2944.98
400.24	3131.34
400.45	2967.51
400.66	2889.68
400.88	3022.80
401.09	3166.16
401.30	3090.38
401.51	3076.05
401.73	3203.02
401.94	3182.54
402.15	3065.81
402.36	3155.92
402.58	3125.20
402.79	3074.00
403.00	3125.20
403.21	3196.88
403.43	3295.18
403.64	3327.95
403.85	3112.91
404.06	3268.56
404.27	3112.91
404.49	3219.41
404.70	3153.87
404.91	3250.13
405.12	3258.32
405.34	3207.12
405.55	3323.85
405.76	3133.39
405.97	3223.50
406.19	3321.81
406.40	3319.76
406.61	3289.04
406.82	3286.99
407.03	3237.84
407.25	3309.52
407.46	3368.91
407.67	3332.05
407.88	3477.45
408.09	3258.32
408.31	3276.75
408.52	3383.24
408.73	3366.86
408.94	3323.85
409.15	3387.34
409.37	3370.96
409.58	3430.35
409.79	3553.23
410.00	3442.64
410.21	3368.91
410.43	3375.05
410.64	3366.86
410.85	3493.83
411.06	3467.21
411.27	3534.79
411.48	3536.84
411.70	3551.18
411.91	3622.86
412.12	3590.09
412.33	3659.72
412.54	3594.19
412.76	3760.07
412.97	3710.92
413.18	3532.75
413.39	3583.95
413.60	3694.54
413.81	3749.83
414.03	3600.33
414.24	3526.60
414.45	3751.88
414.66	3553.23
414.87	3555.27
415.08	3700.68
415.30	3710.92
415.51	3786.69
415.72	3678.15
415.93	3721.16
416.14	3780.55
416.35	3708.87
416.56	3794.89
416.78	3776.45
416.99	3848.13
417.20	3784.65
417.41	3839.94
417.62	3803.08
417.83	4014.02
418.04	3917.76
418.26	3803.08
418.47	3770.31
418.68	3946.44
418.89	3878.85
419.10	4165.57
419.31	3919.81
419.52	4116.42
419.73	4075.46
419.95	4132.80
420.16	3885.00
420.37	4034.50
420.58	4034.50
420.79	3860.42
421.00	4050.88
421.21	4175.81
421.42	3956.68
421.63	4071.36
421.85	4100.03
422.06	4149.18
422.27	4136.90
422.48	4097.99
422.69	4229.06
422.90	4173.76
423.11	4206.53
423.32	4306.88
423.53	4243.39
423.75	4341.69
423.96	4390.84
424.17	4343.74
424.38	4425.66
424.59	4339.65
424.80	4652.98
425.01	4407.23
425.22	4345.79
425.43	4456.38
425.64	4689.85
425.85	4556.73
426.06	4501.44
426.28	4536.25
426.49	4364.22
426.70	4571.07
426.91	4499.39
427.12	4698.04
427.33	4577.21
427.54	4612.03
427.75	4661.18
427.96	4939.70
428.17	4718.52
428.38	4698.04
428.59	4829.11
428.80	4708.28
429.01	4878.26
429.23	4761.53
429.44	5001.14
429.65	4921.27
429.86	4908.98
430.07	4761.53
430.28	4759.48
430.49	4999.09
430.70	5072.82
430.91	5095.35
431.12	4966.32
431.33	5070.77
431.54	5124.02
431.75	5058.48
431.96	5076.91
432.17	5083.06
432.38	5060.53
432.59	5343.15
432.80	5212.08
433.01	5320.62
433.22	5257.14
433.43	5236.66
433.64	5351.34
433.85	5345.20
434.06	5461.93
434.27	5332.91
434.49	5279.66
434.70	5478.32
434.91	5490.60
435.12	5517.23
435.33	5584.81
435.54	5369.77
435.75	5269.42
435.96	5380.01
436.17	5392.30
436.38	5674.92
436.59	5468.08
436.80	5513.13
437.01	5889.96
437.22	5775.27
437.43	5607.34
437.64	5457.84
437.85	5674.92
438.06	5687.21
438.27	5722.02
438.48	5754.79
438.69	5863.33
438.90	5752.74
439.11	5762.98
439.32	5820.33
439.53	5691.31
439.74	5879.72
439.95	5939.11
440.16	6043.56
440.37	5861.29
440.57	5789.61
440.78	5898.15
440.99	5924.77
441.20	6096.80
441.41	5910.44
441.62	6057.89
441.83	5851.05
442.04	6148.00
442.25	5992.36
442.46	5992.36
442.67	6045.60
442.88	6557.60
443.09	5978.02
443.30	6113.19
443.51	6018.98
443.72	6354.85
443.93	6197.15
444.14	6358.94
444.35	6197.15
444.56	6369.18
444.77	6252.45
444.98	6299.55
445.19	6422.43
445.40	6365.09
445.61	6408.09
445.81	6373.28
446.02	6371.23
446.23	6393.76
446.44	6326.18
446.65	6530.97
446.86	6457.25
447.07	6451.10
447.28	6782.87
447.49	6655.90
447.70	6504.35
447.91	6549.40
448.12	6590.36
448.33	6819.74
448.54	6637.47
448.74	6373.28
448.95	6539.16
449.16	6541.21
449.37	6887.32
449.58	6770.58
449.79	6961.05
450.00	6680.47
450.21	6848.41
450.42	7020.44
450.63	7204.75
450.84	6891.41
451.05	6963.09
451.25	7143.32
451.46	6864.79
451.67	7077.78
451.88	7069.59
452.09	7137.17
452.30	6963.09
452.51	7106.45
452.72	7249.81
452.93	7337.87
453.13	7133.08
453.34	7077.78
453.55	7260.05
453.76	7243.67
453.97	7565.20
454.18	7432.08
454.39	7475.09
454.60	7290.77
454.81	7333.78
455.01	7634.83
455.22	7284.62
455.43	7475.09
455.64	7737.23
455.85	7942.02
456.06	7802.76
456.27	7939.97
456.48	7587.72
456.68	7804.81
456.89	7778.19
457.10	7769.99
457.31	7907.21
457.52	7896.97
457.73	7978.89
457.94	8261.51
458.14	7845.77
458.35	8302.47
458.56	8083.33
458.77	7976.84
458.98	8165.25
459.19	8071.04
459.39	8183.68
459.60	8286.08
459.81	8208.26
460.02	8441.73
460.23	8380.29
460.44	8806.27
460.65	8687.48
460.85	8689.53
461.06	8613.76
461.27	8482.69
461.48	8978.30
461.69	8861.56
461.89	8335.23
462.10	8929.14
462.31	8519.55
462.52	8718.20
462.73	8832.89
462.94	9217.91
463.14	9181.04
463.35	9064.31
463.56	9254.77
463.77	9336.69
463.98	9025.40
464.18	9199.48
464.39	9459.57
464.60	9584.49
464.81	9693.04
465.02	9391.98
465.23	9564.01
465.43	9521.01
465.64	9860.97
465.85	9537.39
466.06	9621.36
466.27	9899.88
466.47	9826.15
466.68	10092.39
466.89	9977.70
467.10	10002.28
467.30	9887.59
467.51	10155.88
467.72	10301.28
467.93	10139.49
468.14	10172.26
468.34	10520.42
468.55	10555.23
468.76	10514.27
468.97	10372.96
469.17	10569.57
469.38	10682.20
469.59	10653.53
469.80	10542.94
470.01	10811.23
470.21	10690.40
470.42	10979.16
470.63	11149.14
470.84	10952.54
471.04	11085.65
471.25	11288.40
471.46	11239.25
471.67	11599.70
471.87	11370.32
472.08	11521.87
472.29	11630.41
472.50	11366.23
472.70	11618.13
472.91	11800.40
473.12	11788.11
473.33	11798.35
473.53	12074.82
473.74	12029.77
473.95	12216.13
474.16	12367.68
474.36	12132.17
474.57	12468.03
474.78	12699.45
474.99	12676.93
475.19	12490.56
475.40	12869.44
475.61	13033.27
475.81	13010.75
476.02	13270.84
476.23	12971.83
476.44	12965.69
476.64	13270.84
476.85	13395.76
477.06	13508.40
477.27	13731.63
477.47	13639.47
477.68	13645.62
477.89	13963.05
478.09	13889.32
478.30	14036.78
478.51	13942.57
478.71	14225.19
478.92	14266.15
479.13	14348.07
479.34	14503.71
479.54	14446.37
479.75	14526.24
479.96	14663.46
480.16	14618.40
480.37	14690.08
480.58	15175.45
480.78	15181.59
480.99	14921.50
481.20	15376.15
481.41	15378.20
481.61	15390.49
481.82	15490.84
482.03	15386.39
482.23	15484.69
482.44	15998.73
482.65	16041.74
482.85	15961.87
483.06	16135.95
483.27	16129.80
483.47	16045.84
483.68	16389.89
483.89	16453.38
484.09	16430.85
484.30	16588.55
484.51	16854.78
484.71	16676.61
484.92	17028.86
485.13	17100.54
485.33	17086.20
485.54	17178.36
485.75	17514.23
485.95	17395.45
486.16	17356.54
486.37	17385.21
486.57	17503.99
486.78	17534.71
486.98	17884.91
487.19	17899.25
487.40	18208.49
487.60	17925.87
487.81	18069.23
488.02	17831.66
488.22	18108.14
488.43	18394.86
488.64	18370.28
488.84	18654.95
489.05	18597.60
489.25	18495.21
489.46	18956.00
489.67	19052.25
489.87	19117.79
490.08	19257.05
490.29	19029.73
490.49	19449.56
490.70	19314.39
490.90	19652.31
491.11	19341.02
491.32	19683.03
491.52	19584.73
491.73	19908.30
491.94	19967.70
492.14	19711.70
492.35	20133.58
492.55	20231.88
492.76	19957.46
492.97	20156.11
493.17	20295.37
493.38	20588.23
493.58	20494.02
493.79	20655.81
494.00	20735.68
494.20	20952.77
494.41	20928.19
494.61	20952.77
494.82	20989.63
495.02	20958.91
495.23	21206.72
495.44	21397.18
495.64	21423.80
495.85	21368.51
496.05	21714.61
496.26	21515.96
496.47	21755.57
496.67	21311.16
496.88	22044.34
497.08	21876.40
497.29	21792.44
497.49	22195.89
497.70	22103.73
497.91	22222.51
498.11	22245.04
498.32	22535.85
498.52	22576.81
498.73	22783.65
498.93	22503.08
499.14	22341.29
499.34	22701.73
499.55	23258.78
499.76	22838.95
499.96	22826.66
500.17	22912.67
500.37	23228.06
500.58	22976.16
500.78	23099.04
500.99	23180.96
501.19	23488.15
501.40	23398.04
501.60	23191.20
501.81	23613.08
502.02	23670.42
502.22	23482.01
502.43	23541.40
502.63	24014.48
502.84	23705.24
503.04	23977.62
503.25	23930.51
503.45	23924.37
503.66	24405.64
503.86	24350.35
504.07	24628.87
504.27	24262.29
504.48	24651.40
504.68	24323.72
504.89	24729.22
505.09	24776.33
505.30	24835.72
505.50	24739.46
505.71	24823.43
505.91	25081.47
506.12	25095.81
506.32	24772.23
506.53	24925.83
506.73	24972.93
506.94	25394.81
507.14	25312.89
507.35	25339.52
507.55	25214.59
507.76	25405.05
507.96	25394.81
508.17	25441.92
508.37	25382.52
508.58	25636.47
508.78	25837.17
508.99	25802.36
509.19	26175.09
509.40	25706.10
509.60	25681.53
509.81	25767.54
510.01	26023.54
510.22	25890.42
510.42	25990.77
510.63	26334.83
510.83	26130.03
511.04	26211.95
511.24	26447.47
511.44	26273.39
511.65	26265.20
511.85	26345.07
512.06	26596.97
512.26	26345.07
512.47	26893.93
512.67	26306.16
512.88	26812.01
513.08	26664.55
513.29	26758.76
513.49	26781.29
513.69	26844.77
513.90	26975.84
514.10	26932.84
514.31	26799.72
514.51	27225.70
514.72	27145.83
514.92	27352.67
515.13	27217.50
515.33	27364.96
515.53	27350.62
515.74	27192.93
515.94	27385.44
516.15	27397.73
516.35	27389.53
516.56	27653.72
516.76	27481.69
516.96	27575.90
517.17	28048.98
517.37	27924.05
517.58	27754.07
517.78	27946.58
517.99	28311.12
518.19	28165.71
518.39	28239.44
518.60	28399.18
518.80	28513.87
519.01	28632.65
519.21	28421.71
519.41	28520.01
519.62	28444.24
519.82	28829.26
520.03	28737.10
520.23	28945.99
520.43	28741.19
520.64	29271.62
520.84	28876.36
521.05	28638.80
521.25	29118.02
521.45	29361.73
521.66	29386.30
521.86	29038.15
522.07	29406.78
522.27	29765.18
522.47	29333.06
522.68	29824.57
522.88	29625.92
523.08	29871.67
523.29	30006.84
523.49	29931.06
523.70	29955.64
523.90	30250.55
524.10	30271.03
524.31	29931.06
524.51	29959.73
524.71	30858.79
524.92	30705.20
525.12	30531.12
525.33	30680.62
525.53	30848.55
525.73	30889.51
525.94	31092.26
526.14	30774.83
526.34	31047.21
526.55	31350.31
526.75	30942.76
526.95	31266.34
527.16	31282.72
527.36	31366.69
527.56	31735.32
527.77	31938.07
527.97	31503.90
528.17	32005.66
528.38	32179.73
528.58	31905.31
528.78	32318.99
528.99	32157.21
529.19	32470.54
529.39	32036.38
529.60	32558.61
529.80	32574.99
530.00	32558.61
530.21	32824.84
530.41	33148.42
530.61	32951.82
530.82	32718.35
531.02	32824.84
531.22	33150.47
531.43	33068.55
531.63	33269.25
531.83	33459.71
532.04	33740.29
532.24	33549.82
532.44	34174.45
532.64	33971.71
532.85	34043.38
533.05	34108.92
533.25	34137.59
533.46	33748.48
533.66	34448.88
533.86	33938.94
534.07	34686.45
534.27	34528.75
534.47	34835.95
534.67	34479.60
534.88	34627.06
535.08	34840.04
535.28	35255.78
535.49	34940.39
535.69	35417.57
535.89	35487.20
536.09	35360.23
536.30	35468.77
536.50	35513.83
536.70	36128.22
536.91	35669.47
537.11	36066.78
537.31	36036.06
537.51	36285.91
537.72	36105.69
537.92	36822.48
538.12	36607.44
538.32	36519.38
538.53	36525.52
538.73	36363.73
538.93	36896.20
539.13	36498.90
539.34	36685.26
539.54	36558.29
539.74	37066.19
539.94	37189.06
540.15	36832.72
540.35	37615.04
540.55	37111.24
540.75	37092.81
540.96	37451.20
541.16	37723.58
541.36	37545.41
541.56	37561.79
541.77	37584.32
541.97	37879.23
542.17	38051.26
542.37	38127.03
542.58	38002.11
542.78	38055.36
542.98	38260.15
543.18	38239.67
543.38	38374.84
543.59	38788.53
543.79	38454.71
543.99	38622.64
544.19	38716.85
544.40	38505.91
544.60	38557.11
544.80	38706.61
545.00	39056.81
545.20	39208.36
545.41	39028.14
545.61	39275.94
545.81	39548.32
546.01	39318.95
546.21	39341.48
546.42	38862.26
546.62	39624.10
546.82	39136.68
547.02	39382.44
547.22	39714.21
547.43	39191.98
547.63	39656.87
547.83	39777.70
548.03	39427.49
548.23	39663.01
548.44	39589.28
548.64	39998.88
548.84	39959.97
549.04	40150.43
549.24	40148.38
549.45	40443.29
549.65	40162.72
549.85	40091.04
550.05	40650.13
550.25	40205.72
550.45	40852.88
550.66	40514.97
550.86	40476.05
551.06	41170.32
551.26	40801.68
551.46	40682.90
551.66	41190.80
551.87	40689.04
552.07	40832.40
552.27	40670.61
552.47	41039.25
552.67	41487.75
552.87	41100.68
553.07	40654.23
553.28	40924.56
553.48	41121.16
553.68	41151.88
553.88	41536.90
554.08	41749.89
554.28	41491.85
554.48	40801.68
554.69	41622.92
554.89	41416.07
555.09	41665.92
555.29	41768.32
555.49	41557.38
555.69	41624.96
555.89	42073.47
556.10	42020.22
556.30	41614.72
556.50	41981.31
556.70	41817.47
556.90	41926.02
557.10	42079.61
557.30	42061.18
557.50	42048.89
557.70	42491.26
557.91	42337.66
558.11	42165.63
558.31	42466.68
558.51	42251.64
558.71	42642.81
558.91	42253.69
559.11	42341.75
559.31	42157.44
559.51	42526.07
559.72	42579.32
559.92	42763.64
560.12	42554.74
560.32	42620.28
560.52	42419.58
560.72	42737.01
560.92	42622.33
561.12	42712.44
561.32	43838.82
561.52	42818.93
561.72	43169.13
561.93	42464.63
562.13	42714.48
562.33	42567.03
562.53	43529.58
562.73	43009.39
562.93	43103.60
563.13	43318.64
563.33	43070.83
563.53	43320.68
563.73	42687.86
563.93	43097.45
564.13	43464.04
564.33	43296.11
564.53	43378.03
564.74	43570.54
564.94	43380.07
565.14	43369.83
565.34	43472.23
565.54	43269.48
565.74	43545.96
565.94	43611.49
566.14	43464.04
566.34	43185.52
566.54	43900.26
566.74	43550.06
566.94	43865.44
567.14	44115.29
567.34	43763.04
567.54	43758.95
567.74	43670.89
567.94	43793.76
568.14	44086.62
568.34	44213.60
568.54	43548.01
568.74	43988.32
568.94	44326.24
569.14	44328.28
569.34	44021.09
569.54	44158.30
569.75	43865.44
569.95	44332.38
570.15	44643.67
570.35	44178.78
570.55	44131.68
570.75	44496.22
570.95	44725.59
571.15	44645.72
571.35	44305.76
571.55	44508.50
571.75	44625.24
571.95	44582.23
572.15	44799.32
572.35	44715.35
572.55	44498.26
572.75	44823.89
572.95	44989.78
573.15	44842.32
573.35	44721.49
573.55	44606.81
573.75	44698.97
573.95	45292.88
574.15	44944.72
574.35	45020.50
574.55	45204.81
574.75	44799.32
574.95	44991.83
575.15	44903.76
575.34	45008.21
575.54	45225.29
575.74	45272.40
575.94	45489.48
576.14	45335.88
576.34	45860.16
576.54	45213.01
576.74	45768.01
576.94	45888.84
577.14	45831.49
577.34	46177.60
577.54	45542.73
577.74	45581.64
577.94	45870.40
578.14	46021.95
578.34	45999.43
578.54	45688.13
578.74	45876.55
578.94	46404.92
579.14	46300.48
579.34	46007.62
579.54	46363.96
579.74	46114.11
579.94	46366.01
580.13	46527.80
580.33	46568.76
580.53	46773.56
580.73	46476.60
580.93	46404.92
581.13	46157.12
581.33	46773.56
581.53	46791.99
581.73	46812.47
581.93	47064.37
582.13	46818.61
582.33	46409.02
582.53	46857.52
582.73	47398.19
582.92	47011.12
583.12	47529.26
583.32	46806.33
583.52	46837.05
583.72	47004.98
583.92	47109.43
584.12	47375.66
584.32	48020.77
584.52	47508.78
584.72	47815.97
584.92	47572.27
585.11	47858.98
585.31	47650.09
585.51	47703.34
585.71	47762.73
585.91	47856.93
586.11	47586.60
586.31	47621.42
586.51	48047.39
586.71	48057.63
586.91	48102.69
587.10	48495.90
587.30	48280.86
587.50	48327.97
587.70	48289.06
587.90	48258.34
588.10	48327.97
588.30	48389.41
588.50	48837.91
588.69	48686.36
588.89	48620.83
589.09	47973.67
589.29	48563.48
589.49	48807.19
589.69	48526.62
589.89	49081.62
590.08	48999.70
590.28	48977.17
590.48	48907.54
590.68	48659.74
590.88	48708.89
591.08	48901.40
591.28	48704.79
591.47	49585.42
591.67	49120.53
591.87	49566.99
592.07	49345.81
592.27	49167.63
592.47	49380.62
592.67	49607.95
592.86	49118.48
593.06	49378.57
593.26	49751.30
593.46	49319.18
593.66	49442.06
593.86	49972.49
594.05	49724.68
594.25	49995.01
594.45	49657.10
594.65	49788.17
594.85	49632.52
595.05	49909.00
595.24	50197.76
595.44	49745.16
595.64	49814.79
595.84	50029.83
596.04	50150.66
596.23	50240.77
596.43	50468.09
596.63	50283.78
596.83	50050.31
597.03	50826.49
597.22	50674.94
597.42	50889.98
597.62	50586.88
597.82	50717.95
598.02	50476.29
598.21	50582.78
598.41	50666.75
598.61	50795.77
598.81	51139.83
599.01	51418.35
599.20	50920.70
599.40	51225.84
599.60	51418.35
599.80	51496.17
600.00	51324.14
600.19	51664.11
600.39	51248.37
600.59	51774.70
600.79	51760.36
600.98	51688.68
601.18	51434.74
601.38	51485.93
601.58	51852.52
601.78	51879.14
601.97	51916.01
602.17	52165.86
602.37	52067.56
602.57	52073.70
602.76	52008.17
602.96	52098.28
603.16	52577.50
603.36	51899.62
603.55	52554.97
603.75	52301.03
603.95	52163.81
604.15	52729.05
604.34	52446.43
604.54	52638.94
604.74	52327.65
604.94	52702.43
605.13	52550.88
605.33	52987.10
605.53	52436.19
605.73	52980.95
605.92	52710.62
606.12	53044.44
606.32	53116.12
606.52	53218.52
606.71	53091.54
606.91	53193.94
607.11	53200.08
607.30	53419.22
607.50	53095.64
607.70	53460.18
607.90	52806.87
608.09	53435.60
608.29	53370.07
608.49	53710.03
608.68	53425.36
608.88	53697.74
609.08	53576.91
609.28	53826.76
609.47	53621.97
609.67	54262.98
609.87	53658.83
610.06	54039.75
610.26	54093.00
610.46	54179.01
610.66	53804.24
610.85	54082.76
611.05	53867.72
611.25	53853.39
611.44	54017.22
611.64	54422.72
611.84	54068.42
612.03	54068.42
612.23	54408.39
612.43	54351.04
612.62	54097.09
612.82	54363.33
613.02	54678.72
613.21	54174.92
613.41	54113.48
613.61	54551.74
613.80	53970.12
614.00	54545.60
614.20	54484.16
614.39	54262.98
614.59	54811.84
614.79	54553.79
614.98	54195.40
615.18	54330.56
615.38	54463.68
615.57	54277.32
615.77	54568.13
615.97	54899.90
616.16	54574.27
616.36	54457.54
616.56	54645.95
616.75	54482.11
616.95	54443.20
617.15	54602.94
617.34	54787.26
617.54	54402.24
617.74	54936.76
617.93	54719.68
618.13	54219.97
618.32	55084.22
618.52	54686.91
618.72	54770.88
618.91	54654.14
619.11	54383.81
619.31	54697.15
619.50	54322.37
619.70	54353.09
619.90	54834.36
620.09	54947.00
620.29	54693.05
620.48	54793.40
620.68	54838.46
620.88	54486.21
621.07	54947.00
621.27	55213.24
621.46	54598.85
621.66	54897.85
621.86	54619.33
622.05	54414.53
622.25	54985.91
622.44	54152.39
622.64	54314.18
622.84	54701.25
623.03	54826.17
623.23	54852.80
623.42	54684.86
623.62	54701.25
623.82	54729.92
624.01	55045.30
624.21	54990.01
624.40	54762.68
624.60	54742.20
624.80	54564.03
624.99	54824.12
625.19	53974.22
625.38	54844.60
625.58	54674.62
625.77	54752.44
625.97	55010.49
626.17	54484.16
626.36	54635.71
626.56	54987.96
626.75	54678.72
626.95	55389.36
627.14	54785.21
627.34	55342.26
627.54	54844.60
627.73	55051.45
627.93	54961.34
628.12	54572.22
628.32	54760.64
628.51	54662.33
628.71	55235.77
628.90	54863.03
629.10	54746.30
629.30	55059.64
629.49	55194.81
629.69	54871.23
629.88	55203.00
630.08	55233.72
630.27	55256.24
630.47	54492.35
630.66	54916.28
630.86	55155.89
631.05	54705.34
631.25	55434.42
631.44	54504.64
631.64	55301.30
631.84	54975.67
632.03	55241.91
632.23	55039.16
632.42	55375.03
632.62	55366.84
632.81	54650.05
633.01	55168.18
633.20	54936.76
633.40	55338.16
633.59	55170.23
633.79	54678.72
633.98	55149.75
634.18	55262.39
634.37	55078.07
634.57	55145.65
634.76	55010.49
634.96	55006.39
635.15	55080.12
635.35	55262.39
635.54	55444.66
635.74	55303.35
635.93	54953.15
636.13	55502.00
636.32	55309.49
636.52	54764.73
636.71	55194.81
636.91	55553.20
637.10	55370.93
637.30	55354.55
637.49	55350.45
637.69	55436.47
637.88	55870.64
638.08	55219.38
638.27	55239.86
638.46	55336.12
638.66	55024.82
638.85	55696.56
639.05	55248.05
639.24	55563.44
639.44	55164.09
639.63	55483.57
639.83	55506.10
640.02	55653.55
640.22	55137.46
640.41	55413.94
640.61	54912.19
640.80	55461.04
640.99	55379.12
641.19	55579.82
641.38	55198.90
641.58	55438.51
641.77	55229.62
641.97	55547.06
642.16	55123.13
642.36	55551.15
642.55	56138.92
642.74	55471.28
642.94	55811.24
643.13	55340.21
643.33	55473.33
643.52	55622.83
643.72	55860.40
643.91	55698.61
644.10	55727.28
644.30	55669.93
644.49	56005.80
644.69	55739.57
644.88	55588.02
645.08	55352.50
645.27	55399.60
645.46	55483.57
645.66	55784.62
645.85	55119.03
646.05	56028.33
646.24	55985.32
646.43	55663.79
646.63	56030.38
646.82	56147.11
647.02	55884.97
647.21	55870.64
647.40	55565.49
647.60	55989.42
647.79	55925.93
647.99	55751.85
648.18	55545.01
648.37	56456.35
648.57	55989.42
648.76	55596.21
648.96	56124.58
649.15	56132.78
649.34	56155.30
649.54	55999.66
649.73	55346.36
649.92	55745.71
650.12	55530.67
650.31	56343.72
650.51	56007.85
650.70	56505.51
650.89	55780.52
651.09	56482.98
651.28	56286.37
651.47	56308.90
651.67	56165.54
651.86	56542.37
652.06	55389.36
652.25	56102.06
652.44	56507.55
652.64	55956.65
652.83	55921.83
653.02	55743.66
653.22	56038.57
653.41	55637.17
653.60	55819.44
653.80	56110.25
653.99	56147.11
654.18	56020.14
654.38	55858.35
654.57	55958.70
654.76	56073.38
654.96	55833.77
655.15	55880.88
655.34	56388.77
655.54	55733.42
655.73	55798.96
655.92	56093.86
656.12	55620.78
656.31	55817.39
656.50	55772.33
656.70	55694.51
656.89	55854.25
657.08	55780.52
657.28	56247.46
657.47	55755.95
657.66	56097.96
657.86	55624.88
658.05	56190.12
658.24	56267.94
658.43	55588.02
658.63	56173.73
658.82	56235.17
659.01	56358.05
659.21	56036.52
659.40	56218.79
659.59	55868.59
659.79	56220.84
659.98	56585.38
660.17	56442.02
660.36	55940.27
660.56	55997.61
660.75	56255.65
660.94	56186.02
661.14	56032.42
661.33	55962.79
661.52	55563.44
661.71	56282.28
661.91	55714.99
662.10	55622.83
662.29	56222.89
662.49	56276.13
662.68	56304.80
662.87	55991.47
663.06	56048.81
663.26	56140.97
663.45	56439.97
663.64	55719.09
663.83	56530.08
664.03	56069.29
664.22	56124.58
664.41	56097.96
664.60	55952.55
664.80	56439.97
664.99	56177.83
665.18	55960.75
665.37	56401.06
665.57	56128.68
665.76	56020.14
665.95	55778.48
666.14	55995.56
666.34	55901.36
666.53	56112.30
666.72	55995.56
666.91	55801.00
667.11	55626.93
667.30	55911.59
667.49	55717.04
667.68	55927.98
667.87	55665.84
668.07	55997.61
668.26	55854.25
668.45	56349.86
668.64	55483.57
668.84	56323.24
669.03	55999.66
669.22	55872.68
669.41	56380.58
669.60	56229.03
669.80	55461.04
669.99	56054.95
670.18	56134.82
670.37	55772.33
670.57	56102.06
670.76	56079.53
670.95	55989.42
671.14	55827.63
671.33	55674.03
671.53	56321.19
671.72	55874.73
671.91	56214.69
672.10	55884.97
672.29	56114.34
672.48	55663.79
672.68	56038.57
672.87	55983.27
673.06	55717.04
673.25	55616.69
673.44	55696.56
673.64	55549.10
673.83	56050.86
674.02	55938.22
674.21	55649.45
674.40	55657.65
674.59	54981.82
674.79	55147.70
674.98	55479.47
675.17	55749.81
675.36	55155.89
675.55	55993.51
675.74	55469.23
675.94	55545.01
676.13	55737.52
676.32	55698.61
676.51	55850.16
676.70	55626.93
676.89	55450.80
677.08	55592.11
677.28	55217.33
677.47	56005.80
677.66	55694.51
677.85	55559.34
678.04	55872.68
678.23	56083.62
678.42	55807.15
678.62	55323.83
678.81	56100.01
679.00	55256.24
679.19	55798.96
679.38	55678.13
679.57	55295.16
679.76	55559.34
679.96	56081.58
680.15	55342.26
680.34	55289.01
680.53	55682.22
680.72	55927.98
680.91	55708.85
681.10	55203.00
681.29	55573.68
681.48	55342.26
681.68	55219.38
681.87	55778.48
682.06	55465.14
682.25	54979.77
682.44	55076.02
682.63	55407.79
682.82	55174.33
683.01	54987.96
683.20	55035.06
683.39	55192.76
683.59	54482.11
683.78	54658.24
683.97	55082.17
684.16	54955.19
684.35	55020.73
684.54	55157.94
684.73	55018.68
684.92	54955.19
685.11	54779.07
685.30	54672.57
685.49	55028.92
685.69	54736.06
685.88	55162.04
686.07	54981.82
686.26	55137.46
686.45	54983.86
686.64	55022.78
686.83	54748.35
687.02	54926.52
687.21	55065.78
687.40	54828.22
687.59	54871.23
687.78	54731.96
687.97	55096.50
688.16	55047.35
688.35	54521.02
688.54	54834.36
688.74	54987.96
688.93	54793.40
689.12	54840.51
689.31	54834.36
689.50	55162.04
689.69	54459.58
689.88	54310.08
690.07	54682.81
690.26	54414.53
690.45	55375.03
690.64	54631.61
690.83	54498.50
691.02	54494.40
691.21	54185.16
691.40	54285.51
691.59	54213.83
691.78	54600.89
691.97	54750.40
692.16	54252.74
692.35	54701.25
692.54	54095.05
692.73	54107.33
692.92	54367.43
693.11	54588.61
693.30	54260.93
693.49	54908.09
693.68	54582.46
693.87	54590.66
694.06	54047.94
694.25	53753.04
694.44	54441.15
694.63	53984.46
694.82	54246.60
695.01	53906.63
695.20	53884.11
695.39	54019.27
695.58	53925.07
695.77	54113.48
695.96	54019.27
696.15	54535.36
696.34	54029.51
696.53	53806.28
696.72	54260.93
696.91	53802.19
697.10	54516.93
697.29	53671.12
697.48	53961.93
697.67	53765.32
697.86	53730.51
698.05	53826.76
698.24	53908.68
698.43	53505.23
698.62	54021.32
698.81	53451.98
699.00	54244.55
699.19	53263.57
699.38	53908.68
699.57	53560.53
699.76	54072.52
699.95	54093.00
700.14	53775.56
700.32	53667.02
700.51	53564.62
700.70	54213.83
700.89	53613.77
701.08	53832.91
701.27	53679.31
701.46	53785.80
701.65	53263.57
701.84	53372.11
702.03	53320.91
702.22	53296.34
702.41	53193.94
702.60	53507.28
702.79	53535.95
702.98	53365.97
703.17	53832.91
703.35	53386.45
703.54	53396.69
703.73	53138.65
703.92	52907.22
704.11	52944.09
704.30	53064.92
704.49	53081.30
704.68	53023.96
704.87	53071.06
705.06	53304.53
705.25	52939.99
705.43	53159.12
705.62	53089.49
705.81	53089.49
706.00	53122.26
706.19	52876.51
706.38	52761.82
706.57	52569.31
706.76	52739.29
706.95	53042.39
707.14	52585.69
707.32	52931.80
707.51	52688.09
707.70	52589.79
707.89	52528.35
708.08	53247.19
708.27	52919.51
708.46	53079.25
708.65	52643.04
708.84	52964.57
709.02	52712.67
709.21	52655.32
709.40	52626.65
709.59	52485.34
709.78	51883.24
709.97	52538.59
710.16	52600.03
710.34	52583.65
710.53	52876.51
710.72	52026.60
710.91	52514.01
711.10	52632.80
711.29	52747.48
711.48	52608.22
711.66	52370.66
711.85	52368.61
712.04	52217.06
712.23	52147.43
712.42	52024.55
712.61	52169.96
712.80	52335.84
712.98	52229.35
713.17	51922.15
713.36	51999.97
713.55	51873.00
713.74	52192.48
713.93	52151.52
714.11	52360.42
714.30	51772.65
714.49	51856.62
714.68	52368.61
714.87	51786.99
715.06	51866.86
715.24	51737.83
715.43	51918.06
715.62	52061.41
715.81	51279.09
716.00	52143.33
716.18	51514.61
716.37	51391.73
716.56	51117.30
716.75	51881.19
716.94	51657.96
717.12	51557.61
717.31	51559.66
717.50	51201.27
717.69	51356.91
717.88	51229.94
718.06	51602.67
718.25	51627.24
718.44	51082.48
718.63	51322.10
718.82	51414.26
719.00	51131.64
719.19	51035.38
719.38	51492.08
719.57	50685.18
719.76	50601.21
719.94	50722.04
720.13	51084.53
720.32	50337.02
720.51	50406.65
720.69	50623.74
720.88	50459.90
721.07	50394.37
721.26	50130.18
721.44	49911.05
721.63	50287.87
721.82	49970.44
722.01	50162.95
722.20	50361.60
722.38	50087.17
722.57	49995.01
722.76	50242.82
722.95	50095.36
723.13	49861.90
723.32	50025.73
723.51	49435.92
723.70	49298.70
723.88	49761.54
724.07	49847.56
724.26	49708.30
724.44	49515.79
724.63	49958.15
724.82	50212.10
725.01	49526.03
725.19	49521.93
725.38	49089.81
725.57	49220.88
725.76	49282.32
725.94	49274.13
726.13	49372.43
726.32	48934.17
726.51	48991.51
726.69	49374.48
726.88	49050.90
727.07	49206.55
727.25	49100.05
727.44	49245.46
727.63	49055.00
727.82	49378.57
728.00	49034.52
728.19	48741.66
728.38	49190.16
728.56	48549.15
728.75	49399.05
728.94	49003.80
729.12	49157.39
729.31	49190.16
729.50	48940.31
729.69	49464.59
729.87	48729.37
730.06	48747.80
730.25	48762.14
730.43	49114.39
730.62	48985.36
730.81	48876.82
730.99	48860.44
731.18	48694.55
731.37	49050.90
731.55	49173.78
731.74	48942.36
731.93	49444.11
732.11	48889.11
732.30	48997.65
732.49	48837.91
732.67	48860.44
732.86	48708.89
733.05	49329.42
733.23	48897.30
733.42	48801.05
733.61	48741.66
733.79	49046.80
733.98	48895.25
734.17	48794.90
734.35	48698.65
734.54	48784.66
734.73	48764.18
734.91	48407.84
735.10	48563.48
735.29	49200.40
735.47	48500.00
735.66	48493.85
735.84	49022.23
736.03	48137.51
736.22	48938.26
736.40	48456.99
736.59	48618.78
736.78	48250.14
736.96	48409.89
737.15	48274.72
737.33	48106.79
737.52	48137.51
737.71	47828.26
737.89	48018.72
738.08	47738.15
738.27	47686.95
738.45	48655.64
738.64	48248.10
738.82	48217.38
739.01	47934.76
739.20	48045.35
739.38	47756.58
739.57	48188.70
739.75	48231.71
739.94	47705.38
740.13	47820.07
740.31	47535.40
740.50	47889.70
740.68	47346.99
740.87	47822.12
741.06	48119.07
741.24	47559.98
741.43	47027.51
741.61	47562.03
741.80	47766.82
741.99	47224.11
742.17	47551.79
742.36	47250.74
742.54	47060.27
742.73	47426.86
742.91	47193.39
743.10	47355.18
743.29	47652.14
743.47	47658.28
743.66	47555.88
743.84	47080.75
744.03	47396.14
744.21	47195.44
744.40	47545.64
744.59	47109.43
744.77	46789.94
744.96	47338.80
745.14	47164.72
745.33	47469.87
745.51	47629.61
745.70	46998.83
745.88	47131.95
746.07	47002.93
746.26	46935.35
746.44	46888.24
746.63	46810.42
746.81	47056.18
747.00	46601.53
747.18	47066.42
747.37	46886.20
747.55	46812.47
747.74	46787.89
747.92	46275.90
748.11	46781.75
748.29	46685.50
748.48	46583.10
748.66	46800.18
748.85	46249.28
749.03	46439.74
749.22	46556.47
749.41	46404.92
749.59	46566.71
749.78	46077.25
749.96	45880.64
750.15	46118.21
750.33	45888.84
750.52	46058.82
750.70	45997.38
750.89	45819.20
751.07	45747.53
751.26	46097.73
751.44	45610.31
751.63	45641.03
751.81	45569.35
752.00	45557.06
752.18	45643.08
752.37	45546.82
752.55	45501.77
752.74	45335.88
752.92	45600.07
753.10	45401.42
753.29	45172.05
753.47	45276.49
753.66	45049.17
753.84	45360.46
754.03	45245.77
754.21	45184.33
754.40	45552.97
754.58	45213.01
754.77	44766.55
754.95	44698.97
755.14	45022.54
755.32	45006.16
755.51	44639.57
755.69	44619.10
755.88	44858.71
756.06	45022.54
756.24	44658.01
756.43	44721.49
756.61	44512.60
756.80	44541.27
756.98	44639.57
757.17	44905.81
757.35	44807.51
757.54	44451.16
757.72	44676.44
757.90	44387.67
758.09	44010.85
758.27	44418.39
758.46	44248.41
758.64	44330.33
758.83	44205.41
759.01	44291.42
759.19	44383.58
759.38	44125.53
759.56	44512.60
759.75	44485.98
759.93	43750.76
760.12	44131.68
760.30	43844.96
760.48	43728.23
760.67	43574.63
760.85	44004.70
761.04	43816.29
761.22	43623.78
761.40	43820.39
761.59	43537.77
761.77	43392.36
761.96	43480.42
762.14	43660.65
762.32	42978.67
762.51	43400.55
762.69	43631.97
762.88	43335.02
763.06	43187.56
763.24	43378.03
763.43	43597.16
763.61	43318.64
763.80	43298.16
763.98	43130.22
764.16	42753.40
764.35	42669.43
764.53	42638.71
764.72	42689.91
764.90	42540.41
765.08	43029.87
765.27	42483.06
765.45	42298.75
765.63	42325.37
765.82	42722.68
766.00	42308.99
766.18	42392.95
766.37	42745.20
766.55	42151.29
766.74	42462.58
766.92	42120.57
767.10	42091.90
767.29	42247.55
767.47	41715.08
767.65	42300.79
767.84	41893.25
768.02	42208.64
768.20	41450.89
768.39	42122.62
768.57	42112.38
768.75	41899.39
768.94	41776.51
769.12	41629.06
769.30	41461.13
769.49	41387.40
769.67	41317.77
769.85	40764.82
770.04	41698.69
770.22	41041.29
770.40	41299.34
770.59	41188.75
770.77	41432.46
770.95	41528.71
771.14	40791.44
771.32	40928.66
771.50	40684.95
771.69	40654.23
771.87	41227.66
772.05	40922.51
772.24	40883.60
772.42	40682.90
772.60	40676.76
772.78	40461.72
772.97	40691.09
773.15	40824.21
773.33	40572.31
773.52	40230.30
773.70	40164.76
773.88	40261.02
774.07	40361.37
774.25	40533.40
774.43	40486.29
774.61	40496.53
774.80	40347.03
774.98	40402.33
775.16	40373.66
775.34	40578.45
775.53	40101.28
775.71	40768.91
775.89	40514.97
776.08	40271.26
776.26	40717.71
776.44	40828.30
776.62	40295.83
776.81	40428.95
776.99	40643.99
777.17	40560.02
777.35	40777.11
777.54	40668.56
777.72	40449.43
777.90	40613.27
778.08	40824.21
778.27	40588.69
778.45	40568.21
778.63	40652.18
778.81	40619.41
779.00	41069.97
779.18	40740.24
779.36	40803.73
779.54	40551.83
779.73	40603.03
779.91	40777.11
780.09	40660.37
780.27	40908.18
780.46	41041.29
780.64	41143.69
780.82	40865.17
781.00	40732.05
781.19	41309.58
781.37	41004.43
781.55	41067.92
781.73	41268.62
781.91	40457.62
782.10	41008.53
782.28	41043.34
782.46	40990.09
782.64	41319.82
782.82	40869.26
783.01	41149.84
783.19	40924.56
783.37	41301.39
783.55	40828.30
783.74	41457.03
783.92	40676.76
784.10	41231.75
784.28	41160.08
784.46	40828.30
784.64	41362.82
784.83	40822.16
785.01	41239.95
785.19	41117.07
785.37	41258.38
785.55	41313.67
785.74	40869.26
785.92	40596.88
786.10	40877.46
786.28	40836.50
786.46	40867.22
786.64	40981.90
786.83	40912.27
787.01	40973.71
787.19	40359.32
787.37	40859.02
787.55	40727.95
787.74	40750.48
787.92	40822.16
788.10	40297.88
788.28	39951.77
788.46	40570.26
788.64	40455.57
788.82	40629.65
789.01	40607.12
789.19	40568.21
789.37	40517.01
789.55	40181.15
789.73	40162.72
789.91	40093.08
790.09	40150.43
790.28	39767.46
790.46	39611.81
790.64	39738.79
790.82	39964.06
791.00	39390.63
791.18	39054.76
791.36	39343.53
791.55	39237.03
791.73	39048.62
791.91	39099.82
792.09	39394.73
792.27	39245.23
792.45	39292.33
792.63	38915.50
792.81	38847.92
793.00	38860.21
793.18	38770.10
793.36	38532.53
793.54	38665.65
793.72	38475.19
793.90	38534.58
794.08	38577.59
794.26	38475.19
794.44	37852.61
794.62	37557.70
794.81	38251.96
794.99	37875.13
795.17	37922.24
795.35	37830.08
795.53	38049.21
795.71	38084.03
795.89	37467.59
796.07	37330.37
796.25	37473.73
796.43	37330.37
796.61	37141.96
796.80	37123.53
796.98	37260.74
797.16	37072.33
797.34	36980.17
797.52	36797.90
797.70	36984.27
797.88	36988.36
798.06	36539.86
798.24	36763.09
798.42	36564.43
798.60	36378.07
798.78	36089.31
798.96	36306.39
799.14	36232.66
799.32	36224.47
799.51	35888.60
799.69	36259.29
799.87	36230.62
800.05	35931.61
800.23	35991.00
800.41	35702.24
800.59	35886.56
800.77	35599.84
800.95	35309.03
801.13	35685.86
801.31	35276.26
801.49	35169.77
801.67	34907.63
801.85	35050.99
802.03	34774.51
802.21	34805.23
802.39	35067.37
802.57	34579.95
802.75	34825.71
802.93	34588.14
803.11	34473.46
803.29	34346.48
803.47	34512.37
803.65	34608.62
803.83	33879.55
804.01	34389.49
804.19	33924.60
804.37	33842.68
804.55	33977.85
804.73	34055.67
804.91	33615.36
805.09	33570.30
805.27	33975.80
805.45	33967.61
805.63	34123.26
805.81	33832.44
805.99	33701.37
806.17	33728.00
806.35	33168.90
806.53	33320.45
806.71	33670.65
806.89	33369.60
807.07	33248.77
807.25	33338.88
807.43	32790.03
807.61	33003.02
807.79	32757.26
807.97	32624.14
808.15	32867.85
808.33	32609.81
808.51	32792.08
808.69	32402.96
808.87	32439.82
809.05	31866.39
809.23	32546.32
809.41	32067.09
809.59	31981.08
809.77	32378.39
809.95	31864.35
810.13	32106.01
810.31	32067.09
810.49	31858.20
810.67	32028.18
810.84	31778.33
811.02	31981.08
811.20	31522.34
811.38	31417.89
811.56	31432.22
811.74	31481.38
811.92	31348.26
812.10	31239.72
812.28	31710.75
812.46	31368.74
812.64	31323.68
812.82	31376.93
813.00	31075.88
813.18	31227.43
813.36	30922.28
813.53	30664.24
813.71	31192.61
813.89	30551.60
814.07	30983.72
814.25	30873.13
814.43	30498.35
814.61	30592.56
814.79	30535.21
814.97	30445.10
815.15	30643.76
815.33	30293.55
815.50	30328.37
815.68	30330.42
815.86	30658.09
816.04	30002.74
816.22	30043.70
816.40	29976.12
816.58	30049.85
816.76	29949.50
816.94	29890.10
817.11	30053.94
817.29	30125.62
817.47	29511.23
817.65	29912.63
817.83	30047.80
818.01	29713.98
818.19	29587.00
818.37	29513.28
818.54	29154.88
818.72	29314.62
818.90	29513.28
819.08	29566.52
819.26	29197.89
819.44	29126.21
819.62	29513.28
819.80	29070.92
819.97	29175.36
820.15	29275.71
820.33	28665.42
820.51	29126.21
820.69	28638.80
820.87	29181.51
821.05	28751.43
821.22	28778.06
821.40	28931.65
821.58	28401.23
821.76	28689.99
821.94	28534.35
822.12	28776.01
822.29	28821.06
822.47	28728.91
822.65	28571.21
822.83	28524.11
823.01	28696.14
823.19	28134.99
823.36	28184.15
823.54	28489.29
823.72	28382.80
823.90	28214.87
824.08	28218.96
824.25	27932.25
824.43	28079.70
824.61	28124.75
824.79	28014.16
824.97	27856.47
825.15	28235.35
825.32	27854.42
825.50	27825.75
825.68	27692.63
825.86	27930.20
826.04	27850.33
826.21	27934.29
826.39	27649.63
826.57	27483.74
826.75	27690.59
826.93	27197.02
827.10	27346.53
827.28	27729.50
827.46	27766.36
827.64	27778.65
827.81	27217.50
827.99	27506.27
828.17	27164.26
828.35	26920.55
828.53	27065.96
828.70	27022.95
828.88	27227.74
829.06	27428.45
829.24	27352.67
829.41	27020.90
829.59	27324.00
829.77	27049.57
829.95	27006.56
830.12	26527.34
830.30	26920.55
830.48	26990.18
830.66	27027.04
830.84	26664.55
831.01	26639.98
831.19	26996.32
831.37	26818.15
831.55	26775.14
831.72	26484.33
831.90	26463.85
832.08	26400.37
832.25	26758.76
832.43	26682.98
832.61	26426.99
832.79	26031.73
832.96	26324.59
833.14	26414.70
833.32	26496.62
833.50	26685.03
833.67	26572.39
833.85	26119.79
834.03	25824.89
834.20	26265.20
834.38	26349.17
834.56	26060.40
834.74	25908.85
834.91	26199.66
835.09	26084.98
835.27	25773.69
835.44	25785.97
835.62	25382.52
835.80	25671.29
835.98	25990.77
836.15	25736.82
836.33	25962.10
836.51	25810.55
836.68	25794.17
836.86	25839.22
837.04	25806.45
837.21	25749.11
837.39	25675.38
837.57	26007.16
837.75	25718.39
837.92	25171.58
838.10	25568.89
838.28	25458.30
838.45	25433.72
838.63	25661.05
838.81	25257.60
838.98	25157.25
839.16	25038.47
839.34	25099.90
839.51	25071.23
839.69	25122.43
839.87	24981.12
840.04	25091.71
840.22	25116.29
840.40	24776.33
840.57	24880.77
840.75	24874.63
840.93	24653.45
841.10	24913.54
841.28	25153.15
841.46	24856.20
841.63	25089.67
841.81	24643.21
841.98	24827.53
842.16	24864.39
842.34	24827.53
842.51	24540.81
842.69	24704.65
842.87	24585.86
843.04	24696.46
843.22	24637.06
843.40	24268.43
843.57	24542.86
843.75	24741.51
843.92	24620.68
844.10	24516.23
844.28	24657.54
844.45	24581.77
844.63	24354.44
844.81	24514.19
844.98	24426.12
845.16	24252.05
845.33	24450.70
845.51	24037.01
845.69	24596.10
845.86	24108.69
846.04	24010.39
846.21	24073.87
846.39	24129.17
846.57	23819.92
846.74	24030.87
846.92	23852.69
847.09	23987.86
847.27	23555.74
847.45	23850.64
847.62	23860.88
847.80	23971.47
847.97	23889.56
848.15	23623.32
848.32	23797.40
848.50	23826.07
848.68	23600.79
848.85	23543.45
849.03	23621.27
849.20	23631.51
849.38	23621.27
849.56	23621.27
849.73	23295.64
849.91	23695.00
850.08	23811.73
850.26	23381.66
850.43	23557.78
850.61	23672.47
850.78	23305.88
850.96	23332.51
851.14	23170.72
851.31	23039.65
851.49	23187.10
851.66	23330.46
851.84	23391.90
852.01	23244.45
852.19	23066.27
852.36	22908.58
852.54	23082.66
852.71	23043.74
852.89	23021.22
853.07	23160.48
853.24	23002.78
853.42	22822.56
853.59	23029.41
853.77	23176.86
853.94	22910.63
854.12	23140.00
854.29	22834.85
854.47	22736.55
854.64	22828.71
854.82	22806.18
854.99	22656.68
855.17	22648.49
855.34	22881.95
855.52	22865.57
855.69	23039.65
855.87	22283.95
856.04	22521.51
856.22	22740.64
856.39	22525.61
856.57	22769.32
856.74	22361.77
856.92	22605.48
857.09	22302.38
857.27	22382.25
857.44	22415.02
857.62	22290.09
857.79	22437.55
857.97	22505.13
858.14	22496.94
858.32	22273.71
858.49	22187.69
858.67	22621.86
858.84	22050.48
859.02	22228.65
859.19	21677.75
859.37	22083.25
859.54	21855.92
859.72	22113.97
859.89	21866.16
860.06	21704.37
860.24	21911.22
860.41	21903.03
860.59	21857.97
860.76	21800.63
860.94	21534.39
861.11	21827.25
861.29	21757.62
861.46	21710.52
861.64	21626.55
861.81	21589.69
861.98	21837.49
862.16	21366.46
862.33	21515.96
862.51	21452.47
862.68	21495.48
862.86	21593.78
863.03	21419.71
863.21	21399.23
863.38	21245.63
863.55	21495.48
863.73	21345.98
863.90	21470.90
864.08	21257.92
864.25	21368.51
864.43	21128.89
864.60	20963.01
864.77	21061.31
864.95	21341.88
865.12	20776.64
865.30	21202.62
865.47	21014.21
865.64	21046.97
865.82	21098.17
865.99	21057.21
866.17	21022.40
866.34	21010.11
866.51	20860.61
866.69	20975.30
866.86	20799.17
867.04	20825.79
867.21	20920.00
867.38	20664.00
867.56	20639.43
867.73	20483.78
867.91	20455.11
868.08	20543.17
868.25	20596.42
868.43	20453.06
868.60	20283.08
868.78	20096.72
868.95	20666.05
869.12	20391.62
869.30	19965.65
869.47	20289.23
869.64	19986.13
869.82	20098.77
869.99	20076.24
870.16	20459.21
870.34	20156.11
870.51	20295.37
870.69	20027.09
870.86	19961.55
871.03	20133.58
871.21	20166.35
871.38	20059.85
871.55	19930.83
871.73	19685.08
871.90	19926.74
872.07	20033.23
872.25	19615.44
872.42	19748.56
872.59	19771.09
872.77	19517.14
872.94	19654.36
873.11	19455.70
873.29	19867.34
873.46	19642.07
873.63	19424.98
873.81	19482.33
873.98	19306.20
874.15	19263.19
874.33	19267.29
874.50	19093.21
874.67	19072.73
874.85	18943.71
875.02	19209.95
875.19	18947.81
875.37	19271.39
875.54	19156.70
875.71	19042.01
875.88	19070.68
876.06	18769.63
876.23	19029.73
876.40	18812.64
876.58	18880.22
876.75	18720.48
876.92	18808.54
877.10	18650.85
877.27	18855.65
877.44	18556.64
877.61	18468.58
877.79	18534.12
877.96	18435.81
878.13	18505.45
878.31	18353.90
878.48	18323.18
878.65	18165.48
878.82	17995.50
879.00	18308.84
879.17	18333.42
879.34	18290.41
879.51	18083.56
879.69	18110.19
879.86	18065.13
880.03	18036.46
880.21	17952.49
880.38	17919.73
880.55	18054.89
880.72	17831.66
880.90	17975.02
881.07	17813.23
881.24	17874.67
881.41	18153.20
881.59	17741.55
881.76	17856.24
881.93	17864.43
882.10	17577.72
882.28	17467.13
882.45	17647.35
882.62	17559.28
882.79	17653.49
882.96	17241.85
883.14	17471.22
883.31	17647.35
883.48	17620.72
883.65	17577.72
883.83	17528.56
884.00	17544.95
884.17	17483.51
884.34	17487.61
884.51	17309.43
884.69	17420.02
884.86	17282.81
885.03	17182.46
885.20	16797.44
885.38	17268.47
885.55	17364.73
885.72	17346.30
885.89	17334.01
886.06	17188.60
886.24	16977.66
886.41	17047.29
886.58	17131.26
886.75	17149.69
886.92	16860.93
887.10	17045.24
887.27	16766.72
887.44	16934.65
887.61	17215.23
887.78	16977.66
887.95	17157.88
888.13	16680.71
888.30	16578.31
888.47	16854.78
888.64	16738.05
888.81	16717.57
888.99	16672.51
889.16	16647.94
889.33	16537.35
889.50	16690.95
889.67	16510.72
889.84	16406.28
890.01	16496.39
890.19	16525.06
890.36	16293.64
890.53	16408.33
890.70	16267.02
890.87	16373.51
891.04	16107.27
891.22	16185.10
891.39	16090.89
891.56	16135.95
891.73	16269.06
891.90	16066.31
892.07	16076.55
892.24	16291.59
892.42	15955.72
892.59	16011.02
892.76	15994.64
892.93	16060.17
893.10	15904.53
893.27	15578.90
893.44	15697.68
893.61	15675.15
893.79	16039.69
893.96	15955.72
894.13	16101.13
894.30	15998.73
894.47	15845.13
894.64	15886.09
894.81	15822.61
894.98	15808.27
895.15	15910.67
895.33	15703.82
895.50	15916.81
895.67	15707.92
895.84	15882.00
896.01	15841.04
896.18	15673.10
896.35	15894.29
896.52	15707.92
896.69	15576.85
896.86	15591.19
897.04	15838.99
897.21	15691.54
897.38	15527.70
897.55	15675.15
897.72	15761.17
897.89	15697.68
898.06	15599.38
898.23	15474.45
898.40	15757.07
898.57	15611.67
898.74	15740.69
898.91	15392.53
899.08	15595.28
899.26	15398.68
899.43	15709.97
899.60	15636.24
899.77	15677.20
899.94	15380.25
900.11	15492.88
900.28	15423.25
900.45	15671.06
900.62	15433.49
900.79	15513.36
900.96	15623.95
901.13	15527.70
901.30	15318.81
901.47	15464.21
901.64	15847.18
901.81	15527.70
901.98	15550.23
902.15	15580.95
902.32	15249.18
902.49	15466.26
902.66	15750.93
902.83	15662.86
903.01	15615.76
903.18	15324.95
903.35	15361.81
903.52	15294.23
903.69	15515.41
903.86	15484.69
904.03	15314.71
904.20	15286.04
904.37	15529.75
904.54	15386.39
904.71	15361.81
904.88	15529.75
905.05	15271.70
905.22	15382.29
905.39	15359.77
905.56	15351.57
905.73	15386.39
905.90	15589.14
906.07	15408.92
906.24	15367.96
906.41	15240.98
906.58	15249.18
906.75	15404.82
906.92	15068.95
907.09	14982.94
907.26	15363.86
907.43	15134.49
907.60	15200.02
907.77	15165.21
907.93	15312.66
908.10	15202.07
908.27	15400.72
908.44	15118.11
908.61	15107.87
908.78	15058.71
908.95	15087.39
909.12	15191.83
909.29	15222.55
909.46	15216.41
909.63	15363.86
909.80	15222.55
909.97	15251.22
910.14	15083.29
910.31	15458.07
910.48	15335.19
910.65	15048.47
910.82	14993.18
910.99	15021.85
911.16	14993.18
911.33	14984.99
911.50	15011.61
911.66	14788.38
911.83	15120.15
912.00	14956.32
912.17	14751.52
912.34	14792.48
912.51	14849.82
912.68	14743.33
912.85	14874.40
913.02	14919.45
913.19	14720.80
913.36	14647.07
913.53	14802.72
913.70	14509.86
913.86	14534.43
914.03	14552.87
914.20	14452.52
914.37	14479.14
914.54	14671.65
914.71	14679.84
914.88	14309.16
915.05	14362.40
915.22	14313.25
915.39	14362.40
915.55	14513.95
915.72	14194.47
915.89	14368.55
916.06	14118.70
916.23	14098.22
916.40	13942.57
916.57	14028.59
916.74	14421.80
916.91	13872.94
917.07	13911.85
917.24	13918.00
917.41	13981.48
917.58	14004.01
917.75	13774.64
917.92	13666.10
918.09	13711.15
918.26	13700.91
918.42	13537.07
918.59	13897.52
918.76	13565.74
918.93	13639.47
919.10	13176.63
919.27	13377.33
919.44	13688.62
919.60	13473.59
919.77	13381.43
919.94	13233.97
920.11	13254.45
920.28	13332.28
920.45	13143.86
920.61	13053.75
920.78	13025.08
920.95	13225.78
921.12	13158.20
921.29	12969.79
921.46	12924.73
921.62	12928.83
921.79	13006.65
921.96	12783.42
922.13	12951.35
922.30	12748.61
922.47	12597.06
922.63	12834.62
922.80	12363.59
922.97	12582.72
923.14	12257.09
923.31	12463.94
923.47	12304.20
923.64	12672.83
923.81	12484.42
923.98	12361.54
924.15	12187.46
924.32	12232.52
924.48	12246.85
924.65	12158.79
924.82	12056.39
924.99	11974.47
925.15	11753.29
925.32	11923.27
925.49	11734.86
925.66	11917.13
925.83	11568.98
925.99	11681.61
926.16	11798.35
926.33	11648.85
926.50	11710.29
926.67	11556.69
926.83	11474.77
927.00	11452.24
927.17	11378.51
927.34	11425.62
927.50	11364.18
927.67	11306.84
927.84	11282.26
928.01	11046.74
928.17	11013.98
928.34	11112.28
928.51	10907.48
928.68	10962.78
928.84	10942.30
929.01	10823.51
929.18	10870.62
929.35	10932.06
929.51	10866.52
929.68	10655.58
929.85	10594.14
930.02	10475.36
930.18	10430.30
930.35	10446.69
930.52	10381.15
930.69	10422.11
930.85	10637.15
931.02	10372.96
931.19	10344.29
931.36	10129.25
931.52	10237.80
931.69	10336.10
931.86	10018.66
932.02	10020.71
932.19	10039.14
932.36	9916.26
932.53	9973.61
932.69	9854.83
932.86	9996.14
933.03	9803.63
933.19	9734.00
933.36	9705.32
933.53	9789.29
933.70	9715.56
933.86	9604.97
934.03	9631.60
934.20	9537.39
934.36	9502.58
934.53	9308.02
934.70	8972.15
934.86	9275.25
935.03	9113.46
935.20	9027.45
935.36	8980.34
935.53	8769.40
935.70	8783.74
935.86	9099.13
936.03	8658.81
936.20	8644.48
936.36	8710.01
936.53	8509.31
936.70	8302.47
936.86	8466.30
937.03	8308.61
937.20	8097.67
937.36	8195.97
937.53	7851.91
937.70	7974.79
937.86	7786.38
938.03	7915.40
938.20	7952.26
938.36	7667.60
938.53	7499.66
938.70	7329.68
938.86	7542.67
939.03	7405.46
939.20	7264.15
939.36	7171.99
939.53	7155.60
939.70	7229.33
939.86	6885.27
940.03	6934.42
940.19	6864.79
940.36	6786.97
940.53	6750.10
940.69	6731.67
940.86	6526.88
941.03	6328.22
941.19	6313.89
941.36	6340.51
941.52	6248.35
941.69	6260.64
941.86	6164.39
942.02	6027.17
942.19	6094.76
942.35	6172.58
942.52	5922.73
942.69	6074.28
942.85	5920.68
943.02	5947.30
943.18	5822.38
943.35	5803.94
943.52	5779.37
943.68	5646.25
943.85	5603.24
944.01	5556.14
944.18	5552.04
944.35	5504.94
944.51	5543.85
944.68	5521.32
944.84	5367.73
945.01	5332.91
945.17	5443.50
945.34	5394.35
945.51	5515.18
945.67	5253.04
945.84	5296.05
946.00	5164.98
946.17	5320.62
946.33	5337.01
946.50	5173.17
946.67	5410.73
946.83	5207.98
947.00	5484.46
947.16	5238.70
947.33	5259.18
947.49	5175.22
947.66	5212.08
947.82	5173.17
947.99	5214.13
948.16	5265.33
948.32	5138.35
948.49	5250.99
948.65	5210.03
948.82	5189.55
948.98	5308.34
949.15	5158.83
949.31	5220.27
949.48	5255.09
949.64	5187.50
949.81	5158.83
949.97	5226.42
950.14	5341.10
950.30	5318.57
950.47	5214.13
950.63	5164.98
950.80	5314.48
950.96	5304.24
951.13	5261.23
951.30	5337.01
951.46	5300.14
951.63	5406.64
951.79	5130.16
951.96	5472.17
952.12	5332.91
952.29	5283.76
952.45	5328.81
952.62	5263.28
952.78	5312.43
952.94	5404.59
953.11	5337.01
953.27	5140.40
953.44	5468.08
953.60	5451.69
953.77	5470.12
953.93	5261.23
954.10	5345.20
954.26	5277.62
954.43	5334.96
954.59	5371.82
954.76	5498.80
954.92	5302.19
955.09	5408.69
955.25	5212.08
955.42	5253.04
955.58	5435.31
955.75	5388.21
955.91	5238.70
956.07	5287.86
956.24	5271.47
956.40	5408.69
956.57	5404.59
956.73	5390.25
956.90	5334.96
957.06	5265.33
957.23	5402.54
957.39	5337.01
957.56	5369.77
957.72	5334.96
957.88	5287.86
958.05	5349.29
958.21	5418.93
958.38	5398.45
958.54	5279.66
958.71	5420.97
958.87	5353.39
959.03	5412.78
959.20	5414.83
959.36	5492.65
959.53	5300.14
959.69	5277.62
959.85	5513.13
960.02	5207.98
960.18	5396.40
960.35	5320.62
960.51	5439.40
960.68	5459.88
960.84	5332.91
961.00	5261.23
961.17	5351.34
961.33	5390.25
961.50	5242.80
961.66	5515.18
961.82	5308.34
961.99	5302.19
962.15	5257.14
962.31	5171.12
962.48	5289.90
962.64	5341.10
962.81	5517.23
962.97	5472.17
963.13	5367.73
963.30	5380.01
963.46	5140.40
963.62	5367.73
963.79	5195.70
963.95	5236.66
964.12	5285.81
964.28	5373.87
964.44	5189.55
964.61	5287.86
964.77	5308.34
964.93	5394.35
965.10	5064.63
965.26	5343.15
965.42	5330.86
965.59	5201.84
965.75	5164.98
965.92	5236.66
966.08	5281.71
966.24	5279.66
966.41	5191.60
966.57	5238.70
966.73	5447.60
966.90	5156.79
967.06	5076.91
967.22	5119.92
967.39	5169.07
967.55	5099.44
967.71	5113.78
967.88	5054.39
968.04	5050.29
968.20	5087.15
968.37	5044.15
968.53	5085.11
968.69	5066.67
968.85	5074.87
969.02	5093.30
969.18	5027.76
969.34	5132.21
969.51	5134.26
969.67	5038.00
969.83	4972.47
970.00	5222.32
970.16	5058.48
970.32	5117.87
970.48	5191.60
970.65	4876.21
970.81	4890.55
970.97	4917.17
971.14	4882.36
971.30	5056.43
971.46	4837.30
971.63	4923.32
971.79	5029.81
971.95	5017.52
972.11	4843.45
972.28	4923.32
972.44	4947.89
972.60	4837.30
972.76	4945.84
972.93	4915.12
973.09	5162.93
973.25	4839.35
973.42	4714.42
973.58	4929.46
973.74	4890.55
973.90	4786.10
974.07	4784.06
974.23	4648.89
974.39	4941.75
974.55	4841.40
974.72	4841.40
974.88	4501.44
975.04	4767.67
975.20	4638.65
975.37	4640.70
975.53	4679.61
975.69	4655.03
975.85	4626.36
976.01	4607.93
976.18	4659.13
976.34	4663.22
976.50	4673.46
976.66	4605.88
976.83	4636.60
976.99	4550.59
977.15	4562.87
977.31	4550.59
977.47	4583.35
977.64	4628.41
977.80	4630.46
977.96	4542.39
978.12	4607.93
978.29	4493.24
978.45	4431.80
978.61	4433.85
978.77	4534.20
978.93	4591.55
979.10	4517.82
979.26	4491.20
979.42	4458.43
979.58	4292.54
979.74	4294.59
979.91	4442.04
980.07	4364.22
980.23	4310.97
980.39	4284.35
980.55	4429.76
980.71	4370.37
980.88	4329.41
981.04	4360.13
981.20	4382.65
981.36	4440.00
981.52	4347.84
981.68	4298.69
981.85	4353.98
982.01	4216.77
982.17	4220.86
982.33	4190.14
982.49	4370.37
982.65	4157.38
982.82	4169.66
982.98	4208.58
983.14	4138.94
983.30	4353.98
983.46	4276.16
983.62	4179.90
983.79	4126.66
983.95	4181.95
984.11	3999.68
984.27	4171.71
984.43	4216.77
984.59	4116.42
984.75	4235.20
984.91	4157.38
985.08	4179.90
985.24	4014.02
985.40	3993.54
985.56	4034.50
985.72	4130.75
985.88	4059.07
986.04	3950.53
986.20	3956.68
986.37	3868.61
986.53	4014.02
986.69	4063.17
986.85	3983.30
987.01	3923.91
987.17	4181.95
987.33	3833.80
987.49	4054.98
987.65	3968.96
987.82	3936.20
987.98	3811.27
988.14	4028.35
988.30	3887.04
988.46	3807.17
988.62	3993.54
988.78	3835.85
988.94	3805.13
989.10	3831.75
989.26	3764.17
989.42	3780.55
989.59	3758.02
989.75	3694.54
989.91	3880.90
990.07	3672.01
990.23	3649.48
990.39	3751.88
990.55	3760.07
990.71	3690.44
990.87	3745.73
991.03	3774.41
991.19	3741.64
991.35	3579.85
991.51	3770.31
991.67	3819.46
991.83	3661.77
992.00	3602.38
992.16	3727.30
992.32	3708.87
992.48	3788.74
992.64	3565.51
992.80	3690.44
992.96	3463.12
993.12	3653.58
993.28	3704.78
993.44	3641.29
993.60	3581.90
993.76	3657.67
993.92	3688.39
994.08	3551.18
994.24	3633.10
994.40	3616.71
994.56	3657.67
994.72	3530.70
994.88	3493.83
995.04	3510.22
995.20	3477.45
995.36	3426.25
995.52	3532.75
995.68	3399.63
995.84	3282.89
996.00	3592.14
996.16	3440.59
996.32	3413.96
996.48	3358.67
996.64	3436.49
996.80	3264.46
996.96	3418.06
997.12	3477.45
997.28	3338.19
997.44	3299.28
997.60	3313.61
997.76	3321.81
997.92	3346.38
998.08	3360.72
998.24	3317.71
998.40	3338.19
998.56	3344.33
998.72	3237.84
998.88	3211.22
999.04	3229.65
999.20	3375.05
999.36	3256.27
999.52	3389.39
999.68	3235.79
999.84	3413.96
1000.00	3231.69
1000.16	3284.94
1000.32	3168.21
1000.48	3401.68
1000.64	3246.03
1000.80	3092.43
1000.95	3098.58
1001.11	3301.33
1001.27	2987.99
1001.43	3125.20
1001.59	3141.58
1001.75	3129.30
1001.91	3082.19
1002.07	3139.54
1002.23	3051.47
1002.39	3108.82
1002.55	3051.47
1002.71	2940.88
1002.87	3104.72
1003.03	3057.62
1003.19	3059.67
1003.34	3028.95
1003.50	3137.49
1003.66	3076.05
1003.82	3160.02
1003.98	3006.42
1004.14	2953.17
1004.30	2928.60
1004.46	2910.16
1004.62	3002.32
1004.78	3020.75
1004.94	3022.80
1005.09	2983.89
1005.25	3090.38
1005.41	2953.17
1005.57	2895.83
1005.73	2959.31
1005.89	2901.97
1006.05	2949.08
1006.21	2926.55
1006.37	2807.77
1006.52	2924.50
1006.68	2846.68
1006.84	2848.72
1007.00	2934.74
1007.16	2869.20
1007.32	2928.60
1007.48	2918.36
1007.64	2914.26
1007.79	2818.00
1007.95	2770.90
1008.11	2953.17
1008.27	2811.86
1008.43	2947.03
1008.59	2787.29
1008.75	2828.24
1008.91	2863.06
1009.06	2805.72
1009.22	2838.48
1009.38	2848.72
1009.54	2756.57
1009.70	2781.14
1009.86	2805.72
1010.01	2723.80
1010.17	2656.22
1010.33	2789.33
1010.49	2762.71
1010.65	2789.33
1010.81	2623.45
1010.96	2748.37
1011.12	2711.51
1011.28	2680.79
1011.44	2809.81
1011.60	2648.02
1011.76	2637.78
1011.91	2729.94
1012.07	2635.74
1012.23	2478.04
1012.39	2609.11
1012.55	2721.75
1012.71	2541.53
1012.86	2637.78
1013.02	2609.11
1013.18	2670.55
1013.34	2582.49
1013.50	2648.02
1013.65	2697.17
1013.81	2631.64
1013.97	2639.83
1014.13	2686.94
1014.29	2521.05
1014.44	2666.46
1014.60	2551.77
1014.76	2574.30
1014.92	2568.15
1015.07	2580.44
1015.23	2607.06
1015.39	2557.91
1015.55	2516.95
1015.71	2533.34
1015.86	2430.94
1016.02	2494.43
1016.18	2392.03
1016.34	2549.72
1016.49	2451.42
1016.65	2543.58
1016.81	2564.06
1016.97	2541.53
1017.12	2510.81
1017.28	2375.64
1017.44	2465.75
1017.60	2504.67
1017.75	2451.42
1017.91	2394.08
1018.07	2459.61
1018.23	2412.51
1018.38	2412.51
1018.54	2508.76
1018.70	2441.18
1018.86	2371.55
1019.01	2338.78
1019.17	2273.25
1019.33	2537.43
1019.49	2328.54
1019.64	2432.99
1019.80	2420.70
1019.96	2443.23
1020.12	2330.59
1020.27	2363.36
1020.43	2299.87
1020.59	2338.78
1020.74	2357.21
1020.90	2351.07
1021.06	2271.20
1021.22	2346.97
1021.37	2320.35
1021.53	2267.10
1021.69	2318.30
1021.84	2166.75
1022.00	2265.05
1022.16	2308.06
1022.31	2269.15
1022.47	2332.64
1022.63	2342.88
1022.79	2263.01
1022.94	2220.00
1023.10	2402.27
1023.26	2240.48
1023.41	2265.05
1023.57	2244.57
1023.73	2381.79
1023.88	2281.44
1024.04	2240.48
1024.20	2287.58
1024.35	2314.20
1024.51	2154.46
1024.67	2244.57
1024.82	2224.09
1024.98	2152.42
1025.14	2213.85
1025.29	2181.09
1025.45	2244.57
1025.61	2072.54
1025.76	2197.47
1025.92	2166.75
1026.08	2215.90
1026.23	2201.57
1026.39	2285.53
1026.55	2179.04
1026.70	2097.12
1026.86	2133.98
1027.02	2234.33
1027.17	2234.33
1027.33	2222.05
1027.48	2224.09
1027.64	2066.40
1027.80	2095.07
1027.95	2121.70
1028.11	2060.26
1028.27	2093.02
1028.42	2191.33
1028.58	2133.98
1028.73	2084.83
1028.89	1953.76
1029.05	2191.33
1029.20	2168.80
>>>>>End Processed Spectral Data<<<<<
