SpectraSuite Data File
++++++++++++++++++++++++++++++++++++
Date: Fri Jun 02 14:49:27 CEST 2017
User: INFO_000
Dark Spectrum Present: No
Reference Spectrum Present: No
Number of Sampled Component Spectra: 1
Spectrometers: USB4H00879
Integration Time (usec): 80000 (USB4H00879)
Spectra Averaged: 1 (USB4H00879)
Boxcar Smoothing: 0 (USB4H00879)
Correct for Electrical Dark: No (USB4H00879)
Strobe/Lamp Enabled: No (USB4H00879)
Correct for Detector Non-linearity: No (USB4H00879)
Correct for Stray Light: No (USB4H00879)
Number of Pixels in Processed Spectrum: 3648
>>>>>Begin Processed Spectral Data<<<<<
345.13	1322.99
345.34	1322.99
345.56	1322.99
345.78	1279.98
345.99	1261.55
346.21	1679.33
346.42	1677.29
346.64	1609.70
346.86	1794.02
347.07	1650.66
347.29	1710.05
347.50	1673.19
347.72	1708.01
347.94	1748.97
348.15	1576.94
348.37	1697.77
348.59	1693.67
348.80	1621.99
349.02	1740.77
349.23	1865.70
349.45	1800.16
349.67	1802.21
349.88	1796.07
350.10	1998.82
350.31	1818.60
350.53	1777.64
350.75	1998.82
350.96	1732.58
351.18	1884.13
351.39	1871.84
351.61	1740.77
351.82	1945.57
352.04	1910.75
352.26	1802.21
352.47	1970.15
352.69	1920.99
352.90	1800.16
353.12	1828.84
353.34	1863.65
353.55	1966.05
353.77	1812.45
353.98	1834.98
354.20	1814.50
354.41	1959.91
354.63	1961.95
354.85	2080.74
355.06	1837.03
355.28	1816.55
355.49	1906.66
355.71	1861.60
355.92	1867.75
356.14	1918.95
356.35	1849.32
356.57	1847.27
356.79	1902.56
357.00	1851.36
357.22	2064.35
357.43	1867.75
357.65	1955.81
357.86	1847.27
358.08	1978.34
358.29	1890.28
358.51	2033.63
358.72	1933.28
358.94	1900.52
359.16	1976.29
359.37	1945.57
359.59	2011.11
359.80	2009.06
360.02	1906.66
360.23	1945.57
360.45	2021.35
360.66	1953.76
360.88	1869.80
361.09	1953.76
361.31	1974.24
361.52	2011.11
361.74	1976.29
361.95	2050.02
362.17	2050.02
362.38	2123.74
362.60	2050.02
362.81	2000.87
363.03	1877.99
363.24	1957.86
363.46	2095.07
363.67	1996.77
363.89	1970.15
364.10	2017.25
364.32	1986.53
364.53	2058.21
364.75	1884.13
364.96	2009.06
365.18	1996.77
365.39	2009.06
365.61	1955.81
365.82	2076.64
366.04	2090.98
366.25	1896.42
366.47	2043.87
366.68	1992.67
366.90	1992.67
367.11	2072.54
367.33	2103.26
367.54	2078.69
367.76	2002.91
367.97	2140.13
368.19	1992.67
368.40	2074.59
368.62	1990.63
368.83	1949.67
369.05	2011.11
369.26	1945.57
369.48	1986.53
369.69	2086.88
369.91	2072.54
370.12	2004.96
370.33	2203.61
370.55	2023.39
370.76	1978.34
370.98	2123.74
371.19	2035.68
371.41	2015.20
371.62	2013.15
371.84	1959.91
372.05	2127.84
372.27	2066.40
372.48	2043.87
372.69	2047.97
372.91	2093.02
373.12	2201.57
373.34	2099.17
373.55	2138.08
373.77	2160.61
373.98	2131.94
374.20	2133.98
374.41	2297.82
374.62	2086.88
374.84	2170.85
375.05	2121.70
375.27	2174.94
375.48	2097.12
375.70	2195.42
375.91	2176.99
376.12	2228.19
376.34	2121.70
376.55	2207.71
376.77	2164.70
376.98	2138.08
377.19	2166.75
377.41	2056.16
377.62	2158.56
377.84	2197.47
378.05	2265.05
378.27	2160.61
378.48	2289.63
378.69	2375.64
378.91	2383.84
379.12	2217.95
379.34	2230.24
379.55	2267.10
379.76	2277.34
379.98	2164.70
380.19	2174.94
380.41	2273.25
380.62	2312.16
380.83	2312.16
381.05	2244.57
381.26	2408.41
381.47	2297.82
381.69	2265.05
381.90	2334.68
382.12	2306.01
382.33	2291.68
382.54	2293.72
382.76	2363.36
382.97	2328.54
383.19	2205.66
383.40	2375.64
383.61	2250.72
383.83	2332.64
384.04	2293.72
384.25	2361.31
384.47	2416.60
384.68	2387.93
384.89	2377.69
385.11	2297.82
385.32	2412.51
385.54	2322.40
385.75	2355.16
385.96	2336.73
386.18	2394.08
386.39	2375.64
386.60	2342.88
386.82	2459.61
387.03	2318.30
387.24	2500.57
387.46	2385.88
387.67	2457.56
387.88	2498.52
388.10	2420.70
388.31	2432.99
388.52	2576.34
388.74	2453.47
388.95	2516.95
389.16	2475.99
389.38	2512.86
389.59	2564.06
389.80	2525.15
390.02	2574.30
390.23	2629.59
390.44	2486.23
390.66	2541.53
390.87	2478.04
391.08	2562.01
391.30	2625.50
391.51	2654.17
391.72	2600.92
391.94	2637.78
392.15	2490.33
392.36	2578.39
392.58	2590.68
392.79	2658.26
393.00	2668.50
393.22	2750.42
393.43	2754.52
393.64	2787.29
393.85	2791.38
394.07	2654.17
394.28	2738.13
394.49	2623.45
394.71	2779.09
394.92	2742.23
395.13	2637.78
395.35	2656.22
395.56	2697.17
395.77	2742.23
395.98	2899.92
396.20	2801.62
396.41	2801.62
396.62	2818.00
396.84	2744.28
397.05	2709.46
397.26	2838.48
397.47	2944.98
397.69	2873.30
397.90	3045.33
398.11	2721.75
398.32	2934.74
398.54	2920.40
398.75	2936.79
398.96	2916.31
399.18	3141.58
399.39	3000.27
399.60	2977.75
399.81	2889.68
400.03	3012.56
400.24	3180.50
400.45	2912.21
400.66	3092.43
400.88	2998.23
401.09	3164.11
401.30	3006.42
401.51	3090.38
401.73	3006.42
401.94	3076.05
402.15	3104.72
402.36	3125.20
402.58	3160.02
402.79	3184.59
403.00	3155.92
403.21	3252.17
403.43	3180.50
403.64	3301.33
403.85	3153.87
404.06	3262.41
404.27	3153.87
404.49	3067.86
404.70	3174.35
404.91	3231.69
405.12	3311.57
405.34	3225.55
405.55	3321.81
405.76	3174.35
405.97	3162.06
406.19	3295.18
406.40	3178.45
406.61	3184.59
406.82	3303.37
407.03	3317.71
407.25	3309.52
407.46	3444.68
407.67	3436.49
407.88	3405.77
408.09	3336.14
408.31	3278.80
408.52	3399.63
408.73	3373.00
408.94	3387.34
409.15	3426.25
409.37	3506.12
409.58	3461.07
409.79	3522.51
410.00	3493.83
410.21	3426.25
410.43	3434.44
410.64	3395.53
410.85	3465.16
411.06	3534.79
411.27	3547.08
411.48	3583.95
411.70	3583.95
411.91	3504.07
412.12	3612.62
412.33	3645.38
412.54	3575.75
412.76	3694.54
412.97	3667.91
413.18	3428.30
413.39	3674.06
413.60	3649.48
413.81	3626.95
414.03	3624.90
414.24	3567.56
414.45	3809.22
414.66	3491.79
414.87	3708.87
415.08	3651.53
415.30	3649.48
415.51	3653.58
415.72	3721.16
415.93	3547.08
416.14	3672.01
416.35	3889.09
416.56	3762.12
416.78	3706.82
416.99	3766.21
417.20	3864.52
417.41	3878.85
417.62	3868.61
417.83	3925.96
418.04	3819.46
418.26	3870.66
418.47	3831.75
418.68	3895.24
418.89	3989.44
419.10	4087.75
419.31	4038.59
419.52	3962.82
419.73	3968.96
419.95	4077.51
420.16	3858.37
420.37	3956.68
420.58	3997.64
420.79	3889.09
421.00	4122.56
421.21	4104.13
421.42	4032.45
421.63	4057.03
421.85	4009.92
422.06	4274.11
422.27	4083.65
422.48	4222.91
422.69	4202.43
422.90	4134.85
423.11	4179.90
423.32	4319.17
423.53	4290.49
423.75	4239.30
423.96	4415.42
424.17	4411.32
424.38	4480.96
424.59	4399.04
424.80	4483.00
425.01	4435.90
425.22	4511.68
425.43	4368.32
425.64	4589.50
425.85	4587.45
426.06	4573.11
426.28	4603.83
426.49	4495.29
426.70	4583.35
426.91	4509.63
427.12	4595.64
427.33	4550.59
427.54	4612.03
427.75	4667.32
427.96	4796.34
428.17	4743.10
428.38	4689.85
428.59	4831.16
428.80	4581.31
429.01	4689.85
429.23	4765.62
429.44	5033.91
429.65	4812.73
429.86	4890.55
430.07	4767.67
430.28	4931.51
430.49	5003.19
430.70	5052.34
430.91	4976.56
431.12	5007.28
431.33	5113.78
431.54	5027.76
431.75	5009.33
431.96	5027.76
432.17	5173.17
432.38	5013.43
432.59	5355.44
432.80	5273.52
433.01	5199.79
433.22	5216.18
433.43	5257.14
433.64	5242.80
433.85	5296.05
434.06	5240.75
434.27	5224.37
434.49	5226.42
434.70	5371.82
434.91	5377.97
435.12	5423.02
435.33	5500.84
435.54	5406.64
435.75	5353.39
435.96	5502.89
436.17	5377.97
436.38	5640.11
436.59	5588.91
436.80	5539.76
437.01	5676.97
437.22	5797.80
437.43	5701.54
437.64	5345.20
437.85	5668.78
438.06	5812.14
438.27	5427.12
438.48	5601.19
438.69	5873.57
438.90	5744.55
439.11	5629.87
439.32	5859.24
439.53	5715.88
439.74	5939.11
439.95	5898.15
440.16	5824.42
440.37	5978.02
440.57	5742.50
440.78	6012.84
440.99	5959.59
441.20	5932.97
441.41	5863.33
441.62	6111.14
441.83	5902.25
442.04	6098.85
442.25	6045.60
442.46	5990.31
442.67	6129.57
442.88	6522.78
443.09	6004.64
443.30	5959.59
443.51	6014.88
443.72	6295.46
443.93	6039.46
444.14	6467.49
444.35	6078.37
444.56	6270.88
444.77	6303.65
444.98	6184.87
445.19	6209.44
445.40	6260.64
445.61	6434.72
445.81	6465.44
446.02	6465.44
446.23	6283.17
446.44	6311.84
446.65	6360.99
446.86	6455.20
447.07	6545.31
447.28	6584.22
447.49	6627.23
447.70	6420.38
447.91	6614.94
448.12	6606.75
448.33	6789.02
448.54	6758.30
448.74	6659.99
448.95	6797.21
449.16	6547.36
449.37	6905.75
449.58	6664.09
449.79	6856.60
450.00	6827.93
450.21	6758.30
450.42	6877.08
450.63	6860.70
450.84	6760.34
451.05	6936.47
451.25	6969.24
451.46	6786.97
451.67	6985.62
451.88	6995.86
452.09	7096.21
452.30	6995.86
452.51	7083.92
452.72	7163.79
452.93	7393.17
453.13	7141.27
453.34	7135.12
453.55	7014.29
453.76	7184.27
453.97	7595.92
454.18	7327.63
454.39	7473.04
454.60	7290.77
454.81	7405.46
455.01	7630.73
455.22	7214.99
455.43	7503.76
455.64	7645.07
455.85	7843.72
456.06	7923.59
456.27	7632.78
456.48	7659.40
456.68	7618.44
456.89	7729.03
457.10	7843.72
457.31	7933.83
457.52	7577.48
457.73	7851.91
457.94	8103.81
458.14	8023.94
458.35	8380.29
458.56	8210.31
458.77	8052.61
458.98	8288.13
459.19	8236.93
459.39	8275.84
459.60	8540.03
459.81	8261.51
460.02	8431.49
460.23	8359.81
460.44	8650.62
460.65	8535.93
460.85	8634.24
461.06	8652.67
461.27	8501.12
461.48	8705.92
461.69	8863.61
461.89	8507.26
462.10	8824.70
462.31	8755.07
462.52	8777.59
462.73	8884.09
462.94	9043.83
463.14	8972.15
463.35	9072.50
463.56	9346.93
463.77	9250.67
463.98	9088.89
464.18	9322.35
464.39	9371.50
464.60	9465.71
464.81	9396.08
465.02	9480.05
465.23	9656.17
465.43	9408.37
465.64	9758.57
465.85	9621.36
466.06	9699.18
466.27	9994.09
466.47	10028.90
466.68	10100.58
466.89	9838.44
467.10	10059.62
467.30	9770.86
467.51	10217.32
467.72	10352.48
467.93	10080.10
468.14	10092.39
468.34	10506.08
468.55	10465.12
468.76	10454.88
468.97	10397.54
469.17	10669.92
469.38	10706.78
469.59	10770.27
469.80	10610.53
470.01	10807.13
470.21	10872.67
470.42	11077.46
470.63	10874.71
470.84	10938.20
471.04	11114.33
471.25	11245.40
471.46	11276.12
471.67	11482.96
471.87	11382.61
472.08	11611.98
472.29	11552.59
472.50	11532.11
472.70	11679.57
472.91	11644.75
473.12	11898.70
473.33	11859.79
473.53	12033.86
473.74	11882.31
473.95	12070.73
474.16	12281.67
474.36	12439.36
474.57	12459.84
474.78	12508.99
474.99	12713.79
475.19	12529.47
475.40	12840.76
475.61	12746.56
475.81	12848.96
476.02	13119.29
476.23	13020.99
476.44	12996.41
476.64	13102.90
476.85	13442.87
477.06	13240.12
477.27	13444.91
477.47	13551.41
477.68	13655.86
477.89	13819.69
478.09	13829.93
478.30	13780.78
478.51	13977.39
478.71	14157.61
478.92	14092.07
479.13	14163.75
479.34	14386.98
479.54	14583.59
479.75	14378.79
479.96	14655.26
480.16	14610.21
480.37	14935.84
480.58	14968.60
480.78	15040.28
480.99	14898.97
481.20	15218.46
481.41	15181.59
481.61	15427.35
481.82	15324.95
482.03	15513.36
482.23	15329.05
482.44	15685.39
482.65	16039.69
482.85	15920.91
483.06	15892.24
483.27	16078.60
483.47	15947.53
483.68	15998.73
483.89	16445.19
484.09	16226.06
484.30	16396.04
484.51	16785.15
484.71	16654.08
484.92	16621.31
485.13	16736.00
485.33	16787.20
485.54	16750.34
485.75	17051.39
485.95	17334.01
486.16	17245.94
486.37	17434.36
486.57	17301.24
486.78	17417.97
486.98	17350.39
487.19	17645.30
487.40	17714.93
487.60	17825.52
487.81	17960.69
488.02	18048.75
488.22	17731.31
488.43	18036.46
488.64	18011.89
488.84	18142.96
489.05	18452.20
489.25	18407.14
489.46	18806.50
489.67	18738.91
489.87	18874.08
490.08	18904.80
490.29	18892.51
490.49	19181.28
490.70	18982.62
490.90	19160.80
491.11	19246.81
491.32	19341.02
491.52	19214.04
491.73	19435.22
491.94	19439.32
492.14	19422.94
492.35	19746.51
492.55	19879.63
492.76	19734.23
492.97	20176.59
493.17	19934.93
493.38	20086.48
493.58	20303.56
493.79	20362.95
494.00	20356.81
494.20	20541.13
494.41	20698.82
494.61	20772.55
494.82	20670.15
495.02	20371.15
495.23	21108.41
495.44	20813.51
495.64	20985.54
495.85	21270.20
496.05	21046.97
496.26	21089.98
496.47	21452.47
496.67	21057.21
496.88	21743.28
497.08	21249.72
497.29	21464.76
497.49	21825.20
497.70	21933.75
497.91	21851.83
498.11	21888.69
498.32	22066.86
498.52	22097.58
498.73	22392.49
498.93	22163.12
499.14	22486.70
499.34	22558.38
499.55	22656.68
499.76	22437.55
499.96	22634.15
500.17	22896.29
500.37	22722.21
500.58	22685.35
500.78	23088.80
500.99	23094.94
501.19	23338.65
501.40	23131.81
501.60	22877.86
501.81	23013.02
502.02	23338.65
502.22	23166.62
502.43	23586.46
502.63	23594.65
502.84	23551.64
503.04	23533.21
503.25	23811.73
503.45	24047.25
503.66	24037.01
503.86	24039.06
504.07	24139.41
504.27	23895.70
504.48	24372.88
504.68	24356.49
504.89	24612.49
505.09	24295.05
505.30	24479.37
505.50	24612.49
505.71	24491.66
505.91	24454.79
506.12	24802.95
506.32	24696.46
506.53	24962.69
506.73	24845.96
506.94	24993.41
507.14	24872.58
507.35	25034.37
507.55	25366.14
507.76	25609.85
507.96	25147.01
508.17	25638.52
508.37	25470.59
508.58	25605.75
508.78	25652.86
508.99	25759.35
509.19	25732.73
509.40	25757.30
509.60	25962.10
509.81	26003.06
510.01	25665.14
510.22	25755.26
510.42	26431.08
510.63	26300.01
510.83	26476.14
511.04	26218.10
511.24	26396.27
511.44	26461.80
511.65	26455.66
511.85	26140.27
512.06	26424.94
512.26	26416.75
512.47	26771.05
512.67	26863.21
512.88	26732.14
513.08	26457.71
513.29	26994.28
513.49	27125.35
513.69	26795.62
513.90	27215.46
514.10	27162.21
514.31	27014.76
514.51	27012.71
514.72	27346.53
514.92	27633.24
515.13	27512.41
515.33	27569.76
515.53	27326.05
515.74	27418.21
515.94	28046.93
516.15	27311.71
516.35	27457.12
516.56	27967.06
516.76	27700.83
516.96	27741.78
517.17	27864.66
517.37	27973.21
517.58	27483.74
517.78	28048.98
517.99	28497.49
518.19	28407.37
518.39	28587.60
518.60	28864.07
518.80	28485.20
519.01	28511.82
519.21	28655.18
519.41	28331.60
519.62	28427.85
519.82	28884.55
520.03	29118.02
520.23	28991.05
520.43	28960.33
520.64	29304.38
520.84	29357.63
521.05	29218.37
521.25	29488.70
521.45	29023.81
521.66	29390.40
521.86	29486.65
522.07	29763.13
522.27	29627.96
522.47	29886.01
522.68	30191.16
522.88	29976.12
523.08	30010.93
523.29	30199.35
523.49	29861.43
523.70	30172.72
523.90	30322.23
524.10	30127.67
524.31	30441.01
524.51	30193.20
524.71	30762.54
524.92	30631.47
525.12	30795.31
525.33	30746.15
525.53	30932.52
525.73	31487.52
525.94	30955.05
526.14	31053.35
526.34	31118.89
526.55	31485.47
526.75	31323.68
526.95	31657.50
527.16	31620.64
527.36	31503.90
527.56	31858.20
527.77	31696.41
527.97	31987.22
528.17	31936.02
528.38	32202.26
528.58	32091.67
528.78	32159.25
528.99	32065.05
529.19	32321.04
529.39	32171.54
529.60	32716.30
529.80	32611.85
530.00	32554.51
530.21	32773.64
530.41	32587.28
530.61	32845.32
530.82	32779.79
531.02	32859.66
531.22	33269.25
531.43	32751.12
531.63	33111.56
531.83	33547.78
532.04	33605.12
532.24	33377.79
532.44	33932.79
532.64	33871.36
532.85	33809.92
533.05	33693.18
533.25	34000.38
533.46	34104.82
533.66	34215.41
533.86	33977.85
534.07	34366.96
534.27	34534.90
534.47	34719.21
534.67	34657.78
534.88	34358.77
535.08	34326.00
535.28	34747.89
535.49	34934.25
535.69	35208.68
535.89	35368.42
536.09	35177.96
536.30	35425.76
536.50	35272.17
536.70	35337.70
536.91	35497.44
537.11	35692.00
537.31	35681.76
537.51	35540.45
537.72	36107.74
537.92	36079.07
538.12	36015.58
538.32	35825.12
538.53	36173.27
538.73	36009.43
538.93	36083.16
539.13	36138.46
539.34	36361.69
539.54	36382.16
539.74	36822.48
539.94	36464.08
540.15	36873.68
540.35	36486.61
540.55	36580.82
540.75	36720.08
540.96	36693.46
541.16	36724.18
541.36	37232.07
541.56	37283.27
541.77	37254.60
541.97	37123.53
542.17	37103.05
542.37	37457.35
542.58	37285.32
542.78	37242.31
542.98	37782.98
543.18	37475.78
543.38	37991.87
543.59	37893.57
543.79	37690.82
543.99	37905.85
544.19	37739.97
544.40	38139.32
544.60	38305.21
544.80	38028.73
545.00	38030.78
545.20	38643.12
545.41	37993.92
545.61	38327.74
545.81	38497.72
546.01	38862.26
546.21	38469.04
546.42	38518.20
546.62	38708.66
546.82	38393.27
547.02	38553.01
547.22	39030.19
547.43	38960.56
547.63	39022.00
547.83	39271.85
548.03	38841.78
548.23	39327.14
548.44	39050.67
548.64	39234.99
548.84	39206.31
549.04	39046.57
549.24	39189.93
549.45	39947.68
549.65	39398.82
549.85	39171.50
550.05	39851.42
550.25	39445.93
550.45	40220.06
550.66	39861.66
550.86	39507.37
551.06	40013.21
551.26	40066.46
551.46	39998.88
551.66	40017.31
551.87	39882.14
552.07	40281.50
552.27	40244.63
552.47	40506.77
552.67	40322.46
552.87	40076.70
553.07	40488.34
553.28	40713.62
553.48	40641.94
553.68	40816.02
553.88	41180.56
554.08	40459.67
554.28	40367.51
554.48	40969.61
554.69	40740.24
554.89	40646.04
555.09	41239.95
555.29	40713.62
555.49	40932.75
555.69	40746.39
555.89	41012.62
556.10	41637.25
556.30	41094.54
556.50	41600.39
556.70	41158.03
556.90	41426.31
557.10	41436.55
557.30	40850.83
557.50	41719.17
557.70	41581.96
557.91	41868.67
558.11	41477.51
558.31	41661.83
558.51	41194.89
558.71	41723.27
558.91	41833.86
559.11	41563.53
559.31	41891.20
559.51	41858.43
559.72	41842.05
559.92	42169.72
560.12	41917.82
560.32	42063.23
560.52	41981.31
560.72	42165.63
560.92	42257.79
561.12	42202.49
561.32	42739.06
561.52	42096.00
561.72	42562.93
561.93	42519.93
562.13	42409.34
562.33	42349.95
562.53	42870.13
562.73	42139.00
562.93	42753.40
563.13	42489.21
563.33	42368.38
563.53	42947.95
563.73	42419.58
563.93	42988.91
564.13	42954.10
564.33	42849.65
564.53	42966.38
564.74	43464.04
564.94	42964.34
565.14	42884.47
565.34	42870.13
565.54	42866.03
565.74	43509.10
565.94	43259.24
566.14	43513.19
566.34	43218.28
566.54	43902.31
566.74	43582.82
566.94	43414.89
567.14	43623.78
567.34	43566.44
567.54	43373.93
567.74	43586.92
567.94	43638.12
568.14	43816.29
568.34	44342.62
568.54	44000.61
568.74	43935.07
568.94	43920.74
569.14	44455.26
569.34	44184.93
569.54	44037.47
569.75	44150.11
569.95	44234.08
570.15	44741.97
570.35	44711.25
570.55	44684.63
570.75	44643.67
570.95	44586.33
571.15	44496.22
571.35	44332.38
571.55	44520.79
571.75	44791.12
571.95	45051.22
572.15	44574.04
572.35	44780.88
572.55	44715.35
572.75	44942.67
572.95	45059.41
573.15	45036.88
573.35	45073.74
573.55	44856.66
573.75	44879.19
573.95	45118.80
574.15	44967.25
574.35	45591.88
574.55	45454.67
574.75	44936.53
574.95	45634.89
575.15	45368.65
575.34	45309.26
575.54	45454.67
575.74	45526.35
575.94	45919.56
576.14	45747.53
576.34	45935.94
576.54	46136.64
576.74	46384.44
576.94	46030.15
577.14	46355.77
577.34	46402.88
577.54	45962.56
577.74	46265.66
577.94	46529.85
578.14	46665.02
578.34	46728.50
578.54	46038.34
578.74	46280.00
578.94	46570.81
579.14	46316.86
579.34	46454.08
579.54	46724.41
579.74	47254.83
579.94	46630.20
580.13	46822.71
580.33	46812.47
580.53	46992.69
580.73	46826.81
580.93	47060.27
581.13	47166.77
581.33	47467.82
581.53	47236.40
581.73	47271.21
581.93	47584.55
582.13	47117.62
582.33	47699.24
582.53	47486.25
582.73	47623.47
582.92	47693.10
583.12	47945.00
583.32	47701.29
583.52	47721.77
583.72	48319.77
583.92	47922.47
584.12	47822.12
584.32	48207.14
584.52	47926.56
584.72	48117.03
584.92	48063.78
585.11	48543.00
585.31	48051.49
585.51	48672.03
585.71	47881.51
585.91	48608.54
586.11	48026.92
586.31	47990.05
586.51	48313.63
586.71	48803.10
586.91	48735.51
587.10	48721.18
587.30	48891.16
587.50	48706.84
587.70	49005.84
587.90	48411.93
588.10	48823.58
588.30	48850.20
588.50	49136.91
588.69	48766.23
588.89	48618.78
589.09	49077.52
589.29	49427.73
589.49	49425.68
589.69	48958.74
589.89	49431.82
590.08	49329.42
590.28	49194.26
590.48	49255.70
590.68	49167.63
590.88	49800.46
591.08	49204.50
591.28	49128.72
591.47	49573.13
591.67	49530.12
591.87	49485.07
592.07	49650.95
592.27	49855.75
592.47	49579.28
592.67	49827.08
592.86	49634.57
593.06	49739.02
593.26	49829.13
593.46	49952.01
593.66	50099.46
593.86	49962.25
594.05	49693.96
594.25	50369.79
594.45	49900.81
594.65	50183.43
594.85	49751.30
595.05	50236.67
595.24	50324.74
595.44	50052.36
595.64	50502.91
595.84	50261.25
596.04	50468.09
596.23	50621.69
596.43	50519.29
596.63	50365.70
596.83	50554.11
597.03	50832.63
597.22	51062.00
597.42	50410.75
597.62	51033.33
597.82	50898.17
598.02	50605.31
598.21	51072.24
598.41	50572.54
598.61	50560.25
598.81	50775.29
599.01	50967.80
599.20	51412.21
599.40	50857.21
599.60	51139.83
599.80	51315.95
600.00	51471.60
600.19	51397.87
600.39	51084.53
600.59	51809.51
600.79	51244.27
600.98	51266.80
601.18	51387.63
601.38	51963.11
601.58	51832.04
601.78	51770.60
601.97	51752.17
602.17	51819.75
602.37	52042.98
602.57	52004.07
602.76	52178.15
602.96	51811.56
603.16	52298.98
603.36	52163.81
603.55	52329.70
603.75	52141.28
603.95	52274.40
604.15	52270.31
604.34	52159.72
604.54	52032.74
604.74	52221.16
604.94	52249.83
605.13	52647.13
605.33	52542.69
605.53	52260.07
605.73	52911.32
605.92	52298.98
606.12	52708.57
606.32	52810.97
606.52	52907.22
606.71	52557.02
606.91	53175.51
607.11	52606.17
607.30	52894.94
607.50	52577.50
607.70	53134.55
607.90	52843.74
608.09	53087.45
608.29	52935.90
608.49	52655.32
608.68	52696.28
608.88	53005.53
609.08	53030.10
609.28	53183.70
609.47	52946.14
609.67	52956.38
609.87	53421.26
610.06	53628.11
610.26	53646.54
610.46	53282.00
610.66	53142.74
610.85	53460.18
611.05	53353.68
611.25	53701.84
611.44	53056.73
611.64	53140.69
611.84	53236.95
612.03	53538.00
612.23	53712.08
612.43	53433.55
612.62	53445.84
612.82	53327.06
613.02	53802.19
613.21	53353.68
613.41	53390.55
613.61	53451.98
613.80	53486.80
614.00	53744.84
614.20	53828.81
614.39	53861.58
614.59	53800.14
614.79	53863.63
614.98	53458.13
615.18	53605.58
615.38	53736.65
615.57	53929.16
615.77	53720.27
615.97	53937.35
616.16	53624.01
616.36	53732.56
616.56	53621.97
616.75	53503.18
616.95	53023.96
617.15	53638.35
617.34	53759.18
617.54	53476.56
617.74	54058.18
617.93	53726.41
618.13	53380.31
618.32	53773.52
618.52	53736.65
618.72	53374.16
618.91	53425.36
619.11	53482.70
619.31	53624.01
619.50	53515.47
619.70	52946.14
619.90	53886.15
620.09	53933.26
620.29	53707.98
620.48	53873.87
620.68	53884.11
620.88	53337.30
621.07	53474.51
621.27	53466.32
621.46	53378.26
621.66	53822.67
621.86	53712.08
622.05	53247.19
622.25	54293.70
622.44	53494.99
622.64	53388.50
622.84	53806.28
623.03	53671.12
623.23	53613.77
623.42	53482.70
623.62	53736.65
623.82	53955.78
624.01	53757.13
624.21	53646.54
624.40	53572.81
624.60	53777.61
624.80	53861.58
624.99	53712.08
625.19	53468.37
625.38	53978.31
625.58	53720.27
625.77	53773.52
625.97	53572.81
626.17	53318.87
626.36	53656.78
626.56	53720.27
626.75	53259.48
626.95	53986.50
627.14	53628.11
627.34	53863.63
627.54	53757.13
627.73	54113.48
627.93	53880.01
628.12	53613.77
628.32	53767.37
628.51	53830.86
628.71	53845.19
628.90	53955.78
629.10	53630.16
629.30	53699.79
629.49	53890.25
629.69	53740.75
629.88	53837.00
630.08	54375.62
630.27	53822.67
630.47	54023.37
630.66	53832.91
630.86	54332.61
631.05	53640.40
631.25	54006.98
631.44	53765.32
631.64	54090.95
631.84	53707.98
632.03	54236.36
632.23	54004.94
632.42	54336.71
632.62	54289.60
632.81	54136.01
633.01	54353.09
633.20	54295.75
633.40	54222.02
633.59	54234.31
633.79	53607.63
633.98	54420.67
634.18	54076.61
634.37	54226.12
634.57	54082.76
634.76	54510.78
634.96	54785.21
635.15	54486.21
635.35	54146.25
635.54	54398.15
635.74	54521.02
635.93	54269.12
636.13	54564.03
636.32	54691.01
636.52	53994.70
636.71	54211.78
636.91	54363.33
637.10	54637.76
637.30	54633.66
637.49	54639.81
637.69	54142.15
637.88	55295.16
638.08	54197.44
638.27	54473.92
638.46	54437.06
638.66	54533.31
638.85	54101.19
639.05	54451.39
639.24	54633.66
639.44	54510.78
639.63	54914.23
639.83	54803.64
640.02	54607.04
640.22	54287.56
640.41	55229.62
640.61	54213.83
640.80	54695.10
640.99	54678.72
641.19	55256.24
641.38	54387.91
641.58	54965.43
641.77	54676.67
641.97	54969.53
642.16	54916.28
642.36	54951.10
642.55	55514.29
642.74	54611.13
642.94	55690.41
643.13	54834.36
643.33	55254.20
643.52	54891.71
643.72	54908.09
643.91	54957.24
644.10	55129.27
644.30	55727.28
644.49	55200.95
644.69	55508.14
644.88	54893.75
645.08	54912.19
645.27	55295.16
645.46	54930.62
645.66	55495.86
645.85	55342.26
646.05	55594.16
646.24	55299.25
646.43	55344.31
646.63	55626.93
646.82	55663.79
647.02	55663.79
647.21	55647.41
647.40	55704.75
647.60	56093.86
647.79	56122.54
647.99	55874.73
648.18	55729.33
648.37	56489.12
648.57	55714.99
648.76	55952.55
648.96	55710.89
649.15	56007.85
649.34	55991.47
649.54	56116.39
649.73	55825.58
649.92	56259.75
650.12	55250.10
650.31	55897.26
650.51	55884.97
650.70	56534.18
650.89	56065.19
651.09	56513.70
651.28	56038.57
651.47	55940.27
651.67	55547.06
651.86	56552.61
652.06	55706.80
652.25	56196.26
652.44	56138.92
652.64	55817.39
652.83	55772.33
653.02	55874.73
653.22	56374.44
653.41	55932.07
653.60	56276.13
653.80	56194.21
653.99	56401.06
654.18	56241.32
654.38	56104.10
654.57	56265.89
654.76	55954.60
654.96	55977.13
655.15	55684.27
655.34	56210.60
655.54	55407.79
655.73	56466.59
655.92	56403.11
656.12	56366.24
656.31	56394.92
656.50	56249.51
656.70	56403.11
656.89	56247.46
657.08	56206.50
657.28	56011.95
657.47	56421.54
657.66	56458.40
657.86	56429.73
658.05	56435.87
658.24	56388.77
658.43	55919.79
658.63	56411.30
658.82	56304.80
659.01	56870.04
659.21	56671.39
659.40	56507.55
659.59	56714.40
659.79	56351.91
659.98	56931.48
660.17	56644.77
660.36	56636.58
660.56	56571.04
660.75	56749.21
660.94	56753.31
661.14	56517.79
661.33	56472.74
661.52	55973.03
661.71	56767.65
661.91	56218.79
662.10	56425.64
662.29	56698.01
662.49	56460.45
662.68	56712.35
662.87	56677.54
663.06	56323.24
663.26	56450.21
663.45	56655.01
663.64	56798.37
663.83	56851.61
664.03	56741.02
664.22	56851.61
664.41	56595.62
664.60	56102.06
664.80	56396.96
664.99	56566.94
665.18	56939.68
665.37	56675.49
665.57	56360.10
665.76	56616.10
665.95	56884.38
666.14	56718.49
666.34	56317.09
666.53	56339.62
666.72	56255.65
666.91	56456.35
667.11	56269.99
667.30	56448.16
667.49	56253.61
667.68	56620.19
667.87	56396.96
668.07	56734.88
668.26	56673.44
668.45	56595.62
668.64	56407.20
668.84	56810.65
669.03	56865.95
669.22	56784.03
669.41	56628.38
669.60	56763.55
669.80	56620.19
669.99	57046.17
670.18	56325.28
670.37	56409.25
670.57	57111.70
670.76	56499.36
670.95	56726.69
671.14	56513.70
671.33	56552.61
671.53	56808.61
671.72	56612.00
671.91	56356.00
672.10	56605.86
672.29	56566.94
672.48	56413.35
672.68	56949.92
672.87	56515.75
673.06	56667.30
673.25	56067.24
673.44	56220.84
673.64	56220.84
673.83	56163.50
674.02	56073.38
674.21	56030.38
674.40	56530.08
674.59	55958.70
674.79	56517.79
674.98	55753.90
675.17	56038.57
675.36	56218.79
675.55	56468.64
675.74	55755.95
675.94	56153.26
676.13	56327.33
676.32	56489.12
676.51	57042.07
676.70	56145.06
676.89	56290.47
677.08	55979.18
677.28	56036.52
677.47	56485.03
677.66	55993.51
677.85	56384.68
678.04	56376.48
678.23	56632.48
678.42	56544.42
678.62	55794.86
678.81	56378.53
679.00	56046.76
679.19	56833.18
679.38	56413.35
679.57	56155.30
679.76	56138.92
679.96	56204.45
680.15	55942.31
680.34	56110.25
680.53	55923.88
680.72	56392.87
680.91	56290.47
681.10	56091.82
681.29	56419.49
681.48	55956.65
681.68	55979.18
681.87	55688.37
682.06	55893.16
682.25	55882.92
682.44	55784.62
682.63	56149.16
682.82	55209.14
683.01	55669.93
683.20	55301.30
683.39	55428.27
683.59	55340.21
683.78	55874.73
683.97	55516.34
684.16	55766.19
684.35	55176.37
684.54	55899.31
684.73	55540.91
684.92	55547.06
685.11	55485.62
685.30	55614.64
685.49	55655.60
685.69	55227.57
685.88	55182.52
686.07	55424.18
686.26	55065.78
686.45	55415.99
686.64	55356.60
686.83	54908.09
687.02	55604.40
687.21	55545.01
687.40	55424.18
687.59	55149.75
687.78	55499.95
687.97	54938.81
688.16	55170.23
688.35	54944.95
688.54	54588.61
688.74	55569.58
688.93	54961.34
689.12	55342.26
689.31	54899.90
689.50	55309.49
689.69	54570.18
689.88	54068.42
690.07	55362.74
690.26	54619.33
690.45	55047.35
690.64	54793.40
690.83	54985.91
691.02	54830.27
691.21	54639.81
691.40	54754.49
691.59	54817.98
691.78	54394.05
691.97	54731.96
692.16	54527.17
692.35	54725.82
692.54	54564.03
692.73	54973.63
692.92	54379.71
693.11	54455.49
693.30	54154.44
693.49	54250.69
693.68	54559.94
693.87	54254.79
694.06	54392.00
694.25	54326.47
694.44	54504.64
694.63	54265.03
694.82	54363.33
695.01	53785.80
695.20	54101.19
695.39	54490.30
695.58	53863.63
695.77	53798.09
695.96	53617.87
696.15	54246.60
696.34	53759.18
696.53	54207.68
696.72	54174.92
696.91	53540.05
697.10	54271.17
697.29	53605.58
697.48	53957.83
697.67	54025.42
697.86	53425.36
698.05	53628.11
698.24	53548.24
698.43	53384.40
698.62	53761.23
698.81	53697.74
699.00	53943.50
699.19	53546.19
699.38	53794.00
699.57	53398.74
699.76	54385.86
699.95	53208.28
700.14	53105.88
700.32	53359.83
700.51	53576.91
700.70	53595.34
700.89	53611.73
701.08	53785.80
701.27	53251.28
701.46	53497.04
701.65	52655.32
701.84	53388.50
702.03	53101.78
702.22	53220.56
702.41	52966.62
702.60	52888.79
702.79	52976.86
702.98	52745.44
703.17	52845.79
703.35	52817.11
703.54	52675.80
703.73	53306.58
703.92	52831.45
704.11	52794.59
704.30	52516.06
704.49	52409.57
704.68	52860.12
704.87	52704.48
705.06	52432.10
705.25	52237.54
705.43	52849.88
705.62	52866.27
705.81	52704.48
706.00	51848.42
706.19	52202.72
706.38	52180.20
706.57	52335.84
706.76	52208.87
706.95	52675.80
707.14	51905.77
707.32	51819.75
707.51	51778.79
707.70	52077.80
707.89	52278.50
708.08	52126.95
708.27	52339.94
708.46	52616.41
708.65	52104.42
708.84	52253.92
709.02	52290.79
709.21	51832.04
709.40	51479.79
709.59	52294.88
709.78	51567.85
709.97	51690.73
710.16	51743.98
710.34	51690.73
710.53	51959.02
710.72	51922.15
710.91	51733.74
711.10	51780.84
711.29	51811.56
711.48	51494.13
711.66	51844.33
711.85	51150.07
712.04	51434.74
712.23	51318.00
712.42	51668.20
712.61	51119.35
712.80	51279.09
712.98	51434.74
713.17	51195.12
713.36	51182.84
713.55	51277.04
713.74	51307.76
713.93	51709.16
714.11	51096.82
714.30	51004.66
714.49	51008.76
714.68	51569.90
714.87	51471.60
715.06	51156.21
715.24	51082.48
715.43	51029.24
715.62	50681.08
715.81	50887.93
716.00	51066.10
716.18	50384.13
716.37	50820.34
716.56	50605.31
716.75	51059.96
716.94	50881.78
717.12	50273.54
717.31	50945.27
717.50	50777.34
717.69	50124.04
717.88	50234.63
718.06	50533.63
718.25	50543.87
718.44	49886.47
718.63	50414.85
718.82	49945.86
719.00	50322.69
719.19	50136.32
719.38	49683.72
719.57	49960.20
719.76	49659.15
719.94	49446.16
720.13	49616.14
720.32	49909.00
720.51	49272.08
720.69	49485.07
720.88	49171.73
721.07	49620.23
721.26	49153.30
721.44	49173.78
721.63	49526.03
721.82	49149.20
722.01	48786.71
722.20	49509.64
722.38	49267.98
722.57	48588.06
722.76	48964.88
722.95	48889.11
723.13	49093.91
723.32	48239.90
723.51	48563.48
723.70	48684.31
723.88	49083.67
724.07	48782.62
724.26	49440.01
724.44	47924.52
724.63	48846.10
724.82	48676.12
725.01	48430.36
725.19	48420.13
725.38	48518.43
725.57	48753.94
725.76	48487.71
725.94	48121.12
726.13	48090.40
726.32	48346.40
726.51	47914.28
726.69	48293.15
726.88	48360.73
727.07	48026.92
727.25	48416.03
727.44	48252.19
727.63	48203.04
727.82	48217.38
728.00	48168.22
728.19	48291.10
728.38	48530.72
728.56	47703.34
728.75	48131.36
728.94	47932.71
729.12	48352.54
729.31	47973.67
729.50	48004.39
729.69	48145.70
729.87	47904.04
730.06	47832.36
730.25	48008.48
730.43	48299.30
730.62	47672.62
730.81	48117.03
730.99	48028.96
731.18	48106.79
731.37	48385.31
731.55	48002.34
731.74	48362.78
731.93	48010.53
732.11	48430.36
732.30	48157.99
732.49	47428.91
732.67	48088.35
732.86	48018.72
733.05	47549.74
733.23	48088.35
733.42	47797.54
733.61	47940.90
733.79	47760.68
733.98	47992.10
734.17	47588.65
734.35	47918.37
734.54	47537.45
734.73	47998.24
734.91	47697.19
735.10	47858.98
735.29	47818.02
735.47	47746.34
735.66	47686.95
735.84	47865.13
736.03	47469.87
736.22	48059.68
736.40	47703.34
736.59	47648.04
736.78	47330.61
736.96	47588.65
737.15	47422.76
737.33	47412.52
737.52	47602.99
737.71	47377.71
737.89	47220.02
738.08	47195.44
738.27	47093.04
738.45	47641.90
738.64	47363.37
738.82	47226.16
739.01	47525.16
739.20	47158.58
739.38	47252.78
739.57	47357.23
739.75	47293.74
739.94	46992.69
740.13	47207.73
740.31	47068.47
740.50	47047.99
740.68	47093.04
740.87	47158.58
741.06	47240.50
741.24	46812.47
741.43	46970.16
741.61	46830.90
741.80	46372.16
741.99	46810.42
742.17	46982.45
742.36	46683.45
742.54	46597.43
742.73	47027.51
742.91	47033.65
743.10	46417.21
743.29	46658.87
743.47	47088.95
743.66	46603.58
743.84	46527.80
744.03	46599.48
744.21	46660.92
744.40	47052.08
744.59	46468.41
744.77	45985.09
744.96	46724.41
745.14	46523.71
745.33	46394.68
745.51	46261.57
745.70	46572.86
745.88	46097.73
746.07	46437.69
746.26	45948.23
746.44	46200.13
746.63	46241.09
746.81	46820.66
747.00	45915.46
747.18	46310.72
747.37	46435.64
747.55	46208.32
747.74	46406.97
747.92	45380.94
748.11	46032.19
748.29	45976.90
748.48	46374.20
748.66	45638.98
748.85	45880.64
749.03	45591.88
749.22	45952.32
749.41	45919.56
749.59	46046.53
749.78	45542.73
749.96	45581.64
750.15	45567.30
750.33	45518.15
750.52	45503.82
750.70	45589.83
750.89	45512.01
751.07	45030.74
751.26	45622.60
751.44	45219.15
751.63	45378.89
751.81	45397.32
752.00	44946.77
752.18	45458.76
752.37	45147.47
752.55	45004.11
752.74	44926.29
752.92	45397.32
753.10	45469.00
753.29	45266.25
753.47	45133.14
753.66	44461.40
753.84	44924.24
754.03	44979.54
754.21	44668.25
754.40	45096.27
754.58	45110.61
754.77	45020.50
754.95	44291.42
755.14	44490.07
755.32	44830.04
755.51	44434.78
755.69	44569.94
755.88	44766.55
756.06	44741.97
756.24	44373.34
756.43	44838.23
756.61	44414.30
756.80	44463.45
756.98	44213.60
757.17	44254.56
757.35	44229.98
757.54	44191.07
757.72	44516.70
757.90	44066.14
758.09	44316.00
758.27	44268.89
758.46	43818.34
758.64	43957.60
758.83	44189.02
759.01	43998.56
759.19	44156.25
759.38	43867.49
759.56	43892.07
759.75	44084.58
759.93	43902.31
760.12	43453.80
760.30	43867.49
760.48	43550.06
760.67	43453.80
760.85	43527.53
761.04	43883.87
761.22	43920.74
761.40	43816.29
761.59	43201.90
761.77	43136.37
761.96	43402.60
762.14	43312.49
762.32	43009.39
762.51	43206.00
762.69	43109.74
762.88	43044.21
763.06	43122.03
763.24	42956.14
763.43	43244.91
763.61	43050.35
763.80	43128.17
763.98	43031.92
764.16	43001.20
764.35	42329.47
764.53	42780.02
764.72	42644.85
764.90	43009.39
765.08	42868.08
765.27	42655.09
765.45	42577.27
765.63	42397.05
765.82	42909.04
766.00	42468.73
766.18	42669.43
766.37	42548.60
766.55	42169.72
766.74	42683.76
766.92	42374.52
767.10	42454.39
767.29	42288.51
767.47	41948.54
767.65	42126.72
767.84	41760.13
768.02	42218.88
768.20	41883.01
768.39	41751.94
768.57	41792.90
768.75	41928.06
768.94	41848.19
769.12	41860.48
769.30	41551.24
769.49	41526.66
769.67	41807.23
769.85	41018.77
770.04	41309.58
770.22	41459.08
770.40	41137.55
770.59	41164.17
770.77	41321.87
770.95	41739.65
771.14	41033.10
771.32	40768.91
771.50	40928.66
771.69	40758.67
771.87	40932.75
772.05	41393.54
772.24	40912.27
772.42	41121.16
772.60	40994.19
772.78	40641.94
772.97	40656.28
773.15	40928.66
773.33	40740.24
773.52	40773.01
773.70	40801.68
773.88	41080.21
774.07	40183.19
774.25	40973.71
774.43	41014.67
774.61	40732.05
774.80	40783.25
774.98	40482.20
775.16	40605.08
775.34	40926.61
775.53	40807.83
775.71	41309.58
775.89	40465.81
776.08	40727.95
776.26	41178.51
776.44	40674.71
776.62	40648.08
776.81	40609.17
776.99	40850.83
777.17	40932.75
777.35	41108.88
777.54	40940.94
777.72	41014.67
777.90	40801.68
778.08	41344.39
778.27	40971.66
778.45	41442.70
778.63	41295.24
778.81	40861.07
779.00	41672.07
779.18	41112.97
779.36	41768.32
779.54	40891.79
779.73	41194.89
779.91	41493.89
780.09	41162.12
780.27	41391.50
780.46	41211.28
780.64	41682.31
780.82	41282.95
781.00	41194.89
781.19	41497.99
781.37	41610.63
781.55	41489.80
781.73	41629.06
781.91	41432.46
782.10	41592.20
782.28	41493.89
782.46	41313.67
782.64	42108.29
782.82	41471.37
783.01	41461.13
783.19	42089.85
783.37	41858.43
783.55	41653.64
783.74	41633.16
783.92	41571.72
784.10	41745.80
784.28	42005.89
784.46	41321.87
784.64	41571.72
784.83	41563.53
785.01	41721.22
785.19	41764.23
785.37	41536.90
785.55	41872.77
785.74	41336.20
785.92	41219.47
786.10	41731.46
786.28	41637.25
786.46	41272.71
786.64	40912.27
786.83	41411.98
787.01	41231.75
787.19	41342.35
787.37	41409.93
787.55	41086.35
787.74	41133.45
787.92	41334.15
788.10	41119.12
788.28	41000.33
788.46	41198.99
788.64	40646.04
788.82	41084.30
789.01	40963.47
789.19	40949.14
789.37	41340.30
789.55	41063.82
789.73	40058.27
789.91	40488.34
790.09	40975.76
790.28	40582.55
790.46	40562.07
790.64	40539.54
790.82	40469.91
791.00	40041.88
791.18	40218.01
791.36	40478.10
791.55	40129.95
791.73	40113.56
791.91	39544.23
792.09	39630.24
792.27	40050.08
792.45	39882.14
792.63	39775.65
792.81	39458.21
793.00	39499.17
793.18	39415.21
793.36	39151.02
793.54	39402.92
793.72	39251.37
793.90	39083.44
794.08	38706.61
794.26	39204.27
794.44	38647.22
794.62	38270.39
794.81	38911.41
794.99	38868.40
795.17	38507.96
795.35	38677.94
795.53	38788.53
795.71	38606.26
795.89	38075.84
796.07	37973.44
796.25	37924.29
796.43	37973.44
796.61	37903.81
796.80	37459.40
796.98	37625.28
797.16	37744.06
797.34	37807.55
797.52	37375.43
797.70	37899.71
797.88	37569.99
798.06	37129.67
798.24	37483.97
798.42	37227.98
798.60	37074.38
798.78	37103.05
798.96	37004.75
799.14	36636.11
799.32	37021.13
799.51	36603.35
799.69	36513.23
799.87	36709.84
800.05	36566.48
800.23	36435.41
800.41	36496.85
800.59	36406.74
800.77	36394.45
800.95	35552.74
801.13	36206.04
801.31	35853.79
801.49	35796.45
801.67	35874.27
801.85	35812.83
802.03	35696.10
802.21	35061.22
802.39	35415.52
802.57	35255.78
802.75	35050.99
802.93	35042.79
803.11	35321.32
803.29	34862.57
803.47	34758.13
803.65	34819.56
803.83	34776.56
804.01	35151.34
804.19	34549.23
804.37	34600.43
804.55	34352.63
804.73	34883.05
804.91	34381.30
805.09	34061.82
805.27	34332.15
805.45	34631.15
805.63	34088.44
805.81	34315.76
805.99	34477.55
806.17	34084.34
806.35	33977.85
806.53	33883.64
806.71	34031.10
806.89	33719.81
807.07	33897.98
807.25	33730.05
807.43	33658.37
807.61	33996.28
807.79	33728.00
807.97	33127.94
808.15	33365.51
808.33	32972.30
808.51	33218.05
808.69	32945.67
808.87	33074.70
809.05	32810.51
809.23	32583.18
809.41	32310.80
809.59	32800.27
809.77	32816.65
809.95	32423.44
810.13	32671.25
810.31	32400.91
810.49	32648.72
810.67	32611.85
810.84	32470.54
811.02	32220.69
811.20	31862.30
811.38	32067.09
811.56	31850.01
811.74	31850.01
811.92	31761.95
812.10	31589.92
812.28	31940.12
812.46	32003.61
812.64	31639.07
812.82	31438.37
813.00	31899.16
813.18	31301.15
813.36	31430.18
813.53	31333.92
813.71	31354.40
813.89	31489.57
814.07	31286.82
814.25	31182.37
814.43	31290.91
814.61	31061.54
814.79	30893.61
814.97	30907.94
815.15	30977.58
815.33	30789.16
815.50	30524.97
815.68	30610.99
815.86	30799.40
816.04	30600.75
816.22	30680.62
816.40	30721.58
816.58	30664.24
816.76	30017.08
816.94	30389.81
817.11	30049.85
817.29	30185.01
817.47	29822.52
817.65	29933.11
817.83	30146.10
818.01	30109.24
818.19	29904.44
818.37	29922.87
818.54	29572.67
818.72	29584.96
818.90	29527.61
819.08	30115.38
819.26	29658.68
819.44	29382.21
819.62	29390.40
819.80	29339.20
819.97	29650.49
820.15	29089.35
820.33	29236.80
820.51	29152.84
820.69	28968.52
820.87	29277.76
821.05	29468.22
821.22	28935.75
821.40	29308.48
821.58	28921.41
821.76	28577.36
821.94	29085.25
822.12	28919.37
822.29	28941.89
822.47	28859.98
822.65	28925.51
822.83	29036.10
823.01	28919.37
823.19	28882.50
823.36	28270.16
823.54	28415.57
823.72	28704.33
823.90	28530.25
824.08	28128.85
824.25	28526.16
824.43	28446.29
824.61	28405.33
824.79	28358.22
824.97	28337.74
825.15	28139.09
825.32	28407.37
825.50	27596.38
825.68	27893.33
825.86	28112.47
826.04	28100.18
826.21	28196.43
826.39	27973.21
826.57	27911.77
826.75	27803.22
826.93	27539.04
827.10	27596.38
827.28	27403.87
827.46	27717.21
827.64	27698.78
827.81	27493.98
827.99	27479.64
828.17	27311.71
828.35	27170.40
828.53	27324.00
828.70	27379.29
828.88	27237.98
829.06	27364.96
829.24	27041.38
829.41	26846.82
829.59	27272.80
829.77	27074.15
829.95	27362.91
830.12	27000.42
830.30	26885.73
830.48	27094.63
830.66	26957.41
830.84	27068.00
831.01	26639.98
831.19	27004.52
831.37	26807.91
831.55	26613.35
831.72	26609.26
831.90	26734.18
832.08	26695.27
832.25	26453.61
832.43	26390.13
832.61	26551.91
832.79	26338.93
832.96	26377.84
833.14	26484.33
833.32	26820.20
833.50	26500.72
833.67	26275.44
833.85	26076.79
834.03	26027.63
834.20	26455.66
834.38	26224.24
834.56	26293.87
834.74	25900.66
834.91	26187.38
835.09	25888.37
835.27	25654.90
835.44	25820.79
835.62	25765.49
835.80	25708.15
835.98	25802.36
836.15	25661.05
836.33	25751.16
836.51	25960.05
836.68	25636.47
836.86	25771.64
837.04	25640.57
837.21	25628.28
837.39	25607.80
837.57	25880.18
837.75	25679.48
837.92	25458.30
838.10	25372.28
838.28	25247.36
838.45	25278.08
838.63	25316.99
838.81	25380.48
838.98	25212.54
839.16	24954.50
839.34	25249.41
839.51	24882.82
839.69	25087.62
839.87	24870.53
840.04	24712.84
840.22	25226.88
840.40	24723.08
840.57	24663.69
840.75	25134.72
840.93	24387.21
841.10	24837.76
841.28	24811.14
841.46	24696.46
841.63	24905.35
841.81	24483.47
841.98	24315.53
842.16	24667.78
842.34	24485.51
842.51	24297.10
842.69	24608.39
842.87	24376.97
843.04	24663.69
843.22	24159.89
843.40	24327.82
843.57	24133.26
843.75	24843.91
843.92	24415.88
844.10	24303.25
844.28	24536.71
844.45	24147.60
844.63	24383.12
844.81	24000.15
844.98	24311.44
845.16	24020.63
845.33	24088.21
845.51	24231.57
845.69	24176.27
845.86	24139.41
846.04	23893.65
846.21	23953.04
846.39	23727.77
846.57	23686.81
846.74	24000.15
846.92	23824.02
847.09	23641.75
847.27	23387.80
847.45	23793.30
847.62	23750.29
847.80	23563.93
847.97	23832.21
848.15	23463.58
848.32	23473.82
848.50	23752.34
848.68	23467.67
848.85	23424.67
849.03	23031.46
849.20	23295.64
849.38	23352.99
849.56	23586.46
849.73	23078.56
849.91	23160.48
850.08	23549.59
850.26	23379.61
850.43	22949.54
850.61	23000.74
850.78	22754.98
850.96	23113.38
851.14	22857.38
851.31	22894.24
851.49	23010.98
851.66	22816.42
851.84	22795.94
852.01	22865.57
852.19	22705.83
852.36	22580.90
852.54	23039.65
852.71	22980.26
852.89	22847.14
853.07	22587.05
853.24	22705.83
853.42	22830.76
853.59	22718.12
853.77	22509.22
853.94	22818.47
854.12	22654.63
854.29	22484.65
854.47	22763.17
854.64	22398.63
854.82	22394.54
854.99	22390.44
855.17	22427.31
855.34	22095.53
855.52	22400.68
855.69	22523.56
855.87	22169.26
856.04	22259.37
856.22	22017.71
856.39	22025.90
856.57	21964.46
856.74	21905.07
856.92	21876.40
857.09	21638.84
857.27	21833.39
857.44	22189.74
857.62	21929.65
857.79	21999.28
857.97	21743.28
858.14	22091.44
858.32	22042.29
858.49	22040.24
858.67	21706.42
858.84	21219.00
859.02	21972.66
859.19	21745.33
859.37	21419.71
859.54	21589.69
859.72	21636.79
859.89	21771.96
860.06	21423.80
860.24	21548.73
860.41	21485.24
860.59	21358.27
860.76	21591.73
860.94	21438.14
861.11	21429.94
861.29	21229.24
861.46	21395.13
861.64	21165.76
861.81	21034.69
861.98	21266.11
862.16	21149.37
862.33	20887.23
862.51	21122.75
862.68	20913.86
862.86	20842.18
863.03	20881.09
863.21	21141.18
863.38	20850.37
863.55	20801.22
863.73	20889.28
863.90	20786.88
864.08	20786.88
864.25	21112.51
864.43	20844.23
864.60	20672.20
864.77	20569.80
864.95	20776.64
865.12	20377.29
865.30	20692.68
865.47	20498.12
865.64	20442.82
865.82	20577.99
865.99	20715.20
866.17	20709.06
866.34	20641.48
866.51	20135.63
866.69	20289.23
866.86	20248.27
867.04	20391.62
867.21	20270.79
867.38	20219.60
867.56	20176.59
867.73	20041.42
867.91	19967.70
868.08	19941.07
868.25	19932.88
868.43	19973.84
868.60	19922.64
868.78	19865.30
868.95	20096.72
869.12	19965.65
869.30	19828.43
869.47	19934.93
869.64	19881.68
869.82	19934.93
869.99	19480.28
870.16	19590.87
870.34	19779.28
870.51	20002.51
870.69	19275.48
870.86	19707.60
871.03	19609.30
871.21	19355.35
871.38	19717.84
871.55	19656.40
871.73	19467.99
871.90	19410.65
872.07	19523.29
872.25	19066.59
872.42	19396.31
872.59	19523.29
872.77	19152.60
872.94	19201.76
873.11	19103.45
873.29	18953.95
873.46	18999.01
873.63	18947.81
873.81	19039.97
873.98	18822.88
874.15	18921.18
874.33	18552.55
874.50	18575.08
874.67	18630.37
874.85	18597.60
875.02	18523.88
875.19	18597.60
875.37	18630.37
875.54	18421.48
875.71	18577.12
875.88	18591.46
876.06	18542.31
876.23	18376.42
876.40	18386.66
876.58	18331.37
876.75	18380.52
876.92	18489.06
877.10	18288.36
877.27	18267.88
877.44	18028.27
877.61	18255.59
877.79	18089.71
877.96	18050.80
878.13	18200.30
878.31	17858.29
878.48	17983.21
878.65	17905.39
878.82	17608.44
879.00	17608.44
879.17	17784.56
879.34	17682.16
879.51	17723.12
879.69	17438.45
879.86	17608.44
880.03	17397.49
880.21	17409.78
880.38	17493.75
880.55	17542.90
880.72	17497.84
880.90	17493.75
881.07	17485.56
881.24	17256.18
881.41	17508.08
881.59	17305.34
881.76	17192.70
881.93	16916.22
882.10	17266.42
882.28	17055.48
882.45	17125.11
882.62	17190.65
882.79	17221.37
882.96	16934.65
883.14	17049.34
883.31	17026.81
883.48	17106.68
883.65	17008.38
883.83	16922.37
884.00	16858.88
884.17	17118.97
884.34	16934.65
884.51	16860.93
884.69	16838.40
884.86	16858.88
885.03	16905.98
885.20	16824.06
885.38	16834.30
885.55	16707.33
885.72	16785.15
885.89	16662.27
886.06	17020.67
886.24	16662.27
886.41	16457.48
886.58	16676.61
886.75	16813.82
886.92	16572.16
887.10	16873.21
887.27	16668.42
887.44	16547.59
887.61	16715.52
887.78	16645.89
887.95	16570.12
888.13	16217.86
888.30	16293.64
888.47	16340.74
888.64	16402.18
888.81	16568.07
888.99	16260.87
889.16	16135.95
889.33	16123.66
889.50	16199.43
889.67	16221.96
889.84	16031.50
890.01	16125.71
890.19	15957.77
890.36	16209.67
890.53	16043.79
890.70	16029.45
890.87	16228.10
891.04	15771.41
891.22	15941.39
891.39	15947.53
891.56	15838.99
891.73	15691.54
891.90	15716.11
892.07	15519.51
892.24	15838.99
892.42	15791.89
892.59	15673.10
892.76	15421.20
892.93	15746.83
893.10	15820.56
893.27	15511.32
893.44	15314.71
893.61	15654.67
893.79	15736.59
893.96	15519.51
894.13	15359.77
894.30	15685.39
894.47	15378.20
894.64	15769.36
894.81	15406.87
894.98	15556.37
895.15	15666.96
895.33	15374.10
895.50	15636.24
895.67	15492.88
895.84	15396.63
896.01	15585.04
896.18	15318.81
896.35	15591.19
896.52	15091.48
896.69	15173.40
896.86	15482.64
897.04	15243.03
897.21	15542.03
897.38	15263.51
897.55	15132.44
897.72	15419.16
897.89	15316.76
898.06	15261.46
898.23	15183.64
898.40	15396.63
898.57	15269.66
898.74	15232.79
898.91	15265.56
899.08	15365.91
899.26	15316.76
899.43	15216.41
899.60	15003.42
899.77	15331.09
899.94	15378.20
900.11	15132.44
900.28	15384.34
900.45	15263.51
900.62	15101.72
900.79	15265.56
900.96	15200.02
901.13	15255.32
901.30	15167.26
901.47	15083.29
901.64	15150.87
901.81	15228.70
901.98	14948.12
902.15	15365.91
902.32	14976.80
902.49	15341.33
902.66	15308.57
902.83	15060.76
903.01	15486.74
903.18	15275.80
903.35	15152.92
903.52	15122.20
903.69	15187.74
903.86	15068.95
904.03	15247.13
904.20	15417.11
904.37	15288.09
904.54	15071.00
904.71	15191.83
904.88	15005.47
905.05	15116.06
905.22	15105.82
905.39	15060.76
905.56	15085.34
905.73	15095.58
905.90	15036.19
906.07	15324.95
906.24	15144.73
906.41	15054.62
906.58	15251.22
906.75	15105.82
906.92	15062.81
907.09	15271.70
907.26	15038.23
907.43	14921.50
907.60	15161.11
907.77	15427.35
907.93	14817.05
908.10	15077.15
908.27	15327.00
908.44	15105.82
908.61	14913.31
908.78	15044.38
908.95	14993.18
909.12	15034.14
909.29	15109.91
909.46	14853.92
909.63	15073.05
909.80	15001.37
909.97	15120.15
910.14	15001.37
910.31	14907.16
910.48	14987.04
910.65	15011.61
910.82	14868.25
910.99	15034.14
911.16	14864.16
911.33	14970.65
911.50	14790.43
911.66	15027.99
911.83	14694.18
912.00	14788.38
912.17	14516.00
912.34	14536.48
912.51	14565.15
912.68	14516.00
912.85	14423.84
913.02	14565.15
913.19	14518.05
913.36	14776.09
913.53	14573.35
913.70	14335.78
913.86	14671.65
914.03	14425.89
914.20	14659.36
914.37	14550.82
914.54	14309.16
914.71	14475.04
914.88	14427.94
915.05	14169.90
915.22	14358.31
915.39	14278.44
915.55	14249.77
915.72	14190.38
915.89	14049.07
916.06	14102.31
916.23	14024.49
916.40	13924.14
916.57	13754.16
916.74	13928.24
916.91	13756.21
917.07	13719.34
917.24	13799.21
917.41	13991.72
917.58	13715.25
917.75	13672.24
917.92	13406.00
918.09	13692.72
918.26	13584.18
918.42	13496.11
918.59	13522.74
918.76	13303.60
918.93	13309.75
919.10	13193.01
919.27	13545.27
919.44	13391.67
919.60	13356.85
919.77	13147.96
919.94	13225.78
920.11	13150.01
920.28	13201.21
920.45	13250.36
920.61	12889.92
920.78	13057.85
920.95	12859.20
921.12	13107.00
921.29	13039.42
921.46	12986.17
921.62	12748.61
921.79	12789.56
921.96	12764.99
922.13	12599.10
922.30	12543.81
922.47	12470.08
922.63	12506.95
922.80	12586.82
922.97	12429.12
923.14	12308.29
923.31	12533.57
923.47	12201.80
923.64	12537.66
923.81	12265.28
923.98	12052.30
924.15	12068.68
924.32	12017.48
924.48	12207.94
924.65	12164.93
924.82	12058.44
924.99	12021.58
925.15	11579.22
925.32	12089.16
925.49	12023.62
925.66	11820.88
925.83	11534.16
925.99	11683.66
926.16	11679.57
926.33	11808.59
926.50	11470.67
926.67	11722.57
926.83	11485.01
927.00	11485.01
927.17	11407.19
927.34	11288.40
927.50	11245.40
927.67	11538.26
927.84	11286.36
928.01	11233.11
928.17	11073.37
928.34	11089.75
928.51	11069.27
928.68	11145.05
928.84	11165.53
929.01	10848.09
929.18	10688.35
929.35	10850.14
929.51	10762.08
929.68	10641.25
929.85	10631.01
930.02	10661.73
930.18	10585.95
930.35	10633.05
930.52	10415.97
930.69	10583.90
930.85	10381.15
931.02	10512.22
931.19	10329.95
931.36	10176.36
931.52	10372.96
931.69	10479.46
931.86	10114.92
932.02	10157.92
932.19	10166.12
932.36	10235.75
932.53	9959.27
932.69	9906.02
932.86	9893.74
933.03	9836.39
933.19	9736.04
933.36	9693.04
933.53	9879.40
933.70	9695.08
933.86	9592.69
934.03	9756.52
934.20	9498.48
934.36	9494.38
934.53	9344.88
934.70	9154.42
934.86	9242.48
935.03	9181.04
935.20	9095.03
935.36	8951.67
935.53	9107.32
935.70	9017.21
935.86	9031.54
936.03	8716.16
936.20	8765.31
936.36	8554.37
936.53	8484.73
936.70	8507.26
936.86	8556.41
937.03	8148.87
937.20	8224.64
937.36	8288.13
937.53	8107.91
937.70	8056.71
937.86	7970.69
938.03	7866.25
938.20	7774.09
938.36	7763.85
938.53	7729.03
938.70	7442.32
938.86	7575.44
939.03	7450.51
939.20	7251.86
939.36	7344.02
939.53	7217.04
939.70	7378.83
939.86	6959.00
940.03	6971.29
940.19	6928.28
940.36	6971.29
940.53	6815.64
940.69	6492.06
940.86	6623.13
941.03	6453.15
941.19	6457.25
941.36	6379.42
941.52	6451.10
941.69	6225.82
941.86	6279.07
942.02	6272.93
942.19	6074.28
942.35	6242.21
942.52	6033.32
942.69	5906.34
942.85	5822.38
943.02	5959.59
943.18	5840.81
943.35	5681.07
943.52	5820.33
943.68	5754.79
943.85	5846.95
944.01	5742.50
944.18	5633.96
944.35	5681.07
944.51	5646.25
944.68	5427.12
944.84	5550.00
945.01	5377.97
945.17	5427.12
945.34	5402.54
945.51	5578.67
945.67	5423.02
945.84	5459.88
946.00	5269.42
946.17	5357.49
946.33	5384.11
946.50	5390.25
946.67	5416.88
946.83	5269.42
947.00	5343.15
947.16	5277.62
947.33	5490.60
947.49	5255.09
947.66	5257.14
947.82	5451.69
947.99	5263.28
948.16	5255.09
948.32	5248.94
948.49	5320.62
948.65	5369.77
948.82	5294.00
948.98	5279.66
949.15	5300.14
949.31	5400.49
949.48	5257.14
949.64	5277.62
949.81	5361.58
949.97	5294.00
950.14	5435.31
950.30	5347.25
950.47	5238.70
950.63	5396.40
950.80	5318.57
950.96	5382.06
951.13	5484.46
951.30	5353.39
951.46	5416.88
951.63	5490.60
951.79	5367.73
951.96	5425.07
952.12	5359.53
952.29	5396.40
952.45	5287.86
952.62	5445.55
952.78	5506.99
952.94	5396.40
953.11	5449.64
953.27	5316.53
953.44	5445.55
953.60	5353.39
953.77	5474.22
953.93	5423.02
954.10	5461.93
954.26	5281.71
954.43	5433.26
954.59	5531.56
954.76	5648.30
954.92	5384.11
955.09	5404.59
955.25	5498.80
955.42	5402.54
955.58	5500.84
955.75	5566.38
955.91	5554.09
956.07	5527.47
956.24	5365.68
956.40	5597.10
956.57	5572.52
956.73	5451.69
956.90	5459.88
957.06	5478.32
957.23	5517.23
957.39	5425.07
957.56	5476.27
957.72	5404.59
957.88	5359.53
958.05	5560.24
958.21	5633.96
958.38	5509.04
958.54	5410.73
958.71	5513.13
958.87	5504.94
959.03	5457.84
959.20	5558.19
959.36	5400.49
959.53	5498.80
959.69	5359.53
959.85	5466.03
960.02	5296.05
960.18	5519.28
960.35	5476.27
960.51	5539.76
960.68	5396.40
960.84	5527.47
961.00	5326.77
961.17	5466.03
961.33	5509.04
961.50	5416.88
961.66	5330.86
961.82	5472.17
961.99	5447.60
962.15	5474.22
962.31	5431.21
962.48	5386.16
962.64	5427.12
962.81	5437.36
962.97	5431.21
963.13	5574.57
963.30	5388.21
963.46	5390.25
963.62	5445.55
963.79	5484.46
963.95	5365.68
964.12	5396.40
964.28	5423.02
964.44	5384.11
964.61	5468.08
964.77	5494.70
964.93	5388.21
965.10	5386.16
965.26	5273.52
965.42	5496.75
965.59	5332.91
965.75	5351.34
965.92	5394.35
966.08	5390.25
966.24	5279.66
966.41	5294.00
966.57	5310.38
966.73	5361.58
966.90	5308.34
967.06	5234.61
967.22	5246.90
967.39	5167.03
967.55	5255.09
967.71	5345.20
967.88	5226.42
968.04	5134.26
968.20	5183.41
968.37	5210.03
968.53	5132.21
968.69	5160.88
968.85	5167.03
969.02	5314.48
969.18	5289.90
969.34	5142.45
969.51	5119.92
969.67	5296.05
969.83	5001.14
970.00	5210.03
970.16	5148.59
970.32	5156.79
970.48	5222.32
970.65	5001.14
970.81	5113.78
970.97	5160.88
971.14	4982.71
971.30	5177.26
971.46	5056.43
971.63	5087.15
971.79	5060.53
971.95	5201.84
972.11	4999.09
972.28	4927.41
972.44	5017.52
972.60	4935.60
972.76	4982.71
972.93	4839.35
973.09	4966.32
973.25	4900.79
973.42	4794.29
973.58	4890.55
973.74	4900.79
973.90	4925.36
974.07	4810.68
974.23	4945.84
974.39	4964.28
974.55	4902.84
974.72	4790.20
974.88	4634.55
975.04	4876.21
975.20	4747.19
975.37	4886.45
975.53	4890.55
975.69	4741.05
975.85	4788.15
976.01	4831.16
976.18	4673.46
976.34	4673.46
976.50	4833.21
976.66	4802.49
976.83	4736.95
976.99	4646.84
977.15	4669.37
977.31	4530.11
977.47	4710.33
977.64	4698.04
977.80	4685.75
977.96	4599.74
978.12	4702.14
978.29	4622.27
978.45	4487.10
978.61	4607.93
978.77	4571.07
978.93	4431.80
979.10	4450.24
979.26	4448.19
979.42	4530.11
979.58	4247.49
979.74	4370.37
979.91	4558.78
980.07	4491.20
980.23	4624.31
980.39	4505.53
980.55	4456.38
980.71	4333.50
980.88	4435.90
981.04	4409.28
981.20	4458.43
981.36	4382.65
981.52	4493.24
981.68	4437.95
981.85	4448.19
982.01	4386.75
982.17	4325.31
982.33	4388.80
982.49	4401.08
982.65	4239.30
982.82	4263.87
982.98	4347.84
983.14	4218.82
983.30	4370.37
983.46	4345.79
983.62	4200.38
983.79	4310.97
983.95	4212.67
984.11	4202.43
984.27	4175.81
984.43	4308.93
984.59	4245.44
984.75	4263.87
984.91	4198.34
985.08	4343.74
985.24	4026.31
985.40	4071.36
985.56	4169.66
985.72	4157.38
985.88	4231.10
986.04	4079.55
986.20	4044.74
986.37	4118.47
986.53	4003.78
986.69	4087.75
986.85	3973.06
987.01	4042.69
987.17	4089.79
987.33	4097.99
987.49	3977.16
987.65	4100.03
987.82	3989.44
987.98	3919.81
988.14	4079.55
988.30	3966.92
988.46	3887.04
988.62	4020.16
988.78	3862.47
988.94	3876.80
989.10	3885.00
989.26	3803.08
989.42	3966.92
989.59	3821.51
989.75	3758.02
989.91	3813.32
990.07	3674.06
990.23	3755.97
990.39	3805.13
990.55	3829.70
990.71	3702.73
990.87	3708.87
991.03	3807.17
991.19	3786.69
991.35	3690.44
991.51	3729.35
991.67	3862.47
991.83	3715.02
992.00	3745.73
992.16	3672.01
992.32	3708.87
992.48	3667.91
992.64	3622.86
992.80	3758.02
992.96	3684.30
993.12	3758.02
993.28	3616.71
993.44	3696.58
993.60	3575.75
993.76	3731.40
993.92	3682.25
994.08	3698.63
994.24	3463.12
994.40	3717.06
994.56	3534.79
994.72	3631.05
994.88	3530.70
995.04	3506.12
995.20	3610.57
995.36	3520.46
995.52	3684.30
995.68	3436.49
995.84	3350.48
996.00	3559.37
996.16	3508.17
996.32	3424.20
996.48	3395.53
996.64	3561.42
996.80	3411.92
996.96	3504.07
997.12	3446.73
997.28	3416.01
997.44	3352.52
997.60	3477.45
997.76	3399.63
997.92	3448.78
998.08	3315.66
998.24	3401.68
998.40	3401.68
998.56	3444.68
998.72	3286.99
998.88	3413.96
999.04	3348.43
999.20	3270.61
999.36	3227.60
999.52	3428.30
999.68	3280.85
999.84	3313.61
1000.00	3278.80
1000.16	3268.56
1000.32	3243.98
1000.48	3348.43
1000.64	3237.84
1000.80	3084.24
1000.95	3178.45
1001.11	3182.54
1001.27	3219.41
1001.43	3149.78
1001.59	3205.07
1001.75	3069.91
1001.91	3264.46
1002.07	3166.16
1002.23	3178.45
1002.39	3143.63
1002.55	3135.44
1002.71	3055.57
1002.87	3078.10
1003.03	3104.72
1003.19	3030.99
1003.34	3076.05
1003.50	3071.95
1003.66	3047.38
1003.82	3063.76
1003.98	2985.94
1004.14	3133.39
1004.30	3106.77
1004.46	3051.47
1004.62	3102.67
1004.78	3059.67
1004.94	3024.85
1005.09	3061.71
1005.25	3114.96
1005.41	3004.37
1005.57	3010.51
1005.73	2985.94
1005.89	2918.36
1006.05	3030.99
1006.21	3098.58
1006.37	2983.89
1006.52	2922.45
1006.68	2818.00
1006.84	3000.27
1007.00	2944.98
1007.16	2932.69
1007.32	2897.88
1007.48	2875.35
1007.64	2871.25
1007.79	2723.80
1007.95	2727.89
1008.11	2906.07
1008.27	2809.81
1008.43	2912.21
1008.59	2891.73
1008.75	2914.26
1008.91	2858.96
1009.06	2744.28
1009.22	2883.54
1009.38	2801.62
1009.54	2818.00
1009.70	2758.61
1009.86	2779.09
1010.01	2795.48
1010.17	2770.90
1010.33	2781.14
1010.49	2791.38
1010.65	2861.01
1010.81	2703.32
1010.96	2736.09
1011.12	2703.32
1011.28	2750.42
1011.44	2793.43
1011.60	2672.60
1011.76	2666.46
1011.91	2635.74
1012.07	2703.32
1012.23	2621.40
1012.39	2615.26
1012.55	2695.13
1012.71	2617.30
1012.86	2547.67
1013.02	2625.50
1013.18	2607.06
1013.34	2639.83
1013.50	2672.60
1013.65	2695.13
1013.81	2547.67
1013.97	2611.16
1014.13	2590.68
1014.29	2611.16
1014.44	2605.02
1014.60	2576.34
1014.76	2592.73
1014.92	2611.16
1015.07	2541.53
1015.23	2592.73
1015.39	2506.71
1015.55	2568.15
1015.71	2527.19
1015.86	2527.19
1016.02	2385.88
1016.18	2467.80
1016.34	2547.67
1016.49	2562.01
1016.65	2590.68
1016.81	2504.67
1016.97	2445.27
1017.12	2453.47
1017.28	2346.97
1017.44	2404.32
1017.60	2490.33
1017.75	2400.22
1017.91	2494.43
1018.07	2537.43
1018.23	2492.38
1018.38	2394.08
1018.54	2371.55
1018.70	2420.70
1018.86	2289.63
1019.01	2351.07
1019.17	2367.45
1019.33	2455.51
1019.49	2396.12
1019.64	2379.74
1019.80	2375.64
1019.96	2488.28
1020.12	2404.32
1020.27	2320.35
1020.43	2383.84
1020.59	2351.07
1020.74	2422.75
1020.90	2402.27
1021.06	2355.16
1021.22	2326.49
1021.37	2426.84
1021.53	2306.01
1021.69	2402.27
1021.84	2330.59
1022.00	2361.31
1022.16	2236.38
1022.31	2281.44
1022.47	2404.32
1022.63	2365.40
1022.79	2181.09
1022.94	2236.38
1023.10	2344.92
1023.26	2207.71
1023.41	2220.00
1023.57	2275.29
1023.73	2295.77
1023.88	2328.54
1024.04	2273.25
1024.20	2244.57
1024.35	2281.44
1024.51	2330.59
1024.67	2193.37
1024.82	2330.59
1024.98	2209.76
1025.14	2238.43
1025.29	2220.00
1025.45	2297.82
1025.61	2140.13
1025.76	2232.29
1025.92	2179.04
1026.08	2176.99
1026.23	2244.57
1026.39	2191.33
1026.55	2158.56
1026.70	2107.36
1026.86	2142.18
1027.02	2199.52
1027.17	2240.48
1027.33	2283.49
1027.48	2086.88
1027.64	2058.21
1027.80	2099.17
1027.95	2185.18
1028.11	2060.26
1028.27	2093.02
1028.42	2082.78
1028.58	2228.19
1028.73	2131.94
1028.89	2060.26
1029.05	2166.75
1029.20	2187.23
>>>>>End Processed Spectral Data<<<<<
