SpectraSuite Data File
++++++++++++++++++++++++++++++++++++
Date: Fri Jun 02 14:44:31 CEST 2017
User: INFO_000
Dark Spectrum Present: No
Reference Spectrum Present: No
Number of Sampled Component Spectra: 1
Spectrometers: USB4H00879
Integration Time (usec): 80000 (USB4H00879)
Spectra Averaged: 1 (USB4H00879)
Boxcar Smoothing: 0 (USB4H00879)
Correct for Electrical Dark: No (USB4H00879)
Strobe/Lamp Enabled: No (USB4H00879)
Correct for Detector Non-linearity: No (USB4H00879)
Correct for Stray Light: No (USB4H00879)
Number of Pixels in Processed Spectrum: 3648
>>>>>Begin Processed Spectral Data<<<<<
345.13	1302.51
345.34	1302.51
345.56	1302.51
345.78	1196.01
345.99	1255.40
346.21	1683.43
346.42	1660.90
346.64	1642.47
346.86	1779.68
347.07	1583.08
347.29	1705.96
347.50	1605.61
347.72	1708.01
347.94	1712.10
348.15	1515.50
348.37	1626.09
348.59	1712.10
348.80	1685.48
349.02	1708.01
349.23	1740.77
349.45	1697.77
349.67	1742.82
349.88	1646.57
350.10	1896.42
350.31	1771.49
350.53	1746.92
350.75	1886.18
350.96	1634.28
351.18	1718.25
351.39	1773.54
351.61	1683.43
351.82	1763.30
352.04	1839.08
352.26	1757.16
352.47	1783.78
352.69	1798.12
352.90	1634.28
353.12	1699.81
353.34	1724.39
353.55	1814.50
353.77	1828.84
353.98	1755.11
354.20	1720.29
354.41	1785.83
354.63	1769.44
354.85	2015.20
355.06	1748.97
355.28	1644.52
355.49	1826.79
355.71	1820.64
355.92	1814.50
356.14	1785.83
356.35	1787.88
356.57	1626.09
356.79	1863.65
357.00	1746.92
357.22	1920.99
357.43	1718.25
357.65	1822.69
357.86	1755.11
358.08	1812.45
358.29	1798.12
358.51	1875.94
358.72	1837.03
358.94	1814.50
359.16	1845.22
359.37	1757.16
359.59	1824.74
359.80	1843.17
360.02	1839.08
360.23	1843.17
360.45	1888.23
360.66	1822.69
360.88	1732.58
361.09	1765.35
361.31	1748.97
361.52	1806.31
361.74	1910.75
361.95	1920.99
362.17	1787.88
362.38	1961.95
362.60	1859.56
362.81	1714.15
363.03	1839.08
363.24	1898.47
363.46	1927.14
363.67	1851.36
363.89	1791.97
364.10	1920.99
364.32	1822.69
364.53	1845.22
364.75	1751.01
364.96	1798.12
365.18	1912.80
365.39	1765.35
365.61	1820.64
365.82	1884.13
366.04	1920.99
366.25	1746.92
366.47	1841.12
366.68	1937.38
366.90	1742.82
367.11	1894.37
367.33	1880.04
367.54	1888.23
367.76	1882.08
367.97	1976.29
368.19	1845.22
368.40	1908.71
368.62	1716.20
368.83	1796.07
369.05	1796.07
369.26	1857.51
369.48	1794.02
369.69	1830.88
369.91	1925.09
370.12	1845.22
370.33	1877.99
370.55	1753.06
370.76	1863.65
370.98	1976.29
371.19	1820.64
371.41	1896.42
371.62	1886.18
371.84	1798.12
372.05	1966.05
372.27	1785.83
372.48	1898.47
372.69	1966.05
372.91	2064.35
373.12	1867.75
373.34	1802.21
373.55	1939.43
373.77	1986.53
373.98	1830.88
374.20	1943.52
374.41	2029.54
374.62	1875.94
374.84	2052.06
375.05	1961.95
375.27	1859.56
375.48	1910.75
375.70	1961.95
375.91	2064.35
376.12	2164.70
376.34	1894.37
376.55	1857.51
376.77	2039.78
376.98	1966.05
377.19	1916.90
377.41	1908.71
377.62	1961.95
377.84	2109.41
378.05	2254.81
378.27	2039.78
378.48	2045.92
378.69	2158.56
378.91	2193.37
379.12	2068.45
379.34	2033.63
379.55	2050.02
379.76	2082.78
379.98	1968.10
380.19	2013.15
380.41	2045.92
380.62	2060.26
380.83	2107.36
381.05	1966.05
381.26	2152.42
381.47	2047.97
381.69	2029.54
381.90	2250.72
382.12	2109.41
382.33	2041.82
382.54	2156.51
382.76	2131.94
382.97	2168.80
383.19	1964.00
383.40	2213.85
383.61	2097.12
383.83	2133.98
384.04	2179.04
384.25	2220.00
384.47	2256.86
384.68	2013.15
384.89	2156.51
385.11	2226.14
385.32	2123.74
385.54	2295.77
385.75	2154.46
385.96	2303.96
386.18	2205.66
386.39	2230.24
386.60	2183.13
386.82	2338.78
387.03	2232.29
387.24	2355.16
387.46	2297.82
387.67	2289.63
387.88	2332.64
388.10	2357.21
388.31	2330.59
388.52	2445.27
388.74	2398.17
388.95	2328.54
389.16	2367.45
389.38	2355.16
389.59	2367.45
389.80	2519.00
390.02	2428.89
390.23	2590.68
390.44	2326.49
390.66	2469.85
390.87	2332.64
391.08	2492.38
391.30	2582.49
391.51	2562.01
391.72	2492.38
391.94	2586.58
392.15	2633.69
392.36	2527.19
392.58	2527.19
392.79	2543.58
393.00	2707.41
393.22	2666.46
393.43	2629.59
393.64	2707.41
393.85	2631.64
394.07	2645.98
394.28	2639.83
394.49	2641.88
394.71	2777.05
394.92	2772.95
395.13	2709.46
395.35	2629.59
395.56	2592.73
395.77	2674.65
395.98	2820.05
396.20	2717.65
396.41	2873.30
396.62	2924.50
396.84	2807.77
397.05	2731.99
397.26	2744.28
397.47	2944.98
397.69	2729.94
397.90	2994.13
398.11	2904.02
398.32	2863.06
398.54	2775.00
398.75	2828.24
398.96	2891.73
399.18	3008.47
399.39	2846.68
399.60	2936.79
399.81	2908.12
400.03	2863.06
400.24	3207.12
400.45	2906.07
400.66	3094.48
400.88	2934.74
401.09	3205.07
401.30	2940.88
401.51	3088.34
401.73	3133.39
401.94	3071.95
402.15	3151.82
402.36	3033.04
402.58	3237.84
402.79	3192.78
403.00	3188.69
403.21	3272.65
403.43	3200.98
403.64	3188.69
403.85	3035.09
404.06	3346.38
404.27	3198.93
404.49	3207.12
404.70	3184.59
404.91	3264.46
405.12	3286.99
405.34	3243.98
405.55	3446.73
405.76	3123.15
405.97	3276.75
406.19	3413.96
406.40	3205.07
406.61	3391.44
406.82	3303.37
407.03	3282.89
407.25	3223.50
407.46	3366.86
407.67	3448.78
407.88	3356.62
408.09	3317.71
408.31	3411.92
408.52	3381.20
408.73	3340.24
408.94	3268.56
409.15	3465.16
409.37	3510.22
409.58	3547.08
409.79	3588.04
410.00	3596.23
410.21	3461.07
410.43	3407.82
410.64	3512.27
410.85	3422.16
411.06	3532.75
411.27	3479.50
411.48	3583.95
411.70	3516.36
411.91	3655.62
412.12	3583.95
412.33	3571.66
412.54	3516.36
412.76	3725.26
412.97	3678.15
413.18	3510.22
413.39	3559.37
413.60	3723.21
413.81	3618.76
414.03	3639.24
414.24	3653.58
414.45	3786.69
414.66	3571.66
414.87	3708.87
415.08	3645.38
415.30	3657.67
415.51	3874.76
415.72	3729.35
415.93	3825.61
416.14	3870.66
416.35	3811.27
416.56	3899.33
416.78	3885.00
416.99	3821.51
417.20	3846.09
417.41	3872.71
417.62	3948.48
417.83	3938.24
418.04	3897.28
418.26	3923.91
418.47	3829.70
418.68	3891.14
418.89	4026.31
419.10	4085.70
419.31	4009.92
419.52	4040.64
419.73	4108.23
419.95	4224.96
420.16	3958.72
420.37	4036.55
420.58	4128.70
420.79	4026.31
421.00	4190.14
421.21	4208.58
421.42	4128.70
421.63	4235.20
421.85	4163.52
422.06	4292.54
422.27	4247.49
422.48	4210.62
422.69	4218.82
422.90	4247.49
423.11	4300.73
423.32	4214.72
423.53	4425.66
423.75	4433.85
423.96	4569.02
424.17	4308.93
424.38	4464.57
424.59	4468.67
424.80	4605.88
425.01	4310.97
425.22	4431.80
425.43	4470.72
425.64	4550.59
425.85	4710.33
426.06	4530.11
426.28	4603.83
426.49	4530.11
426.70	4480.96
426.91	4763.58
427.12	4700.09
427.33	4673.46
427.54	4646.84
427.75	4763.58
427.96	4794.29
428.17	4796.34
428.38	4796.34
428.59	4753.34
428.80	4841.40
429.01	4872.12
429.23	4937.65
429.44	5027.76
429.65	5126.07
429.86	4876.21
430.07	4886.45
430.28	4880.31
430.49	5042.10
430.70	5128.11
430.91	5197.74
431.12	5072.82
431.33	5066.67
431.54	5222.32
431.75	5107.63
431.96	5250.99
432.17	5113.78
432.38	5148.59
432.59	5314.48
432.80	5345.20
433.01	5427.12
433.22	5377.97
433.43	5349.29
433.64	5287.86
433.85	5345.20
434.06	5564.33
434.27	5314.48
434.49	5406.64
434.70	5574.57
434.91	5359.53
435.12	5453.74
435.33	5527.47
435.54	5506.99
435.75	5509.04
435.96	5513.13
436.17	5459.88
436.38	5709.74
436.59	5599.15
436.80	5595.05
437.01	5836.71
437.22	5916.58
437.43	5685.16
437.64	5439.40
437.85	5799.85
438.06	5851.05
438.27	5584.81
438.48	5715.88
438.69	5797.80
438.90	5771.18
439.11	5615.53
439.32	5849.00
439.53	5787.56
439.74	5867.43
439.95	5998.50
440.16	5996.45
440.37	5892.01
440.57	5892.01
440.78	6123.43
440.99	6135.71
441.20	6000.55
441.41	5828.52
441.62	6131.62
441.83	6027.17
442.04	6213.54
442.25	6121.38
442.46	6158.24
442.67	6285.22
442.88	6490.01
443.09	6029.22
443.30	6236.06
443.51	6404.00
443.72	6520.73
443.93	6223.78
444.14	6533.02
444.35	6143.91
444.56	6305.70
444.77	6479.77
444.98	6406.05
445.19	6442.91
445.40	6336.42
445.61	6367.13
445.81	6397.85
446.02	6571.93
446.23	6508.44
446.44	6444.96
446.65	6565.79
446.86	6516.64
447.07	6746.01
447.28	6694.81
447.49	6786.97
447.70	6733.72
447.91	6700.95
448.12	6713.24
448.33	6651.80
448.54	6860.70
448.74	6700.95
448.95	6991.77
449.16	6741.91
449.37	7071.64
449.58	6811.54
449.79	7210.90
450.00	6793.11
450.21	6961.05
450.42	7171.99
450.63	7040.92
450.84	7069.59
451.05	7137.17
451.25	6969.24
451.46	7116.69
451.67	7253.91
451.88	7210.90
452.09	7065.49
452.30	7061.40
452.51	7188.37
452.72	7344.02
452.93	7714.70
453.13	7126.93
453.34	7317.39
453.55	7395.22
453.76	7462.80
453.97	7759.75
454.18	7466.89
454.39	7606.16
454.60	7665.55
454.81	7520.14
455.01	7810.95
455.22	7448.46
455.43	7749.51
455.64	7866.25
455.85	7917.45
456.06	8042.37
456.27	8038.28
456.48	7837.58
456.68	7972.74
456.89	7907.21
457.10	8212.35
457.31	8011.65
457.52	7958.41
457.73	8241.03
457.94	8425.34
458.14	8044.42
458.35	8494.97
458.56	8390.53
458.77	8302.47
458.98	8284.03
459.19	8249.22
459.39	8507.26
459.60	8589.18
459.81	8484.73
460.02	8646.52
460.23	8511.36
460.44	8789.88
460.65	8761.21
460.85	8748.92
461.06	8988.53
461.27	8572.80
461.48	9058.17
461.69	9054.07
461.89	8734.59
462.10	8949.62
462.31	8728.44
462.52	9037.69
462.73	8959.86
462.94	9142.13
463.14	9367.41
463.35	9054.07
463.56	9662.32
463.77	9248.63
463.98	9328.50
464.18	9473.90
464.39	9541.49
464.60	9670.51
464.81	9783.15
465.02	9535.34
465.23	9989.99
465.43	9674.60
465.64	9914.22
465.85	9807.72
466.06	9807.72
466.27	10028.90
466.47	10028.90
466.68	9992.04
466.89	10157.92
467.10	10135.40
467.30	10139.49
467.51	10346.34
467.72	10450.78
467.93	10125.16
468.14	10448.74
468.34	10561.37
468.55	10526.56
468.76	10776.41
468.97	10487.65
469.17	10811.23
469.38	10753.88
469.59	11016.02
469.80	10825.56
470.01	10852.19
470.21	11024.22
470.42	11083.61
470.63	11364.18
470.84	11237.20
471.04	11161.43
471.25	11452.24
471.46	11499.34
471.67	11646.80
471.87	11749.20
472.08	11644.75
472.29	11894.60
472.50	11534.16
472.70	11650.89
472.91	11884.36
473.12	12091.21
473.33	12326.72
473.53	12298.05
473.74	12332.87
473.95	12496.71
474.16	12435.27
474.36	12482.37
474.57	12552.00
474.78	12633.92
474.99	12726.08
475.19	12767.04
475.40	12959.55
475.61	13008.70
475.81	13332.28
476.02	13315.89
476.23	13068.09
476.44	13274.93
476.64	13461.30
476.85	13653.81
477.06	13692.72
477.27	13821.74
477.47	13791.02
477.68	13877.04
477.89	14122.79
478.09	14042.92
478.30	14028.59
478.51	14305.06
478.71	14241.57
478.92	14440.23
479.13	14489.38
479.34	14788.38
479.54	14692.13
479.75	14679.84
479.96	14845.73
480.16	14911.26
480.37	14946.08
480.58	15073.05
480.78	15341.33
480.99	15386.39
481.20	15367.96
481.41	15605.52
481.61	15822.61
481.82	15488.79
482.03	15533.84
482.23	15849.23
482.44	16041.74
482.65	16326.41
482.85	16469.76
483.06	16434.95
483.27	16414.47
483.47	16461.57
483.68	16451.33
483.89	16645.89
484.09	16723.71
484.30	16723.71
484.51	16959.23
484.71	17172.22
484.92	16830.21
485.13	17133.31
485.33	16971.52
485.54	17260.28
485.75	17608.44
485.95	17534.71
486.16	17635.06
486.37	17952.49
486.57	17694.45
486.78	17878.77
486.98	17694.45
487.19	18200.30
487.40	18056.94
487.60	18302.70
487.81	18222.83
488.02	18722.53
488.22	18251.50
488.43	18757.35
488.64	18605.80
488.84	18869.98
489.05	19177.18
489.25	18767.59
489.46	19203.80
489.67	19156.70
489.87	19373.78
490.08	19152.60
490.29	19298.01
490.49	19576.53
490.70	19678.93
490.90	19789.52
491.11	19746.51
491.32	19877.58
491.52	20047.57
491.73	19828.43
491.94	20248.27
492.14	19969.74
492.35	20422.34
492.55	20223.69
492.76	20446.92
492.97	20567.75
493.17	20973.25
493.38	20709.06
493.58	20899.52
493.79	20772.55
494.00	20872.90
494.20	20889.28
494.41	21388.99
494.61	21227.20
494.82	21249.72
495.02	21233.34
495.23	21515.96
495.44	21558.97
495.64	21694.13
495.85	21638.84
496.05	21665.46
496.26	21925.55
496.47	22128.30
496.67	21683.89
496.88	22296.24
497.08	22128.30
497.29	22316.72
497.49	22093.49
497.70	22611.62
497.91	22605.48
498.11	22525.61
498.32	22435.50
498.52	22929.06
498.73	23101.09
498.93	22898.34
499.14	23045.79
499.34	22861.48
499.55	23389.85
499.76	23226.01
499.96	23266.97
500.17	23144.09
500.37	23510.68
500.58	23191.20
500.78	23695.00
500.99	23492.25
501.19	23678.61
501.40	23590.55
501.60	23977.62
501.81	23768.73
502.02	23924.37
502.22	23830.16
502.43	24309.39
502.63	24403.60
502.84	24460.94
503.04	24250.00
503.25	24293.01
503.45	24434.32
503.66	24698.50
503.86	24481.42
504.07	24622.73
504.27	24594.06
504.48	25323.13
504.68	24981.12
504.89	25290.37
505.09	25343.61
505.30	24966.79
505.50	25042.56
505.71	25587.32
505.91	25368.19
506.12	25214.59
506.32	25812.60
506.53	25572.99
506.73	25671.29
506.94	25826.93
507.14	25521.79
507.35	25710.20
507.55	25644.66
507.76	25890.42
507.96	25826.93
508.17	26148.46
508.37	26035.83
508.58	26062.45
508.78	26308.21
508.99	26394.22
509.19	26383.98
509.40	26302.06
509.60	26252.91
509.81	26373.74
510.01	26539.63
510.22	26685.03
510.42	26500.72
510.63	26773.10
510.83	26619.50
511.04	26586.73
511.24	27031.14
511.44	27156.07
511.65	26961.51
511.85	26840.68
512.06	27197.02
512.26	27188.83
512.47	27045.48
512.67	27194.98
512.88	27444.83
513.08	27033.19
513.29	27448.93
513.49	27295.33
513.69	27633.24
513.90	27653.72
514.10	27663.96
514.31	27647.58
514.51	27788.89
514.72	27844.18
514.92	27551.32
515.13	27819.61
515.33	27686.49
515.53	28296.78
515.74	28020.31
515.94	28184.15
516.15	28188.24
516.35	27846.23
516.56	28280.40
516.76	28204.63
516.96	28472.91
517.17	28712.52
517.37	28585.55
517.58	28442.19
517.78	28522.06
517.99	28794.44
518.19	28765.77
518.39	28989.00
518.60	29290.05
518.80	29007.43
519.01	29163.08
519.21	28925.51
519.41	29021.77
519.62	29060.68
519.82	29300.29
520.03	29367.87
520.23	29417.02
520.43	29474.37
520.64	29701.69
520.84	29615.68
521.05	29597.24
521.25	29806.14
521.45	29619.77
521.66	29994.55
521.86	29969.97
522.07	29943.35
522.27	30195.25
522.47	30178.87
522.68	30477.87
522.88	30555.69
523.08	30641.71
523.29	30522.93
523.49	30344.75
523.70	30721.58
523.90	30430.77
524.10	30641.71
524.31	30856.75
524.51	30705.20
524.71	31127.08
524.92	31039.01
525.12	31090.21
525.33	31610.40
525.53	31405.60
525.73	31419.94
525.94	31682.08
526.14	31444.51
526.34	31821.34
526.55	32118.29
526.75	31602.21
526.95	31888.92
527.16	31659.55
527.36	32015.90
527.56	32151.06
527.77	32466.45
527.97	32179.73
528.17	32329.23
528.38	32454.16
528.58	32558.61
528.78	32562.70
528.99	32529.94
529.19	33148.42
529.39	32466.45
529.60	33234.44
529.80	33166.85
530.00	32900.62
530.21	33248.77
530.41	33746.43
530.61	33385.99
530.82	33340.93
531.02	33486.34
531.22	33480.19
531.43	33658.37
531.63	33512.96
531.83	34000.38
532.04	34395.64
532.24	34061.82
532.44	34211.32
532.64	34119.16
532.85	34481.65
533.05	34622.96
533.25	34420.21
533.46	34553.33
533.66	34919.92
533.86	34418.16
534.07	35046.89
534.27	34600.43
534.47	35304.93
534.67	35378.66
534.88	35311.08
535.08	35538.40
535.28	35542.50
535.49	35911.13
535.69	35687.90
535.89	35831.26
536.09	35728.86
536.30	36042.20
536.50	35767.77
536.70	36324.82
536.91	35993.05
537.11	36636.11
537.31	36124.12
537.51	36629.97
537.72	36734.42
537.92	36711.89
538.12	36771.28
538.32	36523.47
538.53	37225.93
538.73	37080.52
538.93	37105.10
539.13	37313.99
539.34	36963.79
539.54	36935.12
539.74	37760.45
539.94	37641.67
540.15	37428.68
540.35	37932.48
540.55	37574.08
540.75	37735.87
540.96	38002.11
541.16	37590.47
541.36	38114.75
541.56	37721.54
541.77	38118.84
541.97	38167.99
542.17	37979.58
542.37	38544.82
542.58	38368.69
542.78	38481.33
542.98	38526.39
543.18	38565.30
543.38	38759.86
543.59	38944.17
543.79	38628.79
543.99	38649.27
544.19	39044.52
544.40	38712.75
544.60	39603.62
544.80	39146.92
545.00	39390.63
545.20	39230.89
545.41	39550.37
545.61	39550.37
545.81	39798.18
546.01	39867.81
546.21	39497.13
546.42	39697.83
546.62	40121.76
546.82	39648.68
547.02	39921.05
547.22	40244.63
547.43	39980.45
547.63	40318.36
547.83	40349.08
548.03	40156.57
548.23	40363.42
548.44	40338.84
548.64	40580.50
548.84	40445.33
549.04	40674.71
549.24	40717.71
549.45	41246.09
549.65	40875.41
549.85	40775.06
550.05	41022.86
550.25	40926.61
550.45	41491.85
550.66	41278.86
550.86	40914.32
551.06	41131.40
551.26	41301.39
551.46	41328.01
551.66	41397.64
551.87	41325.96
552.07	41432.46
552.27	41295.24
552.47	41432.46
552.67	41438.60
552.87	41760.13
553.07	41727.36
553.28	41827.71
553.48	41680.26
553.68	41852.29
553.88	41842.05
554.08	41766.27
554.28	42169.72
554.48	41872.77
554.69	41991.55
554.89	41930.11
555.09	42354.04
555.29	42042.75
555.49	42331.51
555.69	42128.77
555.89	42388.86
556.10	42554.74
556.30	41989.50
556.50	42210.68
556.70	42196.35
556.90	42659.19
557.10	42399.10
557.30	42431.86
557.50	42358.14
557.70	42734.96
557.91	43306.35
558.11	42671.48
558.31	43279.72
558.51	42313.08
558.71	42837.36
558.91	43062.64
559.11	42802.55
559.31	43124.08
559.51	42904.95
559.72	43036.02
559.92	43083.12
560.12	43316.59
560.32	43253.10
560.52	42808.69
560.72	43375.98
560.92	43597.16
561.12	42972.53
561.32	43744.61
561.52	43238.76
561.72	43562.34
561.93	43302.25
562.13	43222.38
562.33	43517.29
562.53	44000.61
562.73	43373.93
562.93	43517.29
563.13	43685.22
563.33	43289.96
563.53	43677.03
563.73	43750.76
563.93	43859.30
564.13	44197.21
564.33	44139.87
564.53	43855.20
564.74	44457.31
564.94	43367.79
565.14	44129.63
565.34	44025.18
565.54	44201.31
565.74	43951.46
565.94	44494.17
566.14	44217.69
566.34	44217.69
566.54	44561.75
566.74	44348.76
566.94	44416.35
567.14	44492.12
567.34	44229.98
567.54	44633.43
567.74	44633.43
567.94	44404.06
568.14	44670.29
568.34	44848.47
568.54	44934.48
568.74	44793.17
568.94	44875.09
569.14	44733.78
569.34	44598.62
569.54	44899.67
569.75	44649.81
569.95	45053.26
570.15	45401.42
570.35	44860.76
570.55	44780.88
570.75	44991.83
570.95	45184.33
571.15	45028.69
571.35	45352.27
571.55	45460.81
571.75	45352.27
571.95	45280.59
572.15	45315.40
572.35	45518.15
572.55	45540.68
572.75	45329.74
572.95	45663.56
573.15	45972.80
573.35	45804.87
573.55	45731.14
573.75	45675.85
573.95	45872.45
574.15	45425.99
574.35	45919.56
574.55	45985.09
574.75	45534.54
574.95	45874.50
575.15	46112.06
575.34	46196.03
575.54	46181.70
575.74	46927.16
575.94	46048.58
576.14	46406.97
576.34	46388.54
576.54	46904.63
576.74	46677.30
576.94	46396.73
577.14	46298.43
577.34	46779.70
577.54	46390.59
577.74	46777.65
577.94	46906.68
578.14	46511.42
578.34	47062.32
578.54	46441.79
578.74	47248.69
578.94	47134.00
579.14	46798.13
579.34	47013.17
579.54	47199.54
579.74	47469.87
579.94	47162.67
580.13	47394.09
580.33	46955.83
580.53	47803.69
580.73	47244.59
580.93	47365.42
581.13	47746.34
581.33	47502.64
581.53	47607.08
581.73	47430.96
581.93	48176.42
582.13	48076.07
582.33	48119.07
582.53	48096.55
582.73	48246.05
582.92	47750.44
583.12	48246.05
583.32	47949.09
583.52	47942.95
583.72	48512.28
583.92	48420.13
584.12	48104.74
584.32	48678.17
584.52	48545.05
584.72	48325.92
584.92	48319.77
585.11	49030.42
585.31	48768.28
585.51	48444.70
585.71	48901.40
585.91	49233.17
586.11	48868.63
586.31	48823.58
586.51	49083.67
586.71	49026.32
586.91	48915.73
587.10	49378.57
587.30	49298.70
587.50	49143.06
587.70	49509.64
587.90	49575.18
588.10	49569.04
588.30	49204.50
588.50	49906.95
588.69	49448.21
588.89	49554.70
589.09	49698.06
589.29	49923.33
589.49	49847.56
589.69	49892.61
589.89	50197.76
590.08	49886.47
590.28	50267.39
590.48	49712.39
590.68	49775.88
590.88	49814.79
591.08	50347.26
591.28	49777.93
591.47	50486.53
591.67	50228.48
591.87	50146.56
592.07	50543.87
592.27	50322.69
592.47	50791.67
592.67	50930.93
592.86	50156.80
593.06	50513.15
593.26	50756.86
593.46	50787.58
593.66	50965.75
593.86	50877.69
594.05	50709.75
594.25	50871.54
594.45	50722.04
594.65	50742.52
594.85	50914.55
595.05	51078.39
595.24	51180.79
595.44	51205.36
595.64	51270.90
595.84	51565.81
596.04	51410.16
596.23	51318.00
596.43	51698.92
596.63	51150.07
596.83	51576.04
597.03	51758.31
597.22	52133.09
597.42	51463.41
597.62	51983.59
597.82	51528.94
598.02	51934.44
598.21	51619.05
598.41	51789.03
598.61	52333.79
598.81	52276.45
599.01	51997.93
599.20	51758.31
599.40	51590.38
599.60	52098.28
599.80	52503.77
600.00	52208.87
600.19	52425.95
600.39	51954.92
600.59	52520.16
600.79	52434.14
600.98	52382.94
601.18	52690.14
601.38	52640.99
601.58	52784.35
601.78	52993.24
601.97	52182.24
602.17	53347.54
602.37	52720.86
602.57	52802.78
602.76	52991.19
602.96	52868.31
603.16	53292.24
603.36	52677.85
603.55	53544.14
603.75	53206.23
603.95	53351.63
604.15	53214.42
604.34	53079.25
604.54	53441.74
604.74	53402.83
604.94	53777.61
605.13	53982.41
605.33	53521.62
605.53	53439.70
605.73	53720.27
605.92	53578.96
606.12	53900.49
606.32	53748.94
606.52	53683.40
606.71	54195.40
606.91	53902.54
607.11	53769.42
607.30	54256.84
607.50	54037.70
607.70	54156.49
607.90	53902.54
608.09	53974.22
608.29	54314.18
608.49	54422.72
608.68	54138.05
608.88	54305.99
609.08	54203.59
609.28	54148.29
609.47	54248.64
609.67	54844.60
609.87	54269.12
610.06	54785.21
610.26	54324.42
610.46	54457.54
610.66	54629.57
610.85	54744.25
611.05	54273.22
611.25	54711.49
611.44	54457.54
611.64	54707.39
611.84	54613.18
612.03	54375.62
612.23	54860.99
612.43	55018.68
612.62	54723.77
612.82	54846.65
613.02	54361.28
613.21	54711.49
613.41	54561.98
613.61	55041.21
613.80	54226.12
614.00	55098.55
614.20	54285.51
614.39	54768.83
614.59	54809.79
614.79	54609.09
614.98	54592.70
615.18	54711.49
615.38	55164.09
615.57	54803.64
615.77	55186.61
615.97	55207.09
616.16	54912.19
616.36	54793.40
616.56	55057.59
616.75	55088.31
616.95	54410.43
617.15	54836.41
617.34	54852.80
617.54	54604.99
617.74	55219.38
617.93	55286.96
618.13	54623.42
618.32	55049.40
618.52	54643.90
618.72	54951.10
618.91	55041.21
619.11	54648.00
619.31	55057.59
619.50	54873.27
619.70	54277.32
619.90	54801.60
620.09	54856.89
620.29	55139.51
620.48	55135.41
620.68	55219.38
620.88	54527.17
621.07	55401.65
621.27	54809.79
621.46	54518.98
621.66	54895.80
621.86	55100.60
622.05	54367.43
622.25	55248.05
622.44	54658.24
622.64	54699.20
622.84	54768.83
623.03	54744.25
623.23	54609.09
623.42	54908.09
623.62	55076.02
623.82	55092.41
624.01	55106.74
624.21	55461.04
624.40	54639.81
624.60	55092.41
624.80	54768.83
624.99	54869.18
625.19	54656.19
625.38	54901.95
625.58	55092.41
625.77	54820.03
625.97	54748.35
626.17	54717.63
626.36	55420.08
626.56	54908.09
626.75	54541.50
626.95	55313.59
627.14	54695.10
627.34	55104.70
627.54	54230.21
627.73	55096.50
627.93	55215.29
628.12	54934.71
628.32	55303.35
628.51	55381.17
628.71	55018.68
628.90	54791.36
629.10	55147.70
629.30	55153.85
629.49	54846.65
629.69	54637.76
629.88	54969.53
630.08	55092.41
630.27	55671.98
630.47	55497.91
630.66	55063.74
630.86	55364.79
631.05	54834.36
631.25	55336.12
631.44	55284.92
631.64	55108.79
631.84	55473.33
632.03	55844.01
632.23	55284.92
632.42	55557.30
632.62	55317.68
632.81	54936.76
633.01	55338.16
633.20	55448.75
633.40	55647.41
633.59	55817.39
633.79	55571.63
633.98	55305.40
634.18	55739.57
634.37	55747.76
634.57	55215.29
634.76	55680.17
634.96	55342.26
635.15	55422.13
635.35	55086.26
635.54	55278.77
635.74	55473.33
635.93	55276.72
636.13	55598.26
636.32	55686.32
636.52	54854.84
636.71	55520.43
636.91	55735.47
637.10	55884.97
637.30	55846.06
637.49	55170.23
637.69	55426.23
637.88	55837.87
638.08	55309.49
638.27	56073.38
638.46	55606.45
638.66	55432.37
638.85	55633.07
639.05	56071.34
639.24	56284.33
639.44	55506.10
639.63	56057.00
639.83	55958.70
640.02	55481.52
640.22	56100.01
640.41	56155.30
640.61	55370.93
640.80	56085.67
640.99	55704.75
641.19	56325.28
641.38	55930.03
641.58	55798.96
641.77	55899.31
641.97	55420.08
642.16	55801.00
642.36	56300.71
642.55	56390.82
642.74	55678.13
642.94	56300.71
643.13	56122.54
643.33	56091.82
643.52	56323.24
643.72	56521.89
643.91	56065.19
644.10	55846.06
644.30	56931.48
644.49	55960.75
644.69	57048.22
644.88	56063.14
645.08	55817.39
645.27	55903.40
645.46	56013.99
645.66	56458.40
645.85	56296.61
646.05	56575.14
646.24	56593.57
646.43	56229.03
646.63	56419.49
646.82	56493.22
647.02	56384.68
647.21	56452.26
647.40	56245.41
647.60	56743.07
647.79	56706.21
647.99	56620.19
648.18	55960.75
648.37	57078.94
648.57	56820.89
648.76	56644.77
648.96	56534.18
649.15	56732.83
649.34	57154.71
649.54	56321.19
649.73	56333.48
649.92	56665.25
650.12	56407.20
650.31	56876.19
650.51	56489.12
650.70	56900.76
650.89	56247.46
651.09	57300.12
651.28	56448.16
651.47	57103.51
651.67	57023.64
651.86	57066.65
652.06	56476.83
652.25	56847.52
652.44	56745.12
652.64	56212.65
652.83	56734.88
653.02	56360.10
653.22	56607.90
653.41	57037.98
653.60	56474.79
653.80	56595.62
653.99	56779.93
654.18	56808.61
654.38	56868.00
654.57	56671.39
654.76	56804.51
654.96	56669.34
655.15	56908.96
655.34	56976.54
655.54	56734.88
655.73	56566.94
655.92	56728.73
656.12	56880.28
656.31	56943.77
656.50	56947.87
656.70	56982.68
656.89	56657.06
657.08	56992.92
657.28	56738.97
657.47	56972.44
657.66	57328.79
657.86	56652.96
658.05	56859.80
658.24	57185.43
658.43	56534.18
658.63	57205.91
658.82	57011.35
659.01	56849.56
659.21	56738.97
659.40	56904.86
659.59	57011.35
659.79	57062.55
659.98	57085.08
660.17	57066.65
660.36	57574.55
660.56	57015.45
660.75	56980.63
660.94	57226.39
661.14	56992.92
661.33	57246.87
661.52	57031.83
661.71	57644.18
661.91	57169.05
662.10	56667.30
662.29	56804.51
662.49	56968.35
662.68	57003.16
662.87	57107.61
663.06	56800.41
663.26	57191.58
663.45	57060.51
663.64	56966.30
663.83	57582.74
664.03	57562.26
664.22	57152.66
664.41	57281.69
664.60	56976.54
664.80	56878.24
664.99	57040.03
665.18	56767.65
665.37	57207.96
665.57	57298.07
665.76	56730.78
665.95	57087.13
666.14	57023.64
666.34	56851.61
666.53	56824.99
666.72	56568.99
666.91	56827.04
667.11	56468.64
667.30	56994.97
667.49	56886.43
667.68	57027.74
667.87	56927.39
668.07	57078.94
668.26	56966.30
668.45	56820.89
668.64	56343.72
668.84	57431.19
669.03	56972.44
669.22	56900.76
669.41	57302.17
669.60	57545.87
669.80	56497.31
669.99	56902.81
670.18	57201.82
670.37	56835.23
670.57	57046.17
670.76	56532.13
670.95	57066.65
671.14	56892.57
671.33	56378.53
671.53	56984.73
671.72	56927.39
671.91	56761.50
672.10	56556.70
672.29	56915.10
672.48	56708.25
672.68	57080.98
672.87	56919.20
673.06	56968.35
673.25	56661.15
673.44	56706.21
673.64	56929.44
673.83	56360.10
674.02	56194.21
674.21	56364.20
674.40	57027.74
674.59	56921.24
674.79	56458.40
674.98	56374.44
675.17	56861.85
675.36	56710.30
675.55	57238.68
675.74	56736.93
675.94	57035.93
676.13	57107.61
676.32	56820.89
676.51	57472.15
676.70	56841.37
676.89	56437.92
677.08	57167.00
677.28	56693.92
677.47	57353.36
677.66	57132.18
677.85	56679.58
678.04	56728.73
678.23	56906.91
678.42	56956.06
678.62	56448.16
678.81	57189.53
679.00	56153.26
679.19	57152.66
679.38	56804.51
679.57	56765.60
679.76	56751.26
679.96	57060.51
680.15	56913.05
680.34	56804.51
680.53	56599.71
680.72	56595.62
680.91	56958.11
681.10	56540.32
681.29	56290.47
681.48	56933.53
681.68	56546.47
681.87	56296.61
682.06	56755.36
682.25	56308.90
682.44	56587.42
682.63	56671.39
682.82	56153.26
683.01	56360.10
683.20	56042.66
683.39	56171.69
683.59	56333.48
683.78	55919.79
683.97	55844.01
684.16	56573.09
684.35	56376.48
684.54	56102.06
684.73	56106.15
684.92	56269.99
685.11	56321.19
685.30	56226.98
685.49	56521.89
685.69	56032.42
685.88	56315.04
686.07	56093.86
686.26	56403.11
686.45	56081.58
686.64	56089.77
686.83	56171.69
687.02	56450.21
687.21	55913.64
687.40	56341.67
687.59	55880.88
687.78	55655.60
687.97	55977.13
688.16	55932.07
688.35	55989.42
688.54	55844.01
688.74	55948.46
688.93	56091.82
689.12	56046.76
689.31	56018.09
689.50	56188.07
689.69	55647.41
689.88	55221.43
690.07	56050.86
690.26	56083.62
690.45	56243.37
690.64	55686.32
690.83	55614.64
691.02	55624.88
691.21	55671.98
691.40	55532.72
691.59	55889.07
691.78	55647.41
691.97	56114.34
692.16	55565.49
692.35	55833.77
692.54	55862.44
692.73	55930.03
692.92	55712.94
693.11	55489.71
693.30	55415.99
693.49	55491.76
693.68	55706.80
693.87	55379.12
694.06	55389.36
694.25	55528.62
694.44	55639.22
694.63	55522.48
694.82	55502.00
695.01	55159.99
695.20	55411.89
695.39	54867.13
695.58	55303.35
695.77	55311.54
695.96	55096.50
696.15	55350.45
696.34	55045.30
696.53	55329.97
696.72	55043.26
696.91	55250.10
697.10	54926.52
697.29	55092.41
697.48	55383.22
697.67	54623.42
697.86	54893.75
698.05	54752.44
698.24	55153.85
698.43	54752.44
698.62	55153.85
698.81	54486.21
699.00	55362.74
699.19	54824.12
699.38	54678.72
699.57	54299.84
699.76	54848.70
699.95	54504.64
700.14	54387.91
700.32	54666.43
700.51	54502.59
700.70	55055.54
700.89	54975.67
701.08	55090.36
701.27	54441.15
701.46	54545.60
701.65	53998.79
701.84	54543.55
702.03	54629.57
702.22	54252.74
702.41	54424.77
702.60	54371.52
702.79	54359.23
702.98	54031.56
703.17	54336.71
703.35	53970.12
703.54	54025.42
703.73	54658.24
703.92	54199.49
704.11	54033.61
704.30	53826.76
704.49	53945.54
704.68	53693.64
704.87	54123.72
705.06	53990.60
705.25	54222.02
705.43	54006.98
705.62	54316.23
705.81	54158.53
706.00	53910.73
706.19	53245.14
706.38	53527.76
706.57	54170.82
706.76	53566.67
706.95	53742.80
707.14	53449.94
707.32	53488.85
707.51	53482.70
707.70	53222.61
707.89	53282.00
708.08	53052.63
708.27	53540.05
708.46	53707.98
708.65	53279.96
708.84	53417.17
709.02	53261.52
709.21	53355.73
709.40	53277.91
709.59	53488.85
709.78	53075.16
709.97	53114.07
710.16	52804.83
710.34	53261.52
710.53	52823.26
710.72	52825.31
710.91	53064.92
711.10	53210.32
711.29	53357.78
711.48	53015.77
711.66	52761.82
711.85	52716.76
712.04	52810.97
712.23	53048.53
712.42	52946.14
712.61	52567.26
712.80	52706.52
712.98	52618.46
713.17	52325.60
713.36	52430.05
713.55	52274.40
713.74	52405.47
713.93	52223.20
714.11	52325.60
714.30	52155.62
714.49	52186.34
714.68	52575.45
714.87	52305.12
715.06	52479.20
715.24	52012.26
715.43	51926.25
715.62	51721.45
715.81	51862.76
716.00	52131.04
716.18	51731.69
716.37	51590.38
716.56	51518.70
716.75	51842.28
716.94	51823.85
717.12	51643.63
717.31	51954.92
717.50	51512.56
717.69	51205.36
717.88	51414.26
718.06	51561.71
718.25	51434.74
718.44	51254.51
718.63	51315.95
718.82	51182.84
719.00	51293.43
719.19	50793.72
719.38	51094.77
719.57	50638.08
719.76	50869.50
719.94	50722.04
720.13	50683.13
720.32	50992.37
720.51	50550.01
720.69	50918.65
720.88	51004.66
721.07	50027.78
721.26	49927.43
721.44	50298.11
721.63	50232.58
721.82	50291.97
722.01	49833.22
722.20	50251.01
722.38	50052.36
722.57	49483.02
722.76	49968.39
722.95	49976.58
723.13	49716.49
723.32	49767.69
723.51	49833.22
723.70	49581.32
723.88	49835.27
724.07	49190.16
724.26	49632.52
724.44	49040.66
724.63	49566.99
724.82	49470.73
725.01	49243.41
725.19	49227.02
725.38	49075.48
725.57	48930.07
725.76	48997.65
725.94	48823.58
726.13	48383.26
726.32	48641.31
726.51	48803.10
726.69	48995.60
726.88	49048.85
727.07	49141.01
727.25	49179.92
727.44	48842.01
727.63	48864.53
727.82	48995.60
728.00	48770.33
728.19	49022.23
728.38	49239.31
728.56	48383.26
728.75	49280.27
728.94	48815.38
729.12	49136.91
729.31	48477.47
729.50	48809.24
729.69	49040.66
729.87	48981.27
730.06	48885.01
730.25	48606.49
730.43	49116.43
730.62	48395.55
730.81	48598.30
730.99	48942.36
731.18	48606.49
731.37	48596.25
731.55	49020.18
731.74	48801.05
731.93	48866.58
732.11	48452.89
732.30	48919.83
732.49	48690.46
732.67	48227.62
732.86	48512.28
733.05	48510.24
733.23	47760.68
733.42	48471.32
733.61	48346.40
733.79	47842.60
733.98	49022.23
734.17	48477.47
734.35	48364.83
734.54	48379.17
734.73	48708.89
734.91	48182.56
735.10	48033.06
735.29	48399.65
735.47	48112.93
735.66	48227.62
735.84	48196.90
736.03	48018.72
736.22	48407.84
736.40	48010.53
736.59	48219.42
736.78	48051.49
736.96	48141.60
737.15	47738.15
737.33	48000.29
737.52	48239.90
737.71	47758.63
737.89	48014.63
738.08	47617.32
738.27	47697.19
738.45	48123.17
738.64	47783.21
738.82	47619.37
739.01	47645.99
739.20	47766.82
739.38	47707.43
739.57	47820.07
739.75	48112.93
739.94	47465.77
740.13	47285.55
740.31	47437.10
740.50	47490.35
740.68	47537.45
740.87	47424.81
741.06	47555.88
741.24	47373.61
741.43	47095.09
741.61	47781.16
741.80	47234.35
741.99	47156.53
742.17	47402.28
742.36	47324.46
742.54	47025.46
742.73	47088.95
742.91	47043.89
743.10	46703.93
743.29	47361.33
743.47	47203.63
743.66	47234.35
743.84	47396.14
744.03	47027.51
744.21	47058.23
744.40	47015.22
744.59	47033.65
744.77	46875.96
744.96	46998.83
745.14	46722.36
745.33	46728.50
745.51	46849.33
745.70	47099.19
745.88	46556.47
746.07	46695.74
746.26	46206.27
746.44	46376.25
746.63	46654.78
746.81	46794.04
747.00	46273.85
747.18	46409.02
747.37	46486.84
747.55	46409.02
747.74	46646.58
747.92	46523.71
748.11	46015.81
748.29	46886.20
748.48	46632.25
748.66	46163.26
748.85	46077.25
749.03	46538.04
749.22	46228.80
749.41	45899.08
749.59	46167.36
749.78	46046.53
749.96	45667.66
750.15	46044.48
750.33	46091.58
750.52	45962.56
750.70	45876.55
750.89	45847.88
751.07	46046.53
751.26	45585.74
751.44	45913.41
751.63	45796.68
751.81	45868.36
752.00	45421.90
752.18	46095.68
752.37	45684.04
752.55	45577.54
752.74	45630.79
752.92	45337.93
753.10	45763.91
753.29	45899.08
753.47	45710.66
753.66	45217.10
753.84	45581.64
754.03	44877.14
754.21	45143.38
754.40	45868.36
754.58	45618.50
754.77	45493.58
754.95	45239.63
755.14	45053.26
755.32	45323.60
755.51	45102.42
755.69	45235.53
755.88	45057.36
756.06	45294.92
756.24	45081.94
756.43	45051.22
756.61	45266.25
756.80	44922.19
756.98	44551.51
757.17	44602.71
757.35	44954.96
757.54	44789.08
757.72	45040.98
757.90	45088.08
758.09	44922.19
758.27	44895.57
758.46	44193.12
758.64	44283.23
758.83	44893.52
759.01	44455.26
759.19	44950.87
759.38	44207.45
759.56	44817.75
759.75	44146.01
759.93	44512.60
760.12	44561.75
760.30	44412.25
760.48	44199.26
760.67	44399.96
760.85	44551.51
761.04	44445.02
761.22	44565.85
761.40	44571.99
761.59	44678.49
761.77	44412.25
761.96	44078.43
762.14	43787.62
762.32	43627.88
762.51	43689.32
762.69	43670.89
762.88	43859.30
763.06	44291.42
763.24	44502.36
763.43	44076.38
763.61	43535.72
763.80	44072.29
763.98	43570.54
764.16	43957.60
764.35	43416.94
764.53	42861.94
764.72	43316.59
764.90	43201.90
765.08	43406.70
765.27	43443.56
765.45	43226.48
765.63	42771.83
765.82	43523.43
766.00	43031.92
766.18	42579.32
766.37	43263.34
766.55	42782.07
766.74	42857.84
766.92	42399.10
767.10	42464.63
767.29	43031.92
767.47	42478.97
767.65	42706.29
767.84	42390.91
768.02	42464.63
768.20	42446.20
768.39	42665.33
768.57	42505.59
768.75	42536.31
768.94	42640.76
769.12	42421.62
769.30	42087.81
769.49	42089.85
769.67	41905.54
769.85	42102.14
770.04	42374.52
770.22	41766.27
770.40	41866.63
770.59	41944.45
770.77	42034.56
770.95	41960.83
771.14	41270.67
771.32	41811.33
771.50	41407.88
771.69	41715.08
771.87	41921.92
772.05	41760.13
772.24	41057.68
772.42	41731.46
772.60	41256.33
772.78	41119.12
772.97	41258.38
773.15	42325.37
773.33	41409.93
773.52	41479.56
773.70	40809.87
773.88	41440.65
774.07	41285.00
774.25	41112.97
774.43	41493.89
774.61	41543.05
774.80	41504.13
774.98	41325.96
775.16	41428.36
775.34	41506.18
775.53	41461.13
775.71	41713.03
775.89	41264.52
776.08	41344.39
776.26	41457.03
776.44	41076.11
776.62	41674.12
776.81	41295.24
776.99	41414.02
777.17	41239.95
777.35	41606.53
777.54	41579.91
777.72	41629.06
777.90	41260.43
778.08	41739.65
778.27	41405.83
778.45	41409.93
778.63	41815.43
778.81	41426.31
779.00	42001.79
779.18	41350.54
779.36	42276.22
779.54	41885.06
779.73	41862.53
779.91	42069.37
780.09	41952.64
780.27	41981.31
780.46	42102.14
780.64	42208.64
780.82	42085.76
781.00	41481.61
781.19	42212.73
781.37	42358.14
781.55	42491.26
781.73	42302.84
781.91	41745.80
782.10	41323.91
782.28	42280.31
782.46	42327.42
782.64	41883.01
782.82	41782.66
783.01	42061.18
783.19	42749.30
783.37	42325.37
783.55	42231.16
783.74	42540.41
783.92	42204.54
784.10	42501.50
784.28	42122.62
784.46	41917.82
784.64	42321.27
784.83	42100.09
785.01	42214.78
785.19	42343.80
785.37	42636.66
785.55	41960.83
785.74	41981.31
785.92	41969.02
786.10	42298.75
786.28	41678.21
786.46	42153.34
786.64	41467.27
786.83	41692.55
787.01	42096.00
787.19	41760.13
787.37	42018.17
787.55	41835.91
787.74	41760.13
787.92	41702.79
788.10	41581.96
788.28	41770.37
788.46	41428.36
788.64	41022.86
788.82	41375.11
789.01	41137.55
789.19	41260.43
789.37	41014.67
789.55	40957.33
789.73	40799.63
789.91	40945.04
790.09	40564.12
790.28	41063.82
790.46	40902.03
790.64	41543.05
790.82	40762.77
791.00	40854.93
791.18	40381.85
791.36	40359.32
791.55	40367.51
791.73	40170.91
791.91	39865.76
792.09	40355.22
792.27	40213.91
792.45	40416.66
792.63	39955.87
792.81	39781.79
793.00	39857.57
793.18	39923.10
793.36	40039.84
793.54	39411.11
793.72	39730.59
793.90	39529.89
794.08	39318.95
794.26	39820.70
794.44	39398.82
794.62	39396.77
794.81	39136.68
794.99	39091.63
795.17	38931.89
795.35	38849.97
795.53	38718.90
795.71	39304.62
795.89	38344.12
796.07	38241.72
796.25	38450.61
796.43	38397.37
796.61	38114.75
796.80	38221.24
796.98	37656.00
797.16	37819.84
797.34	37907.90
797.52	37918.14
797.70	38176.19
797.88	37832.13
798.06	37494.21
798.24	37313.99
798.42	37332.42
798.60	37729.73
798.78	37178.82
798.96	37549.51
799.14	37189.06
799.32	36931.02
799.51	36738.51
799.69	37244.36
799.87	36971.98
800.05	36683.22
800.23	36842.96
800.41	36976.08
800.59	36513.23
800.77	36234.71
800.95	35980.76
801.13	36126.17
801.31	35952.09
801.49	36001.24
801.67	35800.54
801.85	35892.70
802.03	35921.37
802.21	35927.52
802.39	35634.66
802.57	35304.93
802.75	35479.01
802.93	35462.63
803.11	34866.67
803.29	35128.81
803.47	34850.28
803.65	35134.95
803.83	35143.14
804.01	35372.52
804.19	34495.99
804.37	34631.15
804.55	34762.22
804.73	34547.18
804.91	34395.64
805.09	34610.67
805.27	34350.58
805.45	34420.21
805.63	34563.57
805.81	34174.45
805.99	33908.22
806.17	34399.73
806.35	34045.43
806.53	33811.96
806.71	34203.13
806.89	33965.56
807.07	33797.63
807.25	33775.10
807.43	33492.48
807.61	33838.59
807.79	33742.33
807.97	33431.04
808.15	33615.36
808.33	33412.61
808.51	32962.06
808.69	33183.24
808.87	33179.14
809.05	32763.40
809.23	33132.04
809.41	32613.90
809.59	32843.27
809.77	32988.68
809.95	32362.00
810.13	32843.27
810.31	32511.50
810.49	32546.32
810.67	32730.64
810.84	32339.47
811.02	32601.61
811.20	32312.85
811.38	32431.63
811.56	32095.77
811.74	32460.30
811.92	32093.72
812.10	32003.61
812.28	32081.43
812.46	31725.08
812.64	31794.71
812.82	31764.00
813.00	31764.00
813.18	31755.80
813.36	31440.42
813.53	31309.35
813.71	31428.13
813.89	31735.32
814.07	31350.31
814.25	31196.71
814.43	30912.04
814.61	31041.06
814.79	31098.41
814.97	30953.00
815.15	31319.59
815.33	30776.87
815.50	30510.64
815.68	31061.54
815.86	30987.82
816.04	30578.22
816.22	30139.96
816.40	30697.00
816.58	30641.71
816.76	30262.83
816.94	30570.03
817.11	30330.42
817.29	30250.55
817.47	30422.58
817.65	30311.99
817.83	30567.98
818.01	30291.51
818.19	30006.84
818.37	30258.74
818.54	29576.76
818.72	29630.01
818.90	29808.19
819.08	29566.52
819.26	29879.86
819.44	29695.55
819.62	29587.00
819.80	29668.92
819.97	29863.48
820.15	29761.08
820.33	29687.36
820.51	30000.69
820.69	28919.37
820.87	29263.43
821.05	29414.98
821.22	29083.20
821.40	29224.51
821.58	29079.11
821.76	29224.51
821.94	29038.15
822.12	29263.43
822.29	28921.41
822.47	28733.00
822.65	28968.52
822.83	28923.46
823.01	28911.17
823.19	28544.59
823.36	28765.77
823.54	28776.01
823.72	28407.37
823.90	28384.85
824.08	28247.63
824.25	28159.57
824.43	28173.91
824.61	28221.01
824.79	28298.83
824.97	28354.13
825.15	28534.35
825.32	28167.76
825.50	28214.87
825.68	28182.10
825.86	28329.55
826.04	28116.56
826.21	27823.70
826.39	28221.01
826.57	28083.80
826.75	27905.62
826.93	27518.56
827.10	27663.96
827.28	27776.60
827.46	28061.27
827.64	27962.97
827.81	27729.50
827.99	27555.42
828.17	27522.65
828.35	27760.22
828.53	27846.23
828.70	27530.84
828.88	27663.96
829.06	27278.94
829.24	27725.40
829.41	27278.94
829.59	27479.64
829.77	27070.05
829.95	27410.01
830.12	27160.16
830.30	27414.11
830.48	27256.42
830.66	27166.31
830.84	27555.42
831.01	26949.22
831.19	27096.67
831.37	27068.00
831.55	26984.04
831.72	26814.05
831.90	26910.31
832.08	26715.75
832.25	26877.54
832.43	26957.41
832.61	26844.77
832.79	26455.66
832.96	26523.24
833.14	27008.61
833.32	27031.14
833.50	26562.15
833.67	26836.58
833.85	26832.49
834.03	26592.87
834.20	26488.43
834.38	26408.56
834.56	26533.48
834.74	26392.17
834.91	26300.01
835.09	26285.68
835.27	26097.27
835.44	26138.23
835.62	25894.52
835.80	26285.68
835.98	26261.10
836.15	26195.57
836.33	26275.44
836.51	26164.85
836.68	25777.78
836.86	25990.77
837.04	25892.47
837.21	26011.25
837.39	26146.42
837.57	25921.14
837.75	25996.92
837.92	25519.74
838.10	25521.79
838.28	25308.80
838.45	25507.45
838.63	25198.21
838.81	25798.26
838.98	25261.69
839.16	25499.26
839.34	25312.89
839.51	25448.06
839.69	25345.66
839.87	25183.87
840.04	25325.18
840.22	25489.02
840.40	25407.10
840.57	24768.13
840.75	25151.10
840.93	24909.44
841.10	25022.08
841.28	25357.95
841.46	25028.23
841.63	25386.62
841.81	25132.67
841.98	25247.36
842.16	25241.21
842.34	24923.78
842.51	24759.94
842.69	25140.86
842.87	25259.65
843.04	25093.76
843.22	24921.73
843.40	24854.15
843.57	24981.12
843.75	24739.46
843.92	24884.87
844.10	25077.38
844.28	24821.38
844.45	24907.40
844.63	24444.56
844.81	24252.05
844.98	24381.07
845.16	24516.23
845.33	24432.27
845.51	24538.76
845.69	24379.02
845.86	24325.77
846.04	23998.10
846.21	24422.03
846.39	24307.34
846.57	24024.72
846.74	24471.18
846.92	24198.80
847.09	24274.57
847.27	23842.45
847.45	24274.57
847.62	24258.19
847.80	24309.39
847.97	24204.94
848.15	23840.40
848.32	24053.39
848.50	24131.22
848.68	23697.05
848.85	23953.04
849.03	23553.69
849.20	24153.74
849.38	23977.62
849.56	23862.93
849.73	23684.76
849.91	23709.33
850.08	23774.87
850.26	23545.50
850.43	23592.60
850.61	23686.81
850.78	23269.02
850.96	23658.14
851.14	23527.06
851.31	23570.07
851.49	23371.42
851.66	23350.94
851.84	23400.09
852.01	23633.56
852.19	23441.05
852.36	23516.83
852.54	23334.56
852.71	23246.49
852.89	23103.14
853.07	23250.59
853.24	23090.85
853.42	22943.39
853.59	23068.32
853.77	23140.00
853.94	23322.27
854.12	23076.51
854.29	22699.69
854.47	22953.63
854.64	23017.12
854.82	22587.05
854.99	22900.39
855.17	22693.54
855.34	22916.77
855.52	22720.17
855.69	23086.75
855.87	22652.58
856.04	22302.38
856.22	22711.97
856.39	22382.25
856.57	22740.64
856.74	22460.07
856.92	22970.02
857.09	22453.93
857.27	22412.97
857.44	22564.52
857.62	22585.00
857.79	22689.45
857.97	22290.09
858.14	22343.34
858.32	22185.65
858.49	21886.64
858.67	22130.35
858.84	22337.20
859.02	22363.82
859.19	22128.30
859.37	22187.69
859.54	21872.31
859.72	22359.72
859.89	21890.74
860.06	22032.05
860.24	21911.22
860.41	21974.70
860.59	21663.41
860.76	21817.01
860.94	21892.79
861.11	21716.66
861.29	21948.08
861.46	21706.42
861.64	21481.14
861.81	21524.15
861.98	21634.74
862.16	21579.45
862.33	21587.64
862.51	21391.03
862.68	21487.29
862.86	21352.12
863.03	21329.59
863.21	21493.43
863.38	21419.71
863.55	21513.91
863.73	21198.52
863.90	21329.59
864.08	21272.25
864.25	21376.70
864.43	21243.58
864.60	21362.36
864.77	21167.80
864.95	21216.96
865.12	20952.77
865.30	21163.71
865.47	20805.31
865.64	21233.34
865.82	20987.58
865.99	21051.07
866.17	21135.04
866.34	20952.77
866.51	20682.44
866.69	20838.08
866.86	21167.80
867.04	20960.96
867.21	20864.71
867.38	20645.57
867.56	20811.46
867.73	20522.69
867.91	20428.49
868.08	20612.81
868.25	20612.81
868.43	20623.05
868.60	20637.38
868.78	20072.14
868.95	20680.39
869.12	20414.15
869.30	20348.62
869.47	20283.08
869.64	20319.95
869.82	20186.83
869.99	19965.65
870.16	20346.57
870.34	20170.44
870.51	20463.30
870.69	20047.57
870.86	19744.47
871.03	20096.72
871.21	19793.62
871.38	20008.65
871.55	19812.05
871.73	19709.65
871.90	19748.56
872.07	19760.85
872.25	19365.59
872.42	19646.16
872.59	19410.65
872.77	19531.48
872.94	19465.94
873.11	19386.07
873.29	19326.68
873.46	19424.98
873.63	19330.78
873.81	19248.86
873.98	19187.42
874.15	19242.71
874.33	19029.73
874.50	19132.12
874.67	19130.08
874.85	19027.68
875.02	19029.73
875.19	18820.83
875.37	18964.19
875.54	19074.78
875.71	19117.79
875.88	18570.98
876.06	18507.49
876.23	18495.21
876.40	18667.24
876.58	18695.91
876.75	18781.92
876.92	18730.72
877.10	18626.28
877.27	18308.84
877.44	18433.77
877.61	18163.43
877.79	18450.15
877.96	18337.51
878.13	18284.26
878.31	18396.90
878.48	18011.89
878.65	17897.20
878.82	18130.67
879.00	18308.84
879.17	17948.40
879.34	18099.95
879.51	18024.17
879.69	17952.49
879.86	17878.77
880.03	17655.54
880.21	17731.31
880.38	17848.05
880.55	17934.06
880.72	17829.62
880.90	17821.42
881.07	17465.08
881.24	17600.24
881.41	17596.15
881.59	17450.74
881.76	17508.08
881.93	17501.94
882.10	17487.61
882.28	17121.02
882.45	17528.56
882.62	17354.49
882.79	17516.28
882.96	17170.17
883.14	17272.57
883.31	17618.68
883.48	17293.05
883.65	17387.25
883.83	17395.45
884.00	17499.89
884.17	17067.77
884.34	17454.84
884.51	17321.72
884.69	17440.50
884.86	16955.13
885.03	17387.25
885.20	17037.05
885.38	17133.31
885.55	16922.37
885.72	16840.45
885.89	16850.69
886.06	16877.31
886.24	17000.19
886.41	17000.19
886.58	17168.12
886.75	16869.12
886.92	16510.72
887.10	16867.07
887.27	16723.71
887.44	16987.90
887.61	16873.21
887.78	16729.86
887.95	16727.81
888.13	16475.91
888.30	16721.66
888.47	16602.88
888.64	16520.96
888.81	16580.36
888.99	16592.64
889.16	16189.19
889.33	16391.94
889.50	16537.35
889.67	16396.04
889.84	16434.95
890.01	16238.34
890.19	16260.87
890.36	16312.07
890.53	16211.72
890.70	16140.04
890.87	16084.75
891.04	16166.67
891.22	16054.03
891.39	16131.85
891.56	16162.57
891.73	15851.28
891.90	16019.21
892.07	15779.60
892.24	15826.70
892.42	15830.80
892.59	15814.41
892.76	15691.54
892.93	15767.31
893.10	15914.77
893.27	15959.82
893.44	15728.40
893.61	15662.86
893.79	15787.79
893.96	15537.94
894.13	15634.19
894.30	15611.67
894.47	15660.82
894.64	15861.52
894.81	15556.37
894.98	15763.22
895.15	15320.85
895.33	15632.15
895.50	15548.18
895.67	15781.65
895.84	15619.86
896.01	15476.50
896.18	15499.03
896.35	15621.91
896.52	15654.67
896.69	15327.00
896.86	15570.71
897.04	15488.79
897.21	15632.15
897.38	15480.60
897.55	15529.75
897.72	15775.50
897.89	15652.63
898.06	15556.37
898.23	15374.10
898.40	15392.53
898.57	15507.22
898.74	15542.03
898.91	15413.01
899.08	15400.72
899.26	15423.25
899.43	15531.80
899.60	15247.13
899.77	15316.76
899.94	15281.94
900.11	15175.45
900.28	15333.14
900.45	15177.50
900.62	15193.88
900.79	15177.50
900.96	15185.69
901.13	15085.34
901.30	15279.89
901.47	15146.78
901.64	15286.04
901.81	15214.36
901.98	15105.82
902.15	15181.59
902.32	15206.17
902.49	15349.53
902.66	15175.45
902.83	15308.57
903.01	14978.84
903.18	15152.92
903.35	15542.03
903.52	15005.47
903.69	15402.77
903.86	15419.16
904.03	15257.37
904.20	15626.00
904.37	15204.12
904.54	15154.97
904.71	15167.26
904.88	15425.30
905.05	15101.72
905.22	15314.71
905.39	15269.66
905.56	14925.60
905.73	15169.30
905.90	15337.24
906.07	14958.36
906.24	15165.21
906.41	15253.27
906.58	15167.26
906.75	15071.00
906.92	14964.51
907.09	14964.51
907.26	15091.48
907.43	15003.42
907.60	15167.26
907.77	15402.77
907.93	15249.18
908.10	15050.52
908.27	15251.22
908.44	14941.98
908.61	14909.21
908.78	15066.91
908.95	15114.01
909.12	15157.02
909.29	15015.71
909.46	14907.16
909.63	14987.04
909.80	15066.91
909.97	15017.75
910.14	14931.74
910.31	15027.99
910.48	14780.19
910.65	15011.61
910.82	15005.47
910.99	14901.02
911.16	14808.86
911.33	14823.20
911.50	14749.47
911.66	14616.35
911.83	14802.72
912.00	14784.29
912.17	14554.91
912.34	14462.76
912.51	14667.55
912.68	14296.87
912.85	14612.26
913.02	14726.94
913.19	14714.66
913.36	14692.13
913.53	14395.17
913.70	14524.19
913.86	14499.62
914.03	14518.05
914.20	14638.88
914.37	14452.52
914.54	14561.06
914.71	14659.36
914.88	14382.88
915.05	14059.31
915.22	14094.12
915.39	14270.25
915.55	14153.51
915.72	14196.52
915.89	14006.06
916.06	13948.72
916.23	14081.83
916.40	13827.88
916.57	13637.42
916.74	14059.31
916.91	13983.53
917.07	14008.11
917.24	13989.67
917.41	13866.80
917.58	13877.04
917.75	13745.97
917.92	13702.96
918.09	13731.63
918.26	13557.55
918.42	13686.58
918.59	13772.59
918.76	13594.42
918.93	13383.48
919.10	13541.17
919.27	13516.59
919.44	13246.26
919.60	13449.01
919.77	13201.21
919.94	13299.51
920.11	13160.25
920.28	13483.83
920.45	13145.91
920.61	13166.39
920.78	12996.41
920.95	13023.03
921.12	12969.79
921.29	12881.72
921.46	12717.89
921.62	12646.21
921.79	12977.98
921.96	12711.74
922.13	12595.01
922.30	12691.26
922.47	12820.28
922.63	12441.41
922.80	12576.58
922.97	12496.71
923.14	12478.27
923.31	12549.95
923.47	12375.88
923.64	12638.02
923.81	12179.27
923.98	12318.53
924.15	12222.28
924.32	12250.95
924.48	12166.98
924.65	12267.33
924.82	11984.71
924.99	12164.93
925.15	11910.99
925.32	11814.73
925.49	11829.07
925.66	11865.93
925.83	11749.20
925.99	11818.83
926.16	11767.63
926.33	11773.77
926.50	11753.29
926.67	11654.99
926.83	11538.26
927.00	11698.00
927.17	11407.19
927.34	11439.95
927.50	11364.18
927.67	11634.51
927.84	11382.61
928.01	11231.06
928.17	11034.46
928.34	11245.40
928.51	11110.23
928.68	11032.41
928.84	11007.83
929.01	10993.50
929.18	10790.75
929.35	10747.74
929.51	10805.08
929.68	10727.26
929.85	10712.92
930.02	10594.14
930.18	10743.64
930.35	10641.25
930.52	10598.24
930.69	10418.02
930.85	10334.05
931.02	10340.19
931.19	10262.37
931.36	10299.23
931.52	10426.21
931.69	10403.68
931.86	10340.19
932.02	10078.05
932.19	10102.63
932.36	10086.25
932.53	10243.94
932.69	10086.25
932.86	9949.03
933.03	9936.74
933.19	9811.82
933.36	9731.95
933.53	9867.11
933.70	9731.95
933.86	9707.37
934.03	9652.08
934.20	9283.44
934.36	9559.92
934.53	9359.22
934.70	9322.35
934.86	9326.45
935.03	9156.47
935.20	9097.08
935.36	9240.44
935.53	8978.30
935.70	8914.81
935.86	9058.17
936.03	8951.67
936.20	8849.27
936.36	8750.97
936.53	8580.99
936.70	8546.17
936.86	8636.28
937.03	8288.13
937.20	8327.04
937.36	8359.81
937.53	8038.28
937.70	7995.27
937.86	8105.86
938.03	8066.95
938.20	8034.18
938.36	7681.93
938.53	7985.03
938.70	7294.86
938.86	7483.28
939.03	7317.39
939.20	7333.78
939.36	7350.16
939.53	7245.71
939.70	7507.85
939.86	6926.23
940.03	6889.37
940.19	6838.17
940.36	6754.20
940.53	6891.41
940.69	6809.50
940.86	6741.91
941.03	6567.84
941.19	6457.25
941.36	6414.24
941.52	6471.58
941.69	6309.79
941.86	6404.00
942.02	6254.50
942.19	6121.38
942.35	6174.63
942.52	6119.33
942.69	6139.81
942.85	5975.97
943.02	5914.53
943.18	6012.84
943.35	5900.20
943.52	5869.48
943.68	5791.66
943.85	5820.33
944.01	5566.38
944.18	5668.78
944.35	5691.31
944.51	5674.92
944.68	5519.28
944.84	5468.08
945.01	5523.37
945.17	5562.28
945.34	5599.15
945.51	5531.56
945.67	5474.22
945.84	5476.27
946.00	5402.54
946.17	5447.60
946.33	5298.10
946.50	5566.38
946.67	5459.88
946.83	5294.00
947.00	5513.13
947.16	5306.29
947.33	5255.09
947.49	5244.85
947.66	5334.96
947.82	5435.31
947.99	5474.22
948.16	5349.29
948.32	5255.09
948.49	5291.95
948.65	5205.94
948.82	5482.41
948.98	5283.76
949.15	5136.31
949.31	5416.88
949.48	5459.88
949.64	5287.86
949.81	5427.12
949.97	5377.97
950.14	5472.17
950.30	5238.70
950.47	5461.93
950.63	5400.49
950.80	5390.25
950.96	5345.20
951.13	5320.62
951.30	5357.49
951.46	5496.75
951.63	5439.40
951.79	5525.42
951.96	5511.08
952.12	5527.47
952.29	5492.65
952.45	5453.74
952.62	5433.26
952.78	5447.60
952.94	5380.01
953.11	5394.35
953.27	5314.48
953.44	5568.43
953.60	5601.19
953.77	5533.61
953.93	5605.29
954.10	5511.08
954.26	5531.56
954.43	5439.40
954.59	5633.96
954.76	5470.12
954.92	5564.33
955.09	5468.08
955.25	5439.40
955.42	5515.18
955.58	5670.83
955.75	5582.76
955.91	5488.56
956.07	5558.19
956.24	5636.01
956.40	5562.28
956.57	5633.96
956.73	5576.62
956.90	5685.16
957.06	5709.74
957.23	5607.34
957.39	5523.37
957.56	5455.79
957.72	5363.63
957.88	5445.55
958.05	5644.20
958.21	5574.57
958.38	5558.19
958.54	5547.95
958.71	5588.91
958.87	5539.76
959.03	5437.36
959.20	5621.67
959.36	5423.02
959.53	5500.84
959.69	5496.75
959.85	5730.22
960.02	5621.67
960.18	5515.18
960.35	5539.76
960.51	5615.53
960.68	5420.97
960.84	5607.34
961.00	5574.57
961.17	5580.71
961.33	5590.95
961.50	5550.00
961.66	5662.63
961.82	5476.27
961.99	5498.80
962.15	5459.88
962.31	5449.64
962.48	5529.52
962.64	5367.73
962.81	5509.04
962.97	5390.25
963.13	5402.54
963.30	5523.37
963.46	5457.84
963.62	5523.37
963.79	5509.04
963.95	5457.84
964.12	5363.63
964.28	5337.01
964.44	5324.72
964.61	5472.17
964.77	5435.31
964.93	5468.08
965.10	5355.44
965.26	5418.93
965.42	5339.05
965.59	5289.90
965.75	5441.45
965.92	5357.49
966.08	5504.94
966.24	5203.89
966.41	5373.87
966.57	5416.88
966.73	5388.21
966.90	5384.11
967.06	5455.79
967.22	5273.52
967.39	5207.98
967.55	5332.91
967.71	5226.42
967.88	5304.24
968.04	5205.94
968.20	5238.70
968.37	5177.26
968.53	5224.37
968.69	5232.56
968.85	5138.35
969.02	5398.45
969.18	5107.63
969.34	5212.08
969.51	5345.20
969.67	5273.52
969.83	5189.55
970.00	5263.28
970.16	5136.31
970.32	5257.14
970.48	5392.30
970.65	5058.48
970.81	5181.36
970.97	5083.06
971.14	5089.20
971.30	5091.25
971.46	5167.03
971.63	5183.41
971.79	5179.31
971.95	5095.35
972.11	5070.77
972.28	4984.76
972.44	4988.85
972.60	4939.70
972.76	5099.44
972.93	5052.34
973.09	5081.01
973.25	4992.95
973.42	4923.32
973.58	5081.01
973.74	4937.65
973.90	5095.35
974.07	4861.88
974.23	5169.07
974.39	4859.83
974.55	4927.41
974.72	4890.55
974.88	4913.08
975.04	4921.27
975.20	4761.53
975.37	4806.58
975.53	4757.43
975.69	4855.73
975.85	4800.44
976.01	4853.69
976.18	4855.73
976.34	4812.73
976.50	4812.73
976.66	4915.12
976.83	4796.34
976.99	4861.88
977.15	4693.94
977.31	4577.21
977.47	4822.97
977.64	4728.76
977.80	4636.60
977.96	4652.98
978.12	4730.81
978.29	4648.89
978.45	4579.26
978.61	4538.30
978.77	4700.09
978.93	4612.03
979.10	4638.65
979.26	4693.94
979.42	4542.39
979.58	4489.15
979.74	4483.00
979.91	4646.84
980.07	4542.39
980.23	4515.77
980.39	4507.58
980.55	4534.20
980.71	4368.32
980.88	4421.56
981.04	4282.30
981.20	4370.37
981.36	4450.24
981.52	4542.39
981.68	4374.46
981.85	4526.01
982.01	4444.09
982.17	4298.69
982.33	4366.27
982.49	4685.75
982.65	4327.36
982.82	4343.74
982.98	4360.13
983.14	4218.82
983.30	4452.28
983.46	4394.94
983.62	4376.51
983.79	4255.68
983.95	4251.58
984.11	4130.75
984.27	4292.54
984.43	4247.49
984.59	4267.97
984.75	4310.97
984.91	4210.62
985.08	4302.78
985.24	4112.32
985.40	4116.42
985.56	4214.72
985.72	4286.40
985.88	4136.90
986.04	4079.55
986.20	4239.30
986.37	4120.51
986.53	4063.17
986.69	4136.90
986.85	4157.38
987.01	4048.83
987.17	4097.99
987.33	4046.79
987.49	3909.57
987.65	4157.38
987.82	4040.64
987.98	3993.54
988.14	4059.07
988.30	4005.83
988.46	3821.51
988.62	4069.31
988.78	4020.16
988.94	3846.09
989.10	3993.54
989.26	3809.22
989.42	3874.76
989.59	3846.09
989.75	3923.91
989.91	3936.20
990.07	3770.31
990.23	3725.26
990.39	3850.18
990.55	3753.93
990.71	3760.07
990.87	3735.50
991.03	3829.70
991.19	3639.24
991.35	3850.18
991.51	3764.17
991.67	3897.28
991.83	3694.54
992.00	3702.73
992.16	3760.07
992.32	3887.04
992.48	3788.74
992.64	3588.04
992.80	3682.25
992.96	3649.48
993.12	3672.01
993.28	3616.71
993.44	3661.77
993.60	3764.17
993.76	3614.66
993.92	3618.76
994.08	3717.06
994.24	3663.82
994.40	3579.85
994.56	3686.34
994.72	3510.22
994.88	3608.52
995.04	3585.99
995.20	3610.57
995.36	3659.72
995.52	3612.62
995.68	3567.56
995.84	3508.17
996.00	3575.75
996.16	3530.70
996.32	3542.99
996.48	3502.03
996.64	3542.99
996.80	3387.34
996.96	3471.31
997.12	3444.68
997.28	3327.95
997.44	3411.92
997.60	3424.20
997.76	3436.49
997.92	3399.63
998.08	3491.79
998.24	3262.41
998.40	3297.23
998.56	3407.82
998.72	3223.50
998.88	3286.99
999.04	3282.89
999.20	3411.92
999.36	3192.78
999.52	3305.42
999.68	3327.95
999.84	3342.28
1000.00	3311.57
1000.16	3237.84
1000.32	3200.98
1000.48	3432.40
1000.64	3229.65
1000.80	3125.20
1000.95	3092.43
1001.11	3207.12
1001.27	3119.06
1001.43	3157.97
1001.59	3174.35
1001.75	3098.58
1001.91	3129.30
1002.07	3243.98
1002.23	3092.43
1002.39	3020.75
1002.55	3028.95
1002.71	3067.86
1002.87	3125.20
1003.03	2947.03
1003.19	2992.08
1003.34	3100.62
1003.50	3028.95
1003.66	3147.73
1003.82	3033.04
1003.98	2914.26
1004.14	3022.80
1004.30	3002.32
1004.46	2897.88
1004.62	3055.57
1004.78	2924.50
1004.94	2875.35
1005.09	3033.04
1005.25	2957.27
1005.41	2893.78
1005.57	2772.95
1005.73	2912.21
1005.89	2844.63
1006.05	2990.03
1006.21	2912.21
1006.37	2783.19
1006.52	2742.23
1006.68	2697.17
1006.84	2924.50
1007.00	2822.10
1007.16	2848.72
1007.32	2723.80
1007.48	2803.67
1007.64	2850.77
1007.79	2770.90
1007.95	2721.75
1008.11	2781.14
1008.27	2736.09
1008.43	2772.95
1008.59	2738.13
1008.75	2707.41
1008.91	2721.75
1009.06	2623.45
1009.22	2738.13
1009.38	2734.04
1009.54	2695.13
1009.70	2615.26
1009.86	2594.78
1010.01	2725.85
1010.17	2572.25
1010.33	2715.61
1010.49	2631.64
1010.65	2818.00
1010.81	2461.66
1010.96	2641.88
1011.12	2574.30
1011.28	2471.90
1011.44	2693.08
1011.60	2469.85
1011.76	2465.75
1011.91	2602.97
1012.07	2586.58
1012.23	2533.34
1012.39	2541.53
1012.55	2514.91
1012.71	2555.86
1012.86	2494.43
1013.02	2473.95
1013.18	2367.45
1013.34	2516.95
1013.50	2582.49
1013.65	2443.23
1013.81	2492.38
1013.97	2469.85
1014.13	2406.36
1014.29	2379.74
1014.44	2478.04
1014.60	2326.49
1014.76	2361.31
1014.92	2330.59
1015.07	2416.60
1015.23	2469.85
1015.39	2295.77
1015.55	2394.08
1015.71	2389.98
1015.86	2289.63
1016.02	2344.92
1016.18	2244.57
1016.34	2330.59
1016.49	2277.34
1016.65	2334.68
1016.81	2328.54
1016.97	2258.91
1017.12	2353.12
1017.28	2174.94
1017.44	2031.58
1017.60	2234.33
1017.75	2238.43
1017.91	2187.23
1018.07	2179.04
1018.23	2232.29
1018.38	2181.09
1018.54	2179.04
1018.70	2279.39
1018.86	2154.46
1019.01	2281.44
1019.17	2232.29
1019.33	2451.42
1019.49	2072.54
1019.64	2207.71
1019.80	2172.89
1019.96	2138.08
1020.12	2162.66
1020.27	1994.72
1020.43	2152.42
1020.59	2066.40
1020.74	2213.85
1020.90	2131.94
1021.06	1935.33
1021.22	2088.93
1021.37	2082.78
1021.53	2054.11
1021.69	2156.51
1021.84	1984.48
1022.00	2039.78
1022.16	2158.56
1022.31	2035.68
1022.47	2125.79
1022.63	2068.45
1022.79	2035.68
1022.94	2015.20
1023.10	2240.48
1023.26	1970.15
1023.41	1980.39
1023.57	1945.57
1023.73	2031.58
1023.88	2035.68
1024.04	1937.38
1024.20	1957.86
1024.35	2101.22
1024.51	1970.15
1024.67	2047.97
1024.82	2037.73
1024.98	1943.52
1025.14	1976.29
1025.29	1974.24
1025.45	1968.10
1025.61	1851.36
1025.76	1839.08
1025.92	1869.80
1026.08	2007.01
1026.23	1920.99
1026.39	2070.50
1026.55	1894.37
1026.70	1849.32
1026.86	1923.04
1027.02	1982.43
1027.17	1873.89
1027.33	1865.70
1027.48	1814.50
1027.64	1785.83
1027.80	1814.50
1027.95	1920.99
1028.11	1728.49
1028.27	1863.65
1028.42	1953.76
1028.58	1837.03
1028.73	1818.60
1028.89	1757.16
1029.05	1929.19
1029.20	1822.69
>>>>>End Processed Spectral Data<<<<<
