SpectraSuite Data File
++++++++++++++++++++++++++++++++++++
Date: Fri Jun 02 14:44:36 CEST 2017
User: INFO_000
Dark Spectrum Present: No
Reference Spectrum Present: No
Number of Sampled Component Spectra: 1
Spectrometers: USB4H00879
Integration Time (usec): 80000 (USB4H00879)
Spectra Averaged: 1 (USB4H00879)
Boxcar Smoothing: 0 (USB4H00879)
Correct for Electrical Dark: No (USB4H00879)
Strobe/Lamp Enabled: No (USB4H00879)
Correct for Detector Non-linearity: No (USB4H00879)
Correct for Stray Light: No (USB4H00879)
Number of Pixels in Processed Spectrum: 3648
>>>>>Begin Processed Spectral Data<<<<<
345.13	1275.88
345.34	1275.88
345.56	1275.88
345.78	1269.74
345.99	1259.50
346.21	1683.43
346.42	1675.24
346.64	1687.53
346.86	1808.36
347.07	1748.97
347.29	1660.90
347.50	1548.26
347.72	1638.38
347.94	1681.38
348.15	1607.66
348.37	1617.90
348.59	1671.14
348.80	1617.90
349.02	1740.77
349.23	1834.98
349.45	1810.40
349.67	1880.04
349.88	1871.84
350.10	1867.75
350.31	1847.27
350.53	1871.84
350.75	1988.58
350.96	1820.64
351.18	1867.75
351.39	1857.51
351.61	1798.12
351.82	1865.70
352.04	1849.32
352.26	1843.17
352.47	1910.75
352.69	1906.66
352.90	1830.88
353.12	1843.17
353.34	1847.27
353.55	1978.34
353.77	1904.61
353.98	1791.97
354.20	1830.88
354.41	1861.60
354.63	1902.56
354.85	2072.54
355.06	1896.42
355.28	1789.92
355.49	1935.33
355.71	1863.65
355.92	1884.13
356.14	1943.52
356.35	1933.28
356.57	1830.88
356.79	1970.15
357.00	1845.22
357.22	1961.95
357.43	1927.14
357.65	1984.48
357.86	1853.41
358.08	1875.94
358.29	2035.68
358.51	1947.62
358.72	2041.82
358.94	1912.80
359.16	1912.80
359.37	1941.47
359.59	1970.15
359.80	1957.86
360.02	1920.99
360.23	1957.86
360.45	1980.39
360.66	1931.23
360.88	1894.37
361.09	1923.04
361.31	1935.33
361.52	2011.11
361.74	2035.68
361.95	2062.30
362.17	1916.90
362.38	1976.29
362.60	2027.49
362.81	1970.15
363.03	2041.82
363.24	1943.52
363.46	2072.54
363.67	2023.39
363.89	2056.16
364.10	2009.06
364.32	1998.82
364.53	2019.30
364.75	1900.52
364.96	2076.64
365.18	1986.53
365.39	1945.57
365.61	2002.91
365.82	2117.60
366.04	2093.02
366.25	2015.20
366.47	2058.21
366.68	2027.49
366.90	1912.80
367.11	2156.51
367.33	2033.63
367.54	2076.64
367.76	2037.73
367.97	2027.49
368.19	2066.40
368.40	2101.22
368.62	1888.23
368.83	1906.66
369.05	2078.69
369.26	2047.97
369.48	1992.67
369.69	1947.62
369.91	2078.69
370.12	2021.35
370.33	2129.89
370.55	1953.76
370.76	2084.83
370.98	2093.02
371.19	2007.01
371.41	2068.45
371.62	2086.88
371.84	2000.87
372.05	2170.85
372.27	2050.02
372.48	2099.17
372.69	2107.36
372.91	2207.71
373.12	2166.75
373.34	2179.04
373.55	2158.56
373.77	2172.89
373.98	2121.70
374.20	2185.18
374.41	2338.78
374.62	2166.75
374.84	2183.13
375.05	2183.13
375.27	2090.98
375.48	2127.84
375.70	2164.70
375.91	2215.90
376.12	2308.06
376.34	2123.74
376.55	2183.13
376.77	2256.86
376.98	2174.94
377.19	2146.27
377.41	2142.18
377.62	2191.33
377.84	2215.90
378.05	2396.12
378.27	2199.52
378.48	2275.29
378.69	2342.88
378.91	2346.97
379.12	2281.44
379.34	2224.09
379.55	2220.00
379.76	2256.86
379.98	2146.27
380.19	2162.66
380.41	2217.95
380.62	2279.39
380.83	2246.62
381.05	2160.61
381.26	2398.17
381.47	2306.01
381.69	2256.86
381.90	2316.25
382.12	2336.73
382.33	2369.50
382.54	2213.85
382.76	2330.59
382.97	2297.82
383.19	2383.84
383.40	2242.53
383.61	2336.73
383.83	2283.49
384.04	2385.88
384.25	2420.70
384.47	2400.22
384.68	2432.99
384.89	2373.60
385.11	2418.65
385.32	2242.53
385.54	2322.40
385.75	2344.92
385.96	2416.60
386.18	2408.41
386.39	2408.41
386.60	2303.96
386.82	2527.19
387.03	2447.32
387.24	2453.47
387.46	2478.04
387.67	2426.84
387.88	2576.34
388.10	2539.48
388.31	2541.53
388.52	2602.97
388.74	2506.71
388.95	2420.70
389.16	2537.43
389.38	2443.23
389.59	2588.63
389.80	2592.73
390.02	2582.49
390.23	2645.98
390.44	2541.53
390.66	2592.73
390.87	2529.24
391.08	2619.35
391.30	2648.02
391.51	2629.59
391.72	2600.92
391.94	2643.93
392.15	2645.98
392.36	2609.11
392.58	2566.10
392.79	2625.50
393.00	2662.36
393.22	2703.32
393.43	2785.24
393.64	2725.85
393.85	2756.57
394.07	2734.04
394.28	2734.04
394.49	2799.57
394.71	2748.37
394.92	2799.57
395.13	2721.75
395.35	2715.61
395.56	2762.71
395.77	2770.90
395.98	2869.20
396.20	2910.16
396.41	2766.81
396.62	2914.26
396.84	2748.37
397.05	2852.82
397.26	2963.41
397.47	2901.97
397.69	2920.40
397.90	3008.47
398.11	2936.79
398.32	2932.69
398.54	2928.60
398.75	2824.15
398.96	2875.35
399.18	3028.95
399.39	2947.03
399.60	3022.80
399.81	2969.55
400.03	2918.36
400.24	3321.81
400.45	2969.55
400.66	3184.59
400.88	2967.51
401.09	3084.24
401.30	3018.71
401.51	3153.87
401.73	3076.05
401.94	3061.71
402.15	3086.29
402.36	3020.75
402.58	3178.45
402.79	3131.34
403.00	3243.98
403.21	3121.10
403.43	3182.54
403.64	3272.65
403.85	3164.11
404.06	3237.84
404.27	3117.01
404.49	3184.59
404.70	3225.55
404.91	3246.03
405.12	3256.27
405.34	3215.31
405.55	3487.69
405.76	3151.82
405.97	3223.50
406.19	3307.47
406.40	3229.65
406.61	3305.42
406.82	3356.62
407.03	3403.72
407.25	3362.76
407.46	3424.20
407.67	3436.49
407.88	3534.79
408.09	3360.72
408.31	3207.12
408.52	3483.59
408.73	3448.78
408.94	3407.82
409.15	3377.10
409.37	3557.32
409.58	3448.78
409.79	3561.42
410.00	3567.56
410.21	3463.12
410.43	3489.74
410.64	3436.49
410.85	3672.01
411.06	3536.84
411.27	3612.62
411.48	3626.95
411.70	3581.90
411.91	3719.11
412.12	3725.26
412.33	3596.23
412.54	3690.44
412.76	3641.29
412.97	3749.83
413.18	3510.22
413.39	3682.25
413.60	3766.21
413.81	3723.21
414.03	3657.67
414.24	3690.44
414.45	3788.74
414.66	3629.00
414.87	3772.36
415.08	3659.72
415.30	3739.59
415.51	3835.85
415.72	3620.81
415.93	3762.12
416.14	3848.13
416.35	3803.08
416.56	3848.13
416.78	3882.95
416.99	3841.99
417.20	3907.52
417.41	3796.93
417.62	3831.75
417.83	3944.39
418.04	3989.44
418.26	3962.82
418.47	3870.66
418.68	3932.10
418.89	3907.52
419.10	4095.94
419.31	4079.55
419.52	4052.93
419.73	4085.70
419.95	4083.65
420.16	4044.74
420.37	4034.50
420.58	4196.29
420.79	4071.36
421.00	4104.13
421.21	4032.45
421.42	4071.36
421.63	4140.99
421.85	4253.63
422.06	4190.14
422.27	4106.18
422.48	4132.80
422.69	4325.31
422.90	4284.35
423.11	4196.29
423.32	4267.97
423.53	4200.38
423.75	4329.41
423.96	4493.24
424.17	4376.51
424.38	4444.09
424.59	4571.07
424.80	4483.00
425.01	4474.81
425.22	4362.17
425.43	4519.87
425.64	4722.62
425.85	4618.17
426.06	4784.06
426.28	4655.03
426.49	4413.37
426.70	4470.72
426.91	4636.60
427.12	4622.27
427.33	4556.73
427.54	4587.45
427.75	4698.04
427.96	4874.17
428.17	4679.61
428.38	4859.83
428.59	4796.34
428.80	4741.05
429.01	4878.26
429.23	4698.04
429.44	4923.32
429.65	4724.66
429.86	4999.09
430.07	4837.30
430.28	4743.10
430.49	4911.03
430.70	5083.06
430.91	5087.15
431.12	4878.26
431.33	5103.54
431.54	5261.23
431.75	5042.10
431.96	5058.48
432.17	5003.19
432.38	5111.73
432.59	5304.24
432.80	5382.06
433.01	5306.29
433.22	5328.81
433.43	5326.77
433.64	5277.62
433.85	5138.35
434.06	5365.68
434.27	5269.42
434.49	5406.64
434.70	5543.85
434.91	5443.50
435.12	5613.48
435.33	5435.31
435.54	5574.57
435.75	5287.86
435.96	5377.97
436.17	5506.99
436.38	5726.12
436.59	5607.34
436.80	5513.13
437.01	5859.24
437.22	5867.43
437.43	5779.37
437.64	5427.12
437.85	5924.77
438.06	5836.71
438.27	5726.12
438.48	5750.70
438.69	5916.58
438.90	5881.77
439.11	5719.98
439.32	5939.11
439.53	5920.68
439.74	5824.42
439.95	5961.64
440.16	5926.82
440.37	6037.41
440.57	5937.06
440.78	6145.95
440.99	6082.47
441.20	6090.66
441.41	5898.15
441.62	5967.78
441.83	5943.21
442.04	6152.10
442.25	6315.94
442.46	6137.76
442.67	6301.60
442.88	6541.21
443.09	6109.09
443.30	6223.78
443.51	6287.26
443.72	6743.96
443.93	6326.18
444.14	6586.27
444.35	6242.21
444.56	6406.05
444.77	6410.14
444.98	6334.37
445.19	6426.53
445.40	6324.13
445.61	6533.02
445.81	6721.43
446.02	6557.60
446.23	6506.40
446.44	6326.18
446.65	6473.63
446.86	6590.36
447.07	6639.51
447.28	6739.87
447.49	6500.25
447.70	6698.91
447.91	6778.78
448.12	6528.92
448.33	6750.10
448.54	6840.22
448.74	6803.35
448.95	6670.23
449.16	6784.92
449.37	6975.38
449.58	6895.51
449.79	7034.77
450.00	6793.11
450.21	6926.23
450.42	6928.28
450.63	7139.22
450.84	6975.38
451.05	7073.68
451.25	7104.40
451.46	6915.99
451.67	7165.84
451.88	7212.95
452.09	7325.58
452.30	7169.94
452.51	7063.44
452.72	7200.66
452.93	7552.91
453.13	7171.99
453.34	7159.70
453.55	7198.61
453.76	7376.78
453.97	7462.80
454.18	7473.04
454.39	7423.89
454.60	7557.00
454.81	7483.28
455.01	7686.03
455.22	7360.40
455.43	7524.24
455.64	7722.89
455.85	7911.30
456.06	8019.85
456.27	7788.43
456.48	7708.55
456.68	7724.94
456.89	7872.39
457.10	7937.93
457.31	8019.85
457.52	7831.43
457.73	7917.45
457.94	8157.06
458.14	7968.65
458.35	8370.05
458.56	7999.37
458.77	8009.61
458.98	8394.62
459.19	8175.49
459.39	8257.41
459.60	8429.44
459.81	8331.14
460.02	8619.90
460.23	8443.78
460.44	8636.28
460.65	8628.09
460.85	8611.71
461.06	8675.20
461.27	8388.48
461.48	9037.69
461.69	8978.30
461.89	8712.06
462.10	8859.51
462.31	8679.29
462.52	8908.66
462.73	9072.50
462.94	9291.63
463.14	9148.28
463.35	8884.09
463.56	9402.22
463.77	9217.91
463.98	9414.51
464.18	9260.91
464.39	9600.88
464.60	9756.52
464.81	9441.14
465.02	9664.36
465.23	9834.35
465.43	9619.31
465.64	9860.97
465.85	9789.29
466.06	9588.59
466.27	10194.79
466.47	10143.59
466.68	10162.02
466.89	10139.49
467.10	10108.77
467.30	10110.82
467.51	10377.06
467.72	10436.45
467.93	10274.66
468.14	10624.86
468.34	10706.78
468.55	10538.85
468.76	10712.92
468.97	10411.87
469.17	10690.40
469.38	10899.29
469.59	11038.55
469.80	10674.01
470.01	10968.92
470.21	11026.26
470.42	11386.71
470.63	11341.65
470.84	11140.95
471.04	11308.88
471.25	11587.41
471.46	11519.82
471.67	11710.29
471.87	11669.33
472.08	11661.13
472.29	12126.02
472.50	11628.37
472.70	11974.47
472.91	12037.96
473.12	12078.92
473.33	12080.97
473.53	12197.70
473.74	12238.66
473.95	12459.84
474.16	12615.49
474.36	12541.76
474.57	12808.00
474.78	12848.96
474.99	12808.00
475.19	12826.43
475.40	13160.25
475.61	13276.98
475.81	13301.56
476.02	13403.96
476.23	13334.32
476.44	13315.89
476.64	13602.61
476.85	13791.02
477.06	13780.78
477.27	14004.01
477.47	14255.91
477.68	14004.01
477.89	14284.58
478.09	14145.32
478.30	14176.04
478.51	14176.04
478.71	14561.06
478.92	14456.61
479.13	14677.79
479.34	14706.46
479.54	14784.29
479.75	14808.86
479.96	14835.49
480.16	14886.68
480.37	14966.56
480.58	15191.83
480.78	15496.98
480.99	15488.79
481.20	15451.92
481.41	15494.93
481.61	15761.17
481.82	15736.59
482.03	15699.73
482.23	15585.04
482.44	15894.29
482.65	16127.75
482.85	16258.82
483.06	16338.69
483.27	16334.60
483.47	16131.85
483.68	16332.55
483.89	16674.56
484.09	16381.70
484.30	16750.34
484.51	16774.91
484.71	16994.04
484.92	16979.71
485.13	16940.80
485.33	17166.07
485.54	16975.61
485.75	17385.21
485.95	17559.28
486.16	17460.98
486.37	17583.86
486.57	17708.79
486.78	17778.42
486.98	17829.62
487.19	17923.82
487.40	18122.48
487.60	18071.28
487.81	18376.42
488.02	18110.19
488.22	18216.68
488.43	18333.42
488.64	18362.09
488.84	18527.97
489.05	18872.03
489.25	18734.82
489.46	18953.95
489.67	18812.64
489.87	18929.38
490.08	18958.05
490.29	18996.96
490.49	19388.12
490.70	19539.67
490.90	19566.29
491.11	19519.19
491.32	19586.77
491.52	19457.75
491.73	19523.29
491.94	19699.41
492.14	19701.46
492.35	20008.65
492.55	19838.67
492.76	20289.23
492.97	20307.66
493.17	20199.12
493.38	20477.64
493.58	20512.46
493.79	20598.47
494.00	20467.40
494.20	20545.22
494.41	20926.14
494.61	21020.35
494.82	20844.23
495.02	20842.18
495.23	21010.11
495.44	21327.55
495.64	21159.61
495.85	21126.85
496.05	21335.74
496.26	21333.69
496.47	22087.34
496.67	21388.99
496.88	21980.85
497.08	21620.41
497.29	21986.99
497.49	21806.77
497.70	22152.88
497.91	22093.49
498.11	22396.59
498.32	22322.86
498.52	22498.98
498.73	22765.22
498.93	22679.21
499.14	22935.20
499.34	22714.02
499.55	23060.13
499.76	22771.36
499.96	23076.51
500.17	22924.96
500.37	22957.73
500.58	23041.70
500.78	23269.02
500.99	23469.72
501.19	23707.29
501.40	23514.78
501.60	23520.92
501.81	23740.05
502.02	23643.80
502.22	23789.20
502.43	24067.73
502.63	24227.47
502.84	24585.86
503.04	24313.48
503.25	24293.01
503.45	24424.08
503.66	24512.14
503.86	24598.15
504.07	24733.32
504.27	24383.12
504.48	25251.45
504.68	25030.27
504.89	25167.49
505.09	25206.40
505.30	24956.55
505.50	25349.76
505.71	25351.81
505.91	25572.99
506.12	25407.10
506.32	25478.78
506.53	25491.07
506.73	25581.18
506.94	25622.14
507.14	25792.12
507.35	25902.71
507.55	25951.86
507.76	25773.69
507.96	26089.07
508.17	26119.79
508.37	26281.58
508.58	26234.48
508.78	26588.78
508.99	26519.15
509.19	26521.20
509.40	26611.31
509.60	26818.15
509.81	27006.56
510.01	26373.74
510.22	26685.03
510.42	26998.37
510.63	26877.54
510.83	27070.05
511.04	27100.77
511.24	27166.31
511.44	27428.45
511.65	27264.61
511.85	27141.73
512.06	27319.90
512.26	27500.12
512.47	27504.22
512.67	27612.76
512.88	27442.78
513.08	27410.01
513.29	27881.05
513.49	27614.81
513.69	27721.30
513.90	27764.31
514.10	27745.88
514.31	27965.01
514.51	28034.64
514.72	27995.73
514.92	28077.65
515.13	28399.18
515.33	28517.96
515.53	28370.51
515.74	28556.88
515.94	28644.94
516.15	28919.37
516.35	28792.39
516.56	28423.76
516.76	28153.43
516.96	28595.79
517.17	28495.44
517.37	28966.47
517.58	28821.06
517.78	29044.29
517.99	29138.50
518.19	28995.14
518.39	29378.11
518.60	29236.80
518.80	29132.36
519.01	29249.09
519.21	29111.88
519.41	29222.47
519.62	29126.21
519.82	29468.22
520.03	29392.45
520.23	29668.92
520.43	29165.12
520.64	29775.42
520.84	29548.09
521.05	29644.35
521.25	29853.24
521.45	29851.19
521.66	30049.85
521.86	29894.20
522.07	30242.35
522.27	30262.83
522.47	29972.02
522.68	30338.61
522.88	30346.80
523.08	30076.47
523.29	30449.20
523.49	30371.38
523.70	30565.93
523.90	30713.39
524.10	30551.60
524.31	31034.92
524.51	30643.76
524.71	31149.60
524.92	31211.04
525.12	31241.76
525.33	30694.96
525.53	31063.59
525.73	31225.38
525.94	31194.66
526.14	31358.50
526.34	31268.39
526.55	31559.20
526.75	31381.03
526.95	31659.55
527.16	31913.50
527.36	31401.50
527.56	31897.11
527.77	32009.75
527.97	32034.33
528.17	31741.47
528.38	32202.26
528.58	32114.20
528.78	32245.27
528.99	32093.72
529.19	32505.36
529.39	32308.76
529.60	32509.46
529.80	32425.49
530.00	32402.96
530.21	32724.49
530.41	32783.88
530.61	32912.91
530.82	33015.30
531.02	32966.15
531.22	33222.15
531.43	33254.92
531.63	33115.65
531.83	33234.44
532.04	33885.69
532.24	33213.96
532.44	33723.90
532.64	33443.33
532.85	33629.69
533.05	33893.88
533.25	33828.35
533.46	33670.65
533.66	34395.64
533.86	33938.94
534.07	34360.82
534.27	34119.16
534.47	34534.90
534.67	34217.46
534.88	34645.49
535.08	34512.37
535.28	35026.41
535.49	34967.02
535.69	35286.50
535.89	35227.11
536.09	34903.53
536.30	35399.14
536.50	35190.25
536.70	35511.78
536.91	35393.00
537.11	35657.18
537.31	35673.57
537.51	35638.75
537.72	35958.24
537.92	36091.35
538.12	36312.53
538.32	36451.80
538.53	36214.23
538.73	36136.41
538.93	36435.41
539.13	36132.31
539.34	36455.89
539.54	36476.37
539.74	36732.37
539.94	36615.63
540.15	37062.09
540.35	37266.89
540.55	37361.09
540.75	37146.06
540.96	37041.61
541.16	37135.82
541.36	37416.39
541.56	37449.16
541.77	37656.00
541.97	37533.12
542.17	37907.90
542.37	37950.91
542.58	37885.37
542.78	37496.26
542.98	37866.94
543.18	38096.31
543.38	38366.65
543.59	38389.17
543.79	38303.16
543.99	38864.30
544.19	38442.42
544.40	38567.35
544.60	39421.35
544.80	38639.03
545.00	39308.71
545.20	39202.22
545.41	38899.12
545.61	39163.31
545.81	39142.83
546.01	39517.60
546.21	39228.84
546.42	38974.89
546.62	39511.46
546.82	39753.12
547.02	39540.13
547.22	39886.24
547.43	39515.56
547.63	40125.85
547.83	39878.05
548.03	39820.70
548.23	40168.86
548.44	40154.52
548.64	40334.74
548.84	40398.23
549.04	40379.80
549.24	40924.56
549.45	41112.97
549.65	40502.68
549.85	41246.09
550.05	40895.89
550.25	41123.21
550.45	41479.56
550.66	41229.71
550.86	41045.39
551.06	41287.05
551.26	41469.32
551.46	41659.78
551.66	41313.67
551.87	41602.44
552.07	41868.67
552.27	41653.64
552.47	42014.08
552.67	41969.02
552.87	42022.27
553.07	42204.54
553.28	42243.45
553.48	42407.29
553.68	42036.61
553.88	42345.85
554.08	42501.50
554.28	42397.05
554.48	42143.10
554.69	42376.57
554.89	42372.47
555.09	42055.04
555.29	42220.92
555.49	42595.70
555.69	43036.02
555.89	42607.99
556.10	42933.62
556.30	42933.62
556.50	43070.83
556.70	42845.55
556.90	43271.53
557.10	43302.25
557.30	43251.05
557.50	43357.55
557.70	43279.72
557.91	43580.78
558.11	43271.53
558.31	43758.95
558.51	43478.38
558.71	43531.62
558.91	43543.91
559.11	43332.97
559.31	43488.62
559.51	43425.13
559.72	43832.68
559.92	43914.59
560.12	43355.50
560.32	44174.69
560.52	44021.09
560.72	44103.01
560.92	44213.60
561.12	43459.94
561.32	44258.65
561.52	43840.87
561.72	44598.62
561.93	44094.82
562.13	44211.55
562.33	43971.94
562.53	44383.58
562.73	43957.60
562.93	44590.42
563.13	44305.76
563.33	44191.07
563.53	44504.41
563.73	43902.31
563.93	44381.53
564.13	45004.11
564.33	44279.13
564.53	44457.31
564.74	44815.70
564.94	44027.23
565.14	44651.86
565.34	44232.03
565.54	44643.67
565.74	44741.97
565.94	45509.96
566.14	44698.97
566.34	44793.17
566.54	44891.48
566.74	44676.44
566.94	44713.30
567.14	45147.47
567.34	44471.64
567.54	44817.75
567.74	44586.33
567.94	44533.08
568.14	45204.81
568.34	44660.05
568.54	44991.83
568.74	44930.39
568.94	45094.22
569.14	45374.80
569.34	44940.63
569.54	45036.88
569.75	45251.92
569.95	45317.45
570.15	45579.59
570.35	44774.74
570.55	45126.99
570.75	45161.81
570.95	45219.15
571.15	45206.86
571.35	45311.31
571.55	45548.87
571.75	45524.30
571.95	45170.00
572.15	44854.61
572.35	45561.16
572.55	45151.57
572.75	45626.70
572.95	45796.68
573.15	45190.48
573.35	45333.84
573.55	45167.95
573.75	45868.36
573.95	45501.77
574.15	45460.81
574.35	45464.91
574.55	45440.33
574.75	45423.95
574.95	45542.73
575.15	45231.44
575.34	45860.16
575.54	45794.63
575.74	45858.12
575.94	45610.31
576.14	45528.39
576.34	46228.80
576.54	46142.78
576.74	45878.60
576.94	45655.37
577.14	46052.67
577.34	46097.73
577.54	46036.29
577.74	45854.02
577.94	46236.99
578.14	46171.46
578.34	46535.99
578.54	45671.75
578.74	46191.94
578.94	46118.21
579.14	46032.19
579.34	46511.42
579.54	46419.26
579.74	46673.21
579.94	46497.08
580.13	46503.23
580.33	46456.12
580.53	46812.47
580.73	46851.38
580.93	46585.15
581.13	46492.99
581.33	46875.96
581.53	46689.59
581.73	46497.08
581.93	46959.92
582.13	46902.58
582.33	46906.68
582.53	47189.30
582.73	46873.91
582.92	46941.49
583.12	47314.22
583.32	46964.02
583.52	46697.78
583.72	47054.13
583.92	47447.34
584.12	47238.45
584.32	47777.06
584.52	47654.18
584.72	47467.82
584.92	47535.40
585.11	47580.46
585.31	47895.85
585.51	47658.28
585.71	47822.12
585.91	48239.90
586.11	47879.46
586.31	47899.94
586.51	47502.64
586.71	47959.33
586.91	48792.86
587.10	48366.88
587.30	47830.31
587.50	48203.04
587.70	48153.89
587.90	48633.11
588.10	48524.57
588.30	48577.82
588.50	48551.20
588.69	48803.10
588.89	48420.13
589.09	48493.85
589.29	48665.88
589.49	48786.71
589.69	48303.39
589.89	48493.85
590.08	48805.14
590.28	49055.00
590.48	48862.49
590.68	49181.97
590.88	48962.84
591.08	48794.90
591.28	48917.78
591.47	49476.88
591.67	49413.39
591.87	49472.78
592.07	49685.77
592.27	49280.27
592.47	49184.02
592.67	49681.67
592.86	50029.83
593.06	49808.65
593.26	50177.28
593.46	49874.18
593.66	49616.14
593.86	49952.01
594.05	49988.87
594.25	50148.61
594.45	50142.47
594.65	50281.73
594.85	49888.52
595.05	50345.22
595.24	50500.86
595.44	50543.87
595.64	50611.45
595.84	50584.83
596.04	50427.13
596.23	50717.95
596.43	50744.57
596.63	50986.23
596.83	50914.55
597.03	51252.47
597.22	51565.81
597.42	50916.60
597.62	51682.54
597.82	51268.85
598.02	51365.10
598.21	51549.42
598.41	51264.75
598.61	52321.51
598.81	51537.13
599.01	51811.56
599.20	51881.19
599.40	51698.92
599.60	51916.01
599.80	52129.00
600.00	52118.76
600.19	52509.92
600.39	51930.34
600.59	52151.52
600.79	52571.36
600.98	52471.01
601.18	53081.30
601.38	52679.90
601.58	52964.57
601.78	52690.14
601.97	52610.27
602.17	53048.53
602.37	53171.41
602.57	52880.60
602.76	53320.91
602.96	53105.88
603.16	53044.44
603.36	53277.91
603.55	53322.96
603.75	53351.63
603.95	53517.52
604.15	53632.21
604.34	53140.69
604.54	53812.43
604.74	54189.25
604.94	53769.42
605.13	54238.40
605.33	54041.80
605.53	54121.67
605.73	54432.96
605.92	53855.43
606.12	54625.47
606.32	54408.39
606.52	54326.47
606.71	54359.23
606.91	54590.66
607.11	54844.60
607.30	54951.10
607.50	54750.40
607.70	55108.79
607.90	54625.47
608.09	54944.95
608.29	54953.15
608.49	55424.18
608.68	55043.26
608.88	54678.72
609.08	55424.18
609.28	54922.43
609.47	54967.48
609.67	55395.51
609.87	55411.89
610.06	55936.17
610.26	55485.62
610.46	55895.21
610.66	55420.08
610.85	55321.78
611.05	55344.31
611.25	55712.94
611.44	55289.01
611.64	55821.48
611.84	55620.78
612.03	55397.55
612.23	55669.93
612.43	56009.90
612.62	55495.86
612.82	55577.78
613.02	55669.93
613.21	56251.56
613.41	55844.01
613.61	56538.27
613.80	55422.13
614.00	55850.16
614.20	56102.06
614.39	56083.62
614.59	55944.36
614.79	55932.07
614.98	55825.58
615.18	55897.26
615.38	56130.73
615.57	55592.11
615.77	56284.33
615.97	56032.42
616.16	55751.85
616.36	56157.35
616.56	55899.31
616.75	56095.91
616.95	55704.75
617.15	56161.45
617.34	55954.60
617.54	55731.37
617.74	55946.41
617.93	56073.38
618.13	55276.72
618.32	55479.47
618.52	55991.47
618.72	56112.30
618.91	55532.72
619.11	55809.20
619.31	55776.43
619.50	55882.92
619.70	55536.82
619.90	55868.59
620.09	55923.88
620.29	55637.17
620.48	55506.10
620.68	56108.20
620.88	55690.41
621.07	55942.31
621.27	56108.20
621.46	55354.55
621.66	55612.59
621.86	55811.24
622.05	55350.45
622.25	55772.33
622.44	55823.53
622.64	55745.71
622.84	55604.40
623.03	55358.64
623.23	55663.79
623.42	55784.62
623.62	55526.58
623.82	55721.13
624.01	55610.54
624.21	55635.12
624.40	55344.31
624.60	55596.21
624.80	55393.46
624.99	55235.77
625.19	55028.92
625.38	55647.41
625.58	55360.69
625.77	55307.44
625.97	55354.55
626.17	55069.88
626.36	55139.51
626.56	55385.27
626.75	54596.80
626.95	55284.92
627.14	54711.49
627.34	55354.55
627.54	54887.61
627.73	55364.79
627.93	54992.06
628.12	54561.98
628.32	55002.30
628.51	54803.64
628.71	54676.67
628.90	55141.56
629.10	54752.44
629.30	55088.31
629.49	55280.82
629.69	54688.96
629.88	54885.56
630.08	55145.65
630.27	54979.77
630.47	54932.67
630.66	54875.32
630.86	55332.02
631.05	55067.83
631.25	54987.96
631.44	55286.96
631.64	54648.00
631.84	55137.46
632.03	55090.36
632.23	54981.82
632.42	55172.28
632.62	54920.38
632.81	54508.74
633.01	54711.49
633.20	55121.08
633.40	55233.72
633.59	54727.87
633.79	54357.19
633.98	54502.59
634.18	54766.78
634.37	54701.25
634.57	54846.65
634.76	54731.96
634.96	54930.62
635.15	54961.34
635.35	54242.50
635.54	54654.14
635.74	54721.72
635.93	53941.45
636.13	55078.07
636.32	54916.28
636.52	54363.33
636.71	54414.53
636.91	54725.82
637.10	54731.96
637.30	54437.06
637.49	54940.86
637.69	54568.13
637.88	54817.98
638.08	54400.19
638.27	54871.23
638.46	54969.53
638.66	54695.10
638.85	54854.84
639.05	54494.40
639.24	54928.57
639.44	54176.97
639.63	54475.97
639.83	54695.10
640.02	54600.89
640.22	54709.44
640.41	54834.36
640.61	54179.01
640.80	54949.05
640.99	54064.33
641.19	54965.43
641.38	54752.44
641.58	54645.95
641.77	54273.22
641.97	54574.27
642.16	54303.94
642.36	54578.37
642.55	55217.33
642.74	54645.95
642.94	55106.74
643.13	54809.79
643.33	55186.61
643.52	54613.18
643.72	54834.36
643.91	54469.82
644.10	54547.65
644.30	55012.54
644.49	54514.88
644.69	54805.69
644.88	55217.33
645.08	54265.03
645.27	55162.04
645.46	54582.46
645.66	55039.16
645.85	54889.66
646.05	55121.08
646.24	55241.91
646.43	54899.90
646.63	55065.78
646.82	55051.45
647.02	55116.98
647.21	55266.48
647.40	54858.94
647.60	55039.16
647.79	55454.90
647.99	54899.90
648.18	55141.56
648.37	55811.24
648.57	55469.23
648.76	55094.46
648.96	54903.99
649.15	55157.94
649.34	55407.79
649.54	55418.03
649.73	55237.81
649.92	55768.24
650.12	55370.93
650.31	55198.90
650.51	55579.82
650.70	55362.74
650.89	55366.84
651.09	56057.00
651.28	55719.09
651.47	55604.40
651.67	55985.32
651.86	56022.19
652.06	54924.47
652.25	55690.41
652.44	55792.81
652.64	55565.49
652.83	55481.52
653.02	55547.06
653.22	56020.14
653.41	55844.01
653.60	55487.67
653.80	55710.89
653.99	55739.57
654.18	55710.89
654.38	55809.20
654.57	55628.98
654.76	55891.12
654.96	55428.27
655.15	55690.41
655.34	56091.82
655.54	55178.42
655.73	56143.02
655.92	56034.47
656.12	56310.95
656.31	56130.73
656.50	56210.60
656.70	56370.34
656.89	55866.54
657.08	56263.85
657.28	56126.63
657.47	55923.88
657.66	56196.26
657.86	56315.04
658.05	56341.67
658.24	56609.95
658.43	56013.99
658.63	56517.79
658.82	56472.74
659.01	56243.37
659.21	56423.59
659.40	56726.69
659.59	56321.19
659.79	56474.79
659.98	56601.76
660.17	56704.16
660.36	56745.12
660.56	56513.70
660.75	56614.05
660.94	56718.49
661.14	56632.48
661.33	56927.39
661.52	56671.39
661.71	56868.00
661.91	56890.52
662.10	56634.53
662.29	57447.57
662.49	56804.51
662.68	57025.69
662.87	57054.36
663.06	57189.53
663.26	56913.05
663.45	57504.91
663.64	56949.92
663.83	57246.87
664.03	57248.92
664.22	57543.83
664.41	57269.40
664.60	57275.54
664.80	57441.43
664.99	57269.40
665.18	57502.87
665.37	57138.33
665.57	57345.17
665.76	57201.82
665.95	57263.25
666.14	57253.01
666.34	57554.07
666.53	57250.97
666.72	57558.16
666.91	56925.34
667.11	57269.40
667.30	57408.66
667.49	57648.27
667.68	57562.26
667.87	57689.23
668.07	58094.73
668.26	57513.11
668.45	57312.41
668.64	57506.96
668.84	57750.67
669.03	57416.85
669.22	57844.88
669.41	57863.31
669.60	57672.85
669.80	57349.27
669.99	57676.94
670.18	57533.59
670.37	58059.91
670.57	57840.78
670.76	57906.32
670.95	57978.00
671.14	57644.18
671.33	57713.81
671.53	58023.05
671.72	58322.05
671.91	57609.36
672.10	57840.78
672.29	57818.25
672.48	57529.49
672.68	58283.14
672.87	57865.36
673.06	58051.72
673.25	58055.82
673.44	57857.17
673.64	57308.31
673.83	57945.23
674.02	57957.52
674.21	57652.37
674.40	58143.88
674.59	57472.15
674.79	57982.09
674.98	57439.38
675.17	57971.85
675.36	57832.59
675.55	58156.17
675.74	57619.60
675.94	57848.97
676.13	57924.75
676.32	58227.85
676.51	57836.69
676.70	58004.62
676.89	58037.39
677.08	58080.39
677.28	57621.65
677.47	57916.56
677.66	58166.41
677.85	58158.22
678.04	58227.85
678.23	58406.02
678.42	58352.77
678.62	58047.63
678.81	57828.49
679.00	57959.56
679.19	58406.02
679.38	58094.73
679.57	58031.24
679.76	58209.42
679.96	58119.31
680.15	57873.55
680.34	58121.35
680.53	58283.14
680.72	58260.62
680.91	57900.17
681.10	57848.97
681.29	58369.16
681.48	57875.60
681.68	57521.30
681.87	57584.79
682.06	57701.52
682.25	57685.14
682.44	57365.65
682.63	57920.65
682.82	57726.10
683.01	57463.96
683.20	57373.84
683.39	57742.48
683.59	57537.68
683.78	57476.24
683.97	57308.31
684.16	57398.42
684.35	57203.86
684.54	57406.61
684.73	56972.44
684.92	56843.42
685.11	56964.25
685.30	56966.30
685.49	57418.90
685.69	57328.79
685.88	57332.89
686.07	57308.31
686.26	56939.68
686.45	57107.61
686.64	56845.47
686.83	56736.93
687.02	57267.35
687.21	57083.03
687.40	57009.31
687.59	56863.90
687.78	56902.81
687.97	56822.94
688.16	56720.54
688.35	56579.23
688.54	56870.04
688.74	56669.34
688.93	56698.01
689.12	56851.61
689.31	56986.78
689.50	56853.66
689.69	56407.20
689.88	56120.49
690.07	57037.98
690.26	56284.33
690.45	57046.17
690.64	56691.87
690.83	56128.68
691.02	56493.22
691.21	55960.75
691.40	56153.26
691.59	56413.35
691.78	56073.38
691.97	56181.93
692.16	56005.80
692.35	56226.98
692.54	56554.66
692.73	56485.03
692.92	56226.98
693.11	55768.24
693.30	55946.41
693.49	56210.60
693.68	55731.37
693.87	56128.68
694.06	56057.00
694.25	55946.41
694.44	55690.41
694.63	55659.69
694.82	55608.50
695.01	55555.25
695.20	55268.53
695.39	55315.64
695.58	55710.89
695.77	55055.54
695.96	54998.20
696.15	55264.44
696.34	55493.81
696.53	54928.57
696.72	55784.62
696.91	55022.78
697.10	54949.05
697.29	54506.69
697.48	55596.21
697.67	54674.62
697.86	54549.70
698.05	54639.81
698.24	54932.67
698.43	54277.32
698.62	54686.91
698.81	54224.07
699.00	54850.75
699.19	54383.81
699.38	54555.84
699.57	53869.77
699.76	54977.72
699.95	54267.08
700.14	54254.79
700.32	54191.30
700.51	53941.45
700.70	54326.47
700.89	54312.13
701.08	54392.00
701.27	54156.49
701.46	54240.45
701.65	53486.80
701.84	53707.98
702.03	53910.73
702.22	53282.00
702.41	53765.32
702.60	53720.27
702.79	53664.97
702.98	53519.57
703.17	53769.42
703.35	53263.57
703.54	53144.79
703.73	53646.54
703.92	53570.77
704.11	53372.11
704.30	53904.59
704.49	52868.31
704.68	53157.08
704.87	53161.17
705.06	53456.08
705.25	52737.24
705.43	53089.49
705.62	53288.15
705.81	53026.01
706.00	52886.74
706.19	52749.53
706.38	52499.68
706.57	52899.03
706.76	52544.73
706.95	52778.20
707.14	52872.41
707.32	52528.35
707.51	52516.06
707.70	52628.70
707.89	52393.18
708.08	52501.73
708.27	52561.12
708.46	52622.56
708.65	52378.85
708.84	52251.87
709.02	52053.22
709.21	52233.44
709.40	52409.57
709.59	51979.49
709.78	52083.94
709.97	52401.38
710.16	51338.48
710.34	51979.49
710.53	51895.53
710.72	51700.97
710.91	51797.23
711.10	51948.78
711.29	51786.99
711.48	51762.41
711.66	51672.30
711.85	51133.68
712.04	51377.39
712.23	51598.57
712.42	51283.19
712.61	51361.01
712.80	51158.26
712.98	51223.79
713.17	51238.13
713.36	51115.25
713.55	51145.97
713.74	51635.44
713.93	51315.95
714.11	51242.23
714.30	50869.50
714.49	50877.69
714.68	51037.43
714.87	50564.35
715.06	51234.03
715.24	51408.11
715.43	50877.69
715.62	50507.01
715.81	50593.02
716.00	50707.71
716.18	50220.29
716.37	50294.02
716.56	50246.91
716.75	51002.61
716.94	50703.61
717.12	50287.87
717.31	50638.08
717.50	50189.57
717.69	50472.19
717.88	50298.11
718.06	50220.29
718.25	50156.80
718.44	49839.37
718.63	50164.99
718.82	49872.14
719.00	50148.61
719.19	50162.95
719.38	49786.12
719.57	49560.84
719.76	49460.49
719.94	49558.80
720.13	49487.12
720.32	49966.34
720.51	49636.62
720.69	49399.05
720.88	49825.03
721.07	49239.31
721.26	49141.01
721.44	49009.94
721.63	48823.58
721.82	49126.67
722.01	49016.08
722.20	49003.80
722.38	48829.72
722.57	48973.08
722.76	48649.50
722.95	48653.59
723.13	48755.99
723.32	48780.57
723.51	48534.81
723.70	48276.77
723.88	48635.16
724.07	48108.83
724.26	48626.97
724.44	47818.02
724.63	48674.07
724.82	48305.44
725.01	48633.11
725.19	48112.93
725.38	48047.39
725.57	48196.90
725.76	47858.98
725.94	47910.18
726.13	47971.62
726.32	48274.72
726.51	47963.43
726.69	48710.94
726.88	48487.71
727.07	47959.33
727.25	47842.60
727.44	48200.99
727.63	47865.13
727.82	48477.47
728.00	48276.77
728.19	47906.08
728.38	48315.68
728.56	47985.96
728.75	48325.92
728.94	47969.57
729.12	47979.81
729.31	47959.33
729.50	47633.71
729.69	48241.95
729.87	48094.50
730.06	47863.08
730.25	48069.92
730.43	48125.22
730.62	47686.95
730.81	48090.40
730.99	47740.20
731.18	47748.39
731.37	48043.30
731.55	48387.36
731.74	48592.15
731.93	48014.63
732.11	48422.17
732.30	47631.66
732.49	48053.54
732.67	47842.60
732.86	48008.48
733.05	47846.69
733.23	47936.80
733.42	47865.13
733.61	47807.78
733.79	48117.03
733.98	48358.69
734.17	47897.89
734.35	47627.56
734.54	48047.39
734.73	47990.05
734.91	47703.34
735.10	47781.16
735.29	47861.03
735.47	47600.94
735.66	47660.33
735.84	48389.41
736.03	47664.42
736.22	48084.26
736.40	47760.68
736.59	47803.69
736.78	47826.21
736.96	47598.89
737.15	47553.83
737.33	47301.93
737.52	47537.45
737.71	47711.53
737.89	47641.90
738.08	47805.73
738.27	47703.34
738.45	48067.87
738.64	47904.04
738.82	47439.15
739.01	47867.17
739.20	47330.61
739.38	47527.21
739.57	48209.18
739.75	48010.53
739.94	47502.64
740.13	47658.28
740.31	47299.89
740.50	47564.07
740.68	47881.51
740.87	47949.09
741.06	47660.33
741.24	47441.20
741.43	47205.68
741.61	47353.13
741.80	47418.67
741.99	47199.54
742.17	47381.80
742.36	47373.61
742.54	47338.80
742.73	47346.99
742.91	47617.32
743.10	47670.57
743.29	47529.26
743.47	47342.89
743.66	47791.40
743.84	47578.41
744.03	47815.97
744.21	47455.53
744.40	47695.14
744.59	47412.52
744.77	47346.99
744.96	46955.83
745.14	47293.74
745.33	47457.58
745.51	47228.21
745.70	47654.18
745.88	46736.69
746.07	46974.26
746.26	47086.90
746.44	47363.37
746.63	47224.11
746.81	47004.98
747.00	46921.01
747.18	47363.37
747.37	47404.33
747.55	46585.15
747.74	47109.43
747.92	46863.67
748.11	46497.08
748.29	47293.74
748.48	47351.09
748.66	46875.96
748.85	46779.70
749.03	46556.47
749.22	46785.85
749.41	46857.52
749.59	46888.24
749.78	46570.81
749.96	46583.10
750.15	46744.89
750.33	46859.57
750.52	46599.48
750.70	46916.92
750.89	46464.32
751.07	46703.93
751.26	46593.34
751.44	46703.93
751.63	46097.73
751.81	46511.42
752.00	46503.23
752.18	46712.12
752.37	46359.87
752.55	46171.46
752.74	46089.54
752.92	46226.75
753.10	45927.75
753.29	46486.84
753.47	46204.22
753.66	45768.01
753.84	46568.76
754.03	46048.58
754.21	45925.70
754.40	46316.86
754.58	46128.45
754.77	46124.35
754.95	46083.39
755.14	46089.54
755.32	45745.48
755.51	45747.53
755.69	45804.87
755.88	45811.01
756.06	45909.32
756.24	46005.57
756.43	45942.08
756.61	45692.23
756.80	45772.10
756.98	45411.66
757.17	45815.11
757.35	45911.36
757.54	45159.76
757.72	45442.38
757.90	45587.78
758.09	45208.91
758.27	45430.09
758.46	45071.70
758.64	45362.51
758.83	45765.96
759.01	45385.04
759.19	45446.47
759.38	45131.09
759.56	45866.31
759.75	45378.89
759.93	44836.18
760.12	44852.56
760.30	45378.89
760.48	45073.74
760.67	44907.86
760.85	45249.87
761.04	45499.72
761.22	44895.57
761.40	45092.18
761.59	45118.80
761.77	44750.17
761.96	44375.39
762.14	44623.19
762.32	44987.73
762.51	44901.71
762.69	45057.36
762.88	44670.29
763.06	44979.54
763.24	44977.49
763.43	44967.25
763.61	44690.77
763.80	44574.04
763.98	44148.06
764.16	44506.46
764.35	44256.60
764.53	43662.69
764.72	44037.47
764.90	44348.76
765.08	44074.34
765.27	43955.55
765.45	43758.95
765.63	43914.59
765.82	43910.50
766.00	43795.81
766.18	43863.39
766.37	43769.19
766.55	43797.86
766.74	43750.76
766.92	43314.54
767.10	43693.41
767.29	43748.71
767.47	42909.04
767.65	43545.96
767.84	42923.38
768.02	43736.42
768.20	42853.75
768.39	43060.59
768.57	43273.58
768.75	43433.32
768.94	42898.80
769.12	42937.71
769.30	42888.56
769.49	42997.10
769.67	42704.24
769.85	41977.22
770.04	42648.95
770.22	42694.00
770.40	42636.66
770.59	42521.98
770.77	42839.41
770.95	42478.97
771.14	42554.74
771.32	42059.13
771.50	41952.64
771.69	41932.16
771.87	42800.50
772.05	42214.78
772.24	41768.32
772.42	42210.68
772.60	42276.22
772.78	41665.92
772.97	42067.33
773.15	42345.85
773.33	41751.94
773.52	41778.56
773.70	42030.46
773.88	41811.33
774.07	41532.81
774.25	41747.84
774.43	42096.00
774.61	41774.47
774.80	42040.70
774.98	41770.37
775.16	42059.13
775.34	41815.43
775.53	41528.71
775.71	41694.60
775.89	42098.05
776.08	41543.05
776.26	41663.88
776.44	41731.46
776.62	41876.86
776.81	41289.10
776.99	41813.38
777.17	41989.50
777.35	42063.23
777.54	41831.81
777.72	41534.85
777.90	41657.73
778.08	42030.46
778.27	42012.03
778.45	42100.09
778.63	42173.82
778.81	41612.68
779.00	42472.82
779.18	42235.26
779.36	42413.43
779.54	42155.39
779.73	41934.21
779.91	42132.86
780.09	42157.44
780.27	42489.21
780.46	42204.54
780.64	42503.54
780.82	42311.03
781.00	42052.99
781.19	42435.96
781.37	42263.93
781.55	42190.20
781.73	42628.47
781.91	42198.40
782.10	41921.92
782.28	42265.98
782.46	42325.37
782.64	42575.22
782.82	42038.65
783.01	42388.86
783.19	42292.60
783.37	42438.01
783.55	42409.34
783.74	42761.59
783.92	42083.71
784.10	42845.55
784.28	42235.26
784.46	42341.75
784.64	41721.22
784.83	41862.53
785.01	42177.92
785.19	42259.84
785.37	42235.26
785.55	42079.61
785.74	41784.71
785.92	41758.08
786.10	42147.20
786.28	42186.11
786.46	41889.15
786.64	41745.80
786.83	41469.32
787.01	41663.88
787.19	41870.72
787.37	42118.53
787.55	41788.80
787.74	41495.94
787.92	41401.74
788.10	41231.75
788.28	41172.36
788.46	41250.19
788.64	40791.44
788.82	41151.88
789.01	41026.96
789.19	40947.09
789.37	40537.49
789.55	40893.84
789.73	40656.28
789.91	40549.78
790.09	40416.66
790.28	40422.81
790.46	40344.98
790.64	40478.10
790.82	40187.29
791.00	40371.61
791.18	40230.30
791.36	40175.00
791.55	40625.56
791.73	39695.78
791.91	40150.43
792.09	40064.41
792.27	39845.28
792.45	39826.85
792.63	40043.93
792.81	39622.05
793.00	39863.71
793.18	39646.63
793.36	39447.97
793.54	39462.31
793.72	39312.81
793.90	39357.86
794.08	39290.28
794.26	39128.49
794.44	38567.35
794.62	38419.89
794.81	38610.35
794.99	38526.39
795.17	38610.35
795.35	38507.96
795.53	38579.64
795.71	38596.02
795.89	37983.68
796.07	37977.53
796.25	37909.95
796.43	37936.57
796.61	37766.59
796.80	37699.01
796.98	37774.78
797.16	37666.24
797.34	37731.78
797.52	37420.48
797.70	37225.93
797.88	37424.58
798.06	36902.35
798.24	37066.19
798.42	36660.69
798.60	36832.72
798.78	36799.95
798.96	36949.45
799.14	36707.79
799.32	36758.99
799.51	36324.82
799.69	36498.90
799.87	36500.95
800.05	36136.41
800.23	36279.77
800.41	36124.12
800.59	36046.30
800.77	35546.59
800.95	35323.36
801.13	36066.78
801.31	35266.02
801.49	35452.39
801.67	35403.24
801.85	35311.08
802.03	35151.34
802.21	35034.60
802.39	35018.22
802.57	35184.10
802.75	35083.75
802.93	34534.90
803.11	34797.04
803.29	34774.51
803.47	34620.91
803.65	34481.65
803.83	34561.52
804.01	34614.77
804.19	34291.19
804.37	34235.89
804.55	34379.25
804.73	33936.89
804.91	33893.88
805.09	33945.08
805.27	34096.63
805.45	33918.46
805.63	33959.42
805.81	33674.75
805.99	33758.72
806.17	33783.29
806.35	33568.26
806.53	33013.26
806.71	33283.59
806.89	33185.29
807.07	33539.58
807.25	33447.43
807.43	33314.31
807.61	33107.46
807.79	32972.30
807.97	32624.14
808.15	32718.35
808.33	32650.77
808.51	32693.77
808.69	32615.95
808.87	32497.17
809.05	32235.03
809.23	32204.31
809.41	32204.31
809.59	32298.52
809.77	32570.90
809.95	31819.29
810.13	32065.05
810.31	32038.42
810.49	31868.44
810.67	31634.97
810.84	31966.74
811.02	31733.28
811.20	31667.74
811.38	31477.28
811.56	31307.30
811.74	31348.26
811.92	31403.55
812.10	31309.35
812.28	31544.86
812.46	31223.33
812.64	31028.77
812.82	30899.75
813.00	31270.43
813.18	31301.15
813.36	30983.72
813.53	30889.51
813.71	31057.45
813.89	30774.83
814.07	30885.42
814.25	30557.74
814.43	30656.04
814.61	30250.55
814.79	30318.13
814.97	30551.60
815.15	30572.08
815.33	30479.92
815.50	30133.81
815.68	30060.09
815.86	30209.59
816.04	30330.42
816.22	29857.34
816.40	30299.70
816.58	30156.34
816.76	29795.90
816.94	29802.04
817.11	30084.66
817.29	29982.26
817.47	29472.32
817.65	29558.33
817.83	29380.16
818.01	29185.60
818.19	29201.99
818.37	29388.35
818.54	28937.80
818.72	29109.83
818.90	29222.47
819.08	29144.64
819.26	29472.32
819.44	28968.52
819.62	29240.90
819.80	29099.59
819.97	29173.31
820.15	28989.00
820.33	28845.64
820.51	29255.23
820.69	28544.59
820.87	28890.70
821.05	29001.29
821.22	28706.38
821.40	28569.16
821.58	28636.75
821.76	28515.92
821.94	28042.84
822.12	28595.79
822.29	28382.80
822.47	28452.43
822.65	28513.87
822.83	28321.36
823.01	28399.18
823.19	28196.43
823.36	27815.51
823.54	28382.80
823.72	27860.57
823.90	27991.64
824.08	27879.00
824.25	27743.83
824.43	27932.25
824.61	27883.09
824.79	28147.28
824.97	27911.77
825.15	27778.65
825.32	27663.96
825.50	27543.13
825.68	27475.55
825.86	28051.03
826.04	27776.60
826.21	27518.56
826.39	27485.79
826.57	27586.14
826.75	27313.76
826.93	27487.84
827.10	26990.18
827.28	27426.40
827.46	27725.40
827.64	27280.99
827.81	27057.76
827.99	27608.67
828.17	26965.60
828.35	26963.56
828.53	27270.75
828.70	26609.26
828.88	27158.11
829.06	26865.25
829.24	27301.47
829.41	26891.88
829.59	27010.66
829.77	27063.91
829.95	26926.69
830.12	26832.49
830.30	26656.36
830.48	26928.74
830.66	26973.80
830.84	26799.72
831.01	26795.62
831.19	26426.99
831.37	26680.94
831.55	26668.65
831.72	26717.80
831.90	26383.98
832.08	26578.54
832.25	26621.55
832.43	26594.92
832.61	26287.73
832.79	26328.69
832.96	26320.49
833.14	26613.35
833.32	26392.17
833.50	26431.08
833.67	26269.30
833.85	26386.03
834.03	26187.38
834.20	26035.83
834.38	26238.58
834.56	26160.75
834.74	26123.89
834.91	26289.77
835.09	26039.92
835.27	25652.86
835.44	25927.28
835.62	25521.79
835.80	25740.92
835.98	25972.34
836.15	25849.46
836.33	26035.83
836.51	25972.34
836.68	25720.44
836.86	25992.82
837.04	25960.05
837.21	25714.30
837.39	25871.99
837.57	25667.19
837.75	25958.00
837.92	25560.70
838.10	25349.76
838.28	25089.67
838.45	25271.93
838.63	25239.17
838.81	25548.41
838.98	25558.65
839.16	25282.17
839.34	25405.05
839.51	25355.90
839.69	25065.09
839.87	25261.69
840.04	25435.77
840.22	25491.07
840.40	25046.66
840.57	24954.50
840.75	24931.97
840.93	24766.09
841.10	24983.17
841.28	25214.59
841.46	25017.99
841.63	25110.14
841.81	25081.47
841.98	25032.32
842.16	25165.44
842.34	24960.64
842.51	25048.71
842.69	24891.01
842.87	24817.29
843.04	24710.79
843.22	24741.51
843.40	24942.21
843.57	24880.77
843.75	24979.07
843.92	24856.20
844.10	24741.51
844.28	24426.12
844.45	24917.64
844.63	24594.06
844.81	24336.01
844.98	24714.89
845.16	24379.02
845.33	24362.64
845.51	24544.91
845.69	24180.37
845.86	24290.96
846.04	24331.92
846.21	24258.19
846.39	24311.44
846.57	24090.26
846.74	24186.51
846.92	24071.82
847.09	24245.90
847.27	23731.86
847.45	24022.67
847.62	24319.63
847.80	23971.47
847.97	23979.67
848.15	24170.13
848.32	23703.19
848.50	23879.32
848.68	23676.57
848.85	23877.27
849.03	23510.68
849.20	24022.67
849.38	23807.64
849.56	23613.08
849.73	23836.31
849.91	23553.69
850.08	23893.65
850.26	23416.47
850.43	23731.86
850.61	23459.48
850.78	23500.44
850.96	23537.30
851.14	23375.52
851.31	23508.63
851.49	23269.02
851.66	23584.41
851.84	23854.74
852.01	23393.95
852.19	23529.11
852.36	23269.02
852.54	23484.06
852.71	23400.09
852.89	23400.09
853.07	23207.58
853.24	23498.39
853.42	23336.60
853.59	22890.15
853.77	22955.68
853.94	23250.59
854.12	23223.97
854.29	22963.87
854.47	23453.34
854.64	23037.60
854.82	23062.18
854.99	23203.49
855.17	23115.42
855.34	22916.77
855.52	23201.44
855.69	22843.04
855.87	23094.94
856.04	22568.62
856.22	22949.54
856.39	22462.12
856.57	23006.88
856.74	22466.22
856.92	22888.10
857.09	22664.87
857.27	22730.41
857.44	23074.46
857.62	22709.93
857.79	22568.62
857.97	22619.81
858.14	22365.87
858.32	22415.02
858.49	22388.39
858.67	22587.05
858.84	22494.89
859.02	22202.03
859.19	22404.78
859.37	22343.34
859.54	22308.52
859.72	22169.26
859.89	22351.53
860.06	22339.24
860.24	22197.93
860.41	22144.69
860.59	22060.72
860.76	22062.77
860.94	22003.38
861.11	22191.79
861.29	21935.79
861.46	21921.46
861.64	21825.20
861.81	22128.30
861.98	22083.25
862.16	21823.16
862.33	21489.34
862.51	21577.40
862.68	21931.70
862.86	21700.28
863.03	21581.49
863.21	21728.95
863.38	21632.69
863.55	21487.29
863.73	21857.97
863.90	21702.32
864.08	21505.72
864.25	21378.75
864.43	21759.67
864.60	21386.94
864.77	21434.04
864.95	21413.56
865.12	21337.79
865.30	21571.25
865.47	21186.24
865.64	21135.04
865.82	21460.66
865.99	21477.05
866.17	21204.67
866.34	21425.85
866.51	21073.60
866.69	21341.88
866.86	21343.93
867.04	21309.11
867.21	20885.19
867.38	20932.29
867.56	20905.66
867.73	20672.20
867.91	20756.16
868.08	20987.58
868.25	20862.66
868.43	20522.69
868.60	20715.20
868.78	20510.41
868.95	21006.02
869.12	20647.62
869.30	20225.74
869.47	20817.60
869.64	20657.86
869.82	20715.20
869.99	20174.54
870.16	20684.48
870.34	20426.44
870.51	20463.30
870.69	20127.44
870.86	20301.51
871.03	20354.76
871.21	20326.09
871.38	20162.25
871.55	20381.38
871.73	20246.22
871.90	20168.40
872.07	20082.38
872.25	19969.74
872.42	19832.53
872.59	20055.76
872.77	19969.74
872.94	19820.24
873.11	19846.87
873.29	20018.89
873.46	19840.72
873.63	19756.75
873.81	19988.18
873.98	19424.98
874.15	19615.44
874.33	19152.60
874.50	19320.54
874.67	19500.76
874.85	19400.41
875.02	19375.83
875.19	19418.84
875.37	19136.22
875.54	19279.58
875.71	19392.22
875.88	19062.49
876.06	19300.06
876.23	18851.55
876.40	19070.68
876.58	19015.39
876.75	19058.40
876.92	18743.01
877.10	18923.23
877.27	18851.55
877.44	18607.84
877.61	18652.90
877.79	18585.32
877.96	18566.88
878.13	18800.35
878.31	18460.39
878.48	18624.23
878.65	18683.62
878.82	18401.00
879.00	18161.39
879.17	18626.28
879.34	18317.03
879.51	18255.59
879.69	18171.63
879.86	18300.65
880.03	18056.94
880.21	18323.18
880.38	18228.97
880.55	18185.96
880.72	18095.85
880.90	18312.94
881.07	17850.10
881.24	17911.53
881.41	18194.15
881.59	17997.55
881.76	17999.60
881.93	17725.17
882.10	17676.02
882.28	17592.05
882.45	17850.10
882.62	17843.95
882.79	18030.32
882.96	17460.98
883.14	17766.13
883.31	17766.13
883.48	17686.26
883.65	17721.07
883.83	17907.44
884.00	17886.96
884.17	17508.08
884.34	17542.90
884.51	17651.44
884.69	17606.39
884.86	17450.74
885.03	17565.43
885.20	17178.36
885.38	17434.36
885.55	17237.75
885.72	17352.44
885.89	17012.48
886.06	17340.15
886.24	17534.71
886.41	17256.18
886.58	17133.31
886.75	17356.54
886.92	16918.27
887.10	17385.21
887.27	17032.96
887.44	17080.06
887.61	17151.74
887.78	16959.23
887.95	17153.79
888.13	16772.86
888.30	17080.06
888.47	16897.79
888.64	16961.28
888.81	16480.00
888.99	16719.62
889.16	16639.75
889.33	16439.05
889.50	16807.68
889.67	16498.44
889.84	16484.10
890.01	16752.38
890.19	16596.74
890.36	16736.00
890.53	16551.68
890.70	16342.79
890.87	16428.81
891.04	16246.54
891.22	16250.63
891.39	16330.50
891.56	16172.81
891.73	16408.33
891.90	16172.81
892.07	15959.82
892.24	16213.77
892.42	16174.86
892.59	15970.06
892.76	16060.17
892.93	15988.49
893.10	16213.77
893.27	15959.82
893.44	15718.16
893.61	15933.20
893.79	15965.96
893.96	15855.37
894.13	15920.91
894.30	15820.56
894.47	15740.69
894.64	15867.66
894.81	15757.07
894.98	15990.54
895.15	15949.58
895.33	15877.90
895.50	15511.32
895.67	15838.99
895.84	15736.59
896.01	15845.13
896.18	15765.26
896.35	15818.51
896.52	15791.89
896.69	15687.44
896.86	15634.19
897.04	15763.22
897.21	15638.29
897.38	15611.67
897.55	15593.23
897.72	15777.55
897.89	15576.85
898.06	15605.52
898.23	15687.44
898.40	15513.36
898.57	15777.55
898.74	15531.80
898.91	15769.36
899.08	15726.35
899.26	15449.88
899.43	15519.51
899.60	15378.20
899.77	15603.47
899.94	15335.19
900.11	15234.84
900.28	15648.53
900.45	15173.40
900.62	15390.49
900.79	15658.77
900.96	15515.41
901.13	15353.62
901.30	15318.81
901.47	15157.02
901.64	15423.25
901.81	15382.29
901.98	15390.49
902.15	15304.47
902.32	15374.10
902.49	15449.88
902.66	15439.64
902.83	15591.19
903.01	15177.50
903.18	15425.30
903.35	15298.33
903.52	15300.37
903.69	15486.74
903.86	15404.82
904.03	15447.83
904.20	15269.66
904.37	15386.39
904.54	15392.53
904.71	15482.64
904.88	15263.51
905.05	15122.20
905.22	15386.39
905.39	15243.03
905.56	15126.30
905.73	15212.31
905.90	15447.83
906.07	15189.78
906.24	15245.08
906.41	15206.17
906.58	15503.12
906.75	15152.92
906.92	15183.64
907.09	15109.91
907.26	15120.15
907.43	14997.28
907.60	15138.58
907.77	15218.46
907.93	15355.67
908.10	15097.63
908.27	15085.34
908.44	15206.17
908.61	15118.11
908.78	15101.72
908.95	15066.91
909.12	14757.66
909.29	14976.80
909.46	14778.14
909.63	15066.91
909.80	15159.06
909.97	15091.48
910.14	14849.82
910.31	14874.40
910.48	15167.26
910.65	14976.80
910.82	14671.65
910.99	14939.93
911.16	14833.44
911.33	14759.71
911.50	14761.76
911.66	14903.07
911.83	14788.38
912.00	14665.50
912.17	14542.63
912.34	14690.08
912.51	14470.95
912.68	14573.35
912.85	14655.26
913.02	14720.80
913.19	14636.83
913.36	14446.37
913.53	14434.08
913.70	14542.63
913.86	14583.59
914.03	14458.66
914.20	14403.36
914.37	14321.45
914.54	14438.18
914.71	14405.41
914.88	14493.47
915.05	14069.55
915.22	14055.21
915.39	14155.56
915.55	14001.96
915.72	13901.61
915.89	14036.78
916.06	13864.75
916.23	14145.32
916.40	13907.76
916.57	14047.02
916.74	13791.02
916.91	13823.79
917.07	13737.77
917.24	13561.65
917.41	13838.12
917.58	13760.30
917.75	13631.28
917.92	13489.97
918.09	13537.07
918.26	13608.75
918.42	13575.98
918.59	13580.08
918.76	13289.27
918.93	13252.41
919.10	13055.80
919.27	13227.83
919.44	13487.92
919.60	13242.17
919.77	13250.36
919.94	12939.07
920.11	12959.55
920.28	13352.76
920.45	13133.62
920.61	12955.45
920.78	12914.49
920.95	12992.31
921.12	12808.00
921.29	12644.16
921.46	12744.51
921.62	12580.67
921.79	12742.46
921.96	12500.80
922.13	12724.03
922.30	12558.14
922.47	12484.42
922.63	12484.42
922.80	12560.19
922.97	12232.52
923.14	12224.33
923.31	12285.76
923.47	12273.48
923.64	12189.51
923.81	12093.26
923.98	12201.80
924.15	11960.14
924.32	11945.80
924.48	12031.82
924.65	12207.94
924.82	11642.70
924.99	11980.62
925.15	11689.81
925.32	11915.08
925.49	11501.39
925.66	11620.17
925.83	11589.46
925.99	11581.26
926.16	11646.80
926.33	11681.61
926.50	11274.07
926.67	11536.21
926.83	11442.00
927.00	11355.99
927.17	11343.70
927.34	11167.57
927.50	11253.59
927.67	11478.86
927.84	11099.99
928.01	11110.23
928.17	10909.53
928.34	10991.45
928.51	10768.22
928.68	10839.90
928.84	10733.40
929.01	10743.64
929.18	10612.57
929.35	10723.16
929.51	10680.16
929.68	10481.50
929.85	10608.48
930.02	10524.51
930.18	10434.40
930.35	10440.54
930.52	10329.95
930.69	10377.06
930.85	10231.65
931.02	10192.74
931.19	10317.67
931.36	10145.64
931.52	10190.69
931.69	9983.85
931.86	9938.79
932.02	10037.09
932.19	9951.08
932.36	10014.57
932.53	9883.50
932.69	9848.68
932.86	9826.15
933.03	9807.72
933.19	9496.43
933.36	9668.46
933.53	9664.36
933.70	9584.49
933.86	9627.50
934.03	9396.08
934.20	9332.59
934.36	9391.98
934.53	9174.90
934.70	8857.46
934.86	9181.04
935.03	8984.44
935.20	8871.80
935.36	8959.86
935.53	8734.59
935.70	8869.75
935.86	8789.88
936.03	8724.35
936.20	8388.48
936.36	8470.40
936.53	8449.92
936.70	8281.99
936.86	8560.51
937.03	8333.18
937.20	8204.16
937.36	8224.64
937.53	7827.34
937.70	7833.48
937.86	7745.42
938.03	7726.99
938.20	7769.99
938.36	7591.82
938.53	7614.35
938.70	7366.54
938.86	7427.98
939.03	7180.18
939.20	7237.52
939.36	7231.38
939.53	7161.75
939.70	7284.62
939.86	6778.78
940.03	6770.58
940.19	6754.20
940.36	6692.76
940.53	6739.87
940.69	6487.96
940.86	6557.60
941.03	6576.03
941.19	6375.33
941.36	6408.09
941.52	6221.73
941.69	6127.52
941.86	6049.70
942.02	6139.81
942.19	6096.80
942.35	6068.13
942.52	5984.16
942.69	5949.35
942.85	5892.01
943.02	5834.66
943.18	5988.26
943.35	5711.78
943.52	5752.74
943.68	5586.86
943.85	5556.14
944.01	5515.18
944.18	5474.22
944.35	5547.95
944.51	5572.52
944.68	5523.37
944.84	5263.28
945.01	5490.60
945.17	5396.40
945.34	5369.77
945.51	5384.11
945.67	5449.64
945.84	5263.28
946.00	5375.92
946.17	5287.86
946.33	5236.66
946.50	5412.78
946.67	5431.21
946.83	5261.23
947.00	5296.05
947.16	5203.89
947.33	5289.90
947.49	5140.40
947.66	5279.66
947.82	5265.33
947.99	5183.41
948.16	5285.81
948.32	5169.07
948.49	5394.35
948.65	5167.03
948.82	5205.94
948.98	5160.88
949.15	5062.58
949.31	5246.90
949.48	5320.62
949.64	5173.17
949.81	5220.27
949.97	5115.83
950.14	5203.89
950.30	5117.87
950.47	5373.87
950.63	5232.56
950.80	5283.76
950.96	5238.70
951.13	5375.92
951.30	5312.43
951.46	5287.86
951.63	5384.11
951.79	5398.45
951.96	5384.11
952.12	5201.84
952.29	5164.98
952.45	5205.94
952.62	5345.20
952.78	5343.15
952.94	5193.65
953.11	5273.52
953.27	5107.63
953.44	5408.69
953.60	5365.68
953.77	5431.21
953.93	5367.73
954.10	5296.05
954.26	5341.10
954.43	5314.48
954.59	5425.07
954.76	5404.59
954.92	5357.49
955.09	5232.56
955.25	5425.07
955.42	5343.15
955.58	5478.32
955.75	5449.64
955.91	5369.77
956.07	5351.34
956.24	5365.68
956.40	5384.11
956.57	5453.74
956.73	5380.01
956.90	5533.61
957.06	5361.58
957.23	5455.79
957.39	5416.88
957.56	5537.71
957.72	5345.20
957.88	5361.58
958.05	5590.95
958.21	5506.99
958.38	5359.53
958.54	5402.54
958.71	5455.79
958.87	5420.97
959.03	5210.03
959.20	5521.32
959.36	5382.06
959.53	5337.01
959.69	5300.14
959.85	5322.67
960.02	5509.04
960.18	5513.13
960.35	5408.69
960.51	5468.08
960.68	5449.64
960.84	5595.05
961.00	5296.05
961.17	5463.98
961.33	5373.87
961.50	5447.60
961.66	5427.12
961.82	5287.86
961.99	5447.60
962.15	5502.89
962.31	5316.53
962.48	5353.39
962.64	5433.26
962.81	5259.18
962.97	5457.84
963.13	5365.68
963.30	5425.07
963.46	5306.29
963.62	5351.34
963.79	5384.11
963.95	5453.74
964.12	5488.56
964.28	5418.93
964.44	5281.71
964.61	5433.26
964.77	5359.53
964.93	5443.50
965.10	5328.81
965.26	5255.09
965.42	5304.24
965.59	5294.00
965.75	5291.95
965.92	5429.17
966.08	5242.80
966.24	5267.38
966.41	5240.75
966.57	5279.66
966.73	5328.81
966.90	5298.10
967.06	5261.23
967.22	5164.98
967.39	5140.40
967.55	5300.14
967.71	5220.27
967.88	5113.78
968.04	5257.14
968.20	5226.42
968.37	5134.26
968.53	5156.79
968.69	5222.32
968.85	5187.50
969.02	5265.33
969.18	5171.12
969.34	5222.32
969.51	5275.57
969.67	5121.97
969.83	4919.22
970.00	5162.93
970.16	5111.73
970.32	5146.55
970.48	5212.08
970.65	5005.24
970.81	5009.33
970.97	5124.02
971.14	5005.24
971.30	5089.20
971.46	5087.15
971.63	5234.61
971.79	5095.35
971.95	4992.95
972.11	4896.69
972.28	4833.21
972.44	5031.86
972.60	4949.94
972.76	5021.62
972.93	4911.03
973.09	4822.97
973.25	5052.34
973.42	4904.89
973.58	4816.82
973.74	4937.65
973.90	5003.19
974.07	4892.60
974.23	4892.60
974.39	4796.34
974.55	4933.56
974.72	4902.84
974.88	4958.13
975.04	4876.21
975.20	4935.60
975.37	4892.60
975.53	4749.24
975.69	4663.22
975.85	4784.06
976.01	4788.15
976.18	4784.06
976.34	4650.94
976.50	4876.21
976.66	4755.38
976.83	4810.68
976.99	4794.29
977.15	4741.05
977.31	4593.59
977.47	4765.62
977.64	4591.55
977.80	4773.82
977.96	4644.79
978.12	4657.08
978.29	4804.53
978.45	4452.28
978.61	4587.45
978.77	4624.31
978.93	4630.46
979.10	4591.55
979.26	4652.98
979.42	4616.12
979.58	4468.67
979.74	4534.20
979.91	4517.82
980.07	4495.29
980.23	4548.54
980.39	4507.58
980.55	4464.57
980.71	4536.25
980.88	4382.65
981.04	4343.74
981.20	4597.69
981.36	4450.24
981.52	4509.63
981.68	4374.46
981.85	4429.76
982.01	4302.78
982.17	4339.65
982.33	4366.27
982.49	4341.69
982.65	4274.11
982.82	4425.66
982.98	4296.64
983.14	4296.64
983.30	4323.26
983.46	4386.75
983.62	4378.56
983.79	4214.72
983.95	4216.77
984.11	4110.27
984.27	4265.92
984.43	4136.90
984.59	4214.72
984.75	4267.97
984.91	4243.39
985.08	4304.83
985.24	4184.00
985.40	4218.82
985.56	4222.91
985.72	4216.77
985.88	4124.61
986.04	4218.82
986.20	4020.16
986.37	4169.66
986.53	3979.20
986.69	4165.57
986.85	3944.39
987.01	4083.65
987.17	4112.32
987.33	3938.24
987.49	4106.18
987.65	4009.92
987.82	4100.03
987.98	3968.96
988.14	3971.01
988.30	3979.20
988.46	4093.89
988.62	4014.02
988.78	4024.26
988.94	3979.20
989.10	3891.14
989.26	3866.56
989.42	3813.32
989.59	3764.17
989.75	3854.28
989.91	3934.15
990.07	3864.52
990.23	3784.65
990.39	3844.04
990.55	3919.81
990.71	3762.12
990.87	3784.65
991.03	3913.67
991.19	3815.37
991.35	3833.80
991.51	3852.23
991.67	3878.85
991.83	3782.60
992.00	3805.13
992.16	3837.89
992.32	3758.02
992.48	3815.37
992.64	3745.73
992.80	3688.39
992.96	3694.54
993.12	3739.59
993.28	3803.08
993.44	3704.78
993.60	3655.62
993.76	3708.87
993.92	3629.00
994.08	3719.11
994.24	3696.58
994.40	3614.66
994.56	3764.17
994.72	3647.43
994.88	3626.95
995.04	3643.34
995.20	3604.42
995.36	3655.62
995.52	3635.14
995.68	3538.89
995.84	3538.89
996.00	3637.19
996.16	3502.03
996.32	3567.56
996.48	3481.55
996.64	3635.14
996.80	3512.27
996.96	3588.04
997.12	3444.68
997.28	3502.03
997.44	3407.82
997.60	3450.83
997.76	3424.20
997.92	3575.75
998.08	3506.12
998.24	3411.92
998.40	3508.17
998.56	3487.69
998.72	3260.37
998.88	3420.11
999.04	3336.14
999.20	3518.41
999.36	3375.05
999.52	3420.11
999.68	3373.00
999.84	3338.19
1000.00	3411.92
1000.16	3438.54
1000.32	3280.85
1000.48	3395.53
1000.64	3315.66
1000.80	3254.22
1000.95	3137.49
1001.11	3364.81
1001.27	3162.06
1001.43	3260.37
1001.59	3235.79
1001.75	3166.16
1001.91	3303.37
1002.07	3211.22
1002.23	3223.50
1002.39	3145.68
1002.55	3174.35
1002.71	3215.31
1002.87	3166.16
1003.03	3117.01
1003.19	3123.15
1003.34	3217.36
1003.50	3112.91
1003.66	3239.89
1003.82	3057.62
1003.98	3053.52
1004.14	3170.26
1004.30	3084.24
1004.46	3121.10
1004.62	3155.92
1004.78	2973.65
1004.94	3018.71
1005.09	3106.77
1005.25	3051.47
1005.41	3065.81
1005.57	3035.09
1005.73	3026.90
1005.89	2985.94
1006.05	3020.75
1006.21	3039.19
1006.37	2949.08
1006.52	2922.45
1006.68	3033.04
1006.84	3084.24
1007.00	2967.51
1007.16	3016.66
1007.32	2815.96
1007.48	2987.99
1007.64	2938.84
1007.79	2947.03
1007.95	2836.44
1008.11	3008.47
1008.27	2908.12
1008.43	2965.46
1008.59	2899.92
1008.75	2977.75
1008.91	2826.20
1009.06	2904.02
1009.22	2848.72
1009.38	2916.31
1009.54	2828.24
1009.70	2871.25
1009.86	2908.12
1010.01	2820.05
1010.17	2744.28
1010.33	2770.90
1010.49	2803.67
1010.65	2848.72
1010.81	2641.88
1010.96	2899.92
1011.12	2775.00
1011.28	2791.38
1011.44	2871.25
1011.60	2740.18
1011.76	2697.17
1011.91	2801.62
1012.07	2633.69
1012.23	2691.03
1012.39	2664.41
1012.55	2721.75
1012.71	2772.95
1012.86	2719.70
1013.02	2625.50
1013.18	2627.54
1013.34	2658.26
1013.50	2770.90
1013.65	2686.94
1013.81	2580.44
1013.97	2607.06
1014.13	2650.07
1014.29	2654.17
1014.44	2699.22
1014.60	2607.06
1014.76	2576.34
1014.92	2615.26
1015.07	2623.45
1015.23	2711.51
1015.39	2543.58
1015.55	2535.39
1015.71	2551.77
1015.86	2586.58
1016.02	2559.96
1016.18	2514.91
1016.34	2582.49
1016.49	2551.77
1016.65	2576.34
1016.81	2502.62
1016.97	2576.34
1017.12	2600.92
1017.28	2449.37
1017.44	2428.89
1017.60	2457.56
1017.75	2478.04
1017.91	2451.42
1018.07	2467.80
1018.23	2553.82
1018.38	2437.08
1018.54	2486.23
1018.70	2412.51
1018.86	2469.85
1019.01	2383.84
1019.17	2463.71
1019.33	2508.76
1019.49	2502.62
1019.64	2432.99
1019.80	2469.85
1019.96	2451.42
1020.12	2451.42
1020.27	2308.06
1020.43	2326.49
1020.59	2301.92
1020.74	2353.12
1020.90	2408.41
1021.06	2361.31
1021.22	2404.32
1021.37	2400.22
1021.53	2281.44
1021.69	2385.88
1021.84	2301.92
1022.00	2336.73
1022.16	2326.49
1022.31	2318.30
1022.47	2443.23
1022.63	2414.56
1022.79	2314.20
1022.94	2289.63
1023.10	2336.73
1023.26	2154.46
1023.41	2346.97
1023.57	2273.25
1023.73	2344.92
1023.88	2312.16
1024.04	2220.00
1024.20	2256.86
1024.35	2289.63
1024.51	2285.53
1024.67	2369.50
1024.82	2398.17
1024.98	2244.57
1025.14	2211.81
1025.29	2220.00
1025.45	2254.81
1025.61	2185.18
1025.76	2244.57
1025.92	2211.81
1026.08	2236.38
1026.23	2238.43
1026.39	2260.96
1026.55	2222.05
1026.70	2099.17
1026.86	2265.05
1027.02	2340.83
1027.17	2254.81
1027.33	2168.80
1027.48	2138.08
1027.64	2152.42
1027.80	2142.18
1027.95	2189.28
1028.11	2058.21
1028.27	2183.13
1028.42	2248.67
1028.58	2107.36
1028.73	2039.78
1028.89	2109.41
1029.05	2207.71
1029.20	2164.70
>>>>>End Processed Spectral Data<<<<<
