SpectraSuite Data File
++++++++++++++++++++++++++++++++++++
Date: Fri Jun 02 14:44:37 CEST 2017
User: INFO_000
Dark Spectrum Present: No
Reference Spectrum Present: No
Number of Sampled Component Spectra: 1
Spectrometers: USB4H00879
Integration Time (usec): 80000 (USB4H00879)
Spectra Averaged: 1 (USB4H00879)
Boxcar Smoothing: 0 (USB4H00879)
Correct for Electrical Dark: No (USB4H00879)
Strobe/Lamp Enabled: No (USB4H00879)
Correct for Detector Non-linearity: No (USB4H00879)
Correct for Stray Light: No (USB4H00879)
Number of Pixels in Processed Spectrum: 3648
>>>>>Begin Processed Spectral Data<<<<<
345.13	1308.65
345.34	1308.65
345.56	1308.65
345.78	1245.16
345.99	1279.98
346.21	1697.77
346.42	1691.62
346.64	1619.94
346.86	1742.82
347.07	1640.42
347.29	1732.58
347.50	1593.32
347.72	1689.57
347.94	1765.35
348.15	1509.35
348.37	1583.08
348.59	1710.05
348.80	1683.43
349.02	1843.17
349.23	1900.52
349.45	1834.98
349.67	1789.92
349.88	1839.08
350.10	1982.43
350.31	1841.12
350.53	1773.54
350.75	1976.29
350.96	1798.12
351.18	1880.04
351.39	1742.82
351.61	1880.04
351.82	1806.31
352.04	1830.88
352.26	1822.69
352.47	1849.32
352.69	1959.91
352.90	1789.92
353.12	1865.70
353.34	1789.92
353.55	1859.56
353.77	1843.17
353.98	1806.31
354.20	1822.69
354.41	1851.36
354.63	1906.66
354.85	2068.45
355.06	1834.98
355.28	1814.50
355.49	1814.50
355.71	1847.27
355.92	1806.31
356.14	1892.32
356.35	1877.99
356.57	1888.23
356.79	2017.25
357.00	1875.94
357.22	1949.67
357.43	1898.47
357.65	1918.95
357.86	1863.65
358.08	1865.70
358.29	1896.42
358.51	2013.15
358.72	2013.15
358.94	1877.99
359.16	1845.22
359.37	1894.37
359.59	1986.53
359.80	1947.62
360.02	1945.57
360.23	1929.19
360.45	2023.39
360.66	1937.38
360.88	1880.04
361.09	1804.26
361.31	1984.48
361.52	1974.24
361.74	2035.68
361.95	2052.06
362.17	1877.99
362.38	2109.41
362.60	2072.54
362.81	1906.66
363.03	1918.95
363.24	2002.91
363.46	2144.22
363.67	1978.34
363.89	2058.21
364.10	2072.54
364.32	1959.91
364.53	2007.01
364.75	1847.27
364.96	1959.91
365.18	2009.06
365.39	1964.00
365.61	1927.14
365.82	2080.74
366.04	2072.54
366.25	1978.34
366.47	1980.39
366.68	2041.82
366.90	1976.29
367.11	2052.06
367.33	2097.12
367.54	2174.94
367.76	2045.92
367.97	2148.32
368.19	2000.87
368.40	2129.89
368.62	1947.62
368.83	1896.42
369.05	2068.45
369.26	1994.72
369.48	1949.67
369.69	1996.77
369.91	2056.16
370.12	2133.98
370.33	2115.55
370.55	1939.43
370.76	1996.77
370.98	2123.74
371.19	2103.26
371.41	1943.52
371.62	2052.06
371.84	2002.91
372.05	2179.04
372.27	2062.30
372.48	2052.06
372.69	2156.51
372.91	2119.65
373.12	2168.80
373.34	2131.94
373.55	2226.14
373.77	2150.37
373.98	2080.74
374.20	2213.85
374.41	2187.23
374.62	2146.27
374.84	2172.89
375.05	2228.19
375.27	2174.94
375.48	2224.09
375.70	2209.76
375.91	2199.52
376.12	2291.68
376.34	2203.61
376.55	2228.19
376.77	2211.81
376.98	2170.85
377.19	2090.98
377.41	2140.13
377.62	2152.42
377.84	2222.05
378.05	2346.97
378.27	2213.85
378.48	2344.92
378.69	2377.69
378.91	2320.35
379.12	2150.37
379.34	2164.70
379.55	2351.07
379.76	2287.58
379.98	2142.18
380.19	2224.09
380.41	2269.15
380.62	2314.20
380.83	2234.33
381.05	2256.86
381.26	2410.46
381.47	2230.24
381.69	2299.87
381.90	2402.27
382.12	2328.54
382.33	2279.39
382.54	2334.68
382.76	2293.72
382.97	2271.20
383.19	2293.72
383.40	2402.27
383.61	2256.86
383.83	2324.44
384.04	2342.88
384.25	2328.54
384.47	2426.84
384.68	2392.03
384.89	2365.40
385.11	2387.93
385.32	2367.45
385.54	2359.26
385.75	2351.07
385.96	2437.08
386.18	2410.46
386.39	2422.75
386.60	2371.55
386.82	2392.03
387.03	2367.45
387.24	2508.76
387.46	2459.61
387.67	2484.19
387.88	2537.43
388.10	2529.24
388.31	2414.56
388.52	2582.49
388.74	2582.49
388.95	2527.19
389.16	2578.39
389.38	2486.23
389.59	2455.51
389.80	2547.67
390.02	2564.06
390.23	2549.72
390.44	2549.72
390.66	2578.39
390.87	2576.34
391.08	2607.06
391.30	2719.70
391.51	2568.15
391.72	2588.63
391.94	2637.78
392.15	2615.26
392.36	2598.87
392.58	2680.79
392.79	2654.17
393.00	2717.65
393.22	2754.52
393.43	2699.22
393.64	2740.18
393.85	2854.87
394.07	2598.87
394.28	2695.13
394.49	2715.61
394.71	2787.29
394.92	2852.82
395.13	2709.46
395.35	2748.37
395.56	2772.95
395.77	2770.90
395.98	2762.71
396.20	2934.74
396.41	2861.01
396.62	2928.60
396.84	2807.77
397.05	2840.53
397.26	2836.44
397.47	3002.32
397.69	2836.44
397.90	3049.43
398.11	3065.81
398.32	2850.77
398.54	2928.60
398.75	2912.21
398.96	2863.06
399.18	3102.67
399.39	3002.32
399.60	3004.37
399.81	2944.98
400.03	2977.75
400.24	3286.99
400.45	2947.03
400.66	3117.01
400.88	3045.33
401.09	3256.27
401.30	3084.24
401.51	3108.82
401.73	2975.70
401.94	3114.96
402.15	3114.96
402.36	3213.26
402.58	3194.83
402.79	3260.37
403.00	3088.34
403.21	3114.96
403.43	3170.26
403.64	3305.42
403.85	3110.86
404.06	3295.18
404.27	3051.47
404.49	3215.31
404.70	3188.69
404.91	3276.75
405.12	3174.35
405.34	3141.58
405.55	3338.19
405.76	3192.78
405.97	3239.89
406.19	3362.76
406.40	3346.38
406.61	3303.37
406.82	3362.76
407.03	3311.57
407.25	3327.95
407.46	3346.38
407.67	3397.58
407.88	3407.82
408.09	3354.57
408.31	3307.47
408.52	3370.96
408.73	3379.15
408.94	3323.85
409.15	3405.77
409.37	3512.27
409.58	3450.83
409.79	3592.14
410.00	3532.75
410.21	3387.34
410.43	3483.59
410.64	3465.16
410.85	3502.03
411.06	3585.99
411.27	3622.86
411.48	3633.10
411.70	3473.36
411.91	3592.14
412.12	3690.44
412.33	3608.52
412.54	3600.33
412.76	3708.87
412.97	3604.42
413.18	3557.32
413.39	3768.26
413.60	3725.26
413.81	3700.68
414.03	3667.91
414.24	3545.03
414.45	3784.65
414.66	3581.90
414.87	3641.29
415.08	3852.23
415.30	3753.93
415.51	3686.34
415.72	3659.72
415.93	3735.50
416.14	3919.81
416.35	3721.16
416.56	3805.13
416.78	3753.93
416.99	3844.04
417.20	3801.03
417.41	3960.77
417.62	3872.71
417.83	4032.45
418.04	3839.94
418.26	3930.05
418.47	3878.85
418.68	4108.23
418.89	4014.02
419.10	4130.75
419.31	3938.24
419.52	4071.36
419.73	3876.80
419.95	4155.33
420.16	3923.91
420.37	4050.88
420.58	4081.60
420.79	3868.61
421.00	3983.30
421.21	4177.86
421.42	4016.07
421.63	4124.61
421.85	4181.95
422.06	4198.34
422.27	4114.37
422.48	4128.70
422.69	4329.41
422.90	4317.12
423.11	4188.10
423.32	4267.97
423.53	4431.80
423.75	4382.65
423.96	4450.24
424.17	4499.39
424.38	4532.15
424.59	4530.11
424.80	4583.35
425.01	4530.11
425.22	4483.00
425.43	4345.79
425.64	4640.70
425.85	4642.75
426.06	4616.12
426.28	4478.91
426.49	4425.66
426.70	4638.65
426.91	4698.04
427.12	4722.62
427.33	4630.46
427.54	4622.27
427.75	4779.96
427.96	4898.74
428.17	4800.44
428.38	4782.01
428.59	4960.18
428.80	4779.96
429.01	4851.64
429.23	4923.32
429.44	5150.64
429.65	4999.09
429.86	5038.00
430.07	4933.56
430.28	4939.70
430.49	5019.57
430.70	5175.22
430.91	5093.30
431.12	4968.37
431.33	5156.79
431.54	5167.03
431.75	5195.70
431.96	5160.88
432.17	5146.55
432.38	5173.17
432.59	5390.25
432.80	5214.13
433.01	5380.01
433.22	5490.60
433.43	5283.76
433.64	5277.62
433.85	5269.42
434.06	5359.53
434.27	5425.07
434.49	5355.44
434.70	5490.60
434.91	5482.41
435.12	5435.31
435.33	5580.71
435.54	5556.14
435.75	5343.15
435.96	5420.97
436.17	5361.58
436.38	5689.26
436.59	5605.29
436.80	5515.18
437.01	5932.97
437.22	5787.56
437.43	5654.44
437.64	5588.91
437.85	5818.28
438.06	5937.06
438.27	5820.33
438.48	5605.29
438.69	5801.90
438.90	5935.01
439.11	5722.02
439.32	5875.62
439.53	5855.14
439.74	5924.77
439.95	5945.25
440.16	5937.06
440.37	5867.43
440.57	5906.34
440.78	6098.85
440.99	6084.52
441.20	6049.70
441.41	5924.77
441.62	6002.60
441.83	5955.49
442.04	5984.16
442.25	6016.93
442.46	6051.75
442.67	6100.90
442.88	6518.68
443.09	5998.50
443.30	6172.58
443.51	6201.25
443.72	6522.78
443.93	6270.88
444.14	6432.67
444.35	6182.82
444.56	6416.29
444.77	6281.12
444.98	6369.18
445.19	6377.37
445.40	6461.34
445.61	6430.62
445.81	6535.07
446.02	6506.40
446.23	6422.43
446.44	6365.09
446.65	6379.42
446.86	6422.43
447.07	6694.81
447.28	6662.04
447.49	6799.26
447.70	6555.55
447.91	6672.28
448.12	6651.80
448.33	6973.33
448.54	6772.63
448.74	6727.58
448.95	6733.72
449.16	6772.63
449.37	6971.29
449.58	6743.96
449.79	7016.34
450.00	6752.15
450.21	6905.75
450.42	7030.68
450.63	6938.52
450.84	7006.10
451.05	7065.49
451.25	7102.36
451.46	6956.95
451.67	7335.82
451.88	7255.95
452.09	7192.47
452.30	7192.47
452.51	7110.55
452.72	7274.38
452.93	7516.05
453.13	7085.97
453.34	7335.82
453.55	7280.53
453.76	7380.88
453.97	7735.18
454.18	7479.18
454.39	7741.32
454.60	7612.30
454.81	7473.04
455.01	7671.69
455.22	7458.70
455.43	7747.47
455.64	7870.34
455.85	8046.47
456.06	8101.76
456.27	7853.96
456.48	7804.81
456.68	8013.70
456.89	7925.64
457.10	8247.17
457.31	8091.52
457.52	8007.56
457.73	8032.13
457.94	8335.23
458.14	8138.63
458.35	8419.20
458.56	8183.68
458.77	8159.11
458.98	8419.20
459.19	8372.10
459.39	8433.54
459.60	8738.68
459.81	8462.21
460.02	8714.11
460.23	8834.94
460.44	8818.55
460.65	8822.65
460.85	8632.19
461.06	8712.06
461.27	8585.08
461.48	9101.17
461.69	8984.44
461.89	8828.79
462.10	9037.69
462.31	8847.22
462.52	8988.53
462.73	9125.75
462.94	9187.19
463.14	9109.36
463.35	9389.94
463.56	9670.51
463.77	9586.54
463.98	9369.46
464.18	9416.56
464.39	9555.82
464.60	9885.55
464.81	9688.94
465.02	9584.49
465.23	9994.09
465.43	9766.76
465.64	10010.47
465.85	9932.65
466.06	9881.45
466.27	10147.69
466.47	10078.05
466.68	10035.05
466.89	10159.97
467.10	10243.94
467.30	10067.81
467.51	10397.54
467.72	10577.76
467.93	10182.50
468.14	10383.20
468.34	10579.81
468.55	10704.73
468.76	10530.66
468.97	10565.47
469.17	10960.73
469.38	10839.90
469.59	10874.71
469.80	10913.63
470.01	10839.90
470.21	10882.91
470.42	11171.67
470.63	11192.15
470.84	11284.31
471.04	11380.56
471.25	11415.38
471.46	11417.43
471.67	11669.33
471.87	11519.82
472.08	11538.26
472.29	11845.45
472.50	11398.99
472.70	11730.76
472.91	11845.45
473.12	11947.85
473.33	11749.20
473.53	12113.74
473.74	12240.71
473.95	12083.02
474.16	12500.80
474.36	12398.40
474.57	12627.78
474.78	12554.05
474.99	12490.56
475.19	12570.43
475.40	12822.33
475.61	13010.75
475.81	13045.56
476.02	13219.64
476.23	12945.21
476.44	13391.67
476.64	13363.00
476.85	13459.25
477.06	13461.30
477.27	13672.24
477.47	13774.64
477.68	13741.87
477.89	13958.96
478.09	14018.35
478.30	13942.57
478.51	13915.95
478.71	14233.38
478.92	14194.47
479.13	14253.86
479.34	14688.03
479.54	14397.22
479.75	14454.56
479.96	14581.54
480.16	14767.90
480.37	14692.13
480.58	14903.07
480.78	15322.90
480.99	15107.87
481.20	15296.28
481.41	15177.50
481.61	15537.94
481.82	15593.23
482.03	15515.41
482.23	15660.82
482.44	15914.77
482.65	16011.02
482.85	15890.19
483.06	16078.60
483.27	16125.71
483.47	16238.34
483.68	16398.09
483.89	16496.39
484.09	16547.59
484.30	16383.75
484.51	16832.26
484.71	16873.21
484.92	17016.57
485.13	17145.59
485.33	16987.90
485.54	16973.56
485.75	17282.81
485.95	17657.59
486.16	17450.74
486.37	17712.88
486.57	17673.97
486.78	17708.79
486.98	17848.05
487.19	17911.53
487.40	18099.95
487.60	18206.44
487.81	18394.86
488.02	18153.20
488.22	18116.33
488.43	18771.68
488.64	18630.37
488.84	18726.63
489.05	19023.58
489.25	18904.80
489.46	19117.79
489.67	19037.92
489.87	19502.81
490.08	19259.10
490.29	19472.09
490.49	19625.68
490.70	19537.62
490.90	19496.66
491.11	19625.68
491.32	19973.84
491.52	20053.71
491.73	20160.20
491.94	20457.16
492.14	20162.25
492.35	20281.03
492.55	20545.22
492.76	20453.06
492.97	20532.93
493.17	20950.72
493.38	20764.36
493.58	21212.86
493.79	21151.42
494.00	20790.98
494.20	21251.77
494.41	21397.18
494.61	21319.35
494.82	21556.92
495.02	21475.00
495.23	21665.46
495.44	21751.48
495.64	22011.57
495.85	21974.70
496.05	22124.21
496.26	21851.83
496.47	22058.67
496.67	22007.47
496.88	22630.05
497.08	22351.53
497.29	22517.42
497.49	22666.92
497.70	22650.53
497.91	22802.08
498.11	22875.81
498.32	22877.86
498.52	23021.22
498.73	23398.04
498.93	23078.56
499.14	23053.98
499.34	23004.83
499.55	23895.70
499.76	23563.93
499.96	23352.99
500.17	23608.98
500.37	23522.97
500.58	23666.33
500.78	23572.12
500.99	23926.42
501.19	24086.16
501.40	24018.58
501.60	23664.28
501.81	23877.27
502.02	24340.11
502.22	23836.31
502.43	24260.24
502.63	24389.26
502.84	24346.25
503.04	24356.49
503.25	24462.99
503.45	24624.78
503.66	24729.22
503.86	24682.12
504.07	24915.59
504.27	24555.15
504.48	25173.63
504.68	24872.58
504.89	25294.46
505.09	25017.99
505.30	25032.32
505.50	25120.38
505.71	25169.54
505.91	25663.10
506.12	25226.88
506.32	25546.36
506.53	25300.61
506.73	25634.42
506.94	25775.73
507.14	25640.57
507.35	25845.37
507.55	25863.80
507.76	25839.22
507.96	25597.56
508.17	25853.56
508.37	25892.47
508.58	26144.37
508.78	26011.25
508.99	26449.52
509.19	26418.80
509.40	26084.98
509.60	26070.64
509.81	26404.46
510.01	26277.49
510.22	26244.72
510.42	26226.29
510.63	26621.55
510.83	26490.48
511.04	26592.87
511.24	26836.58
511.44	26658.41
511.65	26662.51
511.85	26635.88
512.06	27045.48
512.26	26855.01
512.47	26961.51
512.67	26744.42
512.88	26658.41
513.08	26855.01
513.29	26895.97
513.49	26941.03
513.69	27266.66
513.90	26955.36
514.10	27197.02
514.31	27438.69
514.51	27221.60
514.72	27360.86
514.92	27483.74
515.13	27573.85
515.33	27625.05
515.53	27633.24
515.74	27371.10
515.94	27772.50
516.15	27860.57
516.35	27811.42
516.56	27641.43
516.76	27883.09
516.96	27909.72
517.17	28264.02
517.37	28040.79
517.58	27811.42
517.78	28503.63
517.99	28171.86
518.19	28442.19
518.39	28554.83
518.60	28526.16
518.80	28442.19
519.01	28892.74
519.21	28866.12
519.41	28761.67
519.62	28810.82
519.82	28751.43
520.03	29029.96
520.23	29132.36
520.43	28704.33
520.64	29175.36
520.84	29085.25
521.05	29083.20
521.25	29285.95
521.45	29173.31
521.66	29683.26
521.86	29482.56
522.07	29820.47
522.27	29863.48
522.47	29439.55
522.68	30107.19
522.88	29711.93
523.08	30209.59
523.29	30027.32
523.49	30352.94
523.70	30062.13
523.90	30406.19
524.10	30553.65
524.31	30576.17
524.51	30303.79
524.71	31073.83
524.92	30649.90
525.12	31129.12
525.33	30651.95
525.53	31274.53
525.73	31047.21
525.94	31161.89
526.14	31237.67
526.34	31211.04
526.55	31677.98
526.75	31698.46
526.95	31434.27
527.16	31684.12
527.36	31860.25
527.56	31753.76
527.77	32093.72
527.97	32038.42
528.17	31895.07
528.38	32237.08
528.58	32200.21
528.78	32642.57
528.99	32380.43
529.19	32933.39
529.39	32673.29
529.60	32921.10
529.80	32695.82
530.00	32863.75
530.21	33148.42
530.41	33316.36
530.61	33267.20
530.82	33302.02
531.02	33482.24
531.22	33658.37
531.43	33635.84
531.63	33900.03
531.83	33998.33
532.04	34203.13
532.24	34033.14
532.44	34182.65
532.64	34596.34
532.85	34514.42
533.05	34635.25
533.25	34723.31
533.46	34430.45
533.66	35280.36
533.86	35096.04
534.07	34788.85
534.27	35040.75
534.47	35358.18
534.67	35784.16
534.88	35540.45
535.08	35411.43
535.28	35626.46
535.49	35935.71
535.69	36160.98
535.89	35982.81
536.09	36148.70
536.30	36261.33
536.50	36486.61
536.70	36627.92
536.91	36619.73
537.11	36435.41
537.31	36537.81
537.51	37017.04
537.72	37612.99
537.92	37164.49
538.12	37328.33
538.32	37262.79
538.53	37277.13
538.73	37205.45
538.93	37516.74
539.13	37436.87
539.34	37184.97
539.54	37465.54
539.74	38245.82
539.94	37739.97
540.15	37821.89
540.35	38274.49
540.55	38524.34
540.75	38018.49
540.96	38364.60
541.16	38081.98
541.36	38163.90
541.56	38491.57
541.77	39269.80
541.97	38577.59
542.17	38817.20
542.37	38823.34
542.58	38569.40
542.78	38870.45
542.98	38911.41
543.18	39331.24
543.38	39589.28
543.59	38899.12
543.79	39247.27
543.99	39140.78
544.19	39822.75
544.40	39234.99
544.60	39916.96
544.80	39710.11
545.00	40048.03
545.20	40076.70
545.41	39769.51
545.61	39640.48
545.81	39968.16
546.01	40070.56
546.21	40101.28
546.42	40068.51
546.62	40080.80
546.82	40277.40
547.02	40199.58
547.22	40435.10
547.43	40402.33
547.63	40308.12
547.83	40478.10
548.03	39765.41
548.23	40793.49
548.44	40490.39
548.64	40875.41
548.84	40871.31
549.04	40646.04
549.24	40695.19
549.45	41014.67
549.65	40926.61
549.85	40568.21
550.05	41096.59
550.25	40926.61
550.45	41530.76
550.66	41211.28
550.86	41098.64
551.06	40990.09
551.26	41297.29
551.46	41368.97
551.66	41362.82
551.87	41252.23
552.07	41588.10
552.27	41440.65
552.47	41631.11
552.67	41528.71
552.87	41641.35
553.07	41674.12
553.28	42048.89
553.48	41624.96
553.68	41500.04
553.88	42204.54
554.08	41606.53
554.28	41864.58
554.48	41543.05
554.69	41887.10
554.89	41512.33
555.09	41686.40
555.29	41696.64
555.49	42358.14
555.69	42036.61
555.89	42231.16
556.10	42237.31
556.30	42016.13
556.50	42077.57
556.70	41874.82
556.90	42231.16
557.10	42194.30
557.30	41811.33
557.50	42464.63
557.70	42429.82
557.91	42610.04
558.11	42089.85
558.31	42462.58
558.51	42161.53
558.71	42589.56
558.91	42644.85
559.11	42184.06
559.31	42640.76
559.51	42270.08
559.72	42702.20
559.92	42415.48
560.12	42866.03
560.32	42722.68
560.52	42526.07
560.72	42909.04
560.92	42941.81
561.12	42984.82
561.32	43056.50
561.52	42505.59
561.72	43312.49
561.93	42753.40
562.13	42726.77
562.33	42585.46
562.53	43124.08
562.73	42874.23
562.93	42806.64
563.13	43060.59
563.33	42757.49
563.53	43324.78
563.73	42958.19
563.93	42984.82
564.13	43410.79
564.33	42900.85
564.53	43013.49
564.74	43300.20
564.94	43480.42
565.14	43545.96
565.34	42898.80
565.54	43693.41
565.74	43210.09
565.94	43930.98
566.14	43185.52
566.34	43500.90
566.54	43980.13
566.74	43461.99
566.94	43830.63
567.14	43775.33
567.34	43443.56
567.54	43908.45
567.74	43652.45
567.94	43652.45
568.14	44213.60
568.34	44254.56
568.54	43939.17
568.74	44160.35
568.94	43777.38
569.14	44268.89
569.34	44473.69
569.54	44336.48
569.75	44072.29
569.95	44465.50
570.15	44610.90
570.35	44477.79
570.55	44834.13
570.75	44346.72
570.95	45061.46
571.15	44082.53
571.35	44823.89
571.55	44729.69
571.75	44635.48
571.95	45032.78
572.15	44871.00
572.35	45061.46
572.55	44993.87
572.75	44752.21
572.95	45192.53
573.15	45172.05
573.35	45253.97
573.55	45284.68
573.75	45174.09
573.95	45419.85
574.15	45135.18
574.35	45481.29
574.55	45186.38
574.75	45352.27
574.95	45712.71
575.15	45348.17
575.34	45262.16
575.54	46050.63
575.74	45499.72
575.94	45999.43
576.14	45753.67
576.34	46535.99
576.54	46441.79
576.74	46298.43
576.94	45843.78
577.14	45974.85
577.34	46824.76
577.54	46327.10
577.74	46327.10
577.94	46607.67
578.14	46423.36
578.34	46595.38
578.54	46228.80
578.74	46630.20
578.94	47035.70
579.14	46941.49
579.34	47170.86
579.54	47056.18
579.74	47453.48
579.94	47174.96
580.13	47281.45
580.33	47457.58
580.53	47422.76
580.73	47838.50
580.93	47525.16
581.13	47645.99
581.33	48110.88
581.53	47363.37
581.73	47441.20
581.93	48227.62
582.13	47815.97
582.33	48016.68
582.53	47863.08
582.73	48430.36
582.92	48465.18
583.12	48420.13
583.32	48368.93
583.52	47592.75
583.72	48956.69
583.92	48399.65
584.12	48696.60
584.32	49280.27
584.52	48715.03
584.72	49075.48
584.92	49222.93
585.11	49399.05
585.31	49038.61
585.51	49042.71
585.71	49057.04
585.91	49523.98
586.11	48962.84
586.31	49057.04
586.51	49468.69
586.71	49564.94
586.91	49792.26
587.10	49739.02
587.30	49442.06
587.50	50027.78
587.70	49706.25
587.90	50154.75
588.10	49677.58
588.30	49505.55
588.50	49886.47
588.69	50320.64
588.89	49853.70
589.09	50672.89
589.29	50306.30
589.49	50582.78
589.69	50038.02
589.89	50300.16
590.08	50439.42
590.28	50580.73
590.48	50369.79
590.68	50695.42
590.88	50648.32
591.08	50681.08
591.28	50623.74
591.47	50957.56
591.67	50746.62
591.87	50771.19
592.07	51180.79
592.27	50818.30
592.47	51244.27
592.67	51266.80
592.86	51481.84
593.06	51176.69
593.26	51322.10
593.46	51012.85
593.66	51092.72
593.86	51340.53
594.05	51578.09
594.25	51533.04
594.45	51318.00
594.65	51582.19
594.85	50996.47
595.05	51881.19
595.24	51752.17
595.44	51354.86
595.64	52020.45
595.84	51733.74
596.04	51815.66
596.23	51698.92
596.43	52172.00
596.63	51995.88
596.83	52014.31
597.03	52303.07
597.22	52286.69
597.42	52174.05
597.62	52217.06
597.82	52227.30
598.02	52153.57
598.21	52958.42
598.41	52227.30
598.61	52413.66
598.81	52219.11
599.01	52516.06
599.20	52618.46
599.40	52647.13
599.60	52763.87
599.80	52374.75
600.00	52909.27
600.19	52788.44
600.39	52446.43
600.59	52970.71
600.79	53112.02
600.98	52681.95
601.18	52884.70
601.38	53320.91
601.58	53191.89
601.78	52921.56
601.97	52712.67
602.17	53441.74
602.37	53263.57
602.57	53261.52
602.76	53320.91
602.96	53277.91
603.16	53603.53
603.36	53345.49
603.55	53566.67
603.75	53548.24
603.95	53634.25
604.15	53675.21
604.34	53589.20
604.54	53509.33
604.74	53908.68
604.94	53982.41
605.13	53976.26
605.33	53785.80
605.53	53478.61
605.73	54334.66
605.92	53581.01
606.12	53957.83
606.32	53970.12
606.52	54217.92
606.71	53804.24
606.91	54441.15
607.11	53871.82
607.30	53834.95
607.50	54109.38
607.70	54334.66
607.90	54340.80
608.09	54174.92
608.29	54113.48
608.49	54478.02
608.68	54111.43
608.88	53959.88
609.08	54164.68
609.28	54293.70
609.47	54508.74
609.67	54521.02
609.87	54340.80
610.06	54637.76
610.26	54762.68
610.46	54324.42
610.66	54279.36
610.85	54703.29
611.05	53966.02
611.25	54385.86
611.44	54469.82
611.64	54600.89
611.84	54250.69
612.03	54547.65
612.23	54486.21
612.43	54510.78
612.62	54062.28
612.82	54293.70
613.02	54416.58
613.21	54615.23
613.41	54375.62
613.61	54482.11
613.80	54015.18
614.00	54549.70
614.20	54426.82
614.39	54660.29
614.59	54424.77
614.79	54576.32
614.98	54623.42
615.18	54351.04
615.38	54453.44
615.57	54205.64
615.77	54457.54
615.97	54678.72
616.16	54338.75
616.36	54484.16
616.56	54699.20
616.75	54193.35
616.95	54518.98
617.15	54416.58
617.34	54367.43
617.54	54303.94
617.74	54359.23
617.93	54289.60
618.13	54049.99
618.32	54105.29
618.52	54441.15
618.72	54371.52
618.91	54342.85
619.11	54187.21
619.31	54222.02
619.50	53994.70
619.70	54002.89
619.90	54432.96
620.09	54445.25
620.29	53886.15
620.48	54224.07
620.68	54138.05
620.88	54211.78
621.07	54224.07
621.27	54303.94
621.46	53607.63
621.66	54351.04
621.86	53910.73
622.05	53966.02
622.25	54328.52
622.44	53847.24
622.64	54082.76
622.84	54357.19
623.03	54142.15
623.23	53949.64
623.42	54090.95
623.62	54154.44
623.82	54271.17
624.01	53920.97
624.21	54101.19
624.40	54508.74
624.60	54166.73
624.80	53906.63
624.99	53886.15
625.19	53497.04
625.38	54140.10
625.58	54232.26
625.77	54510.78
625.97	54054.09
626.17	54101.19
626.36	54123.72
626.56	54408.39
626.75	53701.84
626.95	54645.95
627.14	53941.45
627.34	54219.97
627.54	54054.09
627.73	54072.52
627.93	54502.59
628.12	53740.75
628.32	54033.61
628.51	54099.14
628.71	54234.31
628.90	54031.56
629.10	53935.30
629.30	54404.29
629.49	54232.26
629.69	54389.95
629.88	54156.49
630.08	54480.06
630.27	54437.06
630.47	54232.26
630.66	53798.09
630.86	54545.60
631.05	54219.97
631.25	54699.20
631.44	54607.04
631.64	54363.33
631.84	55018.68
632.03	54873.27
632.23	55000.25
632.42	54951.10
632.62	54514.88
632.81	54095.05
633.01	54779.07
633.20	54713.53
633.40	54947.00
633.59	54398.15
633.79	53890.25
633.98	54858.94
634.18	54660.29
634.37	55084.22
634.57	54418.63
634.76	55080.12
634.96	55039.16
635.15	55332.02
635.35	54492.35
635.54	54459.58
635.74	55055.54
635.93	54508.74
636.13	55393.46
636.32	55426.23
636.52	54611.13
636.71	55119.03
636.91	54813.88
637.10	55502.00
637.30	55035.06
637.49	54604.99
637.69	55100.60
637.88	55420.08
638.08	54678.72
638.27	55209.14
638.46	55180.47
638.66	55710.89
638.85	55362.74
639.05	55415.99
639.24	55532.72
639.44	55157.94
639.63	55266.48
639.83	55467.19
640.02	55372.98
640.22	55764.14
640.41	55708.85
640.61	55162.04
640.80	55522.48
640.99	55661.74
641.19	56069.29
641.38	55725.23
641.58	55919.79
641.77	55712.94
641.97	55555.25
642.16	55735.47
642.36	55837.87
642.55	56114.34
642.74	55598.26
642.94	56448.16
643.13	55788.72
643.33	56112.30
643.52	56560.80
643.72	56016.04
643.91	56251.56
644.10	56358.05
644.30	56261.80
644.49	55925.93
644.69	56493.22
644.88	56702.11
645.08	55827.63
645.27	56300.71
645.46	56028.33
645.66	56642.72
645.85	56167.59
646.05	56784.03
646.24	56366.24
646.43	56548.51
646.63	56829.08
646.82	56820.89
647.02	56384.68
647.21	56951.96
647.40	56675.49
647.60	56724.64
647.79	57224.34
647.99	57021.59
648.18	56132.78
648.37	57263.25
648.57	57113.75
648.76	57115.80
648.96	56763.55
649.15	57160.86
649.34	57496.72
649.54	57296.02
649.73	57070.75
649.92	56882.33
650.12	57283.73
650.31	57285.78
650.51	57496.72
650.70	57324.69
650.89	57255.06
651.09	57746.57
651.28	57072.79
651.47	57619.60
651.67	57193.62
651.86	57844.88
652.06	57181.34
652.25	57578.64
652.44	57683.09
652.64	57537.68
652.83	57828.49
653.02	57412.76
653.22	57410.71
653.41	57760.91
653.60	57142.42
653.80	57261.21
653.99	57535.63
654.18	56933.53
654.38	57189.53
654.57	57654.42
654.76	57384.08
654.96	57717.90
655.15	57275.54
655.34	57726.10
655.54	57273.49
655.73	57584.79
655.92	57765.01
656.12	57590.93
656.31	57423.00
656.50	57656.46
656.70	57689.23
656.89	57390.23
657.08	57738.38
657.28	57795.73
657.47	57838.73
657.66	57787.53
657.86	57590.93
658.05	57740.43
658.24	58221.70
658.43	57799.82
658.63	57707.66
658.82	58031.24
659.01	58086.54
659.21	58023.05
659.40	57990.28
659.59	58174.60
659.79	58004.62
659.98	58137.74
660.17	58209.42
660.36	57873.55
660.56	58074.25
660.75	57805.97
660.94	58115.21
661.14	57652.37
661.33	57914.51
661.52	57676.94
661.71	58084.49
661.91	57484.43
662.10	57701.52
662.29	58496.13
662.49	58211.46
662.68	57957.52
662.87	58457.22
663.06	58176.65
663.26	57521.30
663.45	58377.35
663.64	57787.53
663.83	58266.76
664.03	58279.05
664.22	57980.04
664.41	57885.84
664.60	57701.52
664.80	57828.49
664.99	57996.43
665.18	57689.23
665.37	57783.44
665.57	58121.35
665.76	57877.64
665.95	58053.77
666.14	58039.43
666.34	57848.97
666.53	57734.29
666.72	57924.75
666.91	57521.30
667.11	57687.18
667.30	57713.81
667.49	58064.01
667.68	57846.93
667.87	57670.80
668.07	57732.24
668.26	57658.51
668.45	57795.73
668.64	57345.17
668.84	58487.94
669.03	57914.51
669.22	58031.24
669.41	58004.62
669.60	57527.44
669.80	57171.10
669.99	58139.78
670.18	57533.59
670.37	57902.22
670.57	57998.48
670.76	57719.95
670.95	57603.22
671.14	57418.90
671.33	57556.11
671.53	57738.38
671.72	57670.80
671.91	57423.00
672.10	57146.52
672.29	57365.65
672.48	57513.11
672.68	57689.23
672.87	57357.46
673.06	56745.12
673.25	57119.90
673.44	57246.87
673.64	57033.88
673.83	56702.11
674.02	57111.70
674.21	56781.98
674.40	57064.60
674.59	56997.02
674.79	57152.66
674.98	56491.17
675.17	57097.37
675.36	57238.68
675.55	57144.47
675.74	56870.04
675.94	56798.37
676.13	57140.38
676.32	56761.50
676.51	57472.15
676.70	56999.07
676.89	56685.73
677.08	57240.73
677.28	56763.55
677.47	57007.26
677.66	56986.78
677.85	56575.14
678.04	57091.22
678.23	57425.04
678.42	57255.06
678.62	57115.80
678.81	56892.57
679.00	56652.96
679.19	57513.11
679.38	56865.95
679.57	56558.75
679.76	56546.47
679.96	56868.00
680.15	56626.34
680.34	56679.58
680.53	56317.09
680.72	56644.77
680.91	56644.77
681.10	56165.54
681.29	56515.75
681.48	56380.58
681.68	56485.03
681.87	56339.62
682.06	56501.41
682.25	55993.51
682.44	56190.12
682.63	56097.96
682.82	55977.13
683.01	56169.64
683.20	55594.16
683.39	56048.81
683.59	55491.76
683.78	55772.33
683.97	55645.36
684.16	55948.46
684.35	55651.50
684.54	55604.40
684.73	55680.17
684.92	55227.57
685.11	55424.18
685.30	55495.86
685.49	56059.05
685.69	55264.44
685.88	55356.60
686.07	55475.38
686.26	55499.95
686.45	55391.41
686.64	55395.51
686.83	55467.19
687.02	55547.06
687.21	55356.60
687.40	55776.43
687.59	55276.72
687.78	55422.13
687.97	55448.75
688.16	55430.32
688.35	54811.84
688.54	54584.51
688.74	54906.04
688.93	54940.86
689.12	54891.71
689.31	55043.26
689.50	55092.41
689.69	54492.35
689.88	54375.62
690.07	54686.91
690.26	54643.90
690.45	55033.02
690.64	54607.04
690.83	54604.99
691.02	54594.75
691.21	54348.99
691.40	54455.49
691.59	54654.14
691.78	54508.74
691.97	55237.81
692.16	54062.28
692.35	54596.80
692.54	54500.54
692.73	54607.04
692.92	54699.20
693.11	54457.54
693.30	54521.02
693.49	54090.95
693.68	54293.70
693.87	54566.08
694.06	53710.03
694.25	54310.08
694.44	54125.77
694.63	54004.94
694.82	54402.24
695.01	54095.05
695.20	53900.49
695.39	53800.14
695.58	54400.19
695.77	53656.78
695.96	54035.66
696.15	54086.85
696.34	53572.81
696.53	53980.36
696.72	54396.10
696.91	53736.65
697.10	53599.44
697.29	53761.23
697.48	54219.97
697.67	53564.62
697.86	53269.72
698.05	53290.19
698.24	53855.43
698.43	53318.87
698.62	53830.86
698.81	53060.82
699.00	53771.47
699.19	53204.18
699.38	53443.79
699.57	53273.81
699.76	53560.53
699.95	53361.87
700.14	52933.85
700.32	53191.89
700.51	53056.73
700.70	53558.48
700.89	53535.95
701.08	53191.89
701.27	52999.38
701.46	53339.35
701.65	52384.99
701.84	53179.60
702.03	53193.94
702.22	53064.92
702.41	53028.05
702.60	53271.76
702.79	53103.83
702.98	52786.39
703.17	52972.76
703.35	52765.91
703.54	52968.66
703.73	53103.83
703.92	53066.97
704.11	52810.97
704.30	52933.85
704.49	52692.19
704.68	52597.98
704.87	52714.72
705.06	52827.35
705.25	52950.23
705.43	52655.32
705.62	53142.74
705.81	53007.58
706.00	52815.07
706.19	52387.04
706.38	52796.63
706.57	52757.72
706.76	52522.21
706.95	53099.73
707.14	52626.65
707.32	52479.20
707.51	52317.41
707.70	52630.75
707.89	52274.40
708.08	51979.49
708.27	52739.29
708.46	52767.96
708.65	52323.55
708.84	52716.76
709.02	52919.51
709.21	52804.83
709.40	52391.14
709.59	52546.78
709.78	51942.63
709.97	52657.37
710.16	52305.12
710.34	52321.51
710.53	52401.38
710.72	51932.39
710.91	52458.72
711.10	52577.50
711.29	52550.88
711.48	51766.51
711.66	52282.59
711.85	52255.97
712.04	52040.93
712.23	52303.07
712.42	51952.87
712.61	52053.22
712.80	52024.55
712.98	52366.56
713.17	51774.70
713.36	51643.63
713.55	52020.45
713.74	52155.62
713.93	51860.71
714.11	52047.08
714.30	51584.24
714.49	51789.03
714.68	52081.89
714.87	51549.42
715.06	52493.54
715.24	51989.73
715.43	52147.43
715.62	51737.83
715.81	51741.93
716.00	51739.88
716.18	51539.18
716.37	51365.10
716.56	51746.03
716.75	52356.32
716.94	51598.57
717.12	51287.28
717.31	51746.03
717.50	51608.81
717.69	51793.13
717.88	51545.33
718.06	51563.76
718.25	51617.00
718.44	51514.61
718.63	51416.30
718.82	51301.62
719.00	51191.03
719.19	51270.90
719.38	51524.85
719.57	51082.48
719.76	50904.31
719.94	50681.08
720.13	51186.93
720.32	51209.46
720.51	50824.44
720.69	50631.93
720.88	50783.48
721.07	51094.77
721.26	50521.34
721.44	50515.20
721.63	50306.30
721.82	49855.75
722.01	50167.04
722.20	50517.25
722.38	50420.99
722.57	50177.28
722.76	50623.74
722.95	50339.07
723.13	49925.38
723.32	50197.76
723.51	49812.74
723.70	50091.27
723.88	50068.74
724.07	49767.69
724.26	49882.37
724.44	49689.87
724.63	49943.81
724.82	49945.86
725.01	49919.24
725.19	49868.04
725.38	49687.82
725.57	49470.73
725.76	49929.48
725.94	49614.09
726.13	49718.54
726.32	49282.32
726.51	49560.84
726.69	50091.27
726.88	49861.90
727.07	49638.67
727.25	49546.51
727.44	50099.46
727.63	49722.63
727.82	49788.17
728.00	49622.28
728.19	49874.18
728.38	49999.11
728.56	49034.52
728.75	50220.29
728.94	49788.17
729.12	49653.00
729.31	49308.94
729.50	49521.93
729.69	49724.68
729.87	49468.69
730.06	49642.76
730.25	49642.76
730.43	49861.90
730.62	49249.55
730.81	49526.03
730.99	49437.97
731.18	49210.64
731.37	49341.71
731.55	49566.99
731.74	49919.24
731.93	49577.23
732.11	49472.78
732.30	49843.46
732.49	49880.33
732.67	49212.69
732.86	49206.55
733.05	49777.93
733.23	49286.42
733.42	49507.60
733.61	49624.33
733.79	49566.99
733.98	49585.42
734.17	49382.67
734.35	49415.44
734.54	49571.08
734.73	49546.51
734.91	49605.90
735.10	49143.06
735.29	49349.90
735.47	48882.97
735.66	49530.12
735.84	49147.15
736.03	49358.09
736.22	49865.99
736.40	49132.82
736.59	49165.59
736.78	49476.88
736.96	49421.58
737.15	49579.28
737.33	48710.94
737.52	48954.64
737.71	48940.31
737.89	48889.11
738.08	48842.01
738.27	48608.54
738.45	48979.22
738.64	49212.69
738.82	48549.15
739.01	49245.46
739.20	48741.66
739.38	48882.97
739.57	49274.13
739.75	49011.99
739.94	48715.03
740.13	48614.68
740.31	48600.35
740.50	49067.28
740.68	49102.10
740.87	48710.94
741.06	48616.73
741.24	48624.92
741.43	48112.93
741.61	48653.59
741.80	48352.54
741.99	48403.74
742.17	48633.11
742.36	48364.83
742.54	48157.99
742.73	48346.40
742.91	48563.48
743.10	48424.22
743.29	48385.31
743.47	48366.88
743.66	48381.21
743.84	48033.06
744.03	48184.61
744.21	48334.11
744.40	48121.12
744.59	47928.61
744.77	47766.82
744.96	48225.57
745.14	47918.37
745.33	48059.68
745.51	47613.23
745.70	47709.48
745.88	47680.81
746.07	47764.78
746.26	47430.96
746.44	47652.14
746.63	47547.69
746.81	47527.21
747.00	47150.38
747.18	47349.04
747.37	47555.88
747.55	47318.32
747.74	47797.54
747.92	47416.62
748.11	47277.36
748.29	47392.04
748.48	47152.43
748.66	47258.93
748.85	47193.39
749.03	47320.37
749.22	47129.90
749.41	46781.75
749.59	47052.08
749.78	47009.07
749.96	46284.09
750.15	46753.08
750.33	47025.46
750.52	46869.81
750.70	46740.79
750.89	46703.93
751.07	46734.65
751.26	46552.38
751.44	46341.44
751.63	46372.16
751.81	46603.58
752.00	46130.50
752.18	46400.83
752.37	46685.50
752.55	46028.10
752.74	45835.59
752.92	46081.34
753.10	45708.61
753.29	45944.13
753.47	45684.04
753.66	45722.95
753.84	46368.06
754.03	45794.63
754.21	45450.57
754.40	45829.44
754.58	46138.69
754.77	45725.00
754.95	45598.02
755.14	45172.05
755.32	45534.54
755.51	45571.40
755.69	45253.97
755.88	45227.34
756.06	45366.60
756.24	45118.80
756.43	45028.69
756.61	45221.20
756.80	45036.88
756.98	44916.05
757.17	44590.42
757.35	45335.88
757.54	45231.44
757.72	44903.76
757.90	44959.06
758.09	44709.21
758.27	45184.33
758.46	44465.50
758.64	44625.24
758.83	44852.56
759.01	44868.95
759.19	44588.38
759.38	44926.29
759.56	44744.02
759.75	44324.19
759.93	44322.14
760.12	44422.49
760.30	44223.84
760.48	44479.83
760.67	44213.60
760.85	44133.73
761.04	44424.54
761.22	44367.20
761.40	44029.28
761.59	44281.18
761.77	43804.00
761.96	43898.21
762.14	44029.28
762.32	43902.31
762.51	43466.09
762.69	44105.06
762.88	43550.06
763.06	43564.39
763.24	43806.05
763.43	43873.63
763.61	43928.93
763.80	43146.61
763.98	43050.35
764.16	43150.70
764.35	43107.69
764.53	42849.65
764.72	42999.15
764.90	43036.02
765.08	43046.26
765.27	43017.58
765.45	42542.45
765.63	42403.19
765.82	42775.92
766.00	42548.60
766.18	42423.67
766.37	42458.49
766.55	42642.81
766.74	42519.93
766.92	42382.71
767.10	42304.89
767.29	42413.43
767.47	41819.52
767.65	42737.01
767.84	42030.46
768.02	42513.78
768.20	41469.32
768.39	41788.80
768.57	42089.85
768.75	41667.97
768.94	41854.34
769.12	41516.42
769.30	41522.57
769.49	41895.30
769.67	41760.13
769.85	41313.67
770.04	41690.50
770.22	40957.33
770.40	41293.19
770.59	41371.02
770.77	41205.13
770.95	41364.87
771.14	41166.22
771.32	40916.37
771.50	40957.33
771.69	41237.90
771.87	40969.61
772.05	40973.71
772.24	40504.73
772.42	40922.51
772.60	40572.31
772.78	40889.74
772.97	40441.24
773.15	40871.31
773.33	40379.80
773.52	40572.31
773.70	40568.21
773.88	40885.65
774.07	40248.73
774.25	40256.92
774.43	41031.05
774.61	40701.33
774.80	40623.51
774.98	40914.32
775.16	40795.54
775.34	40748.43
775.53	40279.45
775.71	40672.66
775.89	40586.64
776.08	40592.79
776.26	40512.92
776.44	41008.53
776.62	40119.71
776.81	40361.37
776.99	40736.15
777.17	40338.84
777.35	40580.50
777.54	40803.73
777.72	40517.01
777.90	40474.01
778.08	40787.35
778.27	40557.97
778.45	40269.21
778.63	40877.46
778.81	40265.11
779.00	41088.40
779.18	40764.82
779.36	41094.54
779.54	40736.15
779.73	40564.12
779.91	40945.04
780.09	41080.21
780.27	41188.75
780.46	41055.63
780.64	40822.16
780.82	40822.16
781.00	40816.02
781.19	41258.38
781.37	41221.52
781.55	41241.99
781.73	41502.09
781.91	41039.25
782.10	41125.26
782.28	41178.51
782.46	41049.49
782.64	41399.69
782.82	40754.58
783.01	41448.84
783.19	41178.51
783.37	41280.91
783.55	41282.95
783.74	41180.56
783.92	40994.19
784.10	41584.01
784.28	41356.68
784.46	40899.98
784.64	40658.32
784.83	41037.20
785.01	41186.70
785.19	41088.40
785.37	41309.58
785.55	40926.61
785.74	41088.40
785.92	40625.56
786.10	40768.91
786.28	41198.99
786.46	40711.57
786.64	40322.46
786.83	40697.24
787.01	41074.06
787.19	40723.86
787.37	40594.84
787.55	40662.42
787.74	40463.77
787.92	40557.97
788.10	40351.13
788.28	40301.98
788.46	40416.66
788.64	39904.67
788.82	40490.39
789.01	40648.08
789.19	40478.10
789.37	39837.09
789.55	40363.42
789.73	39804.32
789.91	40039.84
790.09	39910.82
790.28	39388.58
790.46	39521.70
790.64	40213.91
790.82	39892.38
791.00	39716.26
791.18	39654.82
791.36	39617.96
791.55	39855.52
791.73	39490.98
791.91	39343.53
792.09	39286.18
792.27	39482.79
792.45	39298.47
792.63	39437.73
792.81	39187.88
793.00	38886.83
793.18	39308.71
793.36	38831.54
793.54	39017.90
793.72	38405.56
793.90	38419.89
794.08	38456.76
794.26	38596.02
794.44	38249.91
794.62	38272.44
794.81	38487.48
794.99	38380.98
795.17	37946.81
795.35	38172.09
795.53	38155.71
795.71	37897.66
795.89	37621.19
796.07	38059.45
796.25	37436.87
796.43	37664.19
796.61	37270.98
796.80	37582.27
796.98	37440.96
797.16	37373.38
797.34	37477.83
797.52	37223.88
797.70	37404.10
797.88	37291.46
798.06	36883.92
798.24	36953.55
798.42	37311.94
798.60	36617.68
798.78	36603.35
798.96	36857.29
799.14	36447.70
799.32	36517.33
799.51	36160.98
799.69	36429.27
799.87	36543.95
800.05	36539.86
800.23	36113.88
800.41	36185.56
800.59	35948.00
800.77	35755.49
800.95	35626.46
801.13	35761.63
801.31	35491.30
801.49	35739.10
801.67	35288.55
801.85	35452.39
802.03	35298.79
802.21	35091.94
802.39	35083.75
802.57	35386.85
802.75	35038.70
802.93	35335.65
803.11	35098.09
803.29	34803.18
803.47	34620.91
803.65	34758.13
803.83	34719.21
804.01	35235.30
804.19	34506.23
804.37	34383.35
804.55	34133.50
804.73	34575.86
804.91	34360.82
805.09	34553.33
805.27	34455.03
805.45	34385.40
805.63	34354.68
805.81	34176.50
805.99	34377.20
806.17	34315.76
806.35	33680.89
806.53	33383.94
806.71	33854.97
806.89	33822.20
807.07	33834.49
807.25	33693.18
807.43	33160.71
807.61	33703.42
807.79	33596.93
807.97	33062.41
808.15	33525.25
808.33	33388.03
808.51	33246.72
808.69	33289.73
808.87	33277.44
809.05	32992.78
809.23	32697.87
809.41	32804.36
809.59	32880.14
809.77	33066.50
809.95	32456.21
810.13	32482.83
810.31	32873.99
810.49	32427.54
810.67	32527.89
810.84	32177.68
811.02	32212.50
811.20	32179.73
811.38	32357.91
811.56	32087.57
811.74	32357.91
811.92	31833.63
812.10	31974.94
812.28	31944.22
812.46	31854.11
812.64	32179.73
812.82	31899.16
813.00	31888.92
813.18	31725.08
813.36	31770.14
813.53	31530.53
813.71	31438.37
813.89	31786.52
814.07	31563.29
814.25	31587.87
814.43	31122.98
814.61	31229.48
814.79	31122.98
814.97	31186.47
815.15	31421.98
815.33	31182.37
815.50	30961.19
815.68	31176.23
815.86	31387.17
816.04	30821.93
816.22	30936.62
816.40	31086.12
816.58	31045.16
816.76	30711.34
816.94	30479.92
817.11	30709.29
817.29	30750.25
817.47	30764.59
817.65	30506.54
817.83	30672.43
818.01	30332.47
818.19	30201.40
818.37	30363.18
818.54	30125.62
818.72	30105.14
818.90	30223.92
819.08	29933.11
819.26	30426.67
819.44	29857.34
819.62	30324.27
819.80	30191.16
819.97	30068.28
820.15	30174.77
820.33	29679.16
820.51	30094.90
820.69	29711.93
820.87	29513.28
821.05	30146.10
821.22	29949.50
821.40	29855.29
821.58	29298.24
821.76	29390.40
821.94	29263.43
822.12	29234.75
822.29	29521.47
822.47	29263.43
822.65	29464.13
822.83	29468.22
823.01	29300.29
823.19	28974.66
823.36	29122.12
823.54	29144.64
823.72	29263.43
823.90	29085.25
824.08	28866.12
824.25	28675.66
824.43	28515.92
824.61	28876.36
824.79	28921.41
824.97	28810.82
825.15	28855.88
825.32	28810.82
825.50	28743.24
825.68	28468.81
825.86	28689.99
826.04	29040.20
826.21	28733.00
826.39	28677.71
826.57	28550.73
826.75	28399.18
826.93	28020.31
827.10	27944.53
827.28	28323.41
827.46	28560.97
827.64	28581.45
827.81	28364.37
827.99	28466.77
828.17	28163.67
828.35	28167.76
828.53	28163.67
828.70	27967.06
828.88	27926.10
829.06	28202.58
829.24	28102.23
829.41	27772.50
829.59	28028.50
829.77	28001.88
829.95	27899.48
830.12	27891.29
830.30	27907.67
830.48	27635.29
830.66	27862.61
830.84	27901.53
831.01	27704.92
831.19	27500.12
831.37	27584.09
831.55	27260.51
831.72	27395.68
831.90	27475.55
832.08	27686.49
832.25	27367.01
832.43	27541.08
832.61	27127.39
832.79	27375.20
832.96	27350.62
833.14	27471.45
833.32	27448.93
833.50	27256.42
833.67	27479.64
833.85	27229.79
834.03	26981.99
834.20	27498.08
834.38	27076.19
834.56	27536.99
834.74	26533.48
834.91	27180.64
835.09	27111.01
835.27	26584.68
835.44	26781.29
835.62	26660.46
835.80	26951.27
835.98	26621.55
836.15	26658.41
836.33	26556.01
836.51	26564.20
836.68	26295.92
836.86	26496.62
837.04	26506.86
837.21	26615.40
837.39	26412.65
837.57	26668.65
837.75	26750.57
837.92	26259.06
838.10	26164.85
838.28	25806.45
838.45	26037.87
838.63	25767.54
838.81	26187.38
838.98	25933.43
839.16	26054.26
839.34	25878.13
839.51	25878.13
839.69	25822.84
839.87	25683.58
840.04	25912.95
840.22	25869.94
840.40	25781.88
840.57	25419.39
840.75	25546.36
840.93	25405.05
841.10	25826.93
841.28	25659.00
841.46	25501.31
841.63	25669.24
841.81	25607.80
841.98	25505.40
842.16	25755.26
842.34	25273.98
842.51	25398.91
842.69	25947.76
842.87	25357.95
843.04	25202.30
843.22	25265.79
843.40	25288.32
843.57	25421.44
843.75	25396.86
843.92	25276.03
844.10	25216.64
844.28	25134.72
844.45	25122.43
844.63	25486.97
844.81	25044.61
844.98	25304.70
845.16	25020.03
845.33	25120.38
845.51	25271.93
845.69	24856.20
845.86	24956.55
846.04	24737.41
846.21	24825.48
846.39	24716.93
846.57	24909.44
846.74	24665.74
846.92	24491.66
847.09	24700.55
847.27	24436.36
847.45	24536.71
847.62	24714.89
847.80	24182.42
847.97	24622.73
848.15	24288.91
848.32	24172.18
848.50	24342.16
848.68	23969.43
848.85	24401.55
849.03	23819.92
849.20	24088.21
849.38	24462.99
849.56	24409.74
849.73	23828.12
849.91	24192.65
850.08	24057.49
850.26	23805.59
850.43	24067.73
850.61	23946.90
850.78	23455.39
850.96	23994.00
851.14	23729.81
851.31	23877.27
851.49	23457.43
851.66	23826.07
851.84	23475.87
852.01	23735.96
852.19	23617.18
852.36	23883.41
852.54	23260.83
852.71	23727.77
852.89	23525.02
853.07	23275.16
853.24	23434.91
853.42	23178.91
853.59	23295.64
853.77	23236.25
853.94	23398.04
854.12	23568.02
854.29	22832.80
854.47	23230.11
854.64	23115.42
854.82	22900.39
854.99	23297.69
855.17	22785.70
855.34	23043.74
855.52	23121.57
855.69	23309.98
855.87	23099.04
856.04	22785.70
856.22	22853.28
856.39	22879.91
856.57	22623.91
856.74	22646.44
856.92	22972.07
857.09	22498.98
857.27	22402.73
857.44	22832.80
857.62	22587.05
857.79	22656.68
857.97	22408.87
858.14	22597.29
858.32	22204.08
858.49	22470.31
858.67	22564.52
858.84	22406.83
859.02	22468.27
859.19	22384.30
859.37	22267.56
859.54	21980.85
859.72	22339.24
859.89	22312.62
860.06	22341.29
860.24	21864.11
860.41	21870.26
860.59	21927.60
860.76	22070.96
860.94	21907.12
861.11	21894.83
861.29	21808.82
861.46	21694.13
861.64	21661.37
861.81	21462.71
861.98	21624.50
862.16	21634.74
862.33	21632.69
862.51	21581.49
862.68	21651.13
862.86	21569.21
863.03	21577.40
863.21	21563.06
863.38	21288.64
863.55	21444.28
863.73	21626.55
863.90	21493.43
864.08	21458.62
864.25	21411.51
864.43	21294.78
864.60	21120.70
864.77	21169.85
864.95	21333.69
865.12	21102.27
865.30	21077.69
865.47	21257.92
865.64	21040.83
865.82	21200.57
865.99	21167.80
866.17	21020.35
866.34	20967.10
866.51	20745.92
866.69	20897.47
866.86	21008.06
867.04	20809.41
867.21	20664.00
867.38	20688.58
867.56	20629.19
867.73	20733.64
867.91	20440.78
868.08	20608.71
868.25	20573.89
868.43	20465.35
868.60	20248.27
868.78	20129.48
868.95	20672.20
869.12	20346.57
869.30	20418.25
869.47	20465.35
869.64	20037.33
869.82	19939.02
869.99	19955.41
870.16	20217.55
870.34	20186.83
870.51	20225.74
870.69	20010.70
870.86	19932.88
871.03	19744.47
871.21	19850.96
871.38	19914.45
871.55	19889.87
871.73	19859.15
871.90	19478.23
872.07	19599.06
872.25	19562.20
872.42	19402.46
872.59	19771.09
872.77	19662.55
872.94	19517.14
873.11	19551.96
873.29	19515.09
873.46	18884.32
873.63	19117.79
873.81	19242.71
873.98	19234.52
874.15	18906.85
874.33	19029.73
874.50	18953.95
874.67	19121.88
874.85	18863.84
875.02	18958.05
875.19	18736.87
875.37	18790.11
875.54	18863.84
875.71	18826.98
875.88	18472.68
876.06	18636.52
876.23	18593.51
876.40	18540.26
876.58	18425.57
876.75	18556.64
876.92	18317.03
877.10	18415.34
877.27	18222.83
877.44	18192.11
877.61	18145.00
877.79	18300.65
877.96	18235.11
878.13	18300.65
878.31	17897.20
878.48	18235.11
878.65	18050.80
878.82	18050.80
879.00	18212.59
879.17	18099.95
879.34	17891.06
879.51	17729.27
879.69	17643.25
879.86	17469.17
880.03	17526.52
880.21	17786.61
880.38	17903.34
880.55	17460.98
880.72	17438.45
880.90	17594.10
881.07	17475.32
881.24	17454.84
881.41	17571.57
881.59	17487.61
881.76	17438.45
881.93	17299.19
882.10	17338.10
882.28	17323.77
882.45	17417.97
882.62	17270.52
882.79	17102.59
882.96	17127.16
883.14	17426.17
883.31	17327.86
883.48	17434.36
883.65	17192.70
883.83	17297.14
884.00	16951.04
884.17	16905.98
884.34	17166.07
884.51	17041.15
884.69	16998.14
884.86	17047.29
885.03	17090.30
885.20	16736.00
885.38	16916.22
885.55	16598.79
885.72	16942.85
885.89	16371.46
886.06	16801.54
886.24	16844.54
886.41	16881.41
886.58	16908.03
886.75	16756.48
886.92	16375.56
887.10	16725.76
887.27	16613.12
887.44	16660.23
887.61	16748.29
887.78	16723.71
887.95	16439.05
888.13	16336.65
888.30	16291.59
888.47	16142.09
888.64	16414.47
888.81	16350.98
888.99	16199.43
889.16	15906.57
889.33	15961.87
889.50	16144.14
889.67	15992.59
889.84	15943.44
890.01	16121.61
890.19	15800.08
890.36	15750.93
890.53	16125.71
890.70	15652.63
890.87	16082.70
891.04	15707.92
891.22	15785.74
891.39	15793.94
891.56	15746.83
891.73	15701.78
891.90	15726.35
892.07	15697.68
892.24	15886.09
892.42	15519.51
892.59	15787.79
892.76	15388.44
892.93	15593.23
893.10	15679.25
893.27	15544.08
893.44	15392.53
893.61	15357.72
893.79	15595.28
893.96	15365.91
894.13	15591.19
894.30	15451.92
894.47	15329.05
894.64	15404.82
894.81	15320.85
894.98	15458.07
895.15	15421.20
895.33	15552.27
895.50	15122.20
895.67	15451.92
895.84	15318.81
896.01	15079.19
896.18	15167.26
896.35	15609.62
896.52	15288.09
896.69	15427.35
896.86	15173.40
897.04	15224.60
897.21	15134.49
897.38	15206.17
897.55	15101.72
897.72	15167.26
897.89	15314.71
898.06	15234.84
898.23	15208.22
898.40	15101.72
898.57	15433.49
898.74	15230.74
898.91	15015.71
899.08	15032.09
899.26	14858.01
899.43	15167.26
899.60	14882.59
899.77	15042.33
899.94	15091.48
900.11	15165.21
900.28	15232.79
900.45	14855.97
900.62	14980.89
900.79	15093.53
900.96	15114.01
901.13	15140.63
901.30	14997.28
901.47	15040.28
901.64	14966.56
901.81	14962.46
901.98	14960.41
902.15	15173.40
902.32	15124.25
902.49	14901.02
902.66	14878.49
902.83	14927.64
903.01	14937.88
903.18	15034.14
903.35	15027.99
903.52	14948.12
903.69	15105.82
903.86	14997.28
904.03	14927.64
904.20	15134.49
904.37	15271.70
904.54	14993.18
904.71	14989.08
904.88	15064.86
905.05	14802.72
905.22	15007.52
905.39	14812.96
905.56	14860.06
905.73	14772.00
905.90	14833.44
906.07	14806.81
906.24	15003.42
906.41	14862.11
906.58	14835.49
906.75	14774.05
906.92	14739.23
907.09	14944.03
907.26	14763.81
907.43	14778.14
907.60	15253.27
907.77	14896.92
907.93	15030.04
908.10	14839.58
908.27	15109.91
908.44	14714.66
908.61	14868.25
908.78	14630.69
908.95	14780.19
909.12	14823.20
909.29	14915.36
909.46	14786.33
909.63	14909.21
909.80	14671.65
909.97	14653.22
910.14	14614.30
910.31	14679.84
910.48	14518.05
910.65	14761.76
910.82	14602.02
910.99	14722.85
911.16	14712.61
911.33	14731.04
911.50	14620.45
911.66	14550.82
911.83	14599.97
912.00	14548.77
912.17	14315.30
912.34	14579.49
912.51	14329.64
912.68	14186.28
912.85	14401.32
913.02	14440.23
913.19	14214.95
913.36	14454.56
913.53	14479.14
913.70	14223.14
913.86	14372.64
914.03	14325.54
914.20	14317.35
914.37	14448.42
914.54	14268.20
914.71	14163.75
914.88	14069.55
915.05	14044.97
915.22	13979.43
915.39	14262.05
915.55	14141.22
915.72	13846.32
915.89	13934.38
916.06	13731.63
916.23	13725.49
916.40	13555.51
916.57	13920.04
916.74	13698.86
916.91	13823.79
917.07	13573.94
917.24	13547.31
917.41	13678.38
917.58	13709.10
917.75	13561.65
917.92	13618.99
918.09	13223.73
918.26	13475.63
918.42	13561.65
918.59	13492.02
918.76	13178.68
918.93	13238.07
919.10	13207.35
919.27	13070.14
919.44	13211.45
919.60	13524.79
919.77	13354.80
919.94	12980.03
920.11	13143.86
920.28	12951.35
920.45	12994.36
920.61	12998.46
920.78	12963.64
920.95	13041.46
921.12	12750.65
921.29	12734.27
921.46	12595.01
921.62	12789.56
921.79	12607.30
921.96	12554.05
922.13	12900.16
922.30	12590.91
922.47	12273.48
922.63	12388.16
922.80	12449.60
922.97	12388.16
923.14	12187.46
923.31	12220.23
923.47	12087.11
923.64	12578.62
923.81	12093.26
923.98	12195.65
924.15	11968.33
924.32	12003.14
924.48	12123.98
924.65	11970.38
924.82	11988.81
924.99	11847.50
925.15	11726.67
925.32	11882.31
925.49	11796.30
925.66	11714.38
925.83	11630.41
925.99	11603.79
926.16	11833.16
926.33	11626.32
926.50	11421.52
926.67	11652.94
926.83	11679.57
927.00	11382.61
927.17	11495.25
927.34	11456.34
927.50	11224.92
927.67	11419.47
927.84	11243.35
928.01	11143.00
928.17	11114.33
928.34	10891.10
928.51	11112.28
928.68	11124.57
928.84	11067.22
929.01	10837.85
929.18	10841.95
929.35	10727.26
929.51	10854.23
929.68	10645.34
929.85	10524.51
930.02	10456.93
930.18	10518.37
930.35	10694.49
930.52	10432.35
930.69	10561.37
930.85	10366.82
931.02	10262.37
931.19	10286.95
931.36	10164.07
931.52	10123.11
931.69	10299.23
931.86	10243.94
932.02	10270.56
932.19	9924.46
932.36	9834.35
932.53	10024.81
932.69	9813.87
932.86	10162.02
933.03	9865.07
933.19	9625.45
933.36	9969.51
933.53	9799.53
933.70	9592.69
933.86	9645.93
934.03	9570.16
934.20	9338.74
934.36	9484.14
934.53	9416.56
934.70	9254.77
934.86	9211.76
935.03	9209.72
935.20	9125.75
935.36	8908.66
935.53	8966.01
935.70	9099.13
935.86	8918.90
936.03	8810.36
936.20	8669.05
936.36	8505.21
936.53	8619.90
936.70	8566.65
936.86	8429.44
937.03	8464.25
937.20	8331.14
937.36	8220.55
937.53	8099.72
937.70	7962.50
937.86	7946.12
938.03	8009.61
938.20	7878.54
938.36	7827.34
938.53	7720.84
938.70	7438.22
938.86	7505.81
939.03	7462.80
939.20	7401.36
939.36	7360.40
939.53	7227.28
939.70	7419.79
939.86	6952.85
940.03	6852.50
940.19	6875.03
940.36	6846.36
940.53	6946.71
940.69	6737.82
940.86	6698.91
941.03	6688.67
941.19	6360.99
941.36	6500.25
941.52	6477.73
941.69	6170.53
941.86	6377.37
942.02	6211.49
942.19	6107.04
942.35	6264.74
942.52	5957.54
942.69	5982.12
942.85	5947.30
943.02	5914.53
943.18	6023.08
943.35	5898.15
943.52	5865.38
943.68	5748.65
943.85	5828.52
944.01	5715.88
944.18	5656.49
944.35	5625.77
944.51	5687.21
944.68	5539.76
944.84	5476.27
945.01	5623.72
945.17	5523.37
945.34	5529.52
945.51	5427.12
945.67	5412.78
945.84	5451.69
946.00	5228.46
946.17	5410.73
946.33	5373.87
946.50	5441.45
946.67	5472.17
946.83	5238.70
947.00	5367.73
947.16	5285.81
947.33	5316.53
947.49	5410.73
947.66	5179.31
947.82	5398.45
947.99	5275.57
948.16	5334.96
948.32	5242.80
948.49	5269.42
948.65	5433.26
948.82	5308.34
948.98	5349.29
949.15	5332.91
949.31	5326.77
949.48	5351.34
949.64	5375.92
949.81	5410.73
949.97	5240.75
950.14	5429.17
950.30	5431.21
950.47	5455.79
950.63	5408.69
950.80	5312.43
950.96	5285.81
951.13	5291.95
951.30	5316.53
951.46	5527.47
951.63	5431.21
951.79	5476.27
951.96	5420.97
952.12	5390.25
952.29	5466.03
952.45	5294.00
952.62	5474.22
952.78	5476.27
952.94	5451.69
953.11	5253.04
953.27	5394.35
953.44	5642.15
953.60	5414.83
953.77	5369.77
953.93	5355.44
954.10	5611.43
954.26	5572.52
954.43	5523.37
954.59	5480.36
954.76	5756.84
954.92	5474.22
955.09	5550.00
955.25	5472.17
955.42	5527.47
955.58	5685.16
955.75	5578.67
955.91	5566.38
956.07	5617.58
956.24	5640.11
956.40	5537.71
956.57	5611.43
956.73	5500.84
956.90	5562.28
957.06	5547.95
957.23	5476.27
957.39	5541.80
957.56	5619.63
957.72	5494.70
957.88	5498.80
958.05	5599.15
958.21	5580.71
958.38	5656.49
958.54	5484.46
958.71	5674.92
958.87	5488.56
959.03	5625.77
959.20	5636.01
959.36	5562.28
959.53	5599.15
959.69	5447.60
959.85	5550.00
960.02	5502.89
960.18	5574.57
960.35	5664.68
960.51	5578.67
960.68	5527.47
960.84	5580.71
961.00	5588.91
961.17	5451.69
961.33	5500.84
961.50	5664.68
961.66	5564.33
961.82	5580.71
961.99	5515.18
962.15	5517.23
962.31	5506.99
962.48	5658.54
962.64	5674.92
962.81	5478.32
962.97	5511.08
963.13	5480.36
963.30	5527.47
963.46	5439.40
963.62	5494.70
963.79	5470.12
963.95	5556.14
964.12	5447.60
964.28	5517.23
964.44	5492.65
964.61	5525.42
964.77	5463.98
964.93	5525.42
965.10	5533.61
965.26	5363.63
965.42	5535.66
965.59	5492.65
965.75	5398.45
965.92	5406.64
966.08	5523.37
966.24	5353.39
966.41	5375.92
966.57	5345.20
966.73	5291.95
966.90	5416.88
967.06	5410.73
967.22	5349.29
967.39	5363.63
967.55	5408.69
967.71	5394.35
967.88	5349.29
968.04	5316.53
968.20	5308.34
968.37	5156.79
968.53	5169.07
968.69	5250.99
968.85	5353.39
969.02	5423.02
969.18	5353.39
969.34	5310.38
969.51	5263.28
969.67	5267.38
969.83	5269.42
970.00	5357.49
970.16	5261.23
970.32	5197.74
970.48	5222.32
970.65	5150.64
970.81	5097.39
970.97	5285.81
971.14	5007.28
971.30	5228.46
971.46	5158.83
971.63	5126.07
971.79	5177.26
971.95	5255.09
972.11	4947.89
972.28	5218.22
972.44	5128.11
972.60	5025.72
972.76	5085.11
972.93	5109.68
973.09	5156.79
973.25	5091.25
973.42	5068.72
973.58	4984.76
973.74	5099.44
973.90	4972.47
974.07	4915.12
974.23	5017.52
974.39	4941.75
974.55	5038.00
974.72	4894.65
974.88	4845.49
975.04	4886.45
975.20	5025.72
975.37	4976.56
975.53	4855.73
975.69	4943.80
975.85	4861.88
976.01	4816.82
976.18	4818.87
976.34	4843.45
976.50	4911.03
976.66	4841.40
976.83	4802.49
976.99	4984.76
977.15	4698.04
977.31	4794.29
977.47	4818.87
977.64	4849.59
977.80	4775.86
977.96	4695.99
978.12	4661.18
978.29	4669.37
978.45	4595.64
978.61	4700.09
978.77	4700.09
978.93	4612.03
979.10	4695.99
979.26	4661.18
979.42	4755.38
979.58	4509.63
979.74	4642.75
979.91	4607.93
980.07	4548.54
980.23	4528.06
980.39	4560.83
980.55	4521.92
980.71	4536.25
980.88	4411.32
981.04	4540.35
981.20	4493.24
981.36	4607.93
981.52	4483.00
981.68	4464.57
981.85	4550.59
982.01	4462.52
982.17	4433.85
982.33	4382.65
982.49	4644.79
982.65	4431.80
982.82	4417.47
982.98	4499.39
983.14	4452.28
983.30	4366.27
983.46	4401.08
983.62	4321.21
983.79	4335.55
983.95	4274.11
984.11	4253.63
984.27	4423.61
984.43	4310.97
984.59	4325.31
984.75	4339.65
984.91	4194.24
985.08	4214.72
985.24	4106.18
985.40	4151.23
985.56	4200.38
985.72	4181.95
985.88	4335.55
986.04	4202.43
986.20	4165.57
986.37	4179.90
986.53	3977.16
986.69	4206.53
986.85	4143.04
987.01	4167.62
987.17	4298.69
987.33	4067.27
987.49	4048.83
987.65	4259.78
987.82	4095.94
987.98	4067.27
988.14	4026.31
988.30	4050.88
988.46	4011.97
988.62	3993.54
988.78	4016.07
988.94	3936.20
989.10	3966.92
989.26	3932.10
989.42	3848.13
989.59	3819.46
989.75	3944.39
989.91	3942.34
990.07	3768.26
990.23	3850.18
990.39	3878.85
990.55	3964.87
990.71	3897.28
990.87	4073.41
991.03	3960.77
991.19	3774.41
991.35	3801.03
991.51	3733.45
991.67	3954.63
991.83	3870.66
992.00	3735.50
992.16	3760.07
992.32	3837.89
992.48	3878.85
992.64	3731.40
992.80	3803.08
992.96	3729.35
993.12	3768.26
993.28	3725.26
993.44	3770.31
993.60	3743.69
993.76	3737.54
993.92	3688.39
994.08	3895.24
994.24	3674.06
994.40	3577.80
994.56	3784.65
994.72	3518.41
994.88	3659.72
995.04	3629.00
995.20	3499.98
995.36	3557.32
995.52	3631.05
995.68	3618.76
995.84	3522.51
996.00	3594.19
996.16	3452.88
996.32	3506.12
996.48	3594.19
996.64	3618.76
996.80	3508.17
996.96	3518.41
997.12	3422.16
997.28	3516.36
997.44	3405.77
997.60	3463.12
997.76	3405.77
997.92	3450.83
998.08	3444.68
998.24	3293.13
998.40	3454.92
998.56	3510.22
998.72	3391.44
998.88	3379.15
999.04	3362.76
999.20	3520.46
999.36	3243.98
999.52	3459.02
999.68	3375.05
999.84	3395.53
1000.00	3418.06
1000.16	3475.40
1000.32	3276.75
1000.48	3381.20
1000.64	3223.50
1000.80	3270.61
1000.95	3286.99
1001.11	3293.13
1001.27	3196.88
1001.43	3395.53
1001.59	3182.54
1001.75	3157.97
1001.91	3213.26
1002.07	3184.59
1002.23	3207.12
1002.39	3082.19
1002.55	3190.74
1002.71	3200.98
1002.87	3092.43
1003.03	3022.80
1003.19	3250.13
1003.34	3205.07
1003.50	3059.67
1003.66	3143.63
1003.82	3149.78
1003.98	3100.62
1004.14	3131.34
1004.30	3108.82
1004.46	3157.97
1004.62	2959.31
1004.78	2990.03
1004.94	3131.34
1005.09	3098.58
1005.25	3008.47
1005.41	3035.09
1005.57	3022.80
1005.73	3104.72
1005.89	3030.99
1006.05	3041.23
1006.21	3043.28
1006.37	2820.05
1006.52	2936.79
1006.68	2822.10
1006.84	3026.90
1007.00	2854.87
1007.16	3002.32
1007.32	2852.82
1007.48	2994.13
1007.64	2883.54
1007.79	2979.79
1007.95	2944.98
1008.11	2969.55
1008.27	2910.16
1008.43	2836.44
1008.59	2830.29
1008.75	2965.46
1008.91	2873.30
1009.06	2910.16
1009.22	2873.30
1009.38	2869.20
1009.54	2799.57
1009.70	2799.57
1009.86	2904.02
1010.01	2785.24
1010.17	2756.57
1010.33	2897.88
1010.49	2840.53
1010.65	2861.01
1010.81	2797.53
1010.96	2705.37
1011.12	2707.41
1011.28	2650.07
1011.44	2813.91
1011.60	2789.33
1011.76	2779.09
1011.91	2785.24
1012.07	2688.98
1012.23	2537.43
1012.39	2656.22
1012.55	2697.17
1012.71	2654.17
1012.86	2658.26
1013.02	2635.74
1013.18	2574.30
1013.34	2566.10
1013.50	2697.17
1013.65	2635.74
1013.81	2582.49
1013.97	2605.02
1014.13	2631.64
1014.29	2576.34
1014.44	2650.07
1014.60	2738.13
1014.76	2639.83
1014.92	2588.63
1015.07	2564.06
1015.23	2670.55
1015.39	2600.92
1015.55	2574.30
1015.71	2568.15
1015.86	2449.37
1016.02	2607.06
1016.18	2461.66
1016.34	2529.24
1016.49	2475.99
1016.65	2615.26
1016.81	2508.76
1016.97	2512.86
1017.12	2551.77
1017.28	2383.84
1017.44	2426.84
1017.60	2473.95
1017.75	2543.58
1017.91	2519.00
1018.07	2482.14
1018.23	2492.38
1018.38	2353.12
1018.54	2418.65
1018.70	2410.46
1018.86	2353.12
1019.01	2435.03
1019.17	2400.22
1019.33	2531.29
1019.49	2414.56
1019.64	2492.38
1019.80	2420.70
1019.96	2320.35
1020.12	2367.45
1020.27	2295.77
1020.43	2404.32
1020.59	2281.44
1020.74	2406.36
1020.90	2426.84
1021.06	2383.84
1021.22	2359.26
1021.37	2402.27
1021.53	2369.50
1021.69	2435.03
1021.84	2301.92
1022.00	2285.53
1022.16	2285.53
1022.31	2254.81
1022.47	2367.45
1022.63	2314.20
1022.79	2189.28
1022.94	2349.02
1023.10	2365.40
1023.26	2299.87
1023.41	2283.49
1023.57	2240.48
1023.73	2314.20
1023.88	2271.20
1024.04	2199.52
1024.20	2230.24
1024.35	2256.86
1024.51	2389.98
1024.67	2244.57
1024.82	2291.68
1024.98	2220.00
1025.14	2246.62
1025.29	2209.76
1025.45	2308.06
1025.61	2226.14
1025.76	2207.71
1025.92	2240.48
1026.08	2271.20
1026.23	2213.85
1026.39	2199.52
1026.55	2162.66
1026.70	2166.75
1026.86	2197.47
1027.02	2195.42
1027.17	2187.23
1027.33	2199.52
1027.48	2232.29
1027.64	2162.66
1027.80	2133.98
1027.95	2260.96
1028.11	2111.46
1028.27	2148.32
1028.42	2115.55
1028.58	2138.08
1028.73	2131.94
1028.89	2103.26
1029.05	2127.84
1029.20	2150.37
>>>>>End Processed Spectral Data<<<<<
