SpectraSuite Data File
++++++++++++++++++++++++++++++++++++
Date: Fri Jun 02 14:44:32 CEST 2017
User: INFO_000
Dark Spectrum Present: No
Reference Spectrum Present: No
Number of Sampled Component Spectra: 1
Spectrometers: USB4H00879
Integration Time (usec): 80000 (USB4H00879)
Spectra Averaged: 1 (USB4H00879)
Boxcar Smoothing: 0 (USB4H00879)
Correct for Electrical Dark: No (USB4H00879)
Strobe/Lamp Enabled: No (USB4H00879)
Correct for Detector Non-linearity: No (USB4H00879)
Correct for Stray Light: No (USB4H00879)
Number of Pixels in Processed Spectrum: 3648
>>>>>Begin Processed Spectral Data<<<<<
345.13	1282.03
345.34	1282.03
345.56	1282.03
345.78	1241.07
345.99	1304.56
346.21	1732.58
346.42	1679.33
346.64	1615.85
346.86	1738.73
347.07	1685.48
347.29	1787.88
347.50	1578.98
347.72	1648.61
347.94	1765.35
348.15	1552.36
348.37	1673.19
348.59	1720.29
348.80	1640.42
349.02	1757.16
349.23	1796.07
349.45	1685.48
349.67	1800.16
349.88	1716.20
350.10	1859.56
350.31	1818.60
350.53	1712.10
350.75	1871.84
350.96	1652.71
351.18	1789.92
351.39	1724.39
351.61	1781.73
351.82	1849.32
352.04	1841.12
352.26	1761.25
352.47	1804.26
352.69	1855.46
352.90	1730.53
353.12	1820.64
353.34	1746.92
353.55	1859.56
353.77	1781.73
353.98	1847.27
354.20	1671.14
354.41	1845.22
354.63	1916.90
354.85	2011.11
355.06	1865.70
355.28	1708.01
355.49	1804.26
355.71	1843.17
355.92	1832.93
356.14	1826.79
356.35	1783.78
356.57	1761.25
356.79	1900.52
357.00	1867.75
357.22	1935.33
357.43	1757.16
357.65	1923.04
357.86	1751.01
358.08	1857.51
358.29	1863.65
358.51	1890.28
358.72	1781.73
358.94	1818.60
359.16	1826.79
359.37	1796.07
359.59	1880.04
359.80	1974.24
360.02	1832.93
360.23	1890.28
360.45	2017.25
360.66	1863.65
360.88	1705.96
361.09	1794.02
361.31	1927.14
361.52	1890.28
361.74	1968.10
361.95	1996.77
362.17	1828.84
362.38	1988.58
362.60	1892.32
362.81	1898.47
363.03	1871.84
363.24	1882.08
363.46	2068.45
363.67	1904.61
363.89	1904.61
364.10	1970.15
364.32	1841.12
364.53	1904.61
364.75	1789.92
364.96	1947.62
365.18	1931.23
365.39	1923.04
365.61	1910.75
365.82	2052.06
366.04	1959.91
366.25	1873.89
366.47	2052.06
366.68	1959.91
366.90	1968.10
367.11	1959.91
367.33	2007.01
367.54	2056.16
367.76	1970.15
367.97	2062.30
368.19	1888.23
368.40	1976.29
368.62	1931.23
368.83	1941.47
369.05	2011.11
369.26	2002.91
369.48	1910.75
369.69	2025.44
369.91	2045.92
370.12	1949.67
370.33	2029.54
370.55	1890.28
370.76	1945.57
370.98	2062.30
371.19	1984.48
371.41	1900.52
371.62	1972.19
371.84	1920.99
372.05	1982.43
372.27	1951.71
372.48	2011.11
372.69	2035.68
372.91	2093.02
373.12	2082.78
373.34	2037.73
373.55	2162.66
373.77	2074.59
373.98	2068.45
374.20	2187.23
374.41	2170.85
374.62	2074.59
374.84	2050.02
375.05	2166.75
375.27	2113.50
375.48	2101.22
375.70	2111.46
375.91	2195.42
376.12	2191.33
376.34	2136.03
376.55	2101.22
376.77	2209.76
376.98	2093.02
377.19	2002.91
377.41	2056.16
377.62	2170.85
377.84	2238.43
378.05	2375.64
378.27	2242.53
378.48	2230.24
378.69	2392.03
378.91	2281.44
379.12	2265.05
379.34	2164.70
379.55	2318.30
379.76	2222.05
379.98	2232.29
380.19	2183.13
380.41	2310.11
380.62	2238.43
380.83	2250.72
381.05	2125.79
381.26	2338.78
381.47	2197.47
381.69	2236.38
381.90	2297.82
382.12	2244.57
382.33	2078.69
382.54	2308.06
382.76	2326.49
382.97	2172.89
383.19	2240.48
383.40	2324.44
383.61	2303.96
383.83	2301.92
384.04	2230.24
384.25	2371.55
384.47	2394.08
384.68	2303.96
384.89	2336.73
385.11	2322.40
385.32	2297.82
385.54	2387.93
385.75	2289.63
385.96	2349.02
386.18	2383.84
386.39	2443.23
386.60	2293.72
386.82	2568.15
387.03	2430.94
387.24	2420.70
387.46	2387.93
387.67	2484.19
387.88	2502.62
388.10	2406.36
388.31	2482.14
388.52	2564.06
388.74	2514.91
388.95	2523.10
389.16	2504.67
389.38	2492.38
389.59	2650.07
389.80	2609.11
390.02	2523.10
390.23	2629.59
390.44	2555.86
390.66	2568.15
390.87	2547.67
391.08	2643.93
391.30	2715.61
391.51	2627.54
391.72	2627.54
391.94	2613.21
392.15	2607.06
392.36	2613.21
392.58	2674.65
392.79	2648.02
393.00	2631.64
393.22	2711.51
393.43	2772.95
393.64	2762.71
393.85	2799.57
394.07	2717.65
394.28	2826.20
394.49	2789.33
394.71	2801.62
394.92	2908.12
395.13	2748.37
395.35	2760.66
395.56	2641.88
395.77	2820.05
395.98	2779.09
396.20	2818.00
396.41	2861.01
396.62	2938.84
396.84	2820.05
397.05	2899.92
397.26	2844.63
397.47	3000.27
397.69	2916.31
397.90	3008.47
398.11	2895.83
398.32	2912.21
398.54	2895.83
398.75	2889.68
398.96	2918.36
399.18	3100.62
399.39	2916.31
399.60	3002.32
399.81	2953.17
400.03	2924.50
400.24	3319.76
400.45	2924.50
400.66	3080.14
400.88	3028.95
401.09	3164.11
401.30	3131.34
401.51	3106.77
401.73	3141.58
401.94	3090.38
402.15	3207.12
402.36	3180.50
402.58	3084.24
402.79	3143.63
403.00	3192.78
403.21	3078.10
403.43	3157.97
403.64	3233.74
403.85	3092.43
404.06	3289.04
404.27	2979.79
404.49	3137.49
404.70	3133.39
404.91	3334.09
405.12	3215.31
405.34	3270.61
405.55	3450.83
405.76	3160.02
405.97	3180.50
406.19	3395.53
406.40	3227.60
406.61	3342.28
406.82	3477.45
407.03	3366.86
407.25	3297.23
407.46	3542.99
407.67	3416.01
407.88	3448.78
408.09	3352.52
408.31	3305.42
408.52	3420.11
408.73	3387.34
408.94	3325.90
409.15	3379.15
409.37	3499.98
409.58	3475.40
409.79	3465.16
410.00	3504.07
410.21	3450.83
410.43	3549.13
410.64	3418.06
410.85	3381.20
411.06	3602.38
411.27	3606.47
411.48	3573.71
411.70	3491.79
411.91	3596.23
412.12	3592.14
412.33	3585.99
412.54	3583.95
412.76	3696.58
412.97	3583.95
413.18	3477.45
413.39	3680.20
413.60	3682.25
413.81	3760.07
414.03	3678.15
414.24	3624.90
414.45	3862.47
414.66	3573.71
414.87	3798.98
415.08	3743.69
415.30	3807.17
415.51	3680.20
415.72	3803.08
415.93	3719.11
416.14	3831.75
416.35	3815.37
416.56	3891.14
416.78	3817.41
416.99	3923.91
417.20	3825.61
417.41	3903.43
417.62	3960.77
417.83	3891.14
418.04	3923.91
418.26	3962.82
418.47	3893.19
418.68	4038.59
418.89	4018.11
419.10	4200.38
419.31	3940.29
419.52	4102.08
419.73	4179.90
419.95	4067.27
420.16	4009.92
420.37	4091.84
420.58	4087.75
420.79	3979.20
421.00	4149.18
421.21	4169.66
421.42	4104.13
421.63	4005.83
421.85	4155.33
422.06	4097.99
422.27	4202.43
422.48	4157.38
422.69	4136.90
422.90	4306.88
423.11	4251.58
423.32	4345.79
423.53	4341.69
423.75	4388.80
423.96	4544.44
424.17	4452.28
424.38	4628.41
424.59	4329.41
424.80	4591.55
425.01	4442.04
425.22	4444.09
425.43	4415.42
425.64	4585.40
425.85	4693.94
426.06	4556.73
426.28	4689.85
426.49	4468.67
426.70	4624.31
426.91	4507.58
427.12	4816.82
427.33	4650.94
427.54	4542.39
427.75	4652.98
427.96	4863.93
428.17	4861.88
428.38	4890.55
428.59	4908.98
428.80	4822.97
429.01	4925.36
429.23	4870.07
429.44	4956.08
429.65	4976.56
429.86	5025.72
430.07	4825.01
430.28	4851.64
430.49	5033.91
430.70	5132.21
430.91	5205.94
431.12	5119.92
431.33	5148.59
431.54	5203.89
431.75	5128.11
431.96	5203.89
432.17	5191.60
432.38	5138.35
432.59	5236.66
432.80	5359.53
433.01	5253.04
433.22	5418.93
433.43	5318.57
433.64	5185.46
433.85	5294.00
434.06	5461.93
434.27	5408.69
434.49	5504.94
434.70	5521.32
434.91	5535.66
435.12	5484.46
435.33	5590.95
435.54	5515.18
435.75	5435.31
435.96	5492.65
436.17	5490.60
436.38	5701.54
436.59	5728.17
436.80	5496.75
437.01	5805.99
437.22	5791.66
437.43	5679.02
437.64	5605.29
437.85	5736.36
438.06	5863.33
438.27	5672.87
438.48	5752.74
438.69	5808.04
438.90	5812.14
439.11	5719.98
439.32	6043.56
439.53	5801.90
439.74	5824.42
439.95	5939.11
440.16	5937.06
440.37	6039.46
440.57	5824.42
440.78	5961.64
440.99	5978.02
441.20	6049.70
441.41	5980.07
441.62	6016.93
441.83	5797.80
442.04	6090.66
442.25	6025.12
442.46	6100.90
442.67	6215.59
442.88	6647.71
443.09	6064.04
443.30	6043.56
443.51	6213.54
443.72	6467.49
443.93	6188.96
444.14	6588.32
444.35	6256.54
444.56	6381.47
444.77	6242.21
444.98	6315.94
445.19	6541.21
445.40	6408.09
445.61	6365.09
445.81	6637.47
446.02	6487.96
446.23	6393.76
446.44	6330.27
446.65	6567.84
446.86	6498.20
447.07	6729.63
447.28	6821.78
447.49	6774.68
447.70	6655.90
447.91	6674.33
448.12	6725.53
448.33	6856.60
448.54	6817.69
448.74	6580.12
448.95	6746.01
449.16	6832.02
449.37	7057.30
449.58	6860.70
449.79	7098.26
450.00	6846.36
450.21	7042.96
450.42	7104.40
450.63	7118.74
450.84	6899.61
451.05	7063.44
451.25	7083.92
451.46	7004.05
451.67	7155.60
451.88	7221.14
452.09	7180.18
452.30	7079.83
452.51	7180.18
452.72	7219.09
452.93	7522.19
453.13	7217.04
453.34	7229.33
453.55	7391.12
453.76	7307.15
453.97	7821.19
454.18	7477.13
454.39	7444.37
454.60	7516.05
454.81	7479.18
455.01	7686.03
455.22	7372.69
455.43	7602.06
455.64	7884.68
455.85	7858.06
456.06	8116.10
456.27	7729.03
456.48	7874.44
456.68	7876.49
456.89	7937.93
457.10	7970.69
457.31	7948.17
457.52	7948.17
457.73	7968.65
457.94	8331.14
458.14	8054.66
458.35	8431.49
458.56	8150.92
458.77	8157.06
458.98	8329.09
459.19	8421.25
459.39	8249.22
459.60	8490.88
459.81	8355.71
460.02	8525.69
460.23	8460.16
460.44	8765.31
460.65	8638.33
460.85	8927.10
461.06	8789.88
461.27	8501.12
461.48	9017.21
461.69	9015.16
461.89	8773.50
462.10	8996.73
462.31	8611.71
462.52	8941.43
462.73	9027.45
462.94	9242.48
463.14	8957.82
463.35	9205.62
463.56	9559.92
463.77	9541.49
463.98	9228.15
464.18	9518.96
464.39	9572.21
464.60	9629.55
464.81	9541.49
465.02	9537.39
465.23	9858.92
465.43	9594.73
465.64	10010.47
465.85	9885.55
466.06	9736.04
466.27	10131.30
466.47	10125.16
466.68	10166.12
466.89	10153.83
467.10	10139.49
467.30	9928.55
467.51	10340.19
467.72	10696.54
467.93	10243.94
468.14	10483.55
468.34	10508.13
468.55	10612.57
468.76	10708.83
468.97	10411.87
469.17	10991.45
469.38	10925.91
469.59	10923.87
469.80	10745.69
470.01	10981.21
470.21	10932.06
470.42	11132.76
470.63	11343.70
470.84	11247.44
471.04	11298.64
471.25	11388.75
471.46	11247.44
471.67	11714.38
471.87	11501.39
472.08	11765.58
472.29	11702.09
472.50	11587.41
472.70	11738.96
472.91	11910.99
473.12	12085.06
473.33	12103.50
473.53	12253.00
473.74	11876.17
473.95	12250.95
474.16	12347.20
474.36	12205.89
474.57	12453.70
474.78	12801.85
474.99	12625.73
475.19	12613.44
475.40	13002.55
475.61	12906.30
475.81	13121.34
476.02	13352.76
476.23	13193.01
476.44	13274.93
476.64	13535.03
476.85	13319.99
477.06	13569.84
477.27	13690.67
477.47	13903.66
477.68	13870.89
477.89	14169.90
478.09	13774.64
478.30	13811.50
478.51	14114.60
478.71	14321.45
478.92	14319.40
479.13	14401.32
479.34	14550.82
479.54	14739.23
479.75	14755.61
479.96	14724.90
480.16	14751.52
480.37	14782.24
480.58	15185.69
480.78	15343.38
480.99	15322.90
481.20	15460.12
481.41	15707.92
481.61	15406.87
481.82	15709.97
482.03	15779.60
482.23	15562.51
482.44	16228.10
482.65	16054.03
482.85	16107.27
483.06	16350.98
483.27	16193.29
483.47	16256.78
483.68	16320.26
483.89	16627.46
484.09	16475.91
484.30	16623.36
484.51	17071.87
484.71	17092.35
484.92	16832.26
485.13	17202.94
485.33	17217.27
485.54	17301.24
485.75	17477.37
485.95	17575.67
486.16	17395.45
486.37	17624.82
486.57	17708.79
486.78	17841.90
486.98	17837.81
487.19	18114.28
487.40	18093.80
487.60	18370.28
487.81	18390.76
488.02	18104.04
488.22	18499.30
488.43	18601.70
488.64	18493.16
488.84	18800.35
489.05	19115.74
489.25	18958.05
489.46	18755.30
489.67	19156.70
489.87	19181.28
490.08	19287.77
490.29	19234.52
490.49	19664.60
490.70	19416.79
490.90	19750.61
491.11	19472.09
491.32	19928.78
491.52	19994.32
491.73	20154.06
491.94	20033.23
492.14	19836.63
492.35	20309.71
492.55	20297.42
492.76	20354.76
492.97	20727.49
493.17	20420.30
493.38	20659.91
493.58	20864.71
493.79	20727.49
494.00	20887.23
494.20	20750.02
494.41	20999.87
494.61	21292.73
494.82	21202.62
495.02	21409.47
495.23	21284.54
495.44	21296.83
495.64	21853.87
495.85	21589.69
496.05	21792.44
496.26	22093.49
496.47	22003.38
496.67	21855.92
496.88	22355.63
497.08	21864.11
497.29	22298.28
497.49	22156.97
497.70	22472.36
497.91	22580.90
498.11	22666.92
498.32	22734.50
498.52	22918.82
498.73	22943.39
498.93	22744.74
499.14	22996.64
499.34	22988.45
499.55	23461.53
499.76	23207.58
499.96	23148.19
500.17	23283.36
500.37	23451.29
500.58	23418.52
500.78	23721.62
500.99	23649.94
501.19	23789.20
501.40	23627.42
501.60	23598.74
501.81	23910.04
502.02	23948.95
502.22	24008.34
502.43	24114.83
502.63	24209.04
502.84	24112.78
503.04	24440.46
503.25	23883.41
503.45	24524.43
503.66	24796.81
503.86	24460.94
504.07	24743.56
504.27	24247.95
504.48	24903.30
504.68	25030.27
504.89	25239.17
505.09	24958.60
505.30	25114.24
505.50	24979.07
505.71	24966.79
505.91	25228.93
506.12	25329.28
506.32	25296.51
506.53	25294.46
506.73	25527.93
506.94	25538.17
507.14	25517.69
507.35	25734.78
507.55	25730.68
507.76	25915.00
507.96	25757.30
508.17	25673.34
508.37	25849.46
508.58	26136.18
508.78	26197.62
508.99	26400.37
509.19	26170.99
509.40	26334.83
509.60	26185.33
509.81	26539.63
510.01	26277.49
510.22	26351.21
510.42	26205.81
510.63	26678.89
510.83	26449.52
511.04	26549.87
511.24	26791.53
511.44	26488.43
511.65	26771.05
511.85	26900.07
512.06	27014.76
512.26	27041.38
512.47	26912.36
512.67	26994.28
512.88	27180.64
513.08	27182.69
513.29	27399.77
513.49	27158.11
513.69	27469.40
513.90	27330.14
514.10	27510.36
514.31	27219.55
514.51	27680.35
514.72	27442.78
514.92	27354.72
515.13	27856.47
515.33	27725.40
515.53	27772.50
515.74	27831.90
515.94	27848.28
516.15	28063.32
516.35	27917.91
516.56	28380.75
516.76	27934.29
516.96	28257.87
517.17	28243.54
517.37	28528.20
517.58	28575.31
517.78	28603.98
517.99	28347.98
518.19	28661.32
518.39	28819.02
518.60	28956.23
518.80	28638.80
519.01	29066.82
519.21	28958.28
519.41	29185.60
519.62	29003.33
519.82	29288.00
520.03	29603.39
520.23	29419.07
520.43	29165.12
520.64	29558.33
520.84	29773.37
521.05	29779.51
521.25	29771.32
521.45	29867.58
521.66	30283.31
521.86	29859.38
522.07	29597.24
522.27	29996.60
522.47	29937.21
522.68	30195.25
522.88	30570.03
523.08	30506.54
523.29	30354.99
523.49	30537.26
523.70	30615.08
523.90	31069.73
524.10	30604.84
524.31	31309.35
524.51	30522.93
524.71	31106.60
524.92	30916.14
525.12	31481.38
525.33	31075.88
525.53	31757.85
525.73	31706.65
525.94	31559.20
526.14	31364.64
526.34	31774.24
526.55	31981.08
526.75	32011.80
526.95	31942.17
527.16	32028.18
527.36	32163.35
527.56	32345.62
527.77	32472.59
527.97	32280.08
528.17	32183.83
528.38	32691.73
528.58	32015.90
528.78	32802.32
528.99	32628.24
529.19	32902.67
529.39	32894.47
529.60	33119.75
529.80	32767.50
530.00	32794.12
530.21	32919.05
530.41	33424.90
530.61	33299.97
530.82	33670.65
531.02	33973.75
531.22	33652.22
531.43	33611.26
531.63	34035.19
531.83	33998.33
532.04	34350.58
532.24	33965.56
532.44	34682.35
532.64	34446.83
532.85	34506.23
533.05	34612.72
533.25	34319.86
533.46	34483.70
533.66	34594.29
533.86	34739.69
534.07	35089.90
534.27	34934.25
534.47	35204.58
534.67	35220.97
534.88	35120.62
535.08	35393.00
535.28	35669.47
535.49	35417.57
535.69	36015.58
535.89	35792.35
536.09	35810.78
536.30	36234.71
536.50	36066.78
536.70	36029.91
536.91	36150.74
537.11	36136.41
537.31	36189.66
537.51	36640.21
537.72	36935.12
537.92	36478.42
538.12	36828.62
538.32	36599.25
538.53	37101.00
538.73	36634.06
538.93	36920.78
539.13	36908.49
539.34	36947.40
539.54	36808.14
539.74	37250.50
539.94	37051.85
540.15	37088.71
540.35	37578.18
540.55	37381.57
540.75	37969.34
540.96	37633.47
541.16	38067.64
541.36	37731.78
541.56	37483.97
541.77	38086.07
541.97	38262.20
542.17	38266.30
542.37	37965.24
542.58	38639.03
542.78	38333.88
542.98	37963.20
543.18	38497.72
543.38	38698.42
543.59	38483.38
543.79	38491.57
543.99	38475.19
544.19	38688.18
544.40	38573.49
544.60	39140.78
544.80	39054.76
545.00	39013.80
545.20	39521.70
545.41	39118.25
545.61	38915.50
545.81	39644.58
546.01	39386.54
546.21	39394.73
546.42	39402.92
546.62	39828.90
546.82	39189.93
547.02	39675.30
547.22	40019.36
547.43	39402.92
547.63	39941.53
547.83	40224.15
548.03	39761.31
548.23	39839.14
548.44	40220.06
548.64	40297.88
548.84	40572.31
549.04	40265.11
549.24	40238.49
549.45	40738.19
549.65	40154.52
549.85	40711.57
550.05	40643.99
550.25	40797.59
550.45	41170.32
550.66	40408.47
550.86	40498.58
551.06	41024.91
551.26	41137.55
551.46	41055.63
551.66	40940.94
551.87	41461.13
552.07	41436.55
552.27	40951.18
552.47	41160.08
552.67	41442.70
552.87	41377.16
553.07	41500.04
553.28	41698.69
553.48	41678.21
553.68	41878.91
553.88	41907.58
554.08	41950.59
554.28	42130.81
554.48	41885.06
554.69	42061.18
554.89	41864.58
555.09	42321.27
555.29	41887.10
555.49	41850.24
555.69	42036.61
555.89	41827.71
556.10	42173.82
556.30	41866.63
556.50	42618.23
556.70	42349.95
556.90	42628.47
557.10	42519.93
557.30	42206.59
557.50	42638.71
557.70	42583.41
557.91	43054.45
558.11	42788.21
558.31	42554.74
558.51	42425.72
558.71	42485.11
558.91	43070.83
559.11	42632.57
559.31	42827.12
559.51	42538.36
559.72	43218.28
559.92	43384.17
560.12	42941.81
560.32	43607.40
560.52	43031.92
560.72	43482.47
560.92	43177.33
561.12	43670.89
561.32	43711.84
561.52	43074.93
561.72	43726.18
561.93	42982.77
562.13	43844.96
562.33	43347.31
562.53	44078.43
562.73	43588.97
562.93	43795.81
563.13	44019.04
563.33	43681.13
563.53	44051.81
563.73	43617.64
563.93	43715.94
564.13	44471.64
564.33	43804.00
564.53	44031.33
564.74	44397.91
564.94	43715.94
565.14	44027.23
565.34	44160.35
565.54	44268.89
565.74	44647.77
565.94	44774.74
566.14	44412.25
566.34	44295.52
566.54	44936.53
566.74	44133.73
566.94	44496.22
567.14	44725.59
567.34	44539.22
567.54	45024.59
567.74	44621.14
567.94	44502.36
568.14	45010.26
568.34	44750.17
568.54	44791.12
568.74	44864.85
568.94	44672.34
569.14	44819.80
569.34	45143.38
569.54	45073.74
569.75	44717.40
569.95	44823.89
570.15	45626.70
570.35	44854.61
570.55	45198.67
570.75	45372.75
570.95	44815.70
571.15	45526.35
571.35	45727.05
571.55	45712.71
571.75	45368.65
571.95	45628.74
572.15	45180.24
572.35	45647.18
572.55	45514.06
572.75	45745.48
572.95	46185.79
573.15	45806.92
573.35	45751.62
573.55	45299.02
573.75	45849.92
573.95	45880.64
574.15	45466.95
574.35	46146.88
574.55	45997.38
574.75	45747.53
574.95	45901.12
575.15	45878.60
575.34	46179.65
575.54	46204.22
575.74	46480.70
575.94	46259.52
576.14	46056.77
576.34	46300.48
576.54	46419.26
576.74	46708.02
576.94	46384.44
577.14	46312.77
577.34	46802.23
577.54	46122.30
577.74	46576.95
577.94	46626.10
578.14	46878.00
578.34	46939.44
578.54	46245.18
578.74	46456.12
578.94	46791.99
579.14	46630.20
579.34	47015.22
579.54	46830.90
579.74	47252.78
579.94	47103.28
580.13	47463.72
580.33	47162.67
580.53	47568.17
580.73	47486.25
580.93	47258.93
581.13	47519.02
581.33	47762.73
581.53	47580.46
581.73	47590.70
581.93	47682.86
582.13	47527.21
582.33	47660.33
582.53	47676.71
582.73	48129.31
582.92	47746.34
583.12	47797.54
583.32	47637.80
583.52	47768.87
583.72	48381.21
583.92	48037.16
584.12	48133.41
584.32	48678.17
584.52	47871.27
584.72	48192.80
584.92	48244.00
585.11	48518.43
585.31	48446.75
585.51	48235.81
585.71	48321.82
585.91	48790.81
586.11	48459.04
586.31	48491.80
586.51	48692.50
586.71	48543.00
586.91	48944.41
587.10	49231.12
587.30	49048.85
587.50	48733.46
587.70	49120.53
587.90	49083.67
588.10	48727.32
588.30	49351.95
588.50	49077.52
588.69	49595.66
588.89	48950.55
589.09	49804.55
589.29	49429.77
589.49	49716.49
589.69	49372.43
589.89	49325.33
590.08	49894.66
590.28	49804.55
590.48	49610.00
590.68	49601.80
590.88	49562.89
591.08	49820.94
591.28	49835.27
591.47	50185.47
591.67	50312.45
591.87	50476.29
592.07	49655.05
592.27	50423.04
592.47	50126.08
592.67	49753.35
592.86	49839.37
593.06	50488.57
593.26	50515.20
593.46	50177.28
593.66	50812.15
593.86	50625.79
594.05	50640.12
594.25	50515.20
594.45	50353.41
594.65	50662.65
594.85	50265.34
595.05	50822.39
595.24	50599.16
595.44	50504.96
595.64	50623.74
595.84	50730.23
596.04	51287.28
596.23	51260.66
596.43	51242.23
596.63	50871.54
596.83	51313.90
597.03	51690.73
597.22	51832.04
597.42	51565.81
597.62	51895.53
597.82	51393.78
598.02	51344.62
598.21	51631.34
598.41	51512.56
598.61	51881.19
598.81	51985.64
599.01	51682.54
599.20	52153.57
599.40	52012.26
599.60	52155.62
599.80	52552.93
600.00	51946.73
600.19	52114.66
600.39	52034.79
600.59	52782.30
600.79	52475.10
600.98	52419.81
601.18	52597.98
601.38	52344.03
601.58	52626.65
601.78	52753.63
601.97	52688.09
602.17	53122.26
602.37	52679.90
602.57	52987.10
602.76	53181.65
602.96	52911.32
603.16	53118.17
603.36	53028.05
603.55	53458.13
603.75	53288.15
603.95	53083.35
604.15	53314.77
604.34	53208.28
604.54	53613.77
604.74	53527.76
604.94	53607.63
605.13	53767.37
605.33	53460.18
605.53	53781.71
605.73	54031.56
605.92	53523.66
606.12	53933.26
606.32	54164.68
606.52	53609.68
606.71	54015.18
606.91	54150.34
607.11	54189.25
607.30	54279.36
607.50	54359.23
607.70	54430.91
607.90	54371.52
608.09	54113.48
608.29	54203.59
608.49	54627.52
608.68	54170.82
608.88	54443.20
609.08	54408.39
609.28	55073.98
609.47	54713.53
609.67	54854.84
609.87	55006.39
610.06	55352.50
610.26	54637.76
610.46	55053.50
610.66	54523.07
610.85	54566.08
611.05	55018.68
611.25	54760.64
611.44	54441.15
611.64	54797.50
611.84	54525.12
612.03	54744.25
612.23	54838.46
612.43	54781.12
612.62	54877.37
612.82	55153.85
613.02	54621.37
613.21	55147.70
613.41	54621.37
613.61	55057.59
613.80	54725.82
614.00	54863.03
614.20	55137.46
614.39	55372.98
614.59	55309.49
614.79	54768.83
614.98	55127.22
615.18	55227.57
615.38	55016.63
615.57	55067.83
615.77	55344.31
615.97	54926.52
616.16	55260.34
616.36	55098.55
616.56	55430.32
616.75	55362.74
616.95	54691.01
617.15	55035.06
617.34	55123.13
617.54	54727.87
617.74	55758.00
617.93	55555.25
618.13	55119.03
618.32	55274.68
618.52	54754.49
618.72	55065.78
618.91	55241.91
619.11	54918.33
619.31	54844.60
619.50	54439.11
619.70	54482.11
619.90	55035.06
620.09	54897.85
620.29	55176.37
620.48	55082.17
620.68	54983.86
620.88	54598.85
621.07	55354.55
621.27	55135.41
621.46	54265.03
621.66	54783.16
621.86	54680.77
622.05	54789.31
622.25	55141.56
622.44	54680.77
622.64	54531.26
622.84	54486.21
623.03	55080.12
623.23	54721.72
623.42	54723.77
623.62	55055.54
623.82	55385.27
624.01	54932.67
624.21	54899.90
624.40	54660.29
624.60	54820.03
624.80	54607.04
624.99	54981.82
625.19	54328.52
625.38	54799.55
625.58	55157.94
625.77	54473.92
625.97	54908.09
626.17	54633.66
626.36	54607.04
626.56	54871.23
626.75	54523.07
626.95	55143.61
627.14	54637.76
627.34	55405.75
627.54	54609.09
627.73	54783.16
627.93	54817.98
628.12	54490.30
628.32	55008.44
628.51	54588.61
628.71	54920.38
628.90	54932.67
629.10	54703.29
629.30	54441.15
629.49	54592.70
629.69	54801.60
629.88	54897.85
630.08	54828.22
630.27	55262.39
630.47	54734.01
630.66	54662.33
630.86	55067.83
631.05	54488.26
631.25	54930.62
631.44	54707.39
631.64	54623.42
631.84	54797.50
632.03	55221.43
632.23	54920.38
632.42	54875.32
632.62	54951.10
632.81	55071.93
633.01	54834.36
633.20	55313.59
633.40	55172.28
633.59	54721.72
633.79	54340.80
633.98	55047.35
634.18	54906.04
634.37	55006.39
634.57	54871.23
634.76	55297.20
634.96	54981.82
635.15	55448.75
635.35	54543.55
635.54	55059.64
635.74	55411.89
635.93	54500.54
636.13	55282.87
636.32	55073.98
636.52	54543.55
636.71	54998.20
636.91	55248.05
637.10	55065.78
637.30	55137.46
637.49	54768.83
637.69	54772.92
637.88	55665.84
638.08	54697.15
638.27	55157.94
638.46	55270.58
638.66	55350.45
638.85	55514.29
639.05	55424.18
639.24	55608.50
639.44	55076.02
639.63	55518.38
639.83	55411.89
640.02	55534.77
640.22	55491.76
640.41	55516.34
640.61	55297.20
640.80	55499.95
640.99	55407.79
641.19	56087.72
641.38	55581.87
641.58	55495.86
641.77	55137.46
641.97	55491.76
642.16	55549.10
642.36	55301.30
642.55	56214.69
642.74	55348.40
642.94	56386.72
643.13	55889.07
643.33	55854.25
643.52	55856.30
643.72	55993.51
643.91	56102.06
644.10	56231.08
644.30	55919.79
644.49	55764.14
644.69	55932.07
644.88	55905.45
645.08	55870.64
645.27	55575.73
645.46	55801.00
645.66	56300.71
645.85	56151.21
646.05	56317.09
646.24	56265.89
646.43	56204.45
646.63	56380.58
646.82	56374.44
647.02	56218.79
647.21	56519.84
647.40	56108.20
647.60	56702.11
647.79	56773.79
647.99	56274.09
648.18	56104.10
648.37	57377.94
648.57	56857.76
648.76	56296.61
648.96	56390.82
649.15	57013.40
649.34	57115.80
649.54	56226.98
649.73	56388.77
649.92	56456.35
650.12	57042.07
650.31	56956.06
650.51	56941.72
650.70	56956.06
650.89	56792.22
651.09	57511.06
651.28	56845.47
651.47	57197.72
651.67	57029.79
651.86	57384.08
652.06	56765.60
652.25	57130.14
652.44	56556.70
652.64	56738.97
652.83	56988.83
653.02	56507.55
653.22	56710.30
653.41	56650.91
653.60	56515.75
653.80	56738.97
653.99	57046.17
654.18	57029.79
654.38	56915.10
654.57	57076.89
654.76	56796.32
654.96	56532.13
655.15	57179.29
655.34	57189.53
655.54	56571.04
655.73	57048.22
655.92	57504.91
656.12	57046.17
656.31	57142.42
656.50	57439.38
656.70	57181.34
656.89	57285.78
657.08	57042.07
657.28	57406.61
657.47	57418.90
657.66	57091.22
657.86	57195.67
658.05	57048.22
658.24	57136.28
658.43	57216.15
658.63	57308.31
658.82	57324.69
659.01	57529.49
659.21	57425.04
659.40	57638.03
659.59	57515.15
659.79	57377.94
659.98	57529.49
660.17	57169.05
660.36	57300.12
660.56	57650.32
660.75	57363.60
660.94	57361.56
661.14	57392.28
661.33	57164.95
661.52	56878.24
661.71	57570.45
661.91	57291.93
662.10	57066.65
662.29	57562.26
662.49	57275.54
662.68	57271.45
662.87	57691.28
663.06	57420.95
663.26	57207.96
663.45	57695.38
663.64	57300.12
663.83	57316.50
664.03	57924.75
664.22	57390.23
664.41	57570.45
664.60	57132.18
664.80	57408.66
664.99	57070.75
665.18	57218.20
665.37	57306.26
665.57	57476.24
665.76	56779.93
665.95	56816.80
666.14	57447.57
666.34	57080.98
666.53	57480.34
666.72	57044.12
666.91	57197.72
667.11	57320.60
667.30	57365.65
667.49	57654.42
667.68	57263.25
667.87	56861.85
668.07	57146.52
668.26	57412.76
668.45	57263.25
668.64	56822.94
668.84	57801.87
669.03	57687.18
669.22	56837.28
669.41	57326.74
669.60	57461.91
669.80	56702.11
669.99	57156.76
670.18	56880.28
670.37	57353.36
670.57	57402.52
670.76	57123.99
670.95	57134.23
671.14	56947.87
671.33	56685.73
671.53	57070.75
671.72	57044.12
671.91	57111.70
672.10	56857.76
672.29	56818.84
672.48	56741.02
672.68	57203.86
672.87	56403.11
673.06	56556.70
673.25	56505.51
673.44	56513.70
673.64	56493.22
673.83	56673.44
674.02	56548.51
674.21	56292.52
674.40	56982.68
674.59	56792.22
674.79	57312.41
674.98	56542.37
675.17	57046.17
675.36	56833.18
675.55	56446.11
675.74	56269.99
675.94	56824.99
676.13	56751.26
676.32	56601.76
676.51	57031.83
676.70	56874.14
676.89	56710.30
677.08	56718.49
677.28	56661.15
677.47	56925.34
677.66	56886.43
677.85	56530.08
678.04	56702.11
678.23	56898.72
678.42	56880.28
678.62	56640.67
678.81	57007.26
679.00	56460.45
679.19	56497.31
679.38	56759.45
679.57	56464.55
679.76	56204.45
679.96	56591.52
680.15	56442.02
680.34	56407.20
680.53	56431.78
680.72	56827.04
680.91	56827.04
681.10	56132.78
681.29	56540.32
681.48	55942.31
681.68	56233.13
681.87	56599.71
682.06	56222.89
682.25	55633.07
682.44	55844.01
682.63	56411.30
682.82	56114.34
683.01	56278.18
683.20	55801.00
683.39	56212.65
683.59	55954.60
683.78	55878.83
683.97	55878.83
684.16	56243.37
684.35	55975.08
684.54	55682.22
684.73	56147.11
684.92	55477.43
685.11	56067.24
685.30	55506.10
685.49	55956.65
685.69	55702.70
685.88	55899.31
686.07	55841.96
686.26	55428.27
686.45	56114.34
686.64	55710.89
686.83	55694.51
687.02	55749.81
687.21	55708.85
687.40	55194.81
687.59	55770.28
687.78	55905.45
687.97	55743.66
688.16	55846.06
688.35	55159.99
688.54	55448.75
688.74	55758.00
688.93	55801.00
689.12	55446.71
689.31	55940.27
689.50	55801.00
689.69	55026.87
689.88	54805.69
690.07	55418.03
690.26	55549.10
690.45	55571.63
690.64	55073.98
690.83	55231.67
691.02	54961.34
691.21	55456.95
691.40	54842.56
691.59	55483.57
691.78	55346.36
691.97	55334.07
692.16	54686.91
692.35	55502.00
692.54	55518.38
692.73	55303.35
692.92	55301.30
693.11	54785.21
693.30	54746.30
693.49	55553.20
693.68	54781.12
693.87	55213.24
694.06	55010.49
694.25	54916.28
694.44	54926.52
694.63	55168.18
694.82	55059.64
695.01	54740.16
695.20	54719.68
695.39	54693.05
695.58	54748.35
695.77	54731.96
695.96	55065.78
696.15	54856.89
696.34	54457.54
696.53	54703.29
696.72	54719.68
696.91	54619.33
697.10	54650.05
697.29	54410.43
697.48	54721.72
697.67	54711.49
697.86	54637.76
698.05	54095.05
698.24	54809.79
698.43	54283.46
698.62	54351.04
698.81	54086.85
699.00	54553.79
699.19	53992.65
699.38	54398.15
699.57	54179.01
699.76	54664.38
699.95	54467.78
700.14	53990.60
700.32	54156.49
700.51	54222.02
700.70	54801.60
700.89	54265.03
701.08	54912.19
701.27	54361.28
701.46	54584.51
701.65	54090.95
701.84	54154.44
702.03	54133.96
702.22	54033.61
702.41	53908.68
702.60	53945.54
702.79	54203.59
702.98	54179.01
703.17	53949.64
703.35	53935.30
703.54	53748.94
703.73	53794.00
703.92	53843.15
704.11	54162.63
704.30	53877.96
704.49	53619.92
704.68	53619.92
704.87	53636.30
705.06	53920.97
705.25	53886.15
705.43	54056.14
705.62	54148.29
705.81	53740.75
706.00	53787.85
706.19	53511.38
706.38	53292.24
706.57	53564.62
706.76	53984.46
706.95	54064.33
707.14	53404.88
707.32	53544.14
707.51	53591.25
707.70	53204.18
707.89	53646.54
708.08	53466.32
708.27	53214.42
708.46	53845.19
708.65	53408.98
708.84	53744.84
709.02	53456.08
709.21	53617.87
709.40	53210.32
709.59	53310.67
709.78	53175.51
709.97	53286.10
710.16	52944.09
710.34	53150.93
710.53	53126.36
710.72	52925.66
710.91	53179.60
711.10	53398.74
711.29	52954.33
711.48	53105.88
711.66	52993.24
711.85	52589.79
712.04	52835.55
712.23	52544.73
712.42	53142.74
712.61	52690.14
712.80	52448.48
712.98	52931.80
713.17	52200.68
713.36	52450.53
713.55	52384.99
713.74	52761.82
713.93	52847.83
714.11	52622.56
714.30	52387.04
714.49	52444.38
714.68	52743.39
714.87	52698.33
715.06	52307.17
715.24	52206.82
715.43	52456.67
715.62	52079.85
715.81	52296.93
716.00	52411.62
716.18	51649.77
716.37	51729.64
716.56	51848.42
716.75	52327.65
716.94	51920.10
717.12	51764.46
717.31	51854.57
717.50	51365.10
717.69	51823.85
717.88	51563.76
718.06	51844.33
718.25	51737.83
718.44	51959.02
718.63	51746.03
718.82	51430.64
719.00	51381.49
719.19	51430.64
719.38	51557.61
719.57	51201.27
719.76	50885.88
719.94	51059.96
720.13	50855.16
720.32	51107.06
720.51	51074.29
720.69	50617.60
720.88	51064.05
721.07	51115.25
721.26	50486.53
721.44	50621.69
721.63	50541.82
721.82	50502.91
722.01	50337.02
722.20	50799.86
722.38	50486.53
722.57	49980.68
722.76	50281.73
722.95	50248.96
723.13	50001.16
723.32	50169.09
723.51	49693.96
723.70	49769.74
723.88	49976.58
724.07	49542.41
724.26	49798.41
724.44	49511.69
724.63	49769.74
724.82	49706.25
725.01	49628.43
725.19	49175.83
725.38	49319.18
725.57	48940.31
725.76	49378.57
725.94	49184.02
726.13	49566.99
726.32	49014.04
726.51	49120.53
726.69	49583.37
726.88	49233.17
727.07	49370.38
727.25	49485.07
727.44	49149.20
727.63	48819.48
727.82	49132.82
728.00	48743.70
728.19	48868.63
728.38	49411.34
728.56	48346.40
728.75	49435.92
728.94	49272.08
729.12	48919.83
729.31	49298.70
729.50	49042.71
729.69	49290.51
729.87	49079.57
730.06	48864.53
730.25	48997.65
730.43	48864.53
730.62	48946.45
730.81	48991.51
730.99	48973.08
731.18	48788.76
731.37	48981.27
731.55	48782.62
731.74	49452.30
731.93	48919.83
732.11	49102.10
732.30	49263.89
732.49	48682.27
732.67	48903.45
732.86	48407.84
733.05	48379.17
733.23	48430.36
733.42	48524.57
733.61	48780.57
733.79	48663.83
733.98	48327.97
734.17	48530.72
734.35	48067.87
734.54	48061.73
734.73	48981.27
734.91	48258.34
735.10	47969.57
735.29	48319.77
735.47	47908.13
735.66	48583.96
735.84	48416.03
736.03	47955.24
736.22	48264.48
736.40	47867.17
736.59	48174.37
736.78	48219.42
736.96	48340.25
737.15	47996.20
737.33	47674.66
737.52	47912.23
737.71	48080.16
737.89	47752.49
738.08	47226.16
738.27	48045.35
738.45	47934.76
738.64	47969.57
738.82	47836.45
739.01	47740.20
739.20	47609.13
739.38	47611.18
739.57	47951.14
739.75	47609.13
739.94	47390.00
740.13	47449.39
740.31	47004.98
740.50	47217.97
740.68	47168.82
740.87	47215.92
741.06	47576.36
741.24	47013.17
741.43	47043.89
741.61	47299.89
741.80	46871.86
741.99	47064.37
742.17	46982.45
742.36	46961.97
742.54	47220.02
742.73	47256.88
742.91	47177.01
743.10	46869.81
743.29	47258.93
743.47	46961.97
743.66	46753.08
743.84	47054.13
744.03	46904.63
744.21	46654.78
744.40	46980.40
744.59	46695.74
744.77	46587.19
744.96	46748.98
745.14	46675.26
745.33	46189.89
745.51	46415.16
745.70	46544.19
745.88	46515.51
746.07	46411.07
746.26	46114.11
746.44	46468.41
746.63	46243.13
746.81	46224.70
747.00	45933.89
747.18	46306.62
747.37	45911.36
747.55	45641.03
747.74	46478.65
747.92	45864.26
748.11	45681.99
748.29	46261.57
748.48	46110.02
748.66	46036.29
748.85	45925.70
749.03	46122.30
749.22	46042.43
749.41	45657.42
749.59	45800.77
749.78	45778.25
749.96	45892.93
750.15	45987.14
750.33	45823.30
750.52	45708.61
750.70	45630.79
750.89	45174.09
751.07	45675.85
751.26	45622.60
751.44	45438.28
751.63	45667.66
751.81	45165.90
752.00	45278.54
752.18	45368.65
752.37	45126.99
752.55	44698.97
752.74	45206.86
752.92	44762.45
753.10	44942.67
753.29	45370.70
753.47	45108.56
753.66	44807.51
753.84	45110.61
754.03	44981.59
754.21	44793.17
754.40	45145.42
754.58	45047.12
754.77	44965.20
754.95	44531.03
755.14	44864.85
755.32	44879.19
755.51	44359.00
755.69	44723.54
755.88	44834.13
756.06	44410.20
756.24	44776.79
756.43	44209.50
756.61	44688.73
756.80	44430.68
756.98	44354.91
757.17	44260.70
757.35	45004.11
757.54	44234.08
757.72	44522.84
757.90	44363.10
758.09	44281.18
758.27	44043.62
758.46	43982.18
758.64	44035.42
758.83	44346.72
759.01	43980.13
759.19	43949.41
759.38	44076.38
759.56	44473.69
759.75	43994.46
759.93	43785.57
760.12	43797.86
760.30	43824.48
760.48	43885.92
760.67	43617.64
760.85	44115.29
761.04	44193.12
761.22	43990.37
761.40	43947.36
761.59	43820.39
761.77	43242.86
761.96	43664.74
762.14	43472.23
762.32	43654.50
762.51	43378.03
762.69	43611.49
762.88	43605.35
763.06	43836.77
763.24	43611.49
763.43	43439.47
763.61	43185.52
763.80	43224.43
763.98	43351.40
764.16	43177.33
764.35	43070.83
764.53	42945.90
764.72	42937.71
764.90	42972.53
765.08	42990.96
765.27	43365.74
765.45	42558.84
765.63	42673.52
765.82	42919.28
766.00	42620.28
766.18	42835.31
766.37	43083.12
766.55	42708.34
766.74	42540.41
766.92	42425.72
767.10	42239.36
767.29	42403.19
767.47	42048.89
767.65	42499.45
767.84	42489.21
768.02	42354.04
768.20	42134.91
768.39	42339.71
768.57	42167.68
768.75	41975.17
768.94	42489.21
769.12	42413.43
769.30	41817.47
769.49	42151.29
769.67	41979.26
769.85	42063.23
770.04	41708.93
770.22	41774.47
770.40	41465.22
770.59	41285.00
770.77	41944.45
770.95	41393.54
771.14	41377.16
771.32	41563.53
771.50	41043.34
771.69	41469.32
771.87	41704.84
772.05	41407.88
772.24	41454.98
772.42	41282.95
772.60	41287.05
772.78	41368.97
772.97	41153.93
773.15	41346.44
773.33	41418.12
773.52	41262.47
773.70	41411.98
773.88	41522.57
774.07	41239.95
774.25	41514.37
774.43	41549.19
774.61	41178.51
774.80	41633.16
774.98	40979.85
775.16	41448.84
775.34	41334.15
775.53	41244.04
775.71	41538.95
775.89	41403.78
776.08	41452.94
776.26	41416.07
776.44	41246.09
776.62	41547.14
776.81	41010.57
776.99	41213.32
777.17	41278.86
777.35	41285.00
777.54	42251.64
777.72	41270.67
777.90	41117.07
778.08	41796.99
778.27	41383.30
778.45	41745.80
778.63	41977.22
778.81	41489.80
779.00	42362.23
779.18	41760.13
779.36	42030.46
779.54	41921.92
779.73	41842.05
779.91	42077.57
780.09	42161.53
780.27	42116.48
780.46	41983.36
780.64	41969.02
780.82	41713.03
781.00	42151.29
781.19	42288.51
781.37	42227.07
781.55	42556.79
781.73	42380.67
781.91	42417.53
782.10	42284.41
782.28	42382.71
782.46	42024.32
782.64	42458.49
782.82	42075.52
783.01	42265.98
783.19	42714.48
783.37	42655.09
783.55	42648.95
783.74	42614.13
783.92	42081.66
784.10	42739.06
784.28	42788.21
784.46	41997.70
784.64	42409.34
784.83	42343.80
785.01	42708.34
785.19	41868.67
785.37	42569.08
785.55	42622.33
785.74	42239.36
785.92	41932.16
786.10	42220.92
786.28	42263.93
786.46	42198.40
786.64	41997.70
786.83	41891.20
787.01	41979.26
787.19	42102.14
787.37	42143.10
787.55	41942.40
787.74	41962.88
787.92	41481.61
788.10	41471.37
788.28	41373.06
788.46	41710.98
788.64	41493.89
788.82	42083.71
789.01	41227.66
789.19	41713.03
789.37	41344.39
789.55	41158.03
789.73	41231.75
789.91	41155.98
790.09	41198.99
790.28	41008.53
790.46	41016.72
790.64	41442.70
790.82	41190.80
791.00	41018.77
791.18	40801.68
791.36	40719.76
791.55	41151.88
791.73	40742.29
791.91	40355.22
792.09	40488.34
792.27	40396.18
792.45	40418.71
792.63	40627.60
792.81	40508.82
793.00	40584.60
793.18	40555.93
793.36	40052.12
793.54	39681.44
793.72	39687.59
793.90	40060.32
794.08	39695.78
794.26	40107.42
794.44	39611.81
794.62	39443.88
794.81	39478.69
794.99	39628.20
795.17	39460.26
795.35	39282.09
795.53	39167.40
795.71	39472.55
795.89	38802.86
796.07	38686.13
796.25	38417.85
796.43	38679.99
796.61	38639.03
796.80	38471.09
796.98	38739.38
797.16	38294.97
797.34	38114.75
797.52	38282.68
797.70	38391.22
797.88	38000.06
798.06	37717.44
798.24	37909.95
798.42	38036.92
798.60	37656.00
798.78	37488.07
798.96	37719.49
799.14	37047.75
799.32	37535.17
799.51	36810.19
799.69	37418.44
799.87	37492.16
800.05	36904.40
800.23	36926.92
800.41	36662.74
800.59	36664.78
800.77	36247.00
800.95	36382.16
801.13	36625.87
801.31	36513.23
801.49	36103.64
801.67	36310.49
801.85	36480.47
802.03	35939.80
802.21	35991.00
802.39	35616.22
802.57	35708.38
802.75	35550.69
802.93	35409.38
803.11	35448.29
803.29	35515.87
803.47	35274.21
803.65	35296.74
803.83	35233.25
804.01	35198.44
804.19	34928.11
804.37	34848.24
804.55	35026.41
804.73	34891.24
804.91	34856.43
805.09	34895.34
805.27	34792.94
805.45	34807.28
805.63	34725.36
805.81	34371.06
805.99	34315.76
806.17	34442.74
806.35	34364.92
806.53	34424.31
806.71	33904.12
806.89	33973.75
807.07	34084.34
807.25	34151.93
807.43	33863.16
807.61	33965.56
807.79	33588.74
807.97	33601.02
808.15	33598.98
808.33	33410.56
808.51	33330.69
808.69	33482.24
808.87	33244.68
809.05	33054.22
809.23	32888.33
809.41	32757.26
809.59	32992.78
809.77	32910.86
809.95	32642.57
810.13	32570.90
810.31	32519.70
810.49	32466.45
810.67	32673.29
810.84	32624.14
811.02	32192.02
811.20	32017.94
811.38	32353.81
811.56	32110.10
811.74	32269.84
811.92	31786.52
812.10	32327.19
812.28	32599.57
812.46	31782.43
812.64	31852.06
812.82	31452.70
813.00	31673.88
813.18	31925.78
813.36	31817.24
813.53	31292.96
813.71	31565.34
813.89	31534.62
814.07	31551.01
814.25	31159.84
814.43	30991.91
814.61	31020.58
814.79	30869.03
814.97	30768.68
815.15	30901.80
815.33	30688.81
815.50	30858.79
815.68	30500.40
815.86	31061.54
816.04	30586.41
816.22	30572.08
816.40	30561.84
816.58	30778.92
816.76	30207.54
816.94	30438.96
817.11	30457.39
817.29	30389.81
817.47	30336.56
817.65	30133.81
817.83	30135.86
818.01	29754.94
818.19	30027.32
818.37	29582.91
818.54	29865.53
818.72	29783.61
818.90	29730.36
819.08	29767.23
819.26	29916.73
819.44	29550.14
819.62	29662.78
819.80	29838.90
819.97	29488.70
820.15	29509.18
820.33	29263.43
820.51	29595.20
820.69	29062.72
820.87	29156.93
821.05	29318.72
821.22	29113.92
821.40	29333.06
821.58	28997.19
821.76	28880.46
821.94	28546.64
822.12	28948.04
822.29	29310.53
822.47	28812.87
822.65	29105.73
822.83	28554.83
823.01	28653.13
823.19	28685.90
823.36	28423.76
823.54	28517.96
823.72	28214.87
823.90	28493.39
824.08	28120.66
824.25	28239.44
824.43	28071.51
824.61	28071.51
824.79	28155.47
824.97	28094.04
825.15	27995.73
825.32	27831.90
825.50	27983.44
825.68	28075.60
825.86	28274.26
826.04	28059.22
826.21	28044.88
826.39	27786.84
826.57	27379.29
826.75	27471.45
826.93	27889.24
827.10	27608.67
827.28	27534.94
827.46	27631.19
827.64	27399.77
827.81	27608.67
827.99	27526.75
828.17	27248.22
828.35	27369.05
828.53	27211.36
828.70	27324.00
828.88	27174.50
829.06	27375.20
829.24	27313.76
829.41	27145.83
829.59	27389.53
829.77	26820.20
829.95	26994.28
830.12	26594.92
830.30	26662.51
830.48	27047.52
830.66	26949.22
830.84	27096.67
831.01	26979.94
831.19	26971.75
831.37	26701.42
831.55	26805.86
831.72	26537.58
831.90	26572.39
832.08	26746.47
832.25	26793.58
832.43	26619.50
832.61	26535.53
832.79	26347.12
832.96	26404.46
833.14	26490.48
833.32	26531.44
833.50	26549.87
833.67	26181.23
833.85	26230.38
834.03	25878.13
834.20	26244.72
834.38	26390.13
834.56	26390.13
834.74	25773.69
834.91	25867.89
835.09	26068.59
835.27	25861.75
835.44	26031.73
835.62	25661.05
835.80	25644.66
835.98	25855.61
836.15	25869.94
836.33	25642.62
836.51	26003.06
836.68	25740.92
836.86	25341.57
837.04	25644.66
837.21	25665.14
837.39	25781.88
837.57	26003.06
837.75	25749.11
837.92	25390.72
838.10	25306.75
838.28	25071.23
838.45	25079.43
838.63	25187.97
838.81	25560.70
838.98	25243.26
839.16	24798.85
839.34	25071.23
839.51	25095.81
839.69	24893.06
839.87	25194.11
840.04	24825.48
840.22	25319.04
840.40	24997.51
840.57	24743.56
840.75	24997.51
840.93	24694.41
841.10	25269.89
841.28	25065.09
841.46	24852.10
841.63	24841.86
841.81	24938.12
841.98	24895.11
842.16	24950.40
842.34	24587.91
842.51	24723.08
842.69	24991.36
842.87	24815.24
843.04	24776.33
843.22	24481.42
843.40	24616.58
843.57	24737.41
843.75	24927.88
843.92	24737.41
844.10	24563.34
844.28	24284.81
844.45	24417.93
844.63	24098.45
844.81	24100.50
844.98	24530.57
845.16	24270.48
845.33	24092.30
845.51	24450.70
845.69	24403.60
845.86	23973.52
846.04	24034.96
846.21	23979.67
846.39	24237.71
846.57	24051.34
846.74	24159.89
846.92	24051.34
847.09	23975.57
847.27	23783.06
847.45	24028.82
847.62	23924.37
847.80	23926.42
847.97	23961.23
848.15	24080.02
848.32	23654.04
848.50	23748.25
848.68	23598.74
848.85	23713.43
849.03	23299.74
849.20	23977.62
849.38	23572.12
849.56	23547.54
849.73	23584.41
849.91	23293.60
850.08	23443.10
850.26	23027.36
850.43	23672.47
850.61	23473.82
850.78	23316.12
850.96	23301.79
851.14	23125.66
851.31	23662.23
851.49	23062.18
851.66	23258.78
851.84	23228.06
852.01	23303.84
852.19	23156.38
852.36	23086.75
852.54	23086.75
852.71	22859.43
852.89	22920.87
853.07	22894.24
853.24	22718.12
853.42	22828.71
853.59	23051.94
853.77	23133.86
853.94	22933.15
854.12	23129.76
854.29	22691.49
854.47	22933.15
854.64	22754.98
854.82	22994.59
854.99	22685.35
855.17	22646.44
855.34	22720.17
855.52	22615.72
855.69	22873.76
855.87	22537.90
856.04	22443.69
856.22	22701.73
856.39	22576.81
856.57	22593.19
856.74	22511.27
856.92	22628.01
857.09	22290.09
857.27	22408.87
857.44	22664.87
857.62	22462.12
857.79	22345.39
857.97	22392.49
858.14	22441.64
858.32	22355.63
858.49	22453.93
858.67	22460.07
858.84	22023.86
859.02	21767.86
859.19	21862.07
859.37	22144.69
859.54	22064.82
859.72	22007.47
859.89	22275.76
860.06	22068.91
860.24	21759.67
860.41	22113.97
860.59	21655.22
860.76	21976.75
860.94	21520.06
861.11	22034.10
861.29	21821.11
861.46	21726.90
861.64	21542.58
861.81	21638.84
861.98	21767.86
862.16	21837.49
862.33	21444.28
862.51	21542.58
862.68	21475.00
862.86	21708.47
863.03	21620.41
863.21	21370.55
863.38	21350.07
863.55	21380.79
863.73	21644.98
863.90	21446.33
864.08	21350.07
864.25	20999.87
864.43	21245.63
864.60	21163.71
864.77	20942.53
864.95	21053.12
865.12	21063.36
865.30	21182.14
865.47	21022.40
865.64	21196.48
865.82	21401.27
865.99	21280.44
866.17	21008.06
866.34	20965.06
866.51	20625.09
866.69	20977.34
866.86	20666.05
867.04	20899.52
867.21	20645.57
867.38	20666.05
867.56	20608.71
867.73	20655.81
867.91	20702.92
868.08	20442.82
868.25	20436.68
868.43	20672.20
868.60	20502.22
868.78	20467.40
868.95	20686.53
869.12	20551.37
869.30	20438.73
869.47	20727.49
869.64	20098.77
869.82	20352.71
869.99	20174.54
870.16	20467.40
870.34	20262.60
870.51	20451.02
870.69	19943.12
870.86	20240.08
871.03	20188.88
871.21	19896.02
871.38	20119.24
871.55	20072.14
871.73	19959.50
871.90	19865.30
872.07	19588.82
872.25	19830.48
872.42	19785.43
872.59	19728.08
872.77	19556.05
872.94	19570.39
873.11	19775.19
873.29	19619.54
873.46	19443.42
873.63	19652.31
873.81	19541.72
873.98	19519.19
874.15	19453.66
874.33	19095.26
874.50	19085.02
874.67	19373.78
874.85	19197.66
875.02	18923.23
875.19	19023.58
875.37	19250.91
875.54	18970.33
875.71	19244.76
875.88	19017.44
876.06	18917.09
876.23	18935.52
876.40	18892.51
876.58	18702.05
876.75	18628.32
876.92	18648.80
877.10	18730.72
877.27	18493.16
877.44	18622.18
877.61	18556.64
877.79	18601.70
877.96	18335.46
878.13	18624.23
878.31	18331.37
878.48	18452.20
878.65	18413.29
878.82	18317.03
879.00	18351.85
879.17	18357.99
879.34	18140.91
879.51	18110.19
879.69	18009.84
879.86	18022.12
880.03	18134.76
880.21	18003.69
880.38	17946.35
880.55	18097.90
880.72	17860.34
880.90	17927.92
881.07	17792.75
881.24	18028.27
881.41	17929.97
881.59	17616.63
881.76	17628.92
881.93	17725.17
882.10	17579.76
882.28	17561.33
882.45	17700.59
882.62	17676.02
882.79	17661.68
882.96	17514.23
883.14	17551.09
883.31	17350.39
883.48	17446.65
883.65	17755.89
883.83	17645.30
884.00	17669.87
884.17	17612.53
884.34	17563.38
884.51	17483.51
884.69	17432.31
884.86	17207.03
885.03	17282.81
885.20	17184.51
885.38	17190.65
885.55	17362.68
885.72	17340.15
885.89	17223.42
886.06	17329.91
886.24	17116.92
886.41	17131.26
886.58	17295.10
886.75	17694.45
886.92	16770.82
887.10	17028.86
887.27	16756.48
887.44	16996.09
887.61	17043.20
887.78	16756.48
887.95	16865.02
888.13	16701.19
888.30	16615.17
888.47	16609.03
888.64	16885.50
888.81	16779.01
888.99	16543.49
889.16	16357.13
889.33	16344.84
889.50	16371.46
889.67	16523.01
889.84	16424.71
890.01	16445.19
890.19	16404.23
890.36	16475.91
890.53	16396.04
890.70	16330.50
890.87	16353.03
891.04	16174.86
891.22	16144.14
891.39	15914.77
891.56	16041.74
891.73	15855.37
891.90	16043.79
892.07	15996.68
892.24	15982.35
892.42	15910.67
892.59	15832.85
892.76	15886.09
892.93	16004.88
893.10	15894.29
893.27	16088.84
893.44	15703.82
893.61	16045.84
893.79	15806.22
893.96	15755.02
894.13	15822.61
894.30	15728.40
894.47	15818.51
894.64	15634.19
894.81	15630.10
894.98	15781.65
895.15	15812.37
895.33	15787.79
895.50	15509.27
895.67	15556.37
895.84	15619.86
896.01	15537.94
896.18	15599.38
896.35	15720.21
896.52	15406.87
896.69	15527.70
896.86	15492.88
897.04	15501.08
897.21	15544.08
897.38	15789.84
897.55	15380.25
897.72	15429.40
897.89	15585.04
898.06	15732.50
898.23	15345.43
898.40	15726.35
898.57	15431.44
898.74	15482.64
898.91	15478.55
899.08	15517.46
899.26	15476.50
899.43	15632.15
899.60	15255.32
899.77	15376.15
899.94	15378.20
900.11	15111.96
900.28	15320.85
900.45	15443.73
900.62	15167.26
900.79	15349.53
900.96	15396.63
901.13	15453.97
901.30	15187.74
901.47	15204.12
901.64	15423.25
901.81	15345.43
901.98	15030.04
902.15	15470.36
902.32	15079.19
902.49	15124.25
902.66	15230.74
902.83	15462.16
903.01	15308.57
903.18	15052.57
903.35	15286.04
903.52	15140.63
903.69	15277.85
903.86	15396.63
904.03	15255.32
904.20	15269.66
904.37	15294.23
904.54	15210.26
904.71	15243.03
904.88	15445.78
905.05	15071.00
905.22	15097.63
905.39	15255.32
905.56	15116.06
905.73	15208.22
905.90	15159.06
906.07	15257.37
906.24	14999.32
906.41	15142.68
906.58	15296.28
906.75	14888.73
906.92	15157.02
907.09	15021.85
907.26	15392.53
907.43	14970.65
907.60	15116.06
907.77	15353.62
907.93	15083.29
908.10	15046.43
908.27	14972.70
908.44	14929.69
908.61	15023.90
908.78	15052.57
908.95	15132.44
909.12	14837.53
909.29	14763.81
909.46	15021.85
909.63	14917.40
909.80	15136.54
909.97	15095.58
910.14	15032.09
910.31	15277.85
910.48	14925.60
910.65	14798.62
910.82	14739.23
910.99	14724.90
911.16	14892.83
911.33	14728.99
911.50	14661.41
911.66	14491.43
911.83	14726.94
912.00	14860.06
912.17	14503.71
912.34	14544.67
912.51	14651.17
912.68	14552.87
912.85	14688.03
913.02	14653.22
913.19	14458.66
913.36	14266.15
913.53	14556.96
913.70	14501.67
913.86	14827.29
914.03	14501.67
914.20	14313.25
914.37	14395.17
914.54	14399.27
914.71	14411.56
914.88	14276.39
915.05	14118.70
915.22	13885.23
915.39	14268.20
915.55	14071.59
915.72	14081.83
915.89	13942.57
916.06	13963.05
916.23	13934.38
916.40	13772.59
916.57	14102.31
916.74	13913.90
916.91	13768.49
917.07	13651.76
917.24	13735.73
917.41	13754.16
917.58	13770.54
917.75	13668.14
917.92	13424.44
918.09	13614.90
918.26	13553.46
918.42	13602.61
918.59	13483.83
918.76	13639.47
918.93	13434.68
919.10	13340.47
919.27	13319.99
919.44	13424.44
919.60	13557.55
919.77	13166.39
919.94	13215.54
920.11	12998.46
920.28	13086.52
920.45	12894.01
920.61	12951.35
920.78	12957.50
920.95	12783.42
921.12	12973.88
921.29	12566.34
921.46	12654.40
921.62	12635.97
921.79	12693.31
921.96	12613.44
922.13	12511.04
922.30	12750.65
922.47	12517.18
922.63	12459.84
922.80	12455.75
922.97	12355.40
923.14	12056.39
923.31	12447.55
923.47	12283.72
923.64	12543.81
923.81	12296.00
923.98	12056.39
924.15	12099.40
924.32	12191.56
924.48	12175.17
924.65	12302.15
924.82	12087.11
924.99	12080.97
925.15	11724.62
925.32	11915.08
925.49	11630.41
925.66	11726.67
925.83	11509.58
925.99	11624.27
926.16	11718.48
926.33	11716.43
926.50	11149.14
926.67	11609.93
926.83	11548.50
927.00	11231.06
927.17	11431.76
927.34	11345.75
927.50	11163.48
927.67	11474.77
927.84	11249.49
928.01	11229.01
928.17	11081.56
928.34	10985.30
928.51	10979.16
928.68	10856.28
928.84	11050.84
929.01	10860.38
929.18	10704.73
929.35	10671.97
929.51	10862.43
929.68	10579.81
929.85	10506.08
930.02	10526.56
930.18	10645.34
930.35	10428.26
930.52	10659.68
930.69	10424.16
930.85	10340.19
931.02	10153.83
931.19	10334.05
931.36	10399.59
931.52	10340.19
931.69	10170.21
931.86	10125.16
932.02	10133.35
932.19	9932.65
932.36	9856.87
932.53	9961.32
932.69	10084.20
932.86	10106.73
933.03	10094.44
933.19	9690.99
933.36	9619.31
933.53	9912.17
933.70	9535.34
933.86	9480.05
934.03	9600.88
934.20	9471.86
934.36	9471.86
934.53	9166.71
934.70	9226.10
934.86	9166.71
935.03	9129.84
935.20	9049.97
935.36	8974.20
935.53	9084.79
935.70	8861.56
935.86	8888.18
936.03	8722.30
936.20	8636.28
936.36	8769.40
936.53	8542.08
936.70	8490.88
936.86	8728.44
937.03	8474.49
937.20	8267.65
937.36	8390.53
937.53	7970.69
937.70	7997.32
937.86	7645.07
938.03	7923.59
938.20	7921.54
938.36	7645.07
938.53	7767.95
938.70	7483.28
938.86	7452.56
939.03	7440.27
939.20	7313.30
939.36	7294.86
939.53	7231.38
939.70	7370.64
939.86	6899.61
940.03	6936.47
940.19	6666.14
940.36	6670.23
940.53	6760.34
940.69	6520.73
940.86	6625.18
941.03	6477.73
941.19	6322.08
941.36	6512.54
941.52	6481.82
941.69	6193.06
941.86	6381.47
942.02	6303.65
942.19	6213.54
942.35	6035.36
942.52	6123.43
942.69	5949.35
942.85	6027.17
943.02	5883.81
943.18	5869.48
943.35	5857.19
943.52	5728.17
943.68	5717.93
943.85	5658.54
944.01	5566.38
944.18	5734.31
944.35	5797.80
944.51	5623.72
944.68	5451.69
944.84	5478.32
945.01	5414.83
945.17	5633.96
945.34	5478.32
945.51	5480.36
945.67	5406.64
945.84	5435.31
946.00	5220.27
946.17	5453.74
946.33	5404.59
946.50	5377.97
946.67	5285.81
946.83	5294.00
947.00	5386.16
947.16	5343.15
947.33	5328.81
947.49	5318.57
947.66	5109.68
947.82	5367.73
947.99	5267.38
948.16	5334.96
948.32	5203.89
948.49	5394.35
948.65	5306.29
948.82	5177.26
948.98	5216.18
949.15	5380.01
949.31	5339.05
949.48	5298.10
949.64	5259.18
949.81	5439.40
949.97	5334.96
950.14	5275.57
950.30	5187.50
950.47	5445.55
950.63	5332.91
950.80	5259.18
950.96	5414.83
951.13	5287.86
951.30	5408.69
951.46	5369.77
951.63	5349.29
951.79	5377.97
951.96	5316.53
952.12	5261.23
952.29	5394.35
952.45	5367.73
952.62	5431.21
952.78	5435.31
952.94	5429.17
953.11	5453.74
953.27	5365.68
953.44	5400.49
953.60	5449.64
953.77	5463.98
953.93	5468.08
954.10	5541.80
954.26	5466.03
954.43	5484.46
954.59	5597.10
954.76	5666.73
954.92	5463.98
955.09	5445.55
955.25	5347.25
955.42	5420.97
955.58	5570.48
955.75	5640.11
955.91	5414.83
956.07	5486.51
956.24	5513.13
956.40	5627.82
956.57	5568.43
956.73	5361.58
956.90	5670.83
957.06	5320.62
957.23	5392.30
957.39	5420.97
957.56	5443.50
957.72	5441.45
957.88	5625.77
958.05	5629.87
958.21	5545.90
958.38	5492.65
958.54	5443.50
958.71	5670.83
958.87	5566.38
959.03	5554.09
959.20	5468.08
959.36	5568.43
959.53	5578.67
959.69	5564.33
959.85	5406.64
960.02	5539.76
960.18	5597.10
960.35	5582.76
960.51	5547.95
960.68	5449.64
960.84	5523.37
961.00	5437.36
961.17	5550.00
961.33	5597.10
961.50	5521.32
961.66	5656.49
961.82	5509.04
961.99	5517.23
962.15	5449.64
962.31	5441.45
962.48	5441.45
962.64	5509.04
962.81	5328.81
962.97	5322.67
963.13	5539.76
963.30	5314.48
963.46	5459.88
963.62	5509.04
963.79	5578.67
963.95	5404.59
964.12	5402.54
964.28	5359.53
964.44	5486.51
964.61	5398.45
964.77	5427.12
964.93	5545.90
965.10	5285.81
965.26	5466.03
965.42	5375.92
965.59	5468.08
965.75	5337.01
965.92	5433.26
966.08	5353.39
966.24	5390.25
966.41	5289.90
966.57	5392.30
966.73	5314.48
966.90	5472.17
967.06	5259.18
967.22	5232.56
967.39	5285.81
967.55	5164.98
967.71	5294.00
967.88	5343.15
968.04	5224.37
968.20	5236.66
968.37	5185.46
968.53	5212.08
968.69	5273.52
968.85	5363.63
969.02	5369.77
969.18	5382.06
969.34	5181.36
969.51	5218.22
969.67	5250.99
969.83	5148.59
970.00	5224.37
970.16	5117.87
970.32	5216.18
970.48	5349.29
970.65	5156.79
970.81	5029.81
970.97	5255.09
971.14	4992.95
971.30	5289.90
971.46	5162.93
971.63	5081.01
971.79	5142.45
971.95	5173.17
972.11	5064.63
972.28	5038.00
972.44	5060.53
972.60	4870.07
972.76	5074.87
972.93	4913.08
973.09	5078.96
973.25	4988.85
973.42	4933.56
973.58	5011.38
973.74	5054.39
973.90	4941.75
974.07	4894.65
974.23	5101.49
974.39	4937.65
974.55	4890.55
974.72	4966.32
974.88	4802.49
975.04	4927.41
975.20	4896.69
975.37	4941.75
975.53	4792.25
975.69	4902.84
975.85	4831.16
976.01	4812.73
976.18	4927.41
976.34	4800.44
976.50	4911.03
976.66	4898.74
976.83	4714.42
976.99	4906.93
977.15	4681.66
977.31	4687.80
977.47	4755.38
977.64	4790.20
977.80	4646.84
977.96	4796.34
978.12	4730.81
978.29	4560.83
978.45	4597.69
978.61	4532.15
978.77	4716.47
978.93	4573.11
979.10	4583.35
979.26	4618.17
979.42	4691.90
979.58	4599.74
979.74	4661.18
979.91	4577.21
980.07	4440.00
980.23	4564.92
980.39	4476.86
980.55	4550.59
980.71	4620.22
980.88	4552.63
981.04	4421.56
981.20	4464.57
981.36	4558.78
981.52	4507.58
981.68	4454.33
981.85	4497.34
982.01	4462.52
982.17	4247.49
982.33	4421.56
982.49	4435.90
982.65	4321.21
982.82	4437.95
982.98	4243.39
983.14	4376.51
983.30	4376.51
983.46	4233.15
983.62	4274.11
983.79	4290.49
983.95	4280.25
984.11	4159.42
984.27	4360.13
984.43	4296.64
984.59	4296.64
984.75	4378.56
984.91	4159.42
985.08	4288.45
985.24	4104.13
985.40	4181.95
985.56	4190.14
985.72	4302.78
985.88	4091.84
986.04	4181.95
986.20	4083.65
986.37	4222.91
986.53	4059.07
986.69	4149.18
986.85	4042.69
987.01	4079.55
987.17	4153.28
987.33	4020.16
987.49	4038.59
987.65	4065.22
987.82	4069.31
987.98	4102.08
988.14	4044.74
988.30	4059.07
988.46	4034.50
988.62	3995.59
988.78	3944.39
988.94	4001.73
989.10	3917.76
989.26	3925.96
989.42	3893.19
989.59	3805.13
989.75	3907.52
989.91	3907.52
990.07	3715.02
990.23	3893.19
990.39	3735.50
990.55	3878.85
990.71	3856.33
990.87	3758.02
991.03	3846.09
991.19	3807.17
991.35	3737.54
991.51	3784.65
991.67	3944.39
991.83	3854.28
992.00	3760.07
992.16	3815.37
992.32	3821.51
992.48	3762.12
992.64	3704.78
992.80	3700.68
992.96	3653.58
993.12	3839.94
993.28	3749.83
993.44	3745.73
993.60	3737.54
993.76	3672.01
993.92	3672.01
994.08	3733.45
994.24	3737.54
994.40	3604.42
994.56	3723.21
994.72	3532.75
994.88	3571.66
995.04	3631.05
995.20	3530.70
995.36	3485.64
995.52	3547.08
995.68	3588.04
995.84	3575.75
996.00	3629.00
996.16	3577.80
996.32	3477.45
996.48	3592.14
996.64	3616.71
996.80	3497.93
996.96	3477.45
997.12	3510.22
997.28	3508.17
997.44	3356.62
997.60	3303.37
997.76	3370.96
997.92	3422.16
998.08	3479.50
998.24	3426.25
998.40	3506.12
998.56	3428.30
998.72	3297.23
998.88	3362.76
999.04	3360.72
999.20	3420.11
999.36	3293.13
999.52	3364.81
999.68	3311.57
999.84	3356.62
1000.00	3334.09
1000.16	3375.05
1000.32	3243.98
1000.48	3430.35
1000.64	3280.85
1000.80	3309.52
1000.95	3307.47
1001.11	3229.65
1001.27	3221.45
1001.43	3264.46
1001.59	3164.11
1001.75	3213.26
1001.91	3213.26
1002.07	3096.53
1002.23	3112.91
1002.39	3205.07
1002.55	3170.26
1002.71	3129.30
1002.87	3002.32
1003.03	3162.06
1003.19	3037.14
1003.34	3198.93
1003.50	3059.67
1003.66	3125.20
1003.82	3061.71
1003.98	3108.82
1004.14	3055.57
1004.30	3084.24
1004.46	3012.56
1004.62	3080.14
1004.78	2990.03
1004.94	3096.53
1005.09	3024.85
1005.25	3039.19
1005.41	2918.36
1005.57	2973.65
1005.73	3016.66
1005.89	2959.31
1006.05	3020.75
1006.21	3065.81
1006.37	2887.64
1006.52	2844.63
1006.68	2942.93
1006.84	2987.99
1007.00	2820.05
1007.16	2938.84
1007.32	2877.40
1007.48	2871.25
1007.64	2975.70
1007.79	2936.79
1007.95	2899.92
1008.11	2813.91
1008.27	2889.68
1008.43	2877.40
1008.59	2936.79
1008.75	2924.50
1008.91	2764.76
1009.06	2881.49
1009.22	2768.85
1009.38	2813.91
1009.54	2908.12
1009.70	2779.09
1009.86	2863.06
1010.01	2799.57
1010.17	2803.67
1010.33	2799.57
1010.49	2713.56
1010.65	2822.10
1010.81	2727.89
1010.96	2852.82
1011.12	2723.80
1011.28	2746.33
1011.44	2828.24
1011.60	2699.22
1011.76	2703.32
1011.91	2748.37
1012.07	2641.88
1012.23	2658.26
1012.39	2645.98
1012.55	2736.09
1012.71	2723.80
1012.86	2684.89
1013.02	2633.69
1013.18	2688.98
1013.34	2607.06
1013.50	2787.29
1013.65	2607.06
1013.81	2643.93
1013.97	2619.35
1014.13	2660.31
1014.29	2656.22
1014.44	2721.75
1014.60	2588.63
1014.76	2594.78
1014.92	2619.35
1015.07	2576.34
1015.23	2617.30
1015.39	2535.39
1015.55	2629.59
1015.71	2551.77
1015.86	2539.48
1016.02	2478.04
1016.18	2463.71
1016.34	2535.39
1016.49	2480.09
1016.65	2596.82
1016.81	2492.38
1016.97	2547.67
1017.12	2631.64
1017.28	2480.09
1017.44	2428.89
1017.60	2480.09
1017.75	2396.12
1017.91	2416.60
1018.07	2455.51
1018.23	2418.65
1018.38	2414.56
1018.54	2461.66
1018.70	2484.19
1018.86	2428.89
1019.01	2344.92
1019.17	2379.74
1019.33	2504.67
1019.49	2396.12
1019.64	2461.66
1019.80	2428.89
1019.96	2451.42
1020.12	2324.44
1020.27	2277.34
1020.43	2353.12
1020.59	2371.55
1020.74	2439.13
1020.90	2297.82
1021.06	2439.13
1021.22	2289.63
1021.37	2303.96
1021.53	2285.53
1021.69	2355.16
1021.84	2265.05
1022.00	2424.80
1022.16	2236.38
1022.31	2355.16
1022.47	2283.49
1022.63	2367.45
1022.79	2254.81
1022.94	2246.62
1023.10	2322.40
1023.26	2293.72
1023.41	2203.61
1023.57	2187.23
1023.73	2260.96
1023.88	2220.00
1024.04	2146.27
1024.20	2203.61
1024.35	2187.23
1024.51	2273.25
1024.67	2146.27
1024.82	2242.53
1024.98	2179.04
1025.14	2129.89
1025.29	2127.84
1025.45	2240.48
1025.61	2037.73
1025.76	2105.31
1025.92	2136.03
1026.08	2174.94
1026.23	2082.78
1026.39	2234.33
1026.55	2152.42
1026.70	2158.56
1026.86	2127.84
1027.02	2168.80
1027.17	2131.94
1027.33	2117.60
1027.48	2023.39
1027.64	2164.70
1027.80	2035.68
1027.95	2140.13
1028.11	2029.54
1028.27	2045.92
1028.42	2013.15
1028.58	1994.72
1028.73	2060.26
1028.89	1982.43
1029.05	2142.18
1029.20	2054.11
>>>>>End Processed Spectral Data<<<<<
