SpectraSuite Data File
++++++++++++++++++++++++++++++++++++
Date: Fri Jun 02 14:44:36 CEST 2017
User: INFO_000
Dark Spectrum Present: No
Reference Spectrum Present: No
Number of Sampled Component Spectra: 1
Spectrometers: USB4H00879
Integration Time (usec): 80000 (USB4H00879)
Spectra Averaged: 1 (USB4H00879)
Boxcar Smoothing: 0 (USB4H00879)
Correct for Electrical Dark: No (USB4H00879)
Strobe/Lamp Enabled: No (USB4H00879)
Correct for Detector Non-linearity: No (USB4H00879)
Correct for Stray Light: No (USB4H00879)
Number of Pixels in Processed Spectrum: 3648
>>>>>Begin Processed Spectral Data<<<<<
345.13	1273.84
345.34	1273.84
345.56	1273.84
345.78	1327.08
345.99	1320.94
346.21	1726.44
346.42	1753.06
346.64	1585.13
346.86	1845.22
347.07	1726.44
347.29	1724.39
347.50	1605.61
347.72	1669.09
347.94	1722.34
348.15	1540.07
348.37	1564.65
348.59	1671.14
348.80	1597.42
349.02	1771.49
349.23	1882.08
349.45	1775.59
349.67	1875.94
349.88	1781.73
350.10	2002.91
350.31	1839.08
350.53	1740.77
350.75	1998.82
350.96	1822.69
351.18	1892.32
351.39	1873.89
351.61	1751.01
351.82	1929.19
352.04	1906.66
352.26	1810.40
352.47	1880.04
352.69	1957.86
352.90	1734.63
353.12	1791.97
353.34	1892.32
353.55	1929.19
353.77	1855.46
353.98	1855.46
354.20	1900.52
354.41	1884.13
354.63	1892.32
354.85	1990.63
355.06	1937.38
355.28	1798.12
355.49	1923.04
355.71	1873.89
355.92	1947.62
356.14	1841.12
356.35	1812.45
356.57	1890.28
356.79	1908.71
357.00	1908.71
357.22	1980.39
357.43	1828.84
357.65	1984.48
357.86	1812.45
358.08	1880.04
358.29	1916.90
358.51	2066.40
358.72	1961.95
358.94	1945.57
359.16	1918.95
359.37	1925.09
359.59	1945.57
359.80	1951.71
360.02	1970.15
360.23	2054.11
360.45	2007.01
360.66	1914.85
360.88	1970.15
361.09	1931.23
361.31	1964.00
361.52	1964.00
361.74	2107.36
361.95	2045.92
362.17	1986.53
362.38	2119.65
362.60	1978.34
362.81	2015.20
363.03	1976.29
363.24	1943.52
363.46	2066.40
363.67	2013.15
363.89	1951.71
364.10	1966.05
364.32	1918.95
364.53	2082.78
364.75	1824.74
364.96	2117.60
365.18	2015.20
365.39	2017.25
365.61	1900.52
365.82	2056.16
366.04	2027.49
366.25	1904.61
366.47	2054.11
366.68	2027.49
366.90	1984.48
367.11	1990.63
367.33	2125.79
367.54	2039.78
367.76	2045.92
367.97	2162.66
368.19	2019.30
368.40	2138.08
368.62	1961.95
368.83	1927.14
369.05	2064.35
369.26	2009.06
369.48	1986.53
369.69	1984.48
369.91	2070.50
370.12	1941.47
370.33	2097.12
370.55	2013.15
370.76	2029.54
370.98	2082.78
371.19	1945.57
371.41	2021.35
371.62	1994.72
371.84	2019.30
372.05	2213.85
372.27	2070.50
372.48	2084.83
372.69	2113.50
372.91	2148.32
373.12	2113.50
373.34	2131.94
373.55	2117.60
373.77	2179.04
373.98	2105.31
374.20	2142.18
374.41	2283.49
374.62	2109.41
374.84	2236.38
375.05	2199.52
375.27	2203.61
375.48	2191.33
375.70	2166.75
375.91	2215.90
376.12	2215.90
376.34	2131.94
376.55	2203.61
376.77	2265.05
376.98	2138.08
377.19	2158.56
377.41	2121.70
377.62	2228.19
377.84	2230.24
378.05	2328.54
378.27	2150.37
378.48	2387.93
378.69	2496.47
378.91	2285.53
379.12	2297.82
379.34	2158.56
379.55	2209.76
379.76	2342.88
379.98	2220.00
380.19	2375.64
380.41	2256.86
380.62	2326.49
380.83	2301.92
381.05	2205.66
381.26	2332.64
381.47	2281.44
381.69	2260.96
381.90	2379.74
382.12	2244.57
382.33	2295.77
382.54	2265.05
382.76	2318.30
382.97	2394.08
383.19	2258.91
383.40	2338.78
383.61	2330.59
383.83	2246.62
384.04	2238.43
384.25	2385.88
384.47	2312.16
384.68	2396.12
384.89	2299.87
385.11	2336.73
385.32	2285.53
385.54	2312.16
385.75	2371.55
385.96	2404.32
386.18	2371.55
386.39	2404.32
386.60	2334.68
386.82	2402.27
387.03	2338.78
387.24	2519.00
387.46	2490.33
387.67	2559.96
387.88	2486.23
388.10	2455.51
388.31	2478.04
388.52	2609.11
388.74	2508.76
388.95	2504.67
389.16	2521.05
389.38	2535.39
389.59	2574.30
389.80	2625.50
390.02	2498.52
390.23	2584.54
390.44	2590.68
390.66	2543.58
390.87	2453.47
391.08	2580.44
391.30	2619.35
391.51	2670.55
391.72	2795.48
391.94	2674.65
392.15	2691.03
392.36	2670.55
392.58	2656.22
392.79	2588.63
393.00	2660.31
393.22	2764.76
393.43	2666.46
393.64	2785.24
393.85	2807.77
394.07	2674.65
394.28	2785.24
394.49	2691.03
394.71	2736.09
394.92	2793.43
395.13	2674.65
395.35	2709.46
395.56	2789.33
395.77	2858.96
395.98	2850.77
396.20	2813.91
396.41	2834.39
396.62	2863.06
396.84	2813.91
397.05	2828.24
397.26	2883.54
397.47	2965.46
397.69	2799.57
397.90	2983.89
398.11	2885.59
398.32	2906.07
398.54	2920.40
398.75	2908.12
398.96	2822.10
399.18	3076.05
399.39	2977.75
399.60	3000.27
399.81	2895.83
400.03	3012.56
400.24	3307.47
400.45	2969.55
400.66	3051.47
400.88	2987.99
401.09	3174.35
401.30	2994.13
401.51	3186.64
401.73	3174.35
401.94	3137.49
402.15	3098.58
402.36	3069.91
402.58	3180.50
402.79	3182.54
403.00	3137.49
403.21	3141.58
403.43	3225.55
403.64	3213.26
403.85	3082.19
404.06	3276.75
404.27	3147.73
404.49	3147.73
404.70	3196.88
404.91	3262.41
405.12	3248.08
405.34	3237.84
405.55	3381.20
405.76	3182.54
405.97	3309.52
406.19	3465.16
406.40	3272.65
406.61	3325.90
406.82	3336.14
407.03	3305.42
407.25	3403.72
407.46	3426.25
407.67	3459.02
407.88	3491.79
408.09	3327.95
408.31	3389.39
408.52	3436.49
408.73	3362.76
408.94	3383.24
409.15	3327.95
409.37	3456.97
409.58	3524.55
409.79	3448.78
410.00	3575.75
410.21	3471.31
410.43	3530.70
410.64	3565.51
410.85	3553.23
411.06	3516.36
411.27	3585.99
411.48	3606.47
411.70	3485.64
411.91	3592.14
412.12	3749.83
412.33	3706.82
412.54	3581.90
412.76	3790.79
412.97	3657.67
413.18	3436.49
413.39	3702.73
413.60	3721.16
413.81	3827.65
414.03	3575.75
414.24	3715.02
414.45	3776.45
414.66	3600.33
414.87	3854.28
415.08	3790.79
415.30	3792.84
415.51	3768.26
415.72	3696.58
415.93	3792.84
416.14	3788.74
416.35	3928.00
416.56	3841.99
416.78	3811.27
416.99	3887.04
417.20	3868.61
417.41	3919.81
417.62	3903.43
417.83	3932.10
418.04	3801.03
418.26	3950.53
418.47	3954.63
418.68	3934.15
418.89	4001.73
419.10	4089.79
419.31	4001.73
419.52	4032.45
419.73	4063.17
419.95	4050.88
420.16	3968.96
420.37	4061.12
420.58	4218.82
420.79	3934.15
421.00	4132.80
421.21	4143.04
421.42	4011.97
421.63	4159.42
421.85	4126.66
422.06	4237.25
422.27	4083.65
422.48	4157.38
422.69	4272.06
422.90	4194.24
423.11	4237.25
423.32	4229.06
423.53	4288.45
423.75	4249.54
423.96	4347.84
424.17	4362.17
424.38	4407.23
424.59	4327.36
424.80	4460.48
425.01	4517.82
425.22	4440.00
425.43	4503.48
425.64	4714.42
425.85	4616.12
426.06	4517.82
426.28	4517.82
426.49	4419.52
426.70	4487.10
426.91	4599.74
427.12	4659.13
427.33	4485.05
427.54	4556.73
427.75	4757.43
427.96	4796.34
428.17	4728.76
428.38	4773.82
428.59	4751.29
428.80	4843.45
429.01	4773.82
429.23	4931.51
429.44	5040.05
429.65	4851.64
429.86	4876.21
430.07	4773.82
430.28	4839.35
430.49	4892.60
430.70	5083.06
430.91	5097.39
431.12	5048.24
431.33	5216.18
431.54	5103.54
431.75	5156.79
431.96	5038.00
432.17	5091.25
432.38	5140.40
432.59	5380.01
432.80	5296.05
433.01	5306.29
433.22	5406.64
433.43	5230.51
433.64	5128.11
433.85	5257.14
434.06	5328.81
434.27	5326.77
434.49	5433.26
434.70	5410.73
434.91	5525.42
435.12	5484.46
435.33	5480.36
435.54	5523.37
435.75	5380.01
435.96	5425.07
436.17	5326.77
436.38	5709.74
436.59	5658.54
436.80	5705.64
437.01	5892.01
437.22	5916.58
437.43	5601.19
437.64	5638.06
437.85	5853.09
438.06	6014.88
438.27	5689.26
438.48	5746.60
438.69	6049.70
438.90	5953.45
439.11	5920.68
439.32	5932.97
439.53	5912.49
439.74	5855.14
439.95	5844.90
440.16	5957.54
440.37	6025.12
440.57	5914.53
440.78	6143.91
440.99	6059.94
441.20	6064.04
441.41	5988.26
441.62	6270.88
441.83	5844.90
442.04	6166.43
442.25	6150.05
442.46	6162.34
442.67	6297.50
442.88	6533.02
443.09	6164.39
443.30	6242.21
443.51	6358.94
443.72	6545.31
443.93	6238.11
444.14	6676.38
444.35	6240.16
444.56	6393.76
444.77	6432.67
444.98	6490.01
445.19	6498.20
445.40	6428.57
445.61	6451.10
445.81	6666.14
446.02	6588.32
446.23	6449.05
446.44	6438.81
446.65	6764.44
446.86	6512.54
447.07	6774.68
447.28	6768.54
447.49	6803.35
447.70	6672.28
447.91	6764.44
448.12	6825.88
448.33	6786.97
448.54	6797.21
448.74	6723.48
448.95	6854.55
449.16	6776.73
449.37	7139.22
449.58	6819.74
449.79	7010.20
450.00	6694.81
450.21	6987.67
450.42	7069.59
450.63	7008.15
450.84	6940.57
451.05	7038.87
451.25	6965.14
451.46	6877.08
451.67	7151.51
451.88	7278.48
452.09	7243.67
452.30	7075.73
452.51	7139.22
452.72	7372.69
452.93	7567.24
453.13	7223.19
453.34	7065.49
453.55	7307.15
453.76	7255.95
453.97	7618.44
454.18	7585.68
454.39	7503.76
454.60	7417.74
454.81	7536.52
455.01	7491.47
455.22	7327.63
455.43	7473.04
455.64	7876.49
455.85	7759.75
456.06	7952.26
456.27	7784.33
456.48	7726.99
456.68	7813.00
456.89	7833.48
457.10	8015.75
457.31	7845.77
457.52	7931.78
457.73	8019.85
457.94	8310.66
458.14	7851.91
458.35	8333.18
458.56	8144.77
458.77	8169.35
458.98	8324.99
459.19	8271.75
459.39	8372.10
459.60	8413.06
459.81	8329.09
460.02	8597.37
460.23	8548.22
460.44	8646.52
460.65	8568.70
460.85	8726.39
461.06	8843.13
461.27	8324.99
461.48	8916.86
461.69	8916.86
461.89	8769.40
462.10	8945.53
462.31	8892.28
462.52	8859.51
462.73	9004.92
462.94	9017.21
463.14	9154.42
463.35	9082.74
463.56	9467.76
463.77	9355.12
463.98	9152.37
464.18	9316.21
464.39	9666.41
464.60	9781.10
464.81	9643.88
465.02	9561.97
465.23	9774.95
465.43	9774.95
465.64	9850.73
465.85	9809.77
466.06	9811.82
466.27	10262.37
466.47	9949.03
466.68	10223.46
466.89	10080.10
467.10	10352.48
467.30	9959.27
467.51	10407.78
467.72	10544.99
467.93	10182.50
468.14	10389.35
468.34	10551.14
468.55	10676.06
468.76	10702.68
468.97	10626.91
469.17	10917.72
469.38	10841.95
469.59	11099.99
469.80	10854.23
470.01	10968.92
470.21	11020.12
470.42	11169.62
470.63	11349.84
470.84	11222.87
471.04	11233.11
471.25	11564.88
471.46	11640.65
471.67	11798.35
471.87	11480.91
472.08	11837.26
472.29	11949.90
472.50	11536.21
472.70	11933.51
472.91	12164.93
473.12	12140.36
473.33	12312.39
473.53	12365.64
473.74	12212.04
473.95	12523.33
474.16	12740.41
474.36	12592.96
474.57	12648.26
474.78	12873.53
474.99	12947.26
475.19	12846.91
475.40	12920.63
475.61	13059.90
475.81	13346.61
476.02	13440.82
476.23	13215.54
476.44	13569.84
476.64	13770.54
476.85	13569.84
477.06	13686.58
477.27	13961.00
477.47	13827.88
477.68	14038.83
477.89	14300.97
478.09	14173.99
478.30	14335.78
478.51	14235.43
478.71	14546.72
478.92	14382.88
479.13	14692.13
479.34	14677.79
479.54	14653.22
479.75	14708.51
479.96	14890.78
480.16	14948.12
480.37	15134.49
480.58	15087.39
480.78	15535.89
480.99	15249.18
481.20	15425.30
481.41	15490.84
481.61	15775.50
481.82	15900.43
482.03	16017.16
482.23	16058.12
482.44	15908.62
482.65	16150.28
482.85	16215.82
483.06	16457.48
483.27	16156.43
483.47	16334.60
483.68	16549.64
483.89	16578.31
484.09	16543.49
484.30	16510.72
484.51	16746.24
484.71	17004.28
484.92	16797.44
485.13	16992.00
485.33	17051.39
485.54	16836.35
485.75	17137.40
485.95	17450.74
486.16	17444.60
486.37	17694.45
486.57	17508.08
486.78	17434.36
486.98	17729.27
487.19	17565.43
487.40	18200.30
487.60	17925.87
487.81	17868.53
488.02	17968.88
488.22	18161.39
488.43	18249.45
488.64	18347.75
488.84	18417.38
489.05	18792.16
489.25	18812.64
489.46	18915.04
489.67	18814.69
489.87	18876.13
490.08	19154.65
490.29	18843.36
490.49	19398.36
490.70	19107.55
490.90	19736.27
491.11	19261.15
491.32	19455.70
491.52	19515.09
491.73	19531.48
491.94	19683.03
492.14	19631.83
492.35	19877.58
492.55	20029.13
492.76	19973.84
492.97	20270.79
493.17	20274.89
493.38	20289.23
493.58	20485.83
493.79	20475.59
494.00	20647.62
494.20	20645.57
494.41	20807.36
494.61	21135.04
494.82	20743.88
495.02	20993.73
495.23	21145.28
495.44	21350.07
495.64	21552.82
495.85	21626.55
496.05	21558.97
496.26	21315.26
496.47	21755.57
496.67	21305.02
496.88	21909.17
497.08	21565.11
497.29	22054.58
497.49	22030.00
497.70	21862.07
497.91	22136.49
498.11	22300.33
498.32	22558.38
498.52	22580.90
498.73	22589.10
498.93	22597.29
499.14	22691.49
499.34	22728.36
499.55	23174.81
499.76	23113.38
499.96	23215.77
500.17	23088.80
500.37	23359.13
500.58	23535.26
500.78	23262.88
500.99	23371.42
501.19	23664.28
501.40	23623.32
501.60	23664.28
501.81	24077.97
502.02	23795.35
502.22	23901.84
502.43	23869.08
502.63	24376.97
502.84	24333.96
503.04	24125.07
503.25	24262.29
503.45	24374.92
503.66	24624.78
503.86	24614.54
504.07	24966.79
504.27	24786.57
504.48	24854.15
504.68	25007.75
504.89	25429.63
505.09	25255.55
505.30	25130.62
505.50	25339.52
505.71	25314.94
505.91	25499.26
506.12	25304.70
506.32	25898.61
506.53	25595.51
506.73	26048.11
506.94	25570.94
507.14	25761.40
507.35	26113.65
507.55	25851.51
507.76	26295.92
507.96	25986.68
508.17	26087.03
508.37	26513.00
508.58	26082.93
508.78	26314.35
508.99	26701.42
509.19	26613.35
509.40	26857.06
509.60	26732.14
509.81	27037.28
510.01	26750.57
510.22	26773.10
510.42	26936.93
510.63	27184.74
510.83	27106.91
511.04	27027.04
511.24	27508.32
511.44	26961.51
511.65	27418.21
511.85	27348.57
512.06	27514.46
512.26	27690.59
512.47	27598.43
512.67	27475.55
512.88	27481.69
513.08	27403.87
513.29	27706.97
513.49	27971.16
513.69	27807.32
513.90	27801.18
514.10	28372.56
514.31	28376.66
514.51	28145.23
514.72	28012.12
514.92	28091.99
515.13	28372.56
515.33	28286.54
515.53	28323.41
515.74	28524.11
515.94	28442.19
516.15	28372.56
516.35	28450.38
516.56	28569.16
516.76	28589.64
516.96	28606.03
517.17	28610.12
517.37	28530.25
517.58	28806.73
517.78	28773.96
517.99	29122.12
518.19	28937.80
518.39	29091.40
518.60	29402.69
518.80	29308.48
519.01	29460.03
519.21	28927.56
519.41	29089.35
519.62	29140.55
519.82	29414.98
520.03	29453.89
520.23	29609.53
520.43	29201.99
520.64	29562.43
520.84	30006.84
521.05	29484.61
521.25	29640.25
521.45	29730.36
521.66	30275.12
521.86	29845.05
522.07	29613.63
522.27	30086.71
522.47	30305.84
522.68	30522.93
522.88	29990.45
523.08	30174.77
523.29	30543.41
523.49	30719.53
523.70	30424.62
523.90	30682.67
524.10	30654.00
524.31	30858.79
524.51	30311.99
524.71	31026.73
524.92	30869.03
525.12	30854.70
525.33	31168.04
525.53	31215.14
525.73	31301.15
525.94	31354.40
526.14	31059.49
526.34	31288.87
526.55	31256.10
526.75	31295.01
526.95	31596.06
527.16	31792.67
527.36	31499.81
527.56	31821.34
527.77	32118.29
527.97	31923.74
528.17	32028.18
528.38	31569.44
528.58	32198.16
528.78	31936.02
528.99	32175.64
529.19	32605.71
529.39	32325.14
529.60	32704.01
529.80	32695.82
530.00	32146.97
530.21	32599.57
530.41	33058.31
530.61	33048.07
530.82	32876.04
531.02	32914.95
531.22	32933.39
531.43	33117.70
531.63	33056.26
531.83	33371.65
532.04	33504.77
532.24	33402.37
532.44	33785.34
532.64	33502.72
532.85	33842.68
533.05	33715.71
533.25	33900.03
533.46	33785.34
533.66	34127.35
533.86	34244.09
534.07	34375.16
534.27	34160.12
534.47	34674.16
534.67	34299.38
534.88	34049.53
535.08	34819.56
535.28	34557.42
535.49	34964.97
535.69	35093.99
535.89	35407.33
536.09	35071.46
536.30	35495.39
536.50	35177.96
536.70	35528.16
536.91	35784.16
537.11	35587.55
537.31	35743.20
537.51	35618.27
537.72	35829.21
537.92	36107.74
538.12	36435.41
538.32	36003.29
538.53	36621.78
538.73	36212.18
538.93	36285.91
539.13	36611.54
539.34	36746.70
539.54	36742.61
539.74	36812.24
539.94	36670.93
540.15	36955.60
540.35	37311.94
540.55	36888.01
540.75	37152.20
540.96	37332.42
541.16	37629.38
541.36	37393.86
541.56	37492.16
541.77	38008.25
541.97	37623.23
542.17	37813.70
542.37	37950.91
542.58	37756.35
542.78	37975.48
542.98	38038.97
543.18	38081.98
543.38	38559.16
543.59	38442.42
543.79	38380.98
543.99	38393.27
544.19	38819.25
544.40	38421.94
544.60	38835.63
544.80	38667.70
545.00	39144.87
545.20	39298.47
545.41	38804.91
545.61	39159.21
545.81	39349.67
546.01	39228.84
546.21	39783.84
546.42	39253.42
546.62	39886.24
546.82	39902.62
547.02	39703.97
547.22	40138.14
547.43	39812.51
547.63	40215.96
547.83	40181.15
548.03	40048.03
548.23	40074.65
548.44	40322.46
548.64	40457.62
548.84	40244.63
549.04	40754.58
549.24	40949.14
549.45	41119.12
549.65	40854.93
549.85	41022.86
550.05	41188.75
550.25	41037.20
550.45	41483.66
550.66	41352.58
550.86	41389.45
551.06	41549.19
551.26	41211.28
551.46	42020.22
551.66	41487.75
551.87	41586.05
552.07	41899.39
552.27	41940.35
552.47	41977.22
552.67	42274.17
552.87	42198.40
553.07	42306.94
553.28	42425.72
553.48	42476.92
553.68	42218.88
553.88	42425.72
554.08	42491.26
554.28	42308.99
554.48	42341.75
554.69	42683.76
554.89	42401.14
555.09	42644.85
555.29	42438.01
555.49	42892.66
555.69	42786.16
555.89	42423.67
556.10	43072.88
556.30	42829.17
556.50	43464.04
556.70	43062.64
556.90	43113.84
557.10	43267.44
557.30	43115.89
557.50	43275.63
557.70	43208.04
557.91	43365.74
558.11	43531.62
558.31	43609.45
558.51	43373.93
558.71	43550.06
558.91	43638.12
559.11	43705.70
559.31	43449.70
559.51	43314.54
559.72	43738.47
559.92	43847.01
560.12	43607.40
560.32	44164.45
560.52	43873.63
560.72	43957.60
560.92	44232.03
561.12	44275.04
561.32	44354.91
561.52	43947.36
561.72	44092.77
561.93	44150.11
562.13	44266.84
562.33	44000.61
562.53	44586.33
562.73	44090.72
562.93	44258.65
563.13	44387.67
563.33	44244.32
563.53	44422.49
563.73	44064.10
563.93	44475.74
564.13	44934.48
564.33	44250.46
564.53	44680.53
564.74	44606.81
564.94	44322.14
565.14	44651.86
565.34	44543.32
565.54	44295.52
565.74	44496.22
565.94	44862.80
566.14	44285.28
566.34	44799.32
566.54	45184.33
566.74	44504.41
566.94	44565.85
567.14	44942.67
567.34	44531.03
567.54	44684.63
567.74	45045.07
567.94	44496.22
568.14	44594.52
568.34	44846.42
568.54	45049.17
568.74	45319.50
568.94	44778.84
569.14	45159.76
569.34	44926.29
569.54	45634.89
569.75	44770.64
569.95	44825.94
570.15	45153.62
570.35	44889.43
570.55	45014.35
570.75	45120.85
570.95	45116.75
571.15	45237.58
571.35	45092.18
571.55	45342.03
571.75	45120.85
571.95	45391.18
572.15	45292.88
572.35	45610.31
572.55	45098.32
572.75	45210.96
572.95	45333.84
573.15	45595.98
573.35	45415.76
573.55	45368.65
573.75	45247.82
573.95	45827.40
574.15	45622.60
574.35	45768.01
574.55	45249.87
574.75	45462.86
574.95	45380.94
575.15	45407.56
575.34	45432.14
575.54	46071.10
575.74	45847.88
575.94	45460.81
576.14	45233.49
576.34	45679.94
576.54	45532.49
576.74	45663.56
576.94	45655.37
577.14	45817.16
577.34	46126.40
577.54	45475.15
577.74	45907.27
577.94	46392.64
578.14	45954.37
578.34	46241.09
578.54	45047.12
578.74	45782.34
578.94	46073.15
579.14	45952.32
579.34	46056.77
579.54	46452.03
579.74	46517.56
579.94	46517.56
580.13	46146.88
580.33	46478.65
580.53	46568.76
580.73	46658.87
580.93	46513.47
581.13	46527.80
581.33	46763.32
581.53	46546.23
581.73	46900.53
581.93	46927.16
582.13	47060.27
582.33	46906.68
582.53	46892.34
582.73	46888.24
582.92	47332.65
583.12	47105.33
583.32	46927.16
583.52	46593.34
583.72	47478.06
583.92	47029.55
584.12	47369.52
584.32	47703.34
584.52	47000.88
584.72	47490.35
584.92	47330.61
585.11	48035.11
585.31	47596.84
585.51	47732.01
585.71	47994.15
585.91	48217.38
586.11	47498.54
586.31	48076.07
586.51	47787.30
586.71	47590.70
586.91	48258.34
587.10	48311.58
587.30	47895.85
587.50	48051.49
587.70	48432.41
587.90	48258.34
588.10	48438.56
588.30	48629.02
588.50	48502.04
588.69	48915.73
588.89	48657.69
589.09	48766.23
589.29	48803.10
589.49	48637.21
589.69	48375.07
589.89	49421.58
590.08	48936.21
590.28	48973.08
590.48	49153.30
590.68	48766.23
590.88	49194.26
591.08	49296.66
591.28	49177.87
591.47	49941.77
591.67	49243.41
591.87	49288.46
592.07	49698.06
592.27	49638.67
592.47	50033.92
592.67	49736.97
592.86	49108.24
593.06	49890.57
593.26	50146.56
593.46	50025.73
593.66	49843.46
593.86	50156.80
594.05	50156.80
594.25	50271.49
594.45	50181.38
594.65	50287.87
594.85	50007.30
595.05	50437.37
595.24	50672.89
595.44	50353.41
595.64	50584.83
595.84	50834.68
596.04	50816.25
596.23	51188.98
596.43	51162.36
596.63	50644.22
596.83	50844.92
597.03	51254.51
597.22	51635.44
597.42	51356.91
597.62	51451.12
597.82	51315.95
598.02	51664.11
598.21	51352.82
598.41	51686.64
598.61	51678.44
598.81	51535.09
599.01	51946.73
599.20	51961.06
599.40	51983.59
599.60	52266.21
599.80	52038.89
600.00	52278.50
600.19	52528.35
600.39	51987.69
600.59	52761.82
600.79	52479.20
600.98	52376.80
601.18	52952.28
601.38	53015.77
601.58	52675.80
601.78	52581.60
601.97	52819.16
602.17	53517.52
602.37	52876.51
602.57	52868.31
602.76	53376.21
602.96	53064.92
603.16	53472.46
603.36	53462.22
603.55	53974.22
603.75	53759.18
603.95	53902.54
604.15	53593.29
604.34	53654.73
604.54	54254.79
604.74	54342.85
604.94	54181.06
605.13	54142.15
605.33	54146.25
605.53	53685.45
605.73	54654.14
605.92	54269.12
606.12	54727.87
606.32	54482.11
606.52	54559.94
606.71	54875.32
606.91	55159.99
607.11	54213.83
607.30	54693.05
607.50	54742.20
607.70	55231.67
607.90	54772.92
608.09	54652.09
608.29	55399.60
608.49	55272.63
608.68	55170.23
608.88	55137.46
609.08	55145.65
609.28	55512.24
609.47	55354.55
609.67	55389.36
609.87	55760.05
610.06	55465.14
610.26	55620.78
610.46	55753.90
610.66	55665.84
610.85	55387.31
611.05	55387.31
611.25	55778.48
611.44	55379.12
611.64	55753.90
611.84	55215.29
612.03	55663.79
612.23	55987.37
612.43	56030.38
612.62	55575.73
612.82	55936.17
613.02	55731.37
613.21	55827.63
613.41	55655.60
613.61	56220.84
613.80	55532.72
614.00	56325.28
614.20	55819.44
614.39	55661.74
614.59	56022.19
614.79	55631.02
614.98	55997.61
615.18	55964.84
615.38	56104.10
615.57	55813.29
615.77	55985.32
615.97	56497.31
616.16	56132.78
616.36	55909.55
616.56	56265.89
616.75	56026.28
616.95	55776.43
617.15	55721.13
617.34	55911.59
617.54	56259.75
617.74	56040.62
617.93	55850.16
618.13	55977.13
618.32	55798.96
618.52	56034.47
618.72	55659.69
618.91	55989.42
619.11	55850.16
619.31	56433.83
619.50	56048.81
619.70	55592.11
619.90	56073.38
620.09	55641.26
620.29	55628.98
620.48	55440.56
620.68	56147.11
620.88	55801.00
621.07	56061.10
621.27	55489.71
621.46	55448.75
621.66	55743.66
621.86	55628.98
622.05	55266.48
622.25	55522.48
622.44	55346.36
622.64	55219.38
622.84	55385.27
623.03	55635.12
623.23	55506.10
623.42	55088.31
623.62	55606.45
623.82	55438.51
624.01	55628.98
624.21	55532.72
624.40	55375.03
624.60	54990.01
624.80	55307.44
624.99	55309.49
625.19	55237.81
625.38	55637.17
625.58	55319.73
625.77	55317.68
625.97	55389.36
626.17	54815.93
626.36	55155.89
626.56	55123.13
626.75	54600.89
626.95	55014.58
627.14	55039.16
627.34	55125.17
627.54	54791.36
627.73	54822.08
627.93	54787.26
628.12	54592.70
628.32	54809.79
628.51	54746.30
628.71	54883.51
628.90	54611.13
629.10	54711.49
629.30	54797.50
629.49	54813.88
629.69	54424.77
629.88	54844.60
630.08	55002.30
630.27	55348.40
630.47	54711.49
630.66	54955.19
630.86	55166.13
631.05	54578.37
631.25	54852.80
631.44	54498.50
631.64	54639.81
631.84	55030.97
632.03	54693.05
632.23	55086.26
632.42	54600.89
632.62	54756.54
632.81	54557.89
633.01	54922.43
633.20	55291.06
633.40	54502.59
633.59	54736.06
633.79	54328.52
633.98	54920.38
634.18	55088.31
634.37	54480.06
634.57	54514.88
634.76	54373.57
634.96	54373.57
635.15	54729.92
635.35	54449.35
635.54	54643.90
635.74	54748.35
635.93	54043.85
636.13	54699.20
636.32	54998.20
636.52	54250.69
636.71	54357.19
636.91	54455.49
637.10	54613.18
637.30	54203.59
637.49	54492.35
637.69	54195.40
637.88	54688.96
638.08	54621.37
638.27	54592.70
638.46	54893.75
638.66	54516.93
638.85	54744.25
639.05	54764.73
639.24	54895.80
639.44	54254.79
639.63	54482.11
639.83	54944.95
640.02	54564.03
640.22	54428.87
640.41	54920.38
640.61	54133.96
640.80	54711.49
640.99	54058.18
641.19	55123.13
641.38	54441.15
641.58	54400.19
641.77	54633.66
641.97	54146.25
642.16	54342.85
642.36	54502.59
642.55	54916.28
642.74	54482.11
642.94	54752.44
643.13	54498.50
643.33	54744.25
643.52	54901.95
643.72	54875.32
643.91	54592.70
644.10	54793.40
644.30	55289.01
644.49	54609.09
644.69	54768.83
644.88	54981.82
645.08	54582.46
645.27	54506.69
645.46	54570.18
645.66	54938.81
645.85	54555.84
646.05	55137.46
646.24	55055.54
646.43	54973.63
646.63	55420.08
646.82	55434.42
647.02	55149.75
647.21	55254.20
647.40	54785.21
647.60	55223.48
647.79	55329.97
647.99	55387.31
648.18	54936.76
648.37	55655.60
648.57	55297.20
648.76	55297.20
648.96	55342.26
649.15	55499.95
649.34	55415.99
649.54	55391.41
649.73	55205.05
649.92	55422.13
650.12	55704.75
650.31	55686.32
650.51	55790.76
650.70	55542.96
650.89	55071.93
651.09	55987.37
651.28	55790.76
651.47	55899.31
651.67	55514.29
651.86	56190.12
652.06	55239.86
652.25	55981.23
652.44	55653.55
652.64	55858.35
652.83	55858.35
653.02	56079.53
653.22	55745.71
653.41	55837.87
653.60	55579.82
653.80	55903.40
653.99	56079.53
654.18	55882.92
654.38	56079.53
654.57	56444.07
654.76	55966.89
654.96	55919.79
655.15	55637.17
655.34	55960.75
655.54	55637.17
655.73	56181.93
655.92	56425.64
656.12	56118.44
656.31	56300.71
656.50	56130.73
656.70	56507.55
656.89	56132.78
657.08	56579.23
657.28	56470.69
657.47	56456.35
657.66	56700.06
657.86	56339.62
658.05	56667.30
658.24	56888.48
658.43	56161.45
658.63	56661.15
658.82	56847.52
659.01	56523.94
659.21	56958.11
659.40	56448.16
659.59	56882.33
659.79	57306.26
659.98	56956.06
660.17	56919.20
660.36	57021.59
660.56	57162.90
660.75	56851.61
660.94	57113.75
661.14	56943.77
661.33	56880.28
661.52	56808.61
661.71	57046.17
661.91	56622.24
662.10	56399.01
662.29	57021.59
662.49	57539.73
662.68	57132.18
662.87	57336.98
663.06	57177.24
663.26	56988.83
663.45	57533.59
663.64	57332.89
663.83	57500.82
664.03	57937.04
664.22	57498.77
664.41	57255.06
664.60	56947.87
664.80	57435.28
664.99	57201.82
665.18	57291.93
665.37	57545.87
665.57	57349.27
665.76	57361.56
665.95	57316.50
666.14	57349.27
666.34	57502.87
666.53	57699.47
666.72	57519.25
666.91	57574.55
667.11	57580.69
667.30	57848.97
667.49	57881.74
667.68	57724.05
667.87	57308.31
668.07	58004.62
668.26	57875.60
668.45	58104.97
668.64	57955.47
668.84	58367.11
669.03	57910.41
669.22	57939.08
669.41	58104.97
669.60	57580.69
669.80	57631.89
669.99	58209.42
670.18	57365.65
670.37	57693.33
670.57	58240.14
670.76	58143.88
670.95	57887.88
671.14	57644.18
671.33	57783.44
671.53	58160.26
671.72	57894.03
671.91	57924.75
672.10	58190.98
672.29	58139.78
672.48	57824.40
672.68	58453.12
672.87	57910.41
673.06	57703.57
673.25	57984.14
673.44	57824.40
673.64	57982.09
673.83	57762.96
674.02	57748.62
674.21	57678.99
674.40	58383.49
674.59	58215.56
674.79	57857.17
674.98	57457.81
675.17	58299.53
675.36	57795.73
675.55	58293.38
675.74	58268.81
675.94	57914.51
676.13	58217.61
676.32	58446.98
676.51	58291.33
676.70	58221.70
676.89	57842.83
677.08	58539.14
677.28	58045.58
677.47	58545.28
677.66	58475.65
677.85	57857.17
678.04	58000.52
678.23	57943.18
678.42	58397.83
678.62	57693.33
678.81	58836.09
679.00	57996.43
679.19	58748.03
679.38	58025.10
679.57	58168.46
679.76	57816.21
679.96	58160.26
680.15	58031.24
680.34	58211.46
680.53	57834.64
680.72	57812.11
680.91	58131.59
681.10	57961.61
681.29	58180.74
681.48	57767.05
681.68	57627.79
681.87	57724.05
682.06	57844.88
682.25	57451.67
682.44	57466.00
682.63	57834.64
682.82	57902.22
683.01	57570.45
683.20	57535.63
683.39	57640.08
683.59	57423.00
683.78	57480.34
683.97	57382.04
684.16	57603.22
684.35	57257.11
684.54	57111.70
684.73	57603.22
684.92	57406.61
685.11	57466.00
685.30	57025.69
685.49	57767.05
685.69	56693.92
685.88	57349.27
686.07	57466.00
686.26	56865.95
686.45	57279.64
686.64	56966.30
686.83	57357.46
687.02	57140.38
687.21	57283.73
687.40	57091.22
687.59	56974.49
687.78	57392.28
687.97	56804.51
688.16	56587.42
688.35	56925.34
688.54	56698.01
688.74	56788.13
688.93	56849.56
689.12	56460.45
689.31	56640.67
689.50	56771.74
689.69	56177.83
689.88	56568.99
690.07	56710.30
690.26	56446.11
690.45	56849.56
690.64	56378.53
690.83	56214.69
691.02	55956.65
691.21	56007.85
691.40	55835.82
691.59	56343.72
691.78	56241.32
691.97	56409.25
692.16	56016.04
692.35	56337.57
692.54	56358.05
692.73	56177.83
692.92	55688.37
693.11	55743.66
693.30	55596.21
693.49	55633.07
693.68	55854.25
693.87	55700.65
694.06	55604.40
694.25	55389.36
694.44	55319.73
694.63	55391.41
694.82	55887.02
695.01	55301.30
695.20	55084.22
695.39	55547.06
695.58	55418.03
695.77	55276.72
695.96	55076.02
696.15	54867.13
696.34	54731.96
696.53	54879.42
696.72	55295.16
696.91	54879.42
697.10	55135.41
697.29	54375.62
697.48	54838.46
697.67	55049.40
697.86	54125.77
698.05	54260.93
698.24	54789.31
698.43	54088.90
698.62	55121.08
698.81	54488.26
699.00	54744.25
699.19	54250.69
699.38	54494.40
699.57	54498.50
699.76	54553.79
699.95	54066.38
700.14	53998.79
700.32	54369.47
700.51	53925.07
700.70	54592.70
700.89	53908.68
701.08	53920.97
701.27	53583.05
701.46	54228.16
701.65	53851.34
701.84	53859.53
702.03	53769.42
702.22	53750.99
702.41	53404.88
702.60	53605.58
702.79	53456.08
702.98	53445.84
703.17	53384.40
703.35	53236.95
703.54	53275.86
703.73	53509.33
703.92	53247.19
704.11	53040.34
704.30	52896.98
704.49	53056.73
704.68	53226.71
704.87	52999.38
705.06	52939.99
705.25	52815.07
705.43	52595.93
705.62	53050.58
705.81	52483.30
706.00	52720.86
706.19	52407.52
706.38	52593.89
706.57	52526.30
706.76	52608.22
706.95	52255.97
707.14	52274.40
707.32	52344.03
707.51	52835.55
707.70	52081.89
707.89	52348.13
708.08	52327.65
708.27	52776.15
708.46	52163.81
708.65	51971.30
708.84	52403.42
709.02	52147.43
709.21	52475.10
709.40	52428.00
709.59	51846.38
709.78	51725.55
709.97	51758.31
710.16	52034.79
710.34	51586.28
710.53	51676.40
710.72	51670.25
710.91	51885.29
711.10	51703.02
711.29	51756.27
711.48	51725.55
711.66	51844.33
711.85	51295.47
712.04	51401.97
712.23	51471.60
712.42	51784.94
712.61	51148.02
712.80	51363.06
712.98	51574.00
713.17	51004.66
713.36	51100.92
713.55	50879.74
713.74	51057.91
713.93	51242.23
714.11	50562.30
714.30	50951.41
714.49	50863.35
714.68	51010.81
714.87	51008.76
715.06	51365.10
715.24	50756.86
715.43	50300.16
715.62	50259.20
715.81	50060.55
716.00	50445.57
716.18	50382.08
716.37	50148.61
716.56	50148.61
716.75	51012.85
716.94	50468.09
717.12	50431.23
717.31	50783.48
717.50	50048.26
717.69	50277.63
717.88	50300.16
718.06	50042.12
718.25	50724.09
718.44	50033.92
718.63	50044.16
718.82	49947.91
719.00	49952.01
719.19	50072.84
719.38	49945.86
719.57	50091.27
719.76	49628.43
719.94	49403.15
720.13	49397.01
720.32	49485.07
720.51	49478.92
720.69	49904.90
720.88	49069.33
721.07	49386.77
721.26	49055.00
721.44	49462.54
721.63	49216.78
721.82	49077.52
722.01	49044.76
722.20	49034.52
722.38	49124.63
722.57	48649.50
722.76	48766.23
722.95	48727.32
723.13	48680.22
723.32	48502.04
723.51	48473.37
723.70	48428.32
723.88	48489.76
724.07	48168.22
724.26	48512.28
724.44	48282.91
724.63	48551.20
724.82	48315.68
725.01	48307.49
725.19	48452.89
725.38	47977.76
725.57	48274.72
725.76	48657.69
725.94	48024.87
726.13	47740.20
726.32	48219.42
726.51	47953.19
726.69	48192.80
726.88	48370.97
727.07	48342.30
727.25	48157.99
727.44	47840.55
727.63	47781.16
727.82	47858.98
728.00	48168.22
728.19	47994.15
728.38	48399.65
728.56	47709.48
728.75	48203.04
728.94	47904.04
729.12	48268.58
729.31	47936.80
729.50	48231.71
729.69	47967.52
729.87	48010.53
730.06	47916.32
730.25	47699.24
730.43	48311.58
730.62	48125.22
730.81	48424.22
730.99	48344.35
731.18	48041.25
731.37	48084.26
731.55	48362.78
731.74	48409.89
731.93	48133.41
732.11	47959.33
732.30	48172.32
732.49	48121.12
732.67	48104.74
732.86	48184.61
733.05	47670.57
733.23	48160.03
733.42	48039.20
733.61	47949.09
733.79	48401.69
733.98	48174.37
734.17	47717.67
734.35	48051.49
734.54	47732.01
734.73	47781.16
734.91	48047.39
735.10	48112.93
735.29	48225.57
735.47	47684.90
735.66	48010.53
735.84	48125.22
736.03	47545.64
736.22	47992.10
736.40	47678.76
736.59	47838.50
736.78	47940.90
736.96	47971.62
737.15	47906.08
737.33	47936.80
737.52	47988.00
737.71	47869.22
737.89	47815.97
738.08	47719.72
738.27	47836.45
738.45	48053.54
738.64	48360.73
738.82	47775.02
739.01	47572.27
739.20	47955.24
739.38	47926.56
739.57	48237.86
739.75	47904.04
739.94	47631.66
740.13	47918.37
740.31	47240.50
740.50	47559.98
740.68	47871.27
740.87	47961.38
741.06	47744.30
741.24	47693.10
741.43	47471.92
741.61	48074.02
741.80	47709.48
741.99	47387.95
742.17	47729.96
742.36	47846.69
742.54	47908.13
742.73	47652.14
742.91	47779.11
743.10	47342.89
743.29	47502.64
743.47	47775.02
743.66	47742.25
743.84	47889.70
744.03	47922.47
744.21	47404.33
744.40	47852.84
744.59	47576.36
744.77	47242.54
744.96	47205.68
745.14	47258.93
745.33	47312.17
745.51	47136.05
745.70	47400.24
745.88	46984.50
746.07	47099.19
746.26	47250.74
746.44	47369.52
746.63	46779.70
746.81	47248.69
747.00	46884.15
747.18	47641.90
747.37	46996.79
747.55	47013.17
747.74	47340.85
747.92	47150.38
748.11	47084.85
748.29	47195.44
748.48	47244.59
748.66	46595.38
748.85	46961.97
749.03	46826.81
749.22	47058.23
749.41	47168.82
749.59	46804.28
749.78	46937.40
749.96	46402.88
750.15	47029.55
750.33	46853.43
750.52	46853.43
750.70	46755.13
750.89	46712.12
751.07	46480.70
751.26	46978.36
751.44	46468.41
751.63	46708.02
751.81	46437.69
752.00	46247.23
752.18	46835.00
752.37	46406.97
752.55	46232.89
752.74	46390.59
752.92	46310.72
753.10	46566.71
753.29	46265.66
753.47	46437.69
753.66	45935.94
753.84	46742.84
754.03	46386.49
754.21	46363.96
754.40	46241.09
754.58	46273.85
754.77	46413.12
754.95	46011.71
755.14	46288.19
755.32	46126.40
755.51	45851.97
755.69	45706.57
755.88	45876.55
756.06	46335.29
756.24	46265.66
756.43	45749.57
756.61	45806.92
756.80	45901.12
756.98	45909.32
757.17	45661.51
757.35	46019.91
757.54	45548.87
757.72	45704.52
757.90	45413.71
758.09	45516.11
758.27	45434.19
758.46	45628.74
758.64	45501.77
758.83	45571.40
759.01	45835.59
759.19	45327.69
759.38	45735.24
759.56	45747.53
759.75	45561.16
759.93	45213.01
760.12	45038.93
760.30	45071.70
760.48	45112.66
760.67	45030.74
760.85	45147.47
761.04	45260.11
761.22	45167.95
761.40	45012.31
761.59	44764.50
761.77	44948.82
761.96	45143.38
762.14	44696.92
762.32	45030.74
762.51	44567.90
762.69	44676.44
762.88	45000.02
763.06	44651.86
763.24	44791.12
763.43	44840.28
763.61	44760.40
763.80	44819.80
763.98	44746.07
764.16	44510.55
764.35	43924.83
764.53	43928.93
764.72	44033.38
764.90	44565.85
765.08	44451.16
765.27	43945.31
765.45	44256.60
765.63	43705.70
765.82	44029.28
766.00	43326.83
766.18	43783.52
766.37	44045.66
766.55	43677.03
766.74	43955.55
766.92	43722.08
767.10	43638.12
767.29	43412.84
767.47	43246.96
767.65	43885.92
767.84	42995.06
768.02	43369.83
768.20	42962.29
768.39	43013.49
768.57	43191.66
768.75	42794.36
768.94	43435.37
769.12	43187.56
769.30	42702.20
769.49	43046.26
769.67	43181.42
769.85	42571.13
770.04	42655.09
770.22	42630.52
770.40	42526.07
770.59	42044.80
770.77	42765.68
770.95	42874.23
771.14	41940.35
771.32	42055.04
771.50	42065.28
771.69	42388.86
771.87	42657.14
772.05	42382.71
772.24	42196.35
772.42	42083.71
772.60	42016.13
772.78	41782.66
772.97	42024.32
773.15	42446.20
773.33	42143.10
773.52	41919.87
773.70	41418.12
773.88	41717.12
774.07	41745.80
774.25	41434.50
774.43	41741.70
774.61	42024.32
774.80	41850.24
774.98	41997.70
775.16	41604.49
775.34	42120.57
775.53	41491.85
775.71	42040.70
775.89	41954.69
776.08	41231.75
776.26	41696.64
776.44	41899.39
776.62	41565.57
776.81	41727.36
776.99	42016.13
777.17	41749.89
777.35	41743.75
777.54	41934.21
777.72	41743.75
777.90	41579.91
778.08	42235.26
778.27	41653.64
778.45	41966.98
778.63	42206.59
778.81	41538.95
779.00	42202.49
779.18	41553.29
779.36	42464.63
779.54	42073.47
779.73	41889.15
779.91	42339.71
780.09	42251.64
780.27	42308.99
780.46	42321.27
780.64	42683.76
780.82	42341.75
781.00	42038.65
781.19	42435.96
781.37	42247.55
781.55	42018.17
781.73	42562.93
781.91	42104.19
782.10	42497.40
782.28	42253.69
782.46	42382.71
782.64	42491.26
782.82	42212.73
783.01	42235.26
783.19	42366.33
783.37	42104.19
783.55	42192.25
783.74	42347.90
783.92	42206.59
784.10	42616.18
784.28	41854.34
784.46	41944.45
784.64	42120.57
784.83	42134.91
785.01	42419.58
785.19	42151.29
785.37	42249.60
785.55	42147.20
785.74	41590.15
785.92	41923.97
786.10	41909.63
786.28	41811.33
786.46	41872.77
786.64	41557.38
786.83	41221.52
787.01	41760.13
787.19	41710.98
787.37	41899.39
787.55	41354.63
787.74	41112.97
787.92	41807.23
788.10	41254.28
788.28	41346.44
788.46	41631.11
788.64	40744.34
788.82	41295.24
789.01	41260.43
789.19	41076.11
789.37	40820.11
789.55	40910.22
789.73	40723.86
789.91	40467.86
790.09	40517.01
790.28	40226.20
790.46	40123.80
790.64	40781.20
790.82	40443.29
791.00	40279.45
791.18	39990.69
791.36	40541.59
791.55	40121.76
791.73	39818.66
791.91	39734.69
792.09	39574.95
792.27	39773.60
792.45	39957.92
792.63	39775.65
792.81	39738.79
793.00	39792.03
793.18	39540.13
793.36	39558.56
793.54	39257.51
793.72	39220.65
793.90	39101.87
794.08	39030.19
794.26	39112.11
794.44	38360.50
794.62	38653.36
794.81	38589.88
794.99	38385.08
795.17	38469.04
795.35	37998.01
795.53	38598.07
795.71	38430.13
795.89	38219.19
796.07	38159.80
796.25	37950.91
796.43	38118.84
796.61	37690.82
796.80	37682.62
796.98	37914.05
797.16	37066.19
797.34	37551.56
797.52	37379.53
797.70	37227.98
797.88	37342.66
798.06	36910.54
798.24	37137.87
798.42	36832.72
798.60	36695.50
798.78	36693.46
798.96	36994.51
799.14	36404.69
799.32	36541.91
799.51	36267.48
799.69	36799.95
799.87	36431.32
800.05	36240.86
800.23	36210.14
800.41	35823.07
800.59	36087.26
800.77	35882.46
800.95	35470.82
801.13	35792.35
801.31	35433.96
801.49	35847.64
801.67	34821.61
801.85	35237.35
802.03	34772.46
802.21	34911.72
802.39	35137.00
802.57	35171.82
802.75	34864.62
802.93	34706.93
803.11	34614.77
803.29	34541.04
803.47	34465.27
803.65	34485.75
803.83	34444.79
804.01	34348.53
804.19	33990.14
804.37	34113.02
804.55	34020.86
804.73	33918.46
804.91	33807.87
805.09	34303.48
805.27	33777.15
805.45	33963.51
805.63	34086.39
805.81	33736.19
805.99	33658.37
806.17	33666.56
806.35	33631.74
806.53	33121.80
806.71	33162.76
806.89	33068.55
807.07	33138.18
807.25	33396.23
807.43	32751.12
807.61	33412.61
807.79	32906.76
807.97	32665.10
808.15	32314.90
808.33	32917.00
808.51	32255.51
808.69	32708.11
808.87	32101.91
809.05	32392.72
809.23	32235.03
809.41	31868.44
809.59	31829.53
809.77	32130.58
809.95	32083.48
810.13	32214.55
810.31	31710.75
810.49	31694.36
810.67	31831.58
810.84	31819.29
811.02	31946.26
811.20	31540.77
811.38	31931.93
811.56	31206.95
811.74	31456.80
811.92	31419.94
812.10	31487.52
812.28	31270.43
812.46	31399.46
812.64	31335.97
812.82	30924.33
813.00	31774.24
813.18	30893.61
813.36	30649.90
813.53	30834.22
813.71	30832.17
813.89	30764.59
814.07	30598.70
814.25	30516.78
814.43	30451.25
814.61	30146.10
814.79	30164.53
814.97	30185.01
815.15	30328.37
815.33	30395.95
815.50	30252.59
815.68	30139.96
815.86	30139.96
816.04	30047.80
816.22	30113.33
816.40	30133.81
816.58	29916.73
816.76	29894.20
816.94	29736.51
817.11	29814.33
817.29	29924.92
817.47	29601.34
817.65	29795.90
817.83	29582.91
818.01	29298.24
818.19	29271.62
818.37	29808.19
818.54	29140.55
818.72	29238.85
818.90	29359.68
819.08	29218.37
819.26	29187.65
819.44	29322.82
819.62	29101.64
819.80	29275.71
819.97	28874.31
820.15	29275.71
820.33	29005.38
820.51	29158.98
820.69	28874.31
820.87	28898.89
821.05	29154.88
821.22	28833.35
821.40	28786.25
821.58	28687.95
821.76	28464.72
821.94	28530.25
822.12	28757.58
822.29	28698.19
822.47	28446.29
822.65	28640.84
822.83	28825.16
823.01	28341.84
823.19	28188.24
823.36	27870.81
823.54	28208.72
823.72	27924.05
823.90	28112.47
824.08	28098.13
824.25	27592.28
824.43	27903.57
824.61	27600.47
824.79	27602.52
824.97	27973.21
825.15	28036.69
825.32	27754.07
825.50	27641.43
825.68	27573.85
825.86	27928.15
826.04	27713.11
826.21	27436.64
826.39	27498.08
826.57	27461.21
826.75	27475.55
826.93	27514.46
827.10	27201.12
827.28	27618.91
827.46	27557.47
827.64	27442.78
827.81	26961.51
827.99	27491.93
828.17	27192.93
828.35	26943.08
828.53	26922.60
828.70	26963.56
828.88	27223.65
829.06	27430.49
829.24	27385.44
829.41	27000.42
829.59	27084.39
829.77	26883.69
829.95	27133.54
830.12	27082.34
830.30	27053.67
830.48	26986.08
830.66	26758.76
830.84	27111.01
831.01	26879.59
831.19	26740.33
831.37	26701.42
831.55	26697.32
831.72	26377.84
831.90	26633.83
832.08	26635.88
832.25	26746.47
832.43	26605.16
832.61	26836.58
832.79	26478.19
832.96	26531.44
833.14	26435.18
833.32	26564.20
833.50	26789.48
833.67	26279.54
833.85	26238.58
834.03	25974.39
834.20	26269.30
834.38	26349.17
834.56	26433.13
834.74	26078.83
834.91	26082.93
835.09	25910.90
835.27	26130.03
835.44	25966.20
835.62	25349.76
835.80	25933.43
835.98	26132.08
836.15	25898.61
836.33	25699.96
836.51	26013.30
836.68	25560.70
836.86	25783.93
837.04	25556.60
837.21	25964.15
837.39	25745.02
837.57	25771.64
837.75	25890.42
837.92	25601.66
838.10	25536.12
838.28	25106.05
838.45	25450.11
838.63	25370.24
838.81	25685.62
838.98	25448.06
839.16	25142.91
839.34	25460.35
839.51	25247.36
839.69	25144.96
839.87	25552.51
840.04	25439.87
840.22	25390.72
840.40	25179.78
840.57	24807.05
840.75	25230.98
840.93	25026.18
841.10	25218.69
841.28	25429.63
841.46	25153.15
841.63	25065.09
841.81	24923.78
841.98	24936.07
842.16	24854.15
842.34	25177.73
842.51	25069.19
842.69	24981.12
842.87	25310.85
843.04	25026.18
843.22	24731.27
843.40	24952.45
843.57	24880.77
843.75	24698.50
843.92	24667.78
844.10	24831.62
844.28	25011.84
844.45	24759.94
844.63	24526.47
844.81	24673.93
844.98	24757.89
845.16	24589.96
845.33	24522.38
845.51	24561.29
845.69	24483.47
845.86	24266.38
846.04	24264.33
846.21	24354.44
846.39	24592.01
846.57	24194.70
846.74	24577.67
846.92	24198.80
847.09	24557.19
847.27	24268.43
847.45	24196.75
847.62	24393.36
847.80	24317.58
847.97	24012.43
848.15	24051.34
848.32	24282.77
848.50	24155.79
848.68	23844.50
848.85	24030.87
849.03	23664.28
849.20	24032.91
849.38	23799.44
849.56	23910.04
849.73	23672.47
849.91	23856.79
850.08	24151.70
850.26	23457.43
850.43	23826.07
850.61	23899.80
850.78	23398.04
850.96	23897.75
851.14	23570.07
851.31	23651.99
851.49	23439.00
851.66	23633.56
851.84	23479.96
852.01	23508.63
852.19	23490.20
852.36	23494.30
852.54	23643.80
852.71	23512.73
852.89	23611.03
853.07	23344.80
853.24	23170.72
853.42	23019.17
853.59	23396.00
853.77	23252.64
853.94	23326.36
854.12	23307.93
854.29	22668.97
854.47	23289.50
854.64	23248.54
854.82	23299.74
854.99	23246.49
855.17	22988.45
855.34	22884.00
855.52	23137.95
855.69	23180.96
855.87	22701.73
856.04	22736.55
856.22	22529.70
856.39	22734.50
856.57	22980.26
856.74	22875.81
856.92	22972.07
857.09	22761.12
857.27	22613.67
857.44	23031.46
857.62	23129.76
857.79	22501.03
857.97	22558.38
858.14	22453.93
858.32	22621.86
858.49	22589.10
858.67	22607.53
858.84	22535.85
859.02	22625.96
859.19	22267.56
859.37	22349.48
859.54	22367.91
859.72	22582.95
859.89	22503.08
860.06	22664.87
860.24	21905.07
860.41	22232.75
860.59	22329.00
860.76	22167.21
860.94	21921.46
861.11	21997.23
861.29	22073.01
861.46	22101.68
861.64	21692.08
861.81	22007.47
861.98	22134.45
862.16	22083.25
862.33	21638.84
862.51	21698.23
862.68	21909.17
862.86	21866.16
863.03	21907.12
863.21	22040.24
863.38	21843.63
863.55	21755.57
863.73	21866.16
863.90	21739.19
864.08	21540.54
864.25	21427.90
864.43	21753.52
864.60	21561.02
864.77	21423.80
864.95	21599.93
865.12	21198.52
865.30	21280.44
865.47	21356.22
865.64	21569.21
865.82	21427.90
865.99	21431.99
866.17	21282.49
866.34	21544.63
866.51	21008.06
866.69	21546.68
866.86	21331.64
867.04	21077.69
867.21	21081.79
867.38	20934.34
867.56	20934.34
867.73	20780.74
867.91	20838.08
868.08	20958.91
868.25	20846.27
868.43	20528.84
868.60	21087.93
868.78	20778.69
868.95	21018.30
869.12	20924.10
869.30	20838.08
869.47	20897.47
869.64	20608.71
869.82	20803.27
869.99	20518.60
870.16	20647.62
870.34	20555.46
870.51	20483.78
870.69	20201.16
870.86	20391.62
871.03	20401.86
871.21	20328.14
871.38	20285.13
871.55	20080.33
871.73	20328.14
871.90	19683.03
872.07	20321.99
872.25	19810.00
872.42	19998.41
872.59	19844.82
872.77	20121.29
872.94	19857.10
873.11	19887.82
873.29	19969.74
873.46	19689.17
873.63	19582.68
873.81	19726.04
873.98	19646.16
874.15	19646.16
874.33	19494.61
874.50	19255.00
874.67	19410.65
874.85	19492.57
875.02	19504.85
875.19	19357.40
875.37	19341.02
875.54	19181.28
875.71	19363.54
875.88	19144.41
876.06	19093.21
876.23	19369.69
876.40	19144.41
876.58	18896.61
876.75	19035.87
876.92	18738.91
877.10	18994.91
877.27	18933.47
877.44	18773.73
877.61	18683.62
877.79	18687.71
877.96	18593.51
878.13	18857.70
878.31	18706.15
878.48	18878.18
878.65	18458.34
878.82	18534.12
879.00	18577.12
879.17	18659.04
879.34	18460.39
879.51	18259.69
879.69	18106.09
879.86	18220.78
880.03	18292.46
880.21	18165.48
880.38	18403.05
880.55	18192.11
880.72	17942.25
880.90	17946.35
881.07	18126.57
881.24	18087.66
881.41	18003.69
881.59	18259.69
881.76	17985.26
881.93	17899.25
882.10	17524.47
882.28	17530.61
882.45	17860.34
882.62	17590.00
882.79	17938.16
882.96	17368.82
883.14	17825.52
883.31	17796.85
883.48	17766.13
883.65	17608.44
883.83	17829.62
884.00	17633.01
884.17	17837.81
884.34	17790.70
884.51	17506.04
884.69	17573.62
884.86	17522.42
885.03	17766.13
885.20	17340.15
885.38	17336.06
885.55	17364.73
885.72	17325.82
885.89	17225.47
886.06	17481.46
886.24	17229.56
886.41	17143.55
886.58	17516.28
886.75	17426.17
886.92	17227.51
887.10	17301.24
887.27	16989.95
887.44	17180.41
887.61	17272.57
887.78	17207.03
887.95	17100.54
888.13	17071.87
888.30	16938.75
888.47	16754.43
888.64	16844.54
888.81	16889.60
888.99	16611.07
889.16	16576.26
889.33	16545.54
889.50	16701.19
889.67	16674.56
889.84	16285.45
890.01	16486.15
890.19	16697.09
890.36	16529.16
890.53	16639.75
890.70	16312.07
890.87	16496.39
891.04	16490.24
891.22	16015.12
891.39	16613.12
891.56	16307.98
891.73	16146.19
891.90	16172.81
892.07	16211.72
892.24	15980.30
892.42	16023.31
892.59	15994.64
892.76	16090.89
892.93	16236.30
893.10	16015.12
893.27	15970.06
893.44	15894.29
893.61	15619.86
893.79	16021.26
893.96	16043.79
894.13	15859.47
894.30	15931.15
894.47	15886.09
894.64	16168.71
894.81	15726.35
894.98	15929.10
895.15	15922.96
895.33	15675.15
895.50	15709.97
895.67	15863.57
895.84	15685.39
896.01	15732.50
896.18	15795.98
896.35	15910.67
896.52	15867.66
896.69	15390.49
896.86	15666.96
897.04	15664.91
897.21	15564.56
897.38	15527.70
897.55	15626.00
897.72	15763.22
897.89	15585.04
898.06	15755.02
898.23	15486.74
898.40	15515.41
898.57	15511.32
898.74	15552.27
898.91	15458.07
899.08	15589.14
899.26	15429.40
899.43	15468.31
899.60	15355.67
899.77	15593.23
899.94	15482.64
900.11	15249.18
900.28	15501.08
900.45	15232.79
900.62	15175.45
900.79	15431.44
900.96	15251.22
901.13	15306.52
901.30	15476.50
901.47	15349.53
901.64	15261.46
901.81	15476.50
901.98	15212.31
902.15	15279.89
902.32	15343.38
902.49	15302.42
902.66	15320.85
902.83	15474.45
903.01	15306.52
903.18	15173.40
903.35	15099.67
903.52	15179.54
903.69	15253.27
903.86	15318.81
904.03	15349.53
904.20	15347.48
904.37	15386.39
904.54	15247.13
904.71	15171.35
904.88	15228.70
905.05	15163.16
905.22	15363.86
905.39	15327.00
905.56	15378.20
905.73	15372.05
905.90	15050.52
906.07	15228.70
906.24	15267.61
906.41	15073.05
906.58	15476.50
906.75	15496.98
906.92	14956.32
907.09	15269.66
907.26	15099.67
907.43	15077.15
907.60	15212.31
907.77	15240.98
907.93	15263.51
908.10	15130.39
908.27	15120.15
908.44	15177.50
908.61	15187.74
908.78	15042.33
908.95	15154.97
909.12	15075.10
909.29	15327.00
909.46	15189.78
909.63	15073.05
909.80	15060.76
909.97	14972.70
910.14	14948.12
910.31	14995.23
910.48	15032.09
910.65	14757.66
910.82	14944.03
910.99	14847.77
911.16	14774.05
911.33	14741.28
911.50	14544.67
911.66	14845.73
911.83	14731.04
912.00	14731.04
912.17	14343.97
912.34	14679.84
912.51	14759.71
912.68	14360.36
912.85	14454.56
913.02	14413.60
913.19	14659.36
913.36	14335.78
913.53	14526.24
913.70	14309.16
913.86	14487.33
914.03	14268.20
914.20	14526.24
914.37	14333.73
914.54	14233.38
914.71	14257.96
914.88	14221.10
915.05	13897.52
915.22	14004.01
915.39	14047.02
915.55	14292.77
915.72	13692.72
915.89	13920.04
916.06	13854.51
916.23	13936.43
916.40	13872.94
916.57	13713.20
916.74	13766.45
916.91	13623.09
917.07	13504.31
917.24	13911.85
917.41	13684.53
917.58	13729.58
917.75	13727.53
917.92	13565.74
918.09	13461.30
918.26	13557.55
918.42	13471.54
918.59	13582.13
918.76	13283.13
918.93	13201.21
919.10	13258.55
919.27	13186.87
919.44	13438.77
919.60	13307.70
919.77	13248.31
919.94	12922.68
920.11	13188.92
920.28	13111.10
920.45	12889.92
920.61	13084.47
920.78	12988.22
920.95	12781.37
921.12	12617.54
921.29	12744.51
921.46	12695.36
921.62	12513.09
921.79	12674.88
921.96	12476.23
922.13	12490.56
922.30	12498.75
922.47	12396.35
922.63	12267.33
922.80	12414.79
922.97	12511.04
923.14	12105.54
923.31	12525.38
923.47	12160.84
923.64	12306.24
923.81	12185.41
923.98	12087.11
924.15	12103.50
924.32	11999.05
924.48	12279.62
924.65	11990.86
924.82	11575.12
924.99	11978.57
925.15	11898.70
925.32	11794.25
925.49	11773.77
925.66	11827.02
925.83	11716.43
925.99	11501.39
926.16	11538.26
926.33	11556.69
926.50	11239.25
926.67	11585.36
926.83	11335.51
927.00	11317.08
927.17	11216.72
927.34	11202.39
927.50	11157.33
927.67	11351.89
927.84	10891.10
928.01	10962.78
928.17	10798.94
928.34	10899.29
928.51	10774.36
928.68	10958.68
928.84	10786.65
929.01	10501.98
929.18	10532.70
929.35	10452.83
929.51	10665.82
929.68	10164.07
929.85	10768.22
930.02	10606.43
930.18	10342.24
930.35	10493.79
930.52	10342.24
930.69	10282.85
930.85	10276.71
931.02	9992.04
931.19	10035.05
931.36	10239.84
931.52	10190.69
931.69	10196.84
931.86	9944.94
932.02	10020.71
932.19	9983.85
932.36	9889.64
932.53	9799.53
932.69	9701.23
932.86	9908.07
933.03	9772.91
933.19	9510.77
933.36	9570.16
933.53	9629.55
933.70	9498.48
933.86	9449.33
934.03	9449.33
934.20	9422.70
934.36	9385.84
934.53	8974.20
934.70	9011.06
934.86	9275.25
935.03	9138.04
935.20	8982.39
935.36	8882.04
935.53	8875.90
935.70	8800.12
935.86	8703.87
936.03	8626.04
936.20	8513.41
936.36	8419.20
936.53	8537.98
936.70	8404.86
936.86	8398.72
937.03	8365.95
937.20	8241.03
937.36	8144.77
937.53	7876.49
937.70	7741.32
937.86	7788.43
938.03	7729.03
938.20	7733.13
938.36	7688.07
938.53	7663.50
938.70	7399.31
938.86	7362.45
939.03	7331.73
939.20	7081.88
939.36	7225.23
939.53	7022.48
939.70	7311.25
939.86	6891.41
940.03	6877.08
940.19	6768.54
940.36	6619.04
940.53	6754.20
940.69	6633.37
940.86	6471.58
941.03	6408.09
941.19	6299.55
941.36	6211.49
941.52	6191.01
941.69	6072.23
941.86	6096.80
942.02	6215.59
942.19	6082.47
942.35	6164.39
942.52	5924.77
942.69	5928.87
942.85	5703.59
943.02	5758.89
943.18	5885.86
943.35	5625.77
943.52	5662.63
943.68	5636.01
943.85	5660.59
944.01	5492.65
944.18	5423.02
944.35	5709.74
944.51	5459.88
944.68	5404.59
944.84	5521.32
945.01	5337.01
945.17	5369.77
945.34	5449.64
945.51	5492.65
945.67	5437.36
945.84	5367.73
946.00	5195.70
946.17	5294.00
946.33	5349.29
946.50	5316.53
946.67	5197.74
946.83	5183.41
947.00	5365.68
947.16	5193.65
947.33	5423.02
947.49	5392.30
947.66	5207.98
947.82	5261.23
947.99	5283.76
948.16	5246.90
948.32	5214.13
948.49	5347.25
948.65	5392.30
948.82	5226.42
948.98	5218.22
949.15	5025.72
949.31	5187.50
949.48	5302.19
949.64	5244.85
949.81	5373.87
949.97	5179.31
950.14	5377.97
950.30	5232.56
950.47	5359.53
950.63	5226.42
950.80	5187.50
950.96	5308.34
951.13	5330.86
951.30	5257.14
951.46	5355.44
951.63	5416.88
951.79	5291.95
951.96	5478.32
952.12	5386.16
952.29	5300.14
952.45	5150.64
952.62	5226.42
952.78	5371.82
952.94	5298.10
953.11	5371.82
953.27	5154.74
953.44	5484.46
953.60	5488.56
953.77	5515.18
953.93	5363.63
954.10	5291.95
954.26	5400.49
954.43	5359.53
954.59	5504.94
954.76	5418.93
954.92	5382.06
955.09	5369.77
955.25	5386.16
955.42	5386.16
955.58	5443.50
955.75	5375.92
955.91	5345.20
956.07	5382.06
956.24	5449.64
956.40	5396.40
956.57	5509.04
956.73	5339.05
956.90	5523.37
957.06	5234.61
957.23	5447.60
957.39	5337.01
957.56	5504.94
957.72	5451.69
957.88	5326.77
958.05	5539.76
958.21	5545.90
958.38	5476.27
958.54	5382.06
958.71	5504.94
958.87	5478.32
959.03	5459.88
959.20	5433.26
959.36	5404.59
959.53	5382.06
959.69	5369.77
959.85	5382.06
960.02	5375.92
960.18	5511.08
960.35	5498.80
960.51	5476.27
960.68	5447.60
960.84	5384.11
961.00	5472.17
961.17	5334.96
961.33	5400.49
961.50	5449.64
961.66	5560.24
961.82	5263.28
961.99	5449.64
962.15	5439.40
962.31	5337.01
962.48	5435.31
962.64	5533.61
962.81	5418.93
962.97	5601.19
963.13	5461.93
963.30	5517.23
963.46	5304.24
963.62	5384.11
963.79	5253.04
963.95	5328.81
964.12	5429.17
964.28	5425.07
964.44	5332.91
964.61	5359.53
964.77	5324.72
964.93	5330.86
965.10	5334.96
965.26	5210.03
965.42	5386.16
965.59	5279.66
965.75	5377.97
965.92	5248.94
966.08	5277.62
966.24	5318.57
966.41	5291.95
966.57	5148.59
966.73	5373.87
966.90	5308.34
967.06	5296.05
967.22	5181.36
967.39	5369.77
967.55	5138.35
967.71	5330.86
967.88	5246.90
968.04	5119.92
968.20	5181.36
968.37	5287.86
968.53	5107.63
968.69	5246.90
968.85	5087.15
969.02	5230.51
969.18	5105.59
969.34	5177.26
969.51	5214.13
969.67	5179.31
969.83	4984.76
970.00	5238.70
970.16	5152.69
970.32	5179.31
970.48	5250.99
970.65	5093.30
970.81	5169.07
970.97	5054.39
971.14	4878.26
971.30	5064.63
971.46	5033.91
971.63	5021.62
971.79	5048.24
971.95	5023.67
972.11	4868.02
972.28	4984.76
972.44	5009.33
972.60	4960.18
972.76	5074.87
972.93	4949.94
973.09	5078.96
973.25	4861.88
973.42	4921.27
973.58	5050.29
973.74	4902.84
973.90	4968.37
974.07	4847.54
974.23	4896.69
974.39	4882.36
974.55	4794.29
974.72	4769.72
974.88	4671.42
975.04	4876.21
975.20	4820.92
975.37	4845.49
975.53	4786.10
975.69	4812.73
975.85	4794.29
976.01	4818.87
976.18	4743.10
976.34	4663.22
976.50	4777.91
976.66	4894.65
976.83	4700.09
976.99	4706.23
977.15	4681.66
977.31	4474.81
977.47	4726.71
977.64	4812.73
977.80	4673.46
977.96	4659.13
978.12	4634.55
978.29	4575.16
978.45	4548.54
978.61	4650.94
978.77	4638.65
978.93	4691.90
979.10	4616.12
979.26	4589.50
979.42	4581.31
979.58	4472.76
979.74	4571.07
979.91	4468.67
980.07	4499.39
980.23	4673.46
980.39	4454.33
980.55	4542.39
980.71	4540.35
980.88	4362.17
981.04	4474.81
981.20	4419.52
981.36	4521.92
981.52	4493.24
981.68	4407.23
981.85	4468.67
982.01	4396.99
982.17	4339.65
982.33	4446.14
982.49	4440.00
982.65	4353.98
982.82	4362.17
982.98	4327.36
983.14	4259.78
983.30	4270.01
983.46	4444.09
983.62	4329.41
983.79	4417.47
983.95	4270.01
984.11	4155.33
984.27	4302.78
984.43	4267.97
984.59	4227.01
984.75	4392.89
984.91	4229.06
985.08	4304.83
985.24	4186.05
985.40	4091.84
985.56	4272.06
985.72	4204.48
985.88	4145.09
986.04	4083.65
986.20	4016.07
986.37	4263.87
986.53	4112.32
986.69	4167.62
986.85	3952.58
987.01	4040.64
987.17	4136.90
987.33	3989.44
987.49	4059.07
987.65	4128.70
987.82	3973.06
987.98	4028.35
988.14	4071.36
988.30	3989.44
988.46	4050.88
988.62	4038.59
988.78	4014.02
988.94	3983.30
989.10	3862.47
989.26	3887.04
989.42	3919.81
989.59	3925.96
989.75	3971.01
989.91	3968.96
990.07	3788.74
990.23	3928.00
990.39	3837.89
990.55	3942.34
990.71	3854.28
990.87	3774.41
991.03	3911.62
991.19	3837.89
991.35	3862.47
991.51	3735.50
991.67	3848.13
991.83	3788.74
992.00	3856.33
992.16	3819.46
992.32	3784.65
992.48	3803.08
992.64	3682.25
992.80	3805.13
992.96	3735.50
993.12	3704.78
993.28	3688.39
993.44	3827.65
993.60	3659.72
993.76	3721.16
993.92	3653.58
994.08	3782.60
994.24	3655.62
994.40	3645.38
994.56	3631.05
994.72	3575.75
994.88	3588.04
995.04	3633.10
995.20	3610.57
995.36	3551.18
995.52	3710.92
995.68	3504.07
995.84	3479.50
996.00	3588.04
996.16	3514.31
996.32	3483.59
996.48	3491.79
996.64	3688.39
996.80	3522.51
996.96	3454.92
997.12	3442.64
997.28	3555.27
997.44	3284.94
997.60	3475.40
997.76	3499.98
997.92	3495.88
998.08	3489.74
998.24	3450.83
998.40	3508.17
998.56	3330.00
998.72	3411.92
998.88	3456.97
999.04	3426.25
999.20	3395.53
999.36	3276.75
999.52	3510.22
999.68	3403.72
999.84	3473.36
1000.00	3446.73
1000.16	3370.96
1000.32	3223.50
1000.48	3358.67
1000.64	3174.35
1000.80	3323.85
1000.95	3299.28
1001.11	3338.19
1001.27	3278.80
1001.43	3182.54
1001.59	3205.07
1001.75	3180.50
1001.91	3268.56
1002.07	3112.91
1002.23	3180.50
1002.39	3221.45
1002.55	3133.39
1002.71	3084.24
1002.87	3125.20
1003.03	3196.88
1003.19	3188.69
1003.34	3223.50
1003.50	3172.30
1003.66	3137.49
1003.82	3203.02
1003.98	3135.44
1004.14	3108.82
1004.30	3002.32
1004.46	3047.38
1004.62	3078.10
1004.78	3051.47
1004.94	3092.43
1005.09	3086.29
1005.25	3022.80
1005.41	3030.99
1005.57	3016.66
1005.73	3094.48
1005.89	2985.94
1006.05	3082.19
1006.21	2981.84
1006.37	3033.04
1006.52	2846.68
1006.68	2877.40
1006.84	3002.32
1007.00	2926.55
1007.16	3076.05
1007.32	3043.28
1007.48	2920.40
1007.64	2895.83
1007.79	2955.22
1007.95	2920.40
1008.11	2944.98
1008.27	2889.68
1008.43	2893.78
1008.59	2889.68
1008.75	2924.50
1008.91	2932.69
1009.06	2715.61
1009.22	2834.39
1009.38	2920.40
1009.54	2846.68
1009.70	2895.83
1009.86	2834.39
1010.01	2715.61
1010.17	2789.33
1010.33	2832.34
1010.49	2785.24
1010.65	2822.10
1010.81	2803.67
1010.96	2787.29
1011.12	2760.66
1011.28	2775.00
1011.44	2813.91
1011.60	2758.61
1011.76	2740.18
1011.91	2779.09
1012.07	2559.96
1012.23	2705.37
1012.39	2652.12
1012.55	2756.57
1012.71	2643.93
1012.86	2598.87
1013.02	2731.99
1013.18	2703.32
1013.34	2699.22
1013.50	2699.22
1013.65	2703.32
1013.81	2641.88
1013.97	2625.50
1014.13	2691.03
1014.29	2639.83
1014.44	2682.84
1014.60	2590.68
1014.76	2709.46
1014.92	2533.34
1015.07	2555.86
1015.23	2580.44
1015.39	2598.87
1015.55	2641.88
1015.71	2502.62
1015.86	2537.43
1016.02	2533.34
1016.18	2465.75
1016.34	2598.87
1016.49	2596.82
1016.65	2590.68
1016.81	2496.47
1016.97	2607.06
1017.12	2541.53
1017.28	2535.39
1017.44	2459.61
1017.60	2494.43
1017.75	2428.89
1017.91	2475.99
1018.07	2531.29
1018.23	2453.47
1018.38	2408.41
1018.54	2482.14
1018.70	2435.03
1018.86	2467.80
1019.01	2430.94
1019.17	2435.03
1019.33	2521.05
1019.49	2449.37
1019.64	2531.29
1019.80	2400.22
1019.96	2408.41
1020.12	2445.27
1020.27	2265.05
1020.43	2357.21
1020.59	2338.78
1020.74	2355.16
1020.90	2432.99
1021.06	2338.78
1021.22	2406.36
1021.37	2379.74
1021.53	2293.72
1021.69	2361.31
1021.84	2271.20
1022.00	2320.35
1022.16	2373.60
1022.31	2346.97
1022.47	2430.94
1022.63	2303.96
1022.79	2203.61
1022.94	2346.97
1023.10	2367.45
1023.26	2252.77
1023.41	2312.16
1023.57	2220.00
1023.73	2275.29
1023.88	2279.39
1024.04	2275.29
1024.20	2226.14
1024.35	2351.07
1024.51	2269.15
1024.67	2232.29
1024.82	2351.07
1024.98	2133.98
1025.14	2166.75
1025.29	2197.47
1025.45	2236.38
1025.61	2238.43
1025.76	2176.99
1025.92	2207.71
1026.08	2256.86
1026.23	2293.72
1026.39	2322.40
1026.55	2131.94
1026.70	2088.93
1026.86	2224.09
1027.02	2254.81
1027.17	2187.23
1027.33	2242.53
1027.48	2133.98
1027.64	2121.70
1027.80	2166.75
1027.95	2236.38
1028.11	2056.16
1028.27	2160.61
1028.42	2201.57
1028.58	2207.71
1028.73	2105.31
1028.89	2138.08
1029.05	2170.85
1029.20	2121.70
>>>>>End Processed Spectral Data<<<<<
