SpectraSuite Data File
++++++++++++++++++++++++++++++++++++
Date: Fri Jun 02 14:44:37 CEST 2017
User: INFO_000
Dark Spectrum Present: No
Reference Spectrum Present: No
Number of Sampled Component Spectra: 1
Spectrometers: USB4H00879
Integration Time (usec): 80000 (USB4H00879)
Spectra Averaged: 1 (USB4H00879)
Boxcar Smoothing: 0 (USB4H00879)
Correct for Electrical Dark: No (USB4H00879)
Strobe/Lamp Enabled: No (USB4H00879)
Correct for Detector Non-linearity: No (USB4H00879)
Correct for Stray Light: No (USB4H00879)
Number of Pixels in Processed Spectrum: 3648
>>>>>Begin Processed Spectral Data<<<<<
345.13	1308.65
345.34	1308.65
345.56	1308.65
345.78	1226.73
345.99	1296.36
346.21	1716.20
346.42	1630.18
346.64	1636.33
346.86	1740.77
347.07	1742.82
347.29	1697.77
347.50	1570.79
347.72	1630.18
347.94	1802.21
348.15	1583.08
348.37	1609.70
348.59	1626.09
348.80	1613.80
349.02	1753.06
349.23	1869.80
349.45	1845.22
349.67	1869.80
349.88	1812.45
350.10	1912.80
350.31	1882.08
350.53	1818.60
350.75	2004.96
350.96	1802.21
351.18	1808.36
351.39	1898.47
351.61	1755.11
351.82	1884.13
352.04	1949.67
352.26	1863.65
352.47	1898.47
352.69	1923.04
352.90	1689.57
353.12	1839.08
353.34	1886.18
353.55	1916.90
353.77	1914.85
353.98	1822.69
354.20	1763.30
354.41	1918.95
354.63	1902.56
354.85	2074.59
355.06	1918.95
355.28	1798.12
355.49	1865.70
355.71	1904.61
355.92	1937.38
356.14	1955.81
356.35	1892.32
356.57	1859.56
356.79	1904.61
357.00	1906.66
357.22	1925.09
357.43	1855.46
357.65	1875.94
357.86	1910.75
358.08	1908.71
358.29	1943.52
358.51	2004.96
358.72	1959.91
358.94	1865.70
359.16	1949.67
359.37	1892.32
359.59	1986.53
359.80	1972.19
360.02	2007.01
360.23	1918.95
360.45	2007.01
360.66	2000.87
360.88	1884.13
361.09	1902.56
361.31	1992.67
361.52	1943.52
361.74	2009.06
361.95	2080.74
362.17	1982.43
362.38	2045.92
362.60	2064.35
362.81	1949.67
363.03	1992.67
363.24	1984.48
363.46	2084.83
363.67	2117.60
363.89	2035.68
364.10	1949.67
364.32	1964.00
364.53	2019.30
364.75	1929.19
364.96	1949.67
365.18	1959.91
365.39	2050.02
365.61	1998.82
365.82	2076.64
366.04	1937.38
366.25	1976.29
366.47	1998.82
366.68	2064.35
366.90	1984.48
367.11	2125.79
367.33	2107.36
367.54	2111.46
367.76	1986.53
367.97	2043.87
368.19	2017.25
368.40	2082.78
368.62	1904.61
368.83	2025.44
369.05	2115.55
369.26	1986.53
369.48	2076.64
369.69	1953.76
369.91	2033.63
370.12	1970.15
370.33	2084.83
370.55	1964.00
370.76	1961.95
370.98	2088.93
371.19	2068.45
371.41	2002.91
371.62	2097.12
371.84	2025.44
372.05	2195.42
372.27	2056.16
372.48	2076.64
372.69	2090.98
372.91	2142.18
373.12	2205.66
373.34	2111.46
373.55	2154.46
373.77	2148.32
373.98	2093.02
374.20	2078.69
374.41	2250.72
374.62	2179.04
374.84	2224.09
375.05	2228.19
375.27	2222.05
375.48	2197.47
375.70	2244.57
375.91	2263.01
376.12	2191.33
376.34	2090.98
376.55	2158.56
376.77	2205.66
376.98	2037.73
377.19	2117.60
377.41	2142.18
377.62	2129.89
377.84	2142.18
378.05	2353.12
378.27	2150.37
378.48	2279.39
378.69	2416.60
378.91	2297.82
379.12	2273.25
379.34	2133.98
379.55	2338.78
379.76	2279.39
379.98	2205.66
380.19	2263.01
380.41	2252.77
380.62	2195.42
380.83	2256.86
381.05	2205.66
381.26	2365.40
381.47	2250.72
381.69	2220.00
381.90	2381.79
382.12	2303.96
382.33	2285.53
382.54	2330.59
382.76	2383.84
382.97	2269.15
383.19	2260.96
383.40	2377.69
383.61	2320.35
383.83	2131.94
384.04	2373.60
384.25	2404.32
384.47	2459.61
384.68	2353.12
384.89	2394.08
385.11	2412.51
385.32	2306.01
385.54	2441.18
385.75	2445.27
385.96	2385.88
386.18	2396.12
386.39	2441.18
386.60	2332.64
386.82	2506.71
387.03	2387.93
387.24	2584.54
387.46	2404.32
387.67	2523.10
387.88	2549.72
388.10	2461.66
388.31	2424.80
388.52	2629.59
388.74	2580.44
388.95	2463.71
389.16	2510.81
389.38	2457.56
389.59	2570.20
389.80	2475.99
390.02	2549.72
390.23	2684.89
390.44	2533.34
390.66	2580.44
390.87	2551.77
391.08	2566.10
391.30	2682.84
391.51	2617.30
391.72	2607.06
391.94	2764.76
392.15	2527.19
392.36	2641.88
392.58	2672.60
392.79	2723.80
393.00	2715.61
393.22	2719.70
393.43	2744.28
393.64	2799.57
393.85	2820.05
394.07	2607.06
394.28	2791.38
394.49	2789.33
394.71	2844.63
394.92	2770.90
395.13	2744.28
395.35	2764.76
395.56	2891.73
395.77	2764.76
395.98	2883.54
396.20	2846.68
396.41	2822.10
396.62	2910.16
396.84	2852.82
397.05	2848.72
397.26	2822.10
397.47	2922.45
397.69	2750.42
397.90	3053.52
398.11	2830.29
398.32	2779.09
398.54	2826.20
398.75	2893.78
398.96	2873.30
399.18	3080.14
399.39	2983.89
399.60	3125.20
399.81	2938.84
400.03	3012.56
400.24	3289.04
400.45	2912.21
400.66	3127.25
400.88	3076.05
401.09	3223.50
401.30	2961.36
401.51	3157.97
401.73	3176.40
401.94	3194.83
402.15	3082.19
402.36	3055.57
402.58	3065.81
402.79	3254.22
403.00	3141.58
403.21	3139.54
403.43	3129.30
403.64	3286.99
403.85	3041.23
404.06	3297.23
404.27	3090.38
404.49	3086.29
404.70	3157.97
404.91	3274.70
405.12	3235.79
405.34	3219.41
405.55	3383.24
405.76	3194.83
405.97	3309.52
406.19	3491.79
406.40	3227.60
406.61	3334.09
406.82	3368.91
407.03	3307.47
407.25	3248.08
407.46	3387.34
407.67	3301.33
407.88	3489.74
408.09	3327.95
408.31	3327.95
408.52	3506.12
408.73	3395.53
408.94	3348.43
409.15	3397.58
409.37	3422.16
409.58	3487.69
409.79	3510.22
410.00	3618.76
410.21	3469.26
410.43	3483.59
410.64	3395.53
410.85	3526.60
411.06	3551.18
411.27	3463.12
411.48	3719.11
411.70	3596.23
411.91	3641.29
412.12	3704.78
412.33	3534.79
412.54	3698.63
412.76	3747.78
412.97	3626.95
413.18	3481.55
413.39	3653.58
413.60	3801.03
413.81	3786.69
414.03	3776.45
414.24	3555.27
414.45	3903.43
414.66	3579.85
414.87	3811.27
415.08	3745.73
415.30	3780.55
415.51	3844.04
415.72	3792.84
415.93	3805.13
416.14	3915.72
416.35	3887.04
416.56	3821.51
416.78	3936.20
416.99	3905.48
417.20	3860.42
417.41	3936.20
417.62	3958.72
417.83	4034.50
418.04	3981.25
418.26	3936.20
418.47	3868.61
418.68	3968.96
418.89	3981.25
419.10	4153.28
419.31	3911.62
419.52	3985.35
419.73	4067.27
419.95	4026.31
420.16	3874.76
420.37	3993.54
420.58	4138.94
420.79	3948.48
421.00	4089.79
421.21	4159.42
421.42	3995.59
421.63	4237.25
421.85	4157.38
422.06	4265.92
422.27	4188.10
422.48	4140.99
422.69	4165.57
422.90	4261.82
423.11	4272.06
423.32	4423.61
423.53	4278.21
423.75	4411.32
423.96	4509.63
424.17	4405.18
424.38	4607.93
424.59	4413.37
424.80	4669.37
425.01	4491.20
425.22	4392.89
425.43	4452.28
425.64	4505.53
425.85	4601.79
426.06	4558.78
426.28	4495.29
426.49	4519.87
426.70	4661.18
426.91	4638.65
427.12	4636.60
427.33	4720.57
427.54	4636.60
427.75	4755.38
427.96	4816.82
428.17	4732.86
428.38	4726.71
428.59	5031.86
428.80	4753.34
429.01	4978.61
429.23	4816.82
429.44	4982.71
429.65	5048.24
429.86	4976.56
430.07	4886.45
430.28	5048.24
430.49	4999.09
430.70	5238.70
430.91	5218.22
431.12	4939.70
431.33	5212.08
431.54	5226.42
431.75	5011.38
431.96	5140.40
432.17	5027.76
432.38	5210.03
432.59	5380.01
432.80	5212.08
433.01	5312.43
433.22	5279.66
433.43	5287.86
433.64	5361.58
433.85	5289.90
434.06	5408.69
434.27	5402.54
434.49	5380.01
434.70	5570.48
434.91	5351.34
435.12	5390.25
435.33	5425.07
435.54	5517.23
435.75	5369.77
435.96	5533.61
436.17	5476.27
436.38	5709.74
436.59	5625.77
436.80	5584.81
437.01	5902.25
437.22	5885.86
437.43	5748.65
437.64	5679.02
437.85	5873.57
438.06	5824.42
438.27	5623.72
438.48	5814.18
438.69	5955.49
438.90	5871.53
439.11	5742.50
439.32	6029.22
439.53	5939.11
439.74	6064.04
439.95	5980.07
440.16	6158.24
440.37	5908.39
440.57	5883.81
440.78	5957.54
440.99	5967.78
441.20	5939.11
441.41	5894.05
441.62	5992.36
441.83	6131.62
442.04	6115.23
442.25	6160.29
442.46	5998.50
442.67	6164.39
442.88	6465.44
443.09	6188.96
443.30	6115.23
443.51	6336.42
443.72	6565.79
443.93	6180.77
444.14	6717.34
444.35	6379.42
444.56	6594.46
444.77	6356.90
444.98	6444.96
445.19	6533.02
445.40	6428.57
445.61	6490.01
445.81	6567.84
446.02	6434.72
446.23	6518.68
446.44	6440.86
446.65	6680.47
446.86	6571.93
447.07	6643.61
447.28	6717.34
447.49	6877.08
447.70	6539.16
447.91	6715.29
448.12	6762.39
448.33	6852.50
448.54	6893.46
448.74	6862.74
448.95	7036.82
449.16	6770.58
449.37	6866.84
449.58	6918.04
449.79	6975.38
450.00	6965.14
450.21	6993.81
450.42	7155.60
450.63	7096.21
450.84	7075.73
451.05	7032.72
451.25	7137.17
451.46	6979.48
451.67	7102.36
451.88	7235.47
452.09	7364.50
452.30	7077.78
452.51	7258.00
452.72	7262.10
452.93	7497.61
453.13	7292.82
453.34	7270.29
453.55	7350.16
453.76	7313.30
453.97	7802.76
454.18	7620.49
454.39	7620.49
454.60	7462.80
454.81	7450.51
455.01	7722.89
455.22	7376.78
455.43	7569.29
455.64	7878.54
455.85	7921.54
456.06	8087.43
456.27	7870.34
456.48	7608.20
456.68	7843.72
456.89	7849.86
457.10	8169.35
457.31	8101.76
457.52	8050.57
457.73	7993.22
457.94	8261.51
458.14	7978.89
458.35	8425.34
458.56	8318.85
458.77	8087.43
458.98	8443.78
459.19	8408.96
459.39	8433.54
459.60	8580.99
459.81	8298.37
460.02	8707.96
460.23	8359.81
460.44	8814.46
460.65	8537.98
460.85	8918.90
461.06	8791.93
461.27	8433.54
461.48	8970.10
461.69	8949.62
461.89	8679.29
462.10	9009.01
462.31	8808.31
462.52	8802.17
462.73	9043.83
462.94	9123.70
463.14	9146.23
463.35	8990.58
463.56	9580.40
463.77	9416.56
463.98	9279.35
464.18	9269.11
464.39	9488.24
464.60	9623.41
464.81	9639.79
465.02	9516.91
465.23	9869.16
465.43	9535.34
465.64	10063.72
465.85	9783.15
466.06	9680.75
466.27	10123.11
466.47	10026.86
466.68	10096.49
466.89	10116.97
467.10	10123.11
467.30	10243.94
467.51	10225.51
467.72	10493.79
467.93	10309.47
468.14	10483.55
468.34	10436.45
468.55	10567.52
468.76	10590.05
468.97	10553.18
469.17	10805.08
469.38	10669.92
469.59	11005.78
469.80	10788.70
470.01	11028.31
470.21	11032.41
470.42	11288.40
470.63	11452.24
470.84	11435.86
471.04	11487.06
471.25	11480.91
471.46	11554.64
471.67	11759.44
471.87	11673.42
472.08	11808.59
472.29	11814.73
472.50	11700.05
472.70	11788.11
472.91	11857.74
473.12	12193.61
473.33	12058.44
473.53	12472.13
473.74	12293.96
473.95	12584.77
474.16	12853.05
474.36	12656.45
474.57	12736.32
474.78	12838.72
474.99	12824.38
475.19	12820.28
475.40	13084.47
475.61	13113.14
475.81	13573.94
476.02	13383.48
476.23	13313.84
476.44	13602.61
476.64	13674.29
476.85	13727.53
477.06	13756.21
477.27	13778.73
477.47	13918.00
477.68	13918.00
477.89	14221.10
478.09	14047.02
478.30	14221.10
478.51	14290.73
478.71	14454.56
478.92	14546.72
479.13	14716.70
479.34	14860.06
479.54	14604.07
479.75	14692.13
479.96	14688.03
480.16	14962.46
480.37	15163.16
480.58	15134.49
480.78	15435.54
480.99	15535.89
481.20	15472.40
481.41	15709.97
481.61	15744.78
481.82	15918.86
482.03	15789.84
482.23	15832.85
482.44	16056.08
482.65	16279.30
482.85	16129.80
483.06	16254.73
483.27	16467.72
483.47	16256.78
483.68	16584.45
483.89	16531.20
484.09	16584.45
484.30	16813.82
484.51	17075.96
484.71	17104.64
484.92	17049.34
485.13	17061.63
485.33	17479.41
485.54	17262.33
485.75	17721.07
485.95	17743.60
486.16	17565.43
486.37	17565.43
486.57	17737.46
486.78	17733.36
486.98	17817.33
487.19	18134.76
487.40	18030.32
487.60	18202.35
487.81	18278.12
488.02	18083.56
488.22	18468.58
488.43	18798.31
488.64	18562.79
488.84	18636.52
489.05	18861.79
489.25	18573.03
489.46	19238.62
489.67	19042.01
489.87	19121.88
490.08	19201.76
490.29	19117.79
490.49	19615.44
490.70	19621.59
490.90	19775.19
491.11	19586.77
491.32	19850.96
491.52	19777.23
491.73	19879.63
491.94	19920.59
492.14	19939.02
492.35	20160.20
492.55	20295.37
492.76	20309.71
492.97	20692.68
493.17	20463.30
493.38	20586.18
493.58	20633.29
493.79	20932.29
494.00	20805.31
494.20	20797.12
494.41	21010.11
494.61	20874.95
494.82	21145.28
495.02	21233.34
495.23	21145.28
495.44	21544.63
495.64	21558.97
495.85	21466.81
496.05	21628.60
496.26	21487.29
496.47	22365.87
496.67	21690.04
496.88	22023.86
497.08	21950.13
497.29	22189.74
497.49	22294.19
497.70	22206.13
497.91	22189.74
498.11	22453.93
498.32	22744.74
498.52	22496.94
498.73	23000.74
498.93	22763.17
499.14	22859.43
499.34	22765.22
499.55	23152.29
499.76	22836.90
499.96	23021.22
500.17	23148.19
500.37	23228.06
500.58	23410.33
500.78	23604.89
500.99	23590.55
501.19	23838.36
501.40	23529.11
501.60	23697.05
501.81	23580.31
502.02	24057.49
502.22	23817.88
502.43	24434.32
502.63	24315.53
502.84	24194.70
503.04	24188.56
503.25	24467.08
503.45	24327.82
503.66	24747.65
503.86	24512.14
504.07	24837.76
504.27	24487.56
504.48	25030.27
504.68	24981.12
504.89	25329.28
505.09	25081.47
505.30	24919.68
505.50	25167.49
505.71	25253.50
505.91	25478.78
506.12	25519.74
506.32	25192.06
506.53	25550.46
506.73	25767.54
506.94	25923.19
507.14	25644.66
507.35	25919.09
507.55	25859.70
507.76	26154.61
507.96	25929.33
508.17	26297.97
508.37	25939.57
508.58	26244.72
508.78	26146.42
508.99	26242.67
509.19	26553.96
509.40	26867.30
509.60	26621.55
509.81	26707.56
510.01	26705.51
510.22	26734.18
510.42	26807.91
510.63	26746.47
510.83	26818.15
511.04	27237.98
511.24	27178.59
511.44	27029.09
511.65	27131.49
511.85	27240.03
512.06	27430.49
512.26	27473.50
512.47	27518.56
512.67	27551.32
512.88	27479.64
513.08	27360.86
513.29	27729.50
513.49	27774.55
513.69	27694.68
513.90	27696.73
514.10	27876.95
514.31	27881.05
514.51	27868.76
514.72	28259.92
514.92	28005.97
515.13	28096.08
515.33	28077.65
515.53	28393.04
515.74	28137.04
515.94	28415.57
516.15	28376.66
516.35	28173.91
516.56	28960.33
516.76	28655.18
516.96	28687.95
517.17	28739.15
517.37	28692.04
517.58	28919.37
517.78	29316.67
517.99	28743.24
518.19	29204.03
518.39	29056.58
518.60	29195.84
518.80	29013.57
519.01	29441.60
519.21	29154.88
519.41	29660.73
519.62	29238.85
519.82	29482.56
520.03	29417.02
520.23	29503.04
520.43	29695.55
520.64	30240.31
520.84	30017.08
521.05	29931.06
521.25	30025.27
521.45	29564.48
521.66	30068.28
521.86	29853.24
522.07	30131.76
522.27	30303.79
522.47	30389.81
522.68	30522.93
522.88	30283.31
523.08	30887.46
523.29	30533.17
523.49	30920.23
523.70	30484.01
523.90	30651.95
524.10	30400.05
524.31	31190.56
524.51	30793.26
524.71	31557.15
524.92	30850.60
525.12	31061.54
525.33	31092.26
525.53	31151.65
525.73	31426.08
525.94	31512.10
526.14	31508.00
526.34	31643.17
526.55	31598.11
526.75	31524.38
526.95	32093.72
527.16	32116.25
527.36	32122.39
527.56	32331.28
527.77	32310.80
527.97	32204.31
528.17	31862.30
528.38	32468.50
528.58	32255.51
528.78	32284.18
528.99	32331.28
529.19	32615.95
529.39	32605.71
529.60	33066.50
529.80	32562.70
530.00	32822.80
530.21	32806.41
530.41	33166.85
530.61	33173.00
530.82	33336.84
531.02	32923.15
531.22	33881.60
531.43	33531.39
531.63	33646.08
531.83	33652.22
532.04	34133.50
532.24	33607.17
532.44	34244.09
532.64	33869.31
532.85	33897.98
533.05	34381.30
533.25	34549.23
533.46	33900.03
533.66	34375.16
533.86	34399.73
534.07	34366.96
534.27	34870.76
534.47	34895.34
534.67	34665.97
534.88	34436.59
535.08	34928.11
535.28	35116.52
535.49	35452.39
535.69	35302.89
535.89	35616.22
536.09	35182.06
536.30	35712.48
536.50	35741.15
536.70	35689.95
536.91	35718.62
537.11	35898.84
537.31	36056.54
537.51	35806.69
537.72	36421.08
537.92	36128.22
538.12	36449.75
538.32	36500.95
538.53	36648.40
538.73	36408.79
538.93	36513.23
539.13	37086.67
539.34	37031.37
539.54	36963.79
539.74	37361.09
539.94	37029.32
540.15	36984.27
540.35	37160.39
540.55	37264.84
540.75	37426.63
540.96	37422.53
541.16	37367.24
541.36	37733.82
541.56	37901.76
541.77	37883.33
541.97	38204.86
542.17	38163.90
542.37	38452.66
542.58	38143.42
542.78	38231.48
542.98	38188.47
543.18	38395.32
543.38	38774.19
543.59	38856.11
543.79	38626.74
543.99	38563.25
544.19	38673.84
544.40	39044.52
544.60	38985.13
544.80	39218.60
545.00	39144.87
545.20	39288.23
545.41	39151.02
545.61	39103.92
545.81	39716.26
546.01	39585.19
546.21	39490.98
546.42	39622.05
546.62	39749.03
546.82	39716.26
547.02	39871.90
547.22	39861.66
547.43	39992.73
547.63	40152.48
547.83	40582.55
548.03	40252.83
548.23	40830.35
548.44	39986.59
548.64	40523.16
548.84	40586.64
549.04	40670.61
549.24	41180.56
549.45	41211.28
549.65	40811.92
549.85	40555.93
550.05	41151.88
550.25	41194.89
550.45	41256.33
550.66	41274.76
550.86	40904.08
551.06	41424.26
551.26	41246.09
551.46	41661.83
551.66	41661.83
551.87	41565.57
552.07	41823.62
552.27	41688.45
552.47	41790.85
552.67	42104.19
552.87	42276.22
553.07	41966.98
553.28	42141.05
553.48	42024.32
553.68	42218.88
553.88	42538.36
554.08	42425.72
554.28	42214.78
554.48	42335.61
554.69	42399.10
554.89	42370.43
555.09	42485.11
555.29	42458.49
555.49	42739.06
555.69	42376.57
555.89	42663.28
556.10	43318.64
556.30	42726.77
556.50	42737.01
556.70	42558.84
556.90	43101.55
557.10	43072.88
557.30	43193.71
557.50	43351.40
557.70	43523.43
557.91	43498.86
558.11	42966.38
558.31	43308.40
558.51	43062.64
558.71	43476.33
558.91	43795.81
559.11	43275.63
559.31	43408.75
559.51	43109.74
559.72	43742.56
559.92	43548.01
560.12	43394.41
560.32	43502.95
560.52	43988.32
560.72	44004.70
560.92	43877.73
561.12	43971.94
561.32	44406.11
561.52	43799.91
561.72	44174.69
561.93	43951.46
562.13	44107.10
562.33	43709.80
562.53	44594.52
562.73	44336.48
562.93	43674.98
563.13	44174.69
563.33	44053.86
563.53	44123.49
563.73	43894.11
563.93	44395.87
564.13	44713.30
564.33	44418.39
564.53	44469.59
564.74	44430.68
564.94	44608.86
565.14	44598.62
565.34	44508.50
565.54	44531.03
565.74	44485.98
565.94	44528.98
566.14	44526.94
566.34	44688.73
566.54	44844.37
566.74	44670.29
566.94	44711.25
567.14	45096.27
567.34	44281.18
567.54	44979.54
567.74	44719.45
567.94	44688.73
568.14	44877.14
568.34	45155.66
568.54	44873.04
568.74	45444.43
568.94	45303.12
569.14	45329.74
569.34	45454.67
569.54	45049.17
569.75	44655.96
569.95	44989.78
570.15	45550.92
570.35	45593.93
570.55	45251.92
570.75	45391.18
570.95	45106.51
571.15	45620.55
571.35	45213.01
571.55	45815.11
571.75	45217.10
571.95	45143.38
572.15	45387.08
572.35	45624.65
572.55	45536.59
572.75	45696.33
572.95	45593.93
573.15	46015.81
573.35	45958.47
573.55	45731.14
573.75	45477.19
573.95	45946.18
574.15	45761.86
574.35	45872.45
574.55	45653.32
574.75	45614.41
574.95	46118.21
575.15	45704.52
575.34	46069.06
575.54	46204.22
575.74	46251.33
575.94	45901.12
576.14	46056.77
576.34	46404.92
576.54	46396.73
576.74	46363.96
576.94	45995.33
577.14	46118.21
577.34	46732.60
577.54	45831.49
577.74	46290.24
577.94	46314.81
578.14	46628.15
578.34	46587.19
578.54	46036.29
578.74	46144.83
578.94	46617.91
579.14	46513.47
579.34	46617.91
579.54	46708.02
579.74	46658.87
579.94	46832.95
580.13	46990.64
580.33	46650.68
580.53	47086.90
580.73	47029.55
580.93	47297.84
581.13	46931.25
581.33	47242.54
581.53	47129.90
581.73	47228.21
581.93	47138.10
582.13	47254.83
582.33	47541.55
582.53	47412.52
582.73	47740.20
582.92	47463.72
583.12	47682.86
583.32	47586.60
583.52	47138.10
583.72	47787.30
583.92	47461.68
584.12	47584.55
584.32	48024.87
584.52	47977.76
584.72	48078.11
584.92	48026.92
585.11	48344.35
585.31	48280.86
585.51	48264.48
585.71	47613.23
585.91	48059.68
586.11	48100.64
586.31	48428.32
586.51	48192.80
586.71	48123.17
586.91	48669.98
587.10	48450.84
587.30	48221.47
587.50	48723.22
587.70	48588.06
587.90	49356.05
588.10	48463.13
588.30	48727.32
588.50	49036.56
588.69	49358.09
588.89	48706.84
589.09	48874.77
589.29	49315.09
589.49	49640.71
589.69	48821.53
589.89	49587.47
590.08	49042.71
590.28	49515.79
590.48	49526.03
590.68	49132.82
590.88	49579.28
591.08	49493.26
591.28	49569.04
591.47	49599.76
591.67	49714.44
591.87	49757.45
592.07	49698.06
592.27	50103.56
592.47	49888.52
592.67	50081.03
592.86	49765.64
593.06	50251.01
593.26	49960.20
593.46	50365.70
593.66	50017.54
593.86	50078.98
594.05	50197.76
594.25	50767.10
594.45	50427.13
594.65	50691.32
594.85	49798.41
595.05	50742.52
595.24	50967.80
595.44	50728.19
595.64	50640.12
595.84	50781.43
596.04	50746.62
596.23	50820.34
596.43	51199.22
596.63	51283.19
596.83	51420.40
597.03	51795.18
597.22	51680.49
597.42	51649.77
597.62	51365.10
597.82	51389.68
598.02	51436.78
598.21	51664.11
598.41	51565.81
598.61	51868.90
598.81	51723.50
599.01	52188.39
599.20	51909.86
599.40	51494.13
599.60	52163.81
599.80	52327.65
600.00	52251.87
600.19	52282.59
600.39	52237.54
600.59	52608.22
600.79	52778.20
600.98	52307.17
601.18	52581.60
601.38	52851.93
601.58	53288.15
601.78	52964.57
601.97	52913.37
602.17	53253.33
602.37	53081.30
602.57	53103.83
602.76	53318.87
602.96	53230.80
603.16	53269.72
603.36	53159.12
603.55	53896.39
603.75	53712.08
603.95	53933.26
604.15	53869.77
604.34	53519.57
604.54	54148.29
604.74	53986.50
604.94	54281.41
605.13	54394.05
605.33	54060.23
605.53	54103.24
605.73	54607.04
605.92	53667.02
606.12	54697.15
606.32	54324.42
606.52	54652.09
606.71	54389.95
606.91	54871.23
607.11	54473.92
607.30	54760.64
607.50	54789.31
607.70	55094.46
607.90	54553.79
608.09	54541.50
608.29	54316.23
608.49	55014.58
608.68	54959.29
608.88	55153.85
609.08	55262.39
609.28	54992.06
609.47	55178.42
609.67	55526.58
609.87	55344.31
610.06	54891.71
610.26	55186.61
610.46	55520.43
610.66	54983.86
610.85	55354.55
611.05	55153.85
611.25	55473.33
611.44	55258.29
611.64	55284.92
611.84	55182.52
612.03	55047.35
612.23	55530.67
612.43	55581.87
612.62	55555.25
612.82	55719.09
613.02	55667.89
613.21	55686.32
613.41	55424.18
613.61	55964.84
613.80	55415.99
614.00	55596.21
614.20	55387.31
614.39	55991.47
614.59	55919.79
614.79	55776.43
614.98	55590.06
615.18	55741.61
615.38	56065.19
615.57	55727.28
615.77	56542.37
615.97	55950.51
616.16	55661.74
616.36	55801.00
616.56	56054.95
616.75	55643.31
616.95	55659.69
617.15	56118.44
617.34	55682.22
617.54	55788.72
617.74	56204.45
617.93	56380.58
618.13	55604.40
618.32	55651.50
618.52	55680.17
618.72	55813.29
618.91	55663.79
619.11	55696.56
619.31	55774.38
619.50	55841.96
619.70	55477.43
619.90	56001.71
620.09	55739.57
620.29	55792.81
620.48	55805.10
620.68	56171.69
620.88	55403.70
621.07	55653.55
621.27	55968.94
621.46	55254.20
621.66	55499.95
621.86	56050.86
622.05	55190.71
622.25	56159.40
622.44	55901.36
622.64	55571.63
622.84	55731.37
623.03	55252.15
623.23	55268.53
623.42	55348.40
623.62	55465.14
623.82	55637.17
624.01	55729.33
624.21	55755.95
624.40	55604.40
624.60	55549.10
624.80	55686.32
624.99	55375.03
625.19	55178.42
625.38	55874.73
625.58	55465.14
625.77	55653.55
625.97	55612.59
626.17	55053.50
626.36	55325.88
626.56	55340.21
626.75	54832.32
626.95	55686.32
627.14	55033.02
627.34	55682.22
627.54	55129.27
627.73	55528.62
627.93	55114.94
628.12	54891.71
628.32	55317.68
628.51	54883.51
628.71	55030.97
628.90	55145.65
629.10	55067.83
629.30	55219.38
629.49	54869.18
629.69	55155.89
629.88	54676.67
630.08	55293.11
630.27	55164.09
630.47	55067.83
630.66	54738.11
630.86	55248.05
631.05	54828.22
631.25	55211.19
631.44	55121.08
631.64	54836.41
631.84	54944.95
632.03	55237.81
632.23	55336.12
632.42	55030.97
632.62	55030.97
632.81	55028.92
633.01	54858.94
633.20	55465.14
633.40	54844.60
633.59	54801.60
633.79	54750.40
633.98	55121.08
634.18	55250.10
634.37	55430.32
634.57	55086.26
634.76	55143.61
634.96	55223.48
635.15	54848.70
635.35	54727.87
635.54	54990.01
635.74	55131.32
635.93	54817.98
636.13	55260.34
636.32	55096.50
636.52	54734.01
636.71	55102.65
636.91	55221.43
637.10	55186.61
637.30	54674.62
637.49	54916.28
637.69	55033.02
637.88	55139.51
638.08	54887.61
638.27	55090.36
638.46	54957.24
638.66	54596.80
638.85	54990.01
639.05	55401.65
639.24	55096.50
639.44	54668.48
639.63	55223.48
639.83	54949.05
640.02	55215.29
640.22	54955.19
640.41	55071.93
640.61	54590.66
640.80	54795.45
640.99	54324.42
641.19	55368.88
641.38	55008.44
641.58	54770.88
641.77	54654.14
641.97	54596.80
642.16	54867.13
642.36	55078.07
642.55	55536.82
642.74	54602.94
642.94	55575.73
643.13	55162.04
643.33	55495.86
643.52	55352.50
643.72	55284.92
643.91	55256.24
644.10	55254.20
644.30	55346.36
644.49	55014.58
644.69	55563.44
644.88	55151.80
645.08	54891.71
645.27	55334.07
645.46	54596.80
645.66	55452.85
645.85	54965.43
646.05	55598.26
646.24	55344.31
646.43	55522.48
646.63	55540.91
646.82	55635.12
647.02	55534.77
647.21	55444.66
647.40	55407.79
647.60	55684.27
647.79	55864.49
647.99	55631.02
648.18	55157.94
648.37	55927.98
648.57	55866.54
648.76	55766.19
648.96	55882.92
649.15	56378.53
649.34	56054.95
649.54	55528.62
649.73	55833.77
649.92	56061.10
650.12	55930.03
650.31	55860.40
650.51	55917.74
650.70	56214.69
650.89	55481.52
651.09	56243.37
651.28	55796.91
651.47	56224.93
651.67	56106.15
651.86	56593.57
652.06	55579.82
652.25	55991.47
652.44	56052.90
652.64	55983.27
652.83	56079.53
653.02	56120.49
653.22	56024.23
653.41	56337.57
653.60	55884.97
653.80	56339.62
653.99	56120.49
654.18	56118.44
654.38	56054.95
654.57	56337.57
654.76	55973.03
654.96	56480.93
655.15	56472.74
655.34	56038.57
655.54	55940.27
655.73	56497.31
655.92	56480.93
656.12	56695.97
656.31	56384.68
656.50	56186.02
656.70	56958.11
656.89	56208.55
657.08	56411.30
657.28	56388.77
657.47	56765.60
657.66	56276.13
657.86	56665.25
658.05	56921.24
658.24	56736.93
658.43	56503.46
658.63	56763.55
658.82	56747.17
659.01	57017.50
659.21	56743.07
659.40	57132.18
659.59	56399.01
659.79	56876.19
659.98	56597.66
660.17	56966.30
660.36	56921.24
660.56	56640.67
660.75	57070.75
660.94	57222.29
661.14	57095.32
661.33	56714.40
661.52	56777.89
661.71	57302.17
661.91	56726.69
662.10	57119.90
662.29	57496.72
662.49	57132.18
662.68	57103.51
662.87	57144.47
663.06	57277.59
663.26	57332.89
663.45	57433.24
663.64	57103.51
663.83	57754.77
664.03	57189.53
664.22	57578.64
664.41	57603.22
664.60	57441.43
664.80	57332.89
664.99	57466.00
665.18	57228.44
665.37	57537.68
665.57	57625.74
665.76	57429.14
665.95	57791.63
666.14	57562.26
666.34	57425.04
666.53	57037.98
666.72	57406.61
666.91	57253.01
667.11	57121.94
667.30	57783.44
667.49	57582.74
667.68	57658.51
667.87	57377.94
668.07	57676.94
668.26	57924.75
668.45	57564.31
668.64	57445.52
668.84	58434.69
669.03	57871.50
669.22	57793.68
669.41	58379.40
669.60	57660.56
669.80	57429.14
669.99	57728.14
670.18	57760.91
670.37	57705.62
670.57	57932.94
670.76	57666.70
670.95	58180.74
671.14	57846.93
671.33	57597.07
671.53	57998.48
671.72	57601.17
671.91	57521.30
672.10	57582.74
672.29	58121.35
672.48	57762.96
672.68	58117.26
672.87	57791.63
673.06	57750.67
673.25	57638.03
673.44	57816.21
673.64	57418.90
673.83	57783.44
674.02	57767.05
674.21	57685.14
674.40	58090.63
674.59	57867.40
674.79	57959.56
674.98	57588.88
675.17	58070.15
675.36	57627.79
675.55	57984.14
675.74	57466.00
675.94	57820.30
676.13	57857.17
676.32	58285.19
676.51	57959.56
676.70	58098.83
676.89	57828.49
677.08	58180.74
677.28	57777.29
677.47	58041.48
677.66	58053.77
677.85	57773.20
678.04	58074.25
678.23	58311.81
678.42	58211.46
678.62	57713.81
678.81	58229.90
679.00	57670.80
679.19	58610.82
679.38	58047.63
679.57	58047.63
679.76	57652.37
679.96	58021.00
680.15	57531.54
680.34	57885.84
680.53	57793.68
680.72	57607.31
680.91	58135.69
681.10	57832.59
681.29	57750.67
681.48	57615.50
681.68	57693.33
681.87	57566.35
682.06	57590.93
682.25	57267.35
682.44	57492.63
682.63	57529.49
682.82	57439.38
683.01	57709.71
683.20	57197.72
683.39	57453.72
683.59	57246.87
683.78	57128.09
683.97	57345.17
684.16	57468.05
684.35	57019.55
684.54	57605.26
684.73	57070.75
684.92	57148.57
685.11	56902.81
685.30	57070.75
685.49	57601.17
685.69	56986.78
685.88	57373.84
686.07	57185.43
686.26	57164.95
686.45	57308.31
686.64	57291.93
686.83	56710.30
687.02	56947.87
687.21	57037.98
687.40	56773.79
687.59	56771.74
687.78	56937.63
687.97	57169.05
688.16	56886.43
688.35	56919.20
688.54	56845.47
688.74	56913.05
688.93	56990.87
689.12	56833.18
689.31	56571.04
689.50	56927.39
689.69	55948.46
689.88	56276.13
690.07	56292.52
690.26	56493.22
690.45	56945.82
690.64	56169.64
690.83	56681.63
691.02	56032.42
691.21	56116.39
691.40	55975.08
691.59	56343.72
691.78	56353.96
691.97	56337.57
692.16	56313.00
692.35	56341.67
692.54	56126.63
692.73	56132.78
692.92	55866.54
693.11	56204.45
693.30	55983.27
693.49	56226.98
693.68	56161.45
693.87	56267.94
694.06	55301.30
694.25	55903.40
694.44	55293.11
694.63	55841.96
694.82	55983.27
695.01	55446.71
695.20	55329.97
695.39	55985.32
695.58	55319.73
695.77	55454.90
695.96	55237.81
696.15	55719.09
696.34	55319.73
696.53	55239.86
696.72	55540.91
696.91	55370.93
697.10	54893.75
697.29	54662.33
697.48	55037.11
697.67	55233.72
697.86	54668.48
698.05	54750.40
698.24	55297.20
698.43	54648.00
698.62	55194.81
698.81	54604.99
699.00	55022.78
699.19	54199.49
699.38	55002.30
699.57	54381.76
699.76	54557.89
699.95	54312.13
700.14	54064.33
700.32	54174.92
700.51	54072.52
700.70	54725.82
700.89	54762.68
701.08	54916.28
701.27	54029.51
701.46	54518.98
701.65	53517.52
701.84	54113.48
702.03	53802.19
702.22	53900.49
702.41	53957.83
702.60	53810.38
702.79	54043.85
702.98	53650.64
703.17	53581.01
703.35	53617.87
703.54	53454.03
703.73	53845.19
703.92	53611.73
704.11	53675.21
704.30	53554.38
704.49	53073.11
704.68	53183.70
704.87	53599.44
705.06	53398.74
705.25	53304.53
705.43	53601.49
705.62	53546.19
705.81	53097.69
706.00	53093.59
706.19	53048.53
706.38	52724.96
706.57	52614.37
706.76	53023.96
706.95	52700.38
707.14	52909.27
707.32	52782.30
707.51	52792.54
707.70	52540.64
707.89	52659.42
708.08	52737.24
708.27	52684.00
708.46	53187.80
708.65	52231.40
708.84	52679.90
709.02	52927.70
709.21	52843.74
709.40	52653.28
709.59	52624.60
709.78	52346.08
709.97	52624.60
710.16	52118.76
710.34	52417.76
710.53	51885.29
710.72	51981.54
710.91	52194.53
711.10	52503.77
711.29	52212.96
711.48	52184.29
711.66	52088.04
711.85	51786.99
712.04	52012.26
712.23	51819.75
712.42	51946.73
712.61	51639.53
712.80	51627.24
712.98	51733.74
713.17	51614.96
713.36	51444.98
713.55	51983.59
713.74	51772.65
713.93	51590.38
714.11	51594.48
714.30	51229.94
714.49	51461.36
714.68	51451.12
714.87	51492.08
715.06	51600.62
715.24	51127.54
715.43	51119.35
715.62	51100.92
715.81	51027.19
716.00	50973.94
716.18	50582.78
716.37	50550.01
716.56	50509.05
716.75	51172.60
716.94	50838.78
717.12	50545.92
717.31	50832.63
717.50	50742.52
717.69	50779.39
717.88	51010.81
718.06	50683.13
718.25	51109.11
718.44	50119.94
718.63	50400.51
718.82	50382.08
719.00	50167.04
719.19	49689.87
719.38	50009.35
719.57	49693.96
719.76	49900.81
719.94	49857.80
720.13	49931.53
720.32	50001.16
720.51	49755.40
720.69	50183.43
720.88	49556.75
721.07	49945.86
721.26	49401.10
721.44	49310.99
721.63	49382.67
721.82	49493.26
722.01	49413.39
722.20	49452.30
722.38	49216.78
722.57	48553.24
722.76	49198.35
722.95	49239.31
723.13	49247.50
723.32	48823.58
723.51	48686.36
723.70	48745.75
723.88	48586.01
724.07	48725.27
724.26	49048.85
724.44	48342.30
724.63	48897.30
724.82	48913.69
725.01	48522.52
725.19	48659.74
725.38	48598.30
725.57	48315.68
725.76	48590.11
725.94	48135.46
726.13	47940.90
726.32	48250.14
726.51	48155.94
726.69	48272.67
726.88	48502.04
727.07	48438.56
727.25	48481.56
727.44	48446.75
727.63	48041.25
727.82	48452.89
728.00	48411.93
728.19	48055.59
728.38	48772.38
728.56	47858.98
728.75	48596.25
728.94	48209.18
729.12	48452.89
729.31	47969.57
729.50	48026.92
729.69	48196.90
729.87	48293.15
730.06	48049.44
730.25	48340.25
730.43	48522.52
730.62	48194.85
730.81	48366.88
730.99	48178.46
731.18	48012.58
731.37	48411.93
731.55	48545.05
731.74	48743.70
731.93	48194.85
732.11	48389.41
732.30	48469.28
732.49	47963.43
732.67	47770.92
732.86	48010.53
733.05	48356.64
733.23	48000.29
733.42	48155.94
733.61	48278.82
733.79	48076.07
733.98	48735.51
734.17	48096.55
734.35	48180.51
734.54	48090.40
734.73	48450.84
734.91	48153.89
735.10	47879.46
735.29	48364.83
735.47	47523.11
735.66	48024.87
735.84	48207.14
736.03	48035.11
736.22	48338.21
736.40	47838.50
736.59	48346.40
736.78	48166.18
736.96	48186.66
737.15	48080.16
737.33	47957.28
737.52	47815.97
737.71	48018.72
737.89	47756.58
738.08	47971.62
738.27	47889.70
738.45	48313.63
738.64	47795.49
738.82	47674.66
739.01	47772.97
739.20	47926.56
739.38	48143.65
739.57	48063.78
739.75	47813.93
739.94	47555.88
740.13	47750.44
740.31	47871.27
740.50	47580.46
740.68	47652.14
740.87	47740.20
741.06	47703.34
741.24	47945.00
741.43	47488.30
741.61	47787.30
741.80	47340.85
741.99	47701.29
742.17	47742.25
742.36	47807.78
742.54	47578.41
742.73	47455.53
742.91	47516.97
743.10	47312.17
743.29	47998.24
743.47	47793.45
743.66	47713.58
743.84	47977.76
744.03	47519.02
744.21	47498.54
744.40	47918.37
744.59	47584.55
744.77	47236.40
744.96	47258.93
745.14	47308.08
745.33	47007.03
745.51	47113.52
745.70	47680.81
745.88	47285.55
746.07	47334.70
746.26	46804.28
746.44	47017.27
746.63	47181.10
746.81	46802.23
747.00	46701.88
747.18	47310.13
747.37	47240.50
747.55	47271.21
747.74	47037.75
747.92	46951.73
748.11	46861.62
748.29	46961.97
748.48	47191.34
748.66	46857.52
748.85	46732.60
749.03	47404.33
749.22	47013.17
749.41	46992.69
749.59	47002.93
749.78	46593.34
749.96	46609.72
750.15	46902.58
750.33	47256.88
750.52	46748.98
750.70	46431.55
750.89	46169.41
751.07	46630.20
751.26	46619.96
751.44	46222.65
751.63	46597.43
751.81	46679.35
752.00	46228.80
752.18	46845.24
752.37	46521.66
752.55	45913.41
752.74	46535.99
752.92	46148.93
753.10	45937.99
753.29	46226.75
753.47	46368.06
753.66	46079.30
753.84	46503.23
754.03	46079.30
754.21	45997.38
754.40	45952.32
754.58	46282.05
754.77	46048.58
754.95	46316.86
755.14	45854.02
755.32	46073.15
755.51	45770.05
755.69	46122.30
755.88	45729.09
756.06	46046.53
756.24	45733.19
756.43	45763.91
756.61	45964.61
756.80	46013.76
756.98	45626.70
757.17	45708.61
757.35	45997.38
757.54	45184.33
757.72	45725.00
757.90	45538.63
758.09	45585.74
758.27	45573.45
758.46	45602.12
758.64	45899.08
758.83	45360.46
759.01	45077.84
759.19	45163.85
759.38	44873.04
759.56	45528.39
759.75	45569.35
759.93	44846.42
760.12	45114.70
760.30	45370.70
760.48	44995.92
760.67	44887.38
760.85	45176.14
761.04	44989.78
761.22	45008.21
761.40	44897.62
761.59	44899.67
761.77	44574.04
761.96	44864.85
762.14	44582.23
762.32	44485.98
762.51	44641.62
762.69	44571.99
762.88	44574.04
763.06	44766.55
763.24	45014.35
763.43	45047.12
763.61	44373.34
763.80	44514.65
763.98	43937.12
764.16	44399.96
764.35	43898.21
764.53	43447.66
764.72	43933.03
764.90	43720.04
765.08	44086.62
765.27	44207.45
765.45	43316.59
765.63	43382.12
765.82	43832.68
766.00	43634.02
766.18	43933.03
766.37	43840.87
766.55	43529.58
766.74	43535.72
766.92	43373.93
767.10	43466.09
767.29	43494.76
767.47	43396.46
767.65	43771.24
767.84	43251.05
768.02	43214.19
768.20	42874.23
768.39	43404.65
768.57	43423.08
768.75	42988.91
768.94	43162.99
769.12	42716.53
769.30	43038.06
769.49	42718.58
769.67	42562.93
769.85	42863.99
770.04	42788.21
770.22	42755.44
770.40	42571.13
770.59	42327.42
770.77	42507.64
770.95	42442.10
771.14	42292.60
771.32	42003.84
771.50	41702.79
771.69	41956.74
771.87	42452.34
772.05	42265.98
772.24	41958.78
772.42	42128.77
772.60	41862.53
772.78	41975.17
772.97	42009.98
773.15	42038.65
773.33	42116.48
773.52	41837.95
773.70	41643.40
773.88	41946.50
774.07	41655.68
774.25	41475.46
774.43	41977.22
774.61	41833.86
774.80	41862.53
774.98	41710.98
775.16	41823.62
775.34	41864.58
775.53	41805.19
775.71	41854.34
775.89	41549.19
776.08	41751.94
776.26	41717.12
776.44	41956.74
776.62	41622.92
776.81	41473.42
776.99	42159.48
777.17	41594.25
777.35	41670.02
777.54	41862.53
777.72	42036.61
777.90	41907.58
778.08	42040.70
778.27	41778.56
778.45	42118.53
778.63	42102.14
778.81	41651.59
779.00	42538.36
779.18	41887.10
779.36	42278.27
779.54	42179.96
779.73	41809.28
779.91	42081.66
780.09	42456.44
780.27	42423.67
780.46	41889.15
780.64	42241.40
780.82	42091.90
781.00	41909.63
781.19	41975.17
781.37	42317.18
781.55	42390.91
781.73	42607.99
781.91	42401.14
782.10	42247.55
782.28	42237.31
782.46	42407.29
782.64	42782.07
782.82	42304.89
783.01	42595.70
783.19	42515.83
783.37	42509.69
783.55	42448.25
783.74	42405.24
783.92	41954.69
784.10	42818.93
784.28	41997.70
784.46	42292.60
784.64	41926.02
784.83	42308.99
785.01	42515.83
785.19	42118.53
785.37	42147.20
785.55	42059.13
785.74	42120.57
785.92	41899.39
786.10	42032.51
786.28	42032.51
786.46	41645.44
786.64	41753.99
786.83	41758.08
787.01	41651.59
787.19	41829.76
787.37	41764.23
787.55	41868.67
787.74	41571.72
787.92	41880.96
788.10	41977.22
788.28	41115.02
788.46	41670.02
788.64	41473.42
788.82	41608.58
789.01	41616.77
789.19	41213.32
789.37	41123.21
789.55	41264.52
789.73	41006.48
789.91	40881.55
790.09	40678.80
790.28	40482.20
790.46	40367.51
790.64	40447.38
790.82	40711.57
791.00	40547.73
791.18	40242.59
791.36	40289.69
791.55	40138.14
791.73	40097.18
791.91	40334.74
792.09	39953.82
792.27	40000.93
792.45	40060.32
792.63	39736.74
792.81	39802.27
793.00	39744.93
793.18	39654.82
793.36	39603.62
793.54	39304.62
793.72	39521.70
793.90	39515.56
794.08	38921.65
794.26	39146.92
794.44	38722.99
794.62	38923.69
794.81	39130.54
794.99	38794.67
795.17	38630.83
795.35	38829.49
795.53	38501.81
795.71	38643.12
795.89	38288.82
796.07	38032.83
796.25	37936.57
796.43	38073.79
796.61	37561.79
796.80	37672.39
796.98	38057.40
797.16	37500.36
797.34	37600.71
797.52	37236.17
797.70	37457.35
797.88	37193.16
798.06	37289.42
798.24	37481.92
798.42	37217.74
798.60	37176.78
798.78	37014.99
798.96	37006.80
799.14	36814.29
799.32	36853.20
799.51	36349.40
799.69	36922.83
799.87	36525.52
800.05	36359.64
800.23	36509.14
800.41	36179.42
800.59	36077.02
800.77	35884.51
800.95	35665.38
801.13	35948.00
801.31	35814.88
801.49	35792.35
801.67	35681.76
801.85	35472.87
802.03	35595.74
802.21	35292.65
802.39	35083.75
802.57	35255.78
802.75	35132.90
802.93	35200.49
803.11	35046.89
803.29	34823.66
803.47	34670.06
803.65	34874.86
803.83	34708.97
804.01	34635.25
804.19	34268.66
804.37	34369.01
804.55	34211.32
804.73	34293.24
804.91	34305.52
805.09	34250.23
805.27	34166.26
805.45	33807.87
805.63	34002.43
805.81	34037.24
805.99	33924.60
806.17	34192.89
806.35	33674.75
806.53	33248.77
806.71	33912.31
806.89	33715.71
807.07	33379.84
807.25	33676.80
807.43	33314.31
807.61	33117.70
807.79	33302.02
807.97	32886.28
808.15	33142.28
808.33	32732.68
808.51	32699.92
808.69	32839.18
808.87	32187.92
809.05	32491.02
809.23	32306.71
809.41	32284.18
809.59	32208.40
809.77	32468.50
809.95	32009.75
810.13	32179.73
810.31	31925.78
810.49	32128.53
810.67	31876.63
810.84	32173.59
811.02	31671.84
811.20	31596.06
811.38	31727.13
811.56	31819.29
811.74	31972.89
811.92	31723.04
812.10	31714.84
812.28	31829.53
812.46	31587.87
812.64	31260.20
812.82	31409.70
813.00	31448.61
813.18	31397.41
813.36	31284.77
813.53	30977.58
813.71	30744.11
813.89	30953.00
814.07	31036.97
814.25	31090.21
814.43	30778.92
814.61	30666.28
814.79	30629.42
814.97	30451.25
815.15	30742.06
815.33	30170.68
815.50	30244.40
815.68	30367.28
815.86	30318.13
816.04	30187.06
816.22	30291.51
816.40	30443.06
816.58	30236.21
816.76	29859.38
816.94	30039.61
817.11	29879.86
817.29	29963.83
817.47	30017.08
817.65	29673.02
817.83	29990.45
818.01	29789.75
818.19	29529.66
818.37	29609.53
818.54	29521.47
818.72	29285.95
818.90	29847.10
819.08	29410.88
819.26	29431.36
819.44	29376.06
819.62	29259.33
819.80	29318.72
819.97	29267.52
820.15	29292.10
820.33	28991.05
820.51	29187.65
820.69	28911.17
820.87	28909.13
821.05	29390.40
821.22	28882.50
821.40	29136.45
821.58	28663.37
821.76	28733.00
821.94	28386.89
822.12	28757.58
822.29	28849.74
822.47	28401.23
822.65	29062.72
822.83	28309.07
823.01	28280.40
823.19	28243.54
823.36	28229.20
823.54	28444.24
823.72	28233.30
823.90	28018.26
824.08	27752.02
824.25	28157.52
824.43	27942.49
824.61	27854.42
824.79	28130.90
824.97	27749.98
825.15	27956.82
825.32	28182.10
825.50	27993.68
825.68	27872.85
825.86	28200.53
826.04	27776.60
826.21	27979.35
826.39	27897.43
826.57	27731.54
826.75	27690.59
826.93	27594.33
827.10	27637.34
827.28	27629.15
827.46	27426.40
827.64	27477.60
827.81	27524.70
827.99	27678.30
828.17	27377.25
828.35	27168.35
828.53	27399.77
828.70	27217.50
828.88	26955.36
829.06	27504.22
829.24	27430.49
829.41	27084.39
829.59	27276.90
829.77	27133.54
829.95	27061.86
830.12	26693.22
830.30	27125.35
830.48	26988.13
830.66	26875.49
830.84	26949.22
831.01	26957.41
831.19	27115.11
831.37	26615.40
831.55	26764.90
831.72	26703.46
831.90	27149.92
832.08	26639.98
832.25	26748.52
832.43	26599.02
832.61	26791.53
832.79	26414.70
832.96	26357.36
833.14	26472.04
833.32	26816.10
833.50	26439.28
833.67	26578.54
833.85	26408.56
834.03	26257.01
834.20	26447.47
834.38	26449.52
834.56	26576.49
834.74	26244.72
834.91	26156.66
835.09	26201.71
835.27	25783.93
835.44	26082.93
835.62	25646.71
835.80	25923.19
835.98	25886.32
836.15	26293.87
836.33	25898.61
836.51	26146.42
836.68	25462.40
836.86	25556.60
837.04	25880.18
837.21	25888.37
837.39	25654.90
837.57	25896.56
837.75	26011.25
837.92	25360.00
838.10	25613.95
838.28	25208.45
838.45	25300.61
838.63	25591.42
838.81	25392.76
838.98	25554.55
839.16	25364.09
839.34	25288.32
839.51	25171.58
839.69	25126.53
839.87	25212.54
840.04	25282.17
840.22	25427.58
840.40	25126.53
840.57	25104.00
840.75	24952.45
840.93	24917.64
841.10	25091.71
841.28	25058.95
841.46	25087.62
841.63	25192.06
841.81	24997.51
841.98	25108.10
842.16	25243.26
842.34	25054.85
842.51	24649.35
842.69	24839.81
842.87	24950.40
843.04	25163.39
843.22	24931.97
843.40	24776.33
843.57	24833.67
843.75	24858.24
843.92	24708.74
844.10	24626.82
844.28	24589.96
844.45	25116.29
844.63	24497.80
844.81	24518.28
844.98	24534.67
845.16	24405.64
845.33	24458.89
845.51	24321.68
845.69	24383.12
845.86	24469.13
846.04	24262.29
846.21	24311.44
846.39	24155.79
846.57	24233.61
846.74	24333.96
846.92	24215.18
847.09	24391.31
847.27	23957.14
847.45	24176.27
847.62	24352.40
847.80	24327.82
847.97	24395.40
848.15	24028.82
848.32	23729.81
848.50	24080.02
848.68	23862.93
848.85	23940.75
849.03	23928.47
849.20	23899.80
849.38	23686.81
849.56	23850.64
849.73	23582.36
849.91	24045.20
850.08	23926.42
850.26	23447.19
850.43	23697.05
850.61	23678.61
850.78	23639.70
850.96	23817.88
851.14	23537.30
851.31	23684.76
851.49	23721.62
851.66	23826.07
851.84	23484.06
852.01	23441.05
852.19	23422.62
852.36	23641.75
852.54	23248.54
852.71	23383.71
852.89	23293.60
853.07	23703.19
853.24	23219.87
853.42	23041.70
853.59	23092.90
853.77	23381.66
853.94	23295.64
854.12	23396.00
854.29	22863.52
854.47	23279.26
854.64	22820.52
854.82	22961.83
854.99	23234.21
855.17	22822.56
855.34	22904.48
855.52	22982.31
855.69	23078.56
855.87	22738.60
856.04	22664.87
856.22	23010.98
856.39	22892.19
856.57	22877.86
856.74	22703.78
856.92	22877.86
857.09	22761.12
857.27	22632.10
857.44	22535.85
857.62	22970.02
857.79	22634.15
857.97	22666.92
858.14	22531.75
858.32	22595.24
858.49	22548.14
858.67	22503.08
858.84	22226.60
859.02	22453.93
859.19	22222.51
859.37	22408.87
859.54	22249.13
859.72	22574.76
859.89	22165.17
860.06	22298.28
860.24	22142.64
860.41	22529.70
860.59	22068.91
860.76	22261.42
860.94	21888.69
861.11	22154.93
861.29	22097.58
861.46	21716.66
861.64	21554.87
861.81	21933.75
861.98	22025.90
862.16	21769.91
862.33	21800.63
862.51	21665.46
862.68	21995.18
862.86	22007.47
863.03	21515.96
863.21	21774.00
863.38	21796.53
863.55	21954.22
863.73	21989.04
863.90	21546.68
864.08	21704.37
864.25	21505.72
864.43	21548.73
864.60	21493.43
864.77	21341.88
864.95	21556.92
865.12	21350.07
865.30	21112.51
865.47	21331.64
865.64	21352.12
865.82	21407.42
865.99	21491.38
866.17	21294.78
866.34	21272.25
866.51	20885.19
866.69	21425.85
866.86	21069.50
867.04	21153.47
867.21	21008.06
867.38	21100.22
867.56	21065.41
867.73	20973.25
867.91	21046.97
868.08	21087.93
868.25	20795.07
868.43	20932.29
868.60	21042.88
868.78	20569.80
868.95	21014.21
869.12	20870.85
869.30	20655.81
869.47	20696.77
869.64	20483.78
869.82	20367.05
869.99	20274.89
870.16	20682.44
870.34	20467.40
870.51	20457.16
870.69	20170.44
870.86	20371.15
871.03	20502.22
871.21	20330.19
871.38	20475.59
871.55	20084.43
871.73	19979.98
871.90	20342.47
872.07	19979.98
872.25	19973.84
872.42	19832.53
872.59	19965.65
872.77	19963.60
872.94	19984.08
873.11	19705.56
873.29	19973.84
873.46	19576.53
873.63	19875.54
873.81	19574.49
873.98	19554.01
874.15	19494.61
874.33	19488.47
874.50	19269.34
874.67	19543.77
874.85	19609.30
875.02	19379.93
875.19	19424.98
875.37	19279.58
875.54	19255.00
875.71	19351.26
875.88	19164.89
876.06	19156.70
876.23	19031.77
876.40	18876.13
876.58	19140.32
876.75	18904.80
876.92	18990.81
877.10	18949.85
877.27	18964.19
877.44	18519.78
877.61	18628.32
877.79	18736.87
877.96	18736.87
878.13	18771.68
878.31	18538.21
878.48	18595.56
878.65	18663.14
878.82	18554.60
879.00	18368.23
879.17	18530.02
879.34	18618.08
879.51	18267.88
879.69	18056.94
879.86	17919.73
880.03	18173.67
880.21	17977.07
880.38	18208.49
880.55	18401.00
880.72	18118.38
880.90	18145.00
881.07	17983.21
881.24	17917.68
881.41	18314.98
881.59	17815.28
881.76	17780.46
881.93	17741.55
882.10	17864.43
882.28	17727.22
882.45	17813.23
882.62	17776.37
882.79	17968.88
882.96	17501.94
883.14	17889.01
883.31	17626.87
883.48	17630.96
883.65	17682.16
883.83	17524.47
884.00	17592.05
884.17	17684.21
884.34	17927.92
884.51	17581.81
884.69	17628.92
884.86	17417.97
885.03	17284.86
885.20	17213.18
885.38	17313.53
885.55	17237.75
885.72	17362.68
885.89	17049.34
886.06	17422.07
886.24	17217.27
886.41	17282.81
886.58	17471.22
886.75	17207.03
886.92	17037.05
887.10	17164.03
887.27	17006.33
887.44	17372.92
887.61	17170.17
887.78	17020.67
887.95	17264.38
888.13	16793.34
888.30	16922.37
888.47	16848.64
888.64	16633.60
888.81	16910.08
888.99	16779.01
889.16	16813.82
889.33	16742.14
889.50	16781.06
889.67	16699.14
889.84	16629.51
890.01	16615.17
890.19	16586.50
890.36	16500.48
890.53	16525.06
890.70	16469.76
890.87	16320.26
891.04	16205.58
891.22	16316.17
891.39	16334.60
891.56	16283.40
891.73	16273.16
891.90	16230.15
892.07	16097.03
892.24	16027.40
892.42	15900.43
892.59	15976.20
892.76	16158.47
892.93	15804.17
893.10	16254.73
893.27	15992.59
893.44	15685.39
893.61	15992.59
893.79	16232.20
893.96	15992.59
894.13	16004.88
894.30	15836.94
894.47	15802.13
894.64	16045.84
894.81	15750.93
894.98	15933.20
895.15	15920.91
895.33	15699.73
895.50	15922.96
895.67	15730.45
895.84	15910.67
896.01	15701.78
896.18	15626.00
896.35	15789.84
896.52	15929.10
896.69	15695.63
896.86	15752.98
897.04	15834.89
897.21	15703.82
897.38	15638.29
897.55	15777.55
897.72	15720.21
897.89	15705.87
898.06	15669.01
898.23	15507.22
898.40	15589.14
898.57	15523.60
898.74	15757.07
898.91	15445.78
899.08	15623.95
899.26	15679.25
899.43	15752.98
899.60	15507.22
899.77	15529.75
899.94	15451.92
900.11	15253.27
900.28	15490.84
900.45	15136.54
900.62	15312.66
900.79	15562.51
900.96	15343.38
901.13	15343.38
901.30	15363.86
901.47	15361.81
901.64	15329.05
901.81	15476.50
901.98	15167.26
902.15	15378.20
902.32	15140.63
902.49	15476.50
902.66	15333.14
902.83	15413.01
903.01	15431.44
903.18	15314.71
903.35	15695.63
903.52	15380.25
903.69	15400.72
903.86	15400.72
904.03	15314.71
904.20	15310.61
904.37	15451.92
904.54	15304.47
904.71	15087.39
904.88	15535.89
905.05	15320.85
905.22	15374.10
905.39	15267.61
905.56	15314.71
905.73	15255.32
905.90	15404.82
906.07	15306.52
906.24	15392.53
906.41	15437.59
906.58	15441.68
906.75	15404.82
906.92	14962.46
907.09	14941.98
907.26	15404.82
907.43	15083.29
907.60	14948.12
907.77	15365.91
907.93	14931.74
908.10	15181.59
908.27	15345.43
908.44	15159.06
908.61	15064.86
908.78	15157.02
908.95	15249.18
909.12	15161.11
909.29	15118.11
909.46	15007.52
909.63	15042.33
909.80	15124.25
909.97	14933.79
910.14	15101.72
910.31	14901.02
910.48	14831.39
910.65	15036.19
910.82	14780.19
910.99	14864.16
911.16	14901.02
911.33	14868.25
911.50	14577.44
911.66	14823.20
911.83	14778.14
912.00	14833.44
912.17	14640.93
912.34	14685.98
912.51	14640.93
912.68	14501.67
912.85	14624.54
913.02	14583.59
913.19	14706.46
913.36	14874.40
913.53	14542.63
913.70	14090.02
913.86	14724.90
914.03	14331.69
914.20	14477.09
914.37	14432.04
914.54	14294.82
914.71	14114.60
914.88	14249.77
915.05	14245.67
915.22	14122.79
915.39	14327.59
915.55	14257.96
915.72	14149.42
915.89	14079.79
916.06	13858.60
916.23	13987.63
916.40	13858.60
916.57	13850.41
916.74	13977.39
916.91	13872.94
917.07	13834.03
917.24	13608.75
917.41	13770.54
917.58	13664.05
917.75	13696.82
917.92	13502.26
918.09	13629.23
918.26	13752.11
918.42	13434.68
918.59	13522.74
918.76	13553.46
918.93	13430.58
919.10	13274.93
919.27	13594.42
919.44	13379.38
919.60	13455.15
919.77	13403.96
919.94	13389.62
920.11	13139.77
920.28	13258.55
920.45	13125.43
920.61	12955.45
920.78	12967.74
920.95	12908.35
921.12	12980.03
921.29	12597.06
921.46	12797.76
921.62	12558.14
921.79	12885.82
921.96	12668.73
922.13	12533.57
922.30	12674.88
922.47	12543.81
922.63	12384.07
922.80	12382.02
922.97	12296.00
923.14	12449.60
923.31	12484.42
923.47	12250.95
923.64	12369.73
923.81	12070.73
923.98	12201.80
924.15	11988.81
924.32	12070.73
924.48	11902.79
924.65	12121.93
924.82	11966.28
924.99	11941.71
925.15	11689.81
925.32	11833.16
925.49	11730.76
925.66	11530.06
925.83	11681.61
925.99	11556.69
926.16	11583.31
926.33	11669.33
926.50	11556.69
926.67	11640.65
926.83	11491.15
927.00	11333.46
927.17	11220.82
927.34	11226.96
927.50	11280.21
927.67	11386.71
927.84	11243.35
928.01	11204.44
928.17	11016.02
928.34	11116.37
928.51	10887.00
928.68	10970.97
928.84	10714.97
929.01	10983.26
929.18	10547.04
929.35	10581.85
929.51	10747.74
929.68	10475.36
929.85	10600.29
930.02	10594.14
930.18	10575.71
930.35	10504.03
930.52	10354.53
930.69	10430.30
930.85	10563.42
931.02	10159.97
931.19	10291.04
931.36	10096.49
931.52	10135.40
931.69	10141.54
931.86	10186.60
932.02	9992.04
932.19	9762.67
932.36	9860.97
932.53	9932.65
932.69	9670.51
932.86	9766.76
933.03	9789.29
933.19	9680.75
933.36	9619.31
933.53	9787.24
933.70	9498.48
933.86	9383.79
934.03	9373.55
934.20	9283.44
934.36	9650.03
934.53	9154.42
934.70	9045.88
934.86	9138.04
935.03	8867.70
935.20	8953.72
935.36	8875.90
935.53	8800.12
935.70	8900.47
935.86	8820.60
936.03	8609.66
936.20	8580.99
936.36	8433.54
936.53	8464.25
936.70	8445.82
936.86	8505.21
937.03	8265.60
937.20	8079.24
937.36	8212.35
937.53	8044.42
937.70	7747.47
937.86	7618.44
938.03	7745.42
938.20	7942.02
938.36	7548.81
938.53	7653.26
938.70	7540.62
938.86	7423.89
939.03	7118.74
939.20	7354.26
939.36	7317.39
939.53	7255.95
939.70	7241.62
939.86	6942.61
940.03	6743.96
940.19	6643.61
940.36	6817.69
940.53	6582.17
940.69	6573.98
940.86	6516.64
941.03	6471.58
941.19	6324.13
941.36	6301.60
941.52	6332.32
941.69	6201.25
941.86	6150.05
942.02	6172.58
942.19	6082.47
942.35	6123.43
942.52	5877.67
942.69	5879.72
942.85	5869.48
943.02	5820.33
943.18	5871.53
943.35	5754.79
943.52	5717.93
943.68	5506.99
943.85	5726.12
944.01	5664.68
944.18	5541.80
944.35	5627.82
944.51	5457.84
944.68	5418.93
944.84	5457.84
945.01	5302.19
945.17	5599.15
945.34	5404.59
945.51	5494.70
945.67	5457.84
945.84	5353.39
946.00	5263.28
946.17	5162.93
946.33	5212.08
946.50	5328.81
946.67	5322.67
946.83	5230.51
947.00	5437.36
947.16	5214.13
947.33	5261.23
947.49	5253.04
947.66	5273.52
947.82	5302.19
947.99	5173.17
948.16	5271.47
948.32	5291.95
948.49	5203.89
948.65	5416.88
948.82	5207.98
948.98	5308.34
949.15	5210.03
949.31	5367.73
949.48	5203.89
949.64	5255.09
949.81	5341.10
949.97	5173.17
950.14	5277.62
950.30	5111.73
950.47	5423.02
950.63	5304.24
950.80	5216.18
950.96	5152.69
951.13	5236.66
951.30	5300.14
951.46	5304.24
951.63	5281.71
951.79	5476.27
951.96	5328.81
952.12	5304.24
952.29	5267.38
952.45	5146.55
952.62	5228.46
952.78	5435.31
952.94	5490.60
953.11	5341.10
953.27	5294.00
953.44	5463.98
953.60	5451.69
953.77	5570.48
953.93	5324.72
954.10	5318.57
954.26	5341.10
954.43	5363.63
954.59	5451.69
954.76	5648.30
954.92	5388.21
955.09	5482.41
955.25	5431.21
955.42	5404.59
955.58	5488.56
955.75	5482.41
955.91	5322.67
956.07	5414.83
956.24	5351.34
956.40	5590.95
956.57	5619.63
956.73	5470.12
956.90	5394.35
957.06	5449.64
957.23	5396.40
957.39	5449.64
957.56	5468.08
957.72	5244.85
957.88	5484.46
958.05	5470.12
958.21	5517.23
958.38	5369.77
958.54	5519.28
958.71	5537.71
958.87	5480.36
959.03	5396.40
959.20	5337.01
959.36	5361.58
959.53	5369.77
959.69	5445.55
959.85	5484.46
960.02	5345.20
960.18	5472.17
960.35	5394.35
960.51	5513.13
960.68	5445.55
960.84	5453.74
961.00	5427.12
961.17	5453.74
961.33	5615.53
961.50	5443.50
961.66	5433.26
961.82	5496.75
961.99	5504.94
962.15	5406.64
962.31	5472.17
962.48	5517.23
962.64	5482.41
962.81	5539.76
962.97	5314.48
963.13	5484.46
963.30	5283.76
963.46	5328.81
963.62	5400.49
963.79	5220.27
963.95	5373.87
964.12	5396.40
964.28	5410.73
964.44	5371.82
964.61	5361.58
964.77	5388.21
964.93	5466.03
965.10	5470.12
965.26	5220.27
965.42	5337.01
965.59	5345.20
965.75	5259.18
965.92	5416.88
966.08	5220.27
966.24	5451.69
966.41	5210.03
966.57	5296.05
966.73	5216.18
966.90	5463.98
967.06	5253.04
967.22	5189.55
967.39	5203.89
967.55	5140.40
967.71	5195.70
967.88	5146.55
968.04	5228.46
968.20	5281.71
968.37	5175.22
968.53	5189.55
968.69	5234.61
968.85	5140.40
969.02	5285.81
969.18	5167.03
969.34	5222.32
969.51	5330.86
969.67	5158.83
969.83	5195.70
970.00	5189.55
970.16	5175.22
970.32	5212.08
970.48	5240.75
970.65	4964.28
970.81	5025.72
970.97	5162.93
971.14	4978.61
971.30	5154.74
971.46	5060.53
971.63	4990.90
971.79	5115.83
971.95	4988.85
972.11	4878.26
972.28	5074.87
972.44	4999.09
972.60	4908.98
972.76	4921.27
972.93	4890.55
973.09	4970.42
973.25	4949.94
973.42	4784.06
973.58	5068.72
973.74	4933.56
973.90	5015.48
974.07	4868.02
974.23	4949.94
974.39	4972.47
974.55	4837.30
974.72	4992.95
974.88	4716.47
975.04	4833.21
975.20	4945.84
975.37	4822.97
975.53	4921.27
975.69	4868.02
975.85	4702.14
976.01	4765.62
976.18	4806.58
976.34	4763.58
976.50	4812.73
976.66	4874.17
976.83	4714.42
976.99	4698.04
977.15	4835.25
977.31	4591.55
977.47	4681.66
977.64	4665.27
977.80	4712.38
977.96	4683.70
978.12	4612.03
978.29	4677.56
978.45	4646.84
978.61	4554.68
978.77	4646.84
978.93	4528.06
979.10	4480.96
979.26	4704.18
979.42	4587.45
979.58	4409.28
979.74	4423.61
979.91	4566.97
980.07	4437.95
980.23	4538.30
980.39	4487.10
980.55	4558.78
980.71	4423.61
980.88	4487.10
981.04	4454.33
981.20	4327.36
981.36	4444.09
981.52	4493.24
981.68	4380.61
981.85	4419.52
982.01	4452.28
982.17	4364.22
982.33	4431.80
982.49	4411.32
982.65	4325.31
982.82	4444.09
982.98	4245.44
983.14	4241.34
983.30	4407.23
983.46	4380.61
983.62	4333.50
983.79	4255.68
983.95	4292.54
984.11	4188.10
984.27	4276.16
984.43	4249.54
984.59	4212.67
984.75	4220.86
984.91	4188.10
985.08	4292.54
985.24	4134.85
985.40	4253.63
985.56	4265.92
985.72	4288.45
985.88	4272.06
986.04	4130.75
986.20	4046.79
986.37	4214.72
986.53	4143.04
986.69	4018.11
986.85	4046.79
987.01	3876.80
987.17	4184.00
987.33	4026.31
987.49	3952.58
987.65	4071.36
987.82	3987.40
987.98	3985.35
988.14	4114.37
988.30	4138.94
988.46	3975.11
988.62	3968.96
988.78	4003.78
988.94	3944.39
989.10	4024.26
989.26	4020.16
989.42	3829.70
989.59	3874.76
989.75	3966.92
989.91	3975.11
990.07	3774.41
990.23	3917.76
990.39	3831.75
990.55	3952.58
990.71	3755.97
990.87	3891.14
991.03	4011.97
991.19	3815.37
991.35	3825.61
991.51	3882.95
991.67	3899.33
991.83	3821.51
992.00	3858.37
992.16	3821.51
992.32	3805.13
992.48	3663.82
992.64	3667.91
992.80	3760.07
992.96	3665.86
993.12	3731.40
993.28	3801.03
993.44	3688.39
993.60	3712.97
993.76	3704.78
993.92	3755.97
994.08	3618.76
994.24	3749.83
994.40	3534.79
994.56	3657.67
994.72	3610.57
994.88	3483.59
995.04	3485.64
995.20	3610.57
995.36	3612.62
995.52	3778.50
995.68	3583.95
995.84	3502.03
996.00	3665.86
996.16	3545.03
996.32	3508.17
996.48	3532.75
996.64	3547.08
996.80	3456.97
996.96	3477.45
997.12	3563.47
997.28	3504.07
997.44	3489.74
997.60	3620.81
997.76	3442.64
997.92	3555.27
998.08	3327.95
998.24	3420.11
998.40	3344.33
998.56	3454.92
998.72	3293.13
998.88	3397.58
999.04	3315.66
999.20	3534.79
999.36	3360.72
999.52	3346.38
999.68	3358.67
999.84	3336.14
1000.00	3387.34
1000.16	3321.81
1000.32	3217.36
1000.48	3434.44
1000.64	3227.60
1000.80	3301.33
1000.95	3172.30
1001.11	3325.90
1001.27	3186.64
1001.43	3289.04
1001.59	3153.87
1001.75	3174.35
1001.91	3286.99
1002.07	3147.73
1002.23	3139.54
1002.39	3096.53
1002.55	3162.06
1002.71	3241.93
1002.87	3137.49
1003.03	3225.55
1003.19	3098.58
1003.34	3180.50
1003.50	3237.84
1003.66	3198.93
1003.82	3256.27
1003.98	3176.40
1004.14	3125.20
1004.30	3067.86
1004.46	3065.81
1004.62	3028.95
1004.78	3084.24
1004.94	2930.64
1005.09	3137.49
1005.25	3162.06
1005.41	2967.51
1005.57	3024.85
1005.73	2856.92
1005.89	2904.02
1006.05	3014.61
1006.21	3006.42
1006.37	2975.70
1006.52	3071.95
1006.68	2940.88
1006.84	3067.86
1007.00	3018.71
1007.16	3024.85
1007.32	2965.46
1007.48	2908.12
1007.64	2904.02
1007.79	2920.40
1007.95	2908.12
1008.11	2981.84
1008.27	2881.49
1008.43	2916.31
1008.59	2805.72
1008.75	3010.51
1008.91	2920.40
1009.06	2846.68
1009.22	2916.31
1009.38	2885.59
1009.54	2928.60
1009.70	2836.44
1009.86	2887.64
1010.01	2846.68
1010.17	2789.33
1010.33	2801.62
1010.49	2760.66
1010.65	2797.53
1010.81	2680.79
1010.96	2701.27
1011.12	2713.56
1011.28	2637.78
1011.44	2865.11
1011.60	2723.80
1011.76	2764.76
1011.91	2803.67
1012.07	2586.58
1012.23	2631.64
1012.39	2713.56
1012.55	2691.03
1012.71	2715.61
1012.86	2621.40
1013.02	2744.28
1013.18	2682.84
1013.34	2592.73
1013.50	2777.05
1013.65	2645.98
1013.81	2582.49
1013.97	2650.07
1014.13	2682.84
1014.29	2576.34
1014.44	2666.46
1014.60	2611.16
1014.76	2619.35
1014.92	2703.32
1015.07	2605.02
1015.23	2537.43
1015.39	2576.34
1015.55	2623.45
1015.71	2672.60
1015.86	2531.29
1016.02	2457.56
1016.18	2414.56
1016.34	2549.72
1016.49	2539.48
1016.65	2629.59
1016.81	2516.95
1016.97	2543.58
1017.12	2529.24
1017.28	2410.46
1017.44	2510.81
1017.60	2340.83
1017.75	2535.39
1017.91	2475.99
1018.07	2502.62
1018.23	2553.82
1018.38	2400.22
1018.54	2432.99
1018.70	2475.99
1018.86	2449.37
1019.01	2463.71
1019.17	2488.28
1019.33	2432.99
1019.49	2555.86
1019.64	2478.04
1019.80	2457.56
1019.96	2441.18
1020.12	2453.47
1020.27	2336.73
1020.43	2359.26
1020.59	2461.66
1020.74	2371.55
1020.90	2478.04
1021.06	2394.08
1021.22	2318.30
1021.37	2387.93
1021.53	2332.64
1021.69	2394.08
1021.84	2369.50
1022.00	2351.07
1022.16	2310.11
1022.31	2297.82
1022.47	2351.07
1022.63	2322.40
1022.79	2295.77
1022.94	2142.18
1023.10	2377.69
1023.26	2203.61
1023.41	2179.04
1023.57	2189.28
1023.73	2256.86
1023.88	2320.35
1024.04	2232.29
1024.20	2217.95
1024.35	2336.73
1024.51	2248.67
1024.67	2226.14
1024.82	2377.69
1024.98	2211.81
1025.14	2332.64
1025.29	2211.81
1025.45	2308.06
1025.61	2207.71
1025.76	2254.81
1025.92	2293.72
1026.08	2283.49
1026.23	2224.09
1026.39	2355.16
1026.55	2193.37
1026.70	2226.14
1026.86	2156.51
1027.02	2330.59
1027.17	2244.57
1027.33	2226.14
1027.48	2168.80
1027.64	2203.61
1027.80	2146.27
1027.95	2131.94
1028.11	2033.63
1028.27	2148.32
1028.42	2154.46
1028.58	2125.79
1028.73	2125.79
1028.89	2031.58
1029.05	2193.37
1029.20	2224.09
>>>>>End Processed Spectral Data<<<<<
