SpectraSuite Data File
++++++++++++++++++++++++++++++++++++
Date: Fri Jun 02 14:44:35 CEST 2017
User: INFO_000
Dark Spectrum Present: No
Reference Spectrum Present: No
Number of Sampled Component Spectra: 1
Spectrometers: USB4H00879
Integration Time (usec): 80000 (USB4H00879)
Spectra Averaged: 1 (USB4H00879)
Boxcar Smoothing: 0 (USB4H00879)
Correct for Electrical Dark: No (USB4H00879)
Strobe/Lamp Enabled: No (USB4H00879)
Correct for Detector Non-linearity: No (USB4H00879)
Correct for Stray Light: No (USB4H00879)
Number of Pixels in Processed Spectrum: 3648
>>>>>Begin Processed Spectral Data<<<<<
345.13	1206.25
345.34	1206.25
345.56	1206.25
345.78	1220.59
345.99	1302.51
346.21	1718.25
346.42	1730.53
346.64	1603.56
346.86	1826.79
347.07	1714.15
347.29	1742.82
347.50	1675.24
347.72	1677.29
347.94	1683.43
348.15	1550.31
348.37	1617.90
348.59	1648.61
348.80	1621.99
349.02	1798.12
349.23	1871.84
349.45	1806.31
349.67	1834.98
349.88	1847.27
350.10	1996.77
350.31	1820.64
350.53	1740.77
350.75	1951.71
350.96	1826.79
351.18	1851.36
351.39	1939.43
351.61	1734.63
351.82	1886.18
352.04	1964.00
352.26	1820.64
352.47	1923.04
352.69	1806.31
352.90	1716.20
353.12	1828.84
353.34	1880.04
353.55	1884.13
353.77	1945.57
353.98	1871.84
354.20	1759.21
354.41	1902.56
354.63	1914.85
354.85	2072.54
355.06	1880.04
355.28	1740.77
355.49	1959.91
355.71	1933.28
355.92	1800.16
356.14	1937.38
356.35	1918.95
356.57	1826.79
356.79	1908.71
357.00	1855.46
357.22	1994.72
357.43	1789.92
357.65	1929.19
357.86	1877.99
358.08	1902.56
358.29	1937.38
358.51	1931.23
358.72	1906.66
358.94	1945.57
359.16	1871.84
359.37	1896.42
359.59	1925.09
359.80	1925.09
360.02	1970.15
360.23	1937.38
360.45	1964.00
360.66	1957.86
360.88	1877.99
361.09	1896.42
361.31	2041.82
361.52	1884.13
361.74	2109.41
361.95	2043.87
362.17	1996.77
362.38	1998.82
362.60	2058.21
362.81	2039.78
363.03	1904.61
363.24	1978.34
363.46	2099.17
363.67	2058.21
363.89	1988.58
364.10	1935.33
364.32	1982.43
364.53	2025.44
364.75	1822.69
364.96	2129.89
365.18	2002.91
365.39	1959.91
365.61	2015.20
365.82	2142.18
366.04	1957.86
366.25	1959.91
366.47	2056.16
366.68	2025.44
366.90	1943.52
367.11	2127.84
367.33	2129.89
367.54	2133.98
367.76	1945.57
367.97	2064.35
368.19	2019.30
368.40	2095.07
368.62	2015.20
368.83	1929.19
369.05	2129.89
369.26	1970.15
369.48	2007.01
369.69	2029.54
369.91	2074.59
370.12	2043.87
370.33	2080.74
370.55	1859.56
370.76	1982.43
370.98	2099.17
371.19	2072.54
371.41	2019.30
371.62	2019.30
371.84	2007.01
372.05	2148.32
372.27	2060.26
372.48	2123.74
372.69	2072.54
372.91	2131.94
373.12	2162.66
373.34	2090.98
373.55	2150.37
373.77	2252.77
373.98	2041.82
374.20	2131.94
374.41	2160.61
374.62	2054.11
374.84	2164.70
375.05	2220.00
375.27	2072.54
375.48	2256.86
375.70	2164.70
375.91	2142.18
376.12	2277.34
376.34	2174.94
376.55	2197.47
376.77	2158.56
376.98	2158.56
377.19	2170.85
377.41	2183.13
377.62	2201.57
377.84	2142.18
378.05	2406.36
378.27	2224.09
378.48	2330.59
378.69	2396.12
378.91	2338.78
379.12	2301.92
379.34	2232.29
379.55	2271.20
379.76	2316.25
379.98	2256.86
380.19	2170.85
380.41	2351.07
380.62	2357.21
380.83	2273.25
381.05	2146.27
381.26	2351.07
381.47	2269.15
381.69	2310.11
381.90	2432.99
382.12	2287.58
382.33	2244.57
382.54	2328.54
382.76	2289.63
382.97	2279.39
383.19	2205.66
383.40	2326.49
383.61	2297.82
383.83	2256.86
384.04	2236.38
384.25	2328.54
384.47	2410.46
384.68	2445.27
384.89	2301.92
385.11	2359.26
385.32	2344.92
385.54	2414.56
385.75	2349.02
385.96	2490.33
386.18	2387.93
386.39	2402.27
386.60	2385.88
386.82	2498.52
387.03	2410.46
387.24	2525.15
387.46	2588.63
387.67	2422.75
387.88	2537.43
388.10	2404.32
388.31	2516.95
388.52	2588.63
388.74	2527.19
388.95	2564.06
389.16	2506.71
389.38	2490.33
389.59	2627.54
389.80	2666.46
390.02	2496.47
390.23	2693.08
390.44	2545.63
390.66	2473.95
390.87	2535.39
391.08	2580.44
391.30	2678.74
391.51	2717.65
391.72	2652.12
391.94	2623.45
392.15	2637.78
392.36	2619.35
392.58	2531.29
392.79	2662.36
393.00	2682.84
393.22	2678.74
393.43	2756.57
393.64	2822.10
393.85	2809.81
394.07	2635.74
394.28	2713.56
394.49	2838.48
394.71	2781.14
394.92	2848.72
395.13	2686.94
395.35	2725.85
395.56	2727.89
395.77	2791.38
395.98	2793.43
396.20	2826.20
396.41	2699.22
396.62	2918.36
396.84	2742.23
397.05	2836.44
397.26	2854.87
397.47	2918.36
397.69	2852.82
397.90	2990.03
398.11	2869.20
398.32	2940.88
398.54	2805.72
398.75	2904.02
398.96	2953.17
399.18	3049.43
399.39	2858.96
399.60	3067.86
399.81	3080.14
400.03	2985.94
400.24	3264.46
400.45	3063.76
400.66	3045.33
400.88	2916.31
401.09	3114.96
401.30	3059.67
401.51	3221.45
401.73	3260.37
401.94	3178.45
402.15	3114.96
402.36	3127.25
402.58	3160.02
402.79	3108.82
403.00	3065.81
403.21	3231.69
403.43	3225.55
403.64	3280.85
403.85	3094.48
404.06	3217.36
404.27	3121.10
404.49	3221.45
404.70	3104.72
404.91	3334.09
405.12	3252.17
405.34	3223.50
405.55	3403.72
405.76	3258.32
405.97	3301.33
406.19	3438.54
406.40	3192.78
406.61	3379.15
406.82	3313.61
407.03	3225.55
407.25	3381.20
407.46	3395.53
407.67	3475.40
407.88	3477.45
408.09	3454.92
408.31	3434.44
408.52	3424.20
408.73	3330.00
408.94	3356.62
409.15	3473.36
409.37	3616.71
409.58	3497.93
409.79	3463.12
410.00	3585.99
410.21	3444.68
410.43	3401.68
410.64	3471.31
410.85	3569.61
411.06	3612.62
411.27	3581.90
411.48	3704.78
411.70	3526.60
411.91	3626.95
412.12	3657.67
412.33	3637.19
412.54	3698.63
412.76	3755.97
412.97	3684.30
413.18	3616.71
413.39	3725.26
413.60	3749.83
413.81	3712.97
414.03	3698.63
414.24	3727.30
414.45	3794.89
414.66	3602.38
414.87	3817.41
415.08	3651.53
415.30	3805.13
415.51	3805.13
415.72	3792.84
415.93	3792.84
416.14	3672.01
416.35	3768.26
416.56	3841.99
416.78	3876.80
416.99	3862.47
417.20	3962.82
417.41	3885.00
417.62	3958.72
417.83	3841.99
418.04	3891.14
418.26	4028.35
418.47	3878.85
418.68	4118.47
418.89	4022.21
419.10	4079.55
419.31	4059.07
419.52	4106.18
419.73	4028.35
419.95	4114.37
420.16	3960.77
420.37	4050.88
420.58	4140.99
420.79	3936.20
421.00	4122.56
421.21	4167.62
421.42	4018.11
421.63	4065.22
421.85	4091.84
422.06	4132.80
422.27	4202.43
422.48	4120.51
422.69	4114.37
422.90	4294.59
423.11	4237.25
423.32	4165.57
423.53	4462.52
423.75	4356.03
423.96	4448.19
424.17	4401.08
424.38	4417.47
424.59	4425.66
424.80	4620.22
425.01	4321.21
425.22	4433.85
425.43	4431.80
425.64	4513.72
425.85	4599.74
426.06	4558.78
426.28	4478.91
426.49	4655.03
426.70	4532.15
426.91	4507.58
427.12	4636.60
427.33	4616.12
427.54	4659.13
427.75	4734.90
427.96	4816.82
428.17	4736.95
428.38	4855.73
428.59	4720.57
428.80	4739.00
429.01	4878.26
429.23	4833.21
429.44	5025.72
429.65	4945.84
429.86	4995.00
430.07	4874.17
430.28	4794.29
430.49	5021.62
430.70	5117.87
430.91	5121.97
431.12	4935.60
431.33	5113.78
431.54	5183.41
431.75	5181.36
431.96	5160.88
432.17	5124.02
432.38	5275.57
432.59	5392.30
432.80	5273.52
433.01	5326.77
433.22	5406.64
433.43	5367.73
433.64	5365.68
433.85	5332.91
434.06	5361.58
434.27	5283.76
434.49	5453.74
434.70	5570.48
434.91	5496.75
435.12	5449.64
435.33	5484.46
435.54	5568.43
435.75	5506.99
435.96	5597.10
436.17	5369.77
436.38	5521.32
436.59	5605.29
436.80	5615.53
437.01	5908.39
437.22	5789.61
437.43	5836.71
437.64	5607.34
437.85	5896.10
438.06	5752.74
438.27	5797.80
438.48	5832.62
438.69	5990.31
438.90	5883.81
439.11	5697.45
439.32	5887.91
439.53	5738.41
439.74	5988.26
439.95	5984.16
440.16	5867.43
440.37	5992.36
440.57	5978.02
440.78	6158.24
440.99	6000.55
441.20	6029.22
441.41	5965.73
441.62	6254.50
441.83	5990.31
442.04	6170.53
442.25	6201.25
442.46	6254.50
442.67	6268.83
442.88	6631.32
443.09	6234.02
443.30	6104.99
443.51	6272.93
443.72	6385.57
443.93	6266.78
444.14	6475.68
444.35	6207.39
444.56	6301.60
444.77	6320.03
444.98	6426.53
445.19	6535.07
445.40	6447.01
445.61	6416.29
445.81	6539.16
446.02	6504.35
446.23	6514.59
446.44	6539.16
446.65	6375.33
446.86	6578.08
447.07	6647.71
447.28	6776.73
447.49	6801.30
447.70	6596.51
447.91	6889.37
448.12	6750.10
448.33	6823.83
448.54	6842.26
448.74	6664.09
448.95	6829.98
449.16	6729.63
449.37	7114.64
449.58	6762.39
449.79	7233.43
450.00	6825.88
450.21	7036.82
450.42	7108.50
450.63	7012.24
450.84	6977.43
451.05	7147.41
451.25	7073.68
451.46	7094.16
451.67	7096.21
451.88	7268.24
452.09	7229.33
452.30	7073.68
452.51	7253.91
452.72	7104.40
452.93	7473.04
453.13	7085.97
453.34	7122.84
453.55	7276.43
453.76	7313.30
453.97	7759.75
454.18	7489.42
454.39	7563.15
454.60	7346.06
454.81	7487.37
455.01	7557.00
455.22	7331.73
455.43	7698.31
455.64	7849.86
455.85	7808.90
456.06	7942.02
456.27	7757.71
456.48	7657.36
456.68	7714.70
456.89	7933.83
457.10	8150.92
457.31	8124.29
457.52	8003.46
457.73	8001.41
457.94	8220.55
458.14	7935.88
458.35	8337.28
458.56	8116.10
458.77	8214.40
458.98	8415.10
459.19	8355.71
459.39	8441.73
459.60	8560.51
459.81	8243.07
460.02	8603.52
460.23	8681.34
460.44	8601.47
460.65	8753.02
460.85	8673.15
461.06	8718.20
461.27	8572.80
461.48	8935.29
461.69	9146.23
461.89	8683.39
462.10	9025.40
462.31	8710.01
462.52	8912.76
462.73	8939.38
462.94	9244.53
463.14	9035.64
463.35	9174.90
463.56	9598.83
463.77	9402.22
463.98	9301.87
464.18	9471.86
464.39	9488.24
464.60	9906.02
464.81	9772.91
465.02	9555.82
465.23	9932.65
465.43	9772.91
465.64	10141.54
465.85	9957.22
466.06	9830.25
466.27	10284.90
466.47	10194.79
466.68	10342.24
466.89	10065.77
467.10	10354.53
467.30	10170.21
467.51	10403.68
467.72	10704.73
467.93	10227.56
468.14	10430.30
468.34	10745.69
468.55	10661.73
468.76	10708.83
468.97	10436.45
469.17	10848.09
469.38	10850.14
469.59	11190.10
469.80	10932.06
470.01	10923.87
470.21	11071.32
470.42	11366.23
470.63	11323.22
470.84	11372.37
471.04	11564.88
471.25	11700.05
471.46	11788.11
471.67	11763.53
471.87	11712.33
472.08	11747.15
472.29	12156.74
472.50	11779.92
472.70	11771.72
472.91	11874.12
473.12	12126.02
473.33	12087.11
473.53	12422.98
473.74	12142.41
473.95	12238.66
474.16	12558.14
474.36	12590.91
474.57	12580.67
474.78	12873.53
474.99	12793.66
475.19	12754.75
475.40	12988.22
475.61	13129.53
475.81	13289.27
476.02	13467.44
476.23	13289.27
476.44	13463.35
476.64	13539.12
476.85	13672.24
477.06	13623.09
477.27	14020.39
477.47	14006.06
477.68	14032.68
477.89	14208.81
478.09	14047.02
478.30	13913.90
478.51	14196.52
478.71	14425.89
478.92	14270.25
479.13	14798.62
479.34	14872.35
479.54	14653.22
479.75	14624.54
479.96	14821.15
480.16	14870.30
480.37	15130.39
480.58	15120.15
480.78	15380.25
480.99	15320.85
481.20	15228.70
481.41	15482.64
481.61	15435.54
481.82	15752.98
482.03	15587.09
482.23	15646.48
482.44	15779.60
482.65	16064.27
482.85	16033.55
483.06	16240.39
483.27	16293.64
483.47	16328.45
483.68	16322.31
483.89	16287.50
484.09	16434.95
484.30	16434.95
484.51	16715.52
484.71	16709.38
484.92	16881.41
485.13	17032.96
485.33	17045.24
485.54	17231.61
485.75	17178.36
485.95	17295.10
486.16	17489.65
486.37	17569.52
486.57	17329.91
486.78	17575.67
486.98	17645.30
487.19	17833.71
487.40	17753.84
487.60	17950.45
487.81	18441.96
488.02	18157.29
488.22	18216.68
488.43	18288.36
488.64	18339.56
488.84	18499.30
489.05	18720.48
489.25	18556.64
489.46	18841.31
489.67	19035.87
489.87	18919.14
490.08	19195.61
490.29	18980.57
490.49	19496.66
490.70	19302.11
490.90	19482.33
491.11	19271.39
491.32	19705.56
491.52	19830.48
491.73	19791.57
491.94	19939.02
492.14	19889.87
492.35	19928.78
492.55	20113.10
492.76	20391.62
492.97	20459.21
493.17	20481.74
493.38	20692.68
493.58	20616.90
493.79	20836.03
494.00	21001.92
494.20	20807.36
494.41	20909.76
494.61	21194.43
494.82	21061.31
495.02	21169.85
495.23	21307.07
495.44	21724.85
495.64	21556.92
495.85	21589.69
496.05	21833.39
496.26	21769.91
496.47	22152.88
496.67	21982.90
496.88	22302.38
497.08	21857.97
497.29	22470.31
497.49	22261.42
497.70	22455.98
497.91	22365.87
498.11	22705.83
498.32	22806.18
498.52	22822.56
498.73	23021.22
498.93	22953.63
499.14	23477.91
499.34	23232.16
499.55	23596.70
499.76	23291.55
499.96	23611.03
500.17	23322.27
500.37	23762.58
500.58	23850.64
500.78	23801.49
500.99	23963.28
501.19	23934.61
501.40	24153.74
501.60	23946.90
501.81	24250.00
502.02	24147.60
502.22	24069.78
502.43	24501.90
502.63	24817.29
502.84	24518.28
503.04	24774.28
503.25	24653.45
503.45	24899.20
503.66	24942.21
503.86	25128.58
504.07	25282.17
504.27	25056.90
504.48	25294.46
504.68	25030.27
504.89	25360.00
505.09	25458.30
505.30	25409.15
505.50	25501.31
505.71	25474.68
505.91	25878.13
506.12	25316.99
506.32	26019.44
506.53	25646.71
506.73	26207.86
506.94	26170.99
507.14	26027.63
507.35	26289.77
507.55	26553.96
507.76	26044.02
507.96	26474.09
508.17	26402.41
508.37	26449.52
508.58	26326.64
508.78	26635.88
508.99	26545.77
509.19	26871.40
509.40	26691.18
509.60	26828.39
509.81	26908.26
510.01	26822.25
510.22	26902.12
510.42	27039.33
510.63	27387.49
510.83	26873.45
511.04	27264.61
511.24	27399.77
511.44	27016.80
511.65	27127.39
511.85	27334.24
512.06	27321.95
512.26	27430.49
512.47	27846.23
512.67	27522.65
512.88	27184.74
513.08	27512.41
513.29	27922.01
513.49	27713.11
513.69	27715.16
513.90	27592.28
514.10	27907.67
514.31	28032.60
514.51	27903.57
514.72	27864.66
514.92	27911.77
515.13	28044.88
515.33	27846.23
515.53	28472.91
515.74	28194.39
515.94	28249.68
516.15	28159.57
516.35	28286.54
516.56	28438.09
516.76	28487.25
516.96	28081.75
517.17	28626.51
517.37	28358.22
517.58	28448.33
517.78	28499.53
517.99	28325.46
518.19	28956.23
518.39	28708.43
518.60	29220.42
518.80	29032.00
519.01	28948.04
519.21	28753.48
519.41	29130.31
519.62	29027.91
519.82	29292.10
520.03	29185.60
520.23	29480.51
520.43	28956.23
520.64	29619.77
520.84	29406.78
521.05	29455.93
521.25	29630.01
521.45	29449.79
521.66	29640.25
521.86	29580.86
522.07	29507.13
522.27	29965.88
522.47	29685.31
522.68	30178.87
522.88	29836.86
523.08	30314.03
523.29	30148.15
523.49	29972.02
523.70	30277.17
523.90	30432.82
524.10	30346.80
524.31	30731.82
524.51	30498.35
524.71	31071.78
524.92	30430.77
525.12	31168.04
525.33	30719.53
525.53	31000.10
525.73	31036.97
525.94	30789.16
526.14	30993.96
526.34	31477.28
526.55	31233.57
526.75	31481.38
526.95	31520.29
527.16	31262.24
527.36	31485.47
527.56	32005.66
527.77	32040.47
527.97	32001.56
528.17	31868.44
528.38	32144.92
528.58	32044.57
528.78	32146.97
528.99	32196.12
529.19	32562.70
529.39	32579.09
529.60	32536.08
529.80	32665.10
530.00	32982.54
530.21	33068.55
530.41	32888.33
530.61	32822.80
530.82	33127.94
531.02	33005.06
531.22	33121.80
531.43	33140.23
531.63	33453.57
531.83	33461.76
532.04	33885.69
532.24	33525.25
532.44	33871.36
532.64	34074.10
532.85	34559.47
533.05	33846.78
533.25	33900.03
533.46	34129.40
533.66	34362.87
533.86	34043.38
534.07	34817.52
534.27	34588.14
534.47	35003.88
534.67	35048.94
534.88	34608.62
535.08	35208.68
535.28	35145.19
535.49	35145.19
535.69	35853.79
535.89	35608.03
536.09	35687.90
536.30	35892.70
536.50	35859.93
536.70	35923.42
536.91	36201.94
537.11	35886.56
537.31	36064.73
537.51	36320.73
537.72	36691.41
537.92	36748.75
538.12	37082.57
538.32	36576.72
538.53	36976.08
538.73	36703.70
538.93	37252.55
539.13	36974.03
539.34	37215.69
539.54	37193.16
539.74	37469.64
539.94	37033.42
540.15	37469.64
540.35	37944.76
540.55	37795.26
540.75	37768.64
540.96	38081.98
541.16	37807.55
541.36	38147.51
541.56	38204.86
541.77	38499.76
541.97	38319.54
542.17	38534.58
542.37	38653.36
542.58	38557.11
542.78	38712.75
542.98	38944.17
543.18	39015.85
543.38	39484.84
543.59	39169.45
543.79	38753.71
543.99	39171.50
544.19	39267.75
544.40	39370.15
544.60	39593.38
544.80	39368.10
545.00	39603.62
545.20	39832.99
545.41	39779.74
545.61	39525.80
545.81	40273.31
546.01	39949.73
546.21	40252.83
546.42	40056.22
546.62	40764.82
546.82	40220.06
547.02	40215.96
547.22	40527.25
547.43	40506.77
547.63	40957.33
547.83	40670.61
548.03	40322.46
548.23	41280.91
548.44	40664.47
548.64	41041.29
548.84	41018.77
549.04	41024.91
549.24	41198.99
549.45	41717.12
549.65	41387.40
549.85	41395.59
550.05	41530.76
550.25	41411.98
550.45	42292.60
550.66	41442.70
550.86	41491.85
551.06	42141.05
551.26	42192.25
551.46	41735.56
551.66	42024.32
551.87	42022.27
552.07	41903.49
552.27	42554.74
552.47	42116.48
552.67	42374.52
552.87	42472.82
553.07	42671.48
553.28	42403.19
553.48	42401.14
553.68	42052.99
553.88	43271.53
554.08	42683.76
554.28	42724.72
554.48	42452.34
554.69	42591.61
554.89	42435.96
555.09	42726.77
555.29	42825.07
555.49	43179.37
555.69	43060.59
555.89	42773.88
556.10	42675.57
556.30	42415.48
556.50	43382.12
556.70	42904.95
556.90	43160.94
557.10	42775.92
557.30	42628.47
557.50	43404.65
557.70	43380.07
557.91	43339.11
558.11	43523.43
558.31	43476.33
558.51	42970.48
558.71	43246.96
558.91	43203.95
559.11	43087.21
559.31	43312.49
559.51	43021.68
559.72	43150.70
559.92	43500.90
560.12	43406.70
560.32	43455.85
560.52	43572.58
560.72	43994.46
560.92	43881.83
561.12	43431.27
561.32	43761.00
561.52	43365.74
561.72	43804.00
561.93	43636.07
562.13	43916.64
562.33	43664.74
562.53	44332.38
562.73	43418.99
562.93	43720.04
563.13	43736.42
563.33	43939.17
563.53	44019.04
563.73	43795.81
563.93	44062.05
564.13	44453.21
564.33	43711.84
564.53	43847.01
564.74	44641.62
564.94	44150.11
565.14	44041.57
565.34	43824.48
565.54	44123.49
565.74	43924.83
565.94	44586.33
566.14	44047.71
566.34	44195.17
566.54	44410.20
566.74	43947.36
566.94	44160.35
567.14	44469.59
567.34	43883.87
567.54	44272.99
567.74	44078.43
567.94	44399.96
568.14	44025.18
568.34	44514.65
568.54	44232.03
568.74	44164.45
568.94	44516.70
569.14	44463.45
569.34	44674.39
569.54	44561.75
569.75	44713.30
569.95	44641.62
570.15	45131.09
570.35	44508.50
570.55	44750.17
570.75	44606.81
570.95	44762.45
571.15	44823.89
571.35	44414.30
571.55	45342.03
571.75	44621.14
571.95	45233.49
572.15	44719.45
572.35	44985.68
572.55	44983.63
572.75	45063.50
572.95	45098.32
573.15	45081.94
573.35	45301.07
573.55	44768.60
573.75	44836.18
573.95	45290.83
574.15	44934.48
574.35	45012.31
574.55	45176.14
574.75	45258.06
574.95	45446.47
575.15	45106.51
575.34	45434.19
575.54	45636.94
575.74	45333.84
575.94	45690.18
576.14	45485.39
576.34	45458.76
576.54	45989.19
576.74	45882.69
576.94	45854.02
577.14	46015.81
577.34	46007.62
577.54	45952.32
577.74	46169.41
577.94	46392.64
578.14	46507.32
578.34	46296.38
578.54	45673.80
578.74	46019.91
578.94	46519.61
579.14	46220.61
579.34	46456.12
579.54	46501.18
579.74	46783.80
579.94	46378.30
580.13	46937.40
580.33	46650.68
580.53	46802.23
580.73	46789.94
580.93	46904.63
581.13	46804.28
581.33	47170.86
581.53	47162.67
581.73	47062.32
581.93	46890.29
582.13	47127.86
582.33	47047.99
582.53	46974.26
582.73	47428.91
582.92	47316.27
583.12	47689.00
583.32	47226.16
583.52	47318.32
583.72	47879.46
583.92	47633.71
584.12	47543.59
584.32	48444.70
584.52	47834.41
584.72	48031.01
584.92	47899.94
585.11	48629.02
585.31	48538.91
585.51	48747.80
585.71	48047.39
585.91	48796.95
586.11	48385.31
586.31	48135.46
586.51	48344.35
586.71	48448.80
586.91	48899.35
587.10	49059.09
587.30	48813.34
587.50	48704.79
587.70	49204.50
587.90	48829.72
588.10	48905.49
588.30	49026.32
588.50	49380.62
588.69	49382.67
588.89	49716.49
589.09	49462.54
589.29	49894.66
589.49	49624.33
589.69	49204.50
589.89	49390.86
590.08	49837.32
590.28	49544.46
590.48	50142.47
590.68	50017.54
590.88	49577.23
591.08	50134.28
591.28	49546.51
591.47	50048.26
591.67	49935.62
591.87	50132.23
592.07	50717.95
592.27	50154.75
592.47	50959.61
592.67	50799.86
592.86	50470.14
593.06	51191.03
593.26	50564.35
593.46	51078.39
593.66	50623.74
593.86	50904.31
594.05	50793.72
594.25	51059.96
594.45	50859.26
594.65	50918.65
594.85	50803.96
595.05	51367.15
595.24	51846.38
595.44	51444.98
595.64	51543.28
595.84	51512.56
596.04	51606.76
596.23	51918.06
596.43	51713.26
596.63	51959.02
596.83	52020.45
597.03	52047.08
597.22	52622.56
597.42	52417.76
597.62	52188.39
597.82	52614.37
598.02	52196.58
598.21	52487.39
598.41	52204.77
598.61	52925.66
598.81	52925.66
599.01	52729.05
599.20	52597.98
599.40	52878.55
599.60	53077.21
599.80	52491.49
600.00	52839.64
600.19	53099.73
600.39	52931.80
600.59	53400.79
600.79	53408.98
600.98	53583.05
601.18	53286.10
601.38	53554.38
601.58	53509.33
601.78	53658.83
601.97	53630.16
602.17	53800.14
602.37	54084.81
602.57	53679.31
602.76	54052.04
602.96	53523.66
603.16	54074.57
603.36	53722.32
603.55	54465.73
603.75	54549.70
603.95	54383.81
604.15	54521.02
604.34	54326.47
604.54	54500.54
604.74	54506.69
604.94	54799.55
605.13	54416.58
605.33	54629.57
605.53	54592.70
605.73	54711.49
605.92	54654.14
606.12	54543.55
606.32	55114.94
606.52	54867.13
606.71	54906.04
606.91	54942.91
607.11	54369.47
607.30	55241.91
607.50	54801.60
607.70	55121.08
607.90	55276.72
608.09	55028.92
608.29	55291.06
608.49	54901.95
608.68	54817.98
608.88	55194.81
609.08	55403.70
609.28	55434.42
609.47	55194.81
609.67	55768.24
609.87	54963.39
610.06	55794.86
610.26	55354.55
610.46	55993.51
610.66	55524.53
610.85	55706.80
611.05	55440.56
611.25	55411.89
611.44	55514.29
611.64	55583.92
611.84	55168.18
612.03	55227.57
612.23	55766.19
612.43	55590.06
612.62	55121.08
612.82	55448.75
613.02	55469.23
613.21	55755.95
613.41	55723.18
613.61	55981.23
613.80	55004.34
614.00	55420.08
614.20	55153.85
614.39	55387.31
614.59	55594.16
614.79	55796.91
614.98	55571.63
615.18	54924.47
615.38	55475.38
615.57	55323.83
615.77	55655.60
615.97	55172.28
616.16	55927.98
616.36	55762.09
616.56	56020.14
616.75	55663.79
616.95	55383.22
617.15	55327.92
617.34	55884.97
617.54	55129.27
617.74	55706.80
617.93	55661.74
618.13	55155.89
618.32	55362.74
618.52	55391.41
618.72	55067.83
618.91	55270.58
619.11	55237.81
619.31	55291.06
619.50	55278.77
619.70	55059.64
619.90	54916.28
620.09	55407.79
620.29	55493.81
620.48	54930.62
620.68	55291.06
620.88	54965.43
621.07	55096.50
621.27	55106.74
621.46	54621.37
621.66	55071.93
621.86	54834.36
622.05	54621.37
622.25	55354.55
622.44	54977.72
622.64	54680.77
622.84	55149.75
623.03	54846.65
623.23	54879.42
623.42	55012.54
623.62	54998.20
623.82	55133.37
624.01	54916.28
624.21	54879.42
624.40	54932.67
624.60	54463.68
624.80	54607.04
624.99	54490.30
625.19	54805.69
625.38	54838.46
625.58	54920.38
625.77	54475.97
625.97	54678.72
626.17	54604.99
626.36	54596.80
626.56	55149.75
626.75	54099.14
626.95	54609.09
627.14	54045.90
627.34	55024.82
627.54	54564.03
627.73	54252.74
627.93	54484.16
628.12	54435.01
628.32	54445.25
628.51	54652.09
628.71	54150.34
628.90	54351.04
629.10	54453.44
629.30	54662.33
629.49	54471.87
629.69	54054.09
629.88	54670.53
630.08	54779.07
630.27	54461.63
630.47	54074.57
630.66	53994.70
630.86	54656.19
631.05	54191.30
631.25	54506.69
631.44	54406.34
631.64	54543.55
631.84	53994.70
632.03	54529.22
632.23	54473.92
632.42	54625.47
632.62	54418.63
632.81	54471.87
633.01	54111.43
633.20	54369.47
633.40	54574.27
633.59	54652.09
633.79	54056.14
633.98	54518.98
634.18	54719.68
634.37	54639.81
634.57	54426.82
634.76	54506.69
634.96	54650.05
635.15	54467.78
635.35	54570.18
635.54	54201.54
635.74	54863.03
635.93	54764.73
636.13	54748.35
636.32	54420.67
636.52	54062.28
636.71	54514.88
636.91	54693.05
637.10	54668.48
637.30	54959.29
637.49	54471.87
637.69	54394.05
637.88	55049.40
638.08	54099.14
638.27	55262.39
638.46	54924.47
638.66	54631.61
638.85	54785.21
639.05	54877.37
639.24	54713.53
639.44	54670.53
639.63	54777.02
639.83	54568.13
640.02	54912.19
640.22	54836.41
640.41	54811.84
640.61	54408.39
640.80	54723.77
640.99	54951.10
641.19	54877.37
641.38	54707.39
641.58	54789.31
641.77	54932.67
641.97	54658.24
642.16	54748.35
642.36	54684.86
642.55	55370.93
642.74	54719.68
642.94	55708.85
643.13	54723.77
643.33	55086.26
643.52	55631.02
643.72	55409.84
643.91	54670.53
644.10	55295.16
644.30	56013.99
644.49	55000.25
644.69	54936.76
644.88	55239.86
645.08	55155.89
645.27	55278.77
645.46	55114.94
645.66	55821.48
645.85	55051.45
646.05	55624.88
646.24	55604.40
646.43	55739.57
646.63	55999.66
646.82	55868.59
647.02	55989.42
647.21	55946.41
647.40	55751.85
647.60	56235.17
647.79	55973.03
647.99	55911.59
648.18	55547.06
648.37	56546.47
648.57	56366.24
648.76	56231.08
648.96	55833.77
649.15	56458.40
649.34	56206.50
649.54	56777.89
649.73	55815.34
649.92	56124.58
650.12	56093.86
650.31	56407.20
650.51	56386.72
650.70	56394.92
650.89	56573.09
651.09	56566.94
651.28	56913.05
651.47	56503.46
651.67	56841.37
651.86	56753.31
652.06	56057.00
652.25	56392.87
652.44	57029.79
652.64	56802.46
652.83	56382.63
653.02	56480.93
653.22	56550.56
653.41	56908.96
653.60	56198.31
653.80	56759.45
653.99	57171.10
654.18	57261.21
654.38	56964.25
654.57	57134.23
654.76	56597.66
654.96	56861.85
655.15	56751.26
655.34	56956.06
655.54	56689.82
655.73	57218.20
655.92	57398.42
656.12	57101.46
656.31	57160.86
656.50	56671.39
656.70	57308.31
656.89	57302.17
657.08	57179.29
657.28	57109.66
657.47	57357.46
657.66	57394.32
657.86	57883.79
658.05	57332.89
658.24	57777.29
658.43	57216.15
658.63	57504.91
658.82	57578.64
659.01	57678.99
659.21	57644.18
659.40	57734.29
659.59	57611.41
659.79	57838.73
659.98	57934.99
660.17	57619.60
660.36	57967.76
660.56	57797.77
660.75	57869.45
660.94	58158.22
661.14	57705.62
661.33	57681.04
661.52	57840.78
661.71	58270.85
661.91	57564.31
662.10	57840.78
662.29	58045.58
662.49	57738.38
662.68	57902.22
662.87	57971.85
663.06	58170.50
663.26	58127.50
663.45	58485.89
663.64	57678.99
663.83	58113.16
664.03	58385.54
664.22	57881.74
664.41	58504.32
664.60	58223.75
664.80	58313.86
664.99	58195.08
665.18	58033.29
665.37	58231.94
665.57	58303.62
665.76	57953.42
665.95	58086.54
666.14	58342.53
666.34	58094.73
666.53	58027.15
666.72	57971.85
666.91	57955.47
667.11	57943.18
667.30	58258.57
667.49	58418.31
667.68	58238.09
667.87	58047.63
668.07	58590.34
668.26	57840.78
668.45	58201.22
668.64	58240.14
668.84	58752.13
669.03	58408.07
669.22	58135.69
669.41	58244.23
669.60	58240.14
669.80	58279.05
669.99	58637.44
670.18	58492.04
670.37	58645.63
670.57	58293.38
670.76	58225.80
670.95	58123.40
671.14	58360.97
671.33	58465.41
671.53	58508.42
671.72	58766.46
671.91	58221.70
672.10	58334.34
672.29	58184.84
672.48	58225.80
672.68	58217.61
672.87	58203.27
673.06	57808.01
673.25	58436.74
673.44	58248.33
673.64	58264.71
673.83	58274.95
674.02	58205.32
674.21	57734.29
674.40	58459.27
674.59	57832.59
674.79	57597.07
674.98	57939.08
675.17	58152.07
675.36	57650.32
675.55	58254.47
675.74	57889.93
675.94	57961.61
676.13	58043.53
676.32	58174.60
676.51	58348.68
676.70	58094.73
676.89	57660.56
677.08	58176.65
677.28	57750.67
677.47	58004.62
677.66	58381.45
677.85	57715.86
678.04	57799.82
678.23	58303.62
678.42	57779.34
678.62	57410.71
678.81	57978.00
679.00	57533.59
679.19	58711.17
679.38	57816.21
679.57	57722.00
679.76	57939.08
679.96	57676.94
680.15	57816.21
680.34	57412.76
680.53	57656.46
680.72	57685.14
680.91	57838.73
681.10	57320.60
681.29	57887.88
681.48	57328.79
681.68	57482.39
681.87	57314.45
682.06	57314.45
682.25	56599.71
682.44	57644.18
682.63	57457.81
682.82	56757.41
683.01	57042.07
683.20	57019.55
683.39	57328.79
683.59	56997.02
683.78	56632.48
683.97	56886.43
684.16	57220.25
684.35	56517.79
684.54	57003.16
684.73	57218.20
684.92	56671.39
685.11	56374.44
685.30	56595.62
685.49	57070.75
685.69	56571.04
685.88	56685.73
686.07	56554.66
686.26	56210.60
686.45	56720.54
686.64	56343.72
686.83	56476.83
687.02	56892.57
687.21	56462.50
687.40	56063.14
687.59	56128.68
687.78	56501.41
687.97	56581.28
688.16	56251.56
688.35	56308.90
688.54	56460.45
688.74	56403.11
688.93	56108.20
689.12	55997.61
689.31	56071.34
689.50	55977.13
689.69	55645.36
689.88	55585.97
690.07	56132.78
690.26	55798.96
690.45	56089.77
690.64	55538.86
690.83	55647.41
691.02	55837.87
691.21	55526.58
691.40	55723.18
691.59	55594.16
691.78	55598.26
691.97	55710.89
692.16	55329.97
692.35	55659.69
692.54	55592.11
692.73	55264.44
692.92	55448.75
693.11	55149.75
693.30	54887.61
693.49	55291.06
693.68	55092.41
693.87	55309.49
694.06	54711.49
694.25	54537.41
694.44	54842.56
694.63	55069.88
694.82	55080.12
695.01	54901.95
695.20	54533.31
695.39	54504.64
695.58	54578.37
695.77	54396.10
695.96	54346.95
696.15	54660.29
696.34	54514.88
696.53	54572.22
696.72	54760.64
696.91	54475.97
697.10	54510.78
697.29	54420.67
697.48	54373.57
697.67	54465.73
697.86	53888.20
698.05	53920.97
698.24	54166.73
698.43	53454.03
698.62	54027.46
698.81	54080.71
699.00	54295.75
699.19	53810.38
699.38	53830.86
699.57	53386.45
699.76	54308.04
699.95	53529.81
700.14	53626.06
700.32	53767.37
700.51	53718.22
700.70	53849.29
700.89	53654.73
701.08	53753.04
701.27	53474.51
701.46	53753.04
701.65	53073.11
701.84	53290.19
702.03	53169.36
702.22	53325.01
702.41	53114.07
702.60	53101.78
702.79	53083.35
702.98	52649.18
703.17	52974.81
703.35	53195.99
703.54	52571.36
703.73	53376.21
703.92	52743.39
704.11	53169.36
704.30	52669.66
704.49	52759.77
704.68	52569.31
704.87	52704.48
705.06	52573.41
705.25	52606.17
705.43	52802.78
705.62	52896.98
705.81	52804.83
706.00	52544.73
706.19	52286.69
706.38	52518.11
706.57	52122.85
706.76	52477.15
706.95	52180.20
707.14	52401.38
707.32	51848.42
707.51	52327.65
707.70	52241.63
707.89	52411.62
708.08	52049.13
708.27	51827.95
708.46	52372.70
708.65	52073.70
708.84	52258.02
709.02	52075.75
709.21	51948.78
709.40	51772.65
709.59	51926.25
709.78	51655.92
709.97	52348.13
710.16	51692.78
710.34	51813.61
710.53	52212.96
710.72	51735.79
710.91	51737.83
711.10	52036.84
711.29	51862.76
711.48	51553.52
711.66	51401.97
711.85	51487.98
712.04	51541.23
712.23	51528.94
712.42	51143.92
712.61	51281.14
712.80	51313.90
712.98	51698.92
713.17	51434.74
713.36	51031.29
713.55	51305.71
713.74	51090.68
713.93	51492.08
714.11	51225.84
714.30	51371.25
714.49	51156.21
714.68	51313.90
714.87	51508.46
715.06	51383.54
715.24	50830.58
715.43	51180.79
715.62	50978.04
715.81	50889.98
716.00	51090.68
716.18	50885.88
716.37	50613.50
716.56	50537.72
716.75	51162.36
716.94	51076.34
717.12	50423.04
717.31	51115.25
717.50	51131.64
717.69	50785.53
717.88	50515.20
718.06	50763.00
718.25	51154.16
718.44	50644.22
718.63	50337.02
718.82	50595.07
719.00	50707.71
719.19	50009.35
719.38	50265.34
719.57	50124.04
719.76	49931.53
719.94	49976.58
720.13	50140.42
720.32	50033.92
720.51	50488.57
720.69	50296.06
720.88	50220.29
721.07	50021.64
721.26	49718.54
721.44	49831.18
721.63	49734.92
721.82	49446.16
722.01	49304.85
722.20	50023.68
722.38	49507.60
722.57	49100.05
722.76	49800.46
722.95	49265.94
723.13	49011.99
723.32	49192.21
723.51	48878.87
723.70	48968.98
723.88	48909.59
724.07	48835.86
724.26	49014.04
724.44	49048.85
724.63	49403.15
724.82	48911.64
725.01	48973.08
725.19	48788.76
725.38	48792.86
725.57	48741.66
725.76	48940.31
725.94	48622.87
726.13	48727.32
726.32	48823.58
726.51	48731.42
726.69	49184.02
726.88	49014.04
727.07	49130.77
727.25	48839.96
727.44	49317.14
727.63	49181.97
727.82	49077.52
728.00	49233.17
728.19	48954.64
728.38	49153.30
728.56	48624.92
728.75	48782.62
728.94	48319.77
729.12	49036.56
729.31	48807.19
729.50	48878.87
729.69	49167.63
729.87	48821.53
730.06	48758.04
730.25	48997.65
730.43	48788.76
730.62	48960.79
730.81	48762.14
730.99	48524.57
731.18	48895.25
731.37	49001.75
731.55	48954.64
731.74	49685.77
731.93	48887.06
732.11	49003.80
732.30	49282.32
732.49	49167.63
732.67	49016.08
732.86	48954.64
733.05	48938.26
733.23	48805.14
733.42	48649.50
733.61	48829.72
733.79	48948.50
733.98	49061.14
734.17	48774.42
734.35	48923.93
734.54	49124.63
734.73	49220.88
734.91	48637.21
735.10	48815.38
735.29	48878.87
735.47	48401.69
735.66	48831.77
735.84	48538.91
736.03	48549.15
736.22	48778.52
736.40	48508.19
736.59	48895.25
736.78	48827.67
736.96	48960.79
737.15	49237.26
737.33	48633.11
737.52	48710.94
737.71	48616.73
737.89	48712.98
738.08	48735.51
738.27	48735.51
738.45	48463.13
738.64	48409.89
738.82	48813.34
739.01	48643.35
739.20	48237.86
739.38	48461.08
739.57	48512.28
739.75	48311.58
739.94	48188.70
740.13	48893.21
740.31	48221.47
740.50	48307.49
740.68	48741.66
740.87	48622.87
741.06	48022.82
741.24	48401.69
741.43	47889.70
741.61	48614.68
741.80	48323.87
741.99	48368.93
742.17	48721.18
742.36	48295.20
742.54	48133.41
742.73	48086.31
742.91	48512.28
743.10	48469.28
743.29	48495.90
743.47	48045.35
743.66	48117.03
743.84	48321.82
744.03	48059.68
744.21	48170.27
744.40	48260.38
744.59	48139.55
744.77	47527.21
744.96	47826.21
745.14	47871.27
745.33	47813.93
745.51	47981.86
745.70	47981.86
745.88	47785.25
746.07	48018.72
746.26	47631.66
746.44	47588.65
746.63	47164.72
746.81	47535.40
747.00	47340.85
747.18	48114.98
747.37	47559.98
747.55	47568.17
747.74	48166.18
747.92	47297.84
748.11	47584.55
748.29	47496.49
748.48	47179.06
748.66	47418.67
748.85	47232.30
749.03	47406.38
749.22	47279.41
749.41	47322.41
749.59	47490.35
749.78	47273.26
749.96	46470.46
750.15	47269.17
750.33	47482.16
750.52	47066.42
750.70	47250.74
750.89	46529.85
751.07	46929.20
751.26	47199.54
751.44	46910.77
751.63	46964.02
751.81	46519.61
752.00	46593.34
752.18	47011.12
752.37	47080.75
752.55	46474.55
752.74	46699.83
752.92	46583.10
753.10	46585.15
753.29	46884.15
753.47	46245.18
753.66	46052.67
753.84	46814.52
754.03	46671.16
754.21	46456.12
754.40	46728.50
754.58	46234.94
754.77	46458.17
754.95	46085.44
755.14	46609.72
755.32	46171.46
755.51	46071.10
755.69	46093.63
755.88	46036.29
756.06	46495.03
756.24	46167.36
756.43	46183.74
756.61	45827.40
756.80	46253.37
756.98	45374.80
757.17	45929.80
757.35	45819.20
757.54	45886.79
757.72	45612.36
757.90	45884.74
758.09	45192.53
758.27	45124.94
758.46	45213.01
758.64	45532.49
758.83	45677.90
759.01	45733.19
759.19	45598.02
759.38	45401.42
759.56	45866.31
759.75	45485.39
759.93	44844.37
760.12	45389.13
760.30	45163.85
760.48	45088.08
760.67	44967.25
760.85	44977.49
761.04	45088.08
761.22	45153.62
761.40	45147.47
761.59	45204.81
761.77	44617.05
761.96	44668.25
762.14	44815.70
762.32	44537.18
762.51	44543.32
762.69	44789.08
762.88	44942.67
763.06	44825.94
763.24	44600.66
763.43	44907.86
763.61	44053.86
763.80	44070.24
763.98	44131.68
764.16	44172.64
764.35	44084.58
764.53	43634.02
764.72	43720.04
764.90	43869.54
765.08	43828.58
765.27	44129.63
765.45	43818.34
765.63	43396.46
765.82	43750.76
766.00	43562.34
766.18	43560.30
766.37	43537.77
766.55	43570.54
766.74	43472.23
766.92	43119.98
767.10	43625.83
767.29	43406.70
767.47	42859.89
767.65	43138.41
767.84	42825.07
768.02	43625.83
768.20	43113.84
768.39	42878.32
768.57	42409.34
768.75	42939.76
768.94	43031.92
769.12	42982.77
769.30	42648.95
769.49	42675.57
769.67	42431.86
769.85	42345.85
770.04	42861.94
770.22	42333.56
770.40	42173.82
770.59	42089.85
770.77	42263.93
770.95	41911.68
771.14	41809.28
771.32	41491.85
771.50	41553.29
771.69	41342.35
771.87	42081.66
772.05	41696.64
772.24	41534.85
772.42	41729.41
772.60	41948.54
772.78	41332.11
772.97	41747.84
773.15	41758.08
773.33	41276.81
773.52	41328.01
773.70	41424.26
773.88	41354.63
774.07	41074.06
774.25	41289.10
774.43	41788.80
774.61	41403.78
774.80	41477.51
774.98	41530.76
775.16	41368.97
775.34	41565.57
775.53	41272.71
775.71	41661.83
775.89	41375.11
776.08	41076.11
776.26	41368.97
776.44	41305.48
776.62	41088.40
776.81	41067.92
776.99	41678.21
777.17	41213.32
777.35	41360.78
777.54	41479.56
777.72	41098.64
777.90	41282.95
778.08	41403.78
778.27	41072.01
778.45	41655.68
778.63	41680.26
778.81	40983.95
779.00	41825.67
779.18	41584.01
779.36	41876.86
779.54	41289.10
779.73	41614.72
779.91	41471.37
780.09	41612.68
780.27	41428.36
780.46	41444.74
780.64	41430.41
780.82	41600.39
781.00	41127.31
781.19	42186.11
781.37	41616.77
781.55	41768.32
781.73	42136.96
781.91	41612.68
782.10	41676.16
782.28	41719.17
782.46	41813.38
782.64	41934.21
782.82	41696.64
783.01	41905.54
783.19	41457.03
783.37	41946.50
783.55	41682.31
783.74	41903.49
783.92	41667.97
784.10	41975.17
784.28	41930.11
784.46	41270.67
784.64	41297.29
784.83	41606.53
785.01	41807.23
785.19	41870.72
785.37	41375.11
785.55	41835.91
785.74	41268.62
785.92	41190.80
786.10	41532.81
786.28	41256.33
786.46	41262.47
786.64	41127.31
786.83	41198.99
787.01	41463.18
787.19	41022.86
787.37	41258.38
787.55	40928.66
787.74	40760.72
787.92	41016.72
788.10	40953.23
788.28	40859.02
788.46	40711.57
788.64	40676.76
788.82	40867.22
789.01	41000.33
789.19	40416.66
789.37	40281.50
789.55	40605.08
789.73	39998.88
789.91	39982.49
790.09	40175.00
790.28	40093.08
790.46	40191.39
790.64	40320.41
790.82	40035.74
791.00	39781.79
791.18	39681.44
791.36	39755.17
791.55	40009.12
791.73	39749.03
791.91	39419.30
792.09	39712.16
792.27	39507.37
792.45	39880.10
792.63	39357.86
792.81	39282.09
793.00	39175.59
793.18	38950.32
793.36	39136.68
793.54	38956.46
793.72	38731.18
793.90	39062.96
794.08	38659.51
794.26	39067.05
794.44	38032.83
794.62	38370.74
794.81	38559.16
794.99	38198.71
795.17	38299.06
795.35	38309.30
795.53	38407.61
795.71	38315.45
795.89	37928.38
796.07	37653.95
796.25	37508.55
796.43	37492.16
796.61	37422.53
796.80	37369.29
796.98	37549.51
797.16	37053.90
797.34	37125.58
797.52	37152.20
797.70	37281.22
797.88	37049.80
798.06	36574.67
798.24	36877.77
798.42	36701.65
798.60	36765.14
798.78	36615.63
798.96	36558.29
799.14	36296.15
799.32	36359.64
799.51	36376.02
799.69	36543.95
799.87	36312.53
800.05	35861.98
800.23	36099.55
800.41	35655.14
800.59	35847.64
800.77	35591.65
800.95	35419.62
801.13	35706.34
801.31	35333.60
801.49	35558.88
801.67	35112.42
801.85	35169.77
802.03	35112.42
802.21	35163.62
802.39	35038.70
802.57	34993.64
802.75	34704.88
802.93	34821.61
803.11	34639.34
803.29	34909.68
803.47	34569.71
803.65	34684.40
803.83	34563.57
804.01	34518.51
804.19	33736.19
804.37	34055.67
804.55	34098.68
804.73	34135.54
804.91	34125.30
805.09	34051.58
805.27	33945.08
805.45	33814.01
805.63	34115.06
805.81	33789.44
805.99	33623.55
806.17	33836.54
806.35	33424.90
806.53	33463.81
806.71	33383.94
806.89	33412.61
807.07	33308.16
807.25	33246.72
807.43	33345.03
807.61	33566.21
807.79	33060.36
807.97	33000.97
808.15	32972.30
808.33	32630.29
808.51	32497.17
808.69	32990.73
808.87	32822.80
809.05	32607.76
809.23	32296.47
809.41	32050.71
809.59	32210.45
809.77	32652.81
809.95	32323.09
810.13	32175.64
810.31	32118.29
810.49	32110.10
810.67	31745.56
810.84	32050.71
811.02	31608.35
811.20	31514.14
811.38	31968.79
811.56	31350.31
811.74	31497.76
811.92	31493.66
812.10	31872.54
812.28	31886.87
812.46	31575.58
812.64	31559.20
812.82	31178.28
813.00	31348.26
813.18	31585.82
813.36	31485.47
813.53	31223.33
813.71	31165.99
813.89	31034.92
814.07	31243.81
814.25	31264.29
814.43	30791.21
814.61	30979.62
814.79	30486.06
814.97	30414.38
815.15	30893.61
815.33	30400.05
815.50	30682.67
815.68	30547.50
815.86	30623.28
816.04	30275.12
816.22	30371.38
816.40	30258.74
816.58	30346.80
816.76	30053.94
816.94	30375.47
817.11	30250.55
817.29	30217.78
817.47	30326.32
817.65	29830.71
817.83	29953.59
818.01	29865.53
818.19	29644.35
818.37	29734.46
818.54	29464.13
818.72	29419.07
818.90	29861.43
819.08	29670.97
819.26	29437.50
819.44	29582.91
819.62	29683.26
819.80	29433.41
819.97	29703.74
820.15	29339.20
820.33	29312.58
820.51	29296.19
820.69	29257.28
820.87	29353.54
821.05	29257.28
821.22	29222.47
821.40	29277.76
821.58	29394.50
821.76	29032.00
821.94	28773.96
822.12	29134.40
822.29	28945.99
822.47	28929.61
822.65	28954.18
822.83	28935.75
823.01	29126.21
823.19	28935.75
823.36	28431.95
823.54	28429.90
823.72	28550.73
823.90	28747.34
824.08	28171.86
824.25	28382.80
824.43	28272.21
824.61	28468.81
824.79	28479.05
824.97	28294.74
825.15	28382.80
825.32	28286.54
825.50	27954.77
825.68	28141.14
825.86	28372.56
826.04	28347.98
826.21	28012.12
826.39	28003.92
826.57	28038.74
826.75	28069.46
826.93	27817.56
827.10	27680.35
827.28	27930.20
827.46	27956.82
827.64	27936.34
827.81	27942.49
827.99	27905.62
828.17	27608.67
828.35	27326.05
828.53	27567.71
828.70	27586.14
828.88	27555.42
829.06	27727.45
829.24	27512.41
829.41	27473.50
829.59	27471.45
829.77	27348.57
829.95	27039.33
830.12	27526.75
830.30	27158.11
830.48	27647.58
830.66	27555.42
830.84	27422.30
831.01	27352.67
831.19	27309.66
831.37	26977.89
831.55	27055.72
831.72	27104.87
831.90	27068.00
832.08	27037.28
832.25	26977.89
832.43	26994.28
832.61	26812.01
832.79	26967.65
832.96	26725.99
833.14	26836.58
833.32	27131.49
833.50	26791.53
833.67	26754.66
833.85	26963.56
834.03	26523.24
834.20	26789.48
834.38	26799.72
834.56	27184.74
834.74	26672.74
834.91	26877.54
835.09	26386.03
835.27	26175.09
835.44	26521.20
835.62	26297.97
835.80	26228.34
835.98	26410.60
836.15	26449.52
836.33	26271.34
836.51	26447.47
836.68	26031.73
836.86	25968.24
837.04	26347.12
837.21	26103.41
837.39	26201.71
837.57	26222.19
837.75	26353.26
837.92	26099.31
838.10	25820.79
838.28	25659.00
838.45	25796.21
838.63	25822.84
838.81	25740.92
838.98	25648.76
839.16	25908.85
839.34	25966.20
839.51	25702.01
839.69	25515.64
839.87	25544.31
840.04	25745.02
840.22	25857.65
840.40	25618.04
840.57	25415.29
840.75	25448.06
840.93	25362.04
841.10	25564.79
841.28	25497.21
841.46	25329.28
841.63	25570.94
841.81	25323.13
841.98	25593.47
842.16	25509.50
842.34	25450.11
842.51	25056.90
842.69	25634.42
842.87	25233.02
843.04	25413.24
843.22	25026.18
843.40	25288.32
843.57	25269.89
843.75	25335.42
843.92	25331.33
844.10	25013.89
844.28	25132.67
844.45	24886.92
844.63	24934.02
844.81	24794.76
844.98	24819.33
845.16	25060.99
845.33	24649.35
845.51	25048.71
845.69	24872.58
845.86	24579.72
846.04	24495.75
846.21	24362.64
846.39	24882.82
846.57	24680.07
846.74	24723.08
846.92	24446.60
847.09	24610.44
847.27	24202.89
847.45	24602.25
847.62	24604.30
847.80	24583.82
847.97	24526.47
848.15	24131.22
848.32	24159.89
848.50	23916.18
848.68	24311.44
848.85	24444.56
849.03	23885.46
849.20	24297.10
849.38	24211.09
849.56	24465.03
849.73	24006.29
849.91	24100.50
850.08	24231.57
850.26	23578.26
850.43	23836.31
850.61	23735.96
850.78	23678.61
850.96	23879.32
851.14	23703.19
851.31	24184.46
851.49	23797.40
851.66	23998.10
851.84	23703.19
852.01	23893.65
852.19	23903.89
852.36	23844.50
852.54	23742.10
852.71	23791.25
852.89	23309.98
853.07	23506.59
853.24	23406.23
853.42	23586.46
853.59	23490.20
853.77	23608.98
853.94	23205.53
854.12	23348.89
854.29	22945.44
854.47	23576.22
854.64	23375.52
854.82	23283.36
854.99	23285.40
855.17	23256.73
855.34	23172.77
855.52	22683.30
855.69	23113.38
855.87	22777.51
856.04	23031.46
856.22	22937.25
856.39	23047.84
856.57	22871.72
856.74	22910.63
856.92	22906.53
857.09	22922.91
857.27	22918.82
857.44	22984.35
857.62	22918.82
857.79	23033.50
857.97	22703.78
858.14	22906.53
858.32	22777.51
858.49	22644.39
858.67	22496.94
858.84	22824.61
859.02	22619.81
859.19	22572.71
859.37	22116.01
859.54	22292.14
859.72	22458.03
859.89	22281.90
860.06	22660.77
860.24	22193.84
860.41	22695.59
860.59	21864.11
860.76	22040.24
860.94	21986.99
861.11	22281.90
861.29	22300.33
861.46	22019.76
861.64	21829.30
861.81	22066.86
861.98	22410.92
862.16	22023.86
862.33	21862.07
862.51	21827.25
862.68	22085.30
862.86	21692.08
863.03	21964.46
863.21	21833.39
863.38	21980.85
863.55	21778.10
863.73	21749.43
863.90	21726.90
864.08	21724.85
864.25	21663.41
864.43	21964.46
864.60	21587.64
864.77	21483.19
864.95	21620.41
865.12	21309.11
865.30	21452.47
865.47	21153.47
865.64	21513.91
865.82	21606.07
865.99	21634.74
866.17	21012.16
866.34	21421.75
866.51	21157.57
866.69	21135.04
866.86	21274.30
867.04	21061.31
867.21	20682.44
867.38	20870.85
867.56	20977.34
867.73	20887.23
867.91	21020.35
868.08	20844.23
868.25	20948.67
868.43	20831.94
868.60	20764.36
868.78	20494.02
868.95	21040.83
869.12	20698.82
869.30	20795.07
869.47	20612.81
869.64	20508.36
869.82	20502.22
869.99	20377.29
870.16	20526.79
870.34	20426.44
870.51	20698.82
870.69	20416.20
870.86	20235.98
871.03	20428.49
871.21	20375.24
871.38	20219.60
871.55	20133.58
871.73	20141.77
871.90	19973.84
872.07	19717.84
872.25	19603.16
872.42	19848.91
872.59	20018.89
872.77	20068.05
872.94	19597.01
873.11	19750.61
873.29	19523.29
873.46	19633.88
873.63	19576.53
873.81	19584.73
873.98	19371.74
874.15	19504.85
874.33	19443.42
874.50	19048.16
874.67	19324.63
874.85	19566.29
875.02	19336.92
875.19	19375.83
875.37	19134.17
875.54	19095.26
875.71	19191.52
875.88	19152.60
876.06	19244.76
876.23	19089.12
876.40	18673.38
876.58	19033.82
876.75	18857.70
876.92	18755.30
877.10	18732.77
877.27	18761.44
877.44	18589.41
877.61	18538.21
877.79	18673.38
877.96	18685.67
878.13	18591.46
878.31	18384.62
878.48	18339.56
878.65	18407.14
878.82	18335.46
879.00	18435.81
879.17	18325.22
879.34	18302.70
879.51	18179.82
879.69	18102.00
879.86	18028.27
880.03	18061.04
880.21	17999.60
880.38	18089.71
880.55	18228.97
880.72	17983.21
880.90	18052.84
881.07	17809.14
881.24	17889.01
881.41	17843.95
881.59	17825.52
881.76	17778.42
881.93	17673.97
882.10	17696.50
882.28	17682.16
882.45	17751.79
882.62	17655.54
882.79	17819.38
882.96	17489.65
883.14	17708.79
883.31	17555.19
883.48	17477.37
883.65	17592.05
883.83	17798.90
884.00	17231.61
884.17	17295.10
884.34	17463.03
884.51	17456.89
884.69	17368.82
884.86	17479.41
885.03	17198.84
885.20	17049.34
885.38	17465.08
885.55	16971.52
885.72	17207.03
885.89	17194.75
886.06	17059.58
886.24	17237.75
886.41	16965.37
886.58	17381.11
886.75	17080.06
886.92	16850.69
887.10	17088.25
887.27	16891.65
887.44	17032.96
887.61	16842.50
887.78	16928.51
887.95	16705.28
888.13	16791.30
888.30	16733.95
888.47	16592.64
888.64	16615.17
888.81	16649.99
888.99	16332.55
889.16	16391.94
889.33	16348.93
889.50	16449.28
889.67	16506.63
889.84	16480.00
890.01	16541.44
890.19	16246.54
890.36	16469.76
890.53	16445.19
890.70	15894.29
890.87	16178.95
891.04	16150.28
891.22	15820.56
891.39	16064.27
891.56	16170.76
891.73	15992.59
891.90	15990.54
892.07	16191.24
892.24	16088.84
892.42	15916.81
892.59	16127.75
892.76	15963.92
892.93	15898.38
893.10	15968.01
893.27	15988.49
893.44	15830.80
893.61	15587.09
893.79	16121.61
893.96	15886.09
894.13	15632.15
894.30	15576.85
894.47	15632.15
894.64	15744.78
894.81	15413.01
894.98	15736.59
895.15	15722.26
895.33	15716.11
895.50	15585.04
895.67	15623.95
895.84	15449.88
896.01	15554.32
896.18	15464.21
896.35	15890.19
896.52	15533.84
896.69	15425.30
896.86	15486.74
897.04	15386.39
897.21	15347.48
897.38	15302.42
897.55	15124.25
897.72	15458.07
897.89	15204.12
898.06	15531.80
898.23	15447.83
898.40	15431.44
898.57	15386.39
898.74	15298.33
898.91	15474.45
899.08	15085.34
899.26	15417.11
899.43	15511.32
899.60	15300.37
899.77	15279.89
899.94	15359.77
900.11	15154.97
900.28	15281.94
900.45	15220.50
900.62	15347.48
900.79	15357.72
900.96	15152.92
901.13	15249.18
901.30	15310.61
901.47	15200.02
901.64	15214.36
901.81	15148.82
901.98	15091.48
902.15	15400.72
902.32	15056.67
902.49	15394.58
902.66	15396.63
902.83	15349.53
903.01	15099.67
903.18	15134.49
903.35	15044.38
903.52	15142.68
903.69	15290.13
903.86	15267.61
904.03	15245.08
904.20	15255.32
904.37	15265.56
904.54	15093.53
904.71	15273.75
904.88	15232.79
905.05	15056.67
905.22	15290.13
905.39	15099.67
905.56	15310.61
905.73	14901.02
905.90	15161.11
906.07	15118.11
906.24	15025.95
906.41	14864.16
906.58	15150.87
906.75	15025.95
906.92	14880.54
907.09	15003.42
907.26	15142.68
907.43	14847.77
907.60	14866.21
907.77	15286.04
907.93	15167.26
908.10	14831.39
908.27	15275.80
908.44	14929.69
908.61	14921.50
908.78	14845.73
908.95	15056.67
909.12	14751.52
909.29	14894.88
909.46	15013.66
909.63	14636.83
909.80	14767.90
909.97	15001.37
910.14	14694.18
910.31	14849.82
910.48	14868.25
910.65	14751.52
910.82	14548.77
910.99	14798.62
911.16	14806.81
911.33	14778.14
911.50	14651.17
911.66	14610.21
911.83	14522.15
912.00	14438.18
912.17	14481.19
912.34	14464.80
912.51	14604.07
912.68	14325.54
912.85	14479.14
913.02	14454.56
913.19	14364.45
913.36	14386.98
913.53	14507.81
913.70	14161.70
913.86	14622.50
914.03	14468.90
914.20	14329.64
914.37	14153.51
914.54	14221.10
914.71	14348.07
914.88	14126.89
915.05	14217.00
915.22	13885.23
915.39	14030.63
915.55	13782.83
915.72	14012.20
915.89	14126.89
916.06	13831.98
916.23	13872.94
916.40	13825.84
916.57	13815.60
916.74	13893.42
916.91	13803.31
917.07	13492.02
917.24	13629.23
917.41	13811.50
917.58	13754.16
917.75	13690.67
917.92	13426.48
918.09	13723.44
918.26	13760.30
918.42	13332.28
918.59	13508.40
918.76	13385.52
918.93	13391.67
919.10	13150.01
919.27	13131.58
919.44	13033.27
919.60	13260.60
919.77	13020.99
919.94	12926.78
920.11	13084.47
920.28	13117.24
920.45	12818.24
920.61	13027.13
920.78	12998.46
920.95	12781.37
921.12	12775.23
921.29	12648.26
921.46	12908.35
921.62	12558.14
921.79	12617.54
921.96	12525.38
922.13	12644.16
922.30	12564.29
922.47	12488.51
922.63	12345.16
922.80	12578.62
922.97	12361.54
923.14	12095.30
923.31	12293.96
923.47	12025.67
923.64	12265.28
923.81	11884.36
923.98	12089.16
924.15	12087.11
924.32	12027.72
924.48	11970.38
924.65	11857.74
924.82	11786.06
924.99	11804.49
925.15	11571.02
925.32	11982.67
925.49	11810.64
925.66	11421.52
925.83	11478.86
925.99	11497.30
926.16	11519.82
926.33	11566.93
926.50	11464.53
926.67	11513.68
926.83	11415.38
927.00	11349.84
927.17	11298.64
927.34	11300.69
927.50	11261.78
927.67	11374.42
927.84	11312.98
928.01	11001.69
928.17	11161.43
928.34	10891.10
928.51	10938.20
928.68	10768.22
928.84	10733.40
929.01	10669.92
929.18	10538.85
929.35	10925.91
929.51	10737.50
929.68	10688.35
929.85	10274.66
930.02	10569.57
930.18	10436.45
930.35	10489.70
930.52	10368.87
930.69	10440.54
930.85	10463.07
931.02	10205.03
931.19	10334.05
931.36	10041.19
931.52	10123.11
931.69	10172.26
931.86	9951.08
932.02	9996.14
932.19	9938.79
932.36	9842.54
932.53	9938.79
932.69	9639.79
932.86	9777.00
933.03	9758.57
933.19	9523.05
933.36	9697.13
933.53	9793.39
933.70	9373.55
933.86	9488.24
934.03	9215.86
934.20	9242.48
934.36	9365.36
934.53	9113.46
934.70	9060.21
934.86	9193.33
935.03	9021.30
935.20	8853.37
935.36	8937.34
935.53	8949.62
935.70	8785.79
935.86	8812.41
936.03	8691.58
936.20	8482.69
936.36	8576.89
936.53	8560.51
936.70	8472.45
936.86	8417.15
937.03	8243.07
937.20	8161.16
937.36	8130.44
937.53	7923.59
937.70	8001.41
937.86	7741.32
938.03	7874.44
938.20	7901.06
938.36	7761.80
938.53	7679.88
938.70	7528.33
938.86	7597.96
939.03	7274.38
939.20	7258.00
939.36	7176.08
939.53	7163.79
939.70	7323.54
939.86	6920.09
940.03	6848.41
940.19	6868.89
940.36	6817.69
940.53	6840.22
940.69	6596.51
940.86	6616.99
941.03	6524.83
941.19	6240.16
941.36	6360.99
941.52	6385.57
941.69	6277.02
941.86	6084.52
942.02	6092.71
942.19	6135.71
942.35	6164.39
942.52	6064.04
942.69	5828.52
942.85	5832.62
943.02	5818.28
943.18	5889.96
943.35	5795.75
943.52	5713.83
943.68	5685.16
943.85	5636.01
944.01	5681.07
944.18	5582.76
944.35	5586.86
944.51	5533.61
944.68	5302.19
944.84	5433.26
945.01	5308.34
945.17	5443.50
945.34	5283.76
945.51	5406.64
945.67	5517.23
945.84	5345.20
946.00	5328.81
946.17	5365.68
946.33	5328.81
946.50	5308.34
946.67	5277.62
946.83	5330.86
947.00	5365.68
947.16	5242.80
947.33	5285.81
947.49	5283.76
947.66	5195.70
947.82	5253.04
947.99	5248.94
948.16	5326.77
948.32	5244.85
948.49	5296.05
948.65	5216.18
948.82	5312.43
948.98	5334.96
949.15	5162.93
949.31	5140.40
949.48	5285.81
949.64	5267.38
949.81	5480.36
949.97	5253.04
950.14	5326.77
950.30	5300.14
950.47	5394.35
950.63	5205.94
950.80	5230.51
950.96	5330.86
951.13	5285.81
951.30	5341.10
951.46	5441.45
951.63	5392.30
951.79	5271.47
951.96	5527.47
952.12	5445.55
952.29	5384.11
952.45	5298.10
952.62	5457.84
952.78	5312.43
952.94	5279.66
953.11	5359.53
953.27	5244.85
953.44	5453.74
953.60	5445.55
953.77	5554.09
953.93	5398.45
954.10	5406.64
954.26	5498.80
954.43	5550.00
954.59	5574.57
954.76	5550.00
954.92	5324.72
955.09	5517.23
955.25	5343.15
955.42	5457.84
955.58	5488.56
955.75	5550.00
955.91	5423.02
956.07	5525.42
956.24	5593.00
956.40	5595.05
956.57	5605.29
956.73	5418.93
956.90	5576.62
957.06	5435.31
957.23	5420.97
957.39	5429.17
957.56	5453.74
957.72	5322.67
957.88	5320.62
958.05	5648.30
958.21	5793.70
958.38	5463.98
958.54	5377.97
958.71	5558.19
958.87	5537.71
959.03	5400.49
959.20	5480.36
959.36	5468.08
959.53	5437.36
959.69	5357.49
959.85	5490.60
960.02	5533.61
960.18	5402.54
960.35	5453.74
960.51	5584.81
960.68	5590.95
960.84	5484.46
961.00	5384.11
961.17	5484.46
961.33	5523.37
961.50	5556.14
961.66	5547.95
961.82	5363.63
961.99	5492.65
962.15	5468.08
962.31	5525.42
962.48	5398.45
962.64	5523.37
962.81	5511.08
962.97	5361.58
963.13	5515.18
963.30	5463.98
963.46	5371.82
963.62	5410.73
963.79	5453.74
963.95	5396.40
964.12	5402.54
964.28	5470.12
964.44	5367.73
964.61	5535.66
964.77	5476.27
964.93	5488.56
965.10	5349.29
965.26	5248.94
965.42	5429.17
965.59	5267.38
965.75	5263.28
965.92	5476.27
966.08	5337.01
966.24	5265.33
966.41	5185.46
966.57	5296.05
966.73	5345.20
966.90	5312.43
967.06	5365.68
967.22	5212.08
967.39	5275.57
967.55	5181.36
967.71	5361.58
967.88	5250.99
968.04	5283.76
968.20	5181.36
968.37	5242.80
968.53	5250.99
968.69	5337.01
968.85	5279.66
969.02	5230.51
969.18	5205.94
969.34	4956.08
969.51	5339.05
969.67	5248.94
969.83	5111.73
970.00	5345.20
970.16	5238.70
970.32	5201.84
970.48	5136.31
970.65	5185.46
970.81	5064.63
970.97	5269.42
971.14	5130.16
971.30	5250.99
971.46	4904.89
971.63	5173.17
971.79	5087.15
971.95	5054.39
972.11	4980.66
972.28	5003.19
972.44	5060.53
972.60	4886.45
972.76	4982.71
972.93	4894.65
973.09	4984.76
973.25	5085.11
973.42	4908.98
973.58	5001.14
973.74	5042.10
973.90	4886.45
974.07	4900.79
974.23	4949.94
974.39	4898.74
974.55	4896.69
974.72	5011.38
974.88	4831.16
975.04	4917.17
975.20	4962.23
975.37	4906.93
975.53	4765.62
975.69	4841.40
975.85	4726.71
976.01	4870.07
976.18	4796.34
976.34	4974.52
976.50	4786.10
976.66	4921.27
976.83	4794.29
976.99	4829.11
977.15	4829.11
977.31	4720.57
977.47	4800.44
977.64	4792.25
977.80	4749.24
977.96	4743.10
978.12	4745.14
978.29	4612.03
978.45	4657.08
978.61	4693.94
978.77	4702.14
978.93	4681.66
979.10	4577.21
979.26	4564.92
979.42	4562.87
979.58	4450.24
979.74	4622.27
979.91	4536.25
980.07	4407.23
980.23	4564.92
980.39	4573.11
980.55	4509.63
980.71	4319.17
980.88	4458.43
981.04	4515.77
981.20	4460.48
981.36	4511.68
981.52	4554.68
981.68	4435.90
981.85	4521.92
982.01	4421.56
982.17	4308.93
982.33	4364.22
982.49	4351.93
982.65	4396.99
982.82	4499.39
982.98	4458.43
983.14	4304.83
983.30	4474.81
983.46	4333.50
983.62	4296.64
983.79	4255.68
983.95	4319.17
984.11	4331.45
984.27	4392.89
984.43	4143.04
984.59	4321.21
984.75	4280.25
984.91	4208.58
985.08	4194.24
985.24	4294.59
985.40	4233.15
985.56	4220.86
985.72	4319.17
985.88	4251.58
986.04	4089.79
986.20	4157.38
986.37	4179.90
986.53	4136.90
986.69	4089.79
986.85	4075.46
987.01	4243.39
987.17	4171.71
987.33	4081.60
987.49	4065.22
987.65	4065.22
987.82	4091.84
987.98	4048.83
988.14	3981.25
988.30	4024.26
988.46	4016.07
988.62	4005.83
988.78	4014.02
988.94	4014.02
989.10	3952.58
989.26	4014.02
989.42	3917.76
989.59	3889.09
989.75	3850.18
989.91	3993.54
990.07	3882.95
990.23	3813.32
990.39	3956.68
990.55	4020.16
990.71	3882.95
990.87	3903.43
991.03	3848.13
991.19	3835.85
991.35	3729.35
991.51	3850.18
991.67	3850.18
991.83	3862.47
992.00	3907.52
992.16	3903.43
992.32	3805.13
992.48	3821.51
992.64	3672.01
992.80	3755.97
992.96	3831.75
993.12	3719.11
993.28	3725.26
993.44	3786.69
993.60	3768.26
993.76	3715.02
993.92	3733.45
994.08	3700.68
994.24	3631.05
994.40	3614.66
994.56	3721.16
994.72	3755.97
994.88	3536.84
995.04	3577.80
995.20	3635.14
995.36	3561.42
995.52	3585.99
995.68	3612.62
995.84	3579.85
996.00	3661.77
996.16	3526.60
996.32	3559.37
996.48	3528.65
996.64	3596.23
996.80	3399.63
996.96	3571.66
997.12	3489.74
997.28	3547.08
997.44	3403.72
997.60	3448.78
997.76	3354.57
997.92	3405.77
998.08	3393.48
998.24	3430.35
998.40	3512.27
998.56	3428.30
998.72	3454.92
998.88	3389.39
999.04	3293.13
999.20	3493.83
999.36	3280.85
999.52	3551.18
999.68	3362.76
999.84	3411.92
1000.00	3416.01
1000.16	3502.03
1000.32	3235.79
1000.48	3491.79
1000.64	3190.74
1000.80	3319.76
1000.95	3141.58
1001.11	3266.51
1001.27	3186.64
1001.43	3272.65
1001.59	3121.10
1001.75	3182.54
1001.91	3373.00
1002.07	3243.98
1002.23	3170.26
1002.39	3149.78
1002.55	3121.10
1002.71	3149.78
1002.87	3170.26
1003.03	3114.96
1003.19	3153.87
1003.34	3110.86
1003.50	3190.74
1003.66	3184.59
1003.82	3108.82
1003.98	3053.52
1004.14	3063.76
1004.30	3078.10
1004.46	3024.85
1004.62	3033.04
1004.78	3106.77
1004.94	3010.51
1005.09	3098.58
1005.25	3155.92
1005.41	2992.08
1005.57	2981.84
1005.73	2951.12
1005.89	3037.14
1006.05	3096.53
1006.21	3030.99
1006.37	3022.80
1006.52	2895.83
1006.68	2926.55
1006.84	3004.37
1007.00	2879.44
1007.16	2887.64
1007.32	2914.26
1007.48	2955.22
1007.64	2996.18
1007.79	2926.55
1007.95	2932.69
1008.11	3051.47
1008.27	2861.01
1008.43	2832.34
1008.59	2815.96
1008.75	3008.47
1008.91	2908.12
1009.06	2893.78
1009.22	2899.92
1009.38	2801.62
1009.54	2834.39
1009.70	2949.08
1009.86	2844.63
1010.01	2861.01
1010.17	2818.00
1010.33	2940.88
1010.49	2738.13
1010.65	2873.30
1010.81	2838.48
1010.96	2750.42
1011.12	2713.56
1011.28	2684.89
1011.44	2770.90
1011.60	2684.89
1011.76	2770.90
1011.91	2830.29
1012.07	2830.29
1012.23	2545.63
1012.39	2637.78
1012.55	2705.37
1012.71	2688.98
1012.86	2693.08
1013.02	2650.07
1013.18	2654.17
1013.34	2631.64
1013.50	2736.09
1013.65	2789.33
1013.81	2592.73
1013.97	2592.73
1014.13	2664.41
1014.29	2549.72
1014.44	2662.36
1014.60	2680.79
1014.76	2596.82
1014.92	2584.54
1015.07	2666.46
1015.23	2596.82
1015.39	2523.10
1015.55	2605.02
1015.71	2572.25
1015.86	2521.05
1016.02	2502.62
1016.18	2492.38
1016.34	2566.10
1016.49	2516.95
1016.65	2660.31
1016.81	2480.09
1016.97	2437.08
1017.12	2562.01
1017.28	2428.89
1017.44	2412.51
1017.60	2453.47
1017.75	2525.15
1017.91	2447.32
1018.07	2449.37
1018.23	2406.36
1018.38	2453.47
1018.54	2457.56
1018.70	2467.80
1018.86	2426.84
1019.01	2435.03
1019.17	2451.42
1019.33	2408.41
1019.49	2379.74
1019.64	2531.29
1019.80	2492.38
1019.96	2512.86
1020.12	2432.99
1020.27	2322.40
1020.43	2410.46
1020.59	2443.23
1020.74	2336.73
1020.90	2328.54
1021.06	2338.78
1021.22	2283.49
1021.37	2422.75
1021.53	2387.93
1021.69	2293.72
1021.84	2322.40
1022.00	2344.92
1022.16	2285.53
1022.31	2375.64
1022.47	2338.78
1022.63	2455.51
1022.79	2201.57
1022.94	2314.20
1023.10	2410.46
1023.26	2312.16
1023.41	2279.39
1023.57	2361.31
1023.73	2301.92
1023.88	2234.33
1024.04	2252.77
1024.20	2213.85
1024.35	2326.49
1024.51	2279.39
1024.67	2353.12
1024.82	2252.77
1024.98	2090.98
1025.14	2273.25
1025.29	2199.52
1025.45	2328.54
1025.61	2185.18
1025.76	2260.96
1025.92	2263.01
1026.08	2265.05
1026.23	2226.14
1026.39	2273.25
1026.55	2258.91
1026.70	2201.57
1026.86	2215.90
1027.02	2326.49
1027.17	2230.24
1027.33	2248.67
1027.48	2191.33
1027.64	2195.42
1027.80	2095.07
1027.95	2228.19
1028.11	2078.69
1028.27	2144.22
1028.42	2133.98
1028.58	2080.74
1028.73	2109.41
1028.89	2060.26
1029.05	2250.72
1029.20	2205.66
>>>>>End Processed Spectral Data<<<<<
