SpectraSuite Data File
++++++++++++++++++++++++++++++++++++
Date: Fri Jun 02 14:44:38 CEST 2017
User: INFO_000
Dark Spectrum Present: No
Reference Spectrum Present: No
Number of Sampled Component Spectra: 1
Spectrometers: USB4H00879
Integration Time (usec): 80000 (USB4H00879)
Spectra Averaged: 1 (USB4H00879)
Boxcar Smoothing: 0 (USB4H00879)
Correct for Electrical Dark: No (USB4H00879)
Strobe/Lamp Enabled: No (USB4H00879)
Correct for Detector Non-linearity: No (USB4H00879)
Correct for Stray Light: No (USB4H00879)
Number of Pixels in Processed Spectrum: 3648
>>>>>Begin Processed Spectral Data<<<<<
345.13	1331.18
345.34	1331.18
345.56	1331.18
345.78	1232.88
345.99	1257.45
346.21	1691.62
346.42	1726.44
346.64	1560.55
346.86	1738.73
347.07	1613.80
347.29	1710.05
347.50	1609.70
347.72	1722.34
347.94	1755.11
348.15	1570.79
348.37	1650.66
348.59	1689.57
348.80	1693.67
349.02	1740.77
349.23	1877.99
349.45	1763.30
349.67	1880.04
349.88	1787.88
350.10	1951.71
350.31	1929.19
350.53	1832.93
350.75	1961.95
350.96	1759.21
351.18	1933.28
351.39	1867.75
351.61	1757.16
351.82	1877.99
352.04	1841.12
352.26	1796.07
352.47	1888.23
352.69	1830.88
352.90	1794.02
353.12	1824.74
353.34	1888.23
353.55	1998.82
353.77	1937.38
353.98	1798.12
354.20	1796.07
354.41	1984.48
354.63	1882.08
354.85	2009.06
355.06	1920.99
355.28	1843.17
355.49	1884.13
355.71	1855.46
355.92	1914.85
356.14	1920.99
356.35	1867.75
356.57	1945.57
356.79	1918.95
357.00	1839.08
357.22	1914.85
357.43	1882.08
357.65	1974.24
357.86	1875.94
358.08	1968.10
358.29	1918.95
358.51	1986.53
358.72	1992.67
358.94	1877.99
359.16	1910.75
359.37	1961.95
359.59	1978.34
359.80	1931.23
360.02	1945.57
360.23	1902.56
360.45	2009.06
360.66	1947.62
360.88	1937.38
361.09	1957.86
361.31	1933.28
361.52	1898.47
361.74	2078.69
361.95	2068.45
362.17	1974.24
362.38	2146.27
362.60	1937.38
362.81	2033.63
363.03	1941.47
363.24	2027.49
363.46	2097.12
363.67	1996.77
363.89	2107.36
364.10	1896.42
364.32	1961.95
364.53	2058.21
364.75	1951.71
364.96	2039.78
365.18	2021.35
365.39	2117.60
365.61	1953.76
365.82	2050.02
366.04	2025.44
366.25	2002.91
366.47	2052.06
366.68	2015.20
366.90	1966.05
367.11	2050.02
367.33	2078.69
367.54	2080.74
367.76	2011.11
367.97	2090.98
368.19	2023.39
368.40	2058.21
368.62	1943.52
368.83	1974.24
369.05	2054.11
369.26	1988.58
369.48	2082.78
369.69	1955.81
369.91	2011.11
370.12	2025.44
370.33	2119.65
370.55	1982.43
370.76	2088.93
370.98	2080.74
371.19	2060.26
371.41	2027.49
371.62	2093.02
371.84	1992.67
372.05	2222.05
372.27	2045.92
372.48	2088.93
372.69	2076.64
372.91	2105.31
373.12	2199.52
373.34	2082.78
373.55	2150.37
373.77	2039.78
373.98	2164.70
374.20	2187.23
374.41	2142.18
374.62	2052.06
374.84	2160.61
375.05	2244.57
375.27	2156.51
375.48	2093.02
375.70	2189.28
375.91	2142.18
376.12	2297.82
376.34	2107.36
376.55	2213.85
376.77	2199.52
376.98	2070.50
377.19	2207.71
377.41	2144.22
377.62	2312.16
377.84	2248.67
378.05	2246.62
378.27	2189.28
378.48	2297.82
378.69	2437.08
378.91	2289.63
379.12	2269.15
379.34	2230.24
379.55	2211.81
379.76	2248.67
379.98	2301.92
380.19	2199.52
380.41	2248.67
380.62	2318.30
380.83	2228.19
381.05	2189.28
381.26	2396.12
381.47	2183.13
381.69	2246.62
381.90	2355.16
382.12	2263.01
382.33	2244.57
382.54	2258.91
382.76	2330.59
382.97	2256.86
383.19	2242.53
383.40	2381.79
383.61	2263.01
383.83	2185.18
384.04	2322.40
384.25	2330.59
384.47	2328.54
384.68	2375.64
384.89	2279.39
385.11	2344.92
385.32	2246.62
385.54	2349.02
385.75	2334.68
385.96	2469.85
386.18	2373.60
386.39	2465.75
386.60	2422.75
386.82	2428.89
387.03	2465.75
387.24	2414.56
387.46	2459.61
387.67	2443.23
387.88	2457.56
388.10	2469.85
388.31	2461.66
388.52	2656.22
388.74	2586.58
388.95	2549.72
389.16	2508.76
389.38	2535.39
389.59	2701.27
389.80	2648.02
390.02	2533.34
390.23	2555.86
390.44	2535.39
390.66	2600.92
390.87	2566.10
391.08	2596.82
391.30	2674.65
391.51	2682.84
391.72	2654.17
391.94	2639.83
392.15	2615.26
392.36	2600.92
392.58	2609.11
392.79	2680.79
393.00	2643.93
393.22	2693.08
393.43	2734.04
393.64	2709.46
393.85	2748.37
394.07	2688.98
394.28	2727.89
394.49	2912.21
394.71	2691.03
394.92	2897.88
395.13	2731.99
395.35	2711.51
395.56	2744.28
395.77	2863.06
395.98	2799.57
396.20	2854.87
396.41	2836.44
396.62	2981.84
396.84	2838.48
397.05	2838.48
397.26	2852.82
397.47	2949.08
397.69	2879.44
397.90	2994.13
398.11	2918.36
398.32	2883.54
398.54	2822.10
398.75	2936.79
398.96	2947.03
399.18	3114.96
399.39	2908.12
399.60	3024.85
399.81	2877.40
400.03	2959.31
400.24	3241.93
400.45	2926.55
400.66	2981.84
400.88	2944.98
401.09	3184.59
401.30	3065.81
401.51	3086.29
401.73	3106.77
401.94	3196.88
402.15	3155.92
402.36	3123.15
402.58	3174.35
402.79	3133.39
403.00	3053.52
403.21	3276.75
403.43	3196.88
403.64	3194.83
403.85	3041.23
404.06	3266.51
404.27	3084.24
404.49	3221.45
404.70	3135.44
404.91	3221.45
405.12	3182.54
405.34	3141.58
405.55	3336.14
405.76	3196.88
405.97	3090.38
406.19	3327.95
406.40	3104.72
406.61	3325.90
406.82	3375.05
407.03	3305.42
407.25	3258.32
407.46	3440.59
407.67	3465.16
407.88	3551.18
408.09	3336.14
408.31	3311.57
408.52	3377.10
408.73	3319.76
408.94	3336.14
409.15	3420.11
409.37	3581.90
409.58	3475.40
409.79	3463.12
410.00	3579.85
410.21	3454.92
410.43	3557.32
410.64	3416.01
410.85	3512.27
411.06	3598.28
411.27	3489.74
411.48	3706.82
411.70	3590.09
411.91	3667.91
412.12	3588.04
412.33	3637.19
412.54	3602.38
412.76	3764.17
412.97	3643.34
413.18	3540.94
413.39	3663.82
413.60	3698.63
413.81	3688.39
414.03	3688.39
414.24	3692.49
414.45	3729.35
414.66	3633.10
414.87	3639.24
415.08	3792.84
415.30	3723.21
415.51	3833.80
415.72	3823.56
415.93	3672.01
416.14	3895.24
416.35	3887.04
416.56	3917.76
416.78	3825.61
416.99	3891.14
417.20	3852.23
417.41	3966.92
417.62	3839.94
417.83	4009.92
418.04	3921.86
418.26	3983.30
418.47	3979.20
418.68	4014.02
418.89	4054.98
419.10	4081.60
419.31	3995.59
419.52	4136.90
419.73	4059.07
419.95	4179.90
420.16	4065.22
420.37	4091.84
420.58	4124.61
420.79	4020.16
421.00	4114.37
421.21	4224.96
421.42	4157.38
421.63	4204.48
421.85	4296.64
422.06	4265.92
422.27	4321.21
422.48	4130.75
422.69	4276.16
422.90	4249.54
423.11	4329.41
423.32	4429.76
423.53	4421.56
423.75	4409.28
423.96	4468.67
424.17	4456.38
424.38	4554.68
424.59	4423.61
424.80	4485.05
425.01	4460.48
425.22	4452.28
425.43	4521.92
425.64	4720.57
425.85	4730.81
426.06	4583.35
426.28	4585.40
426.49	4505.53
426.70	4650.94
426.91	4571.07
427.12	4868.02
427.33	4677.56
427.54	4558.78
427.75	4681.66
427.96	4839.35
428.17	4915.12
428.38	4943.80
428.59	5076.91
428.80	4802.49
429.01	4925.36
429.23	4870.07
429.44	5040.05
429.65	4880.31
429.86	5078.96
430.07	4839.35
430.28	4906.93
430.49	4917.17
430.70	5029.81
430.91	5126.07
431.12	5038.00
431.33	5210.03
431.54	5097.39
431.75	5146.55
431.96	5054.39
432.17	4960.18
432.38	5154.74
432.59	5296.05
432.80	5343.15
433.01	5302.19
433.22	5228.46
433.43	5302.19
433.64	5371.82
433.85	5214.13
434.06	5443.50
434.27	5179.31
434.49	5326.77
434.70	5513.13
434.91	5443.50
435.12	5349.29
435.33	5433.26
435.54	5468.08
435.75	5240.75
435.96	5488.56
436.17	5476.27
436.38	5623.72
436.59	5547.95
436.80	5586.86
437.01	5711.78
437.22	5765.03
437.43	5560.24
437.64	5533.61
437.85	5722.02
438.06	5775.27
438.27	5570.48
438.48	5543.85
438.69	5963.68
438.90	5801.90
439.11	5738.41
439.32	5844.90
439.53	5617.58
439.74	6053.80
439.95	5922.73
440.16	5797.80
440.37	5781.42
440.57	5818.28
440.78	5906.34
440.99	6127.52
441.20	6012.84
441.41	5961.64
441.62	6004.64
441.83	5902.25
442.04	6272.93
442.25	6158.24
442.46	6297.50
442.67	6127.52
442.88	6393.76
443.09	6096.80
443.30	6086.56
443.51	6162.34
443.72	6619.04
443.93	6205.35
444.14	6608.80
444.35	6084.52
444.56	6424.48
444.77	6520.73
444.98	6447.01
445.19	6520.73
445.40	6483.87
445.61	6252.45
445.81	6684.57
446.02	6604.70
446.23	6580.12
446.44	6389.66
446.65	6594.46
446.86	6533.02
447.07	6672.28
447.28	6772.63
447.49	6899.61
447.70	6729.63
447.91	6696.86
448.12	6721.43
448.33	7016.34
448.54	6838.17
448.74	6911.89
448.95	6932.37
449.16	6735.77
449.37	7163.79
449.58	6854.55
449.79	7112.60
450.00	6789.02
450.21	7034.77
450.42	7045.01
450.63	7120.79
450.84	7243.67
451.05	7100.31
451.25	6999.96
451.46	7176.08
451.67	7348.11
451.88	7380.88
452.09	7376.78
452.30	7149.46
452.51	7120.79
452.72	7505.81
452.93	7567.24
453.13	7221.14
453.34	7319.44
453.55	7460.75
453.76	7339.92
453.97	7837.58
454.18	7589.77
454.39	7702.41
454.60	7624.59
454.81	7526.29
455.01	7720.84
455.22	7520.14
455.43	7724.94
455.64	7827.34
455.85	7946.12
456.06	8105.86
456.27	7923.59
456.48	7903.11
456.68	7825.29
456.89	7946.12
457.10	8019.85
457.31	8030.09
457.52	8046.47
457.73	8226.69
457.94	8327.04
458.14	8093.57
458.35	8544.13
458.56	8163.20
458.77	8284.03
458.98	8499.07
459.19	8394.62
459.39	8494.97
459.60	8652.67
459.81	8312.71
460.02	8503.17
460.23	8300.42
460.44	8748.92
460.65	8550.27
460.85	8720.25
461.06	8761.21
461.27	8429.44
461.48	8929.14
461.69	8886.14
461.89	8785.79
462.10	8806.27
462.31	8767.35
462.52	8597.37
462.73	8916.86
462.94	9226.10
463.14	9189.24
463.35	9013.11
463.56	9568.11
463.77	9478.00
463.98	9195.38
464.18	9396.08
464.39	9424.75
464.60	9578.35
464.81	9602.93
465.02	9416.56
465.23	9729.90
465.43	9471.86
465.64	9920.36
465.85	9705.32
466.06	9627.50
466.27	10096.49
466.47	9885.55
466.68	10112.87
466.89	10026.86
467.10	10223.46
467.30	9830.25
467.51	10397.54
467.72	10407.78
467.93	10076.01
468.14	10119.01
468.34	10598.24
468.55	10487.65
468.76	10207.08
468.97	10383.20
469.17	10665.82
469.38	10663.77
469.59	10774.36
469.80	10747.74
470.01	10770.27
470.21	10948.44
470.42	11044.70
470.63	11155.29
470.84	11022.17
471.04	11347.79
471.25	11210.58
471.46	11288.40
471.67	11648.85
471.87	11382.61
472.08	11456.34
472.29	11700.05
472.50	11476.82
472.70	11648.85
472.91	11839.31
473.12	12029.77
473.33	11956.04
473.53	12212.04
473.74	11941.71
473.95	12203.85
474.16	12439.36
474.36	12431.17
474.57	12721.98
474.78	12570.43
474.99	12545.86
475.19	12635.97
475.40	13084.47
475.61	12924.73
475.81	13037.37
476.02	13336.37
476.23	13143.86
476.44	13266.74
476.64	13436.72
476.85	13438.77
477.06	13590.32
477.27	13971.24
477.47	13647.66
477.68	13905.71
477.89	13963.05
478.09	14167.85
478.30	14196.52
478.51	14229.29
478.71	14397.22
478.92	14493.47
479.13	14632.74
479.34	14835.49
479.54	14972.70
479.75	14618.40
479.96	14929.69
480.16	14853.92
480.37	15154.97
480.58	15380.25
480.78	15664.91
480.99	15509.27
481.20	15472.40
481.41	15789.84
481.61	15798.03
481.82	15892.24
482.03	15935.24
482.23	15959.82
482.44	16396.04
482.65	16330.50
482.85	16158.47
483.06	16279.30
483.27	16482.05
483.47	16449.28
483.68	16451.33
483.89	16840.45
484.09	16983.80
484.30	17065.72
484.51	17084.16
484.71	17053.44
484.92	17094.40
485.13	17528.56
485.33	17473.27
485.54	17663.73
485.75	18009.84
485.95	17716.98
486.16	17999.60
486.37	18192.11
486.57	18044.65
486.78	18128.62
486.98	18206.44
487.19	18364.14
487.40	18542.31
487.60	18294.50
487.81	18759.39
488.02	18640.61
488.22	18702.05
488.43	18798.31
488.64	18980.57
488.84	19003.10
489.05	19261.15
489.25	19019.49
489.46	19164.89
489.67	19402.46
489.87	19357.40
490.08	19662.55
490.29	19814.10
490.49	19766.99
490.70	19814.10
490.90	19943.12
491.11	19685.08
491.32	20207.31
491.52	20057.81
491.73	19830.48
491.94	20502.22
492.14	20285.13
492.35	20358.86
492.55	20651.72
492.76	20676.29
492.97	20768.45
493.17	20893.38
493.38	20872.90
493.58	21114.56
493.79	20920.00
494.00	20993.73
494.20	21227.20
494.41	21036.74
494.61	21421.75
494.82	21327.55
495.02	21561.02
495.23	21532.34
495.44	21335.74
495.64	21501.62
495.85	21436.09
496.05	21917.36
496.26	21640.89
496.47	21976.75
496.67	21989.04
496.88	22273.71
497.08	21993.14
497.29	22324.91
497.49	22376.11
497.70	22468.27
497.91	22337.20
498.11	22365.87
498.32	22890.15
498.52	22566.57
498.73	23056.03
498.93	22574.76
499.14	22791.84
499.34	22640.29
499.55	23156.38
499.76	22916.77
499.96	23113.38
500.17	22851.24
500.37	23117.47
500.58	23219.87
500.78	23406.23
500.99	23183.01
501.19	23533.21
501.40	23541.40
501.60	23592.60
501.81	23563.93
502.02	23457.43
502.22	23758.49
502.43	23746.20
502.63	23938.71
502.84	23932.56
503.04	23760.53
503.25	23856.79
503.45	24041.11
503.66	24397.45
503.86	24065.68
504.07	24702.60
504.27	24260.24
504.48	24813.19
504.68	24569.48
504.89	24952.45
505.09	24733.32
505.30	24442.51
505.50	25034.37
505.71	24776.33
505.91	24911.49
506.12	24854.15
506.32	24948.36
506.53	24878.72
506.73	25347.71
506.94	25194.11
507.14	25261.69
507.35	25462.40
507.55	25439.87
507.76	25294.46
507.96	25411.20
508.17	25179.78
508.37	25710.20
508.58	25689.72
508.78	25839.22
508.99	26285.68
509.19	25763.45
509.40	26025.59
509.60	26009.20
509.81	26074.74
510.01	25824.89
510.22	26326.64
510.42	26302.06
510.63	26285.68
510.83	26687.08
511.04	26345.07
511.24	26605.16
511.44	26400.37
511.65	26506.86
511.85	26824.29
512.06	26695.27
512.26	26787.43
512.47	26766.95
512.67	26930.79
512.88	26891.88
513.08	27080.29
513.29	27280.99
513.49	27160.16
513.69	27493.98
513.90	27313.76
514.10	27469.40
514.31	27455.07
514.51	27121.25
514.72	27539.04
514.92	27487.84
515.13	27670.11
515.33	27721.30
515.53	27917.91
515.74	27706.97
515.94	28075.60
516.15	28128.85
516.35	27758.17
516.56	28278.35
516.76	28073.56
516.96	28390.99
517.17	28522.06
517.37	28403.28
517.58	28622.41
517.78	28520.01
517.99	28782.15
518.19	29224.51
518.39	28722.76
518.60	29034.05
518.80	28948.04
519.01	28954.18
519.21	29285.95
519.41	29449.79
519.62	29494.85
519.82	29701.69
520.03	29451.84
520.23	29242.95
520.43	29451.84
520.64	29642.30
520.84	29906.49
521.05	29963.83
521.25	30158.39
521.45	30133.81
521.66	30252.59
521.86	30015.03
522.07	30273.07
522.27	30576.17
522.47	30553.65
522.68	30838.31
522.88	30567.98
523.08	30846.51
523.29	30692.91
523.49	30596.65
523.70	30817.83
523.90	31020.58
524.10	30969.38
524.31	31573.53
524.51	31440.42
524.71	31555.10
524.92	31344.16
525.12	31845.91
525.33	31733.28
525.53	31921.69
525.73	32140.82
525.94	31895.07
526.14	31872.54
526.34	32333.33
526.55	31858.20
526.75	32169.49
526.95	32093.72
527.16	32335.38
527.36	32667.15
527.56	32853.51
527.77	32767.50
527.97	32411.15
528.17	33160.71
528.38	33289.73
528.58	32974.34
528.78	33390.08
528.99	33168.90
529.19	33406.47
529.39	33328.64
529.60	33383.94
529.80	33484.29
530.00	33592.83
530.21	33664.51
530.41	34086.39
530.61	33644.03
530.82	34035.19
531.02	33762.81
531.22	34065.91
531.43	33912.31
531.63	34387.44
531.83	34551.28
532.04	34977.26
532.24	34350.58
532.44	35165.67
532.64	34885.10
532.85	34758.13
533.05	34651.63
533.25	34987.50
533.46	34627.06
533.66	35225.06
533.86	35016.17
534.07	35358.18
534.27	34967.02
534.47	35556.83
534.67	35321.32
534.88	35388.90
535.08	35257.83
535.28	35804.64
535.49	35782.11
535.69	36212.18
535.89	36484.56
536.09	35925.47
536.30	36519.38
536.50	36253.14
536.70	36550.10
536.91	36586.96
537.11	36574.67
537.31	36615.63
537.51	36705.74
537.72	36904.40
537.92	37189.06
538.12	37078.47
538.32	37393.86
538.53	37182.92
538.73	36599.25
538.93	37105.10
539.13	37029.32
539.34	37150.15
539.54	37205.45
539.74	37780.93
539.94	37457.35
540.15	37402.05
540.35	37578.18
540.55	37721.54
540.75	38084.03
540.96	37131.72
541.16	37823.93
541.36	37793.22
541.56	38012.35
541.77	38127.03
541.97	37926.33
542.17	38258.10
542.37	38254.01
542.58	38071.74
542.78	38276.54
542.98	38032.83
543.18	38129.08
543.38	38798.77
543.59	38561.20
543.79	38249.91
543.99	38165.95
544.19	38542.77
544.40	38479.28
544.60	39130.54
544.80	38766.00
545.00	38636.98
545.20	39040.43
545.41	39044.52
545.61	38845.87
545.81	39441.83
546.01	39296.42
546.21	39245.23
546.42	39151.02
546.62	39376.30
546.82	38872.49
547.02	39542.18
547.22	39196.07
547.43	39239.08
547.63	39548.32
547.83	39585.19
548.03	39271.85
548.23	39411.11
548.44	39505.32
548.64	39900.58
548.84	39841.18
549.04	39656.87
549.24	39810.46
549.45	40625.56
549.65	39529.89
549.85	39581.09
550.05	40162.72
550.25	40066.46
550.45	40693.14
550.66	40168.86
550.86	39919.01
551.06	40396.18
551.26	40408.47
551.46	40764.82
551.66	40443.29
551.87	40533.40
552.07	40492.44
552.27	40705.43
552.47	40711.57
552.67	40873.36
552.87	40820.11
553.07	40916.37
553.28	41018.77
553.48	41043.34
553.68	40678.80
553.88	41477.51
554.08	41000.33
554.28	41354.63
554.48	41131.40
554.69	41416.07
554.89	41000.33
555.09	41336.20
555.29	41053.58
555.49	41430.41
555.69	41373.06
555.89	41618.82
556.10	41713.03
556.30	41674.12
556.50	41897.34
556.70	41633.16
556.90	41725.32
557.10	42229.12
557.30	41557.38
557.50	42007.94
557.70	42194.30
557.91	42272.12
558.11	42276.22
558.31	42067.33
558.51	42478.97
558.71	42431.86
558.91	42349.95
559.11	41917.82
559.31	42186.11
559.51	42317.18
559.72	42444.15
559.92	42855.79
560.12	42554.74
560.32	42765.68
560.52	42501.50
560.72	42638.71
560.92	42540.41
561.12	42935.66
561.32	42933.62
561.52	42767.73
561.72	43056.50
561.93	43296.11
562.13	43130.22
562.33	42859.89
562.53	43484.52
562.73	43181.42
562.93	43298.16
563.13	43601.25
563.33	43390.31
563.53	43988.32
563.73	43271.53
563.93	43562.34
564.13	44105.06
564.33	43795.81
564.53	43904.35
564.74	43832.68
564.94	43986.27
565.14	44066.14
565.34	43541.86
565.54	44318.04
565.74	43949.41
565.94	44580.18
566.14	44184.93
566.34	44547.42
566.54	44897.62
566.74	44408.15
566.94	44471.64
567.14	44543.32
567.34	44701.01
567.54	44744.02
567.74	44492.12
567.94	44713.30
568.14	45167.95
568.34	45270.35
568.54	44778.84
568.74	45071.70
568.94	44856.66
569.14	45538.63
569.34	45372.75
569.54	45163.85
569.75	45202.77
569.95	45659.46
570.15	45989.19
570.35	45573.45
570.55	45495.63
570.75	45430.09
570.95	45884.74
571.15	45903.17
571.35	45641.03
571.55	46159.17
571.75	46095.68
571.95	46052.67
572.15	45696.33
572.35	46509.37
572.55	46050.63
572.75	46089.54
572.95	46185.79
573.15	46433.60
573.35	46292.29
573.55	46540.09
573.75	46181.70
573.95	46454.08
574.15	46429.50
574.35	46472.51
574.55	46839.09
574.75	46718.26
574.95	46896.44
575.15	46519.61
575.34	46712.12
575.54	46691.64
575.74	46959.92
575.94	47449.39
576.14	46982.45
576.34	47308.08
576.54	47486.25
576.74	47508.78
576.94	47336.75
577.14	46912.82
577.34	47768.87
577.54	47064.37
577.74	47863.08
577.94	47832.36
578.14	47809.83
578.34	48024.87
578.54	47430.96
578.74	47426.86
578.94	47742.25
579.14	47621.42
579.34	48110.88
579.54	48141.60
579.74	48641.31
579.94	48108.83
580.13	48725.27
580.33	48305.44
580.53	48534.81
580.73	48502.04
580.93	49104.15
581.13	48348.45
581.33	48653.59
581.53	48461.08
581.73	48495.90
581.93	48860.44
582.13	48553.24
582.33	49067.28
582.53	48731.42
582.73	48583.96
582.92	48753.94
583.12	48839.96
583.32	48491.80
583.52	48635.16
583.72	49112.34
583.92	48952.60
584.12	49095.95
584.32	49673.48
584.52	49155.35
584.72	49321.23
584.92	49476.88
585.11	49714.44
585.31	49407.25
585.51	49515.79
585.71	49337.62
585.91	49616.14
586.11	49747.21
586.31	49739.02
586.51	49419.53
586.71	49681.67
586.91	49982.73
587.10	49882.37
587.30	49872.14
587.50	49573.13
587.70	49790.22
587.90	50124.04
588.10	50181.38
588.30	49667.34
588.50	49972.49
588.69	50109.70
588.89	49739.02
589.09	50339.07
589.29	49919.24
589.49	49851.66
589.69	49837.32
589.89	50382.08
590.08	50158.85
590.28	50263.30
590.48	49919.24
590.68	49698.06
590.88	50148.61
591.08	50140.42
591.28	49833.22
591.47	50357.50
591.67	50611.45
591.87	50582.78
592.07	50504.96
592.27	50484.48
592.47	50152.71
592.67	50636.03
592.86	50154.75
593.06	50490.62
593.26	50427.13
593.46	50554.11
593.66	50377.98
593.86	50521.34
594.05	50306.30
594.25	50535.68
594.45	50648.32
594.65	50853.11
594.85	49861.90
595.05	51160.31
595.24	50654.46
595.44	51303.67
595.64	50877.69
595.84	50361.60
596.04	50719.99
596.23	50889.98
596.43	51107.06
596.63	50283.78
596.83	51213.55
597.03	51385.58
597.22	51559.66
597.42	51068.15
597.62	51354.86
597.82	51475.69
598.02	51289.33
598.21	51348.72
598.41	51041.53
598.61	51410.16
598.81	51119.35
599.01	51369.20
599.20	51594.48
599.40	51039.48
599.60	51811.56
599.80	51309.81
600.00	51694.83
600.19	52079.85
600.39	51240.18
600.59	52008.17
600.79	52036.84
600.98	51819.75
601.18	51684.59
601.38	51909.86
601.58	51825.90
601.78	52190.44
601.97	51899.62
602.17	52425.95
602.37	52135.14
602.57	51864.81
602.76	52139.24
602.96	51717.35
603.16	52321.51
603.36	52090.09
603.55	52362.46
603.75	52098.28
603.95	52643.04
604.15	52190.44
604.34	52249.83
604.54	52483.30
604.74	52540.64
604.94	52452.58
605.13	52532.45
605.33	52444.38
605.53	52434.14
605.73	52921.56
605.92	52432.10
606.12	52931.80
606.32	53038.29
606.52	52696.28
606.71	52505.82
606.91	53159.12
607.11	52749.53
607.30	52954.33
607.50	52731.10
607.70	53095.64
607.90	53187.80
608.09	53165.27
608.29	53404.88
608.49	53744.84
608.68	52989.14
608.88	53130.45
609.08	53546.19
609.28	53408.98
609.47	53144.79
609.67	53837.00
609.87	53273.81
610.06	53701.84
610.26	53664.97
610.46	53806.28
610.66	53441.74
610.85	53474.51
611.05	53290.19
611.25	53697.74
611.44	53560.53
611.64	53890.25
611.84	53349.59
612.03	53482.70
612.23	53806.28
612.43	53912.78
612.62	53208.28
612.82	53652.69
613.02	53900.49
613.21	53697.74
613.41	53392.59
613.61	54115.53
613.80	53865.67
614.00	53824.71
614.20	54183.11
614.39	54076.61
614.59	54072.52
614.79	53540.05
614.98	53581.01
615.18	53781.71
615.38	53781.71
615.57	54277.32
615.77	54631.61
615.97	54342.85
616.16	53908.68
616.36	54027.46
616.56	54584.51
616.75	54484.16
616.95	54133.96
617.15	54475.97
617.34	54301.89
617.54	53798.09
617.74	54707.39
617.93	54344.90
618.13	54052.04
618.32	54531.26
618.52	54242.50
618.72	54326.47
618.91	54688.96
619.11	54242.50
619.31	54310.08
619.50	54525.12
619.70	54375.62
619.90	54019.27
620.09	54473.92
620.29	54957.24
620.48	54703.29
620.68	55104.70
620.88	54490.30
621.07	54797.50
621.27	54752.44
621.46	54568.13
621.66	54308.04
621.86	54990.01
622.05	54670.53
622.25	55157.94
622.44	54635.71
622.64	54480.06
622.84	54506.69
623.03	54318.28
623.23	54666.43
623.42	54957.24
623.62	55549.10
623.82	55180.47
624.01	55127.22
624.21	55008.44
624.40	55530.67
624.60	55145.65
624.80	54809.79
624.99	54791.36
625.19	54566.08
625.38	55596.21
625.58	55065.78
625.77	55069.88
625.97	54949.05
626.17	54725.82
626.36	55190.71
626.56	55137.46
626.75	55086.26
626.95	55227.57
627.14	55053.50
627.34	55878.83
627.54	55039.16
627.73	55338.16
627.93	55403.70
628.12	55090.36
628.32	55622.83
628.51	55827.63
628.71	55121.08
628.90	55319.73
629.10	55514.29
629.30	55817.39
629.49	55346.36
629.69	55848.11
629.88	55401.65
630.08	55872.68
630.27	55770.28
630.47	56140.97
630.66	55606.45
630.86	56050.86
631.05	55385.27
631.25	56167.59
631.44	55641.26
631.64	56042.66
631.84	55944.36
632.03	56501.41
632.23	56087.72
632.42	56386.72
632.62	56429.73
632.81	55637.17
633.01	56353.96
633.20	56069.29
633.40	56616.10
633.59	56640.67
633.79	56022.19
633.98	55911.59
634.18	56343.72
634.37	56409.25
634.57	56632.48
634.76	56313.00
634.96	56204.45
635.15	56120.49
635.35	56399.01
635.54	56057.00
635.74	56183.97
635.93	55856.30
636.13	56540.32
636.32	56638.62
636.52	56286.37
636.71	56648.86
636.91	57015.45
637.10	56382.63
637.30	56372.39
637.49	56032.42
637.69	56659.10
637.88	56640.67
638.08	56370.34
638.27	56939.68
638.46	56655.01
638.66	56712.35
638.85	56622.24
639.05	56614.05
639.24	56620.19
639.44	56401.06
639.63	56827.04
639.83	57275.54
640.02	57187.48
640.22	56552.61
640.41	56827.04
640.61	56353.96
640.80	56667.30
640.99	56759.45
641.19	57300.12
641.38	56579.23
641.58	56480.93
641.77	56648.86
641.97	56267.94
642.16	56784.03
642.36	56857.76
642.55	57406.61
642.74	56548.51
642.94	57617.55
643.13	56954.01
643.33	57099.42
643.52	56872.09
643.72	57400.47
643.91	57423.00
644.10	56968.35
644.30	57322.65
644.49	57691.28
644.69	57187.48
644.88	57150.62
645.08	57044.12
645.27	56714.40
645.46	56802.46
645.66	57410.71
645.85	57056.41
646.05	57420.95
646.24	57228.44
646.43	57502.87
646.63	57379.99
646.82	57347.22
647.02	57578.64
647.21	56882.33
647.40	57394.32
647.60	57023.64
647.79	57640.08
647.99	57910.41
648.18	56816.80
648.37	57613.46
648.57	57746.57
648.76	57521.30
648.96	57078.94
649.15	57345.17
649.34	57310.36
649.54	57359.51
649.73	57128.09
649.92	57244.82
650.12	57668.75
650.31	57638.03
650.51	57207.96
650.70	57384.08
650.89	57070.75
651.09	57851.02
651.28	57724.05
651.47	57453.72
651.67	57496.72
651.86	57793.68
652.06	57158.81
652.25	57414.80
652.44	57742.48
652.64	57226.39
652.83	57408.66
653.02	57267.35
653.22	57140.38
653.41	56970.39
653.60	56513.70
653.80	57463.96
653.99	57152.66
654.18	56915.10
654.38	57148.57
654.57	57291.93
654.76	57408.66
654.96	56612.00
655.15	57171.10
655.34	56923.29
655.54	56835.23
655.73	56988.83
655.92	57377.94
656.12	57058.46
656.31	57144.47
656.50	56923.29
656.70	56972.44
656.89	57031.83
657.08	57646.22
657.28	57386.13
657.47	57373.84
657.66	57334.93
657.86	56796.32
658.05	57195.67
658.24	57375.89
658.43	56771.74
658.63	56898.72
658.82	57181.34
659.01	56759.45
659.21	56902.81
659.40	57037.98
659.59	56546.47
659.79	57046.17
659.98	57046.17
660.17	56927.39
660.36	56855.71
660.56	57275.54
660.75	57144.47
660.94	57080.98
661.14	57042.07
661.33	56868.00
661.52	56624.29
661.71	57132.18
661.91	56573.09
662.10	56646.82
662.29	57377.94
662.49	56661.15
662.68	56966.30
662.87	56845.47
663.06	56693.92
663.26	56802.46
663.45	57134.23
663.64	56804.51
663.83	57046.17
664.03	56599.71
664.22	56794.27
664.41	57003.16
664.60	56601.76
664.80	56550.56
664.99	56642.72
665.18	56257.70
665.37	56685.73
665.57	56698.01
665.76	56325.28
665.95	56353.96
666.14	56439.97
666.34	56423.59
666.53	56161.45
666.72	56310.95
666.91	56396.96
667.11	56128.68
667.30	56319.14
667.49	56456.35
667.68	56382.63
667.87	56392.87
668.07	56159.40
668.26	56276.13
668.45	55948.46
668.64	56331.43
668.84	56718.49
669.03	56517.79
669.22	56405.16
669.41	55944.36
669.60	56394.92
669.80	55997.61
669.99	56296.61
670.18	56427.68
670.37	56147.11
670.57	56292.52
670.76	56024.23
670.95	56544.42
671.14	55999.66
671.33	55663.79
671.53	56192.17
671.72	55641.26
671.91	55776.43
672.10	56079.53
672.29	55813.29
672.48	55964.84
672.68	56122.54
672.87	55725.23
673.06	55696.56
673.25	55682.22
673.44	55448.75
673.64	56007.85
673.83	55860.40
674.02	55686.32
674.21	55499.95
674.40	56360.10
674.59	55899.31
674.79	56020.14
674.98	55469.23
675.17	55772.33
675.36	55792.81
675.55	55901.36
675.74	55305.40
675.94	55956.65
676.13	55663.79
676.32	55661.74
676.51	55704.75
676.70	55721.13
676.89	55350.45
677.08	55706.80
677.28	55432.37
677.47	55964.84
677.66	55868.59
677.85	55622.83
678.04	56124.58
678.23	55948.46
678.42	55317.68
678.62	55227.57
678.81	55645.36
679.00	55424.18
679.19	56155.30
679.38	55530.67
679.57	55579.82
679.76	55557.30
679.96	55958.70
680.15	55622.83
680.34	55714.99
680.53	55467.19
680.72	55805.10
680.91	55860.40
681.10	55680.17
681.29	55590.06
681.48	55841.96
681.68	55344.31
681.87	55215.29
682.06	55229.62
682.25	55139.51
682.44	55694.51
682.63	55383.22
682.82	55063.74
683.01	55119.03
683.20	55026.87
683.39	55495.86
683.59	55254.20
683.78	55571.63
683.97	55383.22
684.16	55092.41
684.35	55389.36
684.54	55069.88
684.73	55114.94
684.92	55071.93
685.11	55352.50
685.30	55194.81
685.49	55837.87
685.69	55178.42
685.88	55350.45
686.07	54932.67
686.26	55008.44
686.45	55458.99
686.64	55039.16
686.83	55512.24
687.02	54809.79
687.21	55538.86
687.40	55033.02
687.59	55221.43
687.78	55035.06
687.97	55530.67
688.16	55047.35
688.35	54881.47
688.54	54795.45
688.74	54965.43
688.93	55291.06
689.12	55203.00
689.31	55252.15
689.50	55241.91
689.69	54674.62
689.88	54383.81
690.07	55037.11
690.26	55364.79
690.45	55743.66
690.64	54752.44
690.83	54932.67
691.02	54793.40
691.21	54879.42
691.40	54666.43
691.59	55504.05
691.78	54860.99
691.97	55194.81
692.16	55256.24
692.35	55190.71
692.54	55129.27
692.73	55004.34
692.92	54777.02
693.11	54791.36
693.30	54783.16
693.49	55280.82
693.68	54858.94
693.87	54938.81
694.06	54607.04
694.25	54711.49
694.44	54811.84
694.63	54570.18
694.82	54840.51
695.01	54938.81
695.20	54789.31
695.39	54817.98
695.58	54312.13
695.77	54613.18
695.96	54363.33
696.15	54566.08
696.34	55067.83
696.53	54951.10
696.72	55055.54
696.91	54963.39
697.10	54400.19
697.29	54318.28
697.48	54867.13
697.67	54621.37
697.86	54230.21
698.05	54670.53
698.24	55108.79
698.43	54072.52
698.62	54783.16
698.81	54394.05
699.00	54932.67
699.19	54416.58
699.38	54656.19
699.57	54463.68
699.76	55088.31
699.95	54336.71
700.14	54183.11
700.32	54588.61
700.51	54584.51
700.70	55030.97
700.89	54394.05
701.08	54701.25
701.27	54351.04
701.46	54291.65
701.65	53935.30
701.84	54510.78
702.03	54633.66
702.22	54338.75
702.41	54058.18
702.60	54879.42
702.79	54695.10
702.98	54297.80
703.17	54242.50
703.35	53892.30
703.54	54314.18
703.73	54670.53
703.92	54674.62
704.11	54457.54
704.30	53875.91
704.49	53877.96
704.68	54211.78
704.87	54392.00
705.06	54033.61
705.25	54125.77
705.43	53984.46
705.62	54459.58
705.81	54441.15
706.00	54293.70
706.19	53785.80
706.38	54181.06
706.57	54224.07
706.76	54324.42
706.95	54736.06
707.14	54023.37
707.32	53849.29
707.51	53998.79
707.70	53902.54
707.89	54314.18
708.08	53963.98
708.27	54338.75
708.46	54172.87
708.65	53558.48
708.84	54113.48
709.02	54242.50
709.21	54326.47
709.40	53644.49
709.59	53845.19
709.78	53265.62
709.97	54295.75
710.16	54269.12
710.34	54107.33
710.53	53908.68
710.72	53189.84
710.91	53800.14
711.10	53982.41
711.29	53753.04
711.48	53404.88
711.66	53691.60
711.85	53642.45
712.04	53597.39
712.23	53628.11
712.42	53210.32
712.61	53445.84
712.80	54269.12
712.98	53589.20
713.17	53107.93
713.36	53239.00
713.55	53650.64
713.74	53372.11
713.93	53288.15
714.11	53408.98
714.30	53556.43
714.49	52966.62
714.68	53564.62
714.87	53761.23
715.06	53593.29
715.24	53179.60
715.43	53134.55
715.62	53089.49
715.81	52446.43
716.00	53263.57
716.18	52571.36
716.37	52294.88
716.56	52509.92
716.75	53152.98
716.94	52743.39
717.12	52684.00
717.31	52937.94
717.50	52972.76
717.69	52694.24
717.88	52575.45
718.06	52628.70
718.25	52880.60
718.44	52356.32
718.63	52532.45
718.82	52221.16
719.00	52135.14
719.19	52018.41
719.38	52212.96
719.57	52430.05
719.76	51797.23
719.94	51541.23
720.13	51766.51
720.32	51461.36
720.51	51576.04
720.69	52008.17
720.88	51533.04
721.07	51862.76
721.26	51358.96
721.44	51254.51
721.63	51465.45
721.82	51530.99
722.01	51369.20
722.20	51361.01
722.38	51162.36
722.57	51043.57
722.76	51141.88
722.95	51223.79
723.13	50711.80
723.32	51657.96
723.51	50683.13
723.70	50746.62
723.88	50715.90
724.07	50779.39
724.26	50808.06
724.44	50199.81
724.63	50713.85
724.82	50552.06
725.01	50341.12
725.19	50500.86
725.38	50562.30
725.57	50345.22
725.76	50402.56
725.94	50205.95
726.13	50025.73
726.32	50150.66
726.51	50279.68
726.69	50349.31
726.88	49964.29
727.07	50326.78
727.25	49857.80
727.44	49802.50
727.63	50173.19
727.82	49992.97
728.00	49831.18
728.19	49863.94
728.38	50144.51
728.56	49612.04
728.75	50205.95
728.94	49808.65
729.12	49984.77
729.31	49939.72
729.50	49435.92
729.69	49724.68
729.87	49585.42
730.06	49933.57
730.25	49820.94
730.43	49849.61
730.62	49388.81
730.81	49761.54
730.99	50050.31
731.18	49272.08
731.37	49620.23
731.55	49796.36
731.74	49497.36
731.93	49716.49
732.11	49859.85
732.30	49267.98
732.49	49415.44
732.67	49667.34
732.86	49384.72
733.05	49249.55
733.23	49241.36
733.42	49259.79
733.61	49282.32
733.79	49067.28
733.98	49515.79
734.17	49337.62
734.35	49005.84
734.54	49239.31
734.73	49317.14
734.91	48989.46
735.10	48768.28
735.29	49267.98
735.47	48747.80
735.66	48676.12
735.84	49124.63
736.03	48268.58
736.22	48993.56
736.40	48200.99
736.59	48696.60
736.78	48882.97
736.96	48514.33
737.15	48573.72
737.33	48487.71
737.52	48614.68
737.71	48559.39
737.89	48629.02
738.08	48629.02
738.27	47758.63
738.45	48274.72
738.64	48516.38
738.82	48452.89
739.01	48106.79
739.20	48287.01
739.38	48233.76
739.57	48241.95
739.75	48182.56
739.94	47883.56
740.13	47787.30
740.31	47983.91
740.50	47813.93
740.68	47783.21
740.87	47949.09
741.06	48162.08
741.24	47652.14
741.43	47435.05
741.61	47682.86
741.80	47469.87
741.99	47463.72
742.17	47299.89
742.36	47596.84
742.54	47346.99
742.73	47559.98
742.91	47416.62
743.10	47271.21
743.29	47643.94
743.47	47621.42
743.66	47416.62
743.84	47652.14
744.03	47215.92
744.21	46861.62
744.40	47009.07
744.59	47013.17
744.77	46929.20
744.96	46884.15
745.14	46382.40
745.33	46759.22
745.51	46587.19
745.70	46656.82
745.88	46456.12
746.07	46300.48
746.26	46261.57
746.44	46490.94
746.63	45991.23
746.81	46466.36
747.00	46228.80
747.18	46687.54
747.37	46150.98
747.55	46368.06
747.74	46617.91
747.92	45909.32
748.11	45839.68
748.29	46193.98
748.48	46011.71
748.66	46355.77
748.85	45790.53
749.03	45837.64
749.22	46107.97
749.41	45659.46
749.59	45798.73
749.78	45659.46
749.96	45204.81
750.15	45438.28
750.33	45794.63
750.52	45481.29
750.70	45851.97
750.89	45321.55
751.07	45401.42
751.26	45479.24
751.44	45385.04
751.63	45210.96
751.81	44881.24
752.00	45147.47
752.18	45249.87
752.37	45012.31
752.55	44817.75
752.74	45190.48
752.92	44846.42
753.10	44778.84
753.29	45151.57
753.47	44778.84
753.66	44741.97
753.84	44895.57
754.03	44905.81
754.21	44776.79
754.40	44637.53
754.58	44500.31
754.77	44594.52
754.95	44361.05
755.14	45022.54
755.32	44316.00
755.51	43973.98
755.69	44367.20
755.88	44516.70
756.06	44176.73
756.24	44295.52
756.43	44361.05
756.61	44500.31
756.80	44141.92
756.98	43896.16
757.17	43853.15
757.35	43672.93
757.54	43498.86
757.72	43861.35
757.90	43806.05
758.09	43732.32
758.27	43521.38
758.46	43345.26
758.64	43396.46
758.83	43617.64
759.01	43441.51
759.19	43246.96
759.38	43111.79
759.56	43148.65
759.75	43726.18
759.93	43423.08
760.12	43588.97
760.30	43079.02
760.48	42906.99
760.67	43199.85
760.85	43310.44
761.04	43371.88
761.22	43572.58
761.40	42997.10
761.59	42931.57
761.77	43033.97
761.96	43224.43
762.14	42759.54
762.32	42777.97
762.51	42995.06
762.69	42943.86
762.88	42620.28
763.06	42534.26
763.24	42585.46
763.43	42659.19
763.61	42550.65
763.80	42354.04
763.98	42358.14
764.16	42036.61
764.35	42534.26
764.53	41780.61
764.72	42304.89
764.90	41874.82
765.08	42311.03
765.27	41993.60
765.45	41649.54
765.63	41336.20
765.82	42143.10
766.00	41786.75
766.18	41428.36
766.37	42171.77
766.55	41422.22
766.74	41655.68
766.92	41614.72
767.10	41497.99
767.29	41237.90
767.47	41139.60
767.65	41592.20
767.84	41174.41
768.02	41420.17
768.20	40861.07
768.39	41405.83
768.57	41319.82
768.75	41256.33
768.94	41414.02
769.12	41545.09
769.30	41100.68
769.49	40904.08
769.67	41186.70
769.85	40846.74
770.04	40963.47
770.22	40502.68
770.40	40529.30
770.59	40574.36
770.77	40912.27
770.95	40347.03
771.14	40629.65
771.32	40476.05
771.50	40226.20
771.69	40205.72
771.87	40830.35
772.05	40431.00
772.24	39978.40
772.42	40641.94
772.60	40439.19
772.78	40320.41
772.97	40342.94
773.15	40412.57
773.33	40045.98
773.52	40138.14
773.70	40512.92
773.88	40367.51
774.07	39900.58
774.25	40342.94
774.43	40213.91
774.61	40441.24
774.80	40617.36
774.98	40633.75
775.16	40461.72
775.34	40412.57
775.53	40449.43
775.71	40340.89
775.89	40242.59
776.08	40088.99
776.26	40209.82
776.44	40748.43
776.62	39894.43
776.81	40367.51
776.99	40316.31
777.17	40293.79
777.35	40383.90
777.54	40609.17
777.72	40357.27
777.90	40707.47
778.08	40725.91
778.27	40478.10
778.45	40752.53
778.63	40838.54
778.81	40293.79
779.00	41076.11
779.18	40535.45
779.36	41029.01
779.54	40654.23
779.73	40924.56
779.91	41082.25
780.09	41194.89
780.27	41155.98
780.46	41055.63
780.64	41123.21
780.82	40902.03
781.00	40854.93
781.19	41223.56
781.37	41395.59
781.55	41368.97
781.73	41592.20
781.91	41051.53
782.10	41336.20
782.28	41495.94
782.46	41620.87
782.64	41248.14
782.82	41399.69
783.01	41667.97
783.19	41346.44
783.37	41725.32
783.55	41618.82
783.74	41747.84
783.92	41088.40
784.10	42186.11
784.28	41428.36
784.46	41452.94
784.64	41491.85
784.83	41295.24
785.01	42184.06
785.19	41618.82
785.37	41360.78
785.55	41168.27
785.74	41502.09
785.92	41315.72
786.10	41774.47
786.28	41770.37
786.46	41000.33
786.64	41340.30
786.83	41366.92
787.01	41616.77
787.19	41213.32
787.37	40955.28
787.55	41262.47
787.74	41000.33
787.92	41319.82
788.10	41262.47
788.28	41287.05
788.46	41260.43
788.64	41225.61
788.82	41289.10
789.01	41166.22
789.19	41076.11
789.37	41031.05
789.55	40959.38
789.73	40832.40
789.91	40359.32
790.09	40547.73
790.28	40684.95
790.46	40355.22
790.64	41094.54
790.82	40813.97
791.00	40494.49
791.18	40576.40
791.36	40318.36
791.55	40668.56
791.73	40242.59
791.91	40273.31
792.09	40015.26
792.27	40095.13
792.45	40103.32
792.63	40121.76
792.81	40547.73
793.00	39927.20
793.18	39839.14
793.36	39902.62
793.54	39781.79
793.72	39898.53
793.90	39437.73
794.08	39224.75
794.26	39624.10
794.44	39232.94
794.62	38915.50
794.81	39568.80
794.99	39007.66
795.17	39187.88
795.35	39245.23
795.53	38862.26
795.71	39411.11
795.89	38895.02
796.07	38661.55
796.25	38364.60
796.43	38718.90
796.61	38155.71
796.80	38352.31
796.98	38647.22
797.16	38127.03
797.34	38290.87
797.52	37836.22
797.70	38311.35
797.88	38047.16
798.06	38106.55
798.24	38098.36
798.42	37957.05
798.60	37731.78
798.78	37551.56
798.96	37828.03
799.14	37332.42
799.32	37445.06
799.51	37406.15
799.69	37359.05
799.87	37672.39
800.05	37080.52
800.23	37293.51
800.41	37039.56
800.59	36961.74
800.77	36857.29
800.95	36933.07
801.13	36957.64
801.31	36498.90
801.49	36933.07
801.67	36638.16
801.85	36468.18
802.03	36398.55
802.21	36359.64
802.39	36079.07
802.57	36400.60
802.75	36433.36
802.93	36066.78
803.11	35612.13
803.29	35808.73
803.47	35640.80
803.65	35894.75
803.83	35698.14
804.01	35730.91
804.19	35067.37
804.37	35681.76
804.55	35499.49
804.73	35468.77
804.91	35380.71
805.09	35468.77
805.27	35202.53
805.45	35155.43
805.63	35145.19
805.81	35061.22
805.99	35083.75
806.17	35276.26
806.35	34725.36
806.53	34829.80
806.71	34868.72
806.89	34569.71
807.07	34731.50
807.25	34840.04
807.43	34534.90
807.61	34551.28
807.79	34670.06
807.97	34321.91
808.15	34342.39
808.33	33887.74
808.51	34090.49
808.69	34127.35
808.87	33971.71
809.05	34278.90
809.23	33945.08
809.41	33273.35
809.59	33863.16
809.77	33658.37
809.95	33472.00
810.13	33863.16
810.31	33617.41
810.49	33299.97
810.67	33484.29
810.84	33224.20
811.02	33318.40
811.20	33074.70
811.38	33252.87
811.56	32953.87
811.74	32917.00
811.92	33058.31
812.10	32996.87
812.28	33179.14
812.46	32904.71
812.64	33095.18
812.82	32636.43
813.00	32849.42
813.18	32779.79
813.36	32546.32
813.53	32409.11
813.71	32372.24
813.89	32333.33
814.07	32251.41
814.25	32249.36
814.43	32038.42
814.61	31794.71
814.79	32114.20
814.97	31972.89
815.15	32325.14
815.33	31782.43
815.50	31661.60
815.68	32101.91
815.86	31870.49
816.04	31512.10
816.22	31471.14
816.40	31929.88
816.58	31534.62
816.76	31524.38
816.94	31282.72
817.11	31727.13
817.29	31346.21
817.47	31211.04
817.65	31317.54
817.83	31620.64
818.01	31045.16
818.19	30801.45
818.37	30918.18
818.54	30658.09
818.72	30617.13
818.90	30565.93
819.08	30842.41
819.26	30955.05
819.44	30645.80
819.62	30715.44
819.80	30615.08
819.97	30686.76
820.15	30467.63
820.33	30447.15
820.51	30774.83
820.69	30328.37
820.87	30332.47
821.05	30307.89
821.22	30438.96
821.40	30133.81
821.58	30002.74
821.76	29781.56
821.94	30205.49
822.12	30099.00
822.29	30135.86
822.47	29599.29
822.65	30010.93
822.83	29894.20
823.01	29797.95
823.19	29580.86
823.36	29566.52
823.54	29374.02
823.72	29515.33
823.90	29435.45
824.08	29111.88
824.25	29337.15
824.43	29255.23
824.61	29150.79
824.79	29204.03
824.97	29195.84
825.15	29562.43
825.32	29335.10
825.50	28960.33
825.68	29085.25
825.86	29359.68
826.04	28902.98
826.21	28710.47
826.39	29038.15
826.57	28546.64
826.75	28530.25
826.93	28329.55
827.10	28233.30
827.28	28804.68
827.46	28874.31
827.64	28909.13
827.81	28558.92
827.99	28577.36
828.17	28264.02
828.35	28423.76
828.53	28251.73
828.70	28452.43
828.88	28337.74
829.06	28384.85
829.24	28513.87
829.41	27993.68
829.59	28331.60
829.77	27780.70
829.95	28276.30
830.12	27991.64
830.30	27819.61
830.48	28014.16
830.66	28044.88
830.84	27952.73
831.01	27721.30
831.19	27723.35
831.37	27752.02
831.55	27731.54
831.72	27584.09
831.90	27827.80
832.08	27754.07
832.25	27686.49
832.43	27496.03
832.61	27729.50
832.79	27252.32
832.96	27278.94
833.14	27299.42
833.32	27471.45
833.50	27623.00
833.67	27655.77
833.85	27119.20
834.03	26920.55
834.20	27225.70
834.38	26818.15
834.56	27313.76
834.74	26732.14
834.91	26828.39
835.09	26799.72
835.27	26619.50
835.44	26488.43
835.62	26355.31
835.80	26639.98
835.98	26723.94
836.15	26525.29
836.33	26506.86
836.51	26627.69
836.68	26232.43
836.86	26570.35
837.04	26400.37
837.21	26181.23
837.39	26297.97
837.57	26379.89
837.75	26265.20
837.92	26103.41
838.10	25781.88
838.28	25974.39
838.45	25730.68
838.63	25742.97
838.81	25847.41
838.98	25800.31
839.16	25603.71
839.34	25804.41
839.51	25802.36
839.69	25433.72
839.87	25581.18
840.04	25808.50
840.22	25722.49
840.40	25747.06
840.57	25233.02
840.75	25548.41
840.93	24952.45
841.10	25230.98
841.28	25390.72
841.46	25083.52
841.63	25495.16
841.81	25216.64
841.98	25271.93
842.16	25206.40
842.34	25448.06
842.51	24911.49
842.69	25476.73
842.87	25282.17
843.04	25298.56
843.22	24721.03
843.40	24776.33
843.57	24991.36
843.75	24917.64
843.92	24917.64
844.10	24813.19
844.28	24694.41
844.45	24690.31
844.63	24823.43
844.81	24757.89
844.98	24635.02
845.16	24735.37
845.33	24686.22
845.51	24524.43
845.69	24266.38
845.86	24444.56
846.04	24444.56
846.21	24551.05
846.39	24293.01
846.57	24436.36
846.74	24551.05
846.92	24252.05
847.09	24129.17
847.27	24022.67
847.45	24327.82
847.62	24016.53
847.80	24002.19
847.97	24108.69
848.15	23885.46
848.32	23950.99
848.50	23852.69
848.68	23578.26
848.85	23938.71
849.03	23768.73
849.20	23869.08
849.38	23985.81
849.56	23729.81
849.73	23647.90
849.91	23707.29
850.08	23778.97
850.26	23533.21
850.43	23326.36
850.61	23385.76
850.78	23369.37
850.96	23434.91
851.14	23363.23
851.31	23508.63
851.49	23099.04
851.66	23555.74
851.84	23445.15
852.01	23187.10
852.19	23367.32
852.36	23053.98
852.54	23150.24
852.71	22927.01
852.89	22779.56
853.07	23094.94
853.24	22865.57
853.42	22896.29
853.59	22693.54
853.77	22529.70
853.94	22650.53
854.12	23043.74
854.29	22683.30
854.47	22703.78
854.64	22541.99
854.82	22556.33
854.99	22511.27
855.17	22345.39
855.34	22560.42
855.52	22566.57
855.69	22587.05
855.87	22603.43
856.04	22083.25
856.22	22353.58
856.39	21997.23
856.57	22181.55
856.74	22193.84
856.92	22353.58
857.09	22118.06
857.27	22050.48
857.44	22199.98
857.62	22253.23
857.79	21884.59
857.97	21982.90
858.14	21970.61
858.32	21720.76
858.49	21872.31
858.67	22050.48
858.84	21866.16
859.02	21892.79
859.19	21616.31
859.37	21798.58
859.54	21544.63
859.72	21810.87
859.89	21470.90
860.06	21800.63
860.24	21489.34
860.41	21659.32
860.59	21331.64
860.76	21647.03
860.94	21221.05
861.11	21710.52
861.29	21270.20
861.46	21073.60
861.64	20983.49
861.81	21006.02
861.98	21495.48
862.16	21171.90
862.33	21069.50
862.51	21026.50
862.68	21044.93
862.86	20590.28
863.03	21065.41
863.21	20960.96
863.38	20987.58
863.55	20860.61
863.73	21188.28
863.90	20975.30
864.08	20639.43
864.25	20358.86
864.43	20739.78
864.60	20610.76
864.77	20932.29
864.95	20731.59
865.12	20627.14
865.30	20854.47
865.47	20637.38
865.64	20483.78
865.82	20545.22
865.99	20557.51
866.17	20342.47
866.34	20354.76
866.51	19949.26
866.69	20297.42
866.86	20408.01
867.04	20324.04
867.21	20465.35
867.38	20129.48
867.56	20119.24
867.73	19975.89
867.91	19871.44
868.08	19881.68
868.25	19853.01
868.43	19554.01
868.60	19902.16
868.78	19738.32
868.95	20113.10
869.12	19660.50
869.30	19707.60
869.47	19762.90
869.64	19558.10
869.82	19607.25
869.99	19445.46
870.16	19867.34
870.34	19625.68
870.51	19717.84
870.69	19713.75
870.86	19248.86
871.03	19384.02
871.21	19324.63
871.38	19576.53
871.55	19300.06
871.73	19197.66
871.90	19179.23
872.07	19146.46
872.25	19056.35
872.42	19103.45
872.59	19015.39
872.77	19087.07
872.94	18894.56
873.11	18867.94
873.29	18740.96
873.46	18736.87
873.63	18671.33
873.81	18902.75
873.98	18624.23
874.15	18689.76
874.33	18685.67
874.50	18386.66
874.67	18575.08
874.85	18556.64
875.02	18626.28
875.19	18454.25
875.37	18145.00
875.54	18224.87
875.71	18401.00
875.88	18188.01
876.06	18175.72
876.23	18347.75
876.40	18292.46
876.58	18194.15
876.75	18267.88
876.92	18040.56
877.10	17956.59
877.27	17923.82
877.44	17739.51
877.61	17753.84
877.79	17807.09
877.96	17751.79
878.13	17739.51
878.31	17661.68
878.48	17981.17
878.65	17958.64
878.82	17807.09
879.00	17530.61
879.17	17350.39
879.34	17526.52
879.51	17526.52
879.69	17465.08
879.86	17186.55
880.03	17549.04
880.21	17172.22
880.38	17108.73
880.55	17291.00
880.72	17682.16
880.90	17317.62
881.07	17235.70
881.24	17227.51
881.41	17366.78
881.59	16975.61
881.76	17219.32
881.93	17149.69
882.10	16809.73
882.28	17166.07
882.45	17065.72
882.62	16998.14
882.79	16971.52
882.96	16686.85
883.14	17102.59
883.31	16908.03
883.48	16912.13
883.65	16815.87
883.83	16932.61
884.00	16854.78
884.17	16987.90
884.34	16969.47
884.51	16793.34
884.69	16961.28
884.86	16793.34
885.03	16783.10
885.20	16600.83
885.38	16852.73
885.55	16748.29
885.72	16791.30
885.89	16613.12
886.06	16713.47
886.24	16449.28
886.41	16623.36
886.58	16572.16
886.75	16752.38
886.92	16246.54
887.10	16312.07
887.27	16287.50
887.44	16572.16
887.61	16275.21
887.78	16404.23
887.95	16256.78
888.13	16254.73
888.30	16154.38
888.47	16146.19
888.64	16080.65
888.81	16078.60
888.99	16193.29
889.16	15793.94
889.33	16162.57
889.50	15892.24
889.67	15896.33
889.84	16127.75
890.01	15927.05
890.19	15869.71
890.36	16041.74
890.53	15965.96
890.70	15738.64
890.87	15738.64
891.04	15771.41
891.22	15714.06
891.39	15949.58
891.56	15460.12
891.73	15671.06
891.90	15658.77
892.07	15333.14
892.24	15779.60
892.42	15496.98
892.59	15507.22
892.76	15523.60
892.93	15482.64
893.10	15578.90
893.27	15503.12
893.44	15478.55
893.61	15574.80
893.79	15494.93
893.96	15429.40
894.13	15388.44
894.30	15441.68
894.47	15216.41
894.64	15437.59
894.81	15240.98
894.98	15548.18
895.15	15456.02
895.33	15267.61
895.50	15163.16
895.67	15349.53
895.84	15144.73
896.01	15120.15
896.18	15197.98
896.35	15537.94
896.52	15208.22
896.69	15261.46
896.86	15343.38
897.04	15408.92
897.21	15265.56
897.38	15458.07
897.55	15132.44
897.72	15273.75
897.89	15511.32
898.06	15275.80
898.23	15257.37
898.40	15210.26
898.57	15271.70
898.74	15107.87
898.91	15218.46
899.08	15142.68
899.26	15441.68
899.43	15212.31
899.60	15058.71
899.77	15175.45
899.94	15140.63
900.11	15040.28
900.28	15212.31
900.45	15007.52
900.62	15150.87
900.79	15232.79
900.96	15058.71
901.13	14939.93
901.30	15042.33
901.47	15177.50
901.64	15077.15
901.81	14970.65
901.98	14948.12
902.15	15310.61
902.32	15005.47
902.49	15140.63
902.66	15173.40
902.83	15042.33
903.01	15052.57
903.18	15169.30
903.35	14880.54
903.52	14939.93
903.69	15327.00
903.86	15071.00
904.03	15152.92
904.20	15296.28
904.37	15224.60
904.54	15128.35
904.71	15298.33
904.88	15071.00
905.05	15077.15
905.22	15132.44
905.39	14864.16
905.56	15001.37
905.73	15054.62
905.90	14894.88
906.07	15257.37
906.24	15042.33
906.41	14872.35
906.58	15247.13
906.75	14898.97
906.92	15093.53
907.09	15023.90
907.26	15101.72
907.43	15038.23
907.60	14874.40
907.77	15243.03
907.93	15183.64
908.10	15197.98
908.27	15128.35
908.44	14954.27
908.61	15107.87
908.78	14917.40
908.95	15132.44
909.12	14950.17
909.29	15015.71
909.46	15017.75
909.63	14757.66
909.80	14976.80
909.97	15054.62
910.14	14913.31
910.31	14997.28
910.48	14790.43
910.65	14954.27
910.82	14800.67
910.99	15034.14
911.16	14915.36
911.33	14624.54
911.50	14984.99
911.66	14853.92
911.83	14868.25
912.00	14645.02
912.17	14477.09
912.34	14747.42
912.51	14802.72
912.68	14780.19
912.85	14739.23
913.02	14841.63
913.19	14653.22
913.36	14556.96
913.53	14681.89
913.70	14755.61
913.86	14702.37
914.03	14524.19
914.20	14577.44
914.37	14360.36
914.54	14280.49
914.71	14552.87
914.88	14364.45
915.05	14276.39
915.22	14217.00
915.39	14339.88
915.55	14348.07
915.72	14282.53
915.89	14315.30
916.06	14053.16
916.23	14239.53
916.40	14219.05
916.57	14079.79
916.74	14120.74
916.91	13922.09
917.07	13766.45
917.24	13942.57
917.41	13993.77
917.58	13899.56
917.75	13725.49
917.92	13625.14
918.09	13719.34
918.26	13752.11
918.42	13918.00
918.59	13862.70
918.76	13553.46
918.93	13475.63
919.10	13453.11
919.27	13469.49
919.44	13739.82
919.60	13500.21
919.77	13410.10
919.94	13774.64
920.11	13428.53
920.28	13575.98
920.45	13356.85
920.61	13012.79
920.78	13340.47
920.95	13010.75
921.12	13121.34
921.29	13074.23
921.46	12898.11
921.62	12838.72
921.79	12883.77
921.96	12877.63
922.13	13129.53
922.30	12961.59
922.47	12742.46
922.63	12683.07
922.80	12672.83
922.97	12613.44
923.14	12715.84
923.31	12603.20
923.47	12601.15
923.64	12711.74
923.81	12576.58
923.98	12494.66
924.15	12246.85
924.32	12422.98
924.48	12390.21
924.65	12465.99
924.82	12281.67
924.99	12033.86
925.15	11943.75
925.32	12064.58
925.49	11988.81
925.66	11867.98
925.83	11906.89
925.99	12044.10
926.16	11749.20
926.33	11845.45
926.50	11790.16
926.67	12072.78
926.83	11673.42
927.00	11642.70
927.17	11775.82
927.34	11550.54
927.50	11673.42
927.67	11751.24
927.84	11591.50
928.01	11427.67
928.17	11243.35
928.34	11292.50
928.51	11210.58
928.68	11358.03
928.84	11136.85
929.01	11124.57
929.18	11028.31
929.35	11095.89
929.51	11153.24
929.68	10966.87
929.85	10848.09
930.02	11091.80
930.18	10891.10
930.35	10858.33
930.52	10694.49
930.69	10897.24
930.85	10768.22
931.02	10501.98
931.19	10710.88
931.36	10743.64
931.52	10495.84
931.69	10698.59
931.86	10411.87
932.02	10581.85
932.19	10217.32
932.36	10276.71
932.53	10227.56
932.69	10205.03
932.86	10256.23
933.03	10168.16
933.19	9979.75
933.36	10035.05
933.53	9944.94
933.70	9914.22
933.86	9856.87
934.03	9869.16
934.20	9492.34
934.36	9758.57
934.53	9559.92
934.70	9596.78
934.86	9531.25
935.03	9283.44
935.20	9602.93
935.36	9404.27
935.53	9068.41
935.70	9168.76
935.86	9187.19
936.03	8990.58
936.20	8836.99
936.36	8759.16
936.53	8898.42
936.70	8736.63
936.86	8927.10
937.03	8490.88
937.20	8413.06
937.36	8382.34
937.53	8345.47
937.70	8193.92
937.86	8099.72
938.03	8060.80
938.20	8073.09
938.36	8007.56
938.53	7767.95
938.70	7620.49
938.86	7638.92
939.03	7497.61
939.20	7626.64
939.36	7384.98
939.53	7339.92
939.70	7630.73
939.86	7192.47
940.03	7004.05
940.19	7065.49
940.36	7198.61
940.53	7055.25
940.69	6780.82
940.86	6655.90
941.03	6592.41
941.19	6582.17
941.36	6541.21
941.52	6479.77
941.69	6455.20
941.86	6336.42
942.02	6346.66
942.19	6248.35
942.35	6268.83
942.52	6217.63
942.69	6104.99
942.85	5984.16
943.02	6045.60
943.18	5922.73
943.35	5992.36
943.52	5830.57
943.68	5898.15
943.85	5840.81
944.01	5844.90
944.18	5752.74
944.35	5816.23
944.51	5615.53
944.68	5697.45
944.84	5580.71
945.01	5689.26
945.17	5642.15
945.34	5701.54
945.51	5504.94
945.67	5572.52
945.84	5611.43
946.00	5453.74
946.17	5392.30
946.33	5427.12
946.50	5496.75
946.67	5537.71
946.83	5416.88
947.00	5459.88
947.16	5355.44
947.33	5406.64
947.49	5443.50
947.66	5601.19
947.82	5418.93
947.99	5349.29
948.16	5646.25
948.32	5410.73
948.49	5408.69
948.65	5543.85
948.82	5500.84
948.98	5441.45
949.15	5267.38
949.31	5564.33
949.48	5373.87
949.64	5433.26
949.81	5382.06
949.97	5459.88
950.14	5480.36
950.30	5359.53
950.47	5386.16
950.63	5318.57
950.80	5380.01
950.96	5394.35
951.13	5500.84
951.30	5459.88
951.46	5539.76
951.63	5523.37
951.79	5588.91
951.96	5486.51
952.12	5386.16
952.29	5369.77
952.45	5545.90
952.62	5554.09
952.78	5685.16
952.94	5541.80
953.11	5611.43
953.27	5371.82
953.44	5683.11
953.60	5527.47
953.77	5705.64
953.93	5474.22
954.10	5449.64
954.26	5574.57
954.43	5478.32
954.59	5611.43
954.76	5719.98
954.92	5609.39
955.09	5627.82
955.25	5492.65
955.42	5568.43
955.58	5666.73
955.75	5709.74
955.91	5603.24
956.07	5550.00
956.24	5711.78
956.40	5580.71
956.57	5687.21
956.73	5767.08
956.90	5740.46
957.06	5513.13
957.23	5492.65
957.39	5502.89
957.56	5699.50
957.72	5525.42
957.88	5509.04
958.05	5803.94
958.21	5607.34
958.38	5697.45
958.54	5607.34
958.71	5803.94
958.87	5711.78
959.03	5695.40
959.20	5566.38
959.36	5699.50
959.53	5615.53
959.69	5562.28
959.85	5644.20
960.02	5568.43
960.18	5586.86
960.35	5574.57
960.51	5699.50
960.68	5511.08
960.84	5668.78
961.00	5719.98
961.17	5533.61
961.33	5541.80
961.50	5758.89
961.66	5650.35
961.82	5517.23
961.99	5402.54
962.15	5515.18
962.31	5580.71
962.48	5593.00
962.64	5590.95
962.81	5556.14
962.97	5451.69
963.13	5554.09
963.30	5500.84
963.46	5584.81
963.62	5498.80
963.79	5537.71
963.95	5459.88
964.12	5398.45
964.28	5392.30
964.44	5504.94
964.61	5609.39
964.77	5457.84
964.93	5576.62
965.10	5547.95
965.26	5513.13
965.42	5320.62
965.59	5287.86
965.75	5543.85
965.92	5433.26
966.08	5535.66
966.24	5486.51
966.41	5402.54
966.57	5357.49
966.73	5529.52
966.90	5527.47
967.06	5429.17
967.22	5400.49
967.39	5279.66
967.55	5289.90
967.71	5359.53
967.88	5322.67
968.04	5414.83
968.20	5277.62
968.37	5250.99
968.53	5269.42
968.69	5283.76
968.85	5267.38
969.02	5363.63
969.18	5279.66
969.34	5386.16
969.51	5179.31
969.67	5431.21
969.83	5281.71
970.00	5193.65
970.16	5142.45
970.32	5195.70
970.48	5306.29
970.65	5167.03
970.81	5289.90
970.97	5263.28
971.14	5115.83
971.30	5337.01
971.46	5058.48
971.63	5097.39
971.79	5244.85
971.95	5115.83
972.11	4999.09
972.28	5038.00
972.44	5234.61
972.60	4929.46
972.76	5064.63
972.93	4995.00
973.09	5050.29
973.25	5091.25
973.42	4908.98
973.58	5019.57
973.74	5048.24
973.90	5156.79
974.07	4935.60
974.23	4964.28
974.39	4927.41
974.55	4915.12
974.72	4933.56
974.88	4798.39
975.04	4884.41
975.20	4812.73
975.37	5025.72
975.53	4835.25
975.69	4890.55
975.85	4935.60
976.01	4859.83
976.18	4773.82
976.34	4820.92
976.50	4794.29
976.66	5007.28
976.83	4857.78
976.99	4808.63
977.15	4773.82
977.31	4644.79
977.47	4892.60
977.64	4818.87
977.80	4734.90
977.96	4685.75
978.12	4786.10
978.29	4622.27
978.45	4573.11
978.61	4626.36
978.77	4677.56
978.93	4642.75
979.10	4587.45
979.26	4659.13
979.42	4624.31
979.58	4440.00
979.74	4542.39
979.91	4638.65
980.07	4540.35
980.23	4593.59
980.39	4626.36
980.55	4657.08
980.71	4614.07
980.88	4478.91
981.04	4444.09
981.20	4468.67
981.36	4499.39
981.52	4589.50
981.68	4452.28
981.85	4550.59
982.01	4489.15
982.17	4425.66
982.33	4315.07
982.49	4530.11
982.65	4313.02
982.82	4351.93
982.98	4401.08
983.14	4272.06
983.30	4366.27
983.46	4366.27
983.62	4300.73
983.79	4175.81
983.95	4341.69
984.11	4140.99
984.27	4325.31
984.43	4259.78
984.59	4274.11
984.75	4298.69
984.91	4227.01
985.08	4261.82
985.24	4157.38
985.40	4140.99
985.56	4239.30
985.72	4239.30
985.88	4294.59
986.04	4140.99
986.20	3985.35
986.37	4208.58
986.53	4177.86
986.69	4050.88
986.85	4093.89
987.01	4028.35
987.17	4222.91
987.33	3950.53
987.49	4050.88
987.65	4136.90
987.82	3977.16
987.98	3977.16
988.14	4028.35
988.30	4075.46
988.46	3921.86
988.62	3977.16
988.78	3968.96
988.94	3860.42
989.10	3954.63
989.26	3854.28
989.42	4011.97
989.59	3776.45
989.75	3868.61
989.91	3975.11
990.07	3768.26
990.23	3827.65
990.39	3811.27
990.55	3909.57
990.71	3870.66
990.87	3917.76
991.03	3901.38
991.19	3762.12
991.35	3823.56
991.51	3788.74
991.67	3870.66
991.83	3899.33
992.00	3831.75
992.16	3753.93
992.32	3911.62
992.48	3870.66
992.64	3645.38
992.80	3735.50
992.96	3680.20
993.12	3715.02
993.28	3700.68
993.44	3592.14
993.60	3688.39
993.76	3557.32
993.92	3672.01
994.08	3649.48
994.24	3721.16
994.40	3676.10
994.56	3678.15
994.72	3512.27
994.88	3504.07
995.04	3608.52
995.20	3583.95
995.36	3614.66
995.52	3571.66
995.68	3583.95
995.84	3506.12
996.00	3612.62
996.16	3479.50
996.32	3444.68
996.48	3516.36
996.64	3604.42
996.80	3409.87
996.96	3506.12
997.12	3418.06
997.28	3393.48
997.44	3432.40
997.60	3389.39
997.76	3383.24
997.92	3409.87
998.08	3401.68
998.24	3276.75
998.40	3450.83
998.56	3313.61
998.72	3289.04
998.88	3448.78
999.04	3391.44
999.20	3336.14
999.36	3243.98
999.52	3336.14
999.68	3336.14
999.84	3350.48
1000.00	3282.89
1000.16	3397.58
1000.32	3295.18
1000.48	3362.76
1000.64	3151.82
1000.80	3147.73
1000.95	3174.35
1001.11	3321.81
1001.27	3182.54
1001.43	3194.83
1001.59	3157.97
1001.75	3092.43
1001.91	3149.78
1002.07	3061.71
1002.23	3137.49
1002.39	3172.30
1002.55	3170.26
1002.71	3084.24
1002.87	3065.81
1003.03	3157.97
1003.19	3069.91
1003.34	3256.27
1003.50	3102.67
1003.66	3155.92
1003.82	3114.96
1003.98	2981.84
1004.14	3096.53
1004.30	2996.18
1004.46	2959.31
1004.62	3069.91
1004.78	2992.08
1004.94	3033.04
1005.09	3065.81
1005.25	3065.81
1005.41	2983.89
1005.57	2912.21
1005.73	2944.98
1005.89	2944.98
1006.05	3051.47
1006.21	3067.86
1006.37	2897.88
1006.52	2879.44
1006.68	2897.88
1006.84	2942.93
1007.00	2930.64
1007.16	2887.64
1007.32	2875.35
1007.48	2910.16
1007.64	2944.98
1007.79	2815.96
1007.95	2813.91
1008.11	2916.31
1008.27	2883.54
1008.43	2891.73
1008.59	2863.06
1008.75	2897.88
1008.91	2891.73
1009.06	2809.81
1009.22	2883.54
1009.38	2840.53
1009.54	2734.04
1009.70	2764.76
1009.86	2740.18
1010.01	2787.29
1010.17	2736.09
1010.33	2842.58
1010.49	2721.75
1010.65	2775.00
1010.81	2711.51
1010.96	2746.33
1011.12	2754.52
1011.28	2725.85
1011.44	2734.04
1011.60	2723.80
1011.76	2629.59
1011.91	2762.71
1012.07	2652.12
1012.23	2584.54
1012.39	2586.58
1012.55	2770.90
1012.71	2580.44
1012.86	2596.82
1013.02	2682.84
1013.18	2568.15
1013.34	2602.97
1013.50	2672.60
1013.65	2600.92
1013.81	2670.55
1013.97	2553.82
1014.13	2744.28
1014.29	2658.26
1014.44	2615.26
1014.60	2619.35
1014.76	2568.15
1014.92	2465.75
1015.07	2607.06
1015.23	2545.63
1015.39	2416.60
1015.55	2512.86
1015.71	2582.49
1015.86	2494.43
1016.02	2508.76
1016.18	2461.66
1016.34	2410.46
1016.49	2465.75
1016.65	2576.34
1016.81	2392.03
1016.97	2471.90
1017.12	2484.19
1017.28	2408.41
1017.44	2367.45
1017.60	2410.46
1017.75	2484.19
1017.91	2494.43
1018.07	2359.26
1018.23	2353.12
1018.38	2365.40
1018.54	2400.22
1018.70	2387.93
1018.86	2383.84
1019.01	2375.64
1019.17	2371.55
1019.33	2512.86
1019.49	2392.03
1019.64	2424.80
1019.80	2473.95
1019.96	2392.03
1020.12	2445.27
1020.27	2306.01
1020.43	2416.60
1020.59	2430.94
1020.74	2369.50
1020.90	2340.83
1021.06	2312.16
1021.22	2322.40
1021.37	2379.74
1021.53	2226.14
1021.69	2381.79
1021.84	2310.11
1022.00	2412.51
1022.16	2328.54
1022.31	2367.45
1022.47	2222.05
1022.63	2365.40
1022.79	2191.33
1022.94	2336.73
1023.10	2334.68
1023.26	2207.71
1023.41	2226.14
1023.57	2316.25
1023.73	2344.92
1023.88	2265.05
1024.04	2164.70
1024.20	2215.90
1024.35	2383.84
1024.51	2285.53
1024.67	2250.72
1024.82	2238.43
1024.98	2117.60
1025.14	2181.09
1025.29	2164.70
1025.45	2312.16
1025.61	2150.37
1025.76	2248.67
1025.92	2164.70
1026.08	2269.15
1026.23	2240.48
1026.39	2252.77
1026.55	2162.66
1026.70	2121.70
1026.86	2158.56
1027.02	2240.48
1027.17	2240.48
1027.33	2117.60
1027.48	2166.75
1027.64	2117.60
1027.80	2111.46
1027.95	2113.50
1028.11	2064.35
1028.27	2125.79
1028.42	2103.26
1028.58	2086.88
1028.73	1978.34
1028.89	2076.64
1029.05	2166.75
1029.20	2152.42
>>>>>End Processed Spectral Data<<<<<
