SpectraSuite Data File
++++++++++++++++++++++++++++++++++++
Date: Fri Jun 02 14:44:34 CEST 2017
User: INFO_000
Dark Spectrum Present: No
Reference Spectrum Present: No
Number of Sampled Component Spectra: 1
Spectrometers: USB4H00879
Integration Time (usec): 80000 (USB4H00879)
Spectra Averaged: 1 (USB4H00879)
Boxcar Smoothing: 0 (USB4H00879)
Correct for Electrical Dark: No (USB4H00879)
Strobe/Lamp Enabled: No (USB4H00879)
Correct for Detector Non-linearity: No (USB4H00879)
Correct for Stray Light: No (USB4H00879)
Number of Pixels in Processed Spectrum: 3648
>>>>>Begin Processed Spectral Data<<<<<
345.13	1241.07
345.34	1241.07
345.56	1241.07
345.78	1312.75
345.99	1290.22
346.21	1699.81
346.42	1634.28
346.64	1613.80
346.86	1740.77
347.07	1574.89
347.29	1662.95
347.50	1624.04
347.72	1613.80
347.94	1742.82
348.15	1568.74
348.37	1640.42
348.59	1738.73
348.80	1665.00
349.02	1746.92
349.23	1906.66
349.45	1746.92
349.67	1841.12
349.88	1863.65
350.10	1937.38
350.31	1787.88
350.53	1814.50
350.75	1974.24
350.96	1837.03
351.18	1894.37
351.39	1830.88
351.61	1763.30
351.82	1880.04
352.04	1839.08
352.26	1877.99
352.47	1890.28
352.69	1949.67
352.90	1726.44
353.12	1820.64
353.34	1812.45
353.55	1945.57
353.77	1912.80
353.98	1845.22
354.20	1853.41
354.41	1939.43
354.63	1904.61
354.85	1986.53
355.06	1871.84
355.28	1744.87
355.49	1888.23
355.71	1871.84
355.92	1888.23
356.14	1988.58
356.35	1918.95
356.57	1863.65
356.79	1929.19
357.00	1845.22
357.22	1982.43
357.43	1900.52
357.65	1918.95
357.86	1814.50
358.08	1849.32
358.29	1886.18
358.51	2015.20
358.72	1920.99
358.94	1923.04
359.16	1982.43
359.37	1916.90
359.59	1939.43
359.80	2017.25
360.02	1933.28
360.23	2000.87
360.45	2066.40
360.66	1933.28
360.88	1849.32
361.09	1955.81
361.31	2027.49
361.52	1941.47
361.74	2131.94
361.95	2002.91
362.17	1931.23
362.38	2002.91
362.60	2072.54
362.81	1970.15
363.03	1943.52
363.24	1945.57
363.46	2068.45
363.67	2027.49
363.89	2000.87
364.10	1966.05
364.32	1953.76
364.53	2133.98
364.75	1925.09
364.96	1982.43
365.18	1982.43
365.39	2025.44
365.61	1982.43
365.82	2097.12
366.04	2037.73
366.25	1994.72
366.47	2133.98
366.68	1994.72
366.90	1998.82
367.11	2052.06
367.33	2072.54
367.54	2080.74
367.76	2109.41
367.97	2115.55
368.19	2019.30
368.40	2105.31
368.62	1945.57
368.83	2035.68
369.05	2084.83
369.26	2007.01
369.48	2041.82
369.69	2019.30
369.91	2017.25
370.12	1990.63
370.33	2111.46
370.55	2013.15
370.76	1970.15
370.98	2187.23
371.19	2074.59
371.41	1955.81
371.62	2054.11
371.84	2000.87
372.05	2136.03
372.27	2099.17
372.48	2101.22
372.69	2072.54
372.91	2131.94
373.12	2189.28
373.34	2009.06
373.55	2119.65
373.77	2158.56
373.98	2072.54
374.20	2187.23
374.41	2236.38
374.62	2107.36
374.84	2176.99
375.05	2222.05
375.27	2220.00
375.48	2166.75
375.70	2133.98
375.91	2189.28
376.12	2293.72
376.34	2123.74
376.55	2166.75
376.77	2289.63
376.98	2142.18
377.19	2142.18
377.41	2146.27
377.62	2226.14
377.84	2232.29
378.05	2271.20
378.27	2238.43
378.48	2369.50
378.69	2383.84
378.91	2349.02
379.12	2209.76
379.34	2222.05
379.55	2287.58
379.76	2303.96
379.98	2181.09
380.19	2293.72
380.41	2209.76
380.62	2306.01
380.83	2238.43
381.05	2246.62
381.26	2402.27
381.47	2252.77
381.69	2334.68
381.90	2365.40
382.12	2318.30
382.33	2267.10
382.54	2371.55
382.76	2275.29
382.97	2289.63
383.19	2279.39
383.40	2400.22
383.61	2346.97
383.83	2240.48
384.04	2314.20
384.25	2430.94
384.47	2373.60
384.68	2359.26
384.89	2332.64
385.11	2344.92
385.32	2371.55
385.54	2346.97
385.75	2336.73
385.96	2330.59
386.18	2416.60
386.39	2402.27
386.60	2349.02
386.82	2396.12
387.03	2410.46
387.24	2557.91
387.46	2535.39
387.67	2598.87
387.88	2521.05
388.10	2508.76
388.31	2506.71
388.52	2629.59
388.74	2539.48
388.95	2410.46
389.16	2469.85
389.38	2467.80
389.59	2535.39
389.80	2654.17
390.02	2607.06
390.23	2592.73
390.44	2566.10
390.66	2521.05
390.87	2535.39
391.08	2580.44
391.30	2772.95
391.51	2674.65
391.72	2701.27
391.94	2719.70
392.15	2598.87
392.36	2666.46
392.58	2631.64
392.79	2703.32
393.00	2752.47
393.22	2672.60
393.43	2725.85
393.64	2807.77
393.85	2779.09
394.07	2664.41
394.28	2758.61
394.49	2779.09
394.71	2785.24
394.92	2863.06
395.13	2805.72
395.35	2752.47
395.56	2629.59
395.77	2775.00
395.98	2699.22
396.20	2842.58
396.41	2744.28
396.62	2813.91
396.84	2840.53
397.05	2873.30
397.26	2850.77
397.47	2944.98
397.69	2748.37
397.90	2981.84
398.11	2971.60
398.32	2957.27
398.54	2871.25
398.75	2924.50
398.96	2893.78
399.18	3078.10
399.39	2947.03
399.60	3037.14
399.81	2912.21
400.03	2904.02
400.24	3262.41
400.45	2934.74
400.66	3057.62
400.88	3178.45
401.09	3323.85
401.30	3051.47
401.51	3250.13
401.73	3241.93
401.94	3147.73
402.15	3215.31
402.36	3266.51
402.58	3102.67
402.79	3211.22
403.00	3166.16
403.21	3188.69
403.43	3235.79
403.64	3332.05
403.85	3164.11
404.06	3252.17
404.27	3110.86
404.49	3315.66
404.70	3127.25
404.91	3235.79
405.12	3225.55
405.34	3336.14
405.55	3469.26
405.76	3194.83
405.97	3225.55
406.19	3459.02
406.40	3307.47
406.61	3344.33
406.82	3305.42
407.03	3284.94
407.25	3311.57
407.46	3387.34
407.67	3272.65
407.88	3493.83
408.09	3297.23
408.31	3338.19
408.52	3284.94
408.73	3364.81
408.94	3315.66
409.15	3407.82
409.37	3497.93
409.58	3502.03
409.79	3489.74
410.00	3600.33
410.21	3456.97
410.43	3518.41
410.64	3467.21
410.85	3405.77
411.06	3497.93
411.27	3573.71
411.48	3657.67
411.70	3622.86
411.91	3551.18
412.12	3629.00
412.33	3538.89
412.54	3600.33
412.76	3674.06
412.97	3680.20
413.18	3567.56
413.39	3637.19
413.60	3794.89
413.81	3629.00
414.03	3502.03
414.24	3639.24
414.45	3856.33
414.66	3629.00
414.87	3684.30
415.08	3676.10
415.30	3747.78
415.51	3805.13
415.72	3807.17
415.93	3805.13
416.14	3817.41
416.35	3755.97
416.56	3760.07
416.78	3745.73
416.99	3805.13
417.20	3903.43
417.41	3936.20
417.62	3968.96
417.83	3977.16
418.04	3891.14
418.26	3964.87
418.47	4011.97
418.68	3973.06
418.89	3917.76
419.10	4018.11
419.31	4050.88
419.52	4030.40
419.73	4034.50
419.95	4124.61
420.16	4081.60
420.37	3983.30
420.58	4075.46
420.79	3860.42
421.00	3995.59
421.21	4059.07
421.42	4048.83
421.63	4065.22
421.85	4110.27
422.06	4231.10
422.27	4192.19
422.48	4255.68
422.69	4362.17
422.90	4265.92
423.11	4284.35
423.32	4384.70
423.53	4378.56
423.75	4409.28
423.96	4523.96
424.17	4403.13
424.38	4767.67
424.59	4493.24
424.80	4562.87
425.01	4417.47
425.22	4526.01
425.43	4542.39
425.64	4632.51
425.85	4665.27
426.06	4616.12
426.28	4593.59
426.49	4421.56
426.70	4579.26
426.91	4638.65
427.12	4757.43
427.33	4702.14
427.54	4759.48
427.75	4732.86
427.96	4771.77
428.17	4706.23
428.38	4937.65
428.59	4868.02
428.80	4872.12
429.01	4779.96
429.23	4816.82
429.44	5038.00
429.65	4976.56
429.86	4951.99
430.07	4935.60
430.28	4859.83
430.49	5148.59
430.70	4970.42
430.91	5250.99
431.12	4997.04
431.33	5269.42
431.54	5115.83
431.75	5173.17
431.96	5171.12
432.17	5187.50
432.38	5044.15
432.59	5359.53
432.80	5367.73
433.01	5312.43
433.22	5341.10
433.43	5312.43
433.64	5296.05
433.85	5312.43
434.06	5451.69
434.27	5273.52
434.49	5504.94
434.70	5433.26
434.91	5525.42
435.12	5398.45
435.33	5449.64
435.54	5484.46
435.75	5375.92
435.96	5435.31
436.17	5420.97
436.38	5550.00
436.59	5644.20
436.80	5439.40
437.01	5742.50
437.22	5683.11
437.43	5425.07
437.64	5453.74
437.85	5730.22
438.06	5832.62
438.27	5646.25
438.48	5629.87
438.69	5951.40
438.90	5805.99
439.11	5824.42
439.32	5828.52
439.53	5629.87
439.74	5926.82
439.95	5885.86
440.16	5953.45
440.37	5750.70
440.57	5765.03
440.78	6070.18
440.99	5908.39
441.20	6066.08
441.41	5982.12
441.62	5904.29
441.83	5941.16
442.04	6197.15
442.25	6037.41
442.46	6111.14
442.67	6174.63
442.88	6539.16
443.09	5943.21
443.30	6246.30
443.51	6340.51
443.72	6395.81
443.93	6107.04
444.14	6537.12
444.35	6221.73
444.56	6274.98
444.77	6315.94
444.98	6350.75
445.19	6432.67
445.40	6346.66
445.61	6459.29
445.81	6451.10
446.02	6590.36
446.23	6418.33
446.44	6410.14
446.65	6612.89
446.86	6500.25
447.07	6584.22
447.28	6698.91
447.49	6637.47
447.70	6748.06
447.91	6789.02
448.12	6608.80
448.33	6723.48
448.54	6803.35
448.74	6688.67
448.95	6909.85
449.16	6815.64
449.37	7110.55
449.58	6866.84
449.79	7008.15
450.00	6764.44
450.21	6985.62
450.42	7059.35
450.63	7061.40
450.84	7090.07
451.05	7053.20
451.25	7206.80
451.46	6983.57
451.67	7309.20
451.88	7298.96
452.09	7253.91
452.30	7036.82
452.51	7372.69
452.72	7415.69
452.93	7548.81
453.13	7108.50
453.34	7206.80
453.55	7458.70
453.76	7260.05
453.97	7679.88
454.18	7600.01
454.39	7479.18
454.60	7477.13
454.81	7475.09
455.01	7825.29
455.22	7415.69
455.43	7632.78
455.64	7896.97
455.85	8013.70
456.06	8017.80
456.27	7718.79
456.48	7843.72
456.68	7964.55
456.89	7933.83
457.10	8009.61
457.31	7978.89
457.52	7958.41
457.73	7946.12
457.94	8281.99
458.14	8126.34
458.35	8507.26
458.56	8202.11
458.77	8271.75
458.98	8398.72
459.19	8456.06
459.39	8380.29
459.60	8454.02
459.81	8238.98
460.02	8521.60
460.23	8386.43
460.44	8791.93
460.65	8769.40
460.85	8605.56
461.06	8863.61
461.27	8632.19
461.48	8920.95
461.69	9193.33
461.89	8617.85
462.10	8963.96
462.31	8832.89
462.52	8857.46
462.73	9187.19
462.94	9224.05
463.14	9135.99
463.35	9293.68
463.56	9459.57
463.77	9564.01
463.98	9232.24
464.18	9262.96
464.39	9609.07
464.60	9641.84
464.81	9650.03
465.02	9572.21
465.23	9740.14
465.43	9740.14
465.64	10030.95
465.85	9854.83
466.06	9817.96
466.27	10004.33
466.47	9916.26
466.68	10055.53
466.89	10104.68
467.10	10223.46
467.30	9895.78
467.51	10301.28
467.72	10379.11
467.93	10235.75
468.14	10354.53
468.34	10647.39
468.55	10686.30
468.76	10651.49
468.97	10401.63
469.17	10639.20
469.38	10729.31
469.59	11044.70
469.80	10909.53
470.01	10766.17
470.21	10905.43
470.42	11030.36
470.63	11327.32
470.84	11173.72
471.04	11241.30
471.25	11278.16
471.46	11263.83
471.67	11599.70
471.87	11435.86
472.08	11644.75
472.29	11755.34
472.50	11521.87
472.70	11558.74
472.91	11835.21
473.12	11784.01
473.33	12128.07
473.53	12242.76
473.74	11988.81
473.95	12463.94
474.16	12326.72
474.36	12289.86
474.57	12457.79
474.78	12769.09
474.99	12619.58
475.19	12603.20
475.40	12934.97
475.61	13059.90
475.81	13113.14
476.02	13107.00
476.23	13102.90
476.44	13242.17
476.64	13594.42
476.85	13512.50
477.06	13526.83
477.27	13754.16
477.47	13930.28
477.68	13713.20
477.89	14106.41
478.09	14135.08
478.30	14049.07
478.51	13956.91
478.71	14393.12
478.92	14583.59
479.13	14634.78
479.34	14436.13
479.54	14720.80
479.75	14702.37
479.96	14837.53
480.16	14847.77
480.37	15103.77
480.58	15152.92
480.78	15359.77
480.99	15226.65
481.20	15472.40
481.41	15298.33
481.61	15593.23
481.82	15718.16
482.03	15724.30
482.23	16037.64
482.44	15986.44
482.65	16150.28
482.85	16512.77
483.06	16291.59
483.27	16590.59
483.47	16457.48
483.68	16404.23
483.89	16631.55
484.09	16740.10
484.30	16576.26
484.51	17073.92
484.71	17037.05
484.92	16938.75
485.13	17053.44
485.33	17202.94
485.54	17215.23
485.75	17547.00
485.95	17628.92
486.16	17915.63
486.37	17725.17
486.57	17573.62
486.78	17864.43
486.98	17866.48
487.19	18087.66
487.40	18149.10
487.60	18183.91
487.81	18599.65
488.02	18339.56
488.22	18343.66
488.43	18661.09
488.64	18675.43
488.84	18743.01
489.05	18970.33
489.25	18806.50
489.46	19091.16
489.67	19152.60
489.87	19289.82
490.08	19451.61
490.29	19410.65
490.49	19582.68
490.70	19478.23
490.90	19758.80
491.11	19846.87
491.32	19973.84
491.52	19744.47
491.73	19945.17
491.94	20070.09
492.14	20192.97
492.35	20287.18
492.55	20592.33
492.76	20307.66
492.97	20580.04
493.17	20827.84
493.38	20786.88
493.58	21141.18
493.79	20825.79
494.00	20807.36
494.20	21137.09
494.41	20983.49
494.61	21348.03
494.82	21270.20
495.02	21249.72
495.23	21483.19
495.44	21597.88
495.64	21792.44
495.85	21823.16
496.05	21624.50
496.26	21860.02
496.47	21894.83
496.67	21722.80
496.88	22216.36
497.08	21950.13
497.29	22593.19
497.49	22347.44
497.70	22275.76
497.91	22329.00
498.11	22726.31
498.32	22843.04
498.52	22869.67
498.73	22804.13
498.93	22777.51
499.14	22886.05
499.34	23211.68
499.55	23328.41
499.76	23152.29
499.96	23166.62
500.17	23371.42
500.37	23416.47
500.58	23414.43
500.78	23402.14
500.99	23285.40
501.19	24108.69
501.40	23961.23
501.60	23512.73
501.81	23961.23
502.02	23678.61
502.22	23996.05
502.43	24098.45
502.63	24407.69
502.84	23957.14
503.04	24213.13
503.25	24276.62
503.45	24440.46
503.66	24512.14
503.86	24428.17
504.07	25056.90
504.27	24467.08
504.48	24798.85
504.68	24635.02
504.89	25038.47
505.09	25101.95
505.30	25044.61
505.50	24835.72
505.71	25265.79
505.91	25425.53
506.12	25290.37
506.32	25423.48
506.53	25441.92
506.73	25276.03
506.94	25659.00
507.14	25452.16
507.35	25382.52
507.55	25867.89
507.76	25550.46
507.96	25642.62
508.17	25980.53
508.37	25763.45
508.58	25820.79
508.78	26029.68
508.99	25992.82
509.19	25882.23
509.40	26252.91
509.60	25925.24
509.81	26500.72
510.01	26021.49
510.22	25874.04
510.42	26367.60
510.63	26404.46
510.83	26791.53
511.04	26797.67
511.24	27117.15
511.44	26578.54
511.65	26914.41
511.85	26678.89
512.06	26846.82
512.26	27080.29
512.47	27192.93
512.67	26887.78
512.88	26959.46
513.08	26740.33
513.29	27426.40
513.49	27215.46
513.69	27334.24
513.90	27151.97
514.10	27534.94
514.31	27358.81
514.51	27631.19
514.72	27713.11
514.92	27666.01
515.13	27498.08
515.33	27879.00
515.53	27962.97
515.74	27817.56
515.94	27895.38
516.15	28044.88
516.35	27842.14
516.56	28229.20
516.76	27936.34
516.96	27795.03
517.17	28292.69
517.37	28405.33
517.58	28534.35
517.78	28456.53
517.99	28440.14
518.19	28651.08
518.39	28984.90
518.60	28628.56
518.80	28675.66
519.01	28878.41
519.21	28726.86
519.41	29218.37
519.62	28927.56
519.82	28968.52
520.03	29122.12
520.23	29001.29
520.43	29111.88
520.64	29591.10
520.84	29550.14
521.05	29404.74
521.25	29763.13
521.45	29738.55
521.66	29693.50
521.86	29562.43
522.07	29963.83
522.27	30273.07
522.47	29820.47
522.68	30496.30
522.88	30094.90
523.08	30234.16
523.29	30193.20
523.49	30377.52
523.70	30414.38
523.90	30627.37
524.10	30387.76
524.31	31221.28
524.51	30434.86
524.71	31090.21
524.92	30737.96
525.12	31290.91
525.33	31143.46
525.53	31403.55
525.73	31524.38
525.94	31694.36
526.14	31274.53
526.34	31911.45
526.55	31589.92
526.75	31338.02
526.95	32513.55
527.16	31702.56
527.36	31936.02
527.56	32396.82
527.77	32292.37
527.97	32273.94
528.17	32144.92
528.38	32405.01
528.58	32433.68
528.78	32194.07
528.99	32486.93
529.19	32658.96
529.39	32546.32
529.60	32960.01
529.80	33007.11
530.00	33000.97
530.21	33142.28
530.41	33568.26
530.61	33138.18
530.82	33302.02
531.02	33263.11
531.22	33676.80
531.43	33697.28
531.63	33885.69
531.83	34196.98
532.04	34237.94
532.24	33764.86
532.44	34246.13
532.64	34571.76
532.85	34457.07
533.05	34616.82
533.25	34436.59
533.46	34510.32
533.66	34833.90
533.86	34874.86
534.07	35114.47
534.27	35323.36
534.47	35218.92
534.67	35257.83
534.88	34991.59
535.08	35257.83
535.28	35694.05
535.49	35702.24
535.69	36136.41
535.89	35976.67
536.09	36023.77
536.30	35890.65
536.50	35681.76
536.70	36034.01
536.91	35950.04
537.11	36380.12
537.31	36339.16
537.51	36718.03
537.72	36804.05
537.92	36509.14
538.12	36928.97
538.32	37076.43
538.53	36939.21
538.73	36787.66
538.93	37139.91
539.13	37107.15
539.34	37008.84
539.54	37199.30
539.74	37383.62
539.94	37115.34
540.15	37101.00
540.35	37606.85
540.55	37610.95
540.75	37619.14
540.96	37930.43
541.16	37811.65
541.36	38000.06
541.56	38239.67
541.77	37987.77
541.97	38077.88
542.17	38245.82
542.37	38008.25
542.58	38235.58
542.78	38163.90
542.98	38131.13
543.18	38374.84
543.38	39032.24
543.59	39083.44
543.79	38682.03
543.99	38342.07
544.19	39108.01
544.40	38704.56
544.60	39196.07
544.80	39179.69
545.00	39167.40
545.20	39220.65
545.41	38960.56
545.61	39284.14
545.81	39620.00
546.01	39617.96
546.21	39433.64
546.42	39544.23
546.62	39413.16
546.82	39378.34
547.02	40064.41
547.22	39796.13
547.43	39683.49
547.63	39896.48
547.83	39771.55
548.03	40078.75
548.23	40134.04
548.44	39841.18
548.64	40494.49
548.84	40715.67
549.04	40461.72
549.24	40324.50
549.45	40830.35
549.65	40312.22
549.85	40697.24
550.05	40586.64
550.25	40463.77
550.45	40877.46
550.66	40699.28
550.86	40525.21
551.06	40631.70
551.26	41219.47
551.46	40938.90
551.66	40947.09
551.87	40940.94
552.07	41532.81
552.27	40848.78
552.47	40996.24
552.67	41354.63
552.87	41424.26
553.07	41442.70
553.28	41162.12
553.48	41268.62
553.68	41301.39
553.88	41983.36
554.08	41696.64
554.28	41723.27
554.48	41444.74
554.69	42083.71
554.89	41495.94
555.09	41600.39
555.29	41735.56
555.49	42012.03
555.69	42132.86
555.89	42255.74
556.10	41813.38
556.30	41710.98
556.50	42452.34
556.70	41993.60
556.90	42345.85
557.10	42368.38
557.30	42220.92
557.50	42390.91
557.70	42411.38
557.91	42374.52
558.11	42411.38
558.31	42579.32
558.51	42618.23
558.71	42872.18
558.91	43136.37
559.11	42511.74
559.31	42501.50
559.51	42550.65
559.72	42526.07
559.92	42958.19
560.12	43095.41
560.32	43023.73
560.52	42722.68
560.72	43142.51
560.92	43425.13
561.12	43115.89
561.32	43785.57
561.52	42478.97
561.72	43484.52
561.93	43267.44
562.13	43380.07
562.33	42986.86
562.53	43738.47
562.73	43162.99
562.93	43253.10
563.13	43484.52
563.33	43079.02
563.53	43775.33
563.73	43326.83
563.93	43599.21
564.13	43969.89
564.33	43652.45
564.53	43492.71
564.74	43939.17
564.94	43564.39
565.14	43980.13
565.34	44244.32
565.54	43672.93
565.74	43849.06
565.94	44184.93
566.14	44279.13
566.34	43847.01
566.54	44201.31
566.74	44031.33
566.94	44500.31
567.14	44856.66
567.34	43687.27
567.54	44592.47
567.74	44514.65
567.94	44350.81
568.14	44309.85
568.34	44680.53
568.54	44483.93
568.74	44488.03
568.94	44555.61
569.14	45149.52
569.34	44463.45
569.54	44926.29
569.75	45092.18
569.95	44819.80
570.15	45192.53
570.35	44924.24
570.55	44938.58
570.75	44993.87
570.95	44905.81
571.15	45462.86
571.35	45217.10
571.55	45544.78
571.75	45329.74
571.95	45475.15
572.15	45028.69
572.35	45841.73
572.55	45096.27
572.75	45759.81
572.95	45794.63
573.15	45864.26
573.35	45151.57
573.55	45442.38
573.75	45725.00
573.95	45735.24
574.15	45538.63
574.35	46011.71
574.55	46069.06
574.75	46126.40
574.95	46239.04
575.15	45913.41
575.34	46015.81
575.54	46179.65
575.74	46110.02
575.94	46822.71
576.14	46613.82
576.34	46535.99
576.54	46595.38
576.74	46918.96
576.94	46273.85
577.14	46396.73
577.34	46921.01
577.54	46775.61
577.74	46738.74
577.94	46769.46
578.14	46863.67
578.34	47062.32
578.54	46527.80
578.74	46828.85
578.94	46927.16
579.14	46560.57
579.34	47260.97
579.54	47461.68
579.74	47670.57
579.94	47469.87
580.13	47572.27
580.33	47314.22
580.53	47129.90
580.73	47541.55
580.93	47889.70
581.13	47473.96
581.33	47883.56
581.53	48114.98
581.73	47992.10
581.93	47715.62
582.13	48225.57
582.33	48020.77
582.53	47928.61
582.73	48260.38
582.92	48209.18
583.12	48305.44
583.32	48299.30
583.52	47953.19
583.72	48336.16
583.92	48477.47
584.12	48418.08
584.32	48676.12
584.52	48780.57
584.72	48674.07
584.92	48545.05
585.11	49036.56
585.31	48753.94
585.51	48448.80
585.71	48940.31
585.91	49098.00
586.11	48882.97
586.31	48823.58
586.51	49173.78
586.71	49108.24
586.91	49628.43
587.10	49206.55
587.30	49222.93
587.50	49134.87
587.70	49566.99
587.90	49523.98
588.10	49960.20
588.30	49599.76
588.50	49747.21
588.69	49714.44
588.89	49280.27
589.09	49964.29
589.29	49526.03
589.49	49927.43
589.69	49511.69
589.89	49970.44
590.08	50121.99
590.28	49722.63
590.48	49775.88
590.68	50197.76
590.88	49763.59
591.08	50068.74
591.28	49890.57
591.47	50253.06
591.67	50152.71
591.87	49992.97
592.07	50318.59
592.27	50427.13
592.47	50457.85
592.67	50310.40
592.86	50146.56
593.06	50347.26
593.26	50691.32
593.46	50668.79
593.66	50269.44
593.86	50623.74
594.05	50763.00
594.25	50711.80
594.45	50554.11
594.65	50959.61
594.85	50363.65
595.05	50906.36
595.24	50930.93
595.44	50853.11
595.64	50582.78
595.84	51184.88
596.04	51231.99
596.23	51008.76
596.43	51254.51
596.63	51481.84
596.83	50918.65
597.03	51455.21
597.22	51406.06
597.42	51387.63
597.62	51752.17
597.82	51680.49
598.02	51328.24
598.21	51524.85
598.41	51418.35
598.61	51551.47
598.81	51508.46
599.01	52108.52
599.20	51639.53
599.40	51786.99
599.60	51959.02
599.80	51942.63
600.00	51631.34
600.19	51930.34
600.39	51664.11
600.59	52276.45
600.79	52077.80
600.98	52430.05
601.18	52350.18
601.38	52348.13
601.58	52184.29
601.78	52724.96
601.97	52049.13
602.17	53159.12
602.37	52749.53
602.57	52688.09
602.76	52845.79
602.96	52501.73
603.16	52536.54
603.36	52819.16
603.55	53243.09
603.75	52913.37
603.95	53042.39
604.15	53026.01
604.34	52993.24
604.54	53720.27
604.74	53056.73
604.94	53275.86
605.13	53490.90
605.33	53589.20
605.53	53087.45
605.73	53226.71
605.92	53406.93
606.12	53538.00
606.32	53368.02
606.52	53617.87
606.71	53408.98
606.91	53640.40
607.11	53824.71
607.30	53867.72
607.50	53830.86
607.70	54201.54
607.90	53781.71
608.09	53851.34
608.29	53957.83
608.49	54275.27
608.68	53503.18
608.88	53968.07
609.08	53949.64
609.28	54088.90
609.47	53744.84
609.67	54584.51
609.87	54330.56
610.06	54215.88
610.26	54219.97
610.46	54498.50
610.66	54131.91
610.85	54289.60
611.05	54426.82
611.25	54539.46
611.44	54093.00
611.64	54465.73
611.84	54414.53
612.03	54430.91
612.23	54668.48
612.43	54660.29
612.62	54080.71
612.82	54725.82
613.02	54367.43
613.21	54719.68
613.41	54234.31
613.61	54402.24
613.80	54322.37
614.00	54275.27
614.20	54609.09
614.39	54912.19
614.59	54688.96
614.79	54627.52
614.98	54715.58
615.18	54269.12
615.38	54553.79
615.57	54252.74
615.77	54680.77
615.97	55252.15
616.16	54600.89
616.36	55039.16
616.56	54877.37
616.75	54752.44
616.95	54711.49
617.15	54672.57
617.34	55022.78
617.54	54383.81
617.74	54801.60
617.93	54748.35
618.13	54820.03
618.32	54684.86
618.52	54772.92
618.72	54983.86
618.91	55033.02
619.11	54535.36
619.31	54772.92
619.50	54906.04
619.70	54426.82
619.90	54385.86
620.09	54871.23
620.29	54883.51
620.48	55073.98
620.68	55174.33
620.88	54424.77
621.07	54654.14
621.27	54897.85
621.46	54539.46
621.66	54803.64
621.86	54699.20
622.05	54809.79
622.25	55334.07
622.44	54619.33
622.64	54410.43
622.84	55002.30
623.03	54469.82
623.23	54817.98
623.42	54908.09
623.62	55180.47
623.82	55157.94
624.01	55047.35
624.21	55305.40
624.40	54795.45
624.60	55131.32
624.80	54670.53
624.99	55123.13
625.19	54688.96
625.38	54758.59
625.58	54883.51
625.77	55377.08
625.97	55045.30
626.17	55024.82
626.36	54965.43
626.56	55229.62
626.75	54514.88
626.95	55301.30
627.14	54977.72
627.34	55051.45
627.54	54951.10
627.73	54809.79
627.93	54967.48
628.12	54623.42
628.32	54725.82
628.51	54942.91
628.71	54977.72
628.90	54648.00
629.10	54994.10
629.30	55272.63
629.49	54971.58
629.69	55280.82
629.88	54850.75
630.08	55211.19
630.27	55229.62
630.47	55049.40
630.66	55354.55
630.86	55395.51
631.05	54191.30
631.25	55739.57
631.44	54990.01
631.64	55043.26
631.84	55366.84
632.03	55852.20
632.23	55172.28
632.42	55686.32
632.62	55139.51
632.81	55088.31
633.01	55379.12
633.20	55469.23
633.40	55784.62
633.59	55702.70
633.79	55274.68
633.98	55018.68
634.18	55268.53
634.37	55385.27
634.57	55325.88
634.76	55835.82
634.96	54899.90
635.15	55989.42
635.35	55737.52
635.54	55493.81
635.74	55780.52
635.93	55295.16
636.13	55614.64
636.32	55528.62
636.52	55553.20
636.71	55356.60
636.91	55604.40
637.10	55747.76
637.30	55420.08
637.49	55803.05
637.69	55651.50
637.88	56157.35
638.08	55461.04
638.27	55764.14
638.46	55743.66
638.66	55688.37
638.85	55717.04
639.05	55835.82
639.24	55874.73
639.44	55784.62
639.63	56009.90
639.83	56073.38
640.02	55880.88
640.22	55604.40
640.41	55925.93
640.61	55481.52
640.80	55762.09
640.99	55717.04
641.19	56431.78
641.38	56241.32
641.58	55801.00
641.77	56011.95
641.97	55655.60
642.16	55839.92
642.36	56153.26
642.55	56392.87
642.74	55452.85
642.94	56300.71
643.13	55944.36
643.33	56439.97
643.52	56444.07
643.72	56468.64
643.91	56083.62
644.10	56319.14
644.30	56159.40
644.49	56415.40
644.69	56571.04
644.88	56575.14
645.08	55917.74
645.27	56439.97
645.46	56089.77
645.66	56267.94
645.85	56276.13
646.05	56568.99
646.24	56175.78
646.43	56566.94
646.63	56458.40
646.82	56956.06
647.02	55899.31
647.21	56435.87
647.40	56022.19
647.60	56933.53
647.79	56904.86
647.99	56968.35
648.18	56368.29
648.37	56939.68
648.57	56622.24
648.76	56802.46
648.96	56607.90
649.15	56601.76
649.34	57054.36
649.54	56779.93
649.73	56829.08
649.92	56710.30
650.12	56775.84
650.31	56919.20
650.51	56843.42
650.70	56689.82
650.89	56237.22
651.09	57363.60
651.28	56583.33
651.47	57304.21
651.67	56968.35
651.86	57363.60
652.06	56331.43
652.25	56972.44
652.44	57027.74
652.64	57244.82
652.83	56677.54
653.02	56792.22
653.22	56962.20
653.41	56839.32
653.60	56571.04
653.80	56587.42
653.99	56792.22
654.18	56513.70
654.38	56820.89
654.57	56689.82
654.76	56861.85
654.96	57136.28
655.15	56767.65
655.34	56960.15
655.54	56636.58
655.73	56767.65
655.92	56927.39
656.12	56964.25
656.31	57273.49
656.50	56638.62
656.70	56685.73
656.89	56568.99
657.08	56890.52
657.28	57173.14
657.47	56888.48
657.66	57044.12
657.86	56974.49
658.05	57109.66
658.24	57111.70
658.43	56661.15
658.63	57275.54
658.82	57091.22
659.01	56814.75
659.21	56898.72
659.40	56769.69
659.59	56683.68
659.79	57205.91
659.98	56921.24
660.17	57365.65
660.36	56925.34
660.56	56773.79
660.75	56882.33
660.94	56788.13
661.14	57031.83
661.33	57009.31
661.52	56491.17
661.71	57664.66
661.91	56394.92
662.10	56759.45
662.29	57179.29
662.49	56878.24
662.68	56994.97
662.87	57193.62
663.06	56900.76
663.26	56761.50
663.45	57103.51
663.64	56693.92
663.83	57160.86
664.03	56997.02
664.22	56788.13
664.41	57091.22
664.60	56964.25
664.80	57054.36
664.99	56646.82
665.18	56865.95
665.37	57265.30
665.57	56988.83
665.76	56566.94
665.95	56835.23
666.14	56599.71
666.34	56771.74
666.53	56898.72
666.72	56849.56
666.91	56747.17
667.11	56720.54
667.30	56822.94
667.49	57003.16
667.68	56546.47
667.87	56573.09
668.07	57054.36
668.26	56401.06
668.45	56964.25
668.64	56736.93
668.84	57103.51
669.03	56902.81
669.22	57097.37
669.41	57136.28
669.60	56872.09
669.80	56630.43
669.99	57074.84
670.18	56474.79
670.37	57013.40
670.57	57123.99
670.76	56868.00
670.95	56824.99
671.14	56761.50
671.33	56360.10
671.53	57060.51
671.72	56878.24
671.91	57136.28
672.10	56169.64
672.29	56310.95
672.48	56607.90
672.68	57093.27
672.87	56458.40
673.06	56505.51
673.25	56886.43
673.44	56444.07
673.64	56013.99
673.83	56423.59
674.02	56562.85
674.21	56194.21
674.40	56530.08
674.59	55882.92
674.79	56480.93
674.98	56247.46
675.17	56636.58
675.36	56444.07
675.55	56255.65
675.74	56155.30
675.94	56448.16
676.13	56294.56
676.32	56824.99
676.51	56749.21
676.70	56439.97
676.89	56677.54
677.08	56956.06
677.28	56319.14
677.47	56628.38
677.66	56702.11
677.85	56427.68
678.04	56376.48
678.23	56269.99
678.42	56482.98
678.62	56081.58
678.81	56679.58
679.00	56284.33
679.19	56669.34
679.38	56286.37
679.57	56444.07
679.76	56116.39
679.96	56409.25
680.15	56558.75
680.34	56419.49
680.53	56186.02
680.72	56798.37
680.91	56734.88
681.10	56403.11
681.29	56247.46
681.48	55944.36
681.68	56040.62
681.87	55973.03
682.06	56472.74
682.25	55639.22
682.44	56202.41
682.63	56349.86
682.82	55778.48
683.01	56198.31
683.20	55844.01
683.39	56198.31
683.59	55844.01
683.78	55936.17
683.97	55432.37
684.16	55815.34
684.35	55702.70
684.54	55831.72
684.73	55571.63
684.92	55532.72
685.11	55796.91
685.30	55710.89
685.49	55692.46
685.69	55970.99
685.88	56077.48
686.07	55878.83
686.26	55612.59
686.45	55440.56
686.64	56087.72
686.83	55698.61
687.02	55758.00
687.21	56218.79
687.40	55665.84
687.59	55626.93
687.78	55714.99
687.97	55977.13
688.16	55743.66
688.35	55979.18
688.54	55932.07
688.74	55596.21
688.93	55350.45
689.12	55766.19
689.31	55172.28
689.50	55887.02
689.69	55452.85
689.88	55350.45
690.07	55897.26
690.26	55499.95
690.45	55487.67
690.64	55289.01
690.83	55008.44
691.02	55246.00
691.21	55180.47
691.40	55368.88
691.59	55817.39
691.78	55198.90
691.97	55473.33
692.16	55184.57
692.35	55401.65
692.54	55542.96
692.73	55440.56
692.92	55170.23
693.11	55145.65
693.30	55350.45
693.49	54899.90
693.68	55350.45
693.87	55479.47
694.06	55254.20
694.25	55039.16
694.44	54957.24
694.63	54916.28
694.82	55350.45
695.01	54707.39
695.20	54977.72
695.39	55098.55
695.58	54801.60
695.77	54752.44
695.96	55313.59
696.15	54641.85
696.34	54975.67
696.53	55047.35
696.72	54949.05
696.91	54899.90
697.10	54809.79
697.29	54637.76
697.48	54887.61
697.67	54672.57
697.86	54367.43
698.05	54731.96
698.24	54830.27
698.43	54400.19
698.62	54779.07
698.81	54805.69
699.00	55096.50
699.19	54312.13
699.38	54764.73
699.57	54084.81
699.76	55209.14
699.95	54398.15
700.14	54277.32
700.32	54467.78
700.51	54047.94
700.70	54537.41
700.89	54418.63
701.08	54500.54
701.27	54289.60
701.46	54865.08
701.65	53896.39
701.84	54086.85
702.03	54150.34
702.22	53806.28
702.41	53984.46
702.60	54277.32
702.79	54486.21
702.98	53906.63
703.17	53982.41
703.35	53847.24
703.54	53654.73
703.73	54750.40
703.92	53996.74
704.11	54158.53
704.30	53535.95
704.49	53814.47
704.68	53648.59
704.87	54185.16
705.06	53497.04
705.25	54033.61
705.43	53703.88
705.62	53959.88
705.81	54023.37
706.00	53769.42
706.19	53630.16
706.38	53566.67
706.57	54068.42
706.76	53515.47
706.95	53767.37
707.14	53304.53
707.32	53406.93
707.51	53355.73
707.70	53445.84
707.89	53408.98
708.08	53499.09
708.27	53640.40
708.46	53652.69
708.65	53429.46
708.84	53648.59
709.02	53628.11
709.21	53529.81
709.40	53505.23
709.59	53355.73
709.78	53114.07
709.97	53664.97
710.16	52939.99
710.34	53126.36
710.53	53060.82
710.72	53204.18
710.91	52997.34
711.10	53302.48
711.29	53003.48
711.48	53198.04
711.66	52907.22
711.85	52780.25
712.04	52952.28
712.23	53118.17
712.42	52819.16
712.61	52995.29
712.80	52567.26
712.98	52587.74
713.17	52673.76
713.36	52872.41
713.55	52608.22
713.74	52714.72
713.93	52507.87
714.11	52380.90
714.30	52296.93
714.49	52188.39
714.68	52786.39
714.87	52686.04
715.06	52688.09
715.24	52401.38
715.43	52446.43
715.62	52122.85
715.81	52149.48
716.00	52184.29
716.18	51991.78
716.37	51981.54
716.56	51881.19
716.75	52477.15
716.94	51997.93
717.12	52212.96
717.31	51918.06
717.50	51879.14
717.69	52008.17
717.88	52014.31
718.06	51811.56
718.25	51619.05
718.44	51660.01
718.63	51723.50
718.82	51367.15
719.00	51574.00
719.19	50951.41
719.38	51213.55
719.57	51266.80
719.76	51125.49
719.94	51373.30
720.13	51137.78
720.32	50877.69
720.51	51121.40
720.69	50889.98
720.88	50828.54
721.07	50867.45
721.26	50609.40
721.44	51012.85
721.63	50126.08
721.82	50554.11
722.01	50605.31
722.20	50889.98
722.38	50353.41
722.57	50167.04
722.76	50711.80
722.95	50453.76
723.13	49972.49
723.32	50269.44
723.51	49655.05
723.70	49972.49
723.88	50031.88
724.07	49767.69
724.26	49790.22
724.44	49077.52
724.63	49886.47
724.82	49894.66
725.01	49556.75
725.19	49349.90
725.38	49706.25
725.57	49536.27
725.76	49665.29
725.94	49411.34
726.13	49108.24
726.32	49300.75
726.51	49112.34
726.69	49386.77
726.88	49454.35
727.07	49050.90
727.25	49171.73
727.44	49474.83
727.63	49603.85
727.82	49452.30
728.00	49089.81
728.19	49245.46
728.38	49227.02
728.56	48592.15
728.75	49255.70
728.94	48790.81
729.12	48977.17
729.31	49202.45
729.50	49397.01
729.69	49126.67
729.87	48837.91
730.06	49194.26
730.25	49083.67
730.43	49171.73
730.62	48801.05
730.81	48979.22
730.99	49173.78
731.18	48612.63
731.37	49237.26
731.55	49241.36
731.74	49333.52
731.93	48952.60
732.11	48903.45
732.30	48559.39
732.49	49112.34
732.67	48778.52
732.86	48952.60
733.05	48903.45
733.23	48850.20
733.42	48667.93
733.61	48661.79
733.79	48393.50
733.98	49046.80
734.17	48370.97
734.35	48667.93
734.54	48882.97
734.73	48895.25
734.91	48553.24
735.10	48342.30
735.29	48665.88
735.47	47856.93
735.66	48545.05
735.84	48481.56
736.03	48057.63
736.22	48416.03
736.40	47781.16
736.59	48295.20
736.78	48387.36
736.96	48239.90
737.15	48067.87
737.33	48131.36
737.52	48018.72
737.71	48258.34
737.89	48153.89
738.08	47699.24
738.27	47918.37
738.45	47936.80
738.64	47605.03
738.82	47676.71
739.01	48106.79
739.20	47858.98
739.38	47537.45
739.57	47938.85
739.75	48051.49
739.94	47568.17
740.13	47768.87
740.31	47387.95
740.50	47473.96
740.68	47775.02
740.87	47840.55
741.06	47732.01
741.24	47351.09
741.43	47453.48
741.61	47355.18
741.80	47011.12
741.99	47084.85
742.17	47314.22
742.36	47220.02
742.54	47373.61
742.73	47160.62
742.91	47189.30
743.10	46679.35
743.29	47185.20
743.47	47314.22
743.66	46769.46
743.84	47306.03
744.03	47205.68
744.21	46845.24
744.40	47359.28
744.59	47566.12
744.77	46880.05
744.96	46658.87
745.14	46497.08
745.33	46693.69
745.51	46249.28
745.70	46724.41
745.88	46449.98
746.07	46712.12
746.26	46091.58
746.44	46667.06
746.63	46460.22
746.81	46810.42
747.00	46093.63
747.18	46413.12
747.37	46173.50
747.55	46675.26
747.74	46499.13
747.92	45962.56
748.11	46241.09
748.29	46030.15
748.48	46312.77
748.66	45991.23
748.85	46114.11
749.03	46275.90
749.22	46017.86
749.41	46003.52
749.59	46210.37
749.78	46161.22
749.96	45651.27
750.15	45864.26
750.33	46153.02
750.52	45921.60
750.70	45593.93
750.89	45747.53
751.07	45581.64
751.26	45104.46
751.44	45026.64
751.63	45256.01
751.81	45581.64
752.00	45339.98
752.18	45237.58
752.37	45270.35
752.55	45385.04
752.74	45489.48
752.92	45278.54
753.10	44979.54
753.29	45139.28
753.47	44887.38
753.66	44627.29
753.84	45309.26
754.03	45012.31
754.21	44561.75
754.40	44965.20
754.58	44795.22
754.77	44901.71
754.95	44641.62
755.14	44815.70
755.32	45008.21
755.51	44268.89
755.69	44305.76
755.88	44399.96
756.06	44848.47
756.24	44260.70
756.43	44189.02
756.61	44580.18
756.80	44158.30
756.98	43951.46
757.17	44440.92
757.35	44490.07
757.54	44463.45
757.72	44483.93
757.90	44051.81
758.09	44316.00
758.27	43793.76
758.46	44098.91
758.64	43965.79
758.83	43693.41
759.01	44158.30
759.19	43693.41
759.38	43951.46
759.56	44256.60
759.75	43922.79
759.93	43828.58
760.12	43769.19
760.30	43642.21
760.48	43654.50
760.67	43605.35
760.85	44002.66
761.04	43523.43
761.22	43509.10
761.40	43582.82
761.59	43744.61
761.77	43277.68
761.96	43574.63
762.14	43228.52
762.32	43443.56
762.51	43146.61
762.69	43603.30
762.88	43472.23
763.06	43529.58
763.24	43382.12
763.43	43570.54
763.61	42823.03
763.80	42960.24
763.98	42767.73
764.16	43052.40
764.35	42675.57
764.53	42589.56
764.72	42659.19
764.90	42882.42
765.08	42800.50
765.27	42718.58
765.45	42304.89
765.63	42370.43
765.82	42773.88
766.00	42341.75
766.18	42341.75
766.37	42564.98
766.55	42698.10
766.74	42108.29
766.92	42102.14
767.10	42505.59
767.29	42001.79
767.47	42110.33
767.65	42151.29
767.84	41325.96
768.02	41950.59
768.20	41840.00
768.39	41708.93
768.57	41975.17
768.75	41678.21
768.94	42075.52
769.12	41727.36
769.30	41682.31
769.49	41557.38
769.67	41598.34
769.85	41010.57
770.04	41508.23
770.22	41450.89
770.40	41407.88
770.59	41006.48
770.77	41506.18
770.95	41127.31
771.14	41153.93
771.32	41317.77
771.50	41045.39
771.69	41287.05
771.87	41188.75
772.05	41182.60
772.24	40744.34
772.42	41006.48
772.60	40834.45
772.78	41131.40
772.97	40723.86
773.15	40687.00
773.33	41123.21
773.52	40725.91
773.70	40877.46
773.88	40863.12
774.07	40615.32
774.25	40730.00
774.43	41194.89
774.61	41004.43
774.80	40953.23
774.98	41260.43
775.16	40793.49
775.34	41231.75
775.53	40764.82
775.71	41237.90
775.89	41043.34
776.08	40801.68
776.26	40725.91
776.44	41133.45
776.62	41241.99
776.81	40441.24
776.99	41508.23
777.17	41176.46
777.35	41053.58
777.54	41223.56
777.72	41231.75
777.90	40922.51
778.08	41409.93
778.27	41252.23
778.45	41315.72
778.63	41743.75
778.81	40756.63
779.00	41885.06
779.18	41133.45
779.36	41526.66
779.54	41358.73
779.73	41436.55
779.91	41561.48
780.09	41495.94
780.27	41981.31
780.46	41663.88
780.64	41829.76
780.82	41332.11
781.00	41569.67
781.19	42268.03
781.37	42030.46
781.55	41932.16
781.73	42108.29
781.91	41743.75
782.10	41997.70
782.28	41780.61
782.46	41596.29
782.64	42153.34
782.82	41710.98
783.01	42128.77
783.19	41938.30
783.37	42270.08
783.55	41778.56
783.74	42233.21
783.92	41799.04
784.10	42214.78
784.28	41799.04
784.46	41854.34
784.64	41852.29
784.83	42059.13
785.01	42083.71
785.19	41790.85
785.37	42403.19
785.55	41940.35
785.74	41790.85
785.92	41493.89
786.10	42208.64
786.28	41751.94
786.46	41971.07
786.64	41706.88
786.83	41543.05
787.01	41934.21
787.19	41545.09
787.37	41600.39
787.55	41926.02
787.74	41534.85
787.92	41414.02
788.10	41674.12
788.28	41403.78
788.46	41788.80
788.64	41373.06
788.82	41538.95
789.01	41694.60
789.19	41285.00
789.37	40752.53
789.55	40998.29
789.73	40703.38
789.91	40979.85
790.09	40789.39
790.28	40459.67
790.46	40795.54
790.64	41084.30
790.82	40809.87
791.00	40637.84
791.18	40449.43
791.36	40863.12
791.55	40899.98
791.73	40344.98
791.91	40373.66
792.09	40387.99
792.27	40269.21
792.45	40494.49
792.63	40607.12
792.81	40328.60
793.00	40048.03
793.18	39878.05
793.36	40007.07
793.54	39890.34
793.72	39802.27
793.90	39794.08
794.08	40011.17
794.26	39679.39
794.44	39669.15
794.62	39075.24
794.81	39482.79
794.99	39312.81
795.17	39546.28
795.35	39054.76
795.53	39220.65
795.71	39386.54
795.89	38839.73
796.07	38966.70
796.25	38989.23
796.43	38901.17
796.61	38538.68
796.80	38712.75
796.98	38548.92
797.16	38241.72
797.34	38200.76
797.52	38229.43
797.70	38596.02
797.88	38274.49
798.06	37854.65
798.24	37651.91
798.42	38022.59
798.60	37791.17
798.78	37522.88
798.96	37357.00
799.14	37004.75
799.32	37649.86
799.51	37457.35
799.69	37287.37
799.87	37662.15
800.05	36883.92
800.23	36928.97
800.41	37078.47
800.59	37123.53
800.77	36564.43
800.95	36242.90
801.13	36615.63
801.31	36165.08
801.49	36447.70
801.67	36312.53
801.85	36490.71
802.03	36085.21
802.21	36337.11
802.39	35864.03
802.57	36025.82
802.75	35657.18
802.93	36228.57
803.11	35616.22
803.29	35593.70
803.47	35610.08
803.65	35765.73
803.83	35509.73
804.01	35624.42
804.19	35397.09
804.37	35317.22
804.55	35380.71
804.73	35309.03
804.91	35194.34
805.09	35046.89
805.27	35257.83
805.45	35368.42
805.63	34833.90
805.81	34911.72
805.99	34797.04
806.17	34745.84
806.35	34694.64
806.53	34166.26
806.71	34469.36
806.89	34366.96
807.07	34457.07
807.25	34405.88
807.43	33981.95
807.61	34434.55
807.79	34166.26
807.97	33900.03
808.15	33994.23
808.33	33740.29
808.51	33930.75
808.69	33895.93
808.87	33408.51
809.05	33619.46
809.23	33588.74
809.41	33113.61
809.59	33148.42
809.77	33715.71
809.95	33142.28
810.13	33185.29
810.31	32949.77
810.49	33003.02
810.67	32904.71
810.84	33238.53
811.02	32699.92
811.20	32757.26
811.38	32542.22
811.56	32796.17
811.74	32415.25
811.92	32554.51
812.10	32622.09
812.28	32534.03
812.46	32515.60
812.64	32425.49
812.82	31893.02
813.00	32165.40
813.18	32183.83
813.36	31874.59
813.53	31966.74
813.71	31870.49
813.89	31645.21
814.07	31929.88
814.25	31870.49
814.43	31667.74
814.61	31503.90
814.79	31473.18
814.97	31335.97
815.15	31485.47
815.33	31143.46
815.50	31237.67
815.68	31356.45
815.86	31514.14
816.04	31305.25
816.22	31143.46
816.40	31071.78
816.58	31032.87
816.76	30701.10
816.94	30760.49
817.11	30756.39
817.29	30928.42
817.47	30748.20
817.65	30725.68
817.83	30658.09
818.01	30316.08
818.19	30533.17
818.37	30604.84
818.54	30383.66
818.72	30221.87
818.90	30309.94
819.08	30297.65
819.26	30295.60
819.44	30195.25
819.62	30256.69
819.80	30133.81
819.97	30062.13
820.15	29763.13
820.33	30055.99
820.51	29957.69
820.69	29711.93
820.87	29951.54
821.05	29779.51
821.22	29838.90
821.40	29472.32
821.58	29566.52
821.76	29455.93
821.94	29396.54
822.12	29212.23
822.29	29445.69
822.47	29505.09
822.65	29675.07
822.83	29115.97
823.01	29169.22
823.19	29113.92
823.36	28720.71
823.54	28984.90
823.72	28833.35
823.90	28968.52
824.08	28587.60
824.25	28687.95
824.43	28325.46
824.61	28661.32
824.79	28450.38
824.97	28728.91
825.15	28421.71
825.32	28730.95
825.50	28141.14
825.68	28270.16
825.86	28517.96
826.04	28509.77
826.21	28520.01
826.39	28096.08
826.57	28245.58
826.75	28069.46
826.93	27885.14
827.10	28065.36
827.28	28298.83
827.46	28134.99
827.64	28270.16
827.81	27965.01
827.99	28046.93
828.17	28167.76
828.35	27653.72
828.53	27682.39
828.70	27831.90
828.88	27524.70
829.06	27489.88
829.24	27760.22
829.41	27385.44
829.59	27758.17
829.77	27592.28
829.95	27422.30
830.12	27381.34
830.30	27133.54
830.48	27315.81
830.66	27129.44
830.84	27315.81
831.01	27059.81
831.19	27158.11
831.37	27129.44
831.55	27219.55
831.72	26949.22
831.90	26973.80
832.08	27063.91
832.25	26900.07
832.43	26650.22
832.61	26908.26
832.79	26611.31
832.96	26547.82
833.14	26906.21
833.32	26701.42
833.50	26625.64
833.67	26732.14
833.85	26449.52
834.03	26240.62
834.20	26652.27
834.38	26599.02
834.56	26539.63
834.74	26068.59
834.91	26193.52
835.09	26031.73
835.27	26154.61
835.44	26152.56
835.62	25945.72
835.80	25978.48
835.98	26062.45
836.15	26314.35
836.33	25771.64
836.51	26099.31
836.68	25822.84
836.86	25484.92
837.04	26011.25
837.21	25560.70
837.39	26058.35
837.57	25853.56
837.75	25677.43
837.92	25681.53
838.10	25489.02
838.28	25403.00
838.45	25312.89
838.63	25423.48
838.81	25724.54
838.98	25335.42
839.16	25276.03
839.34	25230.98
839.51	25458.30
839.69	25128.58
839.87	25005.70
840.04	25185.92
840.22	25321.09
840.40	25026.18
840.57	24921.73
840.75	24981.12
840.93	24802.95
841.10	25005.70
841.28	25288.32
841.46	24751.75
841.63	25026.18
841.81	25042.56
841.98	24757.89
842.16	24680.07
842.34	24663.69
842.51	24637.06
842.69	24696.46
842.87	24622.73
843.04	24811.14
843.22	24598.15
843.40	24505.99
843.57	24245.90
843.75	24575.62
843.92	24465.03
844.10	24315.53
844.28	24499.85
844.45	24358.54
844.63	24299.15
844.81	24034.96
844.98	24313.48
845.16	24198.80
845.33	24037.01
845.51	24133.26
845.69	24333.96
845.86	24061.58
846.04	24049.30
846.21	24350.35
846.39	23647.90
846.57	23840.40
846.74	23946.90
846.92	23744.15
847.09	23813.78
847.27	23928.47
847.45	23592.60
847.62	23713.43
847.80	23934.61
847.97	23608.98
848.15	23529.11
848.32	23422.62
848.50	23627.42
848.68	23590.55
848.85	23365.28
849.03	23338.65
849.20	23385.76
849.38	23365.28
849.56	23629.46
849.73	23283.36
849.91	23228.06
850.08	23404.19
850.26	23131.81
850.43	23152.29
850.61	23297.69
850.78	22994.59
850.96	23146.14
851.14	23037.60
851.31	23096.99
851.49	23103.14
851.66	23146.14
851.84	22986.40
852.01	22943.39
852.19	23015.07
852.36	22998.69
852.54	22722.21
852.71	22654.63
852.89	22462.12
853.07	22697.64
853.24	22984.35
853.42	22415.02
853.59	22595.24
853.77	22791.84
853.94	22509.22
854.12	22658.73
854.29	22177.45
854.47	22531.75
854.64	22449.83
854.82	22632.10
854.99	22607.53
855.17	22453.93
855.34	22120.11
855.52	22238.89
855.69	22253.23
855.87	22116.01
856.04	21882.55
856.22	22247.08
856.39	22021.81
856.57	22226.60
856.74	22283.95
856.92	22019.76
857.09	22027.95
857.27	22118.06
857.44	22116.01
857.62	22298.28
857.79	21948.08
857.97	21903.03
858.14	21937.84
858.32	21784.24
858.49	21759.67
858.67	21700.28
858.84	21833.39
859.02	21817.01
859.19	21538.49
859.37	21487.29
859.54	21571.25
859.72	21749.43
859.89	21493.43
860.06	21706.42
860.24	21507.77
860.41	21835.44
860.59	21655.22
860.76	21743.28
860.94	21081.79
861.11	21632.69
861.29	21397.18
861.46	21382.84
861.64	21059.26
861.81	20944.58
861.98	21384.89
862.16	21135.04
862.33	20903.62
862.51	21206.72
862.68	21407.42
862.86	21001.92
863.03	21073.60
863.21	21235.39
863.38	20897.47
863.55	20940.48
863.73	21020.35
863.90	21016.26
864.08	20987.58
864.25	20922.05
864.43	20952.77
864.60	20790.98
864.77	20647.62
864.95	20596.42
865.12	20752.07
865.30	20799.17
865.47	20362.95
865.64	20524.74
865.82	20666.05
865.99	20707.01
866.17	20502.22
866.34	20502.22
866.51	20367.05
866.69	20625.09
866.86	20561.61
867.04	20494.02
867.21	20422.34
867.38	20438.73
867.56	20344.52
867.73	20405.96
867.91	20336.33
868.08	20264.65
868.25	19998.41
868.43	19984.08
868.60	20098.77
868.78	19947.22
868.95	19998.41
869.12	19943.12
869.30	19867.34
869.47	20082.38
869.64	19912.40
869.82	20043.47
869.99	19685.08
870.16	20090.57
870.34	19726.04
870.51	19902.16
870.69	19357.40
870.86	19769.04
871.03	19834.58
871.21	19678.93
871.38	19506.90
871.55	19328.73
871.73	19326.68
871.90	19597.01
872.07	19275.48
872.25	19191.52
872.42	19130.08
872.59	19310.30
872.77	19216.09
872.94	19080.92
873.11	19009.25
873.29	19111.64
873.46	19056.35
873.63	19144.41
873.81	18814.69
873.98	19074.78
874.15	18796.26
874.33	18835.17
874.50	18824.93
874.67	18876.13
874.85	18792.16
875.02	18724.58
875.19	18695.91
875.37	18781.92
875.54	18620.13
875.71	18472.68
875.88	18792.16
876.06	18392.81
876.23	18456.29
876.40	18517.73
876.58	18458.34
876.75	18466.53
876.92	18126.57
877.10	18409.19
877.27	18312.94
877.44	18130.67
877.61	17993.45
877.79	18185.96
877.96	18089.71
878.13	18210.54
878.31	17981.17
878.48	18001.65
878.65	18224.87
878.82	17704.69
879.00	18007.79
879.17	18063.08
879.34	17915.63
879.51	17655.54
879.69	17706.74
879.86	17583.86
880.03	17583.86
880.21	17590.00
880.38	17784.56
880.55	17862.38
880.72	17676.02
880.90	17503.99
881.07	17493.75
881.24	17667.83
881.41	17739.51
881.59	17436.41
881.76	17673.97
881.93	17319.67
882.10	17254.14
882.28	17411.83
882.45	17399.54
882.62	17221.37
882.79	17600.24
882.96	17145.59
883.14	17336.06
883.31	17307.38
883.48	17141.50
883.65	17301.24
883.83	17391.35
884.00	17108.73
884.17	16918.27
884.34	17190.65
884.51	17090.30
884.69	17327.86
884.86	17002.24
885.03	17159.93
885.20	16678.66
885.38	16942.85
885.55	16797.44
885.72	16985.85
885.89	16793.34
886.06	16795.39
886.24	16910.08
886.41	16688.90
886.58	17008.38
886.75	17139.45
886.92	16723.71
887.10	16826.11
887.27	16559.88
887.44	16746.24
887.61	16834.30
887.78	16953.09
887.95	16678.66
888.13	16453.38
888.30	16449.28
888.47	16291.59
888.64	16580.36
888.81	16299.78
888.99	16699.14
889.16	16586.50
889.33	16344.84
889.50	16168.71
889.67	16518.92
889.84	16060.17
890.01	16467.72
890.19	16283.40
890.36	16449.28
890.53	16305.93
890.70	16062.22
890.87	16269.06
891.04	16158.47
891.22	15986.44
891.39	15869.71
891.56	16008.97
891.73	15990.54
891.90	16191.24
892.07	16084.75
892.24	15884.05
892.42	15914.77
892.59	15810.32
892.76	15859.47
892.93	15630.10
893.10	15988.49
893.27	15755.02
893.44	15777.55
893.61	15763.22
893.79	15884.05
893.96	15585.04
894.13	15648.53
894.30	15773.46
894.47	15703.82
894.64	15656.72
894.81	15644.43
894.98	16023.31
895.15	15626.00
895.33	15660.82
895.50	15630.10
895.67	15716.11
895.84	15724.30
896.01	15777.55
896.18	15632.15
896.35	15879.95
896.52	15580.95
896.69	15607.57
896.86	15546.13
897.04	15560.47
897.21	15359.77
897.38	15597.33
897.55	15638.29
897.72	15607.57
897.89	15761.17
898.06	15660.82
898.23	15585.04
898.40	15585.04
898.57	15519.51
898.74	15607.57
898.91	15382.29
899.08	15628.05
899.26	15499.03
899.43	15499.03
899.60	15435.54
899.77	15744.78
899.94	15396.63
900.11	15431.44
900.28	15482.64
900.45	15339.29
900.62	15322.90
900.79	15683.34
900.96	15531.80
901.13	15460.12
901.30	15271.70
901.47	15548.18
901.64	15585.04
901.81	15394.58
901.98	15357.72
902.15	15511.32
902.32	15355.67
902.49	15640.34
902.66	15517.46
902.83	15370.01
903.01	15585.04
903.18	15392.53
903.35	15537.94
903.52	15453.97
903.69	15458.07
903.86	15441.68
904.03	15511.32
904.20	15671.06
904.37	15666.96
904.54	15324.95
904.71	15382.29
904.88	15548.18
905.05	15257.37
905.22	15607.57
905.39	15320.85
905.56	15314.71
905.73	15429.40
905.90	15451.92
906.07	15460.12
906.24	15464.21
906.41	15271.70
906.58	15503.12
906.75	15589.14
906.92	15343.38
907.09	15253.27
907.26	15470.36
907.43	15193.88
907.60	15417.11
907.77	15345.43
907.93	15290.13
908.10	15290.13
908.27	15718.16
908.44	15238.94
908.61	15126.30
908.78	15353.62
908.95	15478.55
909.12	15226.65
909.29	15331.09
909.46	15150.87
909.63	15210.26
909.80	15286.04
909.97	15425.30
910.14	15296.28
910.31	14948.12
910.48	15052.57
910.65	15077.15
910.82	15161.11
910.99	15277.85
911.16	15212.31
911.33	15142.68
911.50	15140.63
911.66	14884.64
911.83	14823.20
912.00	15073.05
912.17	14847.77
912.34	14964.51
912.51	14917.40
912.68	14790.43
912.85	14929.69
913.02	14759.71
913.19	14765.85
913.36	14956.32
913.53	14923.55
913.70	14616.35
913.86	14839.58
914.03	14774.05
914.20	14786.33
914.37	14755.61
914.54	14663.46
914.71	14722.85
914.88	14567.20
915.05	14518.05
915.22	14335.78
915.39	14626.59
915.55	14374.69
915.72	14104.36
915.89	14384.93
916.06	14257.96
916.23	14221.10
916.40	14292.77
916.57	14145.32
916.74	14085.93
916.91	14159.66
917.07	14286.63
917.24	13979.43
917.41	14110.50
917.58	14210.86
917.75	13944.62
917.92	13952.81
918.09	14020.39
918.26	14044.97
918.42	13911.85
918.59	13907.76
918.76	13872.94
918.93	13602.61
919.10	13694.77
919.27	13614.90
919.44	13922.09
919.60	13758.25
919.77	13436.72
919.94	13670.19
920.11	13684.53
920.28	13446.96
920.45	13485.87
920.61	13653.81
920.78	13270.84
920.95	13317.94
921.12	13279.03
921.29	13250.36
921.46	12990.27
921.62	12951.35
921.79	13199.16
921.96	13000.51
922.13	13147.96
922.30	12846.91
922.47	12881.72
922.63	12705.60
922.80	12814.14
922.97	12724.03
923.14	12525.38
923.31	12742.46
923.47	12568.38
923.64	13020.99
923.81	12662.59
923.98	12554.05
924.15	12119.88
924.32	12349.25
924.48	12545.86
924.65	12388.16
924.82	12232.52
924.99	12162.89
925.15	12048.20
925.32	12207.94
925.49	12025.67
925.66	11921.23
925.83	11976.52
925.99	11609.93
926.16	11892.55
926.33	11847.50
926.50	11784.01
926.67	11845.45
926.83	11591.50
927.00	11863.88
927.17	11587.41
927.34	11599.70
927.50	11523.92
927.67	11642.70
927.84	11439.95
928.01	11429.71
928.17	11450.19
928.34	11276.12
928.51	11349.84
928.68	11081.56
928.84	11177.81
929.01	11013.98
929.18	11022.17
929.35	10932.06
929.51	10964.82
929.68	10766.17
929.85	10696.54
930.02	10893.15
930.18	10772.32
930.35	10895.19
930.52	10772.32
930.69	10714.97
930.85	10516.32
931.02	10786.65
931.19	10534.75
931.36	10598.24
931.52	10473.31
931.69	10530.66
931.86	10395.49
932.02	10362.72
932.19	10227.56
932.36	10243.94
932.53	10239.84
932.69	10086.25
932.86	10145.64
933.03	10205.03
933.19	9887.59
933.36	10135.40
933.53	10030.95
933.70	9795.43
933.86	9670.51
934.03	9944.94
934.20	9539.44
934.36	9797.48
934.53	9478.00
934.70	9430.90
934.86	9461.62
935.03	9320.31
935.20	9357.17
935.36	9166.71
935.53	8941.43
935.70	8998.77
935.86	9209.72
936.03	8998.77
936.20	8914.81
936.36	8679.29
936.53	8570.75
936.70	8638.33
936.86	8707.96
937.03	8552.32
937.20	8245.12
937.36	8425.34
937.53	8263.55
937.70	8118.15
937.86	7919.50
938.03	7991.17
938.20	8044.42
938.36	7739.27
938.53	7823.24
938.70	7458.70
938.86	7552.91
939.03	7554.96
939.20	7296.91
939.36	7407.50
939.53	7286.67
939.70	7444.37
939.86	6926.23
940.03	7088.02
940.19	6997.91
940.36	6868.89
940.53	6885.27
940.69	6674.33
940.86	6766.49
941.03	6479.77
941.19	6506.40
941.36	6561.69
941.52	6461.34
941.69	6283.17
941.86	6305.70
942.02	6371.23
942.19	6186.91
942.35	6211.49
942.52	6180.77
942.69	6164.39
942.85	5883.81
943.02	6031.27
943.18	6098.85
943.35	5877.67
943.52	5982.12
943.68	5709.74
943.85	5734.31
944.01	5746.60
944.18	5707.69
944.35	5760.94
944.51	5638.06
944.68	5605.29
944.84	5523.37
945.01	5531.56
945.17	5572.52
945.34	5334.96
945.51	5388.21
945.67	5541.80
945.84	5386.16
946.00	5365.68
946.17	5463.98
946.33	5345.20
946.50	5513.13
946.67	5351.34
946.83	5361.58
947.00	5380.01
947.16	5320.62
947.33	5273.52
947.49	5355.44
947.66	5248.94
947.82	5255.09
947.99	5347.25
948.16	5337.01
948.32	5337.01
948.49	5455.79
948.65	5400.49
948.82	5382.06
948.98	5248.94
949.15	5195.70
949.31	5310.38
949.48	5437.36
949.64	5339.05
949.81	5334.96
949.97	5298.10
950.14	5375.92
950.30	5240.75
950.47	5463.98
950.63	5384.11
950.80	5373.87
950.96	5296.05
951.13	5359.53
951.30	5396.40
951.46	5388.21
951.63	5455.79
951.79	5412.78
951.96	5359.53
952.12	5476.27
952.29	5449.64
952.45	5392.30
952.62	5388.21
952.78	5515.18
952.94	5390.25
953.11	5418.93
953.27	5334.96
953.44	5406.64
953.60	5455.79
953.77	5527.47
953.93	5423.02
954.10	5468.08
954.26	5509.04
954.43	5463.98
954.59	5482.41
954.76	5705.64
954.92	5496.75
955.09	5580.71
955.25	5441.45
955.42	5525.42
955.58	5574.57
955.75	5410.73
955.91	5480.36
956.07	5558.19
956.24	5509.04
956.40	5601.19
956.57	5619.63
956.73	5423.02
956.90	5533.61
957.06	5476.27
957.23	5498.80
957.39	5433.26
957.56	5570.48
957.72	5498.80
957.88	5416.88
958.05	5568.43
958.21	5693.35
958.38	5506.99
958.54	5468.08
958.71	5556.14
958.87	5500.84
959.03	5580.71
959.20	5502.89
959.36	5400.49
959.53	5447.60
959.69	5400.49
959.85	5576.62
960.02	5459.88
960.18	5466.03
960.35	5627.82
960.51	5603.24
960.68	5466.03
960.84	5572.52
961.00	5492.65
961.17	5494.70
961.33	5500.84
961.50	5519.28
961.66	5412.78
961.82	5418.93
961.99	5423.02
962.15	5330.86
962.31	5445.55
962.48	5480.36
962.64	5595.05
962.81	5474.22
962.97	5414.83
963.13	5445.55
963.30	5566.38
963.46	5359.53
963.62	5519.28
963.79	5490.60
963.95	5304.24
964.12	5386.16
964.28	5488.56
964.44	5296.05
964.61	5472.17
964.77	5390.25
964.93	5384.11
965.10	5517.23
965.26	5410.73
965.42	5291.95
965.59	5259.18
965.75	5234.61
965.92	5345.20
966.08	5263.28
966.24	5373.87
966.41	5232.56
966.57	5300.14
966.73	5400.49
966.90	5296.05
967.06	5392.30
967.22	5230.51
967.39	5357.49
967.55	5169.07
967.71	5240.75
967.88	5269.42
968.04	5248.94
968.20	5205.94
968.37	5150.64
968.53	5263.28
968.69	5246.90
968.85	5296.05
969.02	5242.80
969.18	5185.46
969.34	5287.86
969.51	5124.02
969.67	5224.37
969.83	5027.76
970.00	5267.38
970.16	5101.49
970.32	5214.13
970.48	5326.77
970.65	4931.51
970.81	5158.83
970.97	4954.04
971.14	4999.09
971.30	5156.79
971.46	5085.11
971.63	4986.80
971.79	5076.91
971.95	5009.33
972.11	5046.20
972.28	5033.91
972.44	4970.42
972.60	4900.79
972.76	5068.72
972.93	4759.48
973.09	4882.36
973.25	4843.45
973.42	4798.39
973.58	5007.28
973.74	4943.80
973.90	4900.79
974.07	4796.34
974.23	4718.52
974.39	4820.92
974.55	4786.10
974.72	4804.53
974.88	4726.71
975.04	4923.32
975.20	4767.67
975.37	4792.25
975.53	4825.01
975.69	4718.52
975.85	4726.71
976.01	4689.85
976.18	4765.62
976.34	4704.18
976.50	4728.76
976.66	4829.11
976.83	4663.22
976.99	4677.56
977.15	4581.31
977.31	4763.58
977.47	4683.70
977.64	4671.42
977.80	4593.59
977.96	4650.94
978.12	4657.08
978.29	4587.45
978.45	4493.24
978.61	4644.79
978.77	4646.84
978.93	4476.86
979.10	4413.37
979.26	4573.11
979.42	4583.35
979.58	4378.56
979.74	4456.38
979.91	4624.31
980.07	4515.77
980.23	4564.92
980.39	4390.84
980.55	4382.65
980.71	4380.61
980.88	4376.51
981.04	4288.45
981.20	4394.94
981.36	4423.61
981.52	4450.24
981.68	4239.30
981.85	4452.28
982.01	4394.94
982.17	4296.64
982.33	4321.21
982.49	4464.57
982.65	4202.43
982.82	4325.31
982.98	4241.34
983.14	4253.63
983.30	4259.78
983.46	4247.49
983.62	4218.82
983.79	4274.11
983.95	4145.09
984.11	4108.23
984.27	4181.95
984.43	4220.86
984.59	4018.11
984.75	4140.99
984.91	4143.04
985.08	4130.75
985.24	4173.76
985.40	4120.51
985.56	4116.42
985.72	4147.14
985.88	4204.48
986.04	4081.60
986.20	4016.07
986.37	4112.32
986.53	3948.48
986.69	4005.83
986.85	3960.77
987.01	4077.51
987.17	4067.27
987.33	4063.17
987.49	3952.58
987.65	3917.76
987.82	3860.42
987.98	3909.57
988.14	3917.76
988.30	4083.65
988.46	4011.97
988.62	3948.48
988.78	3844.04
988.94	4034.50
989.10	3907.52
989.26	3852.23
989.42	3811.27
989.59	3819.46
989.75	3932.10
989.91	3860.42
990.07	3669.96
990.23	3792.84
990.39	3725.26
990.55	3876.80
990.71	3629.00
990.87	3729.35
991.03	3741.64
991.19	3735.50
991.35	3682.25
991.51	3780.55
991.67	3739.59
991.83	3809.22
992.00	3753.93
992.16	3805.13
992.32	3739.59
992.48	3696.58
992.64	3590.09
992.80	3647.43
992.96	3581.90
993.12	3778.50
993.28	3706.82
993.44	3600.33
993.60	3649.48
993.76	3606.47
993.92	3565.51
994.08	3536.84
994.24	3651.53
994.40	3672.01
994.56	3590.09
994.72	3594.19
994.88	3461.07
995.04	3553.23
995.20	3542.99
995.36	3420.11
995.52	3516.36
995.68	3477.45
995.84	3391.44
996.00	3620.81
996.16	3354.57
996.32	3520.46
996.48	3354.57
996.64	3538.89
996.80	3336.14
996.96	3395.53
997.12	3393.48
997.28	3321.81
997.44	3368.91
997.60	3420.11
997.76	3346.38
997.92	3432.40
998.08	3405.77
998.24	3346.38
998.40	3489.74
998.56	3436.49
998.72	3356.62
998.88	3346.38
999.04	3221.45
999.20	3411.92
999.36	3305.42
999.52	3383.24
999.68	3299.28
999.84	3368.91
1000.00	3186.64
1000.16	3352.52
1000.32	3209.17
1000.48	3338.19
1000.64	3121.10
1000.80	3117.01
1000.95	3157.97
1001.11	3248.08
1001.27	3198.93
1001.43	3225.55
1001.59	3045.33
1001.75	3131.34
1001.91	3092.43
1002.07	3039.19
1002.23	3055.57
1002.39	3108.82
1002.55	3170.26
1002.71	3213.26
1002.87	3182.54
1003.03	3067.86
1003.19	2979.79
1003.34	3092.43
1003.50	3100.62
1003.66	3133.39
1003.82	3088.34
1003.98	3010.51
1004.14	3098.58
1004.30	3051.47
1004.46	3006.42
1004.62	3016.66
1004.78	2994.13
1004.94	3010.51
1005.09	3059.67
1005.25	3026.90
1005.41	2961.36
1005.57	3022.80
1005.73	2959.31
1005.89	2983.89
1006.05	3006.42
1006.21	2951.12
1006.37	2842.58
1006.52	2918.36
1006.68	2871.25
1006.84	3100.62
1007.00	2924.50
1007.16	3059.67
1007.32	2899.92
1007.48	2795.48
1007.64	2858.96
1007.79	2877.40
1007.95	2764.76
1008.11	2916.31
1008.27	2799.57
1008.43	2854.87
1008.59	2830.29
1008.75	2938.84
1008.91	2813.91
1009.06	2791.38
1009.22	2885.59
1009.38	2836.44
1009.54	2758.61
1009.70	2748.37
1009.86	2666.46
1010.01	2805.72
1010.17	2777.05
1010.33	2787.29
1010.49	2731.99
1010.65	2750.42
1010.81	2744.28
1010.96	2719.70
1011.12	2768.85
1011.28	2725.85
1011.44	2775.00
1011.60	2621.40
1011.76	2643.93
1011.91	2699.22
1012.07	2631.64
1012.23	2572.25
1012.39	2697.17
1012.55	2682.84
1012.71	2533.34
1012.86	2553.82
1013.02	2650.07
1013.18	2652.12
1013.34	2596.82
1013.50	2703.32
1013.65	2662.36
1013.81	2539.48
1013.97	2557.91
1014.13	2637.78
1014.29	2654.17
1014.44	2633.69
1014.60	2586.58
1014.76	2674.65
1014.92	2543.58
1015.07	2592.73
1015.23	2514.91
1015.39	2527.19
1015.55	2611.16
1015.71	2584.54
1015.86	2510.81
1016.02	2543.58
1016.18	2437.08
1016.34	2576.34
1016.49	2510.81
1016.65	2600.92
1016.81	2502.62
1016.97	2609.11
1017.12	2451.42
1017.28	2334.68
1017.44	2400.22
1017.60	2473.95
1017.75	2437.08
1017.91	2418.65
1018.07	2428.89
1018.23	2486.23
1018.38	2482.14
1018.54	2506.71
1018.70	2451.42
1018.86	2363.36
1019.01	2363.36
1019.17	2387.93
1019.33	2437.08
1019.49	2406.36
1019.64	2506.71
1019.80	2404.32
1019.96	2371.55
1020.12	2330.59
1020.27	2392.03
1020.43	2265.05
1020.59	2359.26
1020.74	2387.93
1020.90	2385.88
1021.06	2344.92
1021.22	2375.64
1021.37	2277.34
1021.53	2371.55
1021.69	2459.61
1021.84	2263.01
1022.00	2349.02
1022.16	2375.64
1022.31	2334.68
1022.47	2387.93
1022.63	2299.87
1022.79	2269.15
1022.94	2252.77
1023.10	2344.92
1023.26	2201.57
1023.41	2226.14
1023.57	2287.58
1023.73	2250.72
1023.88	2308.06
1024.04	2244.57
1024.20	2197.47
1024.35	2220.00
1024.51	2224.09
1024.67	2256.86
1024.82	2314.20
1024.98	2099.17
1025.14	2228.19
1025.29	2250.72
1025.45	2306.01
1025.61	2172.89
1025.76	2170.85
1025.92	2201.57
1026.08	2230.24
1026.23	2203.61
1026.39	2267.10
1026.55	2127.84
1026.70	2123.74
1026.86	2154.46
1027.02	2164.70
1027.17	2093.02
1027.33	2256.86
1027.48	2105.31
1027.64	2246.62
1027.80	2166.75
1027.95	2195.42
1028.11	2017.25
1028.27	2193.37
1028.42	2193.37
1028.58	2076.64
1028.73	2117.60
1028.89	2054.11
1029.05	2230.24
1029.20	2109.41
>>>>>End Processed Spectral Data<<<<<
