SpectraSuite Data File
++++++++++++++++++++++++++++++++++++
Date: Fri Jun 02 14:44:37 CEST 2017
User: INFO_000
Dark Spectrum Present: No
Reference Spectrum Present: No
Number of Sampled Component Spectra: 1
Spectrometers: USB4H00879
Integration Time (usec): 80000 (USB4H00879)
Spectra Averaged: 1 (USB4H00879)
Boxcar Smoothing: 0 (USB4H00879)
Correct for Electrical Dark: No (USB4H00879)
Strobe/Lamp Enabled: No (USB4H00879)
Correct for Detector Non-linearity: No (USB4H00879)
Correct for Stray Light: No (USB4H00879)
Number of Pixels in Processed Spectrum: 3648
>>>>>Begin Processed Spectral Data<<<<<
345.13	1259.50
345.34	1259.50
345.56	1259.50
345.78	1269.74
345.99	1261.55
346.21	1767.40
346.42	1644.52
346.64	1621.99
346.86	1834.98
347.07	1667.05
347.29	1712.10
347.50	1554.41
347.72	1673.19
347.94	1746.92
348.15	1572.84
348.37	1583.08
348.59	1634.28
348.80	1673.19
349.02	1716.20
349.23	1847.27
349.45	1927.14
349.67	1894.37
349.88	1841.12
350.10	1880.04
350.31	1832.93
350.53	1869.80
350.75	1964.00
350.96	1738.73
351.18	1863.65
351.39	1759.21
351.61	1826.79
351.82	1925.09
352.04	1849.32
352.26	1830.88
352.47	1871.84
352.69	1939.43
352.90	1804.26
353.12	1773.54
353.34	1824.74
353.55	1910.75
353.77	1941.47
353.98	1832.93
354.20	1753.06
354.41	1916.90
354.63	1951.71
354.85	2000.87
355.06	1880.04
355.28	1839.08
355.49	1966.05
355.71	1896.42
355.92	1943.52
356.14	1974.24
356.35	1892.32
356.57	1847.27
356.79	1927.14
357.00	1853.41
357.22	2000.87
357.43	1863.65
357.65	1947.62
357.86	1843.17
358.08	1927.14
358.29	1941.47
358.51	1984.48
358.72	1968.10
358.94	1896.42
359.16	1951.71
359.37	1927.14
359.59	1884.13
359.80	2039.78
360.02	1959.91
360.23	1908.71
360.45	2013.15
360.66	1980.39
360.88	1867.75
361.09	1828.84
361.31	1927.14
361.52	1951.71
361.74	2072.54
361.95	2080.74
362.17	1914.85
362.38	2076.64
362.60	1998.82
362.81	2072.54
363.03	1925.09
363.24	2017.25
363.46	2031.58
363.67	2080.74
363.89	2066.40
364.10	2033.63
364.32	1996.77
364.53	2082.78
364.75	1914.85
364.96	2060.26
365.18	1873.89
365.39	2037.73
365.61	1923.04
365.82	2119.65
366.04	1978.34
366.25	1935.33
366.47	1992.67
366.68	1998.82
366.90	2019.30
367.11	2133.98
367.33	2111.46
367.54	2072.54
367.76	2031.58
367.97	2107.36
368.19	2009.06
368.40	2082.78
368.62	1939.43
368.83	1955.81
369.05	2052.06
369.26	1941.47
369.48	1988.58
369.69	2056.16
369.91	2111.46
370.12	2050.02
370.33	2076.64
370.55	1951.71
370.76	2068.45
370.98	2111.46
371.19	1994.72
371.41	1978.34
371.62	2090.98
371.84	2011.11
372.05	2189.28
372.27	2064.35
372.48	2027.49
372.69	2090.98
372.91	2152.42
373.12	2101.22
373.34	2074.59
373.55	2115.55
373.77	2181.09
373.98	2097.12
374.20	2224.09
374.41	2228.19
374.62	2093.02
374.84	2148.32
375.05	2197.47
375.27	2191.33
375.48	2123.74
375.70	2211.81
375.91	2263.01
376.12	2193.37
376.34	2228.19
376.55	2138.08
376.77	2172.89
376.98	2133.98
377.19	2090.98
377.41	2205.66
377.62	2228.19
377.84	2260.96
378.05	2312.16
378.27	2160.61
378.48	2260.96
378.69	2402.27
378.91	2265.05
379.12	2312.16
379.34	2172.89
379.55	2338.78
379.76	2295.77
379.98	2224.09
380.19	2293.72
380.41	2228.19
380.62	2271.20
380.83	2265.05
381.05	2301.92
381.26	2351.07
381.47	2281.44
381.69	2322.40
381.90	2392.03
382.12	2322.40
382.33	2295.77
382.54	2328.54
382.76	2281.44
382.97	2250.72
383.19	2355.16
383.40	2383.84
383.61	2289.63
383.83	2201.57
384.04	2357.21
384.25	2332.64
384.47	2373.60
384.68	2402.27
384.89	2330.59
385.11	2316.25
385.32	2392.03
385.54	2328.54
385.75	2312.16
385.96	2430.94
386.18	2418.65
386.39	2367.45
386.60	2263.01
386.82	2478.04
387.03	2443.23
387.24	2506.71
387.46	2461.66
387.67	2424.80
387.88	2457.56
388.10	2500.57
388.31	2402.27
388.52	2547.67
388.74	2523.10
388.95	2488.28
389.16	2478.04
389.38	2355.16
389.59	2543.58
389.80	2609.11
390.02	2562.01
390.23	2607.06
390.44	2525.15
390.66	2537.43
390.87	2539.48
391.08	2525.15
391.30	2756.57
391.51	2656.22
391.72	2719.70
391.94	2645.98
392.15	2611.16
392.36	2639.83
392.58	2600.92
392.79	2633.69
393.00	2660.31
393.22	2729.94
393.43	2781.14
393.64	2828.24
393.85	2897.88
394.07	2584.54
394.28	2787.29
394.49	2777.05
394.71	2801.62
394.92	2824.15
395.13	2754.52
395.35	2711.51
395.56	2731.99
395.77	2766.81
395.98	2834.39
396.20	2856.92
396.41	2805.72
396.62	2891.73
396.84	2846.68
397.05	2836.44
397.26	2875.35
397.47	2887.64
397.69	2848.72
397.90	3121.10
398.11	2893.78
398.32	2881.49
398.54	2797.53
398.75	2897.88
398.96	2844.63
399.18	3114.96
399.39	3008.47
399.60	3071.95
399.81	2846.68
400.03	2944.98
400.24	3268.56
400.45	3002.32
400.66	3153.87
400.88	3143.63
401.09	3239.89
401.30	3018.71
401.51	3184.59
401.73	3096.53
401.94	3074.00
402.15	3149.78
402.36	3094.48
402.58	3241.93
402.79	3231.69
403.00	3186.64
403.21	3254.22
403.43	3319.76
403.64	3330.00
403.85	3250.13
404.06	3219.41
404.27	3147.73
404.49	3145.68
404.70	3188.69
404.91	3311.57
405.12	3143.63
405.34	3260.37
405.55	3432.40
405.76	3176.40
405.97	3317.71
406.19	3327.95
406.40	3225.55
406.61	3411.92
406.82	3360.72
407.03	3309.52
407.25	3340.24
407.46	3428.30
407.67	3373.00
407.88	3446.73
408.09	3368.91
408.31	3434.44
408.52	3332.05
408.73	3299.28
408.94	3254.22
409.15	3407.82
409.37	3373.00
409.58	3518.41
409.79	3579.85
410.00	3540.94
410.21	3485.64
410.43	3395.53
410.64	3360.72
410.85	3493.83
411.06	3555.27
411.27	3549.13
411.48	3663.82
411.70	3659.72
411.91	3499.98
412.12	3524.55
412.33	3721.16
412.54	3573.71
412.76	3737.54
412.97	3721.16
413.18	3495.88
413.39	3610.57
413.60	3604.42
413.81	3688.39
414.03	3551.18
414.24	3577.80
414.45	3796.93
414.66	3602.38
414.87	3868.61
415.08	3790.79
415.30	3702.73
415.51	3835.85
415.72	3790.79
415.93	3692.49
416.14	3782.60
416.35	3788.74
416.56	3760.07
416.78	3956.68
416.99	3731.40
417.20	3844.04
417.41	3950.53
417.62	3917.76
417.83	3907.52
418.04	3803.08
418.26	3901.38
418.47	3946.44
418.68	3964.87
418.89	3944.39
419.10	4173.76
419.31	3946.44
419.52	4052.93
419.73	4014.02
419.95	4075.46
420.16	4089.79
420.37	4136.90
420.58	4052.93
420.79	4071.36
421.00	4100.03
421.21	4214.72
421.42	4054.98
421.63	4208.58
421.85	4089.79
422.06	4343.74
422.27	4239.30
422.48	4179.90
422.69	4335.55
422.90	4227.01
423.11	4310.97
423.32	4384.70
423.53	4548.54
423.75	4360.13
423.96	4460.48
424.17	4399.04
424.38	4614.07
424.59	4417.47
424.80	4530.11
425.01	4609.98
425.22	4454.33
425.43	4396.99
425.64	4648.89
425.85	4648.89
426.06	4569.02
426.28	4663.22
426.49	4480.96
426.70	4687.80
426.91	4687.80
427.12	4710.33
427.33	4632.51
427.54	4612.03
427.75	4784.06
427.96	4831.16
428.17	4730.81
428.38	4863.93
428.59	4829.11
428.80	5015.48
429.01	4982.71
429.23	4911.03
429.44	5040.05
429.65	4982.71
429.86	5048.24
430.07	4923.32
430.28	4925.36
430.49	5054.39
430.70	5167.03
430.91	5189.55
431.12	5236.66
431.33	5152.69
431.54	5220.27
431.75	5339.05
431.96	5044.15
432.17	5097.39
432.38	5255.09
432.59	5371.82
432.80	5330.86
433.01	5355.44
433.22	5279.66
433.43	5408.69
433.64	5310.38
433.85	5255.09
434.06	5509.04
434.27	5355.44
434.49	5386.16
434.70	5578.67
434.91	5423.02
435.12	5427.12
435.33	5566.38
435.54	5566.38
435.75	5328.81
435.96	5597.10
436.17	5459.88
436.38	5631.91
436.59	5566.38
436.80	5564.33
437.01	5754.79
437.22	5787.56
437.43	5644.20
437.64	5762.98
437.85	5697.45
438.06	5697.45
438.27	5762.98
438.48	5619.63
438.69	5779.37
438.90	5869.48
439.11	5722.02
439.32	6039.46
439.53	5812.14
439.74	5812.14
439.95	5932.97
440.16	5914.53
440.37	6037.41
440.57	5859.24
440.78	5914.53
440.99	5916.58
441.20	5883.81
441.41	5973.92
441.62	6014.88
441.83	5867.43
442.04	6078.37
442.25	6082.47
442.46	6139.81
442.67	6227.87
442.88	6465.44
443.09	5998.50
443.30	6088.61
443.51	6180.77
443.72	6326.18
443.93	6143.91
444.14	6467.49
444.35	6141.86
444.56	6223.78
444.77	6332.32
444.98	6320.03
445.19	6416.29
445.40	6410.14
445.61	6406.05
445.81	6408.09
446.02	6571.93
446.23	6367.13
446.44	6342.56
446.65	6455.20
446.86	6369.18
447.07	6711.19
447.28	6707.10
447.49	6776.73
447.70	6528.92
447.91	6743.96
448.12	6674.33
448.33	6883.22
448.54	6870.94
448.74	6688.67
448.95	6782.87
449.16	6709.15
449.37	7122.84
449.58	6879.13
449.79	7128.98
450.00	6776.73
450.21	7034.77
450.42	7061.40
450.63	7006.10
450.84	6930.33
451.05	6999.96
451.25	7223.19
451.46	7026.58
451.67	7145.36
451.88	7415.69
452.09	7327.63
452.30	7272.34
452.51	7133.08
452.72	7290.77
452.93	7794.57
453.13	7286.67
453.34	7356.30
453.55	7335.82
453.76	7540.62
453.97	7829.38
454.18	7378.83
454.39	7567.24
454.60	7628.68
454.81	7665.55
455.01	7810.95
455.22	7495.57
455.43	7595.92
455.64	7708.55
455.85	8013.70
456.06	8126.34
456.27	7776.14
456.48	7968.65
456.68	8056.71
456.89	8060.80
457.10	8052.61
457.31	8173.44
457.52	8081.28
457.73	8073.09
457.94	8214.40
458.14	8056.71
458.35	8597.37
458.56	8400.77
458.77	8118.15
458.98	8449.92
459.19	8365.95
459.39	8497.02
459.60	8748.92
459.81	8470.40
460.02	8699.77
460.23	8669.05
460.44	8908.66
460.65	8853.37
460.85	8945.53
461.06	8906.62
461.27	8613.76
461.48	8947.58
461.69	9045.88
461.89	8718.20
462.10	9193.33
462.31	8775.55
462.52	9054.07
462.73	9162.61
462.94	9203.57
463.14	9097.08
463.35	9170.80
463.56	9629.55
463.77	9432.94
463.98	9422.70
464.18	9170.80
464.39	9697.13
464.60	9734.00
464.81	9531.25
465.02	9402.22
465.23	9924.46
465.43	9684.84
465.64	9897.83
465.85	9903.98
466.06	9961.32
466.27	10004.33
466.47	10194.79
466.68	10329.95
466.89	9965.42
467.10	10245.99
467.30	10018.66
467.51	10258.28
467.72	10618.72
467.93	10356.58
468.14	10446.69
468.34	10594.14
468.55	10610.53
468.76	10448.74
468.97	10508.13
469.17	10618.72
469.38	10942.30
469.59	10905.43
469.80	10936.15
470.01	10856.28
470.21	10940.25
470.42	11044.70
470.63	11044.70
470.84	11122.52
471.04	11347.79
471.25	11360.08
471.46	11171.67
471.67	11777.87
471.87	11472.72
472.08	11644.75
472.29	11734.86
472.50	11394.90
472.70	11536.21
472.91	11906.89
473.12	11720.53
473.33	11931.47
473.53	12001.10
473.74	11997.00
473.95	12175.17
474.16	12554.05
474.36	12384.07
474.57	12484.42
474.78	12711.74
474.99	12480.32
475.19	12683.07
475.40	12816.19
475.61	12867.39
475.81	13285.17
476.02	13254.45
476.23	13076.28
476.44	13293.37
476.64	13455.15
476.85	13436.72
477.06	13408.05
477.27	13840.17
477.47	13809.45
477.68	13776.69
477.89	13928.24
478.09	13913.90
478.30	13946.67
478.51	14122.79
478.71	14081.83
478.92	14311.21
479.13	14405.41
479.34	14653.22
479.54	14438.18
479.75	14642.98
479.96	14731.04
480.16	14546.72
480.37	14837.53
480.58	15087.39
480.78	15259.42
480.99	15240.98
481.20	15609.62
481.41	15304.47
481.61	15492.88
481.82	15769.36
482.03	15548.18
482.23	15804.17
482.44	15898.38
482.65	15910.67
482.85	16150.28
483.06	16164.62
483.27	16054.03
483.47	16305.93
483.68	16396.04
483.89	16746.24
484.09	16504.58
484.30	16600.83
484.51	17000.19
484.71	17235.70
484.92	16946.94
485.13	17145.59
485.33	17026.81
485.54	17506.04
485.75	17694.45
485.95	17716.98
486.16	17772.27
486.37	17669.87
486.57	17745.65
486.78	17708.79
486.98	17897.20
487.19	17940.21
487.40	18216.68
487.60	18224.87
487.81	18556.64
488.02	18300.65
488.22	18511.59
488.43	18663.14
488.64	18474.73
488.84	18763.49
489.05	18786.02
489.25	18929.38
489.46	19375.83
489.67	19191.52
489.87	19537.62
490.08	19365.59
490.29	19453.66
490.49	19764.95
490.70	19775.19
490.90	19775.19
491.11	19640.02
491.32	20104.91
491.52	19982.03
491.73	20074.19
491.94	20262.60
492.14	20063.95
492.35	20416.20
492.55	20465.35
492.76	20543.17
492.97	21012.16
493.17	21102.27
493.38	21147.33
493.58	21178.04
493.79	21249.72
494.00	20987.58
494.20	21415.61
494.41	21565.11
494.61	21366.46
494.82	21583.54
495.02	21384.89
495.23	21769.91
495.44	21681.85
495.64	21837.49
495.85	21759.67
496.05	22116.01
496.26	22109.87
496.47	22417.07
496.67	21915.31
496.88	22361.77
497.08	22044.34
497.29	22650.53
497.49	22331.05
497.70	22734.50
497.91	22943.39
498.11	22652.58
498.32	22763.17
498.52	22847.14
498.73	22916.77
498.93	22916.77
499.14	23191.20
499.34	23115.42
499.55	23533.21
499.76	23176.86
499.96	23303.84
500.17	23570.07
500.37	23498.39
500.58	23631.51
500.78	23692.95
500.99	23621.27
501.19	23801.49
501.40	23860.88
501.60	24262.29
501.81	23922.32
502.02	23803.54
502.22	24094.35
502.43	24211.09
502.63	24426.12
502.84	24379.02
503.04	24235.66
503.25	24311.44
503.45	24805.00
503.66	24628.87
503.86	24616.58
504.07	24880.77
504.27	24438.41
504.48	24858.24
504.68	24882.82
504.89	25093.76
505.09	25134.72
505.30	25157.25
505.50	25183.87
505.71	25304.70
505.91	25255.55
506.12	25228.93
506.32	25431.68
506.53	25220.74
506.73	25368.19
506.94	25638.52
507.14	25355.90
507.35	25345.66
507.55	25714.30
507.76	25603.71
507.96	25560.70
508.17	25759.35
508.37	25568.89
508.58	26013.30
508.78	25861.75
508.99	26287.73
509.19	26181.23
509.40	26267.25
509.60	26173.04
509.81	26429.04
510.01	26048.11
510.22	26222.19
510.42	26166.90
510.63	26508.91
510.83	26424.94
511.04	26383.98
511.24	26607.21
511.44	26668.65
511.65	26746.47
511.85	26560.11
512.06	26566.25
512.26	26756.71
512.47	27274.85
512.67	27129.44
512.88	26898.02
513.08	26601.07
513.29	27436.64
513.49	27162.21
513.69	27027.04
513.90	27068.00
514.10	27532.89
514.31	27350.62
514.51	27442.78
514.72	27166.31
514.92	27610.71
515.13	27643.48
515.33	27358.81
515.53	27403.87
515.74	27881.05
515.94	27840.09
516.15	27844.18
516.35	27676.25
516.56	28147.28
516.76	27647.58
516.96	27782.74
517.17	28294.74
517.37	28020.31
517.58	28403.28
517.78	28489.29
517.99	28165.71
518.19	28567.12
518.39	28434.00
518.60	28587.60
518.80	28450.38
519.01	28769.86
519.21	28747.34
519.41	28855.88
519.62	29130.31
519.82	28800.58
520.03	29136.45
520.23	29238.85
520.43	28956.23
520.64	29449.79
520.84	29445.69
521.05	29244.99
521.25	29492.80
521.45	29744.70
521.66	29683.26
521.86	29699.64
522.07	29761.08
522.27	29986.36
522.47	29668.92
522.68	30457.39
522.88	30238.26
523.08	30406.19
523.29	30441.01
523.49	30633.52
523.70	30916.14
523.90	30512.69
524.10	30576.17
524.31	30914.09
524.51	30570.03
524.71	31260.20
524.92	31274.53
525.12	31002.15
525.33	31163.94
525.53	31041.06
525.73	31585.82
525.94	31749.66
526.14	31327.78
526.34	31505.95
526.55	31680.03
526.75	31536.67
526.95	31929.88
527.16	31809.05
527.36	32001.56
527.56	32370.19
527.77	32192.02
527.97	32534.03
528.17	32495.12
528.38	32681.49
528.58	32781.84
528.78	32337.43
528.99	32716.30
529.19	33031.69
529.39	32429.59
529.60	33304.07
529.80	33076.74
530.00	33428.99
530.21	33244.68
530.41	33496.58
530.61	33510.91
530.82	33574.40
531.02	33949.18
531.22	34092.54
531.43	33658.37
531.63	34067.96
531.83	34399.73
532.04	34770.41
532.24	34260.47
532.44	34577.90
532.64	34778.61
532.85	34840.04
533.05	34747.89
533.25	34756.08
533.46	34809.32
533.66	35124.71
533.86	35311.08
534.07	35276.26
534.27	35302.89
534.47	35261.93
534.67	35788.25
534.88	35286.50
535.08	36031.96
535.28	35786.21
535.49	35900.89
535.69	36783.57
535.89	36074.97
536.09	36181.46
536.30	36390.36
536.50	36400.60
536.70	36781.52
536.91	36437.46
537.11	36726.22
537.31	36685.26
537.51	36847.05
537.72	37203.40
537.92	37135.82
538.12	37438.92
538.32	37135.82
538.53	37574.08
538.73	37322.18
538.93	37348.81
539.13	37379.53
539.34	37522.88
539.54	37555.65
539.74	37832.13
539.94	37772.74
540.15	37684.67
540.35	38299.06
540.55	37885.37
540.75	37998.01
540.96	38200.76
541.16	37940.67
541.36	38245.82
541.56	38100.41
541.77	38458.81
541.97	38528.44
542.17	38778.29
542.37	38622.64
542.58	38669.75
542.78	39044.52
542.98	38632.88
543.18	39062.96
543.38	39228.84
543.59	39249.32
543.79	38890.93
543.99	39138.73
544.19	39456.17
544.40	39103.92
544.60	39523.75
544.80	39372.20
545.00	39214.51
545.20	39867.81
545.41	39470.50
545.61	39568.80
545.81	39820.70
546.01	40068.51
546.21	40029.60
546.42	39511.46
546.62	39792.03
546.82	39593.38
547.02	39794.08
547.22	40136.09
547.43	40015.26
547.63	39914.91
547.83	40387.99
548.03	39699.87
548.23	40162.72
548.44	40336.79
548.64	40299.93
548.84	40514.97
549.04	40383.90
549.24	40809.87
549.45	40656.28
549.65	40449.43
549.85	40693.14
550.05	40891.79
550.25	40600.98
550.45	40951.18
550.66	40580.50
550.86	40488.34
551.06	41026.96
551.26	40920.46
551.46	41145.74
551.66	41153.93
551.87	40844.69
552.07	40957.33
552.27	40797.59
552.47	41178.51
552.67	41452.94
552.87	41299.34
553.07	41383.30
553.28	41235.85
553.48	41256.33
553.68	40785.30
553.88	41743.75
554.08	41670.02
554.28	41475.46
554.48	41211.28
554.69	41872.77
554.89	41706.88
555.09	41878.91
555.29	41514.37
555.49	41659.78
555.69	41958.78
555.89	41944.45
556.10	42276.22
556.30	41584.01
556.50	41825.67
556.70	41588.10
556.90	42061.18
557.10	42130.81
557.30	41938.30
557.50	42122.62
557.70	42509.69
557.91	42179.96
558.11	42161.53
558.31	42161.53
558.51	42274.17
558.71	42286.46
558.91	42159.48
559.11	42364.28
559.31	42319.23
559.51	42292.60
559.72	42853.75
559.92	42749.30
560.12	42491.26
560.32	42825.07
560.52	42509.69
560.72	42884.47
560.92	42685.81
561.12	42993.01
561.32	43201.90
561.52	42569.08
561.72	43292.01
561.93	42784.12
562.13	43095.41
562.33	43046.26
562.53	43584.87
562.73	43087.21
562.93	43298.16
563.13	43500.90
563.33	43005.30
563.53	43355.50
563.73	43177.33
563.93	43201.90
564.13	43808.10
564.33	43228.52
564.53	43728.23
564.74	43947.36
564.94	43611.49
565.14	43863.39
565.34	43566.44
565.54	44000.61
565.74	44201.31
565.94	44100.96
566.14	43687.27
566.34	43787.62
566.54	44281.18
566.74	43963.75
566.94	43947.36
567.14	44133.73
567.34	43691.37
567.54	44195.17
567.74	43939.17
567.94	44098.91
568.14	44475.74
568.34	44250.46
568.54	44123.49
568.74	44524.89
568.94	44602.71
569.14	44903.76
569.34	45012.31
569.54	44598.62
569.75	44524.89
569.95	44635.48
570.15	44746.07
570.35	45051.22
570.55	44952.91
570.75	44524.89
570.95	45178.19
571.15	45069.65
571.35	45370.70
571.55	45045.07
571.75	45094.22
571.95	44842.32
572.15	45331.79
572.35	45491.53
572.55	45184.33
572.75	45262.16
572.95	45835.59
573.15	45690.18
573.35	45602.12
573.55	45725.00
573.75	45423.95
573.95	46071.10
574.15	45591.88
574.35	45839.68
574.55	45804.87
574.75	45880.64
574.95	45708.61
575.15	45856.07
575.34	46122.30
575.54	46333.24
575.74	46544.19
575.94	45999.43
576.14	46236.99
576.34	46421.31
576.54	46910.77
576.74	46703.93
576.94	46257.47
577.14	47201.58
577.34	47478.06
577.54	46658.87
577.74	46724.41
577.94	46986.55
578.14	47052.08
578.34	47289.65
578.54	46800.18
578.74	46869.81
578.94	47480.11
579.14	47201.58
579.34	47404.33
579.54	47490.35
579.74	47666.47
579.94	47930.66
580.13	48131.36
580.33	47953.19
580.53	47904.04
580.73	47713.58
580.93	47863.08
581.13	48100.64
581.33	48196.90
581.53	48114.98
581.73	48340.25
581.93	48149.79
582.13	48282.91
582.33	48608.54
582.53	48067.87
582.73	48495.90
582.92	48483.61
583.12	48696.60
583.32	48426.27
583.52	48035.11
583.72	48463.13
583.92	48930.07
584.12	49192.21
584.32	49329.42
584.52	48758.04
584.72	48850.20
584.92	48891.16
585.11	49616.14
585.31	48973.08
585.51	49513.74
585.71	49190.16
585.91	49540.36
586.11	49411.34
586.31	48997.65
586.51	49628.43
586.71	49327.38
586.91	49474.83
587.10	49419.53
587.30	49618.19
587.50	49732.87
587.70	50033.92
587.90	50367.74
588.10	49771.78
588.30	50044.16
588.50	49853.70
588.69	50281.73
588.89	50003.20
589.09	50547.96
589.29	50074.88
589.49	50590.97
589.69	50081.03
589.89	50326.78
590.08	50261.25
590.28	50171.14
590.48	50210.05
590.68	50539.77
590.88	50431.23
591.08	50644.22
591.28	50173.19
591.47	51025.14
591.67	50781.43
591.87	50648.32
592.07	51250.42
592.27	51078.39
592.47	50994.42
592.67	50916.60
592.86	50208.00
593.06	50771.19
593.26	50849.02
593.46	51139.83
593.66	51029.24
593.86	51098.87
594.05	51000.57
594.25	51188.98
594.45	51205.36
594.65	51145.97
594.85	50906.36
595.05	51397.87
595.24	51565.81
595.44	50922.74
595.64	51049.72
595.84	51614.96
596.04	51717.35
596.23	51459.31
596.43	51696.88
596.63	51950.82
596.83	51477.74
597.03	51705.07
597.22	52233.44
597.42	51789.03
597.62	52090.09
597.82	51760.36
598.02	51969.26
598.21	51942.63
598.41	51721.45
598.61	51891.43
598.81	52210.92
599.01	52196.58
599.20	52114.66
599.40	52018.41
599.60	52665.56
599.80	52149.48
600.00	52163.81
600.19	52288.74
600.39	52223.20
600.59	52757.72
600.79	52253.92
600.98	52278.50
601.18	52761.82
601.38	52663.52
601.58	52681.95
601.78	53069.01
601.97	52821.21
602.17	52939.99
602.37	52851.93
602.57	52520.16
602.76	52931.80
602.96	52540.64
603.16	52909.27
603.36	52892.89
603.55	53195.99
603.75	52927.70
603.95	53525.71
604.15	52993.24
604.34	52796.63
604.54	53492.94
604.74	53241.04
604.94	53546.19
605.13	53411.02
605.33	53568.72
605.53	53138.65
605.73	53398.74
605.92	53337.30
606.12	53417.17
606.32	53591.25
606.52	53062.87
606.71	53679.31
606.91	54047.94
607.11	53273.81
607.30	54025.42
607.50	53576.91
607.70	53914.83
607.90	53730.51
608.09	54113.48
608.29	53875.91
608.49	53929.16
608.68	53423.31
608.88	54201.54
609.08	53896.39
609.28	53761.23
609.47	53662.93
609.67	54152.39
609.87	54222.02
610.06	54392.00
610.26	53892.30
610.46	54432.96
610.66	53830.86
610.85	54129.86
611.05	53744.84
611.25	54136.01
611.44	53607.63
611.64	54400.19
611.84	54093.00
612.03	53527.76
612.23	54195.40
612.43	54021.32
612.62	53955.78
612.82	54334.66
613.02	54101.19
613.21	54156.49
613.41	54166.73
613.61	53871.82
613.80	53685.45
614.00	54271.17
614.20	54510.78
614.39	54074.57
614.59	54480.06
614.79	53828.81
614.98	54248.64
615.18	54383.81
615.38	54338.75
615.57	53925.07
615.77	54723.77
615.97	54473.92
616.16	54475.97
616.36	54195.40
616.56	54889.66
616.75	54086.85
616.95	54289.60
617.15	54748.35
617.34	54492.35
617.54	54066.38
617.74	54518.98
617.93	54637.76
618.13	53988.55
618.32	54631.61
618.52	54172.87
618.72	54009.03
618.91	54355.14
619.11	54301.89
619.31	54467.78
619.50	54072.52
619.70	53978.31
619.90	54064.33
620.09	54500.54
620.29	54375.62
620.48	54287.56
620.68	54817.98
620.88	54228.16
621.07	54652.09
621.27	54248.64
621.46	53923.02
621.66	54715.58
621.86	54045.90
622.05	54727.87
622.25	54348.99
622.44	54400.19
622.64	54093.00
622.84	54430.91
623.03	54400.19
623.23	54416.58
623.42	54594.75
623.62	54557.89
623.82	54586.56
624.01	54320.32
624.21	54938.81
624.40	54279.36
624.60	54375.62
624.80	54224.07
624.99	54195.40
625.19	54344.90
625.38	54578.37
625.58	54211.78
625.77	54793.40
625.97	54324.42
626.17	54246.60
626.36	54852.80
626.56	54969.53
626.75	54275.27
626.95	55129.27
627.14	54187.21
627.34	55047.35
627.54	54285.51
627.73	54277.32
627.93	54326.47
628.12	54113.48
628.32	54615.23
628.51	54402.24
628.71	54604.99
628.90	54807.74
629.10	54879.42
629.30	55022.78
629.49	54652.09
629.69	54686.91
629.88	54615.23
630.08	54985.91
630.27	55002.30
630.47	54797.50
630.66	54809.79
630.86	55377.08
631.05	54731.96
631.25	54985.91
631.44	55323.83
631.64	54893.75
631.84	55104.70
632.03	55452.85
632.23	55311.54
632.42	55397.55
632.62	55039.16
632.81	55053.50
633.01	55127.22
633.20	55155.89
633.40	55397.55
633.59	55063.74
633.79	54744.25
633.98	55194.81
634.18	55327.92
634.37	55258.29
634.57	55248.05
634.76	55536.82
634.96	55708.85
635.15	55710.89
635.35	55444.66
635.54	55811.24
635.74	55893.16
635.93	55342.26
636.13	56044.71
636.32	55188.66
636.52	55626.93
636.71	55291.06
636.91	55489.71
637.10	55815.34
637.30	55758.00
637.49	55622.83
637.69	55268.53
637.88	56259.75
638.08	55762.09
638.27	56284.33
638.46	55776.43
638.66	55717.04
638.85	55669.93
639.05	56222.89
639.24	56276.13
639.44	55866.54
639.63	55950.51
639.83	56491.17
640.02	56063.14
640.22	56145.06
640.41	56607.90
640.61	55909.55
640.80	56013.99
640.99	56288.42
641.19	56704.16
641.38	56376.48
641.58	56181.93
641.77	56122.54
641.97	56356.00
642.16	56216.74
642.36	56452.26
642.55	56669.34
642.74	56091.82
642.94	56605.86
643.13	55887.02
643.33	56753.31
643.52	56530.08
643.72	56911.00
643.91	56356.00
644.10	56417.44
644.30	56691.87
644.49	56587.42
644.69	56884.38
644.88	56308.90
645.08	56106.15
645.27	56439.97
645.46	56759.45
645.66	57068.70
645.85	56710.30
646.05	56911.00
646.24	56812.70
646.43	56671.39
646.63	57152.66
646.82	57064.60
647.02	57255.06
647.21	57037.98
647.40	56880.28
647.60	57429.14
647.79	57267.35
647.99	57169.05
648.18	56620.19
648.37	57275.54
648.57	57128.09
648.76	57187.48
648.96	57099.42
649.15	57230.49
649.34	57703.57
649.54	57463.96
649.73	57310.36
649.92	57197.72
650.12	57250.97
650.31	57457.81
650.51	57339.03
650.70	57033.88
650.89	57521.30
651.09	57855.12
651.28	57547.92
651.47	57883.79
651.67	57967.76
651.86	58051.72
652.06	57029.79
652.25	57250.97
652.44	57662.61
652.64	57371.80
652.83	57265.30
653.02	57136.28
653.22	57558.16
653.41	57390.23
653.60	57218.20
653.80	57414.80
653.99	57570.45
654.18	57449.62
654.38	57080.98
654.57	57474.20
654.76	57324.69
654.96	57492.63
655.15	57547.92
655.34	57724.05
655.54	57365.65
655.73	57095.32
655.92	57902.22
656.12	57828.49
656.31	57891.98
656.50	57693.33
656.70	57941.13
656.89	57799.82
657.08	57615.50
657.28	57711.76
657.47	57676.94
657.66	57865.36
657.86	57369.75
658.05	58252.42
658.24	57840.78
658.43	57506.96
658.63	57996.43
658.82	57650.32
659.01	57599.12
659.21	57509.01
659.40	57461.91
659.59	57773.20
659.79	57584.79
659.98	57762.96
660.17	57896.08
660.36	57449.62
660.56	57719.95
660.75	57308.31
660.94	58217.61
661.14	57660.56
661.33	57234.58
661.52	57033.88
661.71	57816.21
661.91	57316.50
662.10	57281.69
662.29	58057.87
662.49	57742.48
662.68	57343.12
662.87	57703.57
663.06	57834.64
663.26	57226.39
663.45	57638.03
663.64	57564.31
663.83	57539.73
664.03	57840.78
664.22	57607.31
664.41	57259.16
664.60	57070.75
664.80	57334.93
664.99	56890.52
665.18	57246.87
665.37	57427.09
665.57	57533.59
665.76	57287.83
665.95	57490.58
666.14	57119.90
666.34	57271.45
666.53	57373.84
666.72	57556.11
666.91	57375.89
667.11	57404.56
667.30	57474.20
667.49	57582.74
667.68	57472.15
667.87	57009.31
668.07	57431.19
668.26	57189.53
668.45	57341.08
668.64	57128.09
668.84	57623.70
669.03	57160.86
669.22	57449.62
669.41	56906.91
669.60	57408.66
669.80	56677.54
669.99	57652.37
670.18	56605.86
670.37	57001.11
670.57	57480.34
670.76	57150.62
670.95	57062.55
671.14	56915.10
671.33	56808.61
671.53	56958.11
671.72	56734.88
671.91	57007.26
672.10	56521.89
672.29	56534.18
672.48	56384.68
672.68	56806.56
672.87	56732.83
673.06	56644.77
673.25	56745.12
673.44	56208.55
673.64	56138.92
673.83	56577.18
674.02	56413.35
674.21	56351.91
674.40	56628.38
674.59	56167.59
674.79	56446.11
674.98	56050.86
675.17	56575.14
675.36	56525.99
675.55	56599.71
675.74	56495.27
675.94	56212.65
676.13	56153.26
676.32	56239.27
676.51	56687.78
676.70	56808.61
676.89	55876.78
677.08	56601.76
677.28	56235.17
677.47	57087.13
677.66	56710.30
677.85	56030.38
678.04	56349.86
678.23	56294.56
678.42	56386.72
678.62	56294.56
678.81	56513.70
679.00	56235.17
679.19	56829.08
679.38	56001.71
679.57	56102.06
679.76	56317.09
679.96	56482.98
680.15	55899.31
680.34	56237.22
680.53	56011.95
680.72	56153.26
680.91	56112.30
681.10	55987.37
681.29	55956.65
681.48	55436.47
681.68	55612.59
681.87	56165.54
682.06	55817.39
682.25	55682.22
682.44	55860.40
682.63	55694.51
682.82	55315.64
683.01	55461.04
683.20	55434.42
683.39	55889.07
683.59	55534.77
683.78	55508.14
683.97	55272.63
684.16	55514.29
684.35	55153.85
684.54	55438.51
684.73	55303.35
684.92	55092.41
685.11	55110.84
685.30	55039.16
685.49	55557.30
685.69	54944.95
685.88	55110.84
686.07	55012.54
686.26	55172.28
686.45	54985.91
686.64	55456.95
686.83	55098.55
687.02	55061.69
687.21	55540.91
687.40	55389.36
687.59	54629.57
687.78	55112.89
687.97	55477.43
688.16	54981.82
688.35	55155.89
688.54	54865.08
688.74	54955.19
688.93	54764.73
689.12	55313.59
689.31	55086.26
689.50	55362.74
689.69	54324.42
689.88	54359.23
690.07	54766.78
690.26	54441.15
690.45	55329.97
690.64	54865.08
690.83	54772.92
691.02	54695.10
691.21	54596.80
691.40	54613.18
691.59	54478.02
691.78	54215.88
691.97	55049.40
692.16	54637.76
692.35	55305.40
692.54	54875.32
692.73	54953.15
692.92	54598.85
693.11	54449.35
693.30	54787.26
693.49	54752.44
693.68	54496.45
693.87	54564.03
694.06	54598.85
694.25	54246.60
694.44	54539.46
694.63	54097.09
694.82	54754.49
695.01	54582.46
695.20	54287.56
695.39	54113.48
695.58	54338.75
695.77	54326.47
695.96	54183.11
696.15	54482.11
696.34	54553.79
696.53	54060.23
696.72	53982.41
696.91	54115.53
697.10	54209.73
697.29	53943.50
697.48	54451.39
697.67	54138.05
697.86	54097.09
698.05	54197.44
698.24	54078.66
698.43	53814.47
698.62	54551.74
698.81	53611.73
699.00	54318.28
699.19	54052.04
699.38	53728.46
699.57	53630.16
699.76	54320.32
699.95	53656.78
700.14	53744.84
700.32	53630.16
700.51	53718.22
700.70	54037.70
700.89	54033.61
701.08	54033.61
701.27	53650.64
701.46	53904.59
701.65	53189.84
701.84	53785.80
702.03	53726.41
702.22	53159.12
702.41	53505.23
702.60	53769.42
702.79	54025.42
702.98	53511.38
703.17	53601.49
703.35	53558.48
703.54	53548.24
703.73	53468.37
703.92	53742.80
704.11	53572.81
704.30	53535.95
704.49	53318.87
704.68	53490.90
704.87	53482.70
705.06	53089.49
705.25	53279.96
705.43	53648.59
705.62	53775.56
705.81	53515.47
706.00	53509.33
706.19	53007.58
706.38	52976.86
706.57	53542.10
706.76	53050.58
706.95	53560.53
707.14	53355.73
707.32	53163.22
707.51	53335.25
707.70	53144.79
707.89	53263.57
708.08	53038.29
708.27	53357.78
708.46	53757.13
708.65	52843.74
708.84	53449.94
709.02	53261.52
709.21	53058.77
709.40	53380.31
709.59	53167.32
709.78	52884.70
709.97	53515.47
710.16	53136.60
710.34	53480.66
710.53	52858.07
710.72	52847.83
710.91	52681.95
711.10	52987.10
711.29	53044.44
711.48	53019.86
711.66	52503.77
711.85	52696.28
712.04	52724.96
712.23	52782.30
712.42	52784.35
712.61	52878.55
712.80	52913.37
712.98	53081.30
713.17	52325.60
713.36	52753.63
713.55	52894.94
713.74	52516.06
713.93	52733.15
714.11	53034.20
714.30	52112.61
714.49	52366.56
714.68	52774.11
714.87	52843.74
715.06	52999.38
715.24	52690.14
715.43	52090.09
715.62	52354.27
715.81	52575.45
716.00	52282.59
716.18	52002.02
716.37	52032.74
716.56	51967.21
716.75	52346.08
716.94	52161.76
717.12	51813.61
717.31	52118.76
717.50	51827.95
717.69	51956.97
717.88	52204.77
718.06	51924.20
718.25	52417.76
718.44	52081.89
718.63	52036.84
718.82	51379.44
719.00	51768.55
719.19	51803.37
719.38	51817.71
719.57	51375.34
719.76	51471.60
719.94	51119.35
720.13	51449.07
720.32	51592.43
720.51	51584.24
720.69	51778.79
720.88	51229.94
721.07	51369.20
721.26	51057.91
721.44	50877.69
721.63	51332.34
721.82	50783.48
722.01	51107.06
722.20	50787.58
722.38	51154.16
722.57	50537.72
722.76	51035.38
722.95	50992.37
723.13	50574.59
723.32	50494.72
723.51	50357.50
723.70	50117.89
723.88	50537.72
724.07	50257.15
724.26	50210.05
724.44	49876.23
724.63	50093.32
724.82	50472.19
725.01	50400.51
725.19	49820.94
725.38	49884.42
725.57	49863.94
725.76	49767.69
725.94	50058.50
726.13	49962.25
726.32	49601.80
726.51	49493.26
726.69	50570.49
726.88	50126.08
727.07	50205.95
727.25	49743.11
727.44	50011.40
727.63	49564.94
727.82	49782.02
728.00	50246.91
728.19	49583.37
728.38	50484.48
728.56	49530.12
728.75	50144.51
728.94	49337.62
729.12	49648.91
729.31	49589.52
729.50	49982.73
729.69	49966.34
729.87	49622.28
730.06	49954.05
730.25	49528.08
730.43	50238.72
730.62	49495.31
730.81	49976.58
730.99	49691.91
731.18	49501.45
731.37	49685.77
731.55	49640.71
731.74	50046.21
731.93	49859.85
732.11	49872.14
732.30	49937.67
732.49	49313.04
732.67	49739.02
732.86	49739.02
733.05	49526.03
733.23	49386.77
733.42	49497.36
733.61	49106.19
733.79	49302.80
733.98	49734.92
734.17	49300.75
734.35	49411.34
734.54	49526.03
734.73	49634.57
734.91	49480.97
735.10	49124.63
735.29	49489.16
735.47	48764.18
735.66	49341.71
735.84	49388.81
736.03	48692.50
736.22	49345.81
736.40	48723.22
736.59	49126.67
736.78	49141.01
736.96	48962.84
737.15	48772.38
737.33	48995.60
737.52	48702.74
737.71	48827.67
737.89	49067.28
738.08	48305.44
738.27	48874.77
738.45	49282.32
738.64	48772.38
738.82	49026.32
739.01	48606.49
739.20	48299.30
739.38	48551.20
739.57	48887.06
739.75	48252.19
739.94	48377.12
740.13	48553.24
740.31	48295.20
740.50	48772.38
740.68	48289.06
740.87	48436.51
741.06	48461.08
741.24	48241.95
741.43	48039.20
741.61	48135.46
741.80	48045.35
741.99	48059.68
742.17	48092.45
742.36	47779.11
742.54	47803.69
742.73	47768.87
742.91	48373.02
743.10	47519.02
743.29	48325.92
743.47	47963.43
743.66	47963.43
743.84	47738.15
744.03	48006.44
744.21	47766.82
744.40	47908.13
744.59	47383.85
744.77	47494.44
744.96	47533.35
745.14	47936.80
745.33	47074.61
745.51	47088.95
745.70	47273.26
745.88	47252.78
746.07	47580.46
746.26	46996.79
746.44	46738.74
746.63	46900.53
746.81	47287.60
747.00	46781.75
747.18	46775.61
747.37	46773.56
747.55	46929.20
747.74	47414.57
747.92	46777.65
748.11	46517.56
748.29	46720.31
748.48	46671.16
748.66	46368.06
748.85	46605.62
749.03	46705.98
749.22	46710.07
749.41	46388.54
749.59	46544.19
749.78	46470.46
749.96	46175.55
750.15	46533.95
750.33	46601.53
750.52	46550.33
750.70	46271.81
750.89	46126.40
751.07	45737.29
751.26	45976.90
751.44	45931.84
751.63	46120.26
751.81	45585.74
752.00	45524.30
752.18	45503.82
752.37	45708.61
752.55	45356.36
752.74	45653.32
752.92	45866.31
753.10	45540.68
753.29	45471.05
753.47	45942.08
753.66	45573.45
753.84	45565.26
754.03	45335.88
754.21	45083.98
754.40	45712.71
754.58	45450.57
754.77	45110.61
754.95	44711.25
755.14	45399.37
755.32	45243.73
755.51	44643.67
755.69	44916.05
755.88	44922.19
756.06	45120.85
756.24	44535.13
756.43	44940.63
756.61	44793.17
756.80	44283.23
756.98	44438.87
757.17	44684.63
757.35	44567.90
757.54	44060.00
757.72	44244.32
757.90	44143.97
758.09	44445.02
758.27	44189.02
758.46	44447.07
758.64	44176.73
758.83	44766.55
759.01	43980.13
759.19	43840.87
759.38	43875.68
759.56	43967.84
759.75	43853.15
759.93	43896.16
760.12	43871.59
760.30	44031.33
760.48	44176.73
760.67	43906.40
760.85	43246.96
761.04	43662.69
761.22	43433.32
761.40	43576.68
761.59	43924.83
761.77	43533.67
761.96	43486.57
762.14	42995.06
762.32	43427.18
762.51	43068.78
762.69	43259.24
762.88	43095.41
763.06	43441.51
763.24	43246.96
763.43	43287.92
763.61	42866.03
763.80	42841.46
763.98	42601.85
764.16	42698.10
764.35	42794.36
764.53	42124.67
764.72	42397.05
764.90	42945.90
765.08	42655.09
765.27	42638.71
765.45	41969.02
765.63	41919.87
765.82	42710.39
766.00	42102.14
766.18	42071.42
766.37	42726.77
766.55	41821.57
766.74	41782.66
766.92	42161.53
767.10	42052.99
767.29	41772.42
767.47	41622.92
767.65	42161.53
767.84	41686.40
768.02	41874.82
768.20	41387.40
768.39	41854.34
768.57	41624.96
768.75	41315.72
768.94	41645.44
769.12	41536.90
769.30	41313.67
769.49	41426.31
769.67	41465.22
769.85	41334.15
770.04	41489.80
770.22	41057.68
770.40	40957.33
770.59	40934.80
770.77	41229.71
770.95	40912.27
771.14	40506.77
771.32	40431.00
771.50	40453.53
771.69	40836.50
771.87	41006.48
772.05	40750.48
772.24	40392.09
772.42	40514.97
772.60	40652.18
772.78	40424.86
772.97	40230.30
773.15	40738.19
773.33	40809.87
773.52	40256.92
773.70	40342.94
773.88	40498.58
774.07	40322.46
774.25	40027.55
774.43	40807.83
774.61	40218.01
774.80	40961.42
774.98	39998.88
775.16	40238.49
775.34	40381.85
775.53	40363.42
775.71	40353.18
775.89	40476.05
776.08	40506.77
776.26	40549.78
776.44	40113.56
776.62	40066.46
776.81	40150.43
776.99	40574.36
777.17	40517.01
777.35	40572.31
777.54	40422.81
777.72	40269.21
777.90	40449.43
778.08	40736.15
778.27	40557.97
778.45	40656.28
778.63	40459.67
778.81	40396.18
779.00	40998.29
779.18	40709.52
779.36	40932.75
779.54	40781.20
779.73	40830.35
779.91	41096.59
780.09	40971.66
780.27	40902.03
780.46	40734.10
780.64	41379.21
780.82	40576.40
781.00	40400.28
781.19	41186.70
781.37	41307.53
781.55	41018.77
781.73	41702.79
781.91	41004.43
782.10	41381.26
782.28	40926.61
782.46	41375.11
782.64	41328.01
782.82	41166.22
783.01	41260.43
783.19	41362.82
783.37	41485.70
783.55	41305.48
783.74	41381.26
783.92	41149.84
784.10	41815.43
784.28	41051.53
784.46	41295.24
784.64	41037.20
784.83	41194.89
785.01	41549.19
785.19	41588.10
785.37	41293.19
785.55	40961.42
785.74	40965.52
785.92	41096.59
786.10	41215.37
786.28	41303.43
786.46	40805.78
786.64	40891.79
786.83	41041.29
787.01	41076.11
787.19	41196.94
787.37	41063.82
787.55	40889.74
787.74	40420.76
787.92	40846.74
788.10	40852.88
788.28	40684.95
788.46	40648.08
788.64	40521.11
788.82	40584.60
789.01	40580.50
789.19	40830.35
789.37	40164.76
789.55	40191.39
789.73	40142.24
789.91	40060.32
790.09	40160.67
790.28	39978.40
790.46	40072.60
790.64	40482.20
790.82	40408.47
791.00	39959.97
791.18	39990.69
791.36	39884.19
791.55	40234.39
791.73	39767.46
791.91	39712.16
792.09	40111.52
792.27	39781.79
792.45	39810.46
792.63	39589.28
792.81	39630.24
793.00	39400.87
793.18	39470.50
793.36	39232.94
793.54	39345.58
793.72	38929.84
793.90	39153.07
794.08	38729.14
794.26	39323.05
794.44	38573.49
794.62	38622.64
794.81	38591.92
794.99	38755.76
795.17	38610.35
795.35	38489.52
795.53	38962.61
795.71	38374.84
795.89	38239.67
796.07	38249.91
796.25	37707.20
796.43	38266.30
796.61	37860.80
796.80	37934.53
796.98	37793.22
797.16	37668.29
797.34	37801.41
797.52	37639.62
797.70	37590.47
797.88	37481.92
798.06	37236.17
798.24	37395.91
798.42	37625.28
798.60	37127.63
798.78	37017.04
798.96	37156.30
799.14	37115.34
799.32	37060.04
799.51	36713.94
799.69	37043.66
799.87	36888.01
800.05	36906.44
800.23	36763.09
800.41	36445.65
800.59	36269.53
800.77	36216.28
800.95	36095.45
801.13	36273.62
801.31	36167.13
801.49	36384.21
801.67	36173.27
801.85	35868.12
802.03	35950.04
802.21	35509.73
802.39	35569.12
802.57	36034.01
802.75	35436.00
802.93	35337.70
803.11	35345.89
803.29	35313.13
803.47	35096.04
803.65	35403.24
803.83	35102.18
804.01	35069.42
804.19	34571.76
804.37	34706.93
804.55	34932.20
804.73	34874.86
804.91	34733.55
805.09	34684.40
805.27	34786.80
805.45	34915.82
805.63	34801.13
805.81	34682.35
805.99	34797.04
806.17	34563.57
806.35	34715.12
806.53	33951.23
806.71	34846.19
806.89	33803.77
807.07	34543.09
807.25	34248.18
807.43	33992.19
807.61	34086.39
807.79	34258.42
807.97	33852.92
808.15	33420.80
808.33	33656.32
808.51	33273.35
808.69	33652.22
808.87	33207.81
809.05	33095.18
809.23	33287.68
809.41	33283.59
809.59	33607.17
809.77	33412.61
809.95	32966.15
810.13	33011.21
810.31	33144.33
810.49	33216.01
810.67	32792.08
810.84	33084.94
811.02	32570.90
811.20	32472.59
811.38	32681.49
811.56	32781.84
811.74	32673.29
811.92	32183.83
812.10	32349.71
812.28	32478.74
812.46	32525.84
812.64	32585.23
812.82	32249.36
813.00	32370.19
813.18	32738.83
813.36	32034.33
813.53	31864.35
813.71	32296.47
813.89	31487.52
814.07	32224.79
814.25	31473.18
814.43	31731.23
814.61	31651.36
814.79	31346.21
814.97	31772.19
815.15	31589.92
815.33	31284.77
815.50	31315.49
815.68	31252.00
815.86	31503.90
816.04	31538.72
816.22	31340.07
816.40	31442.46
816.58	31333.92
816.76	30912.04
816.94	30873.13
817.11	31100.45
817.29	30850.60
817.47	31045.16
817.65	30858.79
817.83	31096.36
818.01	30582.32
818.19	30342.70
818.37	30504.49
818.54	30582.32
818.72	30547.50
818.90	30723.63
819.08	30402.10
819.26	30639.66
819.44	30404.14
819.62	30463.54
819.80	30418.48
819.97	30522.93
820.15	30096.95
820.33	30162.48
820.51	29967.93
820.69	29935.16
820.87	30363.18
821.05	30215.73
821.22	30604.84
821.40	30242.35
821.58	29886.01
821.76	29496.89
821.94	29816.38
822.12	29953.59
822.29	29951.54
822.47	29406.78
822.65	29896.25
822.83	29482.56
823.01	29685.31
823.19	29474.37
823.36	29333.06
823.54	29298.24
823.72	29324.86
823.90	28911.17
824.08	28911.17
824.25	29206.08
824.43	29029.96
824.61	29118.02
824.79	29449.79
824.97	29072.96
825.15	29138.50
825.32	29138.50
825.50	28991.05
825.68	28945.99
825.86	29257.28
826.04	29050.44
826.21	28741.19
826.39	28776.01
826.57	28638.80
826.75	28593.74
826.93	28323.41
827.10	28407.37
827.28	28681.80
827.46	29083.20
827.64	28436.05
827.81	28634.70
827.99	28505.68
828.17	28243.54
828.35	28200.53
828.53	28327.50
828.70	28173.91
828.88	28292.69
829.06	28175.95
829.24	28231.25
829.41	27915.86
829.59	28223.06
829.77	28141.14
829.95	28046.93
830.12	27962.97
830.30	27893.33
830.48	28001.88
830.66	27831.90
830.84	27868.76
831.01	27489.88
831.19	27881.05
831.37	27246.18
831.55	27846.23
831.72	27709.02
831.90	27428.45
832.08	27551.32
832.25	27534.94
832.43	27524.70
832.61	27459.16
832.79	27104.87
832.96	27104.87
833.14	27512.41
833.32	27426.40
833.50	27256.42
833.67	27285.09
833.85	27076.19
834.03	26840.68
834.20	27307.62
834.38	27014.76
834.56	26984.04
834.74	26930.79
834.91	27014.76
835.09	26639.98
835.27	26709.61
835.44	26838.63
835.62	26619.50
835.80	26529.39
835.98	26582.63
836.15	26746.47
836.33	26809.96
836.51	26865.25
836.68	26435.18
836.86	26558.06
837.04	26476.14
837.21	26510.96
837.39	26220.14
837.57	26519.15
837.75	26072.69
837.92	26015.35
838.10	26068.59
838.28	25790.07
838.45	26089.07
838.63	25718.39
838.81	25837.17
838.98	25841.27
839.16	25904.76
839.34	25982.58
839.51	25869.94
839.69	25622.14
839.87	25523.83
840.04	25702.01
840.22	25734.78
840.40	25804.41
840.57	25605.75
840.75	25775.73
840.93	25458.30
841.10	25828.98
841.28	25886.32
841.46	25640.57
841.63	25654.90
841.81	25667.19
841.98	25615.99
842.16	25458.30
842.34	25613.95
842.51	25222.78
842.69	25370.24
842.87	25290.37
843.04	25532.03
843.22	25075.33
843.40	25044.61
843.57	25286.27
843.75	25052.80
843.92	25341.57
844.10	25050.75
844.28	25161.34
844.45	25196.16
844.63	24796.81
844.81	25075.33
844.98	24833.67
845.16	24843.91
845.33	24766.09
845.51	24831.62
845.69	24979.07
845.86	24544.91
846.04	24764.04
846.21	24614.54
846.39	24878.72
846.57	24587.91
846.74	24393.36
846.92	24446.60
847.09	24284.81
847.27	24278.67
847.45	24354.44
847.62	24338.06
847.80	24088.21
847.97	23977.62
848.15	24290.96
848.32	24041.11
848.50	24376.97
848.68	23660.18
848.85	23936.66
849.03	23797.40
849.20	23912.08
849.38	23695.00
849.56	23938.71
849.73	24053.39
849.91	23826.07
850.08	23776.92
850.26	23733.91
850.43	23889.56
850.61	23631.51
850.78	23520.92
850.96	23594.65
851.14	23506.59
851.31	23754.39
851.49	23588.50
851.66	23668.37
851.84	23492.25
852.01	23670.42
852.19	23469.72
852.36	23053.98
852.54	23324.32
852.71	23422.62
852.89	23238.30
853.07	23256.73
853.24	23199.39
853.42	23119.52
853.59	23086.75
853.77	23117.47
853.94	23187.10
854.12	23115.42
854.29	22759.08
854.47	23164.57
854.64	22943.39
854.82	22898.34
854.99	22781.60
855.17	22927.01
855.34	22881.95
855.52	22929.06
855.69	22992.55
855.87	22722.21
856.04	22544.04
856.22	22718.12
856.39	22564.52
856.57	22515.37
856.74	22517.42
856.92	22912.67
857.09	22404.78
857.27	22279.85
857.44	22484.65
857.62	22554.28
857.79	22212.27
857.97	22570.66
858.14	22077.10
858.32	22372.01
858.49	22001.33
858.67	22136.49
858.84	22085.30
859.02	22116.01
859.19	22085.30
859.37	21796.53
859.54	22040.24
859.72	22036.14
859.89	21892.79
860.06	21907.12
860.24	21737.14
860.41	21948.08
860.59	21567.16
860.76	21733.04
860.94	21407.42
861.11	21921.46
861.29	21495.48
861.46	21741.24
861.64	21536.44
861.81	21452.47
861.98	21630.65
862.16	21554.87
862.33	21075.65
862.51	21188.28
862.68	21487.29
862.86	21436.09
863.03	21071.55
863.21	21130.94
863.38	21259.96
863.55	21266.11
863.73	21206.72
863.90	21120.70
864.08	21169.85
864.25	21006.02
864.43	21264.06
864.60	21157.57
864.77	20815.55
864.95	20891.33
865.12	20516.55
865.30	20889.28
865.47	20985.54
865.64	20909.76
865.82	20842.18
865.99	20678.34
866.17	20563.65
866.34	20735.68
866.51	20600.52
866.69	20504.26
866.86	20956.86
867.04	20426.44
867.21	20383.43
867.38	20494.02
867.56	20416.20
867.73	20440.78
867.91	20254.41
868.08	20272.84
868.25	20199.12
868.43	20213.45
868.60	20012.75
868.78	20006.61
868.95	20502.22
869.12	20158.16
869.30	19941.07
869.47	20119.24
869.64	19986.13
869.82	20053.71
869.99	19750.61
870.16	19803.86
870.34	19992.27
870.51	19979.98
870.69	19584.73
870.86	19846.87
871.03	19734.23
871.21	19523.29
871.38	19879.63
871.55	19418.84
871.73	19398.36
871.90	19242.71
872.07	19255.00
872.25	19191.52
872.42	19341.02
872.59	19097.31
872.77	19050.21
872.94	19074.78
873.11	19248.86
873.29	19037.92
873.46	18847.46
873.63	18970.33
873.81	19058.40
873.98	18822.88
874.15	19152.60
874.33	18849.50
874.50	18683.62
874.67	18867.94
874.85	18548.45
875.02	18624.23
875.19	18718.43
875.37	18566.88
875.54	18618.08
875.71	18456.29
875.88	18446.05
876.06	18224.87
876.23	18444.01
876.40	18208.49
876.58	18188.01
876.75	18484.97
876.92	18333.42
877.10	18280.17
877.27	18169.58
877.44	18085.61
877.61	18044.65
877.79	17796.85
877.96	17827.57
878.13	17864.43
878.31	17913.58
878.48	17813.23
878.65	17972.97
878.82	17815.28
879.00	17723.12
879.17	17956.59
879.34	17952.49
879.51	17567.48
879.69	17669.87
879.86	17276.66
880.03	17557.24
880.21	17434.36
880.38	17430.26
880.55	17338.10
880.72	17411.83
880.90	17258.23
881.07	17555.19
881.24	17424.12
881.41	17393.40
881.59	17336.06
881.76	17360.63
881.93	17184.51
882.10	17037.05
882.28	17073.92
882.45	17229.56
882.62	17336.06
882.79	17092.35
882.96	16905.98
883.14	17417.97
883.31	17121.02
883.48	16924.41
883.65	16979.71
883.83	16989.95
884.00	17252.09
884.17	16871.17
884.34	16946.94
884.51	17164.03
884.69	16697.09
884.86	16838.40
885.03	16858.88
885.20	16477.96
885.38	16688.90
885.55	16733.95
885.72	16779.01
885.89	16678.66
886.06	16701.19
886.24	16537.35
886.41	16439.05
886.58	16828.16
886.75	16805.63
886.92	16629.51
887.10	16629.51
887.27	16459.52
887.44	16647.94
887.61	16422.66
887.78	16473.86
887.95	16295.69
888.13	16191.24
888.30	16451.33
888.47	16291.59
888.64	16201.48
888.81	16582.40
888.99	16125.71
889.16	16226.06
889.33	16252.68
889.50	16011.02
889.67	15990.54
889.84	16041.74
890.01	16113.42
890.19	16107.27
890.36	15982.35
890.53	15984.40
890.70	15965.96
890.87	16060.17
891.04	15767.31
891.22	15812.37
891.39	15505.17
891.56	15595.28
891.73	15648.53
891.90	15656.72
892.07	15562.51
892.24	15568.66
892.42	15445.78
892.59	15677.20
892.76	15410.96
892.93	15634.19
893.10	15800.08
893.27	15664.91
893.44	15531.80
893.61	15453.97
893.79	15808.27
893.96	15462.16
894.13	15232.79
894.30	15347.48
894.47	15142.68
894.64	15476.50
894.81	15296.28
894.98	15421.20
895.15	15300.37
895.33	15249.18
895.50	15281.94
895.67	15609.62
895.84	15384.34
896.01	15288.09
896.18	15288.09
896.35	15232.79
896.52	15214.36
896.69	15343.38
896.86	15277.85
897.04	15353.62
897.21	15163.16
897.38	15124.25
897.55	15056.67
897.72	15474.45
897.89	15365.91
898.06	15320.85
898.23	15214.36
898.40	15222.55
898.57	15218.46
898.74	15103.77
898.91	15304.47
899.08	15279.89
899.26	15130.39
899.43	15191.83
899.60	15032.09
899.77	15025.95
899.94	15025.95
900.11	15011.61
900.28	15226.65
900.45	14939.93
900.62	14888.73
900.79	15222.55
900.96	14950.17
901.13	15140.63
901.30	14958.36
901.47	14958.36
901.64	15140.63
901.81	15236.89
901.98	15234.84
902.15	15167.26
902.32	14921.50
902.49	14982.94
902.66	14855.97
902.83	14915.36
903.01	15042.33
903.18	15023.90
903.35	15034.14
903.52	14888.73
903.69	15042.33
903.86	15157.02
904.03	15015.71
904.20	15163.16
904.37	15087.39
904.54	14993.18
904.71	15087.39
904.88	15021.85
905.05	15130.39
905.22	15226.65
905.39	15009.56
905.56	14993.18
905.73	15111.96
905.90	14968.60
906.07	14886.68
906.24	14966.56
906.41	14851.87
906.58	15064.86
906.75	15044.38
906.92	15007.52
907.09	14876.44
907.26	14917.40
907.43	14800.67
907.60	15144.73
907.77	14917.40
907.93	15009.56
908.10	14917.40
908.27	15054.62
908.44	14841.63
908.61	14853.92
908.78	14911.26
908.95	14903.07
909.12	14989.08
909.29	14800.67
909.46	14645.02
909.63	15030.04
909.80	14749.47
909.97	15144.73
910.14	14585.63
910.31	14800.67
910.48	14868.25
910.65	14923.55
910.82	14675.74
910.99	14649.12
911.16	14663.46
911.33	14868.25
911.50	14827.29
911.66	14536.48
911.83	14538.53
912.00	14493.47
912.17	14659.36
912.34	14278.44
912.51	14440.23
912.68	14464.80
912.85	14415.65
913.02	14542.63
913.19	14413.60
913.36	14528.29
913.53	14583.59
913.70	14190.38
913.86	14702.37
914.03	14260.01
914.20	14235.43
914.37	14372.64
914.54	14100.26
914.71	14309.16
914.88	14397.22
915.05	14190.38
915.22	14313.25
915.39	14094.12
915.55	14100.26
915.72	14165.80
915.89	14190.38
916.06	13893.42
916.23	13997.87
916.40	13997.87
916.57	13690.67
916.74	13854.51
916.91	13698.86
917.07	13745.97
917.24	13614.90
917.41	13686.58
917.58	13799.21
917.75	13885.23
917.92	13569.84
918.09	13670.19
918.26	13639.47
918.42	13655.86
918.59	13711.15
918.76	13328.18
918.93	13578.03
919.10	13381.43
919.27	13494.07
919.44	13414.20
919.60	13567.79
919.77	13516.59
919.94	13270.84
920.11	13254.45
920.28	13236.02
920.45	13111.10
920.61	12963.64
920.78	13135.67
920.95	13193.01
921.12	12986.17
921.29	12889.92
921.46	12848.96
921.62	12853.05
921.79	12949.31
921.96	12625.73
922.13	12760.89
922.30	12554.05
922.47	12773.18
922.63	12740.41
922.80	12760.89
922.97	12515.14
923.14	12459.84
923.31	12554.05
923.47	12427.07
923.64	12724.03
923.81	12312.39
923.98	12422.98
924.15	12250.95
924.32	12060.49
924.48	12123.98
924.65	12326.72
924.82	12169.03
924.99	11960.14
925.15	12054.34
925.32	12310.34
925.49	11894.60
925.66	11925.32
925.83	11829.07
925.99	11761.48
926.16	11978.57
926.33	11720.53
926.50	11693.90
926.67	11837.26
926.83	11536.21
927.00	11362.13
927.17	11380.56
927.34	11415.38
927.50	11448.15
927.67	11523.92
927.84	11200.34
928.01	11386.71
928.17	11401.04
928.34	11413.33
928.51	11259.73
928.68	11087.70
928.84	11140.95
929.01	10772.32
929.18	10907.48
929.35	10856.28
929.51	10839.90
929.68	10751.84
929.85	10891.10
930.02	10741.60
930.18	10745.69
930.35	10803.04
930.52	10475.36
930.69	10688.35
930.85	10407.78
931.02	10530.66
931.19	10510.18
931.36	10323.81
931.52	10534.75
931.69	10303.33
931.86	10487.65
932.02	10358.63
932.19	10096.49
932.36	10078.05
932.53	10213.22
932.69	10094.44
932.86	10057.57
933.03	9912.17
933.19	9828.20
933.36	9920.36
933.53	10110.82
933.70	9799.53
933.86	9838.44
934.03	9756.52
934.20	9580.40
934.36	9695.08
934.53	9467.76
934.70	9291.63
934.86	9242.48
935.03	9246.58
935.20	9342.83
935.36	9228.15
935.53	9097.08
935.70	9029.49
935.86	9133.94
936.03	8867.70
936.20	8777.59
936.36	8773.50
936.53	8839.03
936.70	8673.15
936.86	8871.80
937.03	8560.51
937.20	8267.65
937.36	8443.78
937.53	8204.16
937.70	8038.28
937.86	8087.43
938.03	7972.74
938.20	8048.52
938.36	7765.90
938.53	7724.94
938.70	7690.12
938.86	7606.16
939.03	7497.61
939.20	7405.46
939.36	7483.28
939.53	7329.68
939.70	7548.81
939.86	7155.60
940.03	6995.86
940.19	6883.22
940.36	6950.81
940.53	6893.46
940.69	6760.34
940.86	6774.68
941.03	6494.11
941.19	6342.56
941.36	6688.67
941.52	6485.92
941.69	6438.81
941.86	6483.87
942.02	6317.98
942.19	6248.35
942.35	6395.81
942.52	6107.04
942.69	6074.28
942.85	5935.01
943.02	5984.16
943.18	5951.40
943.35	5924.77
943.52	6023.08
943.68	5779.37
943.85	5795.75
944.01	5779.37
944.18	5640.11
944.35	5805.99
944.51	5732.26
944.68	5380.01
944.84	5406.64
945.01	5642.15
945.17	5654.44
945.34	5513.13
945.51	5496.75
945.67	5459.88
945.84	5468.08
946.00	5369.77
946.17	5435.31
946.33	5365.68
946.50	5564.33
946.67	5439.40
946.83	5337.01
947.00	5519.28
947.16	5396.40
947.33	5371.82
947.49	5466.03
947.66	5345.20
947.82	5410.73
947.99	5420.97
948.16	5521.32
948.32	5431.21
948.49	5490.60
948.65	5523.37
948.82	5390.25
948.98	5330.86
949.15	5377.97
949.31	5445.55
949.48	5320.62
949.64	5384.11
949.81	5353.39
949.97	5408.69
950.14	5410.73
950.30	5310.38
950.47	5316.53
950.63	5466.03
950.80	5437.36
950.96	5525.42
951.13	5445.55
951.30	5398.45
951.46	5543.85
951.63	5513.13
951.79	5384.11
951.96	5578.67
952.12	5511.08
952.29	5504.94
952.45	5496.75
952.62	5480.36
952.78	5386.16
952.94	5468.08
953.11	5492.65
953.27	5416.88
953.44	5603.24
953.60	5506.99
953.77	5539.76
953.93	5607.34
954.10	5597.10
954.26	5466.03
954.43	5593.00
954.59	5562.28
954.76	5664.68
954.92	5435.31
955.09	5537.71
955.25	5468.08
955.42	5636.01
955.58	5588.91
955.75	5640.11
955.91	5515.18
956.07	5550.00
956.24	5568.43
956.40	5767.08
956.57	5658.54
956.73	5627.82
956.90	5470.12
957.06	5517.23
957.23	5533.61
957.39	5500.84
957.56	5564.33
957.72	5554.09
957.88	5586.86
958.05	5672.87
958.21	5734.31
958.38	5617.58
958.54	5676.97
958.71	5726.12
958.87	5498.80
959.03	5500.84
959.20	5611.43
959.36	5621.67
959.53	5533.61
959.69	5574.57
959.85	5558.19
960.02	5449.64
960.18	5638.06
960.35	5556.14
960.51	5732.26
960.68	5566.38
960.84	5517.23
961.00	5414.83
961.17	5457.84
961.33	5535.66
961.50	5537.71
961.66	5562.28
961.82	5480.36
961.99	5695.40
962.15	5482.41
962.31	5550.00
962.48	5697.45
962.64	5412.78
962.81	5554.09
962.97	5566.38
963.13	5523.37
963.30	5492.65
963.46	5486.51
963.62	5515.18
963.79	5576.62
963.95	5588.91
964.12	5513.13
964.28	5572.52
964.44	5334.96
964.61	5566.38
964.77	5470.12
964.93	5605.29
965.10	5535.66
965.26	5466.03
965.42	5449.64
965.59	5541.80
965.75	5406.64
965.92	5590.95
966.08	5420.97
966.24	5330.86
966.41	5476.27
966.57	5433.26
966.73	5310.38
966.90	5437.36
967.06	5449.64
967.22	5357.49
967.39	5478.32
967.55	5312.43
967.71	5337.01
967.88	5343.15
968.04	5238.70
968.20	5420.97
968.37	5250.99
968.53	5294.00
968.69	5408.69
968.85	5281.71
969.02	5216.18
969.18	5312.43
969.34	5191.60
969.51	5371.82
969.67	5154.74
969.83	5081.01
970.00	5425.07
970.16	5183.41
970.32	5167.03
970.48	5322.67
970.65	5054.39
970.81	5142.45
970.97	5210.03
971.14	5169.07
971.30	5269.42
971.46	5074.87
971.63	5054.39
971.79	5246.90
971.95	5103.54
972.11	5078.96
972.28	5103.54
972.44	5126.07
972.60	5074.87
972.76	5107.63
972.93	5093.30
973.09	4997.04
973.25	5013.43
973.42	5046.20
973.58	5060.53
973.74	4874.17
973.90	4999.09
974.07	5003.19
974.23	5052.34
974.39	4937.65
974.55	4962.23
974.72	4886.45
974.88	4759.48
975.04	4841.40
975.20	4966.32
975.37	4923.32
975.53	4896.69
975.69	4837.30
975.85	4771.77
976.01	4874.17
976.18	4863.93
976.34	4915.12
976.50	4990.90
976.66	4833.21
976.83	4820.92
976.99	4884.41
977.15	4773.82
977.31	4782.01
977.47	4800.44
977.64	4779.96
977.80	4804.53
977.96	4792.25
978.12	4732.86
978.29	4720.57
978.45	4683.70
978.61	4716.47
978.77	4652.98
978.93	4634.55
979.10	4626.36
979.26	4753.34
979.42	4687.80
979.58	4612.03
979.74	4523.96
979.91	4663.22
980.07	4579.26
980.23	4599.74
980.39	4622.27
980.55	4476.86
980.71	4628.41
980.88	4446.14
981.04	4630.46
981.20	4442.04
981.36	4442.04
981.52	4530.11
981.68	4366.27
981.85	4478.91
982.01	4448.19
982.17	4351.93
982.33	4321.21
982.49	4405.18
982.65	4388.80
982.82	4386.75
982.98	4368.32
983.14	4288.45
983.30	4456.38
983.46	4429.76
983.62	4206.53
983.79	4349.89
983.95	4276.16
984.11	4292.54
984.27	4173.76
984.43	4315.07
984.59	4245.44
984.75	4292.54
984.91	4198.34
985.08	4306.88
985.24	4145.09
985.40	4116.42
985.56	4179.90
985.72	4368.32
985.88	4284.35
986.04	4126.66
986.20	4165.57
986.37	4122.56
986.53	3966.92
986.69	4091.84
986.85	4042.69
987.01	4112.32
987.17	4122.56
987.33	4093.89
987.49	4011.97
987.65	4138.94
987.82	4085.70
987.98	4022.21
988.14	4079.55
988.30	4054.98
988.46	4071.36
988.62	4085.70
988.78	4040.64
988.94	3999.68
989.10	3954.63
989.26	3936.20
989.42	3907.52
989.59	3796.93
989.75	3917.76
989.91	3958.72
990.07	3835.85
990.23	3846.09
990.39	3805.13
990.55	3895.24
990.71	3866.56
990.87	3817.41
991.03	3837.89
991.19	3915.72
991.35	3735.50
991.51	3811.27
991.67	3829.70
991.83	3825.61
992.00	3764.17
992.16	3764.17
992.32	3815.37
992.48	3801.03
992.64	3696.58
992.80	3721.16
992.96	3676.10
993.12	3745.73
993.28	3700.68
993.44	3665.86
993.60	3755.97
993.76	3764.17
993.92	3704.78
994.08	3780.55
994.24	3731.40
994.40	3639.24
994.56	3682.25
994.72	3610.57
994.88	3528.65
995.04	3674.06
995.20	3702.73
995.36	3530.70
995.52	3633.10
995.68	3639.24
995.84	3641.29
996.00	3735.50
996.16	3542.99
996.32	3483.59
996.48	3559.37
996.64	3497.93
996.80	3520.46
996.96	3545.03
997.12	3502.03
997.28	3561.42
997.44	3442.64
997.60	3440.59
997.76	3508.17
997.92	3522.51
998.08	3532.75
998.24	3356.62
998.40	3450.83
998.56	3391.44
998.72	3321.81
998.88	3485.64
999.04	3399.63
999.20	3362.76
999.36	3338.19
999.52	3383.24
999.68	3381.20
999.84	3403.72
1000.00	3393.48
1000.16	3399.63
1000.32	3262.41
1000.48	3385.29
1000.64	3219.41
1000.80	3250.13
1000.95	3151.82
1001.11	3319.76
1001.27	3170.26
1001.43	3213.26
1001.59	3117.01
1001.75	3170.26
1001.91	3166.16
1002.07	3141.58
1002.23	3198.93
1002.39	3166.16
1002.55	3114.96
1002.71	2977.75
1002.87	3082.19
1003.03	3155.92
1003.19	3151.82
1003.34	3188.69
1003.50	3106.77
1003.66	3172.30
1003.82	2973.65
1003.98	3125.20
1004.14	3000.27
1004.30	3104.72
1004.46	3051.47
1004.62	3076.05
1004.78	2987.99
1004.94	3026.90
1005.09	3053.52
1005.25	3108.82
1005.41	3000.27
1005.57	3033.04
1005.73	3053.52
1005.89	2887.64
1006.05	3016.66
1006.21	2916.31
1006.37	2951.12
1006.52	2932.69
1006.68	2891.73
1006.84	3071.95
1007.00	2887.64
1007.16	2944.98
1007.32	2951.12
1007.48	2832.34
1007.64	3039.19
1007.79	2875.35
1007.95	2787.29
1008.11	2848.72
1008.27	2772.95
1008.43	2762.71
1008.59	2795.48
1008.75	2944.98
1008.91	2805.72
1009.06	2752.47
1009.22	2953.17
1009.38	2809.81
1009.54	2818.00
1009.70	2715.61
1009.86	2709.46
1010.01	2916.31
1010.17	2809.81
1010.33	2813.91
1010.49	2846.68
1010.65	2875.35
1010.81	2713.56
1010.96	2787.29
1011.12	2656.22
1011.28	2658.26
1011.44	2758.61
1011.60	2756.57
1011.76	2678.74
1011.91	2772.95
1012.07	2574.30
1012.23	2719.70
1012.39	2641.88
1012.55	2701.27
1012.71	2623.45
1012.86	2598.87
1013.02	2639.83
1013.18	2676.70
1013.34	2555.86
1013.50	2656.22
1013.65	2598.87
1013.81	2572.25
1013.97	2541.53
1014.13	2527.19
1014.29	2484.19
1014.44	2592.73
1014.60	2607.06
1014.76	2551.77
1014.92	2543.58
1015.07	2623.45
1015.23	2535.39
1015.39	2527.19
1015.55	2508.76
1015.71	2570.20
1015.86	2611.16
1016.02	2465.75
1016.18	2500.57
1016.34	2592.73
1016.49	2580.44
1016.65	2605.02
1016.81	2422.75
1016.97	2508.76
1017.12	2424.80
1017.28	2453.47
1017.44	2408.41
1017.60	2504.67
1017.75	2459.61
1017.91	2516.95
1018.07	2453.47
1018.23	2488.28
1018.38	2531.29
1018.54	2318.30
1018.70	2549.72
1018.86	2471.90
1019.01	2318.30
1019.17	2461.66
1019.33	2478.04
1019.49	2512.86
1019.64	2455.51
1019.80	2418.65
1019.96	2379.74
1020.12	2420.70
1020.27	2346.97
1020.43	2306.01
1020.59	2426.84
1020.74	2437.08
1020.90	2435.03
1021.06	2338.78
1021.22	2371.55
1021.37	2334.68
1021.53	2258.91
1021.69	2402.27
1021.84	2213.85
1022.00	2359.26
1022.16	2306.01
1022.31	2355.16
1022.47	2340.83
1022.63	2396.12
1022.79	2232.29
1022.94	2279.39
1023.10	2459.61
1023.26	2281.44
1023.41	2209.76
1023.57	2265.05
1023.73	2312.16
1023.88	2297.82
1024.04	2258.91
1024.20	2215.90
1024.35	2291.68
1024.51	2181.09
1024.67	2240.48
1024.82	2238.43
1024.98	2166.75
1025.14	2211.81
1025.29	2211.81
1025.45	2273.25
1025.61	2129.89
1025.76	2191.33
1025.92	2265.05
1026.08	2220.00
1026.23	2232.29
1026.39	2166.75
1026.55	2172.89
1026.70	2168.80
1026.86	2222.05
1027.02	2187.23
1027.17	2211.81
1027.33	2195.42
1027.48	2113.50
1027.64	2037.73
1027.80	2142.18
1027.95	2174.94
1028.11	2062.30
1028.27	2140.13
1028.42	2117.60
1028.58	2129.89
1028.73	2101.22
1028.89	2148.32
1029.05	2174.94
1029.20	2105.31
>>>>>End Processed Spectral Data<<<<<
