SpectraSuite Data File
++++++++++++++++++++++++++++++++++++
Date: Fri Jun 02 14:44:39 CEST 2017
User: INFO_000
Dark Spectrum Present: No
Reference Spectrum Present: No
Number of Sampled Component Spectra: 1
Spectrometers: USB4H00879
Integration Time (usec): 80000 (USB4H00879)
Spectra Averaged: 1 (USB4H00879)
Boxcar Smoothing: 0 (USB4H00879)
Correct for Electrical Dark: No (USB4H00879)
Strobe/Lamp Enabled: No (USB4H00879)
Correct for Detector Non-linearity: No (USB4H00879)
Correct for Stray Light: No (USB4H00879)
Number of Pixels in Processed Spectrum: 3648
>>>>>Begin Processed Spectral Data<<<<<
345.13	1253.36
345.34	1253.36
345.56	1253.36
345.78	1265.64
345.99	1241.07
346.21	1718.25
346.42	1667.05
346.64	1662.95
346.86	1816.55
347.07	1722.34
347.29	1742.82
347.50	1558.50
347.72	1677.29
347.94	1683.43
348.15	1560.55
348.37	1589.22
348.59	1691.62
348.80	1650.66
349.02	1806.31
349.23	1914.85
349.45	1824.74
349.67	1937.38
349.88	1828.84
350.10	1955.81
350.31	1847.27
350.53	1847.27
350.75	1980.39
350.96	1746.92
351.18	1884.13
351.39	1908.71
351.61	1765.35
351.82	1863.65
352.04	1961.95
352.26	1830.88
352.47	1935.33
352.69	1918.95
352.90	1798.12
353.12	1837.03
353.34	1869.80
353.55	1869.80
353.77	1882.08
353.98	1845.22
354.20	1839.08
354.41	1986.53
354.63	2019.30
354.85	2023.39
355.06	1900.52
355.28	1855.46
355.49	1826.79
355.71	1884.13
355.92	1892.32
356.14	1955.81
356.35	1892.32
356.57	1832.93
356.79	1961.95
357.00	1923.04
357.22	1994.72
357.43	1908.71
357.65	1916.90
357.86	1818.60
358.08	1873.89
358.29	1945.57
358.51	1980.39
358.72	1976.29
358.94	1959.91
359.16	1908.71
359.37	1916.90
359.59	1923.04
359.80	2066.40
360.02	1953.76
360.23	1894.37
360.45	2019.30
360.66	1939.43
360.88	1918.95
361.09	1910.75
361.31	1966.05
361.52	1945.57
361.74	2052.06
361.95	2052.06
362.17	1972.19
362.38	2084.83
362.60	2109.41
362.81	2043.87
363.03	1918.95
363.24	2013.15
363.46	2086.88
363.67	2045.92
363.89	1976.29
364.10	2023.39
364.32	2023.39
364.53	2086.88
364.75	1914.85
364.96	1998.82
365.18	2041.82
365.39	2029.54
365.61	1918.95
365.82	2093.02
366.04	1955.81
366.25	1994.72
366.47	2023.39
366.68	2133.98
366.90	2058.21
367.11	2039.78
367.33	2093.02
367.54	2060.26
367.76	2058.21
367.97	2146.27
368.19	2078.69
368.40	2068.45
368.62	2007.01
368.83	1957.86
369.05	2043.87
369.26	2015.20
369.48	1988.58
369.69	1994.72
369.91	1935.33
370.12	2009.06
370.33	2109.41
370.55	1929.19
370.76	2043.87
370.98	2138.08
371.19	2076.64
371.41	2064.35
371.62	2056.16
371.84	1982.43
372.05	2131.94
372.27	1992.67
372.48	2088.93
372.69	2097.12
372.91	2150.37
373.12	2133.98
373.34	2027.49
373.55	2105.31
373.77	2215.90
373.98	2072.54
374.20	2224.09
374.41	2258.91
374.62	2052.06
374.84	2168.80
375.05	2205.66
375.27	2150.37
375.48	2236.38
375.70	2179.04
375.91	2207.71
376.12	2338.78
376.34	2197.47
376.55	2158.56
376.77	2273.25
376.98	2197.47
377.19	2152.42
377.41	2146.27
377.62	2293.72
377.84	2230.24
378.05	2324.44
378.27	2187.23
378.48	2277.34
378.69	2291.68
378.91	2365.40
379.12	2220.00
379.34	2179.04
379.55	2306.01
379.76	2232.29
379.98	2189.28
380.19	2289.63
380.41	2285.53
380.62	2238.43
380.83	2285.53
381.05	2162.66
381.26	2332.64
381.47	2230.24
381.69	2287.58
381.90	2338.78
382.12	2314.20
382.33	2256.86
382.54	2291.68
382.76	2267.10
382.97	2328.54
383.19	2236.38
383.40	2351.07
383.61	2232.29
383.83	2306.01
384.04	2287.58
384.25	2359.26
384.47	2463.71
384.68	2379.74
384.89	2310.11
385.11	2258.91
385.32	2260.96
385.54	2314.20
385.75	2406.36
385.96	2340.83
386.18	2439.13
386.39	2400.22
386.60	2363.36
386.82	2394.08
387.03	2392.03
387.24	2473.95
387.46	2482.14
387.67	2447.32
387.88	2453.47
388.10	2387.93
388.31	2473.95
388.52	2613.21
388.74	2537.43
388.95	2465.75
389.16	2463.71
389.38	2406.36
389.59	2478.04
389.80	2654.17
390.02	2557.91
390.23	2588.63
390.44	2533.34
390.66	2586.58
390.87	2512.86
391.08	2531.29
391.30	2682.84
391.51	2713.56
391.72	2705.37
391.94	2684.89
392.15	2600.92
392.36	2625.50
392.58	2584.54
392.79	2639.83
393.00	2820.05
393.22	2727.89
393.43	2766.81
393.64	2795.48
393.85	2830.29
394.07	2682.84
394.28	2645.98
394.49	2721.75
394.71	2850.77
394.92	2850.77
395.13	2809.81
395.35	2664.41
395.56	2832.34
395.77	2797.53
395.98	2828.24
396.20	2957.27
396.41	2846.68
396.62	2901.97
396.84	2824.15
397.05	2777.05
397.26	2895.83
397.47	2983.89
397.69	2727.89
397.90	3018.71
398.11	3037.14
398.32	2891.73
398.54	2936.79
398.75	2842.58
398.96	3041.23
399.18	3084.24
399.39	3065.81
399.60	3071.95
399.81	2901.97
400.03	3076.05
400.24	3260.37
400.45	2942.93
400.66	3117.01
400.88	3086.29
401.09	3215.31
401.30	3067.86
401.51	3276.75
401.73	3186.64
401.94	3104.72
402.15	3094.48
402.36	3125.20
402.58	3153.87
402.79	3192.78
403.00	3125.20
403.21	3246.03
403.43	3246.03
403.64	3305.42
403.85	3231.69
404.06	3336.14
404.27	3112.91
404.49	3215.31
404.70	3215.31
404.91	3280.85
405.12	3243.98
405.34	3327.95
405.55	3416.01
405.76	3174.35
405.97	3303.37
406.19	3317.71
406.40	3309.52
406.61	3362.76
406.82	3448.78
407.03	3270.61
407.25	3305.42
407.46	3413.96
407.67	3440.59
407.88	3510.22
408.09	3483.59
408.31	3303.37
408.52	3344.33
408.73	3420.11
408.94	3272.65
409.15	3481.55
409.37	3411.92
409.58	3493.83
409.79	3557.32
410.00	3508.17
410.21	3377.10
410.43	3504.07
410.64	3448.78
410.85	3516.36
411.06	3612.62
411.27	3454.92
411.48	3715.02
411.70	3538.89
411.91	3522.51
412.12	3610.57
412.33	3508.17
412.54	3622.86
412.76	3641.29
412.97	3641.29
413.18	3485.64
413.39	3633.10
413.60	3583.95
413.81	3661.77
414.03	3520.46
414.24	3583.95
414.45	3856.33
414.66	3502.03
414.87	3708.87
415.08	3598.28
415.30	3684.30
415.51	3702.73
415.72	3760.07
415.93	3747.78
416.14	3755.97
416.35	3788.74
416.56	3798.98
416.78	3821.51
416.99	3878.85
417.20	3928.00
417.41	3821.51
417.62	3870.66
417.83	3909.57
418.04	3876.80
418.26	4014.02
418.47	3934.15
418.68	3987.40
418.89	3909.57
419.10	4007.87
419.31	4069.31
419.52	4020.16
419.73	4007.87
419.95	4059.07
420.16	3872.71
420.37	3860.42
420.58	4022.21
420.79	4001.73
421.00	4104.13
421.21	4212.67
421.42	4097.99
421.63	4175.81
421.85	4159.42
422.06	4235.20
422.27	4198.34
422.48	4188.10
422.69	4390.84
422.90	4360.13
423.11	4308.93
423.32	4358.08
423.53	4530.11
423.75	4456.38
423.96	4423.61
424.17	4339.65
424.38	4521.92
424.59	4564.92
424.80	4620.22
425.01	4448.19
425.22	4433.85
425.43	4515.77
425.64	4708.28
425.85	4782.01
426.06	4663.22
426.28	4751.29
426.49	4622.27
426.70	4601.79
426.91	4712.38
427.12	4741.05
427.33	4659.13
427.54	4720.57
427.75	4712.38
427.96	4956.08
428.17	4833.21
428.38	4929.46
428.59	4923.32
428.80	4947.89
429.01	5035.96
429.23	5019.57
429.44	5060.53
429.65	5101.49
429.86	5060.53
430.07	5111.73
430.28	4923.32
430.49	5087.15
430.70	5302.19
430.91	5347.25
431.12	5246.90
431.33	5224.37
431.54	5203.89
431.75	5320.62
431.96	5185.46
432.17	5220.27
432.38	5132.21
432.59	5435.31
432.80	5328.81
433.01	5474.22
433.22	5425.07
433.43	5425.07
433.64	5255.09
433.85	5369.77
434.06	5447.60
434.27	5398.45
434.49	5361.58
434.70	5521.32
434.91	5484.46
435.12	5447.60
435.33	5498.80
435.54	5525.42
435.75	5349.29
435.96	5425.07
436.17	5402.54
436.38	5545.90
436.59	5619.63
436.80	5455.79
437.01	5896.10
437.22	5842.85
437.43	5824.42
437.64	5453.74
437.85	5719.98
438.06	5707.69
438.27	5599.15
438.48	5722.02
438.69	5953.45
438.90	5771.18
439.11	5814.18
439.32	5935.01
439.53	5820.33
439.74	5812.14
439.95	5869.48
440.16	5928.87
440.37	5937.06
440.57	5820.33
440.78	6025.12
440.99	5932.97
441.20	5873.57
441.41	5822.38
441.62	6170.53
441.83	5689.26
442.04	6074.28
442.25	5990.31
442.46	5844.90
442.67	6145.95
442.88	6373.28
443.09	6047.65
443.30	6047.65
443.51	6133.67
443.72	6358.94
443.93	5916.58
444.14	6387.61
444.35	6061.99
444.56	6287.26
444.77	6270.88
444.98	6463.39
445.19	6303.65
445.40	6266.78
445.61	6309.79
445.81	6504.35
446.02	6397.85
446.23	6340.51
446.44	6289.31
446.65	6395.81
446.86	6553.50
447.07	6453.15
447.28	6508.44
447.49	6631.32
447.70	6412.19
447.91	6680.47
448.12	6715.29
448.33	6754.20
448.54	6741.91
448.74	6514.59
448.95	6731.67
449.16	6776.73
449.37	7014.29
449.58	6782.87
449.79	6963.09
450.00	6563.74
450.21	6897.56
450.42	6901.65
450.63	7024.53
450.84	6950.81
451.05	7073.68
451.25	7032.72
451.46	7032.72
451.67	7024.53
451.88	7274.38
452.09	7247.76
452.30	6987.67
452.51	7071.64
452.72	7321.49
452.93	7538.57
453.13	7192.47
453.34	7301.01
453.55	7384.98
453.76	7417.74
453.97	7579.53
454.18	7514.00
454.39	7579.53
454.60	7444.37
454.81	7589.77
455.01	7821.19
455.22	7341.97
455.43	7815.05
455.64	7880.58
455.85	8030.09
456.06	8112.00
456.27	7849.86
456.48	7937.93
456.68	8046.47
456.89	8075.14
457.10	8019.85
457.31	8226.69
457.52	8023.94
457.73	8320.90
457.94	8341.38
458.14	8073.09
458.35	8568.70
458.56	8429.44
458.77	8449.92
458.98	8353.66
459.19	8441.73
459.39	8816.51
459.60	8517.50
459.81	8593.28
460.02	8873.85
460.23	8720.25
460.44	8925.05
460.65	8941.43
460.85	9029.49
461.06	9113.46
461.27	8902.52
461.48	9301.87
461.69	9232.24
461.89	8791.93
462.10	9324.40
462.31	8941.43
462.52	9150.32
462.73	9291.63
462.94	9254.77
463.14	9293.68
463.35	9283.44
463.56	9682.80
463.77	9621.36
463.98	9449.33
464.18	9619.31
464.39	9736.04
464.60	9920.36
464.81	9865.07
465.02	9793.39
465.23	10071.91
465.43	9910.12
465.64	10065.77
465.85	10096.49
466.06	9965.42
466.27	10411.87
466.47	10391.39
466.68	10282.85
466.89	10205.03
467.10	10463.07
467.30	10262.37
467.51	10434.40
467.72	10698.59
467.93	10471.26
468.14	10481.50
468.34	10973.02
468.55	10727.26
468.76	10729.31
468.97	10850.14
469.17	10919.77
469.38	10944.34
469.59	11028.31
469.80	10970.97
470.01	11099.99
470.21	11282.26
470.42	11409.23
470.63	11507.54
470.84	11198.29
471.04	11503.44
471.25	11466.58
471.46	11173.72
471.67	11646.80
471.87	11646.80
472.08	11812.68
472.29	11910.99
472.50	11620.17
472.70	11818.83
472.91	11833.16
473.12	12126.02
473.33	12261.19
473.53	12361.54
473.74	12115.78
473.95	12140.36
474.16	12390.21
474.36	12269.38
474.57	12556.10
474.78	12699.45
474.99	12580.67
475.19	12570.43
475.40	12818.24
475.61	12920.63
475.81	13006.65
476.02	13123.38
476.23	12920.63
476.44	13027.13
476.64	13328.18
476.85	13373.24
477.06	13672.24
477.27	13608.75
477.47	13610.80
477.68	13639.47
477.89	13842.22
478.09	13852.46
478.30	13817.65
478.51	13752.11
478.71	14030.63
478.92	14042.92
479.13	14423.84
479.34	14417.70
479.54	14294.82
479.75	14448.42
479.96	14452.52
480.16	14540.58
480.37	14763.81
480.58	14755.61
480.78	15152.92
480.99	14907.16
481.20	15308.57
481.41	15292.18
481.61	15152.92
481.82	15484.69
482.03	15490.84
482.23	15415.06
482.44	15755.02
482.65	15863.57
482.85	15822.61
483.06	16228.10
483.27	15836.94
483.47	16092.94
483.68	15943.44
483.89	16236.30
484.09	16228.10
484.30	16381.70
484.51	16551.68
484.71	16742.14
484.92	16781.06
485.13	16736.00
485.33	16652.03
485.54	17092.35
485.75	17155.83
485.95	17329.91
486.16	17200.89
486.37	17157.88
486.57	17493.75
486.78	17356.54
486.98	17792.75
487.19	17643.25
487.40	17858.29
487.60	17762.03
487.81	18241.26
488.02	18116.33
488.22	17884.91
488.43	18319.08
488.64	18267.88
488.84	18478.82
489.05	18597.60
489.25	18818.78
489.46	18992.86
489.67	18507.49
489.87	19103.45
490.08	19095.26
490.29	19324.63
490.49	19640.02
490.70	19549.91
490.90	19762.90
491.11	19506.90
491.32	19861.20
491.52	19805.91
491.73	19990.22
491.94	20133.58
492.14	19873.49
492.35	20324.04
492.55	20442.82
492.76	20440.78
492.97	20514.50
493.17	20633.29
493.38	20694.72
493.58	21145.28
493.79	20885.19
494.00	21022.40
494.20	21110.46
494.41	21227.20
494.61	21382.84
494.82	21479.10
495.02	21610.17
495.23	21544.63
495.44	21634.74
495.64	21939.89
495.85	21870.26
496.05	22030.00
496.26	22281.90
496.47	22392.49
496.67	22134.45
496.88	22628.01
497.08	22312.62
497.29	22759.08
497.49	22687.40
497.70	22851.24
497.91	23078.56
498.11	22976.16
498.32	23080.61
498.52	23017.12
498.73	23522.97
498.93	23309.98
499.14	23355.04
499.34	23533.21
499.55	23821.97
499.76	23637.66
499.96	23582.36
500.17	23735.96
500.37	23719.57
500.58	24163.98
500.78	24229.52
500.99	24061.58
501.19	24407.69
501.40	24129.17
501.60	24241.81
501.81	24606.34
502.02	24311.44
502.22	24114.83
502.43	24938.12
502.63	25073.28
502.84	24929.92
503.04	24925.83
503.25	24727.17
503.45	25097.86
503.66	25431.68
503.86	24925.83
504.07	25394.81
504.27	25110.14
504.48	25597.56
504.68	25503.35
504.89	25593.47
505.09	25570.94
505.30	25282.17
505.50	25892.47
505.71	25794.17
505.91	26113.65
506.12	26031.73
506.32	25953.91
506.53	25925.24
506.73	25806.45
506.94	26332.78
507.14	26158.70
507.35	26201.71
507.55	26394.22
507.76	26498.67
507.96	26142.32
508.17	26596.97
508.37	26558.06
508.58	26621.55
508.78	27084.39
508.99	26951.27
509.19	26801.77
509.40	27070.05
509.60	26740.33
509.81	26988.13
510.01	26527.34
510.22	26941.03
510.42	27041.38
510.63	27205.22
510.83	27297.38
511.04	26947.17
511.24	27375.20
511.44	27041.38
511.65	27289.18
511.85	27207.26
512.06	27242.08
512.26	27561.56
512.47	27367.01
512.67	27133.54
512.88	27608.67
513.08	27053.67
513.29	27674.20
513.49	27326.05
513.69	27602.52
513.90	27760.22
514.10	27674.20
514.31	27336.29
514.51	27754.07
514.72	27635.29
514.92	27567.71
515.13	28048.98
515.33	28034.64
515.53	28044.88
515.74	28206.67
515.94	28337.74
516.15	28182.10
516.35	27778.65
516.56	28157.52
516.76	28057.17
516.96	28307.02
517.17	28407.37
517.37	27971.16
517.58	28419.66
517.78	28489.29
517.99	28395.09
518.19	28579.40
518.39	28552.78
518.60	28448.33
518.80	28540.49
519.01	28550.73
519.21	28902.98
519.41	28710.47
519.62	28661.32
519.82	28776.01
520.03	28911.17
520.23	28868.17
520.43	28554.83
520.64	29204.03
520.84	29261.38
521.05	29281.86
521.25	29126.21
521.45	29167.17
521.66	29500.99
521.86	29363.78
522.07	29425.22
522.27	29666.88
522.47	29406.78
522.68	29435.45
522.88	29890.10
523.08	30133.81
523.29	29720.12
523.49	29763.13
523.70	30043.70
523.90	30074.42
524.10	30385.71
524.31	30498.35
524.51	29972.02
524.71	30735.92
524.92	30682.67
525.12	30242.35
525.33	30576.17
525.53	30785.07
525.73	30967.34
525.94	30846.51
526.14	30785.07
526.34	30705.20
526.55	30813.74
526.75	31284.77
526.95	31516.19
527.16	30815.79
527.36	31231.52
527.56	31319.59
527.77	31338.02
527.97	31659.55
528.17	31442.46
528.38	31475.23
528.58	31335.97
528.78	31823.39
528.99	32046.62
529.19	32106.01
529.39	32216.60
529.60	32570.90
529.80	32343.57
530.00	32249.36
530.21	32318.99
530.41	32622.09
530.61	32720.40
530.82	32546.32
531.02	32636.43
531.22	32613.90
531.43	33181.19
531.63	32955.91
531.83	33351.17
532.04	33748.48
532.24	33289.73
532.44	33842.68
532.64	33844.73
532.85	33895.93
533.05	34166.26
533.25	33857.02
533.46	33789.44
533.66	34401.78
533.86	34100.73
534.07	34655.73
534.27	34297.33
534.47	34944.49
534.67	34784.75
534.88	34526.71
535.08	35110.38
535.28	35481.06
535.49	35421.67
535.69	35413.48
535.89	35382.76
536.09	35694.05
536.30	35769.82
536.50	35796.45
536.70	35886.56
536.91	35517.92
537.11	36271.57
537.31	36324.82
537.51	36173.27
537.72	36548.05
537.92	36566.48
538.12	36845.01
538.32	36447.70
538.53	36869.58
538.73	36736.46
538.93	36761.04
539.13	37090.76
539.34	37414.34
539.54	37189.06
539.74	37723.58
539.94	37352.90
540.15	37533.12
540.35	37981.63
540.55	38116.79
540.75	37660.10
540.96	37920.19
541.16	38141.37
541.36	38356.41
541.56	38024.64
541.77	38725.04
541.97	38450.61
542.17	38528.44
542.37	38618.55
542.58	38868.40
542.78	38487.48
542.98	38788.53
543.18	38804.91
543.38	39142.83
543.59	39626.15
543.79	39359.91
543.99	39361.96
544.19	39622.05
544.40	39667.11
544.60	39753.12
544.80	39749.03
545.00	40045.98
545.20	39935.39
545.41	39695.78
545.61	39996.83
545.81	40394.14
546.01	40504.73
546.21	40566.16
546.42	40134.04
546.62	40512.92
546.82	40512.92
547.02	40875.41
547.22	40674.71
547.43	40635.80
547.63	41141.64
547.83	40879.50
548.03	40887.70
548.23	41090.44
548.44	40957.33
548.64	41270.67
548.84	41307.53
549.04	40983.95
549.24	41473.42
549.45	42112.38
549.65	41563.53
549.85	41778.56
550.05	41780.61
550.25	41592.20
550.45	42184.06
550.66	41938.30
550.86	41753.99
551.06	42239.36
551.26	42358.14
551.46	42395.00
551.66	42149.24
551.87	42423.67
552.07	42696.05
552.27	42624.37
552.47	42554.74
552.67	42667.38
552.87	42892.66
553.07	42622.33
553.28	42427.77
553.48	42896.75
553.68	42833.27
553.88	43066.73
554.08	42876.27
554.28	42448.25
554.48	42644.85
554.69	43259.24
554.89	42737.01
555.09	43173.23
555.29	42863.99
555.49	43660.65
555.69	43220.33
555.89	43212.14
556.10	43505.00
556.30	43119.98
556.50	43259.24
556.70	43361.64
556.90	43486.57
557.10	43593.06
557.30	43496.81
557.50	43689.32
557.70	43853.15
557.91	43847.01
558.11	43771.24
558.31	43885.92
558.51	43605.35
558.71	43613.54
558.91	43292.01
559.11	43552.10
559.31	43687.27
559.51	43447.66
559.72	44197.21
559.92	43885.92
560.12	43715.94
560.32	44426.59
560.52	43898.21
560.72	43812.20
560.92	43539.82
561.12	43701.61
561.32	44522.84
561.52	43904.35
561.72	44510.55
561.93	43867.49
562.13	44254.56
562.33	43857.25
562.53	44326.24
562.73	44094.82
562.93	44164.45
563.13	44537.18
563.33	43785.57
563.53	44295.52
563.73	43892.07
563.93	44127.58
564.13	44746.07
564.33	44195.17
564.53	44135.77
564.74	44236.12
564.94	44141.92
565.14	44506.46
565.34	44041.57
565.54	44313.95
565.74	44270.94
565.94	44539.22
566.14	44537.18
566.34	44758.36
566.54	44830.04
566.74	43924.83
566.94	44596.57
567.14	44694.87
567.34	44154.21
567.54	44744.02
567.74	43965.79
567.94	44264.80
568.14	44782.93
568.34	44463.45
568.54	44504.41
568.74	44379.48
568.94	44500.31
569.14	44830.04
569.34	44895.57
569.54	44875.09
569.75	44180.83
569.95	44447.07
570.15	44647.77
570.35	45053.26
570.55	44897.62
570.75	45147.47
570.95	44709.21
571.15	44823.89
571.35	44627.29
571.55	44778.84
571.75	44746.07
571.95	44817.75
572.15	44569.94
572.35	45040.98
572.55	44717.40
572.75	44621.14
572.95	45004.11
573.15	45118.80
573.35	45292.88
573.55	45358.41
573.75	45290.83
573.95	45141.33
574.15	44780.88
574.35	45348.17
574.55	45086.03
574.75	45440.33
574.95	45010.26
575.15	44813.65
575.34	45112.66
575.54	45362.51
575.74	45106.51
575.94	45522.25
576.14	45251.92
576.34	45346.12
576.54	45686.09
576.74	45450.57
576.94	45415.76
577.14	45786.44
577.34	46204.22
577.54	45454.67
577.74	45940.04
577.94	45784.39
578.14	45882.69
578.34	45720.90
578.54	45632.84
578.74	45694.28
578.94	45749.57
579.14	46011.71
579.34	45962.56
579.54	46142.78
579.74	46210.37
579.94	46280.00
580.13	46355.77
580.33	46056.77
580.53	46255.42
580.73	45864.26
580.93	46165.31
581.13	46507.32
581.33	46814.52
581.53	46918.96
581.73	46908.72
581.93	46757.17
582.13	46892.34
582.33	46931.25
582.53	46511.42
582.73	46904.63
582.92	46955.83
583.12	46603.58
583.32	46871.86
583.52	46746.93
583.72	46994.74
583.92	46830.90
584.12	47068.47
584.32	47961.38
584.52	47220.02
584.72	47502.64
584.92	47471.92
585.11	48082.21
585.31	47942.95
585.51	47992.10
585.71	47363.37
585.91	47803.69
586.11	47609.13
586.31	47572.27
586.51	47891.75
586.71	47971.62
586.91	48549.15
587.10	48164.13
587.30	48037.16
587.50	48059.68
587.70	48293.15
587.90	48100.64
588.10	48315.68
588.30	48416.03
588.50	48971.03
588.69	48452.89
588.89	48829.72
589.09	48960.79
589.29	48993.56
589.49	49241.36
589.69	48895.25
589.89	49566.99
590.08	48950.55
590.28	48999.70
590.48	48981.27
590.68	49145.11
590.88	49220.88
591.08	49542.41
591.28	49403.15
591.47	49759.50
591.67	49505.55
591.87	50058.50
592.07	49743.11
592.27	49874.18
592.47	50009.35
592.67	49956.10
592.86	49685.77
593.06	50109.70
593.26	50404.61
593.46	49974.53
593.66	49861.90
593.86	50033.92
594.05	50101.51
594.25	50593.02
594.45	50273.54
594.65	51074.29
594.85	50279.68
595.05	50435.33
595.24	50828.54
595.44	50523.39
595.64	51107.06
595.84	51055.86
596.04	51012.85
596.23	51379.44
596.43	51293.43
596.63	51102.96
596.83	51078.39
597.03	51981.54
597.22	52360.42
597.42	51696.88
597.62	52010.21
597.82	51975.40
598.02	51811.56
598.21	52006.12
598.41	51748.07
598.61	51971.30
598.81	51786.99
599.01	52118.76
599.20	52325.60
599.40	52106.47
599.60	52149.48
599.80	52354.27
600.00	52597.98
600.19	53386.45
600.39	52450.53
600.59	52462.82
600.79	53148.88
600.98	53361.87
601.18	53277.91
601.38	53249.24
601.58	53482.70
601.78	52917.46
601.97	53241.04
602.17	53634.25
602.37	53468.37
602.57	53609.68
602.76	53728.46
602.96	53710.03
603.16	54017.22
603.36	54054.09
603.55	54357.19
603.75	54150.34
603.95	54377.67
604.15	53880.01
604.34	54351.04
604.54	54639.81
604.74	54283.46
604.94	54916.28
605.13	54531.26
605.33	54944.95
605.53	54682.81
605.73	54842.56
605.92	54588.61
606.12	55301.30
606.32	54723.77
606.52	55108.79
606.71	54830.27
606.91	55205.05
607.11	55334.07
607.30	55401.65
607.50	55225.53
607.70	55649.45
607.90	55424.18
608.09	55264.44
608.29	55346.36
608.49	55768.24
608.68	55714.99
608.88	55819.44
609.08	55719.09
609.28	55745.71
609.47	55858.35
609.67	56417.44
609.87	56085.67
610.06	56523.94
610.26	55833.77
610.46	56372.39
610.66	55831.72
610.85	56374.44
611.05	55784.62
611.25	56591.52
611.44	55964.84
611.64	55973.03
611.84	55846.06
612.03	56093.86
612.23	56163.50
612.43	56317.09
612.62	56048.81
612.82	56224.93
613.02	56155.30
613.21	56513.70
613.41	56100.01
613.61	56571.04
613.80	56206.50
614.00	56480.93
614.20	56179.88
614.39	56151.21
614.59	56685.73
614.79	56781.98
614.98	56325.28
615.18	56226.98
615.38	56419.49
615.57	56181.93
615.77	56542.37
615.97	56425.64
616.16	56181.93
616.36	56716.45
616.56	56431.78
616.75	56353.96
616.95	56122.54
617.15	56472.74
617.34	56513.70
617.54	56136.87
617.74	56521.89
617.93	56446.11
618.13	56159.40
618.32	57031.83
618.52	56505.51
618.72	56089.77
618.91	56407.20
619.11	56210.60
619.31	56153.26
619.50	56554.66
619.70	55784.62
619.90	56282.28
620.09	56347.81
620.29	56130.73
620.48	56179.88
620.68	56794.27
620.88	55706.80
621.07	56269.99
621.27	56523.94
621.46	55897.26
621.66	56145.06
621.86	56024.23
622.05	55899.31
622.25	56163.50
622.44	56097.96
622.64	55350.45
622.84	55817.39
623.03	55796.91
623.23	56147.11
623.42	56265.89
623.62	56229.03
623.82	56169.64
624.01	55852.20
624.21	55977.13
624.40	55731.37
624.60	55508.14
624.80	55545.01
624.99	55647.41
625.19	55579.82
625.38	55559.34
625.58	55575.73
625.77	55690.41
625.97	55641.26
626.17	55428.27
626.36	55561.39
626.56	55647.41
626.75	54906.04
626.95	55772.33
627.14	55405.75
627.34	55657.65
627.54	54881.47
627.73	55282.87
627.93	55387.31
628.12	55078.07
628.32	55334.07
628.51	55248.05
628.71	54490.30
628.90	55446.71
629.10	54973.63
629.30	55317.68
629.49	55379.12
629.69	55108.79
629.88	54779.07
630.08	55350.45
630.27	55080.12
630.47	54899.90
630.66	55182.52
630.86	55198.90
631.05	54822.08
631.25	55442.61
631.44	55006.39
631.64	55035.06
631.84	55174.33
632.03	55401.65
632.23	55284.92
632.42	55323.83
632.62	54924.47
632.81	55055.54
633.01	54953.15
633.20	55125.17
633.40	55491.76
633.59	54889.66
633.79	54598.85
633.98	54875.32
634.18	54994.10
634.37	55112.89
634.57	55309.49
634.76	55061.69
634.96	55088.31
635.15	54777.02
635.35	54555.84
635.54	54267.08
635.74	55076.02
635.93	54310.08
636.13	55078.07
636.32	54574.27
636.52	54518.98
636.71	54244.55
636.91	54598.85
637.10	54682.81
637.30	54467.78
637.49	54695.10
637.69	54240.45
637.88	54977.72
638.08	54598.85
638.27	54920.38
638.46	54834.36
638.66	54230.21
638.85	54602.94
639.05	54822.08
639.24	54729.92
639.44	54334.66
639.63	54529.22
639.83	54883.51
640.02	54635.71
640.22	54523.07
640.41	54797.50
640.61	54236.36
640.80	54174.92
640.99	54441.15
641.19	54518.98
641.38	54385.86
641.58	54762.68
641.77	54451.39
641.97	54203.59
642.16	54375.62
642.36	55069.88
642.55	54953.15
642.74	54189.25
642.94	54910.14
643.13	54498.50
643.33	54713.53
643.52	54973.63
643.72	54686.91
643.91	54547.65
644.10	54578.37
644.30	54826.17
644.49	54854.84
644.69	55014.58
644.88	54969.53
645.08	54385.86
645.27	54367.43
645.46	54445.25
645.66	54910.14
645.85	54693.05
646.05	54875.32
646.24	54537.41
646.43	54658.24
646.63	54770.88
646.82	54869.18
647.02	54824.12
647.21	55467.19
647.40	54953.15
647.60	55088.31
647.79	55336.12
647.99	55010.49
648.18	54820.03
648.37	55719.09
648.57	55784.62
648.76	54799.55
648.96	54912.19
649.15	55551.15
649.34	55280.82
649.54	55274.68
649.73	55104.70
649.92	55026.87
650.12	55450.80
650.31	54920.38
650.51	55065.78
650.70	55555.25
650.89	55170.23
651.09	55612.59
651.28	55481.52
651.47	55764.14
651.67	55342.26
651.86	55801.00
652.06	54944.95
652.25	55434.42
652.44	55465.14
652.64	55149.75
652.83	55360.69
653.02	55188.66
653.22	55489.71
653.41	55483.57
653.60	55194.81
653.80	55606.45
653.99	55708.85
654.18	55100.60
654.38	55542.96
654.57	55579.82
654.76	55624.88
654.96	55624.88
655.15	55717.04
655.34	55317.68
655.54	55246.00
655.73	55774.38
655.92	55747.76
656.12	55682.22
656.31	56237.22
656.50	55868.59
656.70	55620.78
656.89	55782.57
657.08	56054.95
657.28	55798.96
657.47	55895.21
657.66	55837.87
657.86	55989.42
658.05	55760.05
658.24	56218.79
658.43	55887.02
658.63	56149.16
658.82	56067.24
659.01	56485.03
659.21	56024.23
659.40	56231.08
659.59	55784.62
659.79	56370.34
659.98	56300.71
660.17	56325.28
660.36	56458.40
660.56	56370.34
660.75	56640.67
660.94	56833.18
661.14	56095.91
661.33	56753.31
661.52	56046.76
661.71	56792.22
661.91	56411.30
662.10	56382.63
662.29	56915.10
662.49	56550.56
662.68	57128.09
662.87	56722.59
663.06	56814.75
663.26	56616.10
663.45	56816.80
663.64	57121.94
663.83	57218.20
664.03	56794.27
664.22	56923.29
664.41	57076.89
664.60	56861.85
664.80	56956.06
664.99	56409.25
665.18	57111.70
665.37	56833.18
665.57	56972.44
665.76	56978.59
665.95	57185.43
666.14	56919.20
666.34	57320.60
666.53	57185.43
666.72	56505.51
666.91	56786.08
667.11	56835.23
667.30	57373.84
667.49	57275.54
667.68	56917.15
667.87	56976.54
668.07	57296.02
668.26	57515.15
668.45	57570.45
668.64	57408.66
668.84	57891.98
669.03	57574.55
669.22	57404.56
669.41	57226.39
669.60	57484.43
669.80	57257.11
669.99	57769.10
670.18	57396.37
670.37	57513.11
670.57	57986.19
670.76	57328.79
670.95	57646.22
671.14	58135.69
671.33	57404.56
671.53	58066.06
671.72	57539.73
671.91	57644.18
672.10	57640.08
672.29	57597.07
672.48	57758.86
672.68	58088.59
672.87	57693.33
673.06	57760.91
673.25	57574.55
673.44	57717.90
673.64	57498.77
673.83	57619.60
674.02	57771.15
674.21	57506.96
674.40	57783.44
674.59	57662.61
674.79	58078.35
674.98	57564.31
675.17	57744.53
675.36	57562.26
675.55	57836.69
675.74	57822.35
675.94	57947.28
676.13	58045.58
676.32	57943.18
676.51	58528.90
676.70	58264.71
676.89	57642.13
677.08	58168.46
677.28	57969.80
677.47	58205.32
677.66	58459.27
677.85	58428.55
678.04	58684.54
678.23	58006.67
678.42	58152.07
678.62	57648.27
678.81	58111.11
679.00	58037.39
679.19	58545.28
679.38	58098.83
679.57	58356.87
679.76	58258.57
679.96	58338.44
680.15	58334.34
680.34	58242.18
680.53	58086.54
680.72	58449.03
680.91	58307.72
681.10	57758.86
681.29	58176.65
681.48	58260.62
681.68	57885.84
681.87	58051.72
682.06	58332.29
682.25	57748.62
682.44	58281.09
682.63	58465.41
682.82	57787.53
683.01	58094.73
683.20	57785.49
683.39	57711.76
683.59	57742.48
683.78	58014.86
683.97	57650.32
684.16	57730.19
684.35	57652.37
684.54	57914.51
684.73	57934.99
684.92	57357.46
685.11	57820.30
685.30	57828.49
685.49	58094.73
685.69	58025.10
685.88	57701.52
686.07	58152.07
686.26	57711.76
686.45	57914.51
686.64	57672.85
686.83	57848.97
687.02	57689.23
687.21	57930.89
687.40	57957.52
687.59	57373.84
687.78	57742.48
687.97	57885.84
688.16	57406.61
688.35	57662.61
688.54	57457.81
688.74	57656.46
688.93	57703.57
689.12	57635.98
689.31	57590.93
689.50	57773.20
689.69	57492.63
689.88	57257.11
690.07	57627.79
690.26	57390.23
690.45	57521.30
690.64	57066.65
690.83	57138.33
691.02	56794.27
691.21	57099.42
691.40	56495.27
691.59	57590.93
691.78	56986.78
691.97	57406.61
692.16	57199.77
692.35	57545.87
692.54	57134.23
692.73	57072.79
692.92	57111.70
693.11	56968.35
693.30	57070.75
693.49	56892.57
693.68	56882.33
693.87	56945.82
694.06	56534.18
694.25	56779.93
694.44	56495.27
694.63	56968.35
694.82	56566.94
695.01	56456.35
695.20	56313.00
695.39	56333.48
695.58	56169.64
695.77	56241.32
695.96	56188.07
696.15	56337.57
696.34	56700.06
696.53	56386.72
696.72	56317.09
696.91	55850.16
697.10	56394.92
697.29	55839.92
697.48	56145.06
697.67	55975.08
697.86	55899.31
698.05	55735.47
698.24	56423.59
698.43	55782.57
698.62	56171.69
698.81	55588.02
699.00	55833.77
699.19	55332.02
699.38	55612.59
699.57	54903.99
699.76	56065.19
699.95	55227.57
700.14	55121.08
700.32	55403.70
700.51	55119.03
700.70	55631.02
700.89	55065.78
701.08	54777.02
701.27	55545.01
701.46	55203.00
701.65	54869.18
701.84	55182.52
702.03	54805.69
702.22	54826.17
702.41	55071.93
702.60	55112.89
702.79	55076.02
702.98	54484.16
703.17	54408.39
703.35	54351.04
703.54	54162.63
703.73	54758.59
703.92	54338.75
704.11	54768.83
704.30	54113.48
704.49	54006.98
704.68	53951.69
704.87	54291.65
705.06	53806.28
705.25	54035.66
705.43	54058.18
705.62	54105.29
705.81	54107.33
706.00	54234.31
706.19	53697.74
706.38	53828.81
706.57	53867.72
706.76	53523.66
706.95	54097.09
707.14	53396.69
707.32	53697.74
707.51	53658.83
707.70	53488.85
707.89	53009.62
708.08	53351.63
708.27	53619.92
708.46	53548.24
708.65	53550.29
708.84	53699.79
709.02	53169.36
709.21	53515.47
709.40	53406.93
709.59	53634.25
709.78	52905.18
709.97	53132.50
710.16	52511.97
710.34	52516.06
710.53	53073.11
710.72	52632.80
710.91	52724.96
711.10	53085.40
711.29	52759.77
711.48	52511.97
711.66	52565.21
711.85	51911.91
712.04	52237.54
712.23	52534.49
712.42	52098.28
712.61	52417.76
712.80	52174.05
712.98	52694.24
713.17	52079.85
713.36	52045.03
713.55	52258.02
713.74	52124.90
713.93	51748.07
714.11	51569.90
714.30	51438.83
714.49	51703.02
714.68	51883.24
714.87	51811.56
715.06	51913.96
715.24	51336.43
715.43	51238.13
715.62	51098.87
715.81	51236.08
716.00	51354.86
716.18	50818.30
716.37	50812.15
716.56	50570.49
716.75	51535.09
716.94	51016.95
717.12	50590.97
717.31	50765.05
717.50	50812.15
717.69	50916.60
717.88	50738.43
718.06	50578.68
718.25	50576.64
718.44	50570.49
718.63	50654.46
718.82	50175.23
719.00	50291.97
719.19	50347.26
719.38	50160.90
719.57	49876.23
719.76	49734.92
719.94	49423.63
720.13	49710.35
720.32	50109.70
720.51	49767.69
720.69	49771.78
720.88	49661.19
721.07	49706.25
721.26	49415.44
721.44	49489.16
721.63	49429.77
721.82	49120.53
722.01	48946.45
722.20	49399.05
722.38	49427.73
722.57	48504.09
722.76	49435.92
722.95	49386.77
723.13	48481.56
723.32	48487.71
723.51	48395.55
723.70	48510.24
723.88	48506.14
724.07	48395.55
724.26	48545.05
724.44	47756.58
724.63	48383.26
724.82	48272.67
725.01	48489.76
725.19	48074.02
725.38	48129.31
725.57	48114.98
725.76	47947.04
725.94	47891.75
726.13	47820.07
726.32	47828.26
726.51	47945.00
726.69	48024.87
726.88	48043.30
727.07	48104.74
727.25	48051.49
727.44	47863.08
727.63	47906.08
727.82	47949.09
728.00	47990.05
728.19	47869.22
728.38	47695.14
728.56	47174.96
728.75	47949.09
728.94	47795.49
729.12	47611.18
729.31	47527.21
729.50	47392.04
729.69	47742.25
729.87	47121.71
730.06	47465.77
730.25	47635.75
730.43	48084.26
730.62	47564.07
730.81	47815.97
730.99	47519.02
731.18	46830.90
731.37	46890.29
731.55	47449.39
731.74	48020.77
731.93	47637.80
732.11	47594.79
732.30	47447.34
732.49	47398.19
732.67	47418.67
732.86	47166.77
733.05	47555.88
733.23	46382.40
733.42	47293.74
733.61	47424.81
733.79	47146.29
733.98	47381.80
734.17	47115.57
734.35	47086.90
734.54	47279.41
734.73	47809.83
734.91	47596.84
735.10	46847.29
735.29	46964.02
735.47	47136.05
735.66	47201.58
735.84	46839.09
736.03	46951.73
736.22	47142.19
736.40	46634.30
736.59	47318.32
736.78	46863.67
736.96	47134.00
737.15	47340.85
737.33	47015.22
737.52	46865.72
737.71	46822.71
737.89	46957.88
738.08	46679.35
738.27	47125.81
738.45	47076.66
738.64	47019.31
738.82	46597.43
739.01	46912.82
739.20	46753.08
739.38	46642.49
739.57	47117.62
739.75	46740.79
739.94	46409.02
740.13	46300.48
740.31	46550.33
740.50	46591.29
740.68	46363.96
740.87	46544.19
741.06	46650.68
741.24	46515.51
741.43	46366.01
741.61	46464.32
741.80	46312.77
741.99	46535.99
742.17	46560.57
742.36	46503.23
742.54	46247.23
742.73	46320.96
742.91	46116.16
743.10	46193.98
743.29	46458.17
743.47	46345.53
743.66	46347.58
743.84	46495.03
744.03	46243.13
744.21	46437.69
744.40	46634.30
744.59	46081.34
744.77	46052.67
744.96	46368.06
745.14	46665.02
745.33	46226.75
745.51	46294.33
745.70	46040.39
745.88	46003.52
746.07	46157.12
746.26	45794.63
746.44	45581.64
746.63	45718.85
746.81	45985.09
747.00	45667.66
747.18	45831.49
747.37	45571.40
747.55	45786.44
747.74	46232.89
747.92	45786.44
748.11	45849.92
748.29	45796.68
748.48	46275.90
748.66	45530.44
748.85	45774.15
749.03	46007.62
749.22	45716.81
749.41	45786.44
749.59	46044.48
749.78	45788.49
749.96	45174.09
750.15	45223.25
750.33	46241.09
750.52	45729.09
750.70	45841.73
750.89	45423.95
751.07	45337.93
751.26	45434.19
751.44	45331.79
751.63	45432.14
751.81	45507.91
752.00	45301.07
752.18	45522.25
752.37	45186.38
752.55	45000.02
752.74	45405.52
752.92	45280.59
753.10	45438.28
753.29	45380.94
753.47	45466.95
753.66	45112.66
753.84	45186.38
754.03	44987.73
754.21	45200.72
754.40	45198.67
754.58	45088.08
754.77	45200.72
754.95	44891.48
755.14	45292.88
755.32	45102.42
755.51	45057.36
755.69	45047.12
755.88	45129.04
756.06	45145.42
756.24	44971.35
756.43	44731.73
756.61	45077.84
756.80	44918.10
756.98	44193.12
757.17	44512.60
757.35	45161.81
757.54	44631.38
757.72	45014.35
757.90	44432.73
758.09	44201.31
758.27	44551.51
758.46	44375.39
758.64	44537.18
758.83	44950.87
759.01	44660.05
759.19	44922.19
759.38	44408.15
759.56	44582.23
759.75	44422.49
759.93	44479.83
760.12	44031.33
760.30	44514.65
760.48	44459.35
760.67	44549.46
760.85	44705.11
761.04	44553.56
761.22	44397.91
761.40	44528.98
761.59	44430.68
761.77	44176.73
761.96	44369.24
762.14	44385.63
762.32	43662.69
762.51	44096.86
762.69	44236.12
762.88	44377.43
763.06	43984.22
763.24	44291.42
763.43	44471.64
763.61	44150.11
763.80	44121.44
763.98	44084.58
764.16	43912.55
764.35	43890.02
764.53	43349.35
764.72	43439.47
764.90	43668.84
765.08	43541.86
765.27	43777.38
765.45	43687.27
765.63	43382.12
765.82	44109.15
766.00	43517.29
766.18	43341.16
766.37	43695.46
766.55	43193.71
766.74	43572.58
766.92	43283.82
767.10	43220.33
767.29	43535.72
767.47	42950.00
767.65	43328.87
767.84	42837.36
768.02	43498.86
768.20	42726.77
768.39	43062.64
768.57	43281.77
768.75	42904.95
768.94	42577.27
769.12	43226.48
769.30	42788.21
769.49	42540.41
769.67	43148.65
769.85	42794.36
770.04	42728.82
770.22	42661.24
770.40	42599.80
770.59	42257.79
770.77	42890.61
770.95	42872.18
771.14	42489.21
771.32	42399.10
771.50	41915.78
771.69	42098.05
771.87	42538.36
772.05	42468.73
772.24	42161.53
772.42	42388.86
772.60	42263.93
772.78	42050.94
772.97	42124.67
773.15	42589.56
773.33	42218.88
773.52	42468.73
773.70	42345.85
773.88	42382.71
774.07	41946.50
774.25	42165.63
774.43	42487.16
774.61	42104.19
774.80	42440.06
774.98	42476.92
775.16	42560.89
775.34	42300.79
775.53	42128.77
775.71	42503.54
775.89	42481.02
776.08	42034.56
776.26	42458.49
776.44	42521.98
776.62	42315.13
776.81	42091.90
776.99	42235.26
777.17	41997.70
777.35	42468.73
777.54	42593.65
777.72	42372.47
777.90	42325.37
778.08	42833.27
778.27	42706.29
778.45	42554.74
778.63	42847.60
778.81	42560.89
779.00	43173.23
779.18	42579.32
779.36	43259.24
779.54	42962.29
779.73	43103.60
779.91	43238.76
780.09	43056.50
780.27	43048.30
780.46	42880.37
780.64	43206.00
780.82	42607.99
781.00	42612.09
781.19	43427.18
781.37	43062.64
781.55	43068.78
781.73	43609.45
781.91	42794.36
782.10	43505.00
782.28	43388.27
782.46	43625.83
782.64	43838.82
782.82	42851.70
783.01	43679.08
783.19	43396.46
783.37	43367.79
783.55	43394.41
783.74	43505.00
783.92	43427.18
784.10	43586.92
784.28	43394.41
784.46	43158.89
784.64	43087.21
784.83	43554.15
785.01	43449.70
785.19	43416.94
785.37	43785.57
785.55	43214.19
785.74	43036.02
785.92	43251.05
786.10	43554.15
786.28	43117.93
786.46	42937.71
786.64	43001.20
786.83	43011.44
787.01	43064.69
787.19	43255.15
787.37	43179.37
787.55	42636.66
787.74	42771.83
787.92	42825.07
788.10	42820.98
788.28	42450.30
788.46	42476.92
788.64	42231.16
788.82	42780.02
789.01	42351.99
789.19	42454.39
789.37	41729.41
789.55	42270.08
789.73	41835.91
789.91	42063.23
790.09	42014.08
790.28	41811.33
790.46	41518.47
790.64	42075.52
790.82	41762.18
791.00	41541.00
791.18	41561.48
791.36	41885.06
791.55	41649.54
791.73	41405.83
791.91	41076.11
792.09	41698.69
792.27	41213.32
792.45	41219.47
792.63	41176.46
792.81	41477.51
793.00	41006.48
793.18	40816.02
793.36	41080.21
793.54	40730.00
793.72	40936.85
793.90	40783.25
794.08	40959.38
794.26	40498.58
794.44	40156.57
794.62	40187.29
794.81	39753.12
794.99	40023.45
795.17	40281.50
795.35	40113.56
795.53	39982.49
795.71	39986.59
795.89	39402.92
796.07	39609.76
796.25	39380.39
796.43	39163.31
796.61	38983.09
796.80	39130.54
796.98	39118.25
797.16	39052.72
797.34	39169.45
797.52	38876.59
797.70	39259.56
797.88	38696.37
798.06	38569.40
798.24	38624.69
798.42	38462.90
798.60	38262.20
798.78	38069.69
798.96	38684.08
799.14	37801.41
799.32	37950.91
799.51	38112.70
799.69	38213.05
799.87	37836.22
800.05	37410.25
800.23	37651.91
800.41	37443.01
800.59	37467.59
800.77	37082.57
800.95	37088.71
801.13	37180.87
801.31	36941.26
801.49	36836.81
801.67	36595.15
801.85	36767.18
802.03	36398.55
802.21	36326.87
802.39	36322.77
802.57	36595.15
802.75	36468.18
802.93	35909.08
803.11	35710.43
803.29	35669.47
803.47	35814.88
803.65	35706.34
803.83	35468.77
804.01	35581.41
804.19	35487.20
804.37	35349.99
804.55	35448.29
804.73	35270.12
804.91	35210.73
805.09	35124.71
805.27	35517.92
805.45	34881.00
805.63	35014.12
805.81	34776.56
805.99	34668.02
806.17	34895.34
806.35	34735.60
806.53	34338.29
806.71	34211.32
806.89	34131.45
807.07	34428.40
807.25	34391.54
807.43	33949.18
807.61	34149.88
807.79	34221.56
807.97	33936.89
808.15	33981.95
808.33	33719.81
808.51	33598.98
808.69	33932.79
808.87	33615.36
809.05	33426.95
809.23	33224.20
809.41	33394.18
809.59	33144.33
809.77	33230.34
809.95	33259.01
810.13	33183.24
810.31	32962.06
810.49	33150.47
810.67	32896.52
810.84	32812.56
811.02	32577.04
811.20	32480.78
811.38	32601.61
811.56	32087.57
811.74	32327.19
811.92	32280.08
812.10	32235.03
812.28	32368.15
812.46	32228.88
812.64	32503.31
812.82	31751.71
813.00	31954.46
813.18	31999.51
813.36	31534.62
813.53	31530.53
813.71	31784.48
813.89	31372.83
814.07	31538.72
814.25	31622.69
814.43	31176.23
814.61	31321.63
814.79	31032.87
814.97	31260.20
815.15	30907.94
815.33	31135.27
815.50	31000.10
815.68	31008.29
815.86	31260.20
816.04	30905.90
816.22	30608.94
816.40	31235.62
816.58	30350.90
816.76	30148.15
816.94	30567.98
817.11	30492.21
817.29	30711.34
817.47	30088.76
817.65	29861.43
817.83	30228.02
818.01	30012.98
818.19	30021.17
818.37	30099.00
818.54	29601.34
818.72	29677.12
818.90	29892.15
819.08	29896.25
819.26	29787.71
819.44	29349.44
819.62	29482.56
819.80	29810.23
819.97	29765.18
820.15	29437.50
820.33	29423.17
820.51	29517.37
820.69	29279.81
820.87	29761.08
821.05	29609.53
821.22	29216.32
821.40	28968.52
821.58	28859.98
821.76	28876.36
821.94	28786.25
822.12	29109.83
822.29	28730.95
822.47	28479.05
822.65	28755.53
822.83	28636.75
823.01	28726.86
823.19	28415.57
823.36	28042.84
823.54	28474.96
823.72	28431.95
823.90	28098.13
824.08	27989.59
824.25	28071.51
824.43	27942.49
824.61	27711.07
824.79	28108.37
824.97	27649.63
825.15	28016.21
825.32	28032.60
825.50	27676.25
825.68	27553.37
825.86	27549.28
826.04	27926.10
826.21	27604.57
826.39	27655.77
826.57	27342.43
826.75	27186.79
826.93	27557.47
827.10	27170.40
827.28	27549.28
827.46	27459.16
827.64	27471.45
827.81	27309.66
827.99	27356.77
828.17	27266.66
828.35	27117.15
828.53	27061.86
828.70	27076.19
828.88	27096.67
829.06	27248.22
829.24	27207.26
829.41	26904.17
829.59	26719.85
829.77	26793.58
829.95	26586.73
830.12	26769.00
830.30	26766.95
830.48	26678.89
830.66	26486.38
830.84	26537.58
831.01	26369.65
831.19	26474.09
831.37	26230.38
831.55	26183.28
831.72	26314.35
831.90	26629.74
832.08	26410.60
832.25	26187.38
832.43	26279.54
832.61	26066.55
832.79	25898.61
832.96	26134.13
833.14	26234.48
833.32	26257.01
833.50	26306.16
833.67	25912.95
833.85	26054.26
834.03	25785.97
834.20	25798.26
834.38	25888.37
834.56	25783.93
834.74	25693.82
834.91	25691.77
835.09	25779.83
835.27	25153.15
835.44	25540.22
835.62	25417.34
835.80	25321.09
835.98	25466.49
836.15	25552.51
836.33	25312.89
836.51	25380.48
836.68	25024.13
836.86	25155.20
837.04	25319.04
837.21	25470.59
837.39	25087.62
837.57	25308.80
837.75	25185.92
837.92	24696.46
838.10	25157.25
838.28	25063.04
838.45	24944.26
838.63	24782.47
838.81	25079.43
838.98	24946.31
839.16	24872.58
839.34	24798.85
839.51	24624.78
839.69	24452.75
839.87	24800.90
840.04	24446.60
840.22	24981.12
840.40	24483.47
840.57	24608.39
840.75	24485.51
840.93	24094.35
841.10	24415.88
841.28	24573.58
841.46	24374.92
841.63	24397.45
841.81	24360.59
841.98	24215.18
842.16	24495.75
842.34	24256.14
842.51	23930.51
842.69	24393.36
842.87	24112.78
843.04	24163.98
843.22	23965.33
843.40	23969.43
843.57	23631.51
843.75	24213.13
843.92	24090.26
844.10	23887.51
844.28	24141.46
844.45	23793.30
844.63	23672.47
844.81	23797.40
844.98	23729.81
845.16	23436.95
845.33	23676.57
845.51	23525.02
845.69	23574.17
845.86	23699.09
846.04	23350.94
846.21	23412.38
846.39	23469.72
846.57	23557.78
846.74	23574.17
846.92	23348.89
847.09	23383.71
847.27	23314.08
847.45	23574.17
847.62	23660.18
847.80	23293.60
847.97	23389.85
848.15	23217.82
848.32	22965.92
848.50	23236.25
848.68	22767.27
848.85	23074.46
849.03	22943.39
849.20	22888.10
849.38	23146.14
849.56	22843.04
849.73	22660.77
849.91	22830.76
850.08	22855.33
850.26	22759.08
850.43	22855.33
850.61	22838.95
850.78	22765.22
850.96	22832.80
851.14	22585.00
851.31	23094.94
851.49	22945.44
851.66	22890.15
851.84	22730.41
852.01	22771.36
852.19	22679.21
852.36	22605.48
852.54	22797.99
852.71	22699.69
852.89	22509.22
853.07	22249.13
853.24	22615.72
853.42	22470.31
853.59	21997.23
853.77	22257.32
853.94	22437.55
854.12	22388.39
854.29	22324.91
854.47	22038.19
854.64	22310.57
854.82	22144.69
854.99	22259.37
855.17	22138.54
855.34	22312.62
855.52	22013.62
855.69	22255.28
855.87	22025.90
856.04	21731.00
856.22	21817.01
856.39	21657.27
856.57	22046.38
856.74	21829.30
856.92	21827.25
857.09	21642.93
857.27	21868.21
857.44	21692.08
857.62	21722.80
857.79	21579.45
857.97	21786.29
858.14	21819.06
858.32	21720.76
858.49	21485.24
858.67	21665.46
858.84	21579.45
859.02	22009.52
859.19	21540.54
859.37	21438.14
859.54	21540.54
859.72	21544.63
859.89	21434.04
860.06	21542.58
860.24	21454.52
860.41	21759.67
860.59	21409.47
860.76	21573.30
860.94	20942.53
861.11	21354.17
861.29	21212.86
861.46	21292.73
861.64	21055.17
861.81	21206.72
861.98	21345.98
862.16	21329.59
862.33	20790.98
862.51	20864.71
862.68	20969.15
862.86	20977.34
863.03	20954.82
863.21	21059.26
863.38	20924.10
863.55	20889.28
863.73	20922.05
863.90	21077.69
864.08	20827.84
864.25	21034.69
864.43	20608.71
864.60	20633.29
864.77	20727.49
864.95	20661.96
865.12	20338.38
865.30	20805.31
865.47	20563.65
865.64	20657.86
865.82	20573.89
865.99	20692.68
866.17	20631.24
866.34	20760.26
866.51	20250.32
866.69	20733.64
866.86	20549.32
867.04	20397.77
867.21	20418.25
867.38	20340.43
867.56	20448.97
867.73	20133.58
867.91	19957.46
868.08	20223.69
868.25	20172.49
868.43	20516.55
868.60	20104.91
868.78	20055.76
868.95	20287.18
869.12	20084.43
869.30	19810.00
869.47	20182.73
869.64	19680.98
869.82	20102.86
869.99	20248.27
870.16	20068.05
870.34	19664.60
870.51	20137.68
870.69	19592.92
870.86	19801.81
871.03	19463.90
871.21	19594.96
871.38	19719.89
871.55	19605.20
871.73	19617.49
871.90	19369.69
872.07	19246.81
872.25	19089.12
872.42	19517.14
872.59	19341.02
872.77	19121.88
872.94	19318.49
873.11	19408.60
873.29	19277.53
873.46	19281.63
873.63	19179.23
873.81	19187.42
873.98	19138.27
874.15	18994.91
874.33	18976.48
874.50	18839.26
874.67	18912.99
874.85	18874.08
875.02	18589.41
875.19	18675.43
875.37	18999.01
875.54	19082.97
875.71	18763.49
875.88	18745.06
876.06	18695.91
876.23	18808.54
876.40	18620.13
876.58	18726.63
876.75	18517.73
876.92	18378.47
877.10	18591.46
877.27	18462.44
877.44	18376.42
877.61	18353.90
877.79	18380.52
877.96	18214.63
878.13	18437.86
878.31	18415.34
878.48	18212.59
878.65	18302.70
878.82	17809.14
879.00	18286.31
879.17	18089.71
879.34	17977.07
879.51	17985.26
879.69	17991.41
879.86	17897.20
880.03	17911.53
880.21	17764.08
880.38	17796.85
880.55	18050.80
880.72	17846.00
880.90	17886.96
881.07	17753.84
881.24	17606.39
881.41	17837.81
881.59	17829.62
881.76	17751.79
881.93	17508.08
882.10	17665.78
882.28	17549.04
882.45	17731.31
882.62	17694.45
882.79	17821.42
882.96	17254.14
883.14	17665.78
883.31	17581.81
883.48	17528.56
883.65	17549.04
883.83	17446.65
884.00	17622.77
884.17	17485.56
884.34	17497.84
884.51	17444.60
884.69	17301.24
884.86	17379.06
885.03	17368.82
885.20	17073.92
885.38	17319.67
885.55	17215.23
885.72	17284.86
885.89	17243.90
886.06	17368.82
886.24	17252.09
886.41	17000.19
886.58	17272.57
886.75	17456.89
886.92	16860.93
887.10	17149.69
887.27	16946.94
887.44	17161.98
887.61	17286.90
887.78	17155.83
887.95	17305.34
888.13	17053.44
888.30	16840.45
888.47	16707.33
888.64	16813.82
888.81	16768.77
888.99	16748.29
889.16	16660.23
889.33	16647.94
889.50	16617.22
889.67	16408.33
889.84	16588.55
890.01	16656.13
890.19	16488.20
890.36	16889.60
890.53	16549.64
890.70	16387.85
890.87	16633.60
891.04	16455.43
891.22	16375.56
891.39	16434.95
891.56	16355.08
891.73	16400.13
891.90	16396.04
892.07	16357.13
892.24	16262.92
892.42	15933.20
892.59	16215.82
892.76	16195.34
892.93	16187.14
893.10	16203.53
893.27	16393.99
893.44	16117.51
893.61	16197.38
893.79	16189.19
893.96	16166.67
894.13	16140.04
894.30	16064.27
894.47	15867.66
894.64	16330.50
894.81	15789.84
894.98	16273.16
895.15	16064.27
895.33	15908.62
895.50	15994.64
895.67	16254.73
895.84	15963.92
896.01	16011.02
896.18	15968.01
896.35	16070.41
896.52	15994.64
896.69	15957.77
896.86	15806.22
897.04	15939.34
897.21	16021.26
897.38	16068.36
897.55	16006.92
897.72	16197.38
897.89	15666.96
898.06	16058.12
898.23	16045.84
898.40	15871.76
898.57	15910.67
898.74	15869.71
898.91	15955.72
899.08	15980.30
899.26	15859.47
899.43	15816.46
899.60	15828.75
899.77	15968.01
899.94	15892.24
900.11	15738.64
900.28	15820.56
900.45	15603.47
900.62	15703.82
900.79	15705.87
900.96	15847.18
901.13	15783.70
901.30	15585.04
901.47	15662.86
901.64	15759.12
901.81	15785.74
901.98	15861.52
902.15	15953.68
902.32	15814.41
902.49	15763.22
902.66	15890.19
902.83	15777.55
903.01	15705.87
903.18	15814.41
903.35	15763.22
903.52	15853.33
903.69	15568.66
903.86	15888.14
904.03	15787.79
904.20	16043.79
904.37	15931.15
904.54	15863.57
904.71	15662.86
904.88	15777.55
905.05	15898.38
905.22	16002.83
905.39	15734.54
905.56	15873.81
905.73	15841.04
905.90	15945.48
906.07	15775.50
906.24	15771.41
906.41	15535.89
906.58	15697.68
906.75	15632.15
906.92	15701.78
907.09	15687.44
907.26	15683.34
907.43	15539.99
907.60	15499.03
907.77	15861.52
907.93	15687.44
908.10	15855.37
908.27	15970.06
908.44	15722.26
908.61	15542.03
908.78	15822.61
908.95	15521.56
909.12	15648.53
909.29	15462.16
909.46	15601.43
909.63	15724.30
909.80	15433.49
909.97	15556.37
910.14	15464.21
910.31	15548.18
910.48	15470.36
910.65	15398.68
910.82	15402.77
910.99	15449.88
911.16	15316.76
911.33	15312.66
911.50	15435.54
911.66	15247.13
911.83	15617.81
912.00	15460.12
912.17	15322.90
912.34	15163.16
912.51	15210.26
912.68	15261.46
912.85	15200.02
913.02	14944.03
913.19	15013.66
913.36	15333.14
913.53	15142.68
913.70	15073.05
913.86	15355.67
914.03	15173.40
914.20	15001.37
914.37	14917.40
914.54	14804.77
914.71	15011.61
914.88	14888.73
915.05	14731.04
915.22	14681.89
915.39	14745.38
915.55	14821.15
915.72	14655.26
915.89	14657.31
916.06	14702.37
916.23	14765.85
916.40	14579.49
916.57	14499.62
916.74	14389.03
916.91	14374.69
917.07	14473.00
917.24	14401.32
917.41	14454.56
917.58	14288.68
917.75	14528.29
917.92	14001.96
918.09	14294.82
918.26	13979.43
918.42	14427.94
918.59	14247.72
918.76	14061.35
918.93	13815.60
919.10	14165.80
919.27	13956.91
919.44	14135.08
919.60	13879.08
919.77	13690.67
919.94	13592.37
920.11	13713.20
920.28	13778.73
920.45	13748.01
920.61	13770.54
920.78	13672.24
920.95	13573.94
921.12	13606.70
921.29	13537.07
921.46	13516.59
921.62	13113.14
921.79	13446.96
921.96	13193.01
922.13	13139.77
922.30	13008.70
922.47	13086.52
922.63	12914.49
922.80	13084.47
922.97	13180.73
923.14	12670.78
923.31	12902.20
923.47	13033.27
923.64	13049.66
923.81	12590.91
923.98	12691.26
924.15	12795.71
924.32	12607.30
924.48	12658.49
924.65	12689.21
924.82	12457.79
924.99	12230.47
925.15	12308.29
925.32	12472.13
925.49	12017.48
925.66	12261.19
925.83	12150.60
925.99	12177.22
926.16	12173.13
926.33	12017.48
926.50	11687.76
926.67	12113.74
926.83	11829.07
927.00	11933.51
927.17	11974.47
927.34	11704.14
927.50	11863.88
927.67	11923.27
927.84	11882.31
928.01	11654.99
928.17	11556.69
928.34	11472.72
928.51	11267.92
928.68	11308.88
928.84	11360.08
929.01	11259.73
929.18	11061.08
929.35	11114.33
929.51	11255.64
929.68	11030.36
929.85	11022.17
930.02	10817.37
930.18	11147.09
930.35	10950.49
930.52	10745.69
930.69	11013.98
930.85	10764.12
931.02	10694.49
931.19	10714.97
931.36	10620.77
931.52	10581.85
931.69	10680.16
931.86	10420.06
932.02	10473.31
932.19	10608.48
932.36	10264.42
932.53	10340.19
932.69	10110.82
932.86	10332.00
933.03	10260.32
933.19	9738.09
933.36	10168.16
933.53	9877.35
933.70	9957.22
933.86	9959.27
934.03	9723.76
934.20	9734.00
934.36	9705.32
934.53	9553.77
934.70	9516.91
934.86	9475.95
935.03	9418.61
935.20	9338.74
935.36	9432.94
935.53	9246.58
935.70	9011.06
935.86	9070.45
936.03	8990.58
936.20	8877.94
936.36	8722.30
936.53	8898.42
936.70	8802.17
936.86	8875.90
937.03	8576.89
937.20	8568.70
937.36	8603.52
937.53	8155.01
937.70	8161.16
937.86	7966.60
938.03	7980.93
938.20	8073.09
938.36	7757.71
938.53	7827.34
938.70	7655.31
938.86	7628.68
939.03	7516.05
939.20	7487.37
939.36	7516.05
939.53	7298.96
939.70	7565.20
939.86	7131.03
940.03	7126.93
940.19	6879.13
940.36	6909.85
940.53	6975.38
940.69	6682.52
940.86	6578.08
941.03	6657.95
941.19	6547.36
941.36	6678.43
941.52	6481.82
941.69	6277.02
941.86	6262.69
942.02	6408.09
942.19	6129.57
942.35	6215.59
942.52	6064.04
942.69	6064.04
942.85	5967.78
943.02	5867.43
943.18	5885.86
943.35	5894.05
943.52	5822.38
943.68	5889.96
943.85	5910.44
944.01	5715.88
944.18	5629.87
944.35	5656.49
944.51	5572.52
944.68	5566.38
944.84	5433.26
945.01	5564.33
945.17	5556.14
945.34	5644.20
945.51	5629.87
945.67	5357.49
945.84	5433.26
946.00	5361.58
946.17	5461.93
946.33	5396.40
946.50	5326.77
946.67	5423.02
946.83	5347.25
947.00	5402.54
947.16	5463.98
947.33	5433.26
947.49	5480.36
947.66	5343.15
947.82	5353.39
947.99	5363.63
948.16	5355.44
948.32	5265.33
948.49	5394.35
948.65	5410.73
948.82	5298.10
948.98	5343.15
949.15	5328.81
949.31	5365.68
949.48	5429.17
949.64	5326.77
949.81	5451.69
949.97	5347.25
950.14	5435.31
950.30	5287.86
950.47	5343.15
950.63	5365.68
950.80	5361.58
950.96	5345.20
951.13	5377.97
951.30	5353.39
951.46	5296.05
951.63	5435.31
951.79	5472.17
951.96	5363.63
952.12	5529.52
952.29	5531.56
952.45	5429.17
952.62	5347.25
952.78	5373.87
952.94	5308.34
953.11	5302.19
953.27	5412.78
953.44	5498.80
953.60	5447.60
953.77	5523.37
953.93	5584.81
954.10	5377.97
954.26	5484.46
954.43	5347.25
954.59	5572.52
954.76	5457.84
954.92	5660.59
955.09	5560.24
955.25	5326.77
955.42	5435.31
955.58	5537.71
955.75	5595.05
955.91	5463.98
956.07	5509.04
956.24	5558.19
956.40	5459.88
956.57	5531.56
956.73	5369.77
956.90	5504.94
957.06	5423.02
957.23	5506.99
957.39	5273.52
957.56	5683.11
957.72	5472.17
957.88	5441.45
958.05	5597.10
958.21	5738.41
958.38	5466.03
958.54	5423.02
958.71	5451.69
958.87	5459.88
959.03	5527.47
959.20	5418.93
959.36	5486.51
959.53	5433.26
959.69	5367.73
959.85	5398.45
960.02	5562.28
960.18	5449.64
960.35	5500.84
960.51	5597.10
960.68	5359.53
960.84	5566.38
961.00	5480.36
961.17	5404.59
961.33	5410.73
961.50	5472.17
961.66	5535.66
961.82	5449.64
961.99	5377.97
962.15	5459.88
962.31	5488.56
962.48	5455.79
962.64	5494.70
962.81	5449.64
962.97	5484.46
963.13	5406.64
963.30	5406.64
963.46	5523.37
963.62	5246.90
963.79	5380.01
963.95	5398.45
964.12	5500.84
964.28	5582.76
964.44	5582.76
964.61	5373.87
964.77	5296.05
964.93	5488.56
965.10	5343.15
965.26	5263.28
965.42	5306.29
965.59	5173.17
965.75	5218.22
965.92	5437.36
966.08	5277.62
966.24	5203.89
966.41	5207.98
966.57	5226.42
966.73	5285.81
966.90	5187.50
967.06	5242.80
967.22	5115.83
967.39	5132.21
967.55	5181.36
967.71	5203.89
967.88	5148.59
968.04	5236.66
968.20	5083.06
968.37	5353.39
968.53	5095.35
968.69	5181.36
968.85	5081.01
969.02	5064.63
969.18	5277.62
969.34	5083.06
969.51	5121.97
969.67	5105.59
969.83	4976.56
970.00	5117.87
970.16	5140.40
970.32	5076.91
970.48	5072.82
970.65	4986.80
970.81	4974.52
970.97	5056.43
971.14	4937.65
971.30	5150.64
971.46	5044.15
971.63	4925.36
971.79	5099.44
971.95	4974.52
972.11	4765.62
972.28	4935.60
972.44	4919.22
972.60	4841.40
972.76	4915.12
972.93	4882.36
973.09	4954.04
973.25	4943.80
973.42	4833.21
973.58	4964.28
973.74	4865.97
973.90	4861.88
974.07	4849.59
974.23	4786.10
974.39	4734.90
974.55	4761.53
974.72	4831.16
974.88	4743.10
975.04	4865.97
975.20	4825.01
975.37	4775.86
975.53	4704.18
975.69	4904.89
975.85	4642.75
976.01	4794.29
976.18	4677.56
976.34	4681.66
976.50	4661.18
976.66	4706.23
976.83	4534.20
976.99	4626.36
977.15	4569.02
977.31	4505.53
977.47	4628.41
977.64	4652.98
977.80	4536.25
977.96	4566.97
978.12	4503.48
978.29	4511.68
978.45	4450.24
978.61	4396.99
978.77	4593.59
978.93	4396.99
979.10	4652.98
979.26	4497.34
979.42	4571.07
979.58	4288.45
979.74	4460.48
979.91	4382.65
980.07	4362.17
980.23	4425.66
980.39	4431.80
980.55	4419.52
980.71	4425.66
980.88	4325.31
981.04	4296.64
981.20	4448.19
981.36	4321.21
981.52	4231.10
981.68	4267.97
981.85	4335.55
982.01	4335.55
982.17	4276.16
982.33	4378.56
982.49	4433.85
982.65	4270.01
982.82	4169.66
982.98	4284.35
983.14	4198.34
983.30	4216.77
983.46	4353.98
983.62	4200.38
983.79	4253.63
983.95	4177.86
984.11	4134.85
984.27	4173.76
984.43	4140.99
984.59	4177.86
984.75	4212.67
984.91	4153.28
985.08	4061.12
985.24	4079.55
985.40	4014.02
985.56	4097.99
985.72	4188.10
985.88	4163.52
986.04	3993.54
986.20	4038.59
986.37	3995.59
986.53	4005.83
986.69	4184.00
986.85	3911.62
987.01	3928.00
987.17	4046.79
987.33	3882.95
987.49	3911.62
987.65	3989.44
987.82	3977.16
987.98	3823.56
988.14	3878.85
988.30	3960.77
988.46	3864.52
988.62	3928.00
988.78	3921.86
988.94	3891.14
989.10	3868.61
989.26	3809.22
989.42	3755.97
989.59	3809.22
989.75	3710.92
989.91	3833.80
990.07	3694.54
990.23	3780.55
990.39	3780.55
990.55	3790.79
990.71	3665.86
990.87	3751.88
991.03	3755.97
991.19	3672.01
991.35	3690.44
991.51	3772.36
991.67	3764.17
991.83	3684.30
992.00	3719.11
992.16	3682.25
992.32	3616.71
992.48	3729.35
992.64	3526.60
992.80	3717.06
992.96	3635.14
993.12	3692.49
993.28	3659.72
993.44	3553.23
993.60	3647.43
993.76	3590.09
993.92	3557.32
994.08	3700.68
994.24	3514.31
994.40	3483.59
994.56	3553.23
994.72	3563.47
994.88	3538.89
995.04	3649.48
995.20	3467.21
995.36	3463.12
995.52	3577.80
995.68	3583.95
995.84	3465.16
996.00	3629.00
996.16	3407.82
996.32	3395.53
996.48	3506.12
996.64	3471.31
996.80	3416.01
996.96	3461.07
997.12	3241.93
997.28	3239.89
997.44	3383.24
997.60	3370.96
997.76	3334.09
997.92	3424.20
998.08	3336.14
998.24	3317.71
998.40	3301.33
998.56	3243.98
998.72	3239.89
998.88	3264.46
999.04	3243.98
999.20	3436.49
999.36	3248.08
999.52	3411.92
999.68	3213.26
999.84	3286.99
1000.00	3239.89
1000.16	3141.58
1000.32	3211.22
1000.48	3289.04
1000.64	3164.11
1000.80	3114.96
1000.95	3137.49
1001.11	3188.69
1001.27	3014.61
1001.43	3250.13
1001.59	3160.02
1001.75	3121.10
1001.91	3127.25
1002.07	3170.26
1002.23	3084.24
1002.39	3059.67
1002.55	3030.99
1002.71	3094.48
1002.87	3074.00
1003.03	3000.27
1003.19	3092.43
1003.34	3098.58
1003.50	3018.71
1003.66	3084.24
1003.82	3074.00
1003.98	3035.09
1004.14	3074.00
1004.30	3004.37
1004.46	2944.98
1004.62	2990.03
1004.78	2932.69
1004.94	2973.65
1005.09	3045.33
1005.25	2996.18
1005.41	3006.42
1005.57	2981.84
1005.73	2899.92
1005.89	2877.40
1006.05	2910.16
1006.21	3047.38
1006.37	2973.65
1006.52	2951.12
1006.68	2895.83
1006.84	2928.60
1007.00	2799.57
1007.16	2924.50
1007.32	2904.02
1007.48	2914.26
1007.64	2942.93
1007.79	2869.20
1007.95	2891.73
1008.11	2854.87
1008.27	2815.96
1008.43	2854.87
1008.59	2734.04
1008.75	2887.64
1008.91	2756.57
1009.06	2791.38
1009.22	2785.24
1009.38	2795.48
1009.54	2770.90
1009.70	2865.11
1009.86	2836.44
1010.01	2760.66
1010.17	2676.70
1010.33	2789.33
1010.49	2744.28
1010.65	2820.05
1010.81	2705.37
1010.96	2783.19
1011.12	2619.35
1011.28	2641.88
1011.44	2779.09
1011.60	2703.32
1011.76	2680.79
1011.91	2637.78
1012.07	2621.40
1012.23	2586.58
1012.39	2650.07
1012.55	2627.54
1012.71	2701.27
1012.86	2652.12
1013.02	2605.02
1013.18	2627.54
1013.34	2519.00
1013.50	2672.60
1013.65	2568.15
1013.81	2578.39
1013.97	2535.39
1014.13	2600.92
1014.29	2539.48
1014.44	2680.79
1014.60	2605.02
1014.76	2535.39
1014.92	2600.92
1015.07	2504.67
1015.23	2631.64
1015.39	2475.99
1015.55	2570.20
1015.71	2408.41
1015.86	2459.61
1016.02	2504.67
1016.18	2424.80
1016.34	2490.33
1016.49	2453.47
1016.65	2543.58
1016.81	2342.88
1016.97	2549.72
1017.12	2514.91
1017.28	2336.73
1017.44	2396.12
1017.60	2398.17
1017.75	2344.92
1017.91	2541.53
1018.07	2502.62
1018.23	2392.03
1018.38	2410.46
1018.54	2377.69
1018.70	2367.45
1018.86	2406.36
1019.01	2398.17
1019.17	2381.79
1019.33	2467.80
1019.49	2367.45
1019.64	2445.27
1019.80	2312.16
1019.96	2428.89
1020.12	2398.17
1020.27	2359.26
1020.43	2385.88
1020.59	2303.96
1020.74	2404.32
1020.90	2389.98
1021.06	2271.20
1021.22	2400.22
1021.37	2291.68
1021.53	2312.16
1021.69	2363.36
1021.84	2322.40
1022.00	2363.36
1022.16	2303.96
1022.31	2281.44
1022.47	2404.32
1022.63	2314.20
1022.79	2230.24
1022.94	2197.47
1023.10	2279.39
1023.26	2217.95
1023.41	2353.12
1023.57	2189.28
1023.73	2303.96
1023.88	2250.72
1024.04	2170.85
1024.20	2220.00
1024.35	2271.20
1024.51	2363.36
1024.67	2115.55
1024.82	2295.77
1024.98	2207.71
1025.14	2232.29
1025.29	2133.98
1025.45	2271.20
1025.61	2181.09
1025.76	2267.10
1025.92	2199.52
1026.08	2201.57
1026.23	2199.52
1026.39	2353.12
1026.55	2176.99
1026.70	2168.80
1026.86	2181.09
1027.02	2222.05
1027.17	2228.19
1027.33	2240.48
1027.48	2082.78
1027.64	2146.27
1027.80	2103.26
1027.95	2168.80
1028.11	2072.54
1028.27	2164.70
1028.42	2166.75
1028.58	2068.45
1028.73	2158.56
1028.89	2007.01
1029.05	2183.13
1029.20	2150.37
>>>>>End Processed Spectral Data<<<<<
