SpectraSuite Data File
++++++++++++++++++++++++++++++++++++
Date: Fri Jun 02 14:44:33 CEST 2017
User: INFO_000
Dark Spectrum Present: No
Reference Spectrum Present: No
Number of Sampled Component Spectra: 1
Spectrometers: USB4H00879
Integration Time (usec): 80000 (USB4H00879)
Spectra Averaged: 1 (USB4H00879)
Boxcar Smoothing: 0 (USB4H00879)
Correct for Electrical Dark: No (USB4H00879)
Strobe/Lamp Enabled: No (USB4H00879)
Correct for Detector Non-linearity: No (USB4H00879)
Correct for Stray Light: No (USB4H00879)
Number of Pixels in Processed Spectrum: 3648
>>>>>Begin Processed Spectral Data<<<<<
345.13	1271.79
345.34	1271.79
345.56	1271.79
345.78	1306.60
345.99	1312.75
346.21	1638.38
346.42	1681.38
346.64	1638.38
346.86	1816.55
347.07	1652.71
347.29	1687.53
347.50	1628.14
347.72	1662.95
347.94	1748.97
348.15	1507.30
348.37	1689.57
348.59	1691.62
348.80	1662.95
349.02	1755.11
349.23	1902.56
349.45	1800.16
349.67	1863.65
349.88	1763.30
350.10	1964.00
350.31	1845.22
350.53	1810.40
350.75	1992.67
350.96	1847.27
351.18	1861.60
351.39	1808.36
351.61	1806.31
351.82	1884.13
352.04	1949.67
352.26	1755.11
352.47	1937.38
352.69	1908.71
352.90	1781.73
353.12	1757.16
353.34	1877.99
353.55	1976.29
353.77	1880.04
353.98	1837.03
354.20	1818.60
354.41	1972.19
354.63	1961.95
354.85	1978.34
355.06	1935.33
355.28	1755.11
355.49	1933.28
355.71	1888.23
355.92	1912.80
356.14	1882.08
356.35	1910.75
356.57	1871.84
356.79	1949.67
357.00	1953.76
357.22	1943.52
357.43	1968.10
357.65	1949.67
357.86	1863.65
358.08	1814.50
358.29	1949.67
358.51	1953.76
358.72	1988.58
358.94	1941.47
359.16	1941.47
359.37	1966.05
359.59	1992.67
359.80	2007.01
360.02	1914.85
360.23	1994.72
360.45	1978.34
360.66	1925.09
360.88	1855.46
361.09	1976.29
361.31	2015.20
361.52	1884.13
361.74	2009.06
361.95	2062.30
362.17	1937.38
362.38	2025.44
362.60	2064.35
362.81	1937.38
363.03	1945.57
363.24	1996.77
363.46	2095.07
363.67	2045.92
363.89	2056.16
364.10	2029.54
364.32	1929.19
364.53	2078.69
364.75	1892.32
364.96	1945.57
365.18	2070.50
365.39	2037.73
365.61	1957.86
365.82	2123.74
366.04	1996.77
366.25	1886.18
366.47	2068.45
366.68	2023.39
366.90	1990.63
367.11	2133.98
367.33	2043.87
367.54	2080.74
367.76	2007.01
367.97	2060.26
368.19	2023.39
368.40	2090.98
368.62	2000.87
368.83	2009.06
369.05	2043.87
369.26	2056.16
369.48	1986.53
369.69	2054.11
369.91	2031.58
370.12	1929.19
370.33	2050.02
370.55	2019.30
370.76	2023.39
370.98	2142.18
371.19	2088.93
371.41	2017.25
371.62	2076.64
371.84	2043.87
372.05	2166.75
372.27	2031.58
372.48	2009.06
372.69	2133.98
372.91	2133.98
373.12	2189.28
373.34	2023.39
373.55	2131.94
373.77	2148.32
373.98	2109.41
374.20	2166.75
374.41	2273.25
374.62	2095.07
374.84	2240.48
375.05	2160.61
375.27	2150.37
375.48	2236.38
375.70	2203.61
375.91	2273.25
376.12	2222.05
376.34	2154.46
376.55	2150.37
376.77	2228.19
376.98	2195.42
377.19	2209.76
377.41	2154.46
377.62	2275.29
377.84	2244.57
378.05	2328.54
378.27	2191.33
378.48	2287.58
378.69	2328.54
378.91	2322.40
379.12	2240.48
379.34	2236.38
379.55	2330.59
379.76	2273.25
379.98	2191.33
380.19	2275.29
380.41	2226.14
380.62	2346.97
380.83	2183.13
381.05	2170.85
381.26	2392.03
381.47	2293.72
381.69	2226.14
381.90	2312.16
382.12	2385.88
382.33	2252.77
382.54	2236.38
382.76	2342.88
382.97	2357.21
383.19	2263.01
383.40	2432.99
383.61	2320.35
383.83	2220.00
384.04	2314.20
384.25	2330.59
384.47	2314.20
384.68	2379.74
384.89	2324.44
385.11	2336.73
385.32	2287.58
385.54	2322.40
385.75	2322.40
385.96	2445.27
386.18	2451.42
386.39	2492.38
386.60	2322.40
386.82	2482.14
387.03	2453.47
387.24	2533.34
387.46	2494.43
387.67	2432.99
387.88	2492.38
388.10	2500.57
388.31	2453.47
388.52	2602.97
388.74	2478.04
388.95	2590.68
389.16	2535.39
389.38	2488.28
389.59	2555.86
389.80	2576.34
390.02	2539.48
390.23	2666.46
390.44	2582.49
390.66	2539.48
390.87	2566.10
391.08	2537.43
391.30	2686.94
391.51	2586.58
391.72	2670.55
391.94	2629.59
392.15	2625.50
392.36	2688.98
392.58	2631.64
392.79	2682.84
393.00	2680.79
393.22	2648.02
393.43	2723.80
393.64	2861.01
393.85	2830.29
394.07	2633.69
394.28	2744.28
394.49	2752.47
394.71	2723.80
394.92	2865.11
395.13	2717.65
395.35	2793.43
395.56	2779.09
395.77	2854.87
395.98	2844.63
396.20	2856.92
396.41	2844.63
396.62	2949.08
396.84	2809.81
397.05	2836.44
397.26	2865.11
397.47	2957.27
397.69	2873.30
397.90	3114.96
398.11	2969.55
398.32	2947.03
398.54	2961.36
398.75	2840.53
398.96	2901.97
399.18	2994.13
399.39	2992.08
399.60	3024.85
399.81	2904.02
400.03	3092.43
400.24	3264.46
400.45	2965.46
400.66	3039.19
400.88	3057.62
401.09	3207.12
401.30	3008.47
401.51	3137.49
401.73	3166.16
401.94	3141.58
402.15	3209.17
402.36	3139.54
402.58	3166.16
402.79	3221.45
403.00	3092.43
403.21	3133.39
403.43	3188.69
403.64	3325.90
403.85	3180.50
404.06	3272.65
404.27	3100.62
404.49	3260.37
404.70	3141.58
404.91	3317.71
405.12	3368.91
405.34	3323.85
405.55	3481.55
405.76	3182.54
405.97	3325.90
406.19	3336.14
406.40	3274.70
406.61	3332.05
406.82	3360.72
407.03	3299.28
407.25	3219.41
407.46	3409.87
407.67	3338.19
407.88	3434.44
408.09	3440.59
408.31	3352.52
408.52	3526.60
408.73	3334.09
408.94	3411.92
409.15	3465.16
409.37	3489.74
409.58	3514.31
409.79	3452.88
410.00	3577.80
410.21	3399.63
410.43	3510.22
410.64	3479.50
410.85	3594.19
411.06	3522.51
411.27	3645.38
411.48	3635.14
411.70	3555.27
411.91	3571.66
412.12	3672.01
412.33	3700.68
412.54	3493.83
412.76	3641.29
412.97	3657.67
413.18	3616.71
413.39	3674.06
413.60	3635.14
413.81	3696.58
414.03	3723.21
414.24	3571.66
414.45	3747.78
414.66	3651.53
414.87	3833.80
415.08	3776.45
415.30	3766.21
415.51	3803.08
415.72	3657.67
415.93	3760.07
416.14	3815.37
416.35	3948.48
416.56	3813.32
416.78	3854.28
416.99	3968.96
417.20	3852.23
417.41	3885.00
417.62	3940.29
417.83	3866.56
418.04	3839.94
418.26	3971.01
418.47	3880.90
418.68	4016.07
418.89	3995.59
419.10	4224.96
419.31	4048.83
419.52	4122.56
419.73	3971.01
419.95	4100.03
420.16	4026.31
420.37	4040.64
420.58	4048.83
420.79	4106.18
421.00	3977.16
421.21	4138.94
421.42	3964.87
421.63	4095.94
421.85	4124.61
422.06	4227.01
422.27	4286.40
422.48	4216.77
422.69	4263.87
422.90	4251.58
423.11	4263.87
423.32	4296.64
423.53	4452.28
423.75	4349.89
423.96	4476.86
424.17	4214.72
424.38	4548.54
424.59	4468.67
424.80	4536.25
425.01	4337.60
425.22	4333.50
425.43	4476.86
425.64	4689.85
425.85	4665.27
426.06	4503.48
426.28	4507.58
426.49	4519.87
426.70	4546.49
426.91	4530.11
427.12	4612.03
427.33	4732.86
427.54	4685.75
427.75	4673.46
427.96	4919.22
428.17	4767.67
428.38	4841.40
428.59	4927.41
428.80	4747.19
429.01	4853.69
429.23	4865.97
429.44	5027.76
429.65	4986.80
429.86	5005.24
430.07	4888.50
430.28	4884.41
430.49	4855.73
430.70	5068.72
430.91	5201.84
431.12	5091.25
431.33	5236.66
431.54	5089.20
431.75	5210.03
431.96	5058.48
432.17	5056.43
432.38	5189.55
432.59	5324.72
432.80	5367.73
433.01	5261.23
433.22	5369.77
433.43	5402.54
433.64	5314.48
433.85	5214.13
434.06	5490.60
434.27	5359.53
434.49	5550.00
434.70	5560.24
434.91	5513.13
435.12	5633.96
435.33	5406.64
435.54	5423.02
435.75	5363.63
435.96	5543.85
436.17	5470.12
436.38	5679.02
436.59	5658.54
436.80	5683.11
437.01	5871.53
437.22	5846.95
437.43	5836.71
437.64	5517.23
437.85	5818.28
438.06	5799.85
438.27	5679.02
438.48	5742.50
438.69	5982.12
438.90	5908.39
439.11	5783.46
439.32	6037.41
439.53	5930.92
439.74	5930.92
439.95	6068.13
440.16	5894.05
440.37	6041.51
440.57	5783.46
440.78	6113.19
440.99	6141.86
441.20	5900.20
441.41	5914.53
441.62	6031.27
441.83	5873.57
442.04	6205.35
442.25	6205.35
442.46	6297.50
442.67	6158.24
442.88	6627.23
443.09	6184.87
443.30	6215.59
443.51	6199.20
443.72	6625.18
443.93	6201.25
444.14	6594.46
444.35	6229.92
444.56	6567.84
444.77	6379.42
444.98	6315.94
445.19	6449.05
445.40	6432.67
445.61	6451.10
445.81	6633.37
446.02	6373.28
446.23	6457.25
446.44	6535.07
446.65	6561.69
446.86	6520.73
447.07	6684.57
447.28	6760.34
447.49	6735.77
447.70	6571.93
447.91	6784.92
448.12	6778.78
448.33	6793.11
448.54	6717.34
448.74	6631.32
448.95	6817.69
449.16	6666.14
449.37	7053.20
449.58	6825.88
449.79	7155.60
450.00	6803.35
450.21	6909.85
450.42	7047.06
450.63	7110.55
450.84	6989.72
451.05	6930.33
451.25	6999.96
451.46	6860.70
451.67	7282.58
451.88	7233.43
452.09	7024.53
452.30	7061.40
452.51	7145.36
452.72	7167.89
452.93	7481.23
453.13	7188.37
453.34	7053.20
453.55	7212.95
453.76	7239.57
453.97	7550.86
454.18	7423.89
454.39	7608.20
454.60	7401.36
454.81	7518.09
455.01	7710.60
455.22	7419.79
455.43	7593.87
455.64	7741.32
455.85	7837.58
456.06	7948.17
456.27	7659.40
456.48	7751.56
456.68	7784.33
456.89	7806.86
457.10	7939.97
457.31	8040.33
457.52	8003.46
457.73	7874.44
457.94	8191.88
458.14	8087.43
458.35	8431.49
458.56	8157.06
458.77	8155.01
458.98	8382.34
459.19	8501.12
459.39	8392.58
459.60	8585.08
459.81	8533.89
460.02	8654.72
460.23	8611.71
460.44	8722.30
460.65	8814.46
460.85	8896.38
461.06	8800.12
461.27	8679.29
461.48	9068.41
461.69	9088.89
461.89	8750.97
462.10	9039.73
462.31	8890.23
462.52	9027.45
462.73	8886.14
462.94	9342.83
463.14	9105.27
463.35	9185.14
463.56	9711.47
463.77	9643.88
463.98	9299.83
464.18	9531.25
464.39	9619.31
464.60	9813.87
464.81	9578.35
465.02	9783.15
465.23	9922.41
465.43	9760.62
465.64	9977.70
465.85	10057.57
466.06	9846.63
466.27	10217.32
466.47	10444.64
466.68	10225.51
466.89	10397.54
467.10	10424.16
467.30	10235.75
467.51	10491.74
467.72	10696.54
467.93	10348.39
468.14	10493.79
468.34	10831.71
468.55	10528.61
468.76	10843.99
468.97	10768.22
469.17	10725.21
469.38	11063.13
469.59	11169.62
469.80	10856.28
470.01	11085.65
470.21	11106.13
470.42	11421.52
470.63	11583.31
470.84	11241.30
471.04	11587.41
471.25	11591.50
471.46	11487.06
471.67	11741.00
471.87	11659.09
472.08	11708.24
472.29	11886.41
472.50	11577.17
472.70	11769.68
472.91	11867.98
473.12	12146.50
473.33	12277.57
473.53	12306.24
473.74	12132.17
473.95	12554.05
474.16	12472.13
474.36	12535.62
474.57	12506.95
474.78	12969.79
474.99	12660.54
475.19	12543.81
475.40	13027.13
475.61	12963.64
475.81	13094.71
476.02	13438.77
476.23	13182.77
476.44	13299.51
476.64	13455.15
476.85	13690.67
477.06	13451.06
477.27	13797.17
477.47	13831.98
477.68	13825.84
477.89	14126.89
478.09	13905.71
478.30	13973.29
478.51	13870.89
478.71	14389.03
478.92	14079.79
479.13	14524.19
479.34	14526.24
479.54	14616.35
479.75	14638.88
479.96	14690.08
480.16	14579.49
480.37	14843.68
480.58	14997.28
480.78	15087.39
480.99	15175.45
481.20	15460.12
481.41	15107.87
481.61	15384.34
481.82	15789.84
482.03	15632.15
482.23	15814.41
482.44	15718.16
482.65	15814.41
482.85	16099.08
483.06	16097.03
483.27	16045.84
483.47	16086.79
483.68	16402.18
483.89	16510.72
484.09	16357.13
484.30	16299.78
484.51	16697.09
484.71	16955.13
484.92	16893.69
485.13	17186.55
485.33	17080.06
485.54	17047.29
485.75	17139.45
485.95	17258.23
486.16	17374.97
486.37	17434.36
486.57	17467.13
486.78	17577.72
486.98	17553.14
487.19	17854.19
487.40	17909.49
487.60	18200.30
487.81	18118.38
488.02	17868.53
488.22	18265.83
488.43	18446.05
488.64	18110.19
488.84	18527.97
489.05	18745.06
489.25	18794.21
489.46	18976.48
489.67	18894.56
489.87	19214.04
490.08	19158.75
490.29	19154.65
490.49	19654.36
490.70	19652.31
490.90	19893.97
491.11	19545.81
491.32	20096.72
491.52	19734.23
491.73	20004.56
491.94	20000.46
492.14	19959.50
492.35	20371.15
492.55	20438.73
492.76	20696.77
492.97	20487.88
493.17	20567.75
493.38	21112.51
493.58	21188.28
493.79	21040.83
494.00	21180.09
494.20	21173.95
494.41	21298.88
494.61	21253.82
494.82	21483.19
495.02	21124.80
495.23	21651.13
495.44	22007.47
495.64	21950.13
495.85	22040.24
496.05	21857.97
496.26	22034.10
496.47	22242.99
496.67	22263.47
496.88	22605.48
497.08	22105.77
497.29	22695.59
497.49	22695.59
497.70	22834.85
497.91	22754.98
498.11	22947.49
498.32	22628.01
498.52	23252.64
498.73	23596.70
498.93	23305.88
499.14	23565.98
499.34	23408.28
499.55	23709.33
499.76	23217.82
499.96	23725.72
500.17	23756.44
500.37	23875.22
500.58	23897.75
500.78	23983.76
500.99	23766.68
501.19	24362.64
501.40	24297.10
501.60	23924.37
501.81	24139.41
502.02	24319.63
502.22	24405.64
502.43	24557.19
502.63	24731.27
502.84	24927.88
503.04	24624.78
503.25	24696.46
503.45	24886.92
503.66	24934.02
503.86	25028.23
504.07	25298.56
504.27	25126.53
504.48	25575.03
504.68	25005.70
504.89	25437.82
505.09	25316.99
505.30	25288.32
505.50	25282.17
505.71	25421.44
505.91	25529.98
506.12	25656.95
506.32	25945.72
506.53	25755.26
506.73	25857.65
506.94	25800.31
507.14	25462.40
507.35	25699.96
507.55	25974.39
507.76	26117.75
507.96	25933.43
508.17	25917.04
508.37	26087.03
508.58	26001.01
508.78	26142.32
508.99	26539.63
509.19	26203.76
509.40	26261.10
509.60	26371.69
509.81	26498.67
510.01	26232.43
510.22	26480.24
510.42	26820.20
510.63	26363.50
510.83	26517.10
511.04	26836.58
511.24	26605.16
511.44	26891.88
511.65	26697.32
511.85	26652.27
512.06	27063.91
512.26	27111.01
512.47	27168.35
512.67	27166.31
512.88	26787.43
513.08	26533.48
513.29	27082.34
513.49	26875.49
513.69	26938.98
513.90	27407.97
514.10	27541.08
514.31	27436.64
514.51	27303.52
514.72	27524.70
514.92	27246.18
515.13	27321.95
515.33	27481.69
515.53	27895.38
515.74	27899.48
515.94	27475.55
516.15	27819.61
516.35	27555.42
516.56	28055.12
516.76	27573.85
516.96	27958.87
517.17	28048.98
517.37	27991.64
517.58	28233.30
517.78	28110.42
517.99	28161.62
518.19	28372.56
518.39	28270.16
518.60	28669.51
518.80	28374.61
519.01	28311.12
519.21	28440.14
519.41	28548.68
519.62	28569.16
519.82	28769.86
520.03	28859.98
520.23	28972.61
520.43	28622.41
520.64	29369.92
520.84	29138.50
521.05	29374.02
521.25	29443.65
521.45	29443.65
521.66	29439.55
521.86	29298.24
522.07	29343.30
522.27	29824.57
522.47	29816.38
522.68	30139.96
522.88	29904.44
523.08	30240.31
523.29	30238.26
523.49	30150.20
523.70	30309.94
523.90	30598.70
524.10	30330.42
524.31	30531.12
524.51	30023.22
524.71	31002.15
524.92	30905.90
525.12	30989.86
525.33	31022.63
525.53	31014.44
525.73	31202.85
525.94	31252.00
526.14	31206.95
526.34	31395.36
526.55	31452.70
526.75	31364.64
526.95	32124.44
527.16	31886.87
527.36	32101.91
527.56	32206.36
527.77	32493.07
527.97	32247.32
528.17	32425.49
528.38	32699.92
528.58	32409.11
528.78	32677.39
528.99	32824.84
529.19	33125.89
529.39	32871.95
529.60	33084.94
529.80	33388.03
530.00	33347.08
530.21	33424.90
530.41	33754.62
530.61	33527.30
530.82	33637.89
531.02	33699.33
531.22	34203.13
531.43	34178.55
531.63	34323.96
531.83	34385.40
532.04	34854.38
532.24	34215.41
532.44	34723.31
532.64	34829.80
532.85	34971.11
533.05	35436.00
533.25	35067.37
533.46	35194.34
533.66	35216.87
533.86	35325.41
534.07	35673.57
534.27	35599.84
534.47	35814.88
534.67	35589.60
534.88	35501.54
535.08	35747.29
535.28	36007.39
535.49	36386.26
535.69	36556.24
535.89	36447.70
536.09	36814.29
536.30	36691.41
536.50	37090.76
536.70	36699.60
536.91	36691.41
537.11	37037.51
537.31	37221.83
537.51	37275.08
537.72	37367.24
537.92	37518.79
538.12	37973.44
538.32	37301.70
538.53	37807.55
538.73	37500.36
538.93	37791.17
539.13	38114.75
539.34	38053.31
539.54	37766.59
539.74	38256.06
539.94	38004.16
540.15	37782.98
540.35	38389.17
540.55	38124.99
540.75	38305.21
540.96	38659.51
541.16	38544.82
541.36	38585.78
541.56	38694.32
541.77	38772.14
541.97	38579.64
542.17	38882.73
542.37	38602.16
542.58	38929.84
542.78	39136.68
542.98	39056.81
543.18	39171.50
543.38	39570.85
543.59	39318.95
543.79	38737.33
543.99	39036.33
544.19	39429.54
544.40	39566.76
544.60	39832.99
544.80	39345.58
545.00	39589.28
545.20	39824.80
545.41	39597.48
545.61	39722.40
545.81	39849.38
546.01	39699.87
546.21	39728.55
546.42	39548.32
546.62	40115.61
546.82	39767.46
547.02	39904.67
547.22	39720.35
547.43	40342.94
547.63	39962.01
547.83	40121.76
548.03	40232.35
548.23	40074.65
548.44	40465.81
548.64	40007.07
548.84	40021.41
549.04	40344.98
549.24	40162.72
549.45	40760.72
549.65	40703.38
549.85	40332.70
550.05	40744.34
550.25	40066.46
550.45	40932.75
550.66	40666.52
550.86	40301.98
551.06	40652.18
551.26	40797.59
551.46	40250.78
551.66	41082.25
551.87	40592.79
552.07	41178.51
552.27	40861.07
552.47	41190.80
552.67	40994.19
552.87	41278.86
553.07	41117.07
553.28	41362.82
553.48	41426.31
553.68	41145.74
553.88	41323.91
554.08	41287.05
554.28	41231.75
554.48	41110.92
554.69	41414.02
554.89	41346.44
555.09	41497.99
555.29	41368.97
555.49	41581.96
555.69	41422.22
555.89	41158.03
556.10	41618.82
556.30	41305.48
556.50	41733.51
556.70	41514.37
556.90	41989.50
557.10	42073.47
557.30	41465.22
557.50	41819.52
557.70	41756.03
557.91	42149.24
558.11	41833.86
558.31	41835.91
558.51	42263.93
558.71	41891.20
558.91	42308.99
559.11	42341.75
559.31	42214.78
559.51	42091.90
559.72	42237.31
559.92	42345.85
560.12	42405.24
560.32	42368.38
560.52	42034.56
560.72	42790.26
560.92	42677.62
561.12	42663.28
561.32	42683.76
561.52	42722.68
561.72	42913.14
561.93	42841.46
562.13	42599.80
562.33	42579.32
562.53	43214.19
562.73	42927.47
562.93	43105.65
563.13	43300.20
563.33	43156.85
563.53	43488.62
563.73	43281.77
563.93	42904.95
564.13	43412.84
564.33	43400.55
564.53	43771.24
564.74	43537.77
564.94	43056.50
565.14	43738.47
565.34	43771.24
565.54	44027.23
565.74	43896.16
565.94	44338.52
566.14	43687.27
566.34	43791.72
566.54	44152.16
566.74	43865.44
566.94	44184.93
567.14	44408.15
567.34	44041.57
567.54	44084.58
567.74	43996.51
567.94	44559.70
568.14	44629.34
568.34	44518.74
568.54	44596.57
568.74	45262.16
568.94	44903.76
569.14	45129.04
569.34	44909.91
569.54	44854.61
569.75	44821.84
569.95	44815.70
570.15	45143.38
570.35	45188.43
570.55	45245.77
570.75	45264.21
570.95	45139.28
571.15	45438.28
571.35	45616.46
571.55	45663.56
571.75	45358.41
571.95	45491.53
572.15	45747.53
572.35	45827.40
572.55	45950.27
572.75	46218.56
572.95	45944.13
573.15	46134.59
573.35	46286.14
573.55	46118.21
573.75	46189.89
573.95	46144.83
574.15	46249.28
574.35	46388.54
574.55	46318.91
574.75	46339.39
574.95	46490.94
575.15	46282.05
575.34	46568.76
575.54	46978.36
575.74	47060.27
575.94	47166.77
576.14	47029.55
576.34	47459.63
576.54	47473.96
576.74	47641.90
576.94	46705.98
577.14	47510.83
577.34	47531.31
577.54	47355.18
577.74	47586.60
577.94	47926.56
578.14	47856.93
578.34	47877.41
578.54	47531.31
578.74	47412.52
578.94	48471.32
579.14	48043.30
579.34	47742.25
579.54	48033.06
579.74	48567.58
579.94	48194.85
580.13	48543.00
580.33	48194.85
580.53	48567.58
580.73	48735.51
580.93	48698.65
581.13	48422.17
581.33	49055.00
581.53	48663.83
581.73	48502.04
581.93	48944.41
582.13	49063.19
582.33	49046.80
582.53	48753.94
582.73	48680.22
582.92	48500.00
583.12	48944.41
583.32	48895.25
583.52	48831.77
583.72	49278.22
583.92	48753.94
584.12	49267.98
584.32	49435.92
584.52	49440.01
584.72	49235.22
584.92	49411.34
585.11	49618.19
585.31	49544.46
585.51	49693.96
585.71	49380.62
585.91	49495.31
586.11	49280.27
586.31	49818.89
586.51	49569.04
586.71	50081.03
586.91	49808.65
587.10	50390.27
587.30	49427.73
587.50	50023.68
587.70	49704.20
587.90	50240.77
588.10	50406.65
588.30	49829.13
588.50	49773.83
588.69	50148.61
588.89	49624.33
589.09	50330.88
589.29	49952.01
589.49	50300.16
589.69	49986.82
589.89	50246.91
590.08	50074.88
590.28	50392.32
590.48	49878.28
590.68	50339.07
590.88	50160.90
591.08	50420.99
591.28	49872.14
591.47	50527.48
591.67	50332.93
591.87	50076.93
592.07	50226.43
592.27	50443.52
592.47	50230.53
592.67	50545.92
592.86	50488.57
593.06	50527.48
593.26	50177.28
593.46	50271.49
593.66	50498.81
593.86	50562.30
594.05	50541.82
594.25	51109.11
594.45	50388.22
594.65	50584.83
594.85	50251.01
595.05	50998.52
595.24	50642.17
595.44	50547.96
595.64	50703.61
595.84	50867.45
596.04	50607.36
596.23	50898.17
596.43	51215.60
596.63	50975.99
596.83	50576.64
597.03	50928.89
597.22	51500.27
597.42	51131.64
597.62	51205.36
597.82	51424.50
598.02	51004.66
598.21	51459.31
598.41	51182.84
598.61	51358.96
598.81	50957.56
599.01	51885.29
599.20	51049.72
599.40	50990.33
599.60	51229.94
599.80	51520.75
600.00	51352.82
600.19	51551.47
600.39	51432.69
600.59	51764.46
600.79	51326.19
600.98	51418.35
601.18	51735.79
601.38	51530.99
601.58	51418.35
601.78	51391.73
601.97	52010.21
602.17	51772.65
602.37	51758.31
602.57	51834.09
602.76	52049.13
602.96	51936.49
603.16	52217.06
603.36	52028.65
603.55	52384.99
603.75	52008.17
603.95	52436.19
604.15	52442.34
604.34	52360.42
604.54	52677.85
604.74	52260.07
604.94	52911.32
605.13	52415.71
605.33	52634.84
605.53	52524.25
605.73	52368.61
605.92	52753.63
606.12	52894.94
606.32	52548.83
606.52	52573.41
606.71	53152.98
606.91	53335.25
607.11	52810.97
607.30	52657.37
607.50	53120.21
607.70	53515.47
607.90	53042.39
608.09	53058.77
608.29	53265.62
608.49	53245.14
608.68	53345.49
608.88	53255.38
609.08	53263.57
609.28	53703.88
609.47	53523.66
609.67	53740.75
609.87	53290.19
610.06	53918.92
610.26	53806.28
610.46	54119.62
610.66	53957.83
610.85	53105.88
611.05	53763.28
611.25	53839.05
611.44	53892.30
611.64	53970.12
611.84	53888.20
612.03	53755.08
612.23	54138.05
612.43	54576.32
612.62	54099.14
612.82	54162.63
613.02	54119.62
613.21	54222.02
613.41	54049.99
613.61	54396.10
613.80	54144.20
614.00	54062.28
614.20	54535.36
614.39	54641.85
614.59	54412.48
614.79	54576.32
614.98	54572.22
615.18	54772.92
615.38	54490.30
615.57	54219.97
615.77	54604.99
615.97	54625.47
616.16	54635.71
616.36	54729.92
616.56	55047.35
616.75	55067.83
616.95	54455.49
617.15	54811.84
617.34	55022.78
617.54	54940.86
617.74	55051.45
617.93	54893.75
618.13	54838.46
618.32	54994.10
618.52	54940.86
618.72	54858.94
618.91	55051.45
619.11	54867.13
619.31	55448.75
619.50	54899.90
619.70	54850.75
619.90	55209.14
620.09	55399.60
620.29	55301.30
620.48	55147.70
620.68	55684.27
620.88	54645.95
621.07	55178.42
621.27	55397.55
621.46	55186.61
621.66	55497.91
621.86	55610.54
622.05	55207.09
622.25	55753.90
622.44	55196.85
622.64	55385.27
622.84	55555.25
623.03	55131.32
623.23	55874.73
623.42	55555.25
623.62	55870.64
623.82	55934.12
624.01	55694.51
624.21	56005.80
624.40	55870.64
624.60	55833.77
624.80	55647.41
624.99	55524.53
625.19	55545.01
625.38	56046.76
625.58	55475.38
625.77	55725.23
625.97	55751.85
626.17	55735.47
626.36	55868.59
626.56	55968.94
626.75	55657.65
626.95	56128.68
627.14	55841.96
627.34	56325.28
627.54	55657.65
627.73	55907.50
627.93	56333.48
628.12	56345.76
628.32	56214.69
628.51	56255.65
628.71	55882.92
628.90	56130.73
629.10	56218.79
629.30	56157.35
629.49	55997.61
629.69	55973.03
629.88	56210.60
630.08	56689.82
630.27	56464.55
630.47	56265.89
630.66	56042.66
630.86	56286.37
631.05	55792.81
631.25	56566.94
631.44	56558.75
631.64	55917.74
631.84	56784.03
632.03	57025.69
632.23	56337.57
632.42	56675.49
632.62	56300.71
632.81	56517.79
633.01	56554.66
633.20	56915.10
633.40	56499.36
633.59	56642.72
633.79	55899.31
633.98	56358.05
634.18	56505.51
634.37	56317.09
634.57	56530.08
634.76	56573.09
634.96	56648.86
635.15	56685.73
635.35	56147.11
635.54	56222.89
635.74	56753.31
635.93	55813.29
636.13	56503.46
636.32	56698.01
636.52	56321.19
636.71	56425.64
636.91	56409.25
637.10	56503.46
637.30	56435.87
637.49	56186.02
637.69	56489.12
637.88	57029.79
638.08	56589.47
638.27	56865.95
638.46	56706.21
638.66	56677.54
638.85	56706.21
639.05	56839.32
639.24	56362.15
639.44	56206.50
639.63	56767.65
639.83	56501.41
640.02	56392.87
640.22	56738.97
640.41	56390.82
640.61	56249.51
640.80	56837.28
640.99	56587.42
641.19	56902.81
641.38	56628.38
641.58	56464.55
641.77	56034.47
641.97	56302.76
642.16	56362.15
642.36	56841.37
642.55	56507.55
642.74	55983.27
642.94	56927.39
643.13	56370.34
643.33	56517.79
643.52	56716.45
643.72	56341.67
643.91	56304.80
644.10	56802.46
644.30	56618.14
644.49	56485.03
644.69	56556.70
644.88	56581.28
645.08	56376.48
645.27	56272.04
645.46	56089.77
645.66	56358.05
645.85	55903.40
646.05	56456.35
646.24	56085.67
646.43	56317.09
646.63	56587.42
646.82	56804.51
647.02	56231.08
647.21	56229.03
647.40	56134.82
647.60	56657.06
647.79	56464.55
647.99	56390.82
648.18	55772.33
648.37	56988.83
648.57	56669.34
648.76	56384.68
648.96	56161.45
649.15	55872.68
649.34	56261.80
649.54	56673.44
649.73	56028.33
649.92	56145.06
650.12	56667.30
650.31	56040.62
650.51	56349.86
650.70	56595.62
650.89	56210.60
651.09	56603.81
651.28	56356.00
651.47	56313.00
651.67	56571.04
651.86	56482.98
652.06	55473.33
652.25	55813.29
652.44	55827.63
652.64	56030.38
652.83	55927.98
653.02	55848.11
653.22	56126.63
653.41	56362.15
653.60	55653.55
653.80	55973.03
653.99	56290.47
654.18	55815.34
654.38	55866.54
654.57	56114.34
654.76	55719.09
654.96	55854.25
655.15	55616.69
655.34	55829.68
655.54	55448.75
655.73	55968.94
655.92	55786.67
656.12	55850.16
656.31	55762.09
656.50	55930.03
656.70	56118.44
656.89	55903.40
657.08	55911.59
657.28	55712.94
657.47	55850.16
657.66	56296.61
657.86	55876.78
658.05	55846.06
658.24	55698.61
658.43	55735.47
658.63	55665.84
658.82	55997.61
659.01	56294.56
659.21	56267.94
659.40	56259.75
659.59	55692.46
659.79	55975.08
659.98	56255.65
660.17	56108.20
660.36	55751.85
660.56	55557.30
660.75	55882.92
660.94	56130.73
661.14	56317.09
661.33	56220.84
661.52	55473.33
661.71	56153.26
661.91	55940.27
662.10	55422.13
662.29	56054.95
662.49	55944.36
662.68	56059.05
662.87	56030.38
663.06	55891.12
663.26	55919.79
663.45	55936.17
663.64	55882.92
663.83	56145.06
664.03	56292.52
664.22	56339.62
664.41	56413.35
664.60	55792.81
664.80	55813.29
664.99	55803.05
665.18	55690.41
665.37	55966.89
665.57	56288.42
665.76	55639.22
665.95	55962.79
666.14	56069.29
666.34	55841.96
666.53	56071.34
666.72	55950.51
666.91	55905.45
667.11	55827.63
667.30	56173.73
667.49	56241.32
667.68	56290.47
667.87	56265.89
668.07	56333.48
668.26	55637.17
668.45	56161.45
668.64	56024.23
668.84	56489.12
669.03	56779.93
669.22	56071.34
669.41	56384.68
669.60	56179.88
669.80	56059.05
669.99	56800.41
670.18	55819.44
670.37	56599.71
670.57	56628.38
670.76	56362.15
670.95	56319.14
671.14	56669.34
671.33	56501.41
671.53	56589.47
671.72	55741.61
671.91	56304.80
672.10	56153.26
672.29	56362.15
672.48	56345.76
672.68	56800.41
672.87	56595.62
673.06	56171.69
673.25	56300.71
673.44	56612.00
673.64	56341.67
673.83	56444.07
674.02	56548.51
674.21	56188.07
674.40	56685.73
674.59	56540.32
674.79	56343.72
674.98	56243.37
675.17	56523.94
675.36	56026.28
675.55	56937.63
675.74	56534.18
675.94	56683.68
676.13	56951.96
676.32	56646.82
676.51	57275.54
676.70	56597.66
676.89	56812.70
677.08	57154.71
677.28	56741.02
677.47	57234.58
677.66	57185.43
677.85	56548.51
678.04	57259.16
678.23	57259.16
678.42	57201.82
678.62	56917.15
678.81	57482.39
679.00	56968.35
679.19	57400.47
679.38	57179.29
679.57	57293.97
679.76	57095.32
679.96	57502.87
680.15	57283.73
680.34	57107.61
680.53	56904.86
680.72	57660.56
680.91	57300.12
681.10	57250.97
681.29	57529.49
681.48	57293.97
681.68	57420.95
681.87	57312.41
682.06	57058.46
682.25	56898.72
682.44	57048.22
682.63	57060.51
682.82	56775.84
683.01	56591.52
683.20	56786.08
683.39	57185.43
683.59	56820.89
683.78	57273.49
683.97	56943.77
684.16	57074.84
684.35	56843.42
684.54	56810.65
684.73	56593.57
684.92	56915.10
685.11	56992.92
685.30	56931.48
685.49	57283.73
685.69	56806.56
685.88	57136.28
686.07	56894.62
686.26	56870.04
686.45	57453.72
686.64	57132.18
686.83	57066.65
687.02	57326.74
687.21	57119.90
687.40	57201.82
687.59	57222.29
687.78	56927.39
687.97	57185.43
688.16	56935.58
688.35	57091.22
688.54	56683.68
688.74	56847.52
688.93	56868.00
689.12	56972.44
689.31	56845.47
689.50	57156.76
689.69	56749.21
689.88	56583.33
690.07	57095.32
690.26	57013.40
690.45	57341.08
690.64	56827.04
690.83	56988.83
691.02	56587.42
691.21	56612.00
691.40	57332.89
691.59	56902.81
691.78	56736.93
691.97	56771.74
692.16	56335.52
692.35	57029.79
692.54	57093.27
692.73	56745.12
692.92	56560.80
693.11	56583.33
693.30	56665.25
693.49	56949.92
693.68	56405.16
693.87	57218.20
694.06	56206.50
694.25	56476.83
694.44	56597.66
694.63	56415.40
694.82	56419.49
695.01	56349.86
695.20	56317.09
695.39	56288.42
695.58	56392.87
695.77	56059.05
695.96	56429.73
696.15	56138.92
696.34	56065.19
696.53	56562.85
696.72	56356.00
696.91	55645.36
697.10	55964.84
697.29	55747.76
697.48	56161.45
697.67	56169.64
697.86	55317.68
698.05	55655.60
698.24	56165.54
698.43	55401.65
698.62	55633.07
698.81	55813.29
699.00	56048.81
699.19	55532.72
699.38	55702.70
699.57	55268.53
699.76	55907.50
699.95	55458.99
700.14	54920.38
700.32	55047.35
700.51	54967.48
700.70	55911.59
700.89	55844.01
701.08	55344.31
701.27	55522.48
701.46	55379.12
701.65	54912.19
701.84	55502.00
702.03	55114.94
702.22	55082.17
702.41	54756.54
702.60	55086.26
702.79	54877.37
702.98	54899.90
703.17	54723.77
703.35	54645.95
703.54	54891.71
703.73	54803.64
703.92	54834.36
704.11	54924.47
704.30	54799.55
704.49	54602.94
704.68	54580.42
704.87	54459.58
705.06	54254.79
705.25	54293.70
705.43	54367.43
705.62	54523.07
705.81	54211.78
706.00	54039.75
706.19	53736.65
706.38	53544.14
706.57	54090.95
706.76	53865.67
706.95	53970.12
707.14	53466.32
707.32	53581.01
707.51	53429.46
707.70	53949.64
707.89	53767.37
708.08	53421.26
708.27	53818.57
708.46	53556.43
708.65	53066.97
708.84	53859.53
709.02	53607.63
709.21	53314.77
709.40	53437.65
709.59	53613.77
709.78	52939.99
709.97	53585.10
710.16	53114.07
710.34	52823.26
710.53	52987.10
710.72	52956.38
710.91	53073.11
711.10	53058.77
711.29	53019.86
711.48	52942.04
711.66	52618.46
711.85	52774.11
712.04	52356.32
712.23	52466.91
712.42	52819.16
712.61	52518.11
712.80	52575.45
712.98	52616.41
713.17	51967.21
713.36	52331.75
713.55	52221.16
713.74	52047.08
713.93	52212.96
714.11	52237.54
714.30	51977.45
714.49	51709.16
714.68	52192.48
714.87	51778.79
715.06	52096.23
715.24	51487.98
715.43	51537.13
715.62	51631.34
715.81	51299.57
716.00	51676.40
716.18	51287.28
716.37	51334.38
716.56	51231.99
716.75	51549.42
716.94	51340.53
717.12	50969.85
717.31	51356.91
717.50	51057.91
717.69	50832.63
717.88	50953.46
718.06	51342.58
718.25	51205.36
718.44	50400.51
718.63	51006.71
718.82	50525.44
719.00	50509.05
719.19	50412.80
719.38	50322.69
719.57	50001.16
719.76	49931.53
719.94	49909.00
720.13	49880.33
720.32	49687.82
720.51	50078.98
720.69	50099.46
720.88	49587.47
721.07	50060.55
721.26	49394.96
721.44	49349.90
721.63	49456.40
721.82	49265.94
722.01	49382.67
722.20	49317.14
722.38	49165.59
722.57	48958.74
722.76	49077.52
722.95	49020.18
723.13	48962.84
723.32	48790.81
723.51	48543.00
723.70	48252.19
723.88	48745.75
724.07	48510.24
724.26	48577.82
724.44	48307.49
724.63	48170.27
724.82	48641.31
725.01	48399.65
725.19	48313.63
725.38	48166.18
725.57	48076.07
725.76	48223.52
725.94	47674.66
726.13	47781.16
726.32	48252.19
726.51	47897.89
726.69	48557.34
726.88	48448.80
727.07	48305.44
727.25	48256.29
727.44	48289.06
727.63	47725.86
727.82	47879.46
728.00	48008.48
728.19	47867.17
728.38	48291.10
728.56	47258.93
728.75	48082.21
728.94	47822.12
729.12	48129.31
729.31	47838.50
729.50	47709.48
729.69	47988.00
729.87	47969.57
730.06	47955.24
730.25	47734.06
730.43	48332.06
730.62	47650.09
730.81	47764.78
730.99	47578.41
731.18	47398.19
731.37	47564.07
731.55	48123.17
731.74	47981.86
731.93	48043.30
732.11	47496.49
732.30	47801.64
732.49	47273.26
732.67	47762.73
732.86	48043.30
733.05	47705.38
733.23	47328.56
733.42	47658.28
733.61	47621.42
733.79	47365.42
733.98	47744.30
734.17	47303.98
734.35	47672.62
734.54	47551.79
734.73	47947.04
734.91	47572.27
735.10	47029.55
735.29	47521.07
735.47	46935.35
735.66	47379.76
735.84	47203.63
736.03	47007.03
736.22	48215.33
736.40	47504.68
736.59	47676.71
736.78	46992.69
736.96	47820.07
737.15	47101.23
737.33	46894.39
737.52	46933.30
737.71	47129.90
737.89	47340.85
738.08	46867.76
738.27	46540.09
738.45	47527.21
738.64	47334.70
738.82	47187.25
739.01	47254.83
739.20	47056.18
739.38	46929.20
739.57	46878.00
739.75	47559.98
739.94	46976.31
740.13	46996.79
740.31	46744.89
740.50	46540.09
740.68	46748.98
740.87	46921.01
741.06	46996.79
741.24	46413.12
741.43	46601.53
741.61	47187.25
741.80	46626.10
741.99	46538.04
742.17	46642.49
742.36	46933.30
742.54	46720.31
742.73	46898.48
742.91	46781.75
743.10	46546.23
743.29	46966.07
743.47	46935.35
743.66	47142.19
743.84	46781.75
744.03	47121.71
744.21	46884.15
744.40	47301.93
744.59	46720.31
744.77	46548.28
744.96	46781.75
745.14	46624.06
745.33	46732.60
745.51	46525.75
745.70	46914.87
745.88	46196.03
746.07	46808.37
746.26	46021.95
746.44	46914.87
746.63	46763.32
746.81	46177.60
747.00	46331.20
747.18	46495.03
747.37	46564.67
747.55	46392.64
747.74	46816.57
747.92	46390.59
748.11	46026.05
748.29	46218.56
748.48	46476.60
748.66	46079.30
748.85	46331.20
749.03	46159.17
749.22	46398.78
749.41	46228.80
749.59	46665.02
749.78	46140.74
749.96	46028.10
750.15	46294.33
750.33	46363.96
750.52	46443.84
750.70	46382.40
750.89	46015.81
751.07	45970.75
751.26	45847.88
751.44	45874.50
751.63	46050.63
751.81	45466.95
752.00	46052.67
752.18	46019.91
752.37	45931.84
752.55	45694.28
752.74	45569.35
752.92	46052.67
753.10	45798.73
753.29	46198.08
753.47	45462.86
753.66	45274.45
753.84	45892.93
754.03	45630.79
754.21	45569.35
754.40	45817.16
754.58	45571.40
754.77	45849.92
754.95	45317.45
755.14	45679.94
755.32	45491.53
755.51	45528.39
755.69	46048.58
755.88	45530.44
756.06	45327.69
756.24	45311.31
756.43	45397.32
756.61	45565.26
756.80	45403.47
756.98	45036.88
757.17	45405.52
757.35	44991.83
757.54	45069.65
757.72	45258.06
757.90	45479.24
758.09	44920.15
758.27	45378.89
758.46	45020.50
758.64	45061.46
758.83	45294.92
759.01	45333.84
759.19	45264.21
759.38	45073.74
759.56	45307.21
759.75	45423.95
759.93	44895.57
760.12	44895.57
760.30	44991.83
760.48	45114.70
760.67	45026.64
760.85	45198.67
761.04	45327.69
761.22	44782.93
761.40	45186.38
761.59	44664.15
761.77	44875.09
761.96	44694.87
762.14	44952.91
762.32	44641.62
762.51	44410.20
762.69	44887.38
762.88	44301.66
763.06	44627.29
763.24	44598.62
763.43	44918.10
763.61	44485.98
763.80	44592.47
763.98	44070.24
764.16	43847.01
764.35	44033.38
764.53	43586.92
764.72	44189.02
764.90	44078.43
765.08	43634.02
765.27	44406.11
765.45	43701.61
765.63	43756.90
765.82	43793.76
766.00	43455.85
766.18	43799.91
766.37	44332.38
766.55	43517.29
766.74	43439.47
766.92	43400.55
767.10	43730.28
767.29	43621.73
767.47	42964.34
767.65	43533.67
767.84	43498.86
768.02	43431.27
768.20	43429.23
768.39	43529.58
768.57	43283.82
768.75	43578.73
768.94	43326.83
769.12	43388.27
769.30	43070.83
769.49	43306.35
769.67	42726.77
769.85	43011.44
770.04	42769.78
770.22	43189.61
770.40	42599.80
770.59	42753.40
770.77	42968.43
770.95	42546.55
771.14	42550.65
771.32	42601.85
771.50	42335.61
771.69	42519.93
771.87	42943.86
772.05	42364.28
772.24	41842.05
772.42	42304.89
772.60	42358.14
772.78	42087.81
772.97	42177.92
773.15	42472.82
773.33	42208.64
773.52	42526.07
773.70	42300.79
773.88	42222.97
774.07	42147.20
774.25	42147.20
774.43	42411.38
774.61	42149.24
774.80	42190.20
774.98	42358.14
775.16	42145.15
775.34	42575.22
775.53	41899.39
775.71	42292.60
775.89	42169.72
776.08	42405.24
776.26	42687.86
776.44	42249.60
776.62	41991.55
776.81	41989.50
776.99	42542.45
777.17	42235.26
777.35	42321.27
777.54	42399.10
777.72	42048.89
777.90	41799.04
778.08	42192.25
778.27	41911.68
778.45	42507.64
778.63	42395.00
778.81	42214.78
779.00	42390.91
779.18	42591.61
779.36	42947.95
779.54	41803.14
779.73	41975.17
779.91	42470.78
780.09	42399.10
780.27	42648.95
780.46	42388.86
780.64	42642.81
780.82	42186.11
781.00	42237.31
781.19	42696.05
781.37	42702.20
781.55	42855.79
781.73	42726.77
781.91	42470.78
782.10	42632.57
782.28	42792.31
782.46	42917.23
782.64	42872.18
782.82	42640.76
783.01	42718.58
783.19	43273.58
783.37	42382.71
783.55	42880.37
783.74	42564.98
783.92	42538.36
784.10	42945.90
784.28	42507.64
784.46	42380.67
784.64	42354.04
784.83	42808.69
785.01	42687.86
785.19	42474.87
785.37	42440.06
785.55	43001.20
785.74	42102.14
785.92	42384.76
786.10	42392.95
786.28	42339.71
786.46	41960.83
786.64	41762.18
786.83	42333.56
787.01	42126.72
787.19	42345.85
787.37	42136.96
787.55	42067.33
787.74	41842.05
787.92	41663.88
788.10	42083.71
788.28	41907.58
788.46	41667.97
788.64	41710.98
788.82	41608.58
789.01	41534.85
789.19	41481.61
789.37	41287.05
789.55	41334.15
789.73	40934.80
789.91	40867.22
790.09	41121.16
790.28	40760.72
790.46	40824.21
790.64	40981.90
790.82	40861.07
791.00	40324.50
791.18	40478.10
791.36	40232.35
791.55	40605.08
791.73	40418.71
791.91	39957.92
792.09	40240.54
792.27	40207.77
792.45	40314.26
792.63	40183.19
792.81	39919.01
793.00	39714.21
793.18	39714.21
793.36	39683.49
793.54	39701.92
793.72	39409.06
793.90	39396.77
794.08	39296.42
794.26	39335.34
794.44	39165.35
794.62	38626.74
794.81	39108.01
794.99	39259.56
795.17	38860.21
795.35	38548.92
795.53	38804.91
795.71	38569.40
795.89	38510.00
796.07	38362.55
796.25	38153.66
796.43	38038.97
796.61	37914.05
796.80	37787.07
796.98	37823.93
797.16	37510.60
797.34	37909.95
797.52	37313.99
797.70	37918.14
797.88	37129.67
798.06	37348.81
798.24	37152.20
798.42	36937.16
798.60	37277.13
798.78	36515.28
798.96	37109.19
799.14	36392.40
799.32	36797.90
799.51	36652.50
799.69	36949.45
799.87	36580.82
800.05	36220.38
800.23	36337.11
800.41	36257.24
800.59	36042.20
800.77	35794.40
800.95	35958.24
801.13	35941.85
801.31	35302.89
801.49	35763.68
801.67	35380.71
801.85	35661.28
802.03	35393.00
802.21	35184.10
802.39	34987.50
802.57	34905.58
802.75	35003.88
802.93	35022.31
803.11	34831.85
803.29	35014.12
803.47	34700.78
803.65	34729.45
803.83	34414.07
804.01	34276.85
804.19	34205.17
804.37	34229.75
804.55	34360.82
804.73	34385.40
804.91	34354.68
805.09	33981.95
805.27	33670.65
805.45	33973.75
805.63	33842.68
805.81	33580.54
805.99	33881.60
806.17	33590.78
806.35	33543.68
806.53	33259.01
806.71	33742.33
806.89	33601.02
807.07	33275.40
807.25	33361.41
807.43	33013.26
807.61	33123.85
807.79	33003.02
807.97	33035.78
808.15	32908.81
808.33	32697.87
808.51	32495.12
808.69	32548.37
808.87	32206.36
809.05	32523.79
809.23	32570.90
809.41	32110.10
809.59	32261.65
809.77	32550.42
809.95	31909.40
810.13	32222.74
810.31	31927.83
810.49	31782.43
810.67	31553.05
810.84	31899.16
811.02	31696.41
811.20	31489.57
811.38	31860.25
811.56	31196.71
811.74	31489.57
811.92	31356.45
812.10	31628.83
812.28	31532.57
812.46	31497.76
812.64	31553.05
812.82	30942.76
813.00	31159.84
813.18	31374.88
813.36	31149.60
813.53	30715.44
813.71	30772.78
813.89	30799.40
814.07	30897.70
814.25	30662.19
814.43	30619.18
814.61	30479.92
814.79	30721.58
814.97	30418.48
815.15	30354.99
815.33	30129.72
815.50	30209.59
815.68	30578.22
815.86	30424.62
816.04	30346.80
816.22	30215.73
816.40	29961.78
816.58	30008.89
816.76	30254.64
816.94	29642.30
817.11	29926.97
817.29	29902.39
817.47	29746.75
817.65	29425.22
817.83	29769.27
818.01	29269.57
818.19	29314.62
818.37	29554.24
818.54	29161.03
818.72	28862.02
818.90	29566.52
819.08	29015.62
819.26	29333.06
819.44	29404.74
819.62	29038.15
819.80	29310.53
819.97	29154.88
820.15	29201.99
820.33	28778.06
820.51	29382.21
820.69	28776.01
820.87	29386.30
821.05	29345.34
821.22	29005.38
821.40	28730.95
821.58	28898.89
821.76	28425.81
821.94	28710.47
822.12	28513.87
822.29	28874.31
822.47	28339.79
822.65	28767.82
822.83	28384.85
823.01	28288.59
823.19	28282.45
823.36	28345.94
823.54	28307.02
823.72	28272.21
823.90	28249.68
824.08	27792.98
824.25	27944.53
824.43	27813.46
824.61	27692.63
824.79	28313.17
824.97	27887.19
825.15	27835.99
825.32	27846.23
825.50	27571.80
825.68	27881.05
825.86	27651.67
826.04	27795.03
826.21	27842.14
826.39	27543.13
826.57	27561.56
826.75	27471.45
826.93	27377.25
827.10	27774.55
827.28	27256.42
827.46	27688.54
827.64	27465.31
827.81	27227.74
827.99	27395.68
828.17	27162.21
828.35	27293.28
828.53	27242.08
828.70	27276.90
828.88	27027.04
829.06	27170.40
829.24	27405.92
829.41	27108.96
829.59	27461.21
829.77	27186.79
829.95	26893.93
830.12	26799.72
830.30	26846.82
830.48	27102.82
830.66	26957.41
830.84	26723.94
831.01	26895.97
831.19	26740.33
831.37	26795.62
831.55	26556.01
831.72	26488.43
831.90	26723.94
832.08	26584.68
832.25	26990.18
832.43	26564.20
832.61	26570.35
832.79	26424.94
832.96	26529.39
833.14	26455.66
833.32	26439.28
833.50	26586.73
833.67	26660.46
833.85	26207.86
834.03	26254.96
834.20	26091.12
834.38	26214.00
834.56	26228.34
834.74	26187.38
834.91	26179.18
835.09	25796.21
835.27	25810.55
835.44	25888.37
835.62	25691.77
835.80	25785.97
835.98	25890.42
836.15	26523.24
836.33	26023.54
836.51	26005.11
836.68	25966.20
836.86	25734.78
837.04	25779.83
837.21	25810.55
837.39	25728.63
837.57	25912.95
837.75	25962.10
837.92	25300.61
838.10	25595.51
838.28	25437.82
838.45	25755.26
838.63	25648.76
838.81	25720.44
838.98	25478.78
839.16	25267.84
839.34	25566.84
839.51	25564.79
839.69	25151.10
839.87	25364.09
840.04	25431.68
840.22	25562.75
840.40	25325.18
840.57	25403.00
840.75	25411.20
840.93	24888.96
841.10	24931.97
841.28	25233.02
841.46	25175.68
841.63	25380.48
841.81	25054.85
841.98	25269.89
842.16	25263.74
842.34	25280.13
842.51	24940.16
842.69	25011.84
842.87	25136.77
843.04	25001.60
843.22	25192.06
843.40	24798.85
843.57	25044.61
843.75	25038.47
843.92	24970.88
844.10	24706.70
844.28	24946.31
844.45	24721.03
844.63	24704.65
844.81	24675.98
844.98	24544.91
845.16	24417.93
845.33	24510.09
845.51	24544.91
845.69	24293.01
845.86	24465.03
846.04	24573.58
846.21	24340.11
846.39	24125.07
846.57	24383.12
846.74	24405.64
846.92	24452.75
847.09	24307.34
847.27	24043.15
847.45	24280.72
847.62	24360.59
847.80	24282.77
847.97	24123.02
848.15	24016.53
848.32	23903.89
848.50	24233.61
848.68	23901.84
848.85	23946.90
849.03	24071.82
849.20	24065.68
849.38	23895.70
849.56	23809.68
849.73	24229.52
849.91	23994.00
850.08	24219.28
850.26	23793.30
850.43	24137.36
850.61	23670.42
850.78	23584.41
850.96	23588.50
851.14	23537.30
851.31	24073.87
851.49	23373.47
851.66	23826.07
851.84	23604.89
852.01	23836.31
852.19	23842.45
852.36	23475.87
852.54	23625.37
852.71	23651.99
852.89	23561.88
853.07	23402.14
853.24	23436.95
853.42	23465.63
853.59	23422.62
853.77	23457.43
853.94	23275.16
854.12	23561.88
854.29	23174.81
854.47	23281.31
854.64	23289.50
854.82	23326.36
854.99	23465.63
855.17	22822.56
855.34	22980.26
855.52	23158.43
855.69	23209.63
855.87	22904.48
856.04	22908.58
856.22	23230.11
856.39	22812.32
856.57	22828.71
856.74	22539.94
856.92	22918.82
857.09	22816.42
857.27	22705.83
857.44	22974.11
857.62	22769.32
857.79	23096.99
857.97	22658.73
858.14	23148.19
858.32	22455.98
858.49	22589.10
858.67	22636.20
858.84	22585.00
859.02	22654.63
859.19	22615.72
859.37	22462.12
859.54	22619.81
859.72	22449.83
859.89	22632.10
860.06	22410.92
860.24	22154.93
860.41	22535.85
860.59	22183.60
860.76	22283.95
860.94	22025.90
861.11	22337.20
861.29	22093.49
861.46	22302.38
861.64	21913.27
861.81	21933.75
861.98	22304.43
862.16	21853.87
862.33	22081.20
862.51	21839.54
862.68	21935.79
862.86	21915.31
863.03	21868.21
863.21	21812.92
863.38	21741.24
863.55	21718.71
863.73	21509.82
863.90	21755.57
864.08	21640.89
864.25	21341.88
864.43	21497.53
864.60	21612.21
864.77	21923.51
864.95	21360.31
865.12	21186.24
865.30	21489.34
865.47	21577.40
865.64	21579.45
865.82	21585.59
865.99	21616.31
866.17	21178.04
866.34	21343.93
866.51	21262.01
866.69	21567.16
866.86	21319.35
867.04	21255.87
867.21	21452.47
867.38	20829.89
867.56	20819.65
867.73	20909.76
867.91	21108.41
868.08	20989.63
868.25	20838.08
868.43	20985.54
868.60	20618.95
868.78	20666.05
868.95	20971.20
869.12	20776.64
869.30	20659.91
869.47	20686.53
869.64	20854.47
869.82	20584.13
869.99	20289.23
870.16	20723.40
870.34	20278.99
870.51	20694.72
870.69	20166.35
870.86	20473.54
871.03	20192.97
871.21	20053.71
871.38	20539.08
871.55	20168.40
871.73	20328.14
871.90	19797.71
872.07	20201.16
872.25	20008.65
872.42	20059.85
872.59	20246.22
872.77	20006.61
872.94	19865.30
873.11	19715.80
873.29	19979.98
873.46	19625.68
873.63	19484.37
873.81	19674.84
873.98	19414.74
874.15	19713.75
874.33	19117.79
874.50	19357.40
874.67	19656.40
874.85	19517.14
875.02	19556.05
875.19	19306.20
875.37	19238.62
875.54	19046.11
875.71	19179.23
875.88	19134.17
876.06	19220.19
876.23	19007.20
876.40	18925.28
876.58	19078.88
876.75	18910.94
876.92	19007.20
877.10	18943.71
877.27	18908.90
877.44	18771.68
877.61	18521.83
877.79	18493.16
877.96	18517.73
878.13	18616.04
878.31	18642.66
878.48	18487.01
878.65	18595.56
878.82	18503.40
879.00	18403.05
879.17	18331.37
879.34	18401.00
879.51	18280.17
879.69	18167.53
879.86	18173.67
880.03	18097.90
880.21	18095.85
880.38	18056.94
880.55	18091.76
880.72	17960.69
880.90	17997.55
881.07	18044.65
881.24	17911.53
881.41	17946.35
881.59	17866.48
881.76	17811.18
881.93	17757.94
882.10	17800.94
882.28	17706.74
882.45	17852.14
882.62	17813.23
882.79	17698.55
882.96	17368.82
883.14	17759.98
883.31	17600.24
883.48	17602.29
883.65	17501.94
883.83	17426.17
884.00	17532.66
884.17	17567.48
884.34	17655.54
884.51	17268.47
884.69	17379.06
884.86	17753.84
885.03	17352.44
885.20	17446.65
885.38	17346.30
885.55	17204.99
885.72	17288.95
885.89	17153.79
886.06	17200.89
886.24	17129.21
886.41	17153.79
886.58	17202.94
886.75	17293.05
886.92	16811.78
887.10	17047.29
887.27	16895.74
887.44	16885.50
887.61	17182.46
887.78	16828.16
887.95	16682.75
888.13	16586.50
888.30	16670.47
888.47	16551.68
888.64	16723.71
888.81	16598.79
888.99	16402.18
889.16	16461.57
889.33	16150.28
889.50	16451.33
889.67	16322.31
889.84	16504.58
890.01	16674.56
890.19	16387.85
890.36	16203.53
890.53	16248.58
890.70	16228.10
890.87	16293.64
891.04	15998.73
891.22	16099.08
891.39	16023.31
891.56	16150.28
891.73	15980.30
891.90	16019.21
892.07	15968.01
892.24	15879.95
892.42	16023.31
892.59	15861.52
892.76	15800.08
892.93	15666.96
893.10	16318.22
893.27	15609.62
893.44	15732.50
893.61	15769.36
893.79	16123.66
893.96	15775.50
894.13	15752.98
894.30	15714.06
894.47	15623.95
894.64	15912.72
894.81	15666.96
894.98	15734.54
895.15	15828.75
895.33	15380.25
895.50	15689.49
895.67	15683.34
895.84	15677.20
896.01	15437.59
896.18	15537.94
896.35	15675.15
896.52	15697.68
896.69	15302.42
896.86	15783.70
897.04	15361.81
897.21	15615.76
897.38	15597.33
897.55	15408.92
897.72	15410.96
897.89	15564.56
898.06	15392.53
898.23	15511.32
898.40	15447.83
898.57	15355.67
898.74	15240.98
898.91	15116.06
899.08	15390.49
899.26	15099.67
899.43	15685.39
899.60	15361.81
899.77	15533.84
899.94	15324.95
900.11	15040.28
900.28	15197.98
900.45	15335.19
900.62	15109.91
900.79	15300.37
900.96	15294.23
901.13	15134.49
901.30	15042.33
901.47	15230.74
901.64	15185.69
901.81	15167.26
901.98	14991.13
902.15	15234.84
902.32	15208.22
902.49	15478.55
902.66	15132.44
902.83	15054.62
903.01	15027.99
903.18	15183.64
903.35	15173.40
903.52	14884.64
903.69	15030.04
903.86	15251.22
904.03	15159.06
904.20	15314.71
904.37	15298.33
904.54	14862.11
904.71	15048.47
904.88	15048.47
905.05	14927.64
905.22	15208.22
905.39	15222.55
905.56	15073.05
905.73	14966.56
905.90	14802.72
906.07	14845.73
906.24	15056.67
906.41	15011.61
906.58	14880.54
906.75	14962.46
906.92	14984.99
907.09	15066.91
907.26	15097.63
907.43	14927.64
907.60	15122.20
907.77	14966.56
907.93	15077.15
908.10	14858.01
908.27	15052.57
908.44	15046.43
908.61	14878.49
908.78	14808.86
908.95	14993.18
909.12	14642.98
909.29	14667.55
909.46	15079.19
909.63	14860.06
909.80	14993.18
909.97	14841.63
910.14	14890.78
910.31	14835.49
910.48	14739.23
910.65	15017.75
910.82	14374.69
910.99	14606.11
911.16	14323.49
911.33	14669.60
911.50	14567.20
911.66	14446.37
911.83	14528.29
912.00	14636.83
912.17	14421.80
912.34	14374.69
912.51	14520.10
912.68	14348.07
912.85	14751.52
913.02	14409.51
913.19	14303.01
913.36	14577.44
913.53	14325.54
913.70	14401.32
913.86	14626.59
914.03	14350.12
914.20	14362.40
914.37	14206.76
914.54	14491.43
914.71	14233.38
914.88	14161.70
915.05	14102.31
915.22	13946.67
915.39	14212.90
915.55	13918.00
915.72	13969.19
915.89	13770.54
916.06	13637.42
916.23	13836.08
916.40	13879.08
916.57	13715.25
916.74	13776.69
916.91	13721.39
917.07	13461.30
917.24	13584.18
917.41	13731.63
917.58	13719.34
917.75	13373.24
917.92	13586.22
918.09	13389.62
918.26	13319.99
918.42	13293.37
918.59	13461.30
918.76	13391.67
918.93	13256.50
919.10	13147.96
919.27	13057.85
919.44	13403.96
919.60	13233.97
919.77	13283.13
919.94	13113.14
920.11	12922.68
920.28	13023.03
920.45	12900.16
920.61	12781.37
920.78	12861.24
920.95	12799.80
921.12	12685.12
921.29	12623.68
921.46	12580.67
921.62	12605.25
921.79	12564.29
921.96	12486.47
922.13	12156.74
922.30	12322.63
922.47	12386.12
922.63	12343.11
922.80	12279.62
922.97	12312.39
923.14	12130.12
923.31	12212.04
923.47	12095.30
923.64	12506.95
923.81	12189.51
923.98	12205.89
924.15	12009.29
924.32	11867.98
924.48	12121.93
924.65	12263.24
924.82	11741.00
924.99	11855.69
925.15	11376.47
925.32	11808.59
925.49	11525.97
925.66	11607.89
925.83	11487.06
925.99	11605.84
926.16	11765.58
926.33	11566.93
926.50	11286.36
926.67	11687.76
926.83	11343.70
927.00	11485.01
927.17	11218.77
927.34	11298.64
927.50	11247.44
927.67	11423.57
927.84	11110.23
928.01	11095.89
928.17	10977.11
928.34	10993.50
928.51	10774.36
928.68	10927.96
928.84	10868.57
929.01	10633.05
929.18	10624.86
929.35	10532.70
929.51	10626.91
929.68	10606.43
929.85	10501.98
930.02	10483.55
930.18	10356.58
930.35	10495.84
930.52	10207.08
930.69	10465.12
930.85	10268.52
931.02	10202.98
931.19	10327.91
931.36	10026.86
931.52	10049.38
931.69	10256.23
931.86	9994.09
932.02	9987.94
932.19	10098.53
932.36	9975.66
932.53	9836.39
932.69	9832.30
932.86	10045.29
933.03	9731.95
933.19	9478.00
933.36	9613.17
933.53	9865.07
933.70	9570.16
933.86	9473.90
934.03	9619.31
934.20	9367.41
934.36	9385.84
934.53	9179.00
934.70	9060.21
934.86	9242.48
935.03	8957.82
935.20	8957.82
935.36	8884.09
935.53	8961.91
935.70	9082.74
935.86	8804.22
936.03	8716.16
936.20	8517.50
936.36	8732.54
936.53	8505.21
936.70	8435.58
936.86	8544.13
937.03	8310.66
937.20	8150.92
937.36	8236.93
937.53	7853.96
937.70	7987.08
937.86	7876.49
938.03	7890.82
938.20	7849.86
938.36	7661.45
938.53	7810.95
938.70	7307.15
938.86	7427.98
939.03	7325.58
939.20	7159.70
939.36	7141.27
939.53	7045.01
939.70	7325.58
939.86	6950.81
940.03	6840.22
940.19	6948.76
940.36	6846.36
940.53	6772.63
940.69	6651.80
940.86	6545.31
941.03	6612.89
941.19	6459.29
941.36	6426.53
941.52	6244.26
941.69	6236.06
941.86	6285.22
942.02	6174.63
942.19	6074.28
942.35	6088.61
942.52	6000.55
942.69	5941.16
942.85	5824.42
943.02	5795.75
943.18	5853.09
943.35	5728.17
943.52	5840.81
943.68	5699.50
943.85	5801.90
944.01	5681.07
944.18	5576.62
944.35	5574.57
944.51	5564.33
944.68	5517.23
944.84	5509.04
945.01	5451.69
945.17	5328.81
945.34	5441.45
945.51	5435.31
945.67	5404.59
945.84	5326.77
946.00	5300.14
946.17	5412.78
946.33	5259.18
946.50	5281.71
946.67	5345.20
946.83	5363.63
947.00	5451.69
947.16	5291.95
947.33	5316.53
947.49	5224.37
947.66	5144.50
947.82	5332.91
947.99	5271.47
948.16	5222.32
948.32	5269.42
948.49	5244.85
948.65	5234.61
948.82	5392.30
948.98	5388.21
949.15	5347.25
949.31	5341.10
949.48	5355.44
949.64	5248.94
949.81	5318.57
949.97	5181.36
950.14	5218.22
950.30	5375.92
950.47	5246.90
950.63	5304.24
950.80	5347.25
950.96	5326.77
951.13	5300.14
951.30	5343.15
951.46	5347.25
951.63	5529.52
951.79	5425.07
951.96	5496.75
952.12	5367.73
952.29	5451.69
952.45	5334.96
952.62	5371.82
952.78	5500.84
952.94	5322.67
953.11	5523.37
953.27	5306.29
953.44	5695.40
953.60	5470.12
953.77	5375.92
953.93	5363.63
954.10	5457.84
954.26	5420.97
954.43	5382.06
954.59	5672.87
954.76	5547.95
954.92	5525.42
955.09	5513.13
955.25	5371.82
955.42	5484.46
955.58	5664.68
955.75	5488.56
955.91	5439.40
956.07	5457.84
956.24	5521.32
956.40	5523.37
956.57	5564.33
956.73	5437.36
956.90	5607.34
957.06	5468.08
957.23	5500.84
957.39	5529.52
957.56	5640.11
957.72	5570.48
957.88	5402.54
958.05	5535.66
958.21	5504.94
958.38	5541.80
958.54	5500.84
958.71	5664.68
958.87	5402.54
959.03	5498.80
959.20	5662.63
959.36	5560.24
959.53	5408.69
959.69	5525.42
959.85	5617.58
960.02	5353.39
960.18	5590.95
960.35	5523.37
960.51	5519.28
960.68	5468.08
960.84	5615.53
961.00	5490.60
961.17	5359.53
961.33	5588.91
961.50	5541.80
961.66	5564.33
961.82	5515.18
961.99	5429.17
962.15	5566.38
962.31	5463.98
962.48	5601.19
962.64	5566.38
962.81	5459.88
962.97	5384.11
963.13	5619.63
963.30	5617.58
963.46	5556.14
963.62	5449.64
963.79	5416.88
963.95	5437.36
964.12	5488.56
964.28	5609.39
964.44	5554.09
964.61	5482.41
964.77	5457.84
964.93	5521.32
965.10	5369.77
965.26	5357.49
965.42	5390.25
965.59	5377.97
965.75	5314.48
965.92	5496.75
966.08	5408.69
966.24	5443.50
966.41	5361.58
966.57	5322.67
966.73	5406.64
966.90	5345.20
967.06	5291.95
967.22	5435.31
967.39	5367.73
967.55	5294.00
967.71	5189.55
967.88	5326.77
968.04	5345.20
968.20	5400.49
968.37	5214.13
968.53	5302.19
968.69	5373.87
968.85	5312.43
969.02	5275.57
969.18	5328.81
969.34	5363.63
969.51	5269.42
969.67	5074.87
969.83	5076.91
970.00	5298.10
970.16	5212.08
970.32	5236.66
970.48	5341.10
970.65	4949.94
970.81	5085.11
970.97	5115.83
971.14	5111.73
971.30	5302.19
971.46	5160.88
971.63	5113.78
971.79	5095.35
971.95	5081.01
972.11	4880.31
972.28	5060.53
972.44	5144.50
972.60	4917.17
972.76	4976.56
972.93	5031.86
973.09	5050.29
973.25	5009.33
973.42	4937.65
973.58	5068.72
973.74	5003.19
973.90	5054.39
974.07	4927.41
974.23	4988.85
974.39	4951.99
974.55	4843.45
974.72	4951.99
974.88	4841.40
975.04	4843.45
975.20	4886.45
975.37	4923.32
975.53	4882.36
975.69	4894.65
975.85	4851.64
976.01	4870.07
976.18	4911.03
976.34	4847.54
976.50	4919.22
976.66	4851.64
976.83	4827.06
976.99	4814.77
977.15	4825.01
977.31	4683.70
977.47	4751.29
977.64	4726.71
977.80	4605.88
977.96	4749.24
978.12	4796.34
978.29	4712.38
978.45	4638.65
978.61	4634.55
978.77	4718.52
978.93	4736.95
979.10	4747.19
979.26	4663.22
979.42	4630.46
979.58	4612.03
979.74	4587.45
979.91	4530.11
980.07	4530.11
980.23	4614.07
980.39	4523.96
980.55	4505.53
980.71	4532.15
980.88	4566.97
981.04	4595.64
981.20	4552.63
981.36	4566.97
981.52	4501.44
981.68	4421.56
981.85	4591.55
982.01	4444.09
982.17	4394.94
982.33	4433.85
982.49	4523.96
982.65	4390.84
982.82	4392.89
982.98	4444.09
983.14	4284.35
983.30	4407.23
983.46	4464.57
983.62	4403.13
983.79	4341.69
983.95	4380.61
984.11	4190.14
984.27	4329.41
984.43	4329.41
984.59	4278.21
984.75	4220.86
984.91	4204.48
985.08	4345.79
985.24	4122.56
985.40	4233.15
985.56	4292.54
985.72	4382.65
985.88	4300.73
986.04	4265.92
986.20	4079.55
986.37	4259.78
986.53	4169.66
986.69	4249.54
986.85	4054.98
987.01	4212.67
987.17	4276.16
987.33	4216.77
987.49	4059.07
987.65	4231.10
987.82	4116.42
987.98	3915.72
988.14	4091.84
988.30	4069.31
988.46	4100.03
988.62	4050.88
988.78	3934.15
988.94	4032.45
989.10	4030.40
989.26	3964.87
989.42	4022.21
989.59	3946.44
989.75	3837.89
989.91	4036.55
990.07	3735.50
990.23	3895.24
990.39	3846.09
990.55	3940.29
990.71	3813.32
990.87	4001.73
991.03	4001.73
991.19	3801.03
991.35	3880.90
991.51	3821.51
991.67	3973.06
991.83	3895.24
992.00	3723.21
992.16	3862.47
992.32	3880.90
992.48	3774.41
992.64	3719.11
992.80	3911.62
992.96	3710.92
993.12	3829.70
993.28	3725.26
993.44	3674.06
993.60	3727.30
993.76	3749.83
993.92	3708.87
994.08	3690.44
994.24	3717.06
994.40	3715.02
994.56	3790.79
994.72	3592.14
994.88	3649.48
995.04	3565.51
995.20	3583.95
995.36	3565.51
995.52	3686.34
995.68	3579.85
995.84	3610.57
996.00	3647.43
996.16	3567.56
996.32	3542.99
996.48	3590.09
996.64	3518.41
996.80	3557.32
996.96	3512.27
997.12	3536.84
997.28	3444.68
997.44	3448.78
997.60	3401.68
997.76	3397.58
997.92	3545.03
998.08	3448.78
998.24	3330.00
998.40	3424.20
998.56	3459.02
998.72	3321.81
998.88	3299.28
999.04	3368.91
999.20	3442.64
999.36	3321.81
999.52	3436.49
999.68	3422.16
999.84	3379.15
1000.00	3354.57
1000.16	3297.23
1000.32	3282.89
1000.48	3477.45
1000.64	3266.51
1000.80	3215.31
1000.95	3262.41
1001.11	3239.89
1001.27	3143.63
1001.43	3268.56
1001.59	3129.30
1001.75	3213.26
1001.91	3215.31
1002.07	3188.69
1002.23	3057.62
1002.39	3172.30
1002.55	3160.02
1002.71	3172.30
1002.87	3243.98
1003.03	3035.09
1003.19	3137.49
1003.34	3151.82
1003.50	3166.16
1003.66	3123.15
1003.82	3092.43
1003.98	3094.48
1004.14	3168.21
1004.30	3151.82
1004.46	3045.33
1004.62	3123.15
1004.78	3076.05
1004.94	3125.20
1005.09	3065.81
1005.25	3125.20
1005.41	2992.08
1005.57	3004.37
1005.73	3022.80
1005.89	2932.69
1006.05	3094.48
1006.21	3039.19
1006.37	2947.03
1006.52	2897.88
1006.68	2801.62
1006.84	3039.19
1007.00	2879.44
1007.16	3010.51
1007.32	2854.87
1007.48	2930.64
1007.64	2940.88
1007.79	2963.41
1007.95	2865.11
1008.11	2998.23
1008.27	2928.60
1008.43	2852.82
1008.59	2838.48
1008.75	2889.68
1008.91	2846.68
1009.06	2832.34
1009.22	2879.44
1009.38	2920.40
1009.54	2854.87
1009.70	2838.48
1009.86	2764.76
1010.01	2838.48
1010.17	2662.36
1010.33	2838.48
1010.49	2856.92
1010.65	2854.87
1010.81	2721.75
1010.96	2815.96
1011.12	2770.90
1011.28	2639.83
1011.44	2789.33
1011.60	2625.50
1011.76	2701.27
1011.91	2803.67
1012.07	2670.55
1012.23	2631.64
1012.39	2699.22
1012.55	2639.83
1012.71	2662.36
1012.86	2643.93
1013.02	2578.39
1013.18	2592.73
1013.34	2660.31
1013.50	2785.24
1013.65	2688.98
1013.81	2607.06
1013.97	2629.59
1014.13	2553.82
1014.29	2559.96
1014.44	2721.75
1014.60	2559.96
1014.76	2586.58
1014.92	2535.39
1015.07	2676.70
1015.23	2598.87
1015.39	2539.48
1015.55	2500.57
1015.71	2555.86
1015.86	2471.90
1016.02	2387.93
1016.18	2486.23
1016.34	2580.44
1016.49	2498.52
1016.65	2596.82
1016.81	2475.99
1016.97	2484.19
1017.12	2592.73
1017.28	2465.75
1017.44	2455.51
1017.60	2535.39
1017.75	2424.80
1017.91	2449.37
1018.07	2533.34
1018.23	2445.27
1018.38	2484.19
1018.54	2441.18
1018.70	2562.01
1018.86	2484.19
1019.01	2385.88
1019.17	2408.41
1019.33	2482.14
1019.49	2437.08
1019.64	2494.43
1019.80	2490.33
1019.96	2465.75
1020.12	2369.50
1020.27	2375.64
1020.43	2371.55
1020.59	2369.50
1020.74	2502.62
1020.90	2367.45
1021.06	2277.34
1021.22	2404.32
1021.37	2295.77
1021.53	2334.68
1021.69	2346.97
1021.84	2275.29
1022.00	2375.64
1022.16	2228.19
1022.31	2338.78
1022.47	2361.31
1022.63	2441.18
1022.79	2265.05
1022.94	2318.30
1023.10	2369.50
1023.26	2263.01
1023.41	2252.77
1023.57	2230.24
1023.73	2320.35
1023.88	2222.05
1024.04	2260.96
1024.20	2238.43
1024.35	2275.29
1024.51	2252.77
1024.67	2263.01
1024.82	2342.88
1024.98	2197.47
1025.14	2215.90
1025.29	2240.48
1025.45	2285.53
1025.61	2179.04
1025.76	2183.13
1025.92	2236.38
1026.08	2213.85
1026.23	2271.20
1026.39	2150.37
1026.55	2234.33
1026.70	2150.37
1026.86	2170.85
1027.02	2158.56
1027.17	2131.94
1027.33	2203.61
1027.48	2152.42
1027.64	2138.08
1027.80	2181.09
1027.95	2230.24
1028.11	2125.79
1028.27	2146.27
1028.42	2236.38
1028.58	2142.18
1028.73	2054.11
1028.89	2009.06
1029.05	2211.81
1029.20	2056.16
>>>>>End Processed Spectral Data<<<<<
