SpectraSuite Data File
++++++++++++++++++++++++++++++++++++
Date: Fri Jun 02 14:44:38 CEST 2017
User: INFO_000
Dark Spectrum Present: No
Reference Spectrum Present: No
Number of Sampled Component Spectra: 1
Spectrometers: USB4H00879
Integration Time (usec): 80000 (USB4H00879)
Spectra Averaged: 1 (USB4H00879)
Boxcar Smoothing: 0 (USB4H00879)
Correct for Electrical Dark: No (USB4H00879)
Strobe/Lamp Enabled: No (USB4H00879)
Correct for Detector Non-linearity: No (USB4H00879)
Correct for Stray Light: No (USB4H00879)
Number of Pixels in Processed Spectrum: 3648
>>>>>Begin Processed Spectral Data<<<<<
345.13	1228.78
345.34	1228.78
345.56	1228.78
345.78	1204.21
345.99	1310.70
346.21	1755.11
346.42	1716.20
346.64	1634.28
346.86	1728.49
347.07	1656.81
347.29	1712.10
347.50	1695.72
347.72	1703.91
347.94	1736.68
348.15	1554.41
348.37	1640.42
348.59	1665.00
348.80	1603.56
349.02	1828.84
349.23	1916.90
349.45	1841.12
349.67	1843.17
349.88	1794.02
350.10	1925.09
350.31	1880.04
350.53	1826.79
350.75	1929.19
350.96	1748.97
351.18	1931.23
351.39	1847.27
351.61	1720.29
351.82	1918.95
352.04	1884.13
352.26	1849.32
352.47	1882.08
352.69	1910.75
352.90	1798.12
353.12	1849.32
353.34	1847.27
353.55	1978.34
353.77	1855.46
353.98	1824.74
354.20	1841.12
354.41	1988.58
354.63	1929.19
354.85	2033.63
355.06	1884.13
355.28	1751.01
355.49	1912.80
355.71	1900.52
355.92	1851.36
356.14	1966.05
356.35	1826.79
356.57	1908.71
356.79	1902.56
357.00	1845.22
357.22	1931.23
357.43	1834.98
357.65	1957.86
357.86	1830.88
358.08	1968.10
358.29	2000.87
358.51	1980.39
358.72	1937.38
358.94	1900.52
359.16	1955.81
359.37	1996.77
359.59	1902.56
359.80	1970.15
360.02	1945.57
360.23	1957.86
360.45	2029.54
360.66	2015.20
360.88	1855.46
361.09	1902.56
361.31	1961.95
361.52	1949.67
361.74	2097.12
361.95	2027.49
362.17	1957.86
362.38	2033.63
362.60	2054.11
362.81	1996.77
363.03	1955.81
363.24	1957.86
363.46	2062.30
363.67	1998.82
363.89	1974.24
364.10	1992.67
364.32	1931.23
364.53	2015.20
364.75	1898.47
364.96	2015.20
365.18	2039.78
365.39	1982.43
365.61	1906.66
365.82	2105.31
366.04	2054.11
366.25	1978.34
366.47	2015.20
366.68	1957.86
366.90	1974.24
367.11	2107.36
367.33	2039.78
367.54	2125.79
367.76	1992.67
367.97	2222.05
368.19	2035.68
368.40	2066.40
368.62	1992.67
368.83	2007.01
369.05	2123.74
369.26	2027.49
369.48	2007.01
369.69	2011.11
369.91	2062.30
370.12	2004.96
370.33	2119.65
370.55	2011.11
370.76	2054.11
370.98	2109.41
371.19	2015.20
371.41	2027.49
371.62	2054.11
371.84	1974.24
372.05	2205.66
372.27	2113.50
372.48	1959.91
372.69	2076.64
372.91	2131.94
373.12	2109.41
373.34	2070.50
373.55	2113.50
373.77	2207.71
373.98	2070.50
374.20	2179.04
374.41	2277.34
374.62	2133.98
374.84	2189.28
375.05	2136.03
375.27	2115.55
375.48	2230.24
375.70	2127.84
375.91	2213.85
376.12	2234.33
376.34	2197.47
376.55	2154.46
376.77	2148.32
376.98	2187.23
377.19	2121.70
377.41	2138.08
377.62	2258.91
377.84	2246.62
378.05	2306.01
378.27	2238.43
378.48	2299.87
378.69	2281.44
378.91	2306.01
379.12	2191.33
379.34	2211.81
379.55	2342.88
379.76	2232.29
379.98	2199.52
380.19	2246.62
380.41	2351.07
380.62	2318.30
380.83	2265.05
381.05	2213.85
381.26	2482.14
381.47	2269.15
381.69	2303.96
381.90	2463.71
382.12	2349.02
382.33	2269.15
382.54	2312.16
382.76	2332.64
382.97	2373.60
383.19	2281.44
383.40	2408.41
383.61	2295.77
383.83	2293.72
384.04	2293.72
384.25	2342.88
384.47	2445.27
384.68	2410.46
384.89	2269.15
385.11	2334.68
385.32	2406.36
385.54	2291.68
385.75	2330.59
385.96	2447.32
386.18	2422.75
386.39	2349.02
386.60	2379.74
386.82	2396.12
387.03	2475.99
387.24	2418.65
387.46	2437.08
387.67	2437.08
387.88	2424.80
388.10	2492.38
388.31	2516.95
388.52	2461.66
388.74	2478.04
388.95	2574.30
389.16	2451.42
389.38	2478.04
389.59	2578.39
389.80	2684.89
390.02	2607.06
390.23	2613.21
390.44	2422.75
390.66	2523.10
390.87	2516.95
391.08	2697.17
391.30	2693.08
391.51	2668.50
391.72	2658.26
391.94	2637.78
392.15	2682.84
392.36	2602.97
392.58	2574.30
392.79	2674.65
393.00	2684.89
393.22	2750.42
393.43	2762.71
393.64	2740.18
393.85	2789.33
394.07	2699.22
394.28	2729.94
394.49	2756.57
394.71	2807.77
394.92	2748.37
395.13	2678.74
395.35	2838.48
395.56	2807.77
395.77	2842.58
395.98	2832.34
396.20	2994.13
396.41	2879.44
396.62	2887.64
396.84	2803.67
397.05	2832.34
397.26	2858.96
397.47	3012.56
397.69	2852.82
397.90	3018.71
398.11	2961.36
398.32	2889.68
398.54	2846.68
398.75	2961.36
398.96	2990.03
399.18	3119.06
399.39	2930.64
399.60	3039.19
399.81	2981.84
400.03	3012.56
400.24	3274.70
400.45	2961.36
400.66	3082.19
400.88	2983.89
401.09	3231.69
401.30	3090.38
401.51	3213.26
401.73	3164.11
401.94	3141.58
402.15	3133.39
402.36	3121.10
402.58	3086.29
402.79	3157.97
403.00	3248.08
403.21	3239.89
403.43	3295.18
403.64	3315.66
403.85	3153.87
404.06	3235.79
404.27	3043.28
404.49	3149.78
404.70	3223.50
404.91	3174.35
405.12	3301.33
405.34	3241.93
405.55	3375.05
405.76	3190.74
405.97	3252.17
406.19	3350.48
406.40	3231.69
406.61	3399.63
406.82	3403.72
407.03	3282.89
407.25	3252.17
407.46	3454.92
407.67	3422.16
407.88	3538.89
408.09	3368.91
408.31	3293.13
408.52	3536.84
408.73	3395.53
408.94	3272.65
409.15	3522.51
409.37	3612.62
409.58	3373.00
409.79	3383.24
410.00	3542.99
410.21	3456.97
410.43	3524.55
410.64	3377.10
410.85	3637.19
411.06	3624.90
411.27	3682.25
411.48	3698.63
411.70	3542.99
411.91	3649.48
412.12	3794.89
412.33	3649.48
412.54	3637.19
412.76	3620.81
412.97	3758.02
413.18	3565.51
413.39	3704.78
413.60	3641.29
413.81	3612.62
414.03	3657.67
414.24	3686.34
414.45	3899.33
414.66	3504.07
414.87	3610.57
415.08	3739.59
415.30	3725.26
415.51	3766.21
415.72	3758.02
415.93	3841.99
416.14	3780.55
416.35	3803.08
416.56	3778.50
416.78	3889.09
416.99	3850.18
417.20	3794.89
417.41	3971.01
417.62	3989.44
417.83	3975.11
418.04	3813.32
418.26	3991.49
418.47	3923.91
418.68	3985.35
418.89	4042.69
419.10	4163.52
419.31	4011.97
419.52	4108.23
419.73	4104.13
419.95	4159.42
420.16	4028.35
420.37	4007.87
420.58	4085.70
420.79	3944.39
421.00	4038.59
421.21	4159.42
421.42	4177.86
421.63	4349.89
421.85	4181.95
422.06	4278.21
422.27	4292.54
422.48	4247.49
422.69	4267.97
422.90	4319.17
423.11	4290.49
423.32	4265.92
423.53	4433.85
423.75	4450.24
423.96	4476.86
424.17	4485.05
424.38	4483.00
424.59	4446.14
424.80	4677.56
425.01	4444.09
425.22	4499.39
425.43	4427.71
425.64	4593.59
425.85	4710.33
426.06	4636.60
426.28	4595.64
426.49	4642.75
426.70	4513.72
426.91	4526.01
427.12	4636.60
427.33	4657.08
427.54	4706.23
427.75	4773.82
427.96	4892.60
428.17	4702.14
428.38	4759.48
428.59	4765.62
428.80	4767.67
429.01	4882.36
429.23	4734.90
429.44	4911.03
429.65	5001.14
429.86	4837.30
430.07	4790.20
430.28	4915.12
430.49	4923.32
430.70	5107.63
430.91	5091.25
431.12	4988.85
431.33	5167.03
431.54	5197.74
431.75	5144.50
431.96	5150.64
432.17	5107.63
432.38	5038.00
432.59	5478.32
432.80	5240.75
433.01	5359.53
433.22	5404.59
433.43	5207.98
433.64	5199.79
433.85	5318.57
434.06	5351.34
434.27	5341.10
434.49	5351.34
434.70	5472.17
434.91	5496.75
435.12	5334.96
435.33	5429.17
435.54	5529.52
435.75	5232.56
435.96	5377.97
436.17	5380.01
436.38	5590.95
436.59	5652.39
436.80	5640.11
437.01	5818.28
437.22	5863.33
437.43	5527.47
437.64	5416.88
437.85	5793.70
438.06	5781.42
438.27	5697.45
438.48	5728.17
438.69	5664.68
438.90	5607.34
439.11	5687.21
439.32	6035.36
439.53	5642.15
439.74	5734.31
439.95	6012.84
440.16	5937.06
440.37	5984.16
440.57	5758.89
440.78	6074.28
440.99	6033.32
441.20	6158.24
441.41	5898.15
441.62	6037.41
441.83	5889.96
442.04	6131.62
442.25	6027.17
442.46	6164.39
442.67	6209.44
442.88	6451.10
443.09	6135.71
443.30	6199.20
443.51	6283.17
443.72	6490.01
443.93	6328.22
444.14	6391.71
444.35	6287.26
444.56	6516.64
444.77	6383.52
444.98	6475.68
445.19	6381.47
445.40	6481.82
445.61	6377.37
445.81	6625.18
446.02	6664.09
446.23	6539.16
446.44	6430.62
446.65	6600.60
446.86	6539.16
447.07	6633.37
447.28	6956.95
447.49	6784.92
447.70	6700.95
447.91	6750.10
448.12	6594.46
448.33	6840.22
448.54	6836.12
448.74	6676.38
448.95	6772.63
449.16	6782.87
449.37	7081.88
449.58	6856.60
449.79	7104.40
450.00	6959.00
450.21	6909.85
450.42	7116.69
450.63	7112.60
450.84	6944.66
451.05	7108.50
451.25	7217.04
451.46	7065.49
451.67	7311.25
451.88	7479.18
452.09	7206.80
452.30	7169.94
452.51	7301.01
452.72	7327.63
452.93	7579.53
453.13	7378.83
453.34	7358.35
453.55	7395.22
453.76	7292.82
453.97	7743.37
454.18	7501.71
454.39	7587.72
454.60	7550.86
454.81	7604.11
455.01	7858.06
455.22	7425.93
455.43	7632.78
455.64	8085.38
455.85	7919.50
456.06	8085.38
456.27	7923.59
456.48	7757.71
456.68	7884.68
456.89	7948.17
457.10	8177.54
457.31	7921.54
457.52	8161.16
457.73	8095.62
457.94	8294.27
458.14	7954.31
458.35	8576.89
458.56	8216.45
458.77	8195.97
458.98	8587.13
459.19	8439.68
459.39	8341.38
459.60	8476.54
459.81	8427.39
460.02	8646.52
460.23	8490.88
460.44	8740.73
460.65	8710.01
460.85	8654.72
461.06	8822.65
461.27	8570.75
461.48	8879.99
461.69	8986.49
461.89	8734.59
462.10	8834.94
462.31	8773.50
462.52	8869.75
462.73	9000.82
462.94	9062.26
463.14	9148.28
463.35	9039.73
463.56	9631.60
463.77	9457.52
463.98	9119.60
464.18	9459.57
464.39	9559.92
464.60	9531.25
464.81	9492.34
465.02	9369.46
465.23	9650.03
465.43	9430.90
465.64	9908.07
465.85	9766.76
466.06	9682.80
466.27	10119.01
466.47	10094.44
466.68	9903.98
466.89	9856.87
467.10	10139.49
467.30	9793.39
467.51	10231.65
467.72	10542.94
467.93	10293.09
468.14	10444.64
468.34	10334.05
468.55	10434.40
468.76	10491.74
468.97	10409.83
469.17	10624.86
469.38	10819.42
469.59	10846.04
469.80	10635.10
470.01	10819.42
470.21	10915.67
470.42	11267.92
470.63	11288.40
470.84	11030.36
471.04	11231.06
471.25	11433.81
471.46	11419.47
471.67	11521.87
471.87	11665.23
472.08	11710.29
472.29	11808.59
472.50	11636.56
472.70	11558.74
472.91	11757.39
473.12	11870.03
473.33	12054.34
473.53	12513.09
473.74	12134.21
473.95	12353.35
474.16	12445.51
474.36	12488.51
474.57	12599.10
474.78	12633.92
474.99	12613.44
475.19	12468.03
475.40	13000.51
475.61	13057.85
475.81	12908.35
476.02	13334.32
476.23	13076.28
476.44	13352.76
476.64	13655.86
476.85	13631.28
477.06	13635.38
477.27	13866.80
477.47	13903.66
477.68	13803.31
477.89	14165.80
478.09	14130.98
478.30	14147.37
478.51	13913.90
478.71	14530.34
478.92	14442.28
479.13	14612.26
479.34	14698.27
479.54	14630.69
479.75	14593.83
479.96	14978.84
480.16	14929.69
480.37	15173.40
480.58	15265.56
480.78	15400.72
480.99	15361.81
481.20	15501.08
481.41	15527.70
481.61	15961.87
481.82	15925.00
482.03	15771.41
482.23	15933.20
482.44	16367.37
482.65	16217.86
482.85	16396.04
483.06	16281.35
483.27	16379.65
483.47	16457.48
483.68	16633.60
483.89	16705.28
484.09	16924.41
484.30	16854.78
484.51	17108.73
484.71	17159.93
484.92	16948.99
485.13	17491.70
485.33	17477.37
485.54	17671.92
485.75	17770.22
485.95	17669.87
486.16	17716.98
486.37	17944.30
486.57	17624.82
486.78	18044.65
486.98	17907.44
487.19	18278.12
487.40	18484.97
487.60	18495.21
487.81	18472.68
488.02	18452.20
488.22	18501.35
488.43	18458.34
488.64	19009.25
488.84	18921.18
489.05	18900.70
489.25	18925.28
489.46	19031.77
489.67	19107.55
489.87	19418.84
490.08	19386.07
490.29	19441.37
490.49	19613.40
490.70	19885.78
490.90	19789.52
491.11	19941.07
491.32	20117.20
491.52	19994.32
491.73	20059.85
491.94	20119.24
492.14	20274.89
492.35	20250.32
492.55	20330.19
492.76	20547.27
492.97	20713.16
493.17	20582.09
493.38	20631.24
493.58	20770.50
493.79	20989.63
494.00	20721.35
494.20	21128.89
494.41	20985.54
494.61	21253.82
494.82	21505.72
495.02	21171.90
495.23	21425.85
495.44	21374.65
495.64	21884.59
495.85	21604.02
496.05	21706.42
496.26	21855.92
496.47	21898.93
496.67	21954.22
496.88	22132.40
497.08	21917.36
497.29	22267.56
497.49	21970.61
497.70	22316.72
497.91	22505.13
498.11	22460.07
498.32	22810.28
498.52	22662.82
498.73	22785.70
498.93	22759.08
499.14	23107.23
499.34	22836.90
499.55	22924.96
499.76	22865.57
499.96	23217.82
500.17	23215.77
500.37	23367.32
500.58	23203.49
500.78	23260.83
500.99	23342.75
501.19	23586.46
501.40	23668.37
501.60	23420.57
501.81	23416.47
502.02	23580.31
502.22	23719.57
502.43	24028.82
502.63	23905.94
502.84	24110.74
503.04	24018.58
503.25	24245.90
503.45	24026.77
503.66	24387.21
503.86	24170.13
504.07	24811.14
504.27	24397.45
504.48	24422.03
504.68	24575.62
504.89	24954.50
505.09	24757.89
505.30	24657.54
505.50	24751.75
505.71	25091.71
505.91	25032.32
506.12	25044.61
506.32	25169.54
506.53	24950.40
506.73	25425.53
506.94	25181.82
507.14	25249.41
507.35	25519.74
507.55	25486.97
507.76	25781.88
507.96	25302.65
508.17	25312.89
508.37	25677.43
508.58	25501.31
508.78	25855.61
508.99	26185.33
509.19	25781.88
509.40	25915.00
509.60	25974.39
509.81	26193.52
510.01	26117.75
510.22	26132.08
510.42	26101.36
510.63	26482.28
510.83	26482.28
511.04	26562.15
511.24	26609.26
511.44	26521.20
511.65	26553.96
511.85	26650.22
512.06	26533.48
512.26	26541.68
512.47	26877.54
512.67	26898.02
512.88	27053.67
513.08	26949.22
513.29	27332.19
513.49	27338.33
513.69	27344.48
513.90	27381.34
514.10	27350.62
514.31	27483.74
514.51	27477.60
514.72	27440.73
514.92	27586.14
515.13	27635.29
515.33	27881.05
515.53	27782.74
515.74	27733.59
515.94	28192.34
516.15	28089.94
516.35	27723.35
516.56	28278.35
516.76	28245.58
516.96	28192.34
517.17	28610.12
517.37	28376.66
517.58	28276.30
517.78	28540.49
517.99	28689.99
518.19	29042.24
518.39	28847.69
518.60	29072.96
518.80	28989.00
519.01	29234.75
519.21	29115.97
519.41	29183.55
519.62	29193.79
519.82	29353.54
520.03	29453.89
520.23	29556.28
520.43	29488.70
520.64	29906.49
520.84	29724.22
521.05	29693.50
521.25	29828.66
521.45	30037.56
521.66	29947.45
521.86	30119.48
522.07	30082.61
522.27	30273.07
522.47	30404.14
522.68	30428.72
522.88	30338.61
523.08	30651.95
523.29	31192.61
523.49	30697.00
523.70	30699.05
523.90	30955.05
524.10	30838.31
524.31	31397.41
524.51	31137.32
524.71	31446.56
524.92	31292.96
525.12	31462.94
525.33	31456.80
525.53	31907.35
525.73	31579.68
525.94	31577.63
526.14	31692.32
526.34	31929.88
526.55	31958.55
526.75	31948.31
526.95	32423.44
527.16	32097.81
527.36	32208.40
527.56	32849.42
527.77	32671.25
527.97	32343.57
528.17	32853.51
528.38	32618.00
528.58	32802.32
528.78	32822.80
528.99	32796.17
529.19	33422.85
529.39	32974.34
529.60	33119.75
529.80	33314.31
530.00	33332.74
530.21	33533.44
530.41	33795.58
530.61	33525.25
530.82	34055.67
531.02	33799.68
531.22	34039.29
531.43	34104.82
531.63	33990.14
531.83	34160.12
532.04	34690.54
532.24	34407.92
532.44	34967.02
532.64	34854.38
532.85	34829.80
533.05	34723.31
533.25	34557.42
533.46	34582.00
533.66	35110.38
533.86	34799.08
534.07	35249.64
534.27	35040.75
534.47	35450.34
534.67	35612.13
534.88	35313.13
535.08	35732.96
535.28	35861.98
535.49	35900.89
535.69	36414.93
535.89	36009.43
536.09	35915.23
536.30	36277.72
536.50	36132.31
536.70	36335.06
536.91	36390.36
537.11	36560.34
537.31	36371.92
537.51	36582.87
537.72	36863.44
537.92	36568.53
538.12	37055.95
538.32	37002.70
538.53	37074.38
538.73	37209.54
538.93	37258.70
539.13	37017.04
539.34	37449.16
539.54	37154.25
539.74	37688.77
539.94	37418.44
540.15	37270.98
540.35	37615.04
540.55	37707.20
540.75	37778.88
540.96	38051.26
541.16	37729.73
541.36	37848.51
541.56	38073.79
541.77	37946.81
541.97	37758.40
542.17	38333.88
542.37	38038.97
542.58	37973.44
542.78	38284.73
542.98	38481.33
543.18	38319.54
543.38	38608.31
543.59	38880.69
543.79	38157.75
543.99	38354.36
544.19	38813.10
544.40	38510.00
544.60	38964.65
544.80	38458.81
545.00	39083.44
545.20	38794.67
545.41	39001.52
545.61	38944.17
545.81	38948.27
546.01	39165.35
546.21	39202.22
546.42	39093.68
546.62	39611.81
546.82	39058.86
547.02	39470.50
547.22	39323.05
547.43	39280.04
547.63	39419.30
547.83	39347.62
548.03	39335.34
548.23	39816.61
548.44	39351.72
548.64	39830.94
548.84	39789.98
549.04	39826.85
549.24	40007.07
549.45	40347.03
549.65	39837.09
549.85	39992.73
550.05	40181.15
550.25	39994.78
550.45	40555.93
550.66	40088.99
550.86	40175.00
551.06	40506.77
551.26	40652.18
551.46	40406.42
551.66	40314.26
551.87	40471.96
552.07	40949.14
552.27	40734.10
552.47	40623.51
552.67	40656.28
552.87	40871.31
553.07	40826.26
553.28	40783.25
553.48	41143.69
553.68	40605.08
553.88	41328.01
554.08	41420.17
554.28	41293.19
554.48	40996.24
554.69	41538.95
554.89	41141.64
555.09	41248.14
555.29	41350.54
555.49	41581.96
555.69	41532.81
555.89	41448.84
556.10	41565.57
556.30	41436.55
556.50	41491.85
556.70	41532.81
556.90	42089.85
557.10	42091.90
557.30	41731.46
557.50	41989.50
557.70	41753.99
557.91	42421.62
558.11	42124.67
558.31	42282.36
558.51	41989.50
558.71	41987.46
558.91	42603.89
559.11	42243.45
559.31	42347.90
559.51	42581.37
559.72	42638.71
559.92	42870.13
560.12	42796.40
560.32	42720.63
560.52	42605.94
560.72	43001.20
560.92	43175.28
561.12	42659.19
561.32	43089.26
561.52	42726.77
561.72	43287.92
561.93	43124.08
562.13	43201.90
562.33	43103.60
562.53	43949.41
562.73	43197.80
562.93	43263.34
563.13	43664.74
563.33	43406.70
563.53	43494.76
563.73	43060.59
563.93	43470.18
564.13	43842.92
564.33	43674.98
564.53	43701.61
564.74	44399.96
564.94	43955.55
565.14	44143.97
565.34	43709.80
565.54	43849.06
565.74	44279.13
565.94	44303.71
566.14	44299.61
566.34	44055.90
566.54	45024.59
566.74	44254.56
566.94	44531.03
567.14	44717.40
567.34	44426.59
567.54	44719.45
567.74	44268.89
567.94	44752.21
568.14	45448.52
568.34	44965.20
568.54	44733.78
568.74	45059.41
568.94	44539.22
569.14	45645.13
569.34	45407.56
569.54	45380.94
569.75	45094.22
569.95	45167.95
570.15	45782.34
570.35	45567.30
570.55	45198.67
570.75	45675.85
570.95	45397.32
571.15	45626.70
571.35	45294.92
571.55	45940.04
571.75	45415.76
571.95	45876.55
572.15	45823.30
572.35	46183.74
572.55	45487.43
572.75	45993.28
572.95	46021.95
573.15	46626.10
573.35	46161.22
573.55	46220.61
573.75	46277.95
573.95	46030.15
574.15	46226.75
574.35	46859.57
574.55	46847.29
574.75	46423.36
574.95	46376.25
575.15	46552.38
575.34	46568.76
575.54	47072.56
575.74	46849.33
575.94	47054.13
576.14	47002.93
576.34	46986.55
576.54	47379.76
576.74	47043.89
576.94	47240.50
577.14	47224.11
577.34	47379.76
577.54	46939.44
577.74	47390.00
577.94	47723.82
578.14	47134.00
578.34	47164.72
578.54	47246.64
578.74	47088.95
578.94	47861.03
579.14	47385.90
579.34	47752.49
579.54	47852.84
579.74	48157.99
579.94	48092.45
580.13	48196.90
580.33	48174.37
580.53	48055.59
580.73	48364.83
580.93	47838.50
581.13	48571.67
581.33	48456.99
581.53	48545.05
581.73	48246.05
581.93	48727.32
582.13	48577.82
582.33	48553.24
582.53	48723.22
582.73	48633.11
582.92	48166.18
583.12	48909.59
583.32	48796.95
583.52	48272.67
583.72	48887.06
583.92	48473.37
584.12	48332.06
584.32	49061.14
584.52	49016.08
584.72	49106.19
584.92	48872.73
585.11	49528.08
585.31	49243.41
585.51	49605.90
585.71	49014.04
585.91	49397.01
586.11	49030.42
586.31	49093.91
586.51	49360.14
586.71	49511.69
586.91	49845.51
587.10	49890.57
587.30	49560.84
587.50	49970.44
587.70	49868.04
587.90	49745.16
588.10	49777.93
588.30	49714.44
588.50	49870.09
588.69	49982.73
588.89	49857.80
589.09	50212.10
589.29	49997.06
589.49	50279.68
589.69	50128.13
589.89	50318.59
590.08	50015.49
590.28	50572.54
590.48	49751.30
590.68	50062.60
590.88	50253.06
591.08	49986.82
591.28	50285.82
591.47	50156.80
591.67	50425.09
591.87	50341.12
592.07	50197.76
592.27	50797.82
592.47	50449.66
592.67	50345.22
592.86	50167.04
593.06	50476.29
593.26	50406.65
593.46	50271.49
593.66	50529.53
593.86	50541.82
594.05	50263.30
594.25	50650.36
594.45	50396.42
594.65	50427.13
594.85	50414.85
595.05	50558.20
595.24	51012.85
595.44	50652.41
595.64	50695.42
595.84	50550.01
596.04	50582.78
596.23	50662.65
596.43	50906.36
596.63	51029.24
596.83	50894.07
597.03	51129.59
597.22	51574.00
597.42	51465.45
597.62	51258.61
597.82	51453.17
598.02	51105.01
598.21	51305.71
598.41	51049.72
598.61	51123.44
598.81	51649.77
599.01	51748.07
599.20	51238.13
599.40	51127.54
599.60	51348.72
599.80	51135.73
600.00	51608.81
600.19	51819.75
600.39	51614.96
600.59	51911.91
600.79	52059.37
600.98	51584.24
601.18	51737.83
601.38	52110.56
601.58	52292.83
601.78	52212.96
601.97	52225.25
602.17	52380.90
602.37	52239.59
602.57	52471.01
602.76	52212.96
602.96	52335.84
603.16	52810.97
603.36	52450.53
603.55	52401.38
603.75	52446.43
603.95	52585.69
604.15	52686.04
604.34	52718.81
604.54	52649.18
604.74	52606.17
604.94	52620.51
605.13	52909.27
605.33	53091.54
605.53	52675.80
605.73	53187.80
605.92	52679.90
606.12	53107.93
606.32	52614.37
606.52	52493.54
606.71	53290.19
606.91	53120.21
607.11	52876.51
607.30	53134.55
607.50	53212.37
607.70	53253.33
607.90	53198.04
608.09	53462.22
608.29	53368.02
608.49	53599.44
608.68	53290.19
608.88	53347.54
609.08	53304.53
609.28	53503.18
609.47	52991.19
609.67	53855.43
609.87	53664.97
610.06	53847.24
610.26	53636.30
610.46	53900.49
610.66	53740.75
610.85	53640.40
611.05	53957.83
611.25	53638.35
611.44	53914.83
611.64	53828.81
611.84	53740.75
612.03	53552.33
612.23	54129.86
612.43	53953.74
612.62	54060.23
612.82	54400.19
613.02	54039.75
613.21	54338.75
613.41	53904.59
613.61	54273.22
613.80	53687.50
614.00	53837.00
614.20	53957.83
614.39	53796.04
614.59	54039.75
614.79	53912.78
614.98	53937.35
615.18	54068.42
615.38	54568.13
615.57	54164.68
615.77	54727.87
615.97	54027.46
616.16	54488.26
616.36	53851.34
616.56	54609.09
616.75	54793.40
616.95	53984.46
617.15	54047.94
617.34	54510.78
617.54	54138.05
617.74	54781.12
617.93	54713.53
618.13	54084.81
618.32	54305.99
618.52	54183.11
618.72	54330.56
618.91	54987.96
619.11	54207.68
619.31	54613.18
619.50	54312.13
619.70	54305.99
619.90	54693.05
620.09	54486.21
620.29	54496.45
620.48	54351.04
620.68	54588.61
620.88	54609.09
621.07	54414.53
621.27	54729.92
621.46	54387.91
621.66	54449.35
621.86	54535.36
622.05	54746.30
622.25	54932.67
622.44	54670.53
622.64	54723.77
622.84	54844.60
623.03	54572.22
623.23	54777.02
623.42	55260.34
623.62	54963.39
623.82	54668.48
624.01	54707.39
624.21	54881.47
624.40	54930.62
624.60	54840.51
624.80	54361.28
624.99	54883.51
625.19	54588.61
625.38	55008.44
625.58	55299.25
625.77	54867.13
625.97	55104.70
626.17	55010.49
626.36	55178.42
626.56	55243.96
626.75	54752.44
626.95	55344.31
627.14	55188.66
627.34	55614.64
627.54	55030.97
627.73	55301.30
627.93	55063.74
628.12	54912.19
628.32	55450.80
628.51	55252.15
628.71	55465.14
628.90	55178.42
629.10	55317.68
629.30	55714.99
629.49	55194.81
629.69	55823.53
629.88	55534.77
630.08	55514.29
630.27	55719.09
630.47	55569.58
630.66	55852.20
630.86	55946.41
631.05	55424.18
631.25	55938.22
631.44	55882.92
631.64	55522.48
631.84	56005.80
632.03	56145.06
632.23	55821.48
632.42	55817.39
632.62	55870.64
632.81	55684.27
633.01	55901.36
633.20	56313.00
633.40	55930.03
633.59	55837.87
633.79	55309.49
633.98	55999.66
634.18	56091.82
634.37	55987.37
634.57	56143.02
634.76	56290.47
634.96	56186.02
635.15	56231.08
635.35	56124.58
635.54	56038.57
635.74	56366.24
635.93	55542.96
636.13	56114.34
636.32	56362.15
636.52	55856.30
636.71	55952.55
636.91	55975.08
637.10	56489.12
637.30	55956.65
637.49	55884.97
637.69	56089.77
637.88	56474.79
638.08	56114.34
638.27	56505.51
638.46	56501.41
638.66	56405.16
638.85	56792.22
639.05	56624.29
639.24	56655.01
639.44	56186.02
639.63	56411.30
639.83	56790.17
640.02	56396.96
640.22	56800.41
640.41	56646.82
640.61	56149.16
640.80	56781.98
640.99	56403.11
641.19	56571.04
641.38	56597.66
641.58	56685.73
641.77	56714.40
641.97	56444.07
642.16	56394.92
642.36	56982.68
642.55	56972.44
642.74	56704.16
642.94	56966.30
643.13	56470.69
643.33	56857.76
643.52	57404.56
643.72	57164.95
643.91	56960.15
644.10	56982.68
644.30	57087.13
644.49	57070.75
644.69	57181.34
644.88	57207.96
645.08	56745.12
645.27	57113.75
645.46	56753.31
645.66	57068.70
645.85	56775.84
646.05	56763.55
646.24	56980.63
646.43	56546.47
646.63	57545.87
646.82	57189.53
647.02	56980.63
647.21	56931.48
647.40	56994.97
647.60	57468.05
647.79	57480.34
647.99	57193.62
648.18	56896.67
648.37	57433.24
648.57	57230.49
648.76	57138.33
648.96	56890.52
649.15	57406.61
649.34	57638.03
649.54	57154.71
649.73	56863.90
649.92	57416.85
650.12	56980.63
650.31	57388.18
650.51	57140.38
650.70	57658.51
650.89	57357.46
651.09	57955.47
651.28	57668.75
651.47	57492.63
651.67	57635.98
651.86	57445.52
652.06	56827.04
652.25	57623.70
652.44	57603.22
652.64	56534.18
652.83	57087.13
653.02	56988.83
653.22	56892.57
653.41	57160.86
653.60	56919.20
653.80	57140.38
653.99	57236.63
654.18	57146.52
654.38	57021.59
654.57	57189.53
654.76	56980.63
654.96	56542.37
655.15	56904.86
655.34	57220.25
655.54	56595.62
655.73	57144.47
655.92	57195.67
656.12	57398.42
656.31	57314.45
656.50	57355.41
656.70	57128.09
656.89	56960.15
657.08	57152.66
657.28	57121.94
657.47	56857.76
657.66	57361.56
657.86	57103.51
658.05	56874.14
658.24	57304.21
658.43	56941.72
658.63	56769.69
658.82	56992.92
659.01	57121.94
659.21	57119.90
659.40	56939.68
659.59	56908.96
659.79	57259.16
659.98	56849.56
660.17	57013.40
660.36	56972.44
660.56	57162.90
660.75	57164.95
660.94	56685.73
661.14	56605.86
661.33	57046.17
661.52	56777.89
661.71	57468.05
661.91	56431.78
662.10	56399.01
662.29	56786.08
662.49	56779.93
662.68	56980.63
662.87	56972.44
663.06	56919.20
663.26	56851.61
663.45	57167.00
663.64	56951.96
663.83	56771.74
664.03	57070.75
664.22	56880.28
664.41	56943.77
664.60	56396.96
664.80	56704.16
664.99	56403.11
665.18	56534.18
665.37	56790.17
665.57	56689.82
665.76	56657.06
665.95	56493.22
666.14	56470.69
666.34	56335.52
666.53	56382.63
666.72	56546.47
666.91	56317.09
667.11	56249.51
667.30	56769.69
667.49	56114.34
667.68	56878.24
667.87	56409.25
668.07	56435.87
668.26	56374.44
668.45	56673.44
668.64	56425.64
668.84	56827.04
669.03	56474.79
669.22	56132.78
669.41	56595.62
669.60	56528.03
669.80	56296.61
669.99	56448.16
670.18	56116.39
670.37	56057.00
670.57	56601.76
670.76	55735.47
670.95	56564.90
671.14	55985.32
671.33	55850.16
671.53	56452.26
671.72	56470.69
671.91	56138.92
672.10	56140.97
672.29	55817.39
672.48	55874.73
672.68	56276.13
672.87	55735.47
673.06	56100.01
673.25	55878.83
673.44	55813.29
673.64	55604.40
673.83	55719.09
674.02	55653.55
674.21	55608.50
674.40	55911.59
674.59	55997.61
674.79	55583.92
674.98	55893.16
675.17	55803.05
675.36	55940.27
675.55	56323.24
675.74	55688.37
675.94	55993.51
676.13	55647.41
676.32	55882.92
676.51	56136.87
676.70	55760.05
676.89	55911.59
677.08	56108.20
677.28	55227.57
677.47	55934.12
677.66	55819.44
677.85	55841.96
678.04	55940.27
678.23	55768.24
678.42	55876.78
678.62	55923.88
678.81	56052.90
679.00	55635.12
679.19	56542.37
679.38	55878.83
679.57	55960.75
679.76	55946.41
679.96	55710.89
680.15	56001.71
680.34	55596.21
680.53	55426.23
680.72	55643.31
680.91	56038.57
681.10	55608.50
681.29	55542.96
681.48	55923.88
681.68	55796.91
681.87	55581.87
682.06	55923.88
682.25	55297.20
682.44	55633.07
682.63	55340.21
682.82	55295.16
683.01	55293.11
683.20	55112.89
683.39	55217.33
683.59	54906.04
683.78	55162.04
683.97	55409.84
684.16	55178.42
684.35	55100.60
684.54	55071.93
684.73	55436.47
684.92	55211.19
685.11	55375.03
685.30	55598.26
685.49	55379.12
685.69	55047.35
685.88	55203.00
686.07	55057.59
686.26	54914.23
686.45	55200.95
686.64	55209.14
686.83	55071.93
687.02	54957.24
687.21	55538.86
687.40	55477.43
687.59	55086.26
687.78	55352.50
687.97	55329.97
688.16	55340.21
688.35	54803.64
688.54	54645.95
688.74	55180.47
688.93	54949.05
689.12	55237.81
689.31	55215.29
689.50	55221.43
689.69	55071.93
689.88	54625.47
690.07	55043.26
690.26	54940.86
690.45	55653.55
690.64	54938.81
690.83	54824.12
691.02	54924.47
691.21	54877.37
691.40	55067.83
691.59	55194.81
691.78	55221.43
691.97	54607.04
692.16	54938.81
692.35	55391.41
692.54	55121.08
692.73	55098.55
692.92	54760.64
693.11	54965.43
693.30	54826.17
693.49	54983.86
693.68	55008.44
693.87	55106.74
694.06	54625.47
694.25	54596.80
694.44	54445.25
694.63	54621.37
694.82	54727.87
695.01	54820.03
695.20	54514.88
695.39	54785.21
695.58	54572.22
695.77	54793.40
695.96	54371.52
696.15	54383.81
696.34	54715.58
696.53	54734.01
696.72	54719.68
696.91	54686.91
697.10	54574.27
697.29	54693.05
697.48	54955.19
697.67	54586.56
697.86	54279.36
698.05	54238.40
698.24	55104.70
698.43	54310.08
698.62	54598.85
698.81	54609.09
699.00	54695.10
699.19	54195.40
699.38	54361.28
699.57	54117.57
699.76	55207.09
699.95	54490.30
700.14	54047.94
700.32	54183.11
700.51	54209.73
700.70	54660.29
700.89	54770.88
701.08	54293.70
701.27	54072.52
701.46	54756.54
701.65	53771.47
701.84	54549.70
702.03	54336.71
702.22	54580.42
702.41	54340.80
702.60	54303.94
702.79	54146.25
702.98	53955.78
703.17	54240.45
703.35	54002.89
703.54	54246.60
703.73	54320.32
703.92	54240.45
704.11	54686.91
704.30	53755.08
704.49	53761.23
704.68	54166.73
704.87	54011.08
705.06	54111.43
705.25	54105.29
705.43	54318.28
705.62	54162.63
705.81	54326.47
706.00	54215.88
706.19	53753.04
706.38	53617.87
706.57	53779.66
706.76	53581.01
706.95	53828.81
707.14	53189.84
707.32	53671.12
707.51	53540.05
707.70	53677.26
707.89	53660.88
708.08	54039.75
708.27	53923.02
708.46	54260.93
708.65	53869.77
708.84	53732.56
709.02	54019.27
709.21	53992.65
709.40	53898.44
709.59	53703.88
709.78	53621.97
709.97	54103.24
710.16	53304.53
710.34	53374.16
710.53	53886.15
710.72	53443.79
710.91	53769.42
711.10	53683.40
711.29	53482.70
711.48	53322.96
711.66	53609.68
711.85	53355.73
712.04	53042.39
712.23	53161.17
712.42	53269.72
712.61	52972.76
712.80	53361.87
712.98	53093.59
713.17	53482.70
713.36	53376.21
713.55	53009.62
713.74	53071.06
713.93	53720.27
714.11	53015.77
714.30	52389.09
714.49	53091.54
714.68	53339.35
714.87	52896.98
715.06	53236.95
715.24	53085.40
715.43	52667.61
715.62	52042.98
715.81	52548.83
716.00	52960.47
716.18	52532.45
716.37	52305.12
716.56	53026.01
716.75	52909.27
716.94	52790.49
717.12	52962.52
717.31	52870.36
717.50	52784.35
717.69	52671.71
717.88	52303.07
718.06	52655.32
718.25	52774.11
718.44	52364.51
718.63	52448.48
718.82	52393.18
719.00	52600.03
719.19	52178.15
719.38	51877.10
719.57	51922.15
719.76	51918.06
719.94	51586.28
720.13	51786.99
720.32	51717.35
720.51	51733.74
720.69	51715.31
720.88	51516.65
721.07	51428.59
721.26	51002.61
721.44	51072.24
721.63	51227.89
721.82	51414.26
722.01	50963.70
722.20	51201.27
722.38	51000.57
722.57	50566.40
722.76	50767.10
722.95	51115.25
723.13	50724.09
723.32	50795.77
723.51	50414.85
723.70	50695.42
723.88	50492.67
724.07	50560.25
724.26	50855.16
724.44	50025.73
724.63	50472.19
724.82	50697.47
725.01	50117.89
725.19	50562.30
725.38	50339.07
725.57	50283.78
725.76	50349.31
725.94	50322.69
726.13	50017.54
726.32	49962.25
726.51	49992.97
726.69	50402.56
726.88	50283.78
727.07	50042.12
727.25	50011.40
727.44	49796.36
727.63	49648.91
727.82	49779.98
728.00	49870.09
728.19	49906.95
728.38	49884.42
728.56	49564.94
728.75	50324.74
728.94	49538.32
729.12	49806.60
729.31	49558.80
729.50	49501.45
729.69	50083.08
729.87	49546.51
730.06	49542.41
730.25	49259.79
730.43	49753.35
730.62	49415.44
730.81	49921.29
730.99	49519.88
731.18	49222.93
731.37	49779.98
731.55	49550.60
731.74	49976.58
731.93	49739.02
732.11	49403.15
732.30	49702.15
732.49	49317.14
732.67	49440.01
732.86	49104.15
733.05	49358.09
733.23	48577.82
733.42	49444.11
733.61	49458.45
733.79	49593.61
733.98	49605.90
734.17	49370.38
734.35	48968.98
734.54	49251.60
734.73	49243.41
734.91	49007.89
735.10	48723.22
735.29	49091.86
735.47	48467.23
735.66	48776.47
735.84	49048.85
736.03	48385.31
736.22	49198.35
736.40	48553.24
736.59	48825.62
736.78	48520.48
736.96	48565.53
737.15	48749.85
737.33	48422.17
737.52	48346.40
737.71	48088.35
737.89	48880.92
738.08	48293.15
738.27	48334.11
738.45	48543.00
738.64	48166.18
738.82	48313.63
739.01	48121.12
739.20	48147.75
739.38	47996.20
739.57	48450.84
739.75	48278.82
739.94	47920.42
740.13	48215.33
740.31	47953.19
740.50	47928.61
740.68	47582.51
740.87	47906.08
741.06	48035.11
741.24	47932.71
741.43	47291.69
741.61	48096.55
741.80	47512.88
741.99	47346.99
742.17	47267.12
742.36	47490.35
742.54	47629.61
742.73	47756.58
742.91	47748.39
743.10	47000.88
743.29	47158.58
743.47	47582.51
743.66	47519.02
743.84	47205.68
744.03	47193.39
744.21	46925.11
744.40	47195.44
744.59	46759.22
744.77	47207.73
744.96	46912.82
745.14	47119.66
745.33	46757.17
745.51	46691.64
745.70	46779.70
745.88	46687.54
746.07	46552.38
746.26	46509.37
746.44	46331.20
746.63	46548.28
746.81	46415.16
747.00	46396.73
747.18	46441.79
747.37	46656.82
747.55	46134.59
747.74	46439.74
747.92	46163.26
748.11	45815.11
748.29	45974.85
748.48	46622.01
748.66	45804.87
748.85	45929.80
749.03	46157.12
749.22	46181.70
749.41	45800.77
749.59	46173.50
749.78	45882.69
749.96	45507.91
750.15	45892.93
750.33	46120.26
750.52	45499.72
750.70	45593.93
750.89	45094.22
751.07	45382.99
751.26	45473.10
751.44	45413.71
751.63	45253.97
751.81	45344.08
752.00	45448.52
752.18	45204.81
752.37	45030.74
752.55	45028.69
752.74	44799.32
752.92	45083.98
753.10	44729.69
753.29	45251.92
753.47	44987.73
753.66	44385.63
753.84	44936.53
754.03	45333.84
754.21	44553.56
754.40	44897.62
754.58	44766.55
754.77	44232.03
754.95	44326.24
755.14	44694.87
755.32	44698.97
755.51	44334.43
755.69	44571.99
755.88	44174.69
756.06	44430.68
756.24	44268.89
756.43	44209.50
756.61	44139.87
756.80	44293.47
756.98	44016.99
757.17	44105.06
757.35	44035.42
757.54	44301.66
757.72	44062.05
757.90	43732.32
758.09	43275.63
758.27	43734.37
758.46	43406.70
758.64	43367.79
758.83	43646.31
759.01	43431.27
759.19	43539.82
759.38	43181.42
759.56	43748.71
759.75	43332.97
759.93	43042.16
760.12	43113.84
760.30	43113.84
760.48	43294.06
760.67	43562.34
760.85	43249.00
761.04	43445.61
761.22	43449.70
761.40	43079.02
761.59	43165.04
761.77	42714.48
761.96	43259.24
762.14	43259.24
762.32	42818.93
762.51	42657.14
762.69	43074.93
762.88	42906.99
763.06	43179.37
763.24	42753.40
763.43	43007.34
763.61	42399.10
763.80	42489.21
763.98	42718.58
764.16	42632.57
764.35	42071.42
764.53	41833.86
764.72	42261.88
764.90	42448.25
765.08	41975.17
765.27	42050.94
765.45	41866.63
765.63	41649.54
765.82	42212.73
766.00	41567.62
766.18	41860.48
766.37	42349.95
766.55	41749.89
766.74	41670.02
766.92	41549.19
767.10	41665.92
767.29	41635.20
767.47	41395.59
767.65	41915.78
767.84	41350.54
768.02	41358.73
768.20	40986.00
768.39	41450.89
768.57	41706.88
768.75	41393.54
768.94	40908.18
769.12	41606.53
769.30	41037.20
769.49	41395.59
769.67	40992.14
769.85	41239.95
770.04	41272.71
770.22	40687.00
770.40	40846.74
770.59	40611.22
770.77	41014.67
770.95	40721.81
771.14	40576.40
771.32	40514.97
771.50	40371.61
771.69	40545.69
771.87	40990.09
772.05	40664.47
772.24	40283.55
772.42	40207.77
772.60	40025.50
772.78	40154.52
772.97	40347.03
773.15	40494.49
773.33	40377.75
773.52	40218.01
773.70	40588.69
773.88	40054.17
774.07	40215.96
774.25	40142.24
774.43	40050.08
774.61	40121.76
774.80	40584.60
774.98	40187.29
775.16	40525.21
775.34	40322.46
775.53	40330.65
775.71	40619.41
775.89	40420.76
776.08	40289.69
776.26	40668.56
776.44	40781.20
776.62	40281.50
776.81	40179.10
776.99	40789.39
777.17	40144.28
777.35	40570.26
777.54	40654.23
777.72	40244.63
777.90	40398.23
778.08	40588.69
778.27	40662.42
778.45	40859.02
778.63	40725.91
778.81	40742.29
779.00	41008.53
779.18	40605.08
779.36	40883.60
779.54	40715.67
779.73	40756.63
779.91	41061.77
780.09	40908.18
780.27	41323.91
780.46	41178.51
780.64	41180.56
780.82	40822.16
781.00	40682.90
781.19	41043.34
781.37	40955.28
781.55	41457.03
781.73	41497.99
781.91	40773.01
782.10	41545.09
782.28	41170.32
782.46	41227.66
782.64	41047.44
782.82	41375.11
783.01	41461.13
783.19	41280.91
783.37	41487.75
783.55	41178.51
783.74	41629.06
783.92	41688.45
784.10	42186.11
784.28	41207.18
784.46	41123.21
784.64	41162.12
784.83	41252.23
785.01	41549.19
785.19	41176.46
785.37	41520.52
785.55	41655.68
785.74	40918.42
785.92	41442.70
786.10	41444.74
786.28	41606.53
786.46	41186.70
786.64	40738.19
786.83	41262.47
787.01	41149.84
787.19	41424.26
787.37	41366.92
787.55	40965.52
787.74	41141.64
787.92	41397.64
788.10	40807.83
788.28	40975.76
788.46	40719.76
788.64	40613.27
788.82	41319.82
789.01	40928.66
789.19	41205.13
789.37	40623.51
789.55	41153.93
789.73	40379.80
789.91	40476.05
790.09	40353.18
790.28	40646.04
790.46	39916.96
790.64	40717.71
790.82	39949.73
791.00	40398.23
791.18	40281.50
791.36	40504.73
791.55	40293.79
791.73	40015.26
791.91	39703.97
792.09	40197.53
792.27	39714.21
792.45	39984.54
792.63	40189.34
792.81	39953.82
793.00	40068.51
793.18	40031.65
793.36	39888.29
793.54	39767.46
793.72	39501.22
793.90	39701.92
794.08	39222.70
794.26	39589.28
794.44	39044.52
794.62	39116.20
794.81	39413.16
794.99	39245.23
795.17	38868.40
795.35	39120.30
795.53	39040.43
795.71	39062.96
795.89	38575.54
796.07	38380.98
796.25	38555.06
796.43	38385.08
796.61	38004.16
796.80	38114.75
796.98	38399.41
797.16	38294.97
797.34	38348.21
797.52	37887.42
797.70	38286.78
797.88	37574.08
798.06	37596.61
798.24	38045.12
798.42	37873.09
798.60	37656.00
798.78	37496.26
798.96	37684.67
799.14	37408.20
799.32	37426.63
799.51	37404.10
799.69	37340.61
799.87	37232.07
800.05	37057.99
800.23	36986.32
800.41	36994.51
800.59	36828.62
800.77	36677.07
800.95	36550.10
801.13	36226.52
801.31	36627.92
801.49	36556.24
801.67	36462.04
801.85	36402.64
802.03	35997.15
802.21	36167.13
802.39	36027.87
802.57	36021.72
802.75	35741.15
802.93	35917.28
803.11	35812.83
803.29	35534.31
803.47	35632.61
803.65	35837.41
803.83	35732.96
804.01	35861.98
804.19	35241.45
804.37	35225.06
804.55	35311.08
804.73	35214.82
804.91	35231.21
805.09	35128.81
805.27	35347.94
805.45	35472.87
805.63	35272.17
805.81	35085.80
805.99	35354.08
806.17	34782.70
806.35	34717.17
806.53	34541.04
806.71	34733.55
806.89	34772.46
807.07	34311.67
807.25	34817.52
807.43	34317.81
807.61	34528.75
807.79	34264.57
807.97	34276.85
808.15	34444.79
808.33	34270.71
808.51	33906.17
808.69	33732.09
808.87	33752.57
809.05	33709.57
809.23	33601.02
809.41	33533.44
809.59	33713.66
809.77	33709.57
809.95	33500.67
810.13	33439.23
810.31	33228.29
810.49	33635.84
810.67	33170.95
810.84	33011.21
811.02	33404.42
811.20	33097.22
811.38	33013.26
811.56	32839.18
811.74	33103.37
811.92	32652.81
812.10	32822.80
812.28	33351.17
812.46	32964.10
812.64	32771.60
812.82	32618.00
813.00	32597.52
813.18	32847.37
813.36	32441.87
813.53	32368.15
813.71	32280.08
813.89	32099.86
814.07	32415.25
814.25	32554.51
814.43	31913.50
814.61	32136.73
814.79	32011.80
814.97	31579.68
815.15	32052.76
815.33	31448.61
815.50	31428.13
815.68	32042.52
815.86	31704.60
816.04	31479.33
816.22	31620.64
816.40	31696.41
816.58	31557.15
816.76	31286.82
816.94	31161.89
817.11	31610.40
817.29	31448.61
817.47	31305.25
817.65	31028.77
817.83	31610.40
818.01	30993.96
818.19	30797.35
818.37	30971.43
818.54	30561.84
818.72	30676.52
818.90	30852.65
819.08	30838.31
819.26	31082.02
819.44	30541.36
819.62	30393.90
819.80	30576.17
819.97	30289.46
820.15	30496.30
820.33	30185.01
820.51	30633.52
820.69	29783.61
820.87	30594.61
821.05	30516.78
821.22	30361.14
821.40	30115.38
821.58	30223.92
821.76	29998.65
821.94	29947.45
822.12	29990.45
822.29	30139.96
822.47	29802.04
822.65	30162.48
822.83	29621.82
823.01	29810.23
823.19	29601.34
823.36	29505.09
823.54	29607.48
823.72	29435.45
823.90	29601.34
824.08	29011.53
824.25	29115.97
824.43	28872.26
824.61	29185.60
824.79	29320.77
824.97	28958.28
825.15	29244.99
825.32	29214.27
825.50	29050.44
825.68	28937.80
825.86	29406.78
826.04	29007.43
826.21	28741.19
826.39	28839.50
826.57	28507.72
826.75	28544.59
826.93	28409.42
827.10	28501.58
827.28	28730.95
827.46	28538.44
827.64	28495.44
827.81	28495.44
827.99	28542.54
828.17	28372.56
828.35	28274.26
828.53	28284.50
828.70	28268.11
828.88	28560.97
829.06	28397.13
829.24	28077.65
829.41	28190.29
829.59	28096.08
829.77	28159.57
829.95	28016.21
830.12	28055.12
830.30	28210.77
830.48	28161.62
830.66	28124.75
830.84	28149.33
831.01	27840.09
831.19	27381.34
831.37	27694.68
831.55	27754.07
831.72	27739.74
831.90	27225.70
832.08	27444.83
832.25	27401.82
832.43	27518.56
832.61	27473.50
832.79	27407.97
832.96	27154.02
833.14	27080.29
833.32	27330.14
833.50	27311.71
833.67	27217.50
833.85	27045.48
834.03	26869.35
834.20	26941.03
834.38	26838.63
834.56	27016.80
834.74	26652.27
834.91	27172.45
835.09	26916.45
835.27	26379.89
835.44	26523.24
835.62	26584.68
835.80	26480.24
835.98	26492.52
836.15	26660.46
836.33	26504.81
836.51	26859.11
836.68	26304.11
836.86	26740.33
837.04	26367.60
837.21	26091.12
837.39	26257.01
837.57	26416.75
837.75	26404.46
837.92	25831.03
838.10	25859.70
838.28	26052.21
838.45	25845.37
838.63	25945.72
838.81	25990.77
838.98	25779.83
839.16	25411.20
839.34	25550.46
839.51	25841.27
839.69	25456.25
839.87	25407.10
840.04	25673.34
840.22	25566.84
840.40	25577.08
840.57	25566.84
840.75	25482.88
840.93	25067.14
841.10	25304.70
841.28	25853.56
841.46	25202.30
841.63	25452.16
841.81	25429.63
841.98	25482.88
842.16	25421.44
842.34	25073.28
842.51	25249.41
842.69	25294.46
842.87	25005.70
843.04	25153.15
843.22	24710.79
843.40	25212.54
843.57	25075.33
843.75	24911.49
843.92	24878.72
844.10	24888.96
844.28	24895.11
844.45	24917.64
844.63	24749.70
844.81	24469.13
844.98	24592.01
845.16	24581.77
845.33	24612.49
845.51	24569.48
845.69	24481.42
845.86	24211.09
846.04	24305.29
846.21	24090.26
846.39	24198.80
846.57	24305.29
846.74	24458.89
846.92	24151.70
847.09	24415.88
847.27	23887.51
847.45	24176.27
847.62	24127.12
847.80	24198.80
847.97	24180.37
848.15	24108.69
848.32	23776.92
848.50	23807.64
848.68	23824.02
848.85	23754.39
849.03	23436.95
849.20	23793.30
849.38	23611.03
849.56	23758.49
849.73	23545.50
849.91	23754.39
850.08	23701.14
850.26	23547.54
850.43	23293.60
850.61	23615.13
850.78	22927.01
850.96	23572.12
851.14	23359.13
851.31	23385.76
851.49	23166.62
851.66	23393.95
851.84	23125.66
852.01	23320.22
852.19	23137.95
852.36	23070.37
852.54	23133.86
852.71	22931.11
852.89	23008.93
853.07	23066.27
853.24	22752.93
853.42	22898.34
853.59	22498.98
853.77	22873.76
853.94	22929.06
854.12	23133.86
854.29	22765.22
854.47	22728.36
854.64	22918.82
854.82	22707.88
854.99	22826.66
855.17	22673.06
855.34	22363.82
855.52	22621.86
855.69	22521.51
855.87	22234.80
856.04	22169.26
856.22	22689.45
856.39	22183.60
856.57	22181.55
856.74	22351.53
856.92	22296.24
857.09	22218.41
857.27	22118.06
857.44	22294.19
857.62	22048.43
857.79	22120.11
857.97	22075.06
858.14	22050.48
858.32	21749.43
858.49	22130.35
858.67	21956.27
858.84	21778.10
859.02	21900.98
859.19	21788.34
859.37	21702.32
859.54	21855.92
859.72	21733.04
859.89	21493.43
860.06	21700.28
860.24	21530.30
860.41	21599.93
860.59	21173.95
860.76	21487.29
860.94	21382.84
861.11	21552.82
861.29	21132.99
861.46	21376.70
861.64	21219.00
861.81	21384.89
861.98	21411.51
862.16	21173.95
862.33	20967.10
862.51	20977.34
862.68	21294.78
862.86	20870.85
863.03	21024.45
863.21	20956.86
863.38	21184.19
863.55	20946.62
863.73	21010.11
863.90	20905.66
864.08	20745.92
864.25	20721.35
864.43	20631.24
864.60	20733.64
864.77	20487.88
864.95	20668.10
865.12	20596.42
865.30	20833.99
865.47	20690.63
865.64	20436.68
865.82	20487.88
865.99	20588.23
866.17	20190.92
866.34	20563.65
866.51	20295.37
866.69	20264.65
866.86	20565.70
867.04	20371.15
867.21	20250.32
867.38	20031.18
867.56	20027.09
867.73	20176.59
867.91	20047.57
868.08	19975.89
868.25	20111.05
868.43	19738.32
868.60	20053.71
868.78	19775.19
868.95	20389.58
869.12	19789.52
869.30	19771.09
869.47	19906.26
869.64	19723.99
869.82	19470.04
869.99	19861.20
870.16	19912.40
870.34	19605.20
870.51	19812.05
870.69	19298.01
870.86	19470.04
871.03	19572.44
871.21	19343.06
871.38	19398.36
871.55	19345.11
871.73	19474.13
871.90	19064.54
872.07	19318.49
872.25	19371.74
872.42	19001.05
872.59	19107.55
872.77	19017.44
872.94	18679.52
873.11	18867.94
873.29	18695.91
873.46	18581.22
873.63	18984.67
873.81	18728.67
873.98	18704.10
874.15	18661.09
874.33	18745.06
874.50	18548.45
874.67	18462.44
874.85	18527.97
875.02	18452.20
875.19	18370.28
875.37	18489.06
875.54	18401.00
875.71	18646.76
875.88	18241.26
876.06	18294.50
876.23	18458.34
876.40	18341.61
876.58	18327.27
876.75	18140.91
876.92	17903.34
877.10	18040.56
877.27	17950.45
877.44	17962.73
877.61	17809.14
877.79	17952.49
877.96	18220.78
878.13	17405.69
878.31	17614.58
878.48	17702.64
878.65	17733.36
878.82	17735.41
879.00	17731.31
879.17	17823.47
879.34	17766.13
879.51	17473.27
879.69	17510.13
879.86	17278.71
880.03	17065.72
880.21	17155.83
880.38	17288.95
880.55	17383.16
880.72	17284.86
880.90	17108.73
881.07	17127.16
881.24	17295.10
881.41	17090.30
881.59	16957.18
881.76	17336.06
881.93	16953.09
882.10	17108.73
882.28	16924.41
882.45	17301.24
882.62	17035.00
882.79	17217.27
882.96	16695.04
883.14	16955.13
883.31	16946.94
883.48	17061.63
883.65	17209.08
883.83	17104.64
884.00	17045.24
884.17	16824.06
884.34	16930.56
884.51	16746.24
884.69	16686.85
884.86	16957.18
885.03	16822.02
885.20	16514.82
885.38	16764.67
885.55	16690.95
885.72	16783.10
885.89	16447.24
886.06	16697.09
886.24	16500.48
886.41	16307.98
886.58	16824.06
886.75	16570.12
886.92	16281.35
887.10	16346.89
887.27	16328.45
887.44	16303.88
887.61	16633.60
887.78	16355.08
887.95	16365.32
888.13	16271.11
888.30	16094.99
888.47	16183.05
888.64	16344.84
888.81	16131.85
888.99	16258.82
889.16	16017.16
889.33	15855.37
889.50	15918.86
889.67	15716.11
889.84	15806.22
890.01	16054.03
890.19	15877.90
890.36	15922.96
890.53	15879.95
890.70	15681.30
890.87	15998.73
891.04	15859.47
891.22	15779.60
891.39	15632.15
891.56	15656.72
891.73	15902.48
891.90	15599.38
892.07	15529.75
892.24	15456.02
892.42	15496.98
892.59	15759.12
892.76	15599.38
892.93	15492.88
893.10	15449.88
893.27	15513.36
893.44	15308.57
893.61	15367.96
893.79	15511.32
893.96	15576.85
894.13	15453.97
894.30	15578.90
894.47	15347.48
894.64	15535.89
894.81	15363.86
894.98	15355.67
895.15	15576.85
895.33	15445.78
895.50	15183.64
895.67	15597.33
895.84	15255.32
896.01	15390.49
896.18	15361.81
896.35	15691.54
896.52	15159.06
896.69	15316.76
896.86	15386.39
897.04	15154.97
897.21	15265.56
897.38	15249.18
897.55	15382.29
897.72	15421.20
897.89	15304.47
898.06	15537.94
898.23	15136.54
898.40	15240.98
898.57	15318.81
898.74	15144.73
898.91	15337.24
899.08	15361.81
899.26	15247.13
899.43	15378.20
899.60	15052.57
899.77	15228.70
899.94	15124.25
900.11	14952.22
900.28	15281.94
900.45	15060.76
900.62	14907.16
900.79	15277.85
900.96	15052.57
901.13	15191.83
901.30	15042.33
901.47	14747.42
901.64	15023.90
901.81	15144.73
901.98	15058.71
902.15	15130.39
902.32	14989.08
902.49	15042.33
902.66	15224.60
902.83	15257.37
903.01	15087.39
903.18	15183.64
903.35	15103.77
903.52	15245.08
903.69	15042.33
903.86	15222.55
904.03	15159.06
904.20	15177.50
904.37	15177.50
904.54	15200.02
904.71	14972.70
904.88	14917.40
905.05	15071.00
905.22	15218.46
905.39	15206.17
905.56	14989.08
905.73	14962.46
905.90	14935.84
906.07	15161.11
906.24	15015.71
906.41	15183.64
906.58	15124.25
906.75	15183.64
906.92	15195.93
907.09	14997.28
907.26	15019.80
907.43	14997.28
907.60	15093.53
907.77	14968.60
907.93	15220.50
908.10	15056.67
908.27	15216.41
908.44	14778.14
908.61	14765.85
908.78	14984.99
908.95	15068.95
909.12	15083.29
909.29	15062.81
909.46	14933.79
909.63	15126.30
909.80	15042.33
909.97	15081.24
910.14	14905.12
910.31	15181.59
910.48	14925.60
910.65	14954.27
910.82	14737.18
910.99	14896.92
911.16	14827.29
911.33	14970.65
911.50	14872.35
911.66	14618.40
911.83	14884.64
912.00	14747.42
912.17	14456.61
912.34	14788.38
912.51	14827.29
912.68	14700.32
912.85	14561.06
913.02	14565.15
913.19	14587.68
913.36	14673.70
913.53	14671.65
913.70	14640.93
913.86	14765.85
914.03	14597.92
914.20	14452.52
914.37	14552.87
914.54	14503.71
914.71	14475.04
914.88	14278.44
915.05	14329.64
915.22	13963.05
915.39	14231.33
915.55	14233.38
915.72	14135.08
915.89	14204.71
916.06	13973.29
916.23	14135.08
916.40	14135.08
916.57	13983.53
916.74	13934.38
916.91	14038.83
917.07	13911.85
917.24	13973.29
917.41	13987.63
917.58	13928.24
917.75	14026.54
917.92	13956.91
918.09	13719.34
918.26	13686.58
918.42	13928.24
918.59	13723.44
918.76	13692.72
918.93	13705.01
919.10	13391.67
919.27	13750.06
919.44	13651.76
919.60	13479.73
919.77	13526.83
919.94	13330.23
920.11	13389.62
920.28	13528.88
920.45	12902.20
920.61	13184.82
920.78	13170.49
920.95	12967.74
921.12	13162.30
921.29	13088.57
921.46	12986.17
921.62	13023.03
921.79	13008.70
921.96	13035.32
922.13	12947.26
922.30	12894.01
922.47	12777.28
922.63	12656.45
922.80	12709.69
922.97	12719.93
923.14	12515.14
923.31	12748.61
923.47	12453.70
923.64	12545.86
923.81	12406.59
923.98	12488.51
924.15	12248.90
924.32	12367.68
924.48	12511.04
924.65	12406.59
924.82	12398.40
924.99	12115.78
925.15	12068.68
925.32	12240.71
925.49	11800.40
925.66	11947.85
925.83	11937.61
925.99	11794.25
926.16	12013.38
926.33	12029.77
926.50	11618.13
926.67	11743.05
926.83	11728.72
927.00	11839.31
927.17	11642.70
927.34	11419.47
927.50	11470.67
927.67	11677.52
927.84	11530.06
928.01	11421.52
928.17	11462.48
928.34	11353.94
928.51	11325.27
928.68	11224.92
928.84	11050.84
929.01	11022.17
929.18	11108.18
929.35	11024.22
929.51	10889.05
929.68	10841.95
929.85	10940.25
930.02	10858.33
930.18	10559.33
930.35	10743.64
930.52	10710.88
930.69	10829.66
930.85	10594.14
931.02	10657.63
931.19	10536.80
931.36	10690.40
931.52	10590.05
931.69	10448.74
931.86	10403.68
932.02	10186.60
932.19	10344.29
932.36	10387.30
932.53	10274.66
932.69	10084.20
932.86	10407.78
933.03	9946.98
933.19	10114.92
933.36	9922.41
933.53	10047.33
933.70	9903.98
933.86	9926.50
934.03	9817.96
934.20	9756.52
934.36	9895.78
934.53	9422.70
934.70	9357.17
934.86	9471.86
935.03	9291.63
935.20	9344.88
935.36	9228.15
935.53	9009.01
935.70	9146.23
935.86	9166.71
936.03	8871.80
936.20	8900.47
936.36	9027.45
936.53	8720.25
936.70	8894.33
936.86	8818.55
937.03	8519.55
937.20	8437.63
937.36	8486.78
937.53	8163.20
937.70	8378.24
937.86	8157.06
938.03	8146.82
938.20	8150.92
938.36	7864.20
938.53	7858.06
938.70	7653.26
938.86	7659.40
939.03	7589.77
939.20	7483.28
939.36	7585.68
939.53	7286.67
939.70	7565.20
939.86	7100.31
940.03	7081.88
940.19	6915.99
940.36	7032.72
940.53	6805.40
940.69	6789.02
940.86	6877.08
941.03	6659.99
941.19	6492.06
941.36	6674.33
941.52	6522.78
941.69	6367.13
941.86	6404.00
942.02	6383.52
942.19	6225.82
942.35	6377.37
942.52	6074.28
942.69	6119.33
942.85	6039.46
943.02	6031.27
943.18	6123.43
943.35	5902.25
943.52	5715.88
943.68	5824.42
943.85	6016.93
944.01	5744.55
944.18	5750.70
944.35	5830.57
944.51	5750.70
944.68	5509.04
944.84	5623.72
945.01	5539.76
945.17	5689.26
945.34	5521.32
945.51	5621.67
945.67	5527.47
945.84	5511.08
946.00	5451.69
946.17	5500.84
946.33	5306.29
946.50	5674.92
946.67	5531.56
946.83	5390.25
947.00	5410.73
947.16	5423.02
947.33	5425.07
947.49	5504.94
947.66	5312.43
947.82	5427.12
947.99	5365.68
948.16	5498.80
948.32	5445.55
948.49	5459.88
948.65	5443.50
948.82	5334.96
948.98	5330.86
949.15	5363.63
949.31	5476.27
949.48	5466.03
949.64	5443.50
949.81	5521.32
949.97	5519.28
950.14	5382.06
950.30	5361.58
950.47	5392.30
950.63	5568.43
950.80	5439.40
950.96	5463.98
951.13	5361.58
951.30	5562.28
951.46	5492.65
951.63	5482.41
951.79	5584.81
951.96	5492.65
952.12	5437.36
952.29	5496.75
952.45	5605.29
952.62	5468.08
952.78	5552.04
952.94	5502.89
953.11	5539.76
953.27	5459.88
953.44	5515.18
953.60	5470.12
953.77	5533.61
953.93	5541.80
954.10	5617.58
954.26	5556.14
954.43	5568.43
954.59	5623.72
954.76	5676.97
954.92	5595.05
955.09	5574.57
955.25	5609.39
955.42	5709.74
955.58	5685.16
955.75	5756.84
955.91	5529.52
956.07	5535.66
956.24	5554.09
956.40	5623.72
956.57	5717.93
956.73	5683.11
956.90	5689.26
957.06	5445.55
957.23	5597.10
957.39	5525.42
957.56	5556.14
957.72	5588.91
957.88	5511.08
958.05	5722.02
958.21	5795.75
958.38	5644.20
958.54	5619.63
958.71	5666.73
958.87	5582.76
959.03	5595.05
959.20	5631.91
959.36	5554.09
959.53	5519.28
959.69	5607.34
959.85	5578.67
960.02	5457.84
960.18	5599.15
960.35	5537.71
960.51	5715.88
960.68	5707.69
960.84	5703.59
961.00	5545.90
961.17	5617.58
961.33	5660.59
961.50	5613.48
961.66	5748.65
961.82	5593.00
961.99	5615.53
962.15	5558.19
962.31	5590.95
962.48	5638.06
962.64	5564.33
962.81	5523.37
962.97	5552.04
963.13	5584.81
963.30	5605.29
963.46	5408.69
963.62	5582.76
963.79	5570.48
963.95	5560.24
964.12	5513.13
964.28	5672.87
964.44	5414.83
964.61	5500.84
964.77	5533.61
964.93	5541.80
965.10	5521.32
965.26	5466.03
965.42	5490.60
965.59	5447.60
965.75	5388.21
965.92	5511.08
966.08	5525.42
966.24	5281.71
966.41	5392.30
966.57	5457.84
966.73	5451.69
966.90	5539.76
967.06	5433.26
967.22	5519.28
967.39	5359.53
967.55	5265.33
967.71	5416.88
967.88	5365.68
968.04	5226.42
968.20	5277.62
968.37	5212.08
968.53	5218.22
968.69	5369.77
968.85	5246.90
969.02	5189.55
969.18	5375.92
969.34	5226.42
969.51	5316.53
969.67	5320.62
969.83	5203.89
970.00	5212.08
970.16	5216.18
970.32	5142.45
970.48	5341.10
970.65	5195.70
970.81	5109.68
970.97	5052.34
971.14	5062.58
971.30	5316.53
971.46	5052.34
971.63	5173.17
971.79	5160.88
971.95	5052.34
972.11	5099.44
972.28	5029.81
972.44	5218.22
972.60	5078.96
972.76	5085.11
972.93	4984.76
973.09	5058.48
973.25	5074.87
973.42	4927.41
973.58	5228.46
973.74	4960.18
973.90	5085.11
974.07	5025.72
974.23	5035.96
974.39	5107.63
974.55	4984.76
974.72	4853.69
974.88	4739.00
975.04	4976.56
975.20	4929.46
975.37	5001.14
975.53	4915.12
975.69	4943.80
975.85	4833.21
976.01	4923.32
976.18	4831.16
976.34	4847.54
976.50	4921.27
976.66	4933.56
976.83	4917.17
976.99	4814.77
977.15	4792.25
977.31	4673.46
977.47	4779.96
977.64	4657.08
977.80	4820.92
977.96	4601.79
978.12	4755.38
978.29	4796.34
978.45	4427.71
978.61	4614.07
978.77	4825.01
978.93	4513.72
979.10	4573.11
979.26	4517.82
979.42	4566.97
979.58	4480.96
979.74	4523.96
979.91	4573.11
980.07	4485.05
980.23	4513.72
980.39	4538.30
980.55	4618.17
980.71	4489.15
980.88	4534.20
981.04	4497.34
981.20	4480.96
981.36	4521.92
981.52	4460.48
981.68	4302.78
981.85	4534.20
982.01	4554.68
982.17	4423.61
982.33	4339.65
982.49	4448.19
982.65	4358.08
982.82	4399.04
982.98	4474.81
983.14	4306.88
983.30	4292.54
983.46	4472.76
983.62	4382.65
983.79	4317.12
983.95	4319.17
984.11	3995.59
984.27	4339.65
984.43	4325.31
984.59	4167.62
984.75	4345.79
984.91	4265.92
985.08	4509.63
985.24	4231.10
985.40	4124.61
985.56	4255.68
985.72	4362.17
985.88	4192.19
986.04	4231.10
986.20	4028.35
986.37	4036.55
986.53	4007.87
986.69	4130.75
986.85	4036.55
987.01	4018.11
987.17	4220.86
987.33	4126.66
987.49	4052.93
987.65	4175.81
987.82	4089.79
987.98	4083.65
988.14	4173.76
988.30	3977.16
988.46	3903.43
988.62	3997.64
988.78	3991.49
988.94	4044.74
989.10	3960.77
989.26	3993.54
989.42	3948.48
989.59	3739.59
989.75	3897.28
989.91	3835.85
990.07	3782.60
990.23	3878.85
990.39	3895.24
990.55	3956.68
990.71	3833.80
990.87	3901.38
991.03	3948.48
991.19	3651.53
991.35	3852.23
991.51	3747.78
991.67	3833.80
991.83	3776.45
992.00	3819.46
992.16	3837.89
992.32	3760.07
992.48	3735.50
992.64	3690.44
992.80	3715.02
992.96	3649.48
993.12	3633.10
993.28	3653.58
993.44	3710.92
993.60	3735.50
993.76	3667.91
993.92	3782.60
994.08	3614.66
994.24	3616.71
994.40	3598.28
994.56	3594.19
994.72	3684.30
994.88	3532.75
995.04	3588.04
995.20	3491.79
995.36	3557.32
995.52	3522.51
995.68	3575.75
995.84	3485.64
996.00	3553.23
996.16	3497.93
996.32	3456.97
996.48	3366.86
996.64	3526.60
996.80	3473.36
996.96	3479.50
997.12	3506.12
997.28	3428.30
997.44	3381.20
997.60	3575.75
997.76	3385.29
997.92	3422.16
998.08	3383.24
998.24	3276.75
998.40	3385.29
998.56	3452.88
998.72	3223.50
998.88	3368.91
999.04	3358.67
999.20	3405.77
999.36	3260.37
999.52	3450.83
999.68	3340.24
999.84	3352.52
1000.00	3354.57
1000.16	3323.85
1000.32	3330.00
1000.48	3354.57
1000.64	3121.10
1000.80	3192.78
1000.95	3123.15
1001.11	3235.79
1001.27	3024.85
1001.43	3239.89
1001.59	3153.87
1001.75	3194.83
1001.91	3102.67
1002.07	3237.84
1002.23	3223.50
1002.39	3026.90
1002.55	3227.60
1002.71	3151.82
1002.87	3129.30
1003.03	3133.39
1003.19	3065.81
1003.34	3059.67
1003.50	3065.81
1003.66	3071.95
1003.82	3211.22
1003.98	3055.57
1004.14	3002.32
1004.30	3137.49
1004.46	3030.99
1004.62	3051.47
1004.78	3006.42
1004.94	3022.80
1005.09	2983.89
1005.25	3028.95
1005.41	2934.74
1005.57	3024.85
1005.73	3084.24
1005.89	3000.27
1006.05	3059.67
1006.21	2961.36
1006.37	2932.69
1006.52	2904.02
1006.68	2838.48
1006.84	2985.94
1007.00	2795.48
1007.16	3035.09
1007.32	2832.34
1007.48	2928.60
1007.64	2895.83
1007.79	2908.12
1007.95	2844.63
1008.11	2908.12
1008.27	2772.95
1008.43	2818.00
1008.59	2901.97
1008.75	2871.25
1008.91	2861.01
1009.06	2705.37
1009.22	2805.72
1009.38	2844.63
1009.54	2740.18
1009.70	2793.43
1009.86	2836.44
1010.01	2836.44
1010.17	2768.85
1010.33	2764.76
1010.49	2723.80
1010.65	2813.91
1010.81	2748.37
1010.96	2742.23
1011.12	2688.98
1011.28	2621.40
1011.44	2648.02
1011.60	2631.64
1011.76	2754.52
1011.91	2760.66
1012.07	2578.39
1012.23	2682.84
1012.39	2625.50
1012.55	2660.31
1012.71	2623.45
1012.86	2631.64
1013.02	2688.98
1013.18	2639.83
1013.34	2555.86
1013.50	2566.10
1013.65	2703.32
1013.81	2641.88
1013.97	2609.11
1014.13	2656.22
1014.29	2699.22
1014.44	2648.02
1014.60	2596.82
1014.76	2580.44
1014.92	2617.30
1015.07	2582.49
1015.23	2504.67
1015.39	2420.70
1015.55	2453.47
1015.71	2525.15
1015.86	2496.47
1016.02	2578.39
1016.18	2510.81
1016.34	2484.19
1016.49	2496.47
1016.65	2480.09
1016.81	2514.91
1016.97	2488.28
1017.12	2562.01
1017.28	2475.99
1017.44	2346.97
1017.60	2471.90
1017.75	2484.19
1017.91	2471.90
1018.07	2473.95
1018.23	2455.51
1018.38	2430.94
1018.54	2420.70
1018.70	2416.60
1018.86	2439.13
1019.01	2424.80
1019.17	2428.89
1019.33	2488.28
1019.49	2387.93
1019.64	2332.64
1019.80	2400.22
1019.96	2377.69
1020.12	2473.95
1020.27	2357.21
1020.43	2420.70
1020.59	2412.51
1020.74	2330.59
1020.90	2420.70
1021.06	2289.63
1021.22	2260.96
1021.37	2385.88
1021.53	2308.06
1021.69	2265.05
1021.84	2287.58
1022.00	2248.67
1022.16	2283.49
1022.31	2252.77
1022.47	2332.64
1022.63	2344.92
1022.79	2248.67
1022.94	2254.81
1023.10	2377.69
1023.26	2260.96
1023.41	2263.01
1023.57	2205.66
1023.73	2271.20
1023.88	2250.72
1024.04	2164.70
1024.20	2222.05
1024.35	2220.00
1024.51	2322.40
1024.67	2238.43
1024.82	2242.53
1024.98	2217.95
1025.14	2275.29
1025.29	2119.65
1025.45	2293.72
1025.61	2183.13
1025.76	2207.71
1025.92	2176.99
1026.08	2215.90
1026.23	2170.85
1026.39	2201.57
1026.55	2146.27
1026.70	2107.36
1026.86	2107.36
1027.02	2168.80
1027.17	2150.37
1027.33	2158.56
1027.48	2213.85
1027.64	2076.64
1027.80	2117.60
1027.95	2119.65
1028.11	2117.60
1028.27	2158.56
1028.42	2154.46
1028.58	2097.12
1028.73	2113.50
1028.89	2023.39
1029.05	2248.67
1029.20	2140.13
>>>>>End Processed Spectral Data<<<<<
