SpectraSuite Data File
++++++++++++++++++++++++++++++++++++
Date: Fri Jun 02 14:44:37 CEST 2017
User: INFO_000
Dark Spectrum Present: No
Reference Spectrum Present: No
Number of Sampled Component Spectra: 1
Spectrometers: USB4H00879
Integration Time (usec): 80000 (USB4H00879)
Spectra Averaged: 1 (USB4H00879)
Boxcar Smoothing: 0 (USB4H00879)
Correct for Electrical Dark: No (USB4H00879)
Strobe/Lamp Enabled: No (USB4H00879)
Correct for Detector Non-linearity: No (USB4H00879)
Correct for Stray Light: No (USB4H00879)
Number of Pixels in Processed Spectrum: 3648
>>>>>Begin Processed Spectral Data<<<<<
345.13	1232.88
345.34	1232.88
345.56	1232.88
345.78	1208.30
345.99	1222.64
346.21	1648.61
346.42	1656.81
346.64	1685.48
346.86	1834.98
347.07	1638.38
347.29	1617.90
347.50	1617.90
347.72	1644.52
347.94	1753.06
348.15	1578.98
348.37	1607.66
348.59	1753.06
348.80	1609.70
349.02	1722.34
349.23	1877.99
349.45	1880.04
349.67	1894.37
349.88	1808.36
350.10	1914.85
350.31	1873.89
350.53	1828.84
350.75	1931.23
350.96	1773.54
351.18	1853.41
351.39	1861.60
351.61	1851.36
351.82	1910.75
352.04	1894.37
352.26	1771.49
352.47	1867.75
352.69	1898.47
352.90	1691.62
353.12	1853.41
353.34	1855.46
353.55	1910.75
353.77	1923.04
353.98	1904.61
354.20	1867.75
354.41	1861.60
354.63	1839.08
354.85	1961.95
355.06	1982.43
355.28	1779.68
355.49	1898.47
355.71	1904.61
355.92	1898.47
356.14	1920.99
356.35	1841.12
356.57	1888.23
356.79	1966.05
357.00	1847.27
357.22	2019.30
357.43	1806.31
357.65	1910.75
357.86	1937.38
358.08	1920.99
358.29	1953.76
358.51	1988.58
358.72	2025.44
358.94	1943.52
359.16	2007.01
359.37	1916.90
359.59	1910.75
359.80	1974.24
360.02	1900.52
360.23	1943.52
360.45	2017.25
360.66	1933.28
360.88	1849.32
361.09	1961.95
361.31	2109.41
361.52	1935.33
361.74	2023.39
361.95	2052.06
362.17	1916.90
362.38	2086.88
362.60	2074.59
362.81	2000.87
363.03	1937.38
363.24	1998.82
363.46	2050.02
363.67	2011.11
363.89	2029.54
364.10	2039.78
364.32	1966.05
364.53	2074.59
364.75	1890.28
364.96	1978.34
365.18	1951.71
365.39	2007.01
365.61	1982.43
365.82	2074.59
366.04	1990.63
366.25	2029.54
366.47	1984.48
366.68	2027.49
366.90	1929.19
367.11	2029.54
367.33	2101.22
367.54	2082.78
367.76	2027.49
367.97	2107.36
368.19	1957.86
368.40	2150.37
368.62	1947.62
368.83	1947.62
369.05	2066.40
369.26	1992.67
369.48	1961.95
369.69	1955.81
369.91	2031.58
370.12	2017.25
370.33	2181.09
370.55	2023.39
370.76	2039.78
370.98	2146.27
371.19	2066.40
371.41	2072.54
371.62	1990.63
371.84	2045.92
372.05	2156.51
372.27	1959.91
372.48	2101.22
372.69	2050.02
372.91	2090.98
373.12	2146.27
373.34	2041.82
373.55	2097.12
373.77	2195.42
373.98	2105.31
374.20	2226.14
374.41	2220.00
374.62	2125.79
374.84	2228.19
375.05	2195.42
375.27	2191.33
375.48	2183.13
375.70	2248.67
375.91	2181.09
376.12	2310.11
376.34	2263.01
376.55	2164.70
376.77	2119.65
376.98	2090.98
377.19	2209.76
377.41	2103.26
377.62	2254.81
377.84	2236.38
378.05	2365.40
378.27	2224.09
378.48	2357.21
378.69	2334.68
378.91	2271.20
379.12	2205.66
379.34	2146.27
379.55	2310.11
379.76	2240.48
379.98	2332.64
380.19	2242.53
380.41	2234.33
380.62	2324.44
380.83	2183.13
381.05	2220.00
381.26	2402.27
381.47	2293.72
381.69	2263.01
381.90	2365.40
382.12	2244.57
382.33	2238.43
382.54	2281.44
382.76	2306.01
382.97	2359.26
383.19	2299.87
383.40	2428.89
383.61	2285.53
383.83	2203.61
384.04	2291.68
384.25	2322.40
384.47	2361.31
384.68	2312.16
384.89	2207.71
385.11	2250.72
385.32	2293.72
385.54	2322.40
385.75	2414.56
385.96	2494.43
386.18	2430.94
386.39	2324.44
386.60	2404.32
386.82	2441.18
387.03	2396.12
387.24	2514.91
387.46	2400.22
387.67	2455.51
387.88	2473.95
388.10	2484.19
388.31	2576.34
388.52	2473.95
388.74	2490.33
388.95	2480.09
389.16	2531.29
389.38	2465.75
389.59	2664.41
389.80	2602.97
390.02	2598.87
390.23	2684.89
390.44	2527.19
390.66	2557.91
390.87	2408.41
391.08	2533.34
391.30	2703.32
391.51	2623.45
391.72	2691.03
391.94	2682.84
392.15	2615.26
392.36	2682.84
392.58	2609.11
392.79	2641.88
393.00	2826.20
393.22	2785.24
393.43	2709.46
393.64	2787.29
393.85	2809.81
394.07	2662.36
394.28	2785.24
394.49	2672.60
394.71	2723.80
394.92	2918.36
395.13	2674.65
395.35	2709.46
395.56	2707.41
395.77	2820.05
395.98	2820.05
396.20	2820.05
396.41	2881.49
396.62	2863.06
396.84	2871.25
397.05	2840.53
397.26	2873.30
397.47	2975.70
397.69	2795.48
397.90	2953.17
398.11	2947.03
398.32	2926.55
398.54	2930.64
398.75	2891.73
398.96	2867.16
399.18	3178.45
399.39	2985.94
399.60	3000.27
399.81	2967.51
400.03	3008.47
400.24	3090.38
400.45	3037.14
400.66	3149.78
400.88	2998.23
401.09	3293.13
401.30	3014.61
401.51	3184.59
401.73	3205.07
401.94	3096.53
402.15	3055.57
402.36	3190.74
402.58	3229.65
402.79	3145.68
403.00	3166.16
403.21	3280.85
403.43	3280.85
403.64	3362.76
403.85	3147.73
404.06	3246.03
404.27	3155.92
404.49	3229.65
404.70	3213.26
404.91	3323.85
405.12	3387.34
405.34	3172.30
405.55	3416.01
405.76	3153.87
405.97	3323.85
406.19	3360.72
406.40	3162.06
406.61	3313.61
406.82	3360.72
407.03	3272.65
407.25	3295.18
407.46	3473.36
407.67	3430.35
407.88	3538.89
408.09	3319.76
408.31	3377.10
408.52	3407.82
408.73	3282.89
408.94	3278.80
409.15	3422.16
409.37	3481.55
409.58	3465.16
409.79	3465.16
410.00	3559.37
410.21	3463.12
410.43	3491.79
410.64	3481.55
410.85	3438.54
411.06	3499.98
411.27	3616.71
411.48	3635.14
411.70	3491.79
411.91	3669.96
412.12	3565.51
412.33	3497.93
412.54	3528.65
412.76	3643.34
412.97	3657.67
413.18	3489.74
413.39	3665.86
413.60	3592.14
413.81	3600.33
414.03	3723.21
414.24	3551.18
414.45	3915.72
414.66	3594.19
414.87	3758.02
415.08	3641.29
415.30	3717.06
415.51	3729.35
415.72	3721.16
415.93	3758.02
416.14	3690.44
416.35	3948.48
416.56	3747.78
416.78	3901.38
416.99	3876.80
417.20	3792.84
417.41	3968.96
417.62	3903.43
417.83	3860.42
418.04	3903.43
418.26	3985.35
418.47	3899.33
418.68	3811.27
418.89	3977.16
419.10	4124.61
419.31	4100.03
419.52	4083.65
419.73	4057.03
419.95	4052.93
420.16	3958.72
420.37	4007.87
420.58	4020.16
420.79	3944.39
421.00	4057.03
421.21	4093.89
421.42	4120.51
421.63	4171.71
421.85	4229.06
422.06	4184.00
422.27	4134.85
422.48	4222.91
422.69	4231.10
422.90	4184.00
423.11	4321.21
423.32	4251.58
423.53	4458.43
423.75	4370.37
423.96	4452.28
424.17	4407.23
424.38	4415.42
424.59	4329.41
424.80	4556.73
425.01	4528.06
425.22	4360.13
425.43	4468.67
425.64	4769.72
425.85	4575.16
426.06	4558.78
426.28	4609.98
426.49	4534.20
426.70	4542.39
426.91	4624.31
427.12	4753.34
427.33	4788.15
427.54	4652.98
427.75	4755.38
427.96	4759.48
428.17	4718.52
428.38	4888.50
428.59	4868.02
428.80	4685.75
429.01	4730.81
429.23	4878.26
429.44	5054.39
429.65	5044.15
429.86	5099.44
430.07	4779.96
430.28	4880.31
430.49	5015.48
430.70	5113.78
430.91	5017.52
431.12	5025.72
431.33	5314.48
431.54	5144.50
431.75	5261.23
431.96	5072.82
432.17	5146.55
432.38	5197.74
432.59	5416.88
432.80	5187.50
433.01	5320.62
433.22	5347.25
433.43	5418.93
433.64	5382.06
433.85	5263.28
434.06	5527.47
434.27	5363.63
434.49	5445.55
434.70	5533.61
434.91	5566.38
435.12	5633.96
435.33	5535.66
435.54	5590.95
435.75	5330.86
435.96	5404.59
436.17	5478.32
436.38	5633.96
436.59	5599.15
436.80	5447.60
437.01	5881.77
437.22	5609.39
437.43	5867.43
437.64	5488.56
437.85	5689.26
438.06	5732.26
438.27	5580.71
438.48	5644.20
438.69	5787.56
438.90	5787.56
439.11	5638.06
439.32	5930.92
439.53	5865.38
439.74	5980.07
439.95	5959.59
440.16	5877.67
440.37	5824.42
440.57	5728.17
440.78	6045.60
440.99	5971.88
441.20	6076.32
441.41	5736.36
441.62	5992.36
441.83	5642.15
442.04	6115.23
442.25	6193.06
442.46	5902.25
442.67	6143.91
442.88	6479.77
443.09	6141.86
443.30	6045.60
443.51	6252.45
443.72	6356.90
443.93	6123.43
444.14	6434.72
444.35	5978.02
444.56	6426.53
444.77	6336.42
444.98	6309.79
445.19	6320.03
445.40	6412.19
445.61	6383.52
445.81	6469.53
446.02	6545.31
446.23	6444.96
446.44	6346.66
446.65	6479.77
446.86	6438.81
447.07	6596.51
447.28	6649.75
447.49	6565.79
447.70	6453.15
447.91	6737.82
448.12	6705.05
448.33	6868.89
448.54	6739.87
448.74	6729.63
448.95	6705.05
449.16	6780.82
449.37	6983.57
449.58	6746.01
449.79	7016.34
450.00	6756.25
450.21	6913.94
450.42	7106.45
450.63	6942.61
450.84	7010.20
451.05	7059.35
451.25	7008.15
451.46	6973.33
451.67	7241.62
451.88	7198.61
452.09	7210.90
452.30	7182.23
452.51	7137.17
452.72	7507.85
452.93	7716.75
453.13	7223.19
453.34	7307.15
453.55	7423.89
453.76	7344.02
453.97	7808.90
454.18	7673.74
454.39	7704.46
454.60	7597.96
454.81	7518.09
455.01	7624.59
455.22	7464.85
455.43	7712.65
455.64	8220.55
455.85	8101.76
456.06	7968.65
456.27	7901.06
456.48	7843.72
456.68	7921.54
456.89	8128.39
457.10	8105.86
457.31	8200.07
457.52	8193.92
457.73	8275.84
457.94	8421.25
458.14	8150.92
458.35	8517.50
458.56	8351.62
458.77	8329.09
458.98	8462.21
459.19	8443.78
459.39	8560.51
459.60	8640.38
459.81	8638.33
460.02	8697.72
460.23	8722.30
460.44	8755.07
460.65	8742.78
460.85	8744.83
461.06	8785.79
461.27	8763.26
461.48	9023.35
461.69	9056.12
461.89	8800.12
462.10	8923.00
462.31	8894.33
462.52	8947.58
462.73	8990.58
462.94	9252.72
463.14	9195.38
463.35	9273.20
463.56	9559.92
463.77	9570.16
463.98	9383.79
464.18	9316.21
464.39	9707.37
464.60	9641.84
464.81	9711.47
465.02	9619.31
465.23	9846.63
465.43	9690.99
465.64	10010.47
465.85	9936.74
466.06	9807.72
466.27	9985.90
466.47	10243.94
466.68	10133.35
466.89	10006.38
467.10	10151.78
467.30	9938.79
467.51	10250.08
467.72	10501.98
467.93	10092.39
468.14	10055.53
468.34	10706.78
468.55	10667.87
468.76	10530.66
468.97	10383.20
469.17	10708.83
469.38	10698.59
469.59	11110.23
469.80	10741.60
470.01	10915.67
470.21	10944.34
470.42	11159.38
470.63	11274.07
470.84	11245.40
471.04	11435.86
471.25	11212.63
471.46	11159.38
471.67	11657.04
471.87	11433.81
472.08	11603.79
472.29	11800.40
472.50	11394.90
472.70	11603.79
472.91	11597.65
473.12	11773.77
473.33	12107.59
473.53	12171.08
473.74	12033.86
473.95	12250.95
474.16	12267.33
474.36	12320.58
474.57	12474.18
474.78	12687.17
474.99	12330.82
475.19	12611.39
475.40	12580.67
475.61	12891.96
475.81	13004.60
476.02	13125.43
476.23	13102.90
476.44	13127.48
476.64	13432.63
476.85	13428.53
477.06	13512.50
477.27	13725.49
477.47	13840.17
477.68	13668.14
477.89	13942.57
478.09	13690.67
478.30	13805.36
478.51	13971.24
478.71	14288.68
478.92	14171.94
479.13	14485.28
479.34	14391.08
479.54	14647.07
479.75	14675.74
479.96	14544.67
480.16	14769.95
480.37	14698.27
480.58	14964.51
480.78	15101.72
480.99	15277.85
481.20	15269.66
481.41	15316.76
481.61	15492.88
481.82	15587.09
482.03	15464.21
482.23	15689.49
482.44	15767.31
482.65	15931.15
482.85	15927.05
483.06	15863.57
483.27	16271.11
483.47	16156.43
483.68	16344.84
483.89	16383.75
484.09	16420.61
484.30	16652.03
484.51	16725.76
484.71	17041.15
484.92	16744.19
485.13	16934.65
485.33	17137.40
485.54	17307.38
485.75	17612.53
485.95	17360.63
486.16	17325.82
486.37	17608.44
486.57	17571.57
486.78	17622.77
486.98	17829.62
487.19	17903.34
487.40	18054.89
487.60	18122.48
487.81	18482.92
488.02	18382.57
488.22	18271.98
488.43	18962.14
488.64	18570.98
488.84	18747.11
489.05	18667.24
489.25	18556.64
489.46	19312.35
489.67	18976.48
489.87	19240.67
490.08	19470.04
490.29	19384.02
490.49	19631.83
490.70	19807.95
490.90	19617.49
491.11	19756.75
491.32	19910.35
491.52	20041.42
491.73	20147.92
491.94	20440.78
492.14	19930.83
492.35	20399.82
492.55	20410.06
492.76	20747.97
492.97	20491.98
493.17	20809.41
493.38	20827.84
493.58	21149.37
493.79	20858.56
494.00	21130.94
494.20	21386.94
494.41	21180.09
494.61	21610.17
494.82	21585.59
495.02	21485.24
495.23	21563.06
495.44	21968.56
495.64	21847.73
495.85	22101.68
496.05	21919.41
496.26	22052.53
496.47	22365.87
496.67	22070.96
496.88	22286.00
497.08	21984.94
497.29	22521.51
497.49	22210.22
497.70	22632.10
497.91	22906.53
498.11	22759.08
498.32	23066.27
498.52	23135.90
498.73	23289.50
498.93	23174.81
499.14	23488.15
499.34	23076.51
499.55	23482.01
499.76	23295.64
499.96	23439.00
500.17	23649.94
500.37	23641.75
500.58	23987.86
500.78	23649.94
500.99	23547.54
501.19	24098.45
501.40	24051.34
501.60	23715.48
501.81	23977.62
502.02	23901.84
502.22	23955.09
502.43	24424.08
502.63	24469.13
502.84	24053.39
503.04	24405.64
503.25	24549.00
503.45	24579.72
503.66	24757.89
503.86	24747.65
504.07	25206.40
504.27	24651.40
504.48	25360.00
504.68	24923.78
504.89	25106.05
505.09	25323.13
505.30	25194.11
505.50	25085.57
505.71	25110.14
505.91	25429.63
506.12	25355.90
506.32	25147.01
506.53	25542.27
506.73	25683.58
506.94	25728.63
507.14	25540.22
507.35	25652.86
507.55	25798.26
507.76	25968.24
507.96	25579.13
508.17	25534.07
508.37	25958.00
508.58	25544.31
508.78	25820.79
508.99	26203.76
509.19	26232.43
509.40	26367.60
509.60	25925.24
509.81	26312.30
510.01	26349.17
510.22	26076.79
510.42	26283.63
510.63	26396.27
510.83	26267.25
511.04	26478.19
511.24	26609.26
511.44	26470.00
511.65	26363.50
511.85	26869.35
512.06	26728.04
512.26	26850.92
512.47	26994.28
512.67	26777.19
512.88	27139.68
513.08	26723.94
513.29	27260.51
513.49	26824.29
513.69	26789.48
513.90	27287.14
514.10	27049.57
514.31	27176.55
514.51	27498.08
514.72	27397.73
514.92	27307.62
515.13	27397.73
515.33	27270.75
515.53	27473.50
515.74	27381.34
515.94	27612.76
516.15	27760.22
516.35	27729.50
516.56	27536.99
516.76	27592.28
516.96	27745.88
517.17	27852.38
517.37	28042.84
517.58	27868.76
517.78	27985.49
517.99	28251.73
518.19	28300.88
518.39	28415.57
518.60	28227.15
518.80	28509.77
519.01	28462.67
519.21	28532.30
519.41	28614.22
519.62	28274.26
519.82	28915.27
520.03	29052.48
520.23	28919.37
520.43	28796.49
520.64	29105.73
520.84	29312.58
521.05	29109.83
521.25	29464.13
521.45	29646.40
521.66	29470.27
521.86	29574.72
522.07	29451.84
522.27	29589.05
522.47	29593.15
522.68	30191.16
522.88	29767.23
523.08	30119.48
523.29	29957.69
523.49	30330.42
523.70	30096.95
523.90	30651.95
524.10	30152.24
524.31	30436.91
524.51	30627.37
524.71	31024.68
524.92	30307.89
525.12	30844.46
525.33	30789.16
525.53	31182.37
525.73	31481.38
525.94	31448.61
526.14	31209.00
526.34	31090.21
526.55	31600.16
526.75	31503.90
526.95	31893.02
527.16	31772.19
527.36	31727.13
527.56	31856.15
527.77	32261.65
527.97	32390.67
528.17	31950.36
528.38	32302.61
528.58	32402.96
528.78	32312.85
528.99	32443.92
529.19	32892.43
529.39	32732.68
529.60	32759.31
529.80	32865.80
530.00	33052.17
530.21	33228.29
530.41	33570.30
530.61	33355.27
530.82	33519.10
531.02	33424.90
531.22	33621.50
531.43	33351.17
531.63	33852.92
531.83	33986.04
532.04	34514.42
532.24	34010.62
532.44	34876.91
532.64	34227.70
532.85	34774.51
533.05	34690.54
533.25	34938.35
533.46	34610.67
533.66	35038.70
533.86	35196.39
534.07	35624.42
534.27	34975.21
534.47	35632.61
534.67	35880.41
534.88	35315.17
535.08	35374.56
535.28	36111.83
535.49	36115.93
535.69	36140.50
535.89	36265.43
536.09	36478.42
536.30	36578.77
536.50	36128.22
536.70	36853.20
536.91	36382.16
537.11	36392.40
537.31	36906.44
537.51	36537.81
537.72	37344.71
537.92	37477.83
538.12	37526.98
538.32	37176.78
538.53	37805.50
538.73	37168.58
538.93	37295.56
539.13	37723.58
539.34	37764.54
539.54	37561.79
539.74	38071.74
539.94	37897.66
540.15	37955.00
540.35	38172.09
540.55	38327.74
540.75	38000.06
540.96	37854.65
541.16	38534.58
541.36	38585.78
541.56	38284.73
541.77	38626.74
541.97	38616.50
542.17	38841.78
542.37	38835.63
542.58	38909.36
542.78	39126.44
542.98	39128.49
543.18	39220.65
543.38	39470.50
543.59	39527.84
543.79	39312.81
543.99	38995.37
544.19	39294.38
544.40	39554.47
544.60	39974.30
544.80	39691.68
545.00	39380.39
545.20	39986.59
545.41	39781.79
545.61	39914.91
545.81	40177.05
546.01	40025.50
546.21	39826.85
546.42	40134.04
546.62	39851.42
546.82	39968.16
547.02	40023.45
547.22	40304.02
547.43	39853.47
547.63	40150.43
547.83	40299.93
548.03	40318.36
548.23	40752.53
548.44	40527.25
548.64	40220.06
548.84	40945.04
549.04	40787.35
549.24	41084.30
549.45	41274.76
549.65	40514.97
549.85	40770.96
550.05	41037.20
550.25	40734.10
550.45	41268.62
550.66	41055.63
550.86	40936.85
551.06	41256.33
551.26	41084.30
551.46	41383.30
551.66	41321.87
551.87	41356.68
552.07	41360.78
552.27	41338.25
552.47	41422.22
552.67	41442.70
552.87	41381.26
553.07	41362.82
553.28	41420.17
553.48	41815.43
553.68	41817.47
553.88	41686.40
554.08	41647.49
554.28	41702.79
554.48	41434.50
554.69	41670.02
554.89	41530.76
555.09	41651.59
555.29	41792.90
555.49	41670.02
555.69	41923.97
555.89	41887.10
556.10	42118.53
556.30	41794.95
556.50	41731.46
556.70	42134.91
556.90	42032.51
557.10	42263.93
557.30	41575.81
557.50	42325.37
557.70	42286.46
557.91	41940.35
558.11	42329.47
558.31	42104.19
558.51	42239.36
558.71	42378.62
558.91	42405.24
559.11	42302.84
559.31	42476.92
559.51	42120.57
559.72	42399.10
559.92	42603.89
560.12	42618.23
560.32	42190.20
560.52	42659.19
560.72	42548.60
560.92	43128.17
561.12	42384.76
561.32	43212.14
561.52	42452.34
561.72	42757.49
561.93	42360.19
562.13	42450.30
562.33	42524.02
562.53	43378.03
562.73	42675.57
562.93	42861.94
563.13	43021.68
563.33	42906.99
563.53	43025.78
563.73	42759.54
563.93	43160.94
564.13	43312.49
564.33	42941.81
564.53	43162.99
564.74	43451.75
564.94	43119.98
565.14	43296.11
565.34	43249.00
565.54	43187.56
565.74	43185.52
565.94	43400.55
566.14	43586.92
566.34	43627.88
566.54	43541.86
566.74	43171.18
566.94	43611.49
567.14	43883.87
567.34	43345.26
567.54	43785.57
567.74	43650.41
567.94	43918.69
568.14	43754.85
568.34	43951.46
568.54	44379.48
568.74	44037.47
568.94	44086.62
569.14	44451.16
569.34	44148.06
569.54	44449.11
569.75	44248.41
569.95	44166.49
570.15	44637.53
570.35	44539.22
570.55	44428.63
570.75	44549.46
570.95	44399.96
571.15	44625.24
571.35	44647.77
571.55	45329.74
571.75	44782.93
571.95	44799.32
572.15	44803.41
572.35	44649.81
572.55	44731.73
572.75	45081.94
572.95	45415.76
573.15	45258.06
573.35	45356.36
573.55	45428.04
573.75	45258.06
573.95	45462.86
574.15	45141.33
574.35	45790.53
574.55	45401.42
574.75	45415.76
574.95	45935.94
575.15	45520.20
575.34	45688.13
575.54	45708.61
575.74	45727.05
575.94	46032.19
576.14	46073.15
576.34	46404.92
576.54	46073.15
576.74	46249.28
576.94	46503.23
577.14	46318.91
577.34	46374.20
577.54	46638.39
577.74	46558.52
577.94	46482.75
578.14	46695.74
578.34	46732.60
578.54	46206.27
578.74	46114.11
578.94	47279.41
579.14	46869.81
579.34	46759.22
579.54	47179.06
579.74	47344.94
579.94	47469.87
580.13	47318.32
580.33	47543.59
580.53	47486.25
580.73	47666.47
580.93	47576.36
581.13	47668.52
581.33	48184.61
581.53	48047.39
581.73	48028.96
581.93	48497.95
582.13	48411.93
582.33	48418.08
582.53	47928.61
582.73	48006.44
582.92	47971.62
583.12	48370.97
583.32	48393.50
583.52	48289.06
583.72	48702.74
583.92	48506.14
584.12	48682.27
584.32	49122.58
584.52	48821.53
584.72	49014.04
584.92	49030.42
585.11	49870.09
585.31	49214.74
585.51	48950.55
585.71	49169.68
585.91	49562.89
586.11	49077.52
586.31	49462.54
586.51	49587.47
586.71	49550.60
586.91	49560.84
587.10	49458.45
587.30	49517.84
587.50	49984.77
587.70	50251.01
587.90	49816.84
588.10	50183.43
588.30	50222.34
588.50	50468.09
588.69	50377.98
588.89	50410.75
589.09	50271.49
589.29	50382.08
589.49	50334.98
589.69	50246.91
589.89	50464.00
590.08	50115.84
590.28	50140.42
590.48	50572.54
590.68	50578.68
590.88	50461.95
591.08	50627.84
591.28	50648.32
591.47	50980.09
591.67	50646.27
591.87	50758.91
592.07	50640.12
592.27	50978.04
592.47	51123.44
592.67	51438.83
592.86	50500.86
593.06	50971.89
593.26	51971.30
593.46	51137.78
593.66	51090.68
593.86	51420.40
594.05	51668.20
594.25	51453.17
594.45	51234.03
594.65	51354.86
594.85	51453.17
595.05	51729.64
595.24	51811.56
595.44	51655.92
595.64	51451.12
595.84	51551.47
596.04	51520.75
596.23	51586.28
596.43	52081.89
596.63	51803.37
596.83	51942.63
597.03	51918.06
597.22	52563.17
597.42	52059.37
597.62	52348.13
597.82	52077.80
598.02	52217.06
598.21	52471.01
598.41	52094.18
598.61	52645.08
598.81	52409.57
599.01	52471.01
599.20	52432.10
599.40	52155.62
599.60	52778.20
599.80	52702.43
600.00	52675.80
600.19	52608.22
600.39	52192.48
600.59	52518.11
600.79	52651.23
600.98	52296.93
601.18	52798.68
601.38	53032.15
601.58	52913.37
601.78	53408.98
601.97	53177.56
602.17	53071.06
602.37	53322.96
602.57	53089.49
602.76	53300.43
602.96	53308.63
603.16	53634.25
603.36	53304.53
603.55	53519.57
603.75	53335.25
603.95	53656.78
604.15	53138.65
604.34	53310.67
604.54	53957.83
604.74	53564.62
604.94	53544.14
605.13	53538.00
605.33	53941.45
605.53	53730.51
605.73	53517.52
605.92	53730.51
606.12	53802.19
606.32	53718.22
606.52	53871.82
606.71	53832.91
606.91	54025.42
607.11	53732.56
607.30	53818.57
607.50	53957.83
607.70	54174.92
607.90	54035.66
608.09	54174.92
608.29	53445.84
608.49	54406.34
608.68	54027.46
608.88	54064.33
609.08	53976.26
609.28	53986.50
609.47	54254.79
609.67	54174.92
609.87	54023.37
610.06	54285.51
610.26	54140.10
610.46	54484.16
610.66	54013.13
610.85	54312.13
611.05	54064.33
611.25	54539.46
611.44	54185.16
611.64	54193.35
611.84	53957.83
612.03	53947.59
612.23	54109.38
612.43	54246.60
612.62	54256.84
612.82	54351.04
613.02	54121.67
613.21	54473.92
613.41	53974.22
613.61	54613.18
613.80	53974.22
614.00	54078.66
614.20	53902.54
614.39	54648.00
614.59	54484.16
614.79	54168.77
614.98	54054.09
615.18	54285.51
615.38	54068.42
615.57	54326.47
615.77	54488.26
615.97	54447.30
616.16	54283.46
616.36	54572.22
616.56	54668.48
616.75	54230.21
616.95	54246.60
617.15	54027.46
617.34	53882.06
617.54	53949.64
617.74	54756.54
617.93	54412.48
618.13	54068.42
618.32	54023.37
618.52	53820.62
618.72	54277.32
618.91	54451.39
619.11	53943.50
619.31	54056.14
619.50	54576.32
619.70	54041.80
619.90	54150.34
620.09	53916.87
620.29	54017.22
620.48	53961.93
620.68	54420.67
620.88	53691.60
621.07	54205.64
621.27	53988.55
621.46	53890.25
621.66	53742.80
621.86	54019.27
622.05	53765.32
622.25	54781.12
622.44	53941.45
622.64	53697.74
622.84	54238.40
623.03	53853.39
623.23	54222.02
623.42	54023.37
623.62	54238.40
623.82	54555.84
624.01	54109.38
624.21	53976.26
624.40	53994.70
624.60	53947.59
624.80	54023.37
624.99	54088.90
625.19	53701.84
625.38	53990.60
625.58	53988.55
625.77	54170.82
625.97	54412.48
626.17	54047.94
626.36	53884.11
626.56	54195.40
626.75	54080.71
626.95	54260.93
627.14	54058.18
627.34	54615.23
627.54	54152.39
627.73	54166.73
627.93	54418.63
628.12	54052.04
628.32	54080.71
628.51	54310.08
628.71	54107.33
628.90	54052.04
629.10	53855.43
629.30	54400.19
629.49	53863.63
629.69	54228.16
629.88	54316.23
630.08	54494.40
630.27	54332.61
630.47	54303.94
630.66	54490.30
630.86	54842.56
631.05	53968.07
631.25	54752.44
631.44	54435.01
631.64	54093.00
631.84	54369.47
632.03	54697.15
632.23	54424.77
632.42	55227.57
632.62	54162.63
632.81	54250.69
633.01	54392.00
633.20	54990.01
633.40	54648.00
633.59	55000.25
633.79	54777.02
633.98	54568.13
634.18	55145.65
634.37	55004.34
634.57	54623.42
634.76	55110.84
634.96	55256.24
635.15	55055.54
635.35	55200.95
635.54	54379.71
635.74	55082.17
635.93	55162.04
636.13	55768.24
636.32	55264.44
636.52	54459.58
636.71	54983.86
636.91	55080.12
637.10	55243.96
637.30	54850.75
637.49	55250.10
637.69	55264.44
637.88	55393.46
638.08	55219.38
638.27	55663.79
638.46	55194.81
638.66	55096.50
638.85	55669.93
639.05	55760.05
639.24	55882.92
639.44	55588.02
639.63	55258.29
639.83	55714.99
640.02	55669.93
640.22	55923.88
640.41	55948.46
640.61	55305.40
640.80	55336.12
640.99	55538.86
641.19	56153.26
641.38	55841.96
641.58	55569.58
641.77	55739.57
641.97	55518.38
642.16	55903.40
642.36	56044.71
642.55	56134.82
642.74	55760.05
642.94	56593.57
643.13	55614.64
643.33	56224.93
643.52	56200.36
643.72	56245.41
643.91	56417.44
644.10	56108.20
644.30	56478.88
644.49	56390.82
644.69	56784.03
644.88	56626.34
645.08	56310.95
645.27	56278.18
645.46	55862.44
645.66	56726.69
645.85	56413.35
646.05	57091.22
646.24	57056.41
646.43	56700.06
646.63	57134.23
646.82	57087.13
647.02	56945.82
647.21	56730.78
647.40	56245.41
647.60	57480.34
647.79	57142.42
647.99	57021.59
648.18	57005.21
648.37	57343.12
648.57	57130.14
648.76	57222.29
648.96	57042.07
649.15	57463.96
649.34	56994.97
649.54	57408.66
649.73	57210.01
649.92	57287.83
650.12	57334.93
650.31	57646.22
650.51	57480.34
650.70	57392.28
650.89	56644.77
651.09	58334.34
651.28	57785.49
651.47	57767.05
651.67	57439.38
651.86	58051.72
652.06	57078.94
652.25	57502.87
652.44	57695.38
652.64	57302.17
652.83	57355.41
653.02	57433.24
653.22	57525.39
653.41	57754.77
653.60	57226.39
653.80	57521.30
653.99	57656.46
654.18	57394.32
654.38	57504.91
654.57	57746.57
654.76	57623.70
654.96	57521.30
655.15	57353.36
655.34	57910.41
655.54	57312.41
655.73	57349.27
655.92	57615.50
656.12	57937.04
656.31	57994.38
656.50	57728.14
656.70	57470.10
656.89	57509.01
657.08	57945.23
657.28	57904.27
657.47	57836.69
657.66	57795.73
657.86	57670.80
658.05	57595.03
658.24	57777.29
658.43	57242.77
658.63	58076.30
658.82	57789.58
659.01	57961.61
659.21	57930.89
659.40	58229.90
659.59	57535.63
659.79	57969.80
659.98	57996.43
660.17	58047.63
660.36	58037.39
660.56	57902.22
660.75	58360.97
660.94	57734.29
661.14	58066.06
661.33	58358.92
661.52	57648.27
661.71	57963.66
661.91	58072.20
662.10	57588.88
662.29	58217.61
662.49	58442.88
662.68	58145.93
662.87	57521.30
663.06	58098.83
663.26	58147.98
663.45	58145.93
663.64	57711.76
663.83	58145.93
664.03	58279.05
664.22	57990.28
664.41	58217.61
664.60	58072.20
664.80	57734.29
664.99	57801.87
665.18	57660.56
665.37	57805.97
665.57	57808.01
665.76	57369.75
665.95	57742.48
666.14	57488.53
666.34	57660.56
666.53	57820.30
666.72	57693.33
666.91	57611.41
667.11	57582.74
667.30	57963.66
667.49	57543.83
667.68	57889.93
667.87	57590.93
668.07	57781.39
668.26	57967.76
668.45	57455.76
668.64	57111.70
668.84	58119.31
669.03	57801.87
669.22	57459.86
669.41	58000.52
669.60	57080.98
669.80	57222.29
669.99	57758.86
670.18	57455.76
670.37	57365.65
670.57	57627.79
670.76	57291.93
670.95	57488.53
671.14	57328.79
671.33	56911.00
671.53	57883.79
671.72	57470.10
671.91	57103.51
672.10	56593.57
672.29	57105.56
672.48	57060.51
672.68	57283.73
672.87	57070.75
673.06	56960.15
673.25	56859.80
673.44	56513.70
673.64	56984.73
673.83	56859.80
674.02	57005.21
674.21	56677.54
674.40	56990.87
674.59	56804.51
674.79	56884.38
674.98	56452.26
675.17	56732.83
675.36	56851.61
675.55	56652.96
675.74	56695.97
675.94	56310.95
676.13	56456.35
676.32	56861.85
676.51	56878.24
676.70	56738.97
676.89	57160.86
677.08	56734.88
677.28	56251.56
677.47	56962.20
677.66	56681.63
677.85	56781.98
678.04	56671.39
678.23	56833.18
678.42	56777.89
678.62	56122.54
678.81	56468.64
679.00	56509.60
679.19	56931.48
679.38	56591.52
679.57	56579.23
679.76	56444.07
679.96	56575.14
680.15	56190.12
680.34	55934.12
680.53	55813.29
680.72	56325.28
680.91	56345.76
681.10	55815.34
681.29	56335.52
681.48	56501.41
681.68	55995.56
681.87	56253.61
682.06	56222.89
682.25	55921.83
682.44	55772.33
682.63	55895.21
682.82	55493.81
683.01	55925.93
683.20	55465.14
683.39	55934.12
683.59	55704.75
683.78	55688.37
683.97	55547.06
684.16	55354.55
684.35	55456.95
684.54	55504.05
684.73	55661.74
684.92	55375.03
685.11	55649.45
685.30	55276.72
685.49	55356.60
685.69	55477.43
685.88	55364.79
686.07	55321.78
686.26	55039.16
686.45	55291.06
686.64	55633.07
686.83	55434.42
687.02	55483.57
687.21	55391.41
687.40	54998.20
687.59	55176.37
687.78	54705.34
687.97	55303.35
688.16	55119.03
688.35	54623.42
688.54	54785.21
688.74	54703.29
688.93	54951.10
689.12	55164.09
689.31	55196.85
689.50	54910.14
689.69	54779.07
689.88	54842.56
690.07	54869.18
690.26	54482.11
690.45	55008.44
690.64	54121.67
690.83	54547.65
691.02	54459.58
691.21	54668.48
691.40	54443.20
691.59	54805.69
691.78	54465.73
691.97	54516.93
692.16	54523.07
692.35	54637.76
692.54	54582.46
692.73	54557.89
692.92	54539.46
693.11	54260.93
693.30	54107.33
693.49	54400.19
693.68	54348.99
693.87	54154.44
694.06	54387.91
694.25	54252.74
694.44	54500.54
694.63	54412.48
694.82	54418.63
695.01	53972.17
695.20	53994.70
695.39	53963.98
695.58	54191.30
695.77	53736.65
695.96	53894.35
696.15	53845.19
696.34	53955.78
696.53	53933.26
696.72	53679.31
696.91	53904.59
697.10	53789.90
697.29	53855.43
697.48	53951.69
697.67	53583.05
697.86	53421.26
698.05	53269.72
698.24	53787.85
698.43	53470.42
698.62	53998.79
698.81	53363.92
699.00	53806.28
699.19	53347.54
699.38	53624.01
699.57	53126.36
699.76	53810.38
699.95	53667.02
700.14	53245.14
700.32	53101.78
700.51	53499.09
700.70	53605.58
700.89	53347.54
701.08	53472.46
701.27	52966.62
701.46	53648.59
701.65	52804.83
701.84	53490.90
702.03	53171.41
702.22	53040.34
702.41	52851.93
702.60	53425.36
702.79	53308.63
702.98	53054.68
703.17	52997.34
703.35	53073.11
703.54	53140.69
703.73	53259.48
703.92	52925.66
704.11	53173.46
704.30	52606.17
704.49	52876.51
704.68	52741.34
704.87	52968.66
705.06	52806.87
705.25	52632.80
705.43	53026.01
705.62	53042.39
705.81	52888.79
706.00	52663.52
706.19	52688.09
706.38	52831.45
706.57	52767.96
706.76	52423.90
706.95	52939.99
707.14	52344.03
707.32	52909.27
707.51	52020.45
707.70	52303.07
707.89	52462.82
708.08	52249.83
708.27	53066.97
708.46	53290.19
708.65	52647.13
708.84	52968.66
709.02	52571.36
709.21	52868.31
709.40	52821.21
709.59	52503.77
709.78	52479.20
709.97	52741.34
710.16	52417.76
710.34	52491.49
710.53	52573.41
710.72	52118.76
710.91	52497.63
711.10	52475.10
711.29	52518.11
711.48	52120.80
711.66	52532.45
711.85	52100.32
712.04	52315.36
712.23	52032.74
712.42	52491.49
712.61	52120.80
712.80	52258.02
712.98	52212.96
713.17	52008.17
713.36	51838.18
713.55	52212.96
713.74	52237.54
713.93	51979.49
714.11	52268.26
714.30	52143.33
714.49	51987.69
714.68	52030.69
714.87	52098.28
715.06	52131.04
715.24	52145.38
715.43	51838.18
715.62	51985.64
715.81	52290.79
716.00	51848.42
716.18	51404.02
716.37	51438.83
716.56	51252.47
716.75	52143.33
716.94	51723.50
717.12	51717.35
717.31	52235.49
717.50	51410.16
717.69	51911.91
717.88	51508.46
718.06	51942.63
718.25	51809.51
718.44	51229.94
718.63	51989.73
718.82	51238.13
719.00	51254.51
719.19	50750.71
719.38	51287.28
719.57	50746.62
719.76	50662.65
719.94	50867.45
720.13	51105.01
720.32	51203.31
720.51	51127.54
720.69	50707.71
720.88	51035.38
721.07	51131.64
721.26	50504.96
721.44	50728.19
721.63	50730.23
721.82	50513.15
722.01	50611.45
722.20	50879.74
722.38	50699.51
722.57	50291.97
722.76	50402.56
722.95	50531.58
723.13	50212.10
723.32	50367.74
723.51	50437.37
723.70	50074.88
723.88	50330.88
724.07	50083.08
724.26	50078.98
724.44	49286.42
724.63	50025.73
724.82	50156.80
725.01	49935.62
725.19	49937.67
725.38	49814.79
725.57	49671.43
725.76	50187.52
725.94	49681.67
726.13	49663.24
726.32	49622.28
726.51	49745.16
726.69	49954.05
726.88	50238.72
727.07	50097.41
727.25	49691.91
727.44	49870.09
727.63	49696.01
727.82	49771.78
728.00	49841.42
728.19	49526.03
728.38	49870.09
728.56	49378.57
728.75	49845.51
728.94	49337.62
729.12	49712.39
729.31	49870.09
729.50	49771.78
729.69	49671.43
729.87	49575.18
730.06	49390.86
730.25	49755.40
730.43	50136.32
730.62	49646.86
730.81	49659.15
730.99	49380.62
731.18	49657.10
731.37	49669.39
731.55	49460.49
731.74	50015.49
731.93	49620.23
732.11	49966.34
732.30	49798.41
732.49	49515.79
732.67	49716.49
732.86	49673.48
733.05	49837.32
733.23	49323.28
733.42	49466.64
733.61	49386.77
733.79	49521.93
733.98	49911.05
734.17	49509.64
734.35	49437.97
734.54	49534.22
734.73	49775.88
734.91	49517.84
735.10	49304.85
735.29	49476.88
735.47	48938.26
735.66	49349.90
735.84	49077.52
736.03	48876.82
736.22	49427.73
736.40	48964.88
736.59	48887.06
736.78	49298.70
736.96	49093.91
737.15	49052.95
737.33	49116.43
737.52	48923.93
737.71	48764.18
737.89	49011.99
738.08	49009.94
738.27	48731.42
738.45	49143.06
738.64	49145.11
738.82	48739.61
739.01	48764.18
739.20	49042.71
739.38	48684.31
739.57	49341.71
739.75	48645.40
739.94	48737.56
740.13	48764.18
740.31	48456.99
740.50	48803.10
740.68	48706.84
740.87	48489.76
741.06	48870.68
741.24	48284.96
741.43	48162.08
741.61	48469.28
741.80	48108.83
741.99	48010.53
742.17	47928.61
742.36	48321.82
742.54	48074.02
742.73	48178.46
742.91	48616.73
743.10	48119.07
743.29	48399.65
743.47	48360.73
743.66	48428.32
743.84	48041.25
744.03	48452.89
744.21	47793.45
744.40	48252.19
744.59	47738.15
744.77	47875.37
744.96	47510.83
745.14	47842.60
745.33	47889.70
745.51	47617.32
745.70	47842.60
745.88	47459.63
746.07	47637.80
746.26	47519.02
746.44	47535.40
746.63	47447.34
746.81	47691.05
747.00	47248.69
747.18	47650.09
747.37	47332.65
747.55	47140.14
747.74	47496.49
747.92	46746.93
748.11	47045.94
748.29	47461.68
748.48	46916.92
748.66	46589.24
748.85	47095.09
749.03	47113.52
749.22	46964.02
749.41	46841.14
749.59	47064.37
749.78	46572.86
749.96	46824.76
750.15	46640.44
750.33	46519.61
750.52	46335.29
750.70	46568.76
750.89	46396.73
751.07	46310.72
751.26	46654.78
751.44	46179.65
751.63	46026.05
751.81	46273.85
752.00	45962.56
752.18	46544.19
752.37	46480.70
752.55	46052.67
752.74	45976.90
752.92	45892.93
753.10	45571.40
753.29	46026.05
753.47	45851.97
753.66	45301.07
753.84	46177.60
754.03	45460.81
754.21	45520.20
754.40	45813.06
754.58	45806.92
754.77	45425.99
754.95	45469.00
755.14	45370.70
755.32	45276.49
755.51	45178.19
755.69	45047.12
755.88	44827.99
756.06	45430.09
756.24	45313.36
756.43	45139.28
756.61	45088.08
756.80	45135.18
756.98	44674.39
757.17	44860.76
757.35	44983.63
757.54	44754.26
757.72	44979.54
757.90	44832.08
758.09	44782.93
758.27	44582.23
758.46	44539.22
758.64	44692.82
758.83	44643.67
759.01	44719.45
759.19	44549.46
759.38	44598.62
759.56	44543.32
759.75	44078.43
759.93	44045.66
760.12	44168.54
760.30	44180.83
760.48	43976.03
760.67	44029.28
760.85	44051.81
761.04	43738.47
761.22	44434.78
761.40	43871.59
761.59	43732.32
761.77	43304.30
761.96	43838.82
762.14	43826.53
762.32	43593.06
762.51	43543.91
762.69	43830.63
762.88	43427.18
763.06	43746.66
763.24	43193.71
763.43	43351.40
763.61	43390.31
763.80	43023.73
763.98	42935.66
764.16	42956.14
764.35	42644.85
764.53	42431.86
764.72	42485.11
764.90	42902.90
765.08	42763.64
765.27	42835.31
765.45	42345.85
765.63	42194.30
765.82	42640.76
766.00	42323.32
766.18	42399.10
766.37	42603.89
766.55	42448.25
766.74	42458.49
766.92	42214.78
767.10	41909.63
767.29	41700.74
767.47	41614.72
767.65	42415.48
767.84	41547.14
768.02	41891.20
768.20	41762.18
768.39	41682.31
768.57	41620.87
768.75	41579.91
768.94	41782.66
769.12	41844.10
769.30	41346.44
769.49	41231.75
769.67	41549.19
769.85	41211.28
770.04	41160.08
770.22	41186.70
770.40	41252.23
770.59	41203.08
770.77	41301.39
770.95	40889.74
771.14	40865.17
771.32	40902.03
771.50	40705.43
771.69	40457.62
771.87	41121.16
772.05	40908.18
772.24	40285.59
772.42	40498.58
772.60	40842.64
772.78	40764.82
772.97	40275.35
773.15	40875.41
773.33	40306.07
773.52	40369.56
773.70	40574.36
773.88	40045.98
774.07	40095.13
774.25	40154.52
774.43	40375.70
774.61	40299.93
774.80	40508.82
774.98	40369.56
775.16	40209.82
775.34	40506.77
775.53	40291.74
775.71	40461.72
775.89	40627.60
776.08	40318.36
776.26	40287.64
776.44	40428.95
776.62	40402.33
776.81	40097.18
776.99	40674.71
777.17	40277.40
777.35	40625.56
777.54	40703.38
777.72	40209.82
777.90	40510.87
778.08	40676.76
778.27	40379.80
778.45	40727.95
778.63	40940.94
778.81	40179.10
779.00	41051.53
779.18	41117.07
779.36	40957.33
779.54	40605.08
779.73	40547.73
779.91	41041.29
780.09	40934.80
780.27	40828.30
780.46	41119.12
780.64	41205.13
780.82	40465.81
781.00	40908.18
781.19	41223.56
781.37	40994.19
781.55	40826.26
781.73	41635.20
781.91	40973.71
782.10	40629.65
782.28	40899.98
782.46	40744.34
782.64	41145.74
782.82	40637.84
783.01	41194.89
783.19	41446.79
783.37	41090.44
783.55	40871.31
783.74	41311.63
783.92	41039.25
784.10	41352.58
784.28	40891.79
784.46	41180.56
784.64	40789.39
784.83	41024.91
785.01	41528.71
785.19	40981.90
785.37	41463.18
785.55	40973.71
785.74	40818.07
785.92	40775.06
786.10	40940.94
786.28	41018.77
786.46	40879.50
786.64	40357.27
786.83	40637.84
787.01	40838.54
787.19	41121.16
787.37	41029.01
787.55	40617.36
787.74	40265.11
787.92	40697.24
788.10	40834.45
788.28	40580.50
788.46	40164.76
788.64	39855.52
788.82	40682.90
789.01	40379.80
789.19	40437.14
789.37	40431.00
789.55	40158.62
789.73	39701.92
789.91	39935.39
790.09	39679.39
790.28	39857.57
790.46	39671.20
790.64	39929.25
790.82	39699.87
791.00	39593.38
791.18	39527.84
791.36	39634.34
791.55	39777.70
791.73	39501.22
791.91	39370.15
792.09	39443.88
792.27	39370.15
792.45	39450.02
792.63	39683.49
792.81	39355.82
793.00	39120.30
793.18	39247.27
793.36	39116.20
793.54	38636.98
793.72	39036.33
793.90	38944.17
794.08	38456.76
794.26	38999.47
794.44	38374.84
794.62	38507.96
794.81	38225.34
794.99	38493.62
795.17	38286.78
795.35	38049.21
795.53	38567.35
795.71	38008.25
795.89	37785.02
796.07	37889.47
796.25	37789.12
796.43	37383.62
796.61	37350.85
796.80	37701.06
796.98	37690.82
797.16	37295.56
797.34	37393.86
797.52	37455.30
797.70	37543.36
797.88	37025.23
798.06	36867.53
798.24	36847.05
798.42	37019.08
798.60	36670.93
798.78	36988.36
798.96	37293.51
799.14	36730.32
799.32	36754.90
799.51	36431.32
799.69	36888.01
799.87	36722.13
800.05	36070.87
800.23	36480.47
800.41	36300.25
800.59	35980.76
800.77	36273.62
800.95	35591.65
801.13	35601.89
801.31	35603.94
801.49	35874.27
801.67	35556.83
801.85	35579.36
802.03	35349.99
802.21	35374.56
802.39	35274.21
802.57	35290.60
802.75	35311.08
802.93	35370.47
803.11	34749.93
803.29	34629.10
803.47	34838.00
803.65	34905.58
803.83	34643.44
804.01	35104.23
804.19	34381.30
804.37	34344.44
804.55	34440.69
804.73	34493.94
804.91	34426.35
805.09	34309.62
805.27	34203.13
805.45	34694.64
805.63	34434.55
805.81	34125.30
805.99	34258.42
806.17	34158.07
806.35	34033.14
806.53	34086.39
806.71	33744.38
806.89	33965.56
807.07	33914.36
807.25	33674.75
807.43	33326.60
807.61	33850.88
807.79	33601.02
807.97	33345.03
808.15	33377.79
808.33	33246.72
808.51	33336.84
808.69	33545.73
808.87	32839.18
809.05	33207.81
809.23	32921.10
809.41	33046.02
809.59	32880.14
809.77	32935.43
809.95	32767.50
810.13	32941.58
810.31	32771.60
810.49	32890.38
810.67	32413.20
810.84	32820.75
811.02	32392.72
811.20	32054.81
811.38	32329.23
811.56	32202.26
811.74	32253.46
811.92	32189.97
812.10	32454.16
812.28	32337.43
812.46	32214.55
812.64	32065.05
812.82	31921.69
813.00	31866.39
813.18	31933.98
813.36	31624.73
813.53	31405.60
813.71	31737.37
813.89	31415.84
814.07	31563.29
814.25	31288.87
814.43	31264.29
814.61	31381.03
814.79	31540.77
814.97	31329.83
815.15	31434.27
815.33	31184.42
815.50	30877.22
815.68	30987.82
815.86	31389.22
816.04	31499.81
816.22	31030.82
816.40	31127.08
816.58	31100.45
816.76	30565.93
816.94	30813.74
817.11	30758.44
817.29	30891.56
817.47	30576.17
817.65	30750.25
817.83	30414.38
818.01	30438.96
818.19	30674.48
818.37	30158.39
818.54	30029.37
818.72	30185.01
818.90	30500.40
819.08	29941.30
819.26	30340.66
819.44	30135.86
819.62	30094.90
819.80	30328.37
819.97	30084.66
820.15	30101.04
820.33	30031.41
820.51	30236.21
820.69	29972.02
820.87	30027.32
821.05	29918.78
821.22	30092.85
821.40	30049.85
821.58	29998.65
821.76	29609.53
821.94	29339.20
822.12	29646.40
822.29	29670.97
822.47	29703.74
822.65	29525.57
822.83	29439.55
823.01	29584.96
823.19	29255.23
823.36	28933.70
823.54	29128.26
823.72	28986.95
823.90	29027.91
824.08	28847.69
824.25	28886.60
824.43	28675.66
824.61	28685.90
824.79	28935.75
824.97	28667.47
825.15	28986.95
825.32	28876.36
825.50	28460.62
825.68	28716.62
825.86	28792.39
826.04	28833.35
826.21	28808.78
826.39	28712.52
826.57	28585.55
826.75	28425.81
826.93	28339.79
827.10	28255.82
827.28	28311.12
827.46	28407.37
827.64	28622.41
827.81	28800.58
827.99	28405.33
828.17	28374.61
828.35	28143.19
828.53	28145.23
828.70	28317.26
828.88	28221.01
829.06	28032.60
829.24	28132.95
829.41	27772.50
829.59	28225.11
829.77	28261.97
829.95	28255.82
830.12	28096.08
830.30	27803.22
830.48	28210.77
830.66	27592.28
830.84	27743.83
831.01	27967.06
831.19	27899.48
831.37	27645.53
831.55	27625.05
831.72	27399.77
831.90	27569.76
832.08	27668.06
832.25	27369.05
832.43	27496.03
832.61	27336.29
832.79	27463.26
832.96	27360.86
833.14	26973.80
833.32	27680.35
833.50	27346.53
833.67	27053.67
833.85	27020.90
834.03	26795.62
834.20	27309.66
834.38	27442.78
834.56	27225.70
834.74	26951.27
834.91	26955.36
835.09	26936.93
835.27	26734.18
835.44	27008.61
835.62	26310.25
835.80	26246.77
835.98	26783.34
836.15	26687.08
836.33	26449.52
836.51	26560.11
836.68	26447.47
836.86	26357.36
837.04	26484.33
837.21	26529.39
837.39	26461.80
837.57	26177.14
837.75	26478.19
837.92	26054.26
838.10	25849.46
838.28	25962.10
838.45	25767.54
838.63	25777.78
838.81	26257.01
838.98	26105.46
839.16	26027.63
839.34	26091.12
839.51	26234.48
839.69	25665.14
839.87	25794.17
840.04	26181.23
840.22	26025.59
840.40	25597.56
840.57	25321.09
840.75	25601.66
840.93	25630.33
841.10	25486.97
841.28	26041.97
841.46	25575.03
841.63	25894.52
841.81	25720.44
841.98	25726.58
842.16	25609.85
842.34	25374.33
842.51	25489.02
842.69	25405.05
842.87	25212.54
843.04	25540.22
843.22	25372.28
843.40	25439.87
843.57	25271.93
843.75	25257.60
843.92	25128.58
844.10	25032.32
844.28	25124.48
844.45	24854.15
844.63	24852.10
844.81	24872.58
844.98	24950.40
845.16	25036.42
845.33	24981.12
845.51	24891.01
845.69	24802.95
845.86	24721.03
846.04	24725.13
846.21	24964.74
846.39	24538.76
846.57	24458.89
846.74	24604.30
846.92	24520.33
847.09	24686.22
847.27	24305.29
847.45	24235.66
847.62	24452.75
847.80	24346.25
847.97	24395.40
848.15	24325.77
848.32	23946.90
848.50	24268.43
848.68	24039.06
848.85	24309.39
849.03	23983.76
849.20	24073.87
849.38	24151.70
849.56	24020.63
849.73	23799.44
849.91	24082.06
850.08	24137.36
850.26	23594.65
850.43	23715.48
850.61	23811.73
850.78	23635.61
850.96	23754.39
851.14	23721.62
851.31	23932.56
851.49	23543.45
851.66	24088.21
851.84	23731.86
852.01	23713.43
852.19	23721.62
852.36	23860.88
852.54	23703.19
852.71	23658.14
852.89	23430.81
853.07	23230.11
853.24	23326.36
853.42	23383.71
853.59	23297.69
853.77	23340.70
853.94	23002.78
854.12	23396.00
854.29	22961.83
854.47	23019.17
854.64	23121.57
854.82	22988.45
854.99	23299.74
855.17	23013.02
855.34	22773.41
855.52	22906.53
855.69	22820.52
855.87	22691.49
856.04	22927.01
856.22	22873.76
856.39	22566.57
856.57	22908.58
856.74	22630.05
856.92	22738.60
857.09	22326.96
857.27	22556.33
857.44	22927.01
857.62	22841.00
857.79	22548.14
857.97	22267.56
858.14	22675.11
858.32	22517.42
858.49	22560.42
858.67	22238.89
858.84	22470.31
859.02	22290.09
859.19	22300.33
859.37	22103.73
859.54	22191.79
859.72	22408.87
859.89	22255.28
860.06	22128.30
860.24	21980.85
860.41	22286.00
860.59	21335.74
860.76	21991.09
860.94	21612.21
861.11	21726.90
861.29	21763.76
861.46	21724.85
861.64	21837.49
861.81	21696.18
861.98	22009.52
862.16	21554.87
862.33	21442.23
862.51	21548.73
862.68	21665.46
862.86	21251.77
863.03	21341.88
863.21	21407.42
863.38	21462.71
863.55	21329.59
863.73	21573.30
863.90	21257.92
864.08	21268.16
864.25	21264.06
864.43	21221.05
864.60	21143.23
864.77	20825.79
864.95	21087.93
865.12	21026.50
865.30	21112.51
865.47	21073.60
865.64	21067.45
865.82	20942.53
865.99	21069.50
866.17	20641.48
866.34	20905.66
866.51	20752.07
866.69	20913.86
866.86	20897.47
867.04	20573.89
867.21	20647.62
867.38	20430.54
867.56	20616.90
867.73	20643.52
867.91	20469.45
868.08	20582.09
868.25	20125.39
868.43	20219.60
868.60	20246.22
868.78	20295.37
868.95	20473.54
869.12	19918.54
869.30	20289.23
869.47	20162.25
869.64	19949.26
869.82	20229.84
869.99	20049.61
870.16	20328.14
870.34	20031.18
870.51	19941.07
870.69	19779.28
870.86	19918.54
871.03	19916.50
871.21	19941.07
871.38	19805.91
871.55	19726.04
871.73	19496.66
871.90	19486.42
872.07	19293.91
872.25	19424.98
872.42	19345.11
872.59	19285.72
872.77	19318.49
872.94	19136.22
873.11	19144.41
873.29	19121.88
873.46	18927.33
873.63	18878.18
873.81	19183.32
873.98	18886.37
874.15	18996.96
874.33	18700.00
874.50	18921.18
874.67	19236.57
874.85	18732.77
875.02	18779.87
875.19	18695.91
875.37	18577.12
875.54	18364.14
875.71	18779.87
875.88	18636.52
876.06	18632.42
876.23	18351.85
876.40	18335.46
876.58	18390.76
876.75	18304.74
876.92	18368.23
877.10	18175.72
877.27	18532.07
877.44	18026.22
877.61	18104.04
877.79	18165.48
877.96	18018.03
878.13	18185.96
878.31	17899.25
878.48	17714.93
878.65	17958.64
878.82	17823.47
879.00	18024.17
879.17	17932.01
879.34	17815.28
879.51	17811.18
879.69	17786.61
879.86	17774.32
880.03	17514.23
880.21	17618.68
880.38	17417.97
880.55	17422.07
880.72	17403.64
880.90	17440.50
881.07	17293.05
881.24	17297.14
881.41	17477.37
881.59	17262.33
881.76	17235.70
881.93	17311.48
882.10	17116.92
882.28	16989.95
882.45	17266.42
882.62	16981.76
882.79	17274.62
882.96	16891.65
883.14	17303.29
883.31	17209.08
883.48	17116.92
883.65	17198.84
883.83	17209.08
884.00	16957.18
884.17	17098.49
884.34	17170.17
884.51	16908.03
884.69	17063.68
884.86	17032.96
885.03	16969.47
885.20	16740.10
885.38	17055.48
885.55	16858.88
885.72	16766.72
885.89	16641.79
886.06	16932.61
886.24	16787.20
886.41	16633.60
886.58	16678.66
886.75	16811.78
886.92	16434.95
887.10	16588.55
887.27	16508.68
887.44	16635.65
887.61	16563.97
887.78	16488.20
887.95	16551.68
888.13	16262.92
888.30	16334.60
888.47	16123.66
888.64	15996.68
888.81	16154.38
888.99	16176.91
889.16	16068.36
889.33	15871.76
889.50	15826.70
889.67	16041.74
889.84	15820.56
890.01	15800.08
890.19	16174.86
890.36	16123.66
890.53	16013.07
890.70	16049.93
890.87	15908.62
891.04	15976.20
891.22	15955.72
891.39	15847.18
891.56	15687.44
891.73	15763.22
891.90	15531.80
892.07	15793.94
892.24	15699.73
892.42	15800.08
892.59	15820.56
892.76	15499.03
892.93	15558.42
893.10	15642.39
893.27	15546.13
893.44	15425.30
893.61	15591.19
893.79	15775.50
893.96	15460.12
894.13	15435.54
894.30	15413.01
894.47	15197.98
894.64	15515.41
894.81	15228.70
894.98	15566.61
895.15	15486.74
895.33	15240.98
895.50	15263.51
895.67	15249.18
895.84	15245.08
896.01	15087.39
896.18	15087.39
896.35	15355.67
896.52	15437.59
896.69	15161.11
896.86	15382.29
897.04	15032.09
897.21	15220.50
897.38	15263.51
897.55	15245.08
897.72	15298.33
897.89	15085.34
898.06	15355.67
898.23	15167.26
898.40	15157.02
898.57	15097.63
898.74	15159.06
898.91	15425.30
899.08	15027.99
899.26	15071.00
899.43	15197.98
899.60	15146.78
899.77	15169.30
899.94	15083.29
900.11	14970.65
900.28	15181.59
900.45	14878.49
900.62	15109.91
900.79	15140.63
900.96	15130.39
901.13	14880.54
901.30	14786.33
901.47	15034.14
901.64	15120.15
901.81	14937.88
901.98	15023.90
902.15	15136.54
902.32	14810.91
902.49	15185.69
902.66	15206.17
902.83	14958.36
903.01	14980.89
903.18	14860.06
903.35	15044.38
903.52	14903.07
903.69	15134.49
903.86	15167.26
904.03	14841.63
904.20	15148.82
904.37	15066.91
904.54	15085.34
904.71	14898.97
904.88	15230.74
905.05	15116.06
905.22	15216.41
905.39	14956.32
905.56	15159.06
905.73	14804.77
905.90	15060.76
906.07	15114.01
906.24	14944.03
906.41	14716.70
906.58	14915.36
906.75	14776.09
906.92	14755.61
907.09	14710.56
907.26	14722.85
907.43	15099.67
907.60	14747.42
907.77	14950.17
907.93	14935.84
908.10	14827.29
908.27	15071.00
908.44	14810.91
908.61	14552.87
908.78	14731.04
908.95	14919.45
909.12	14747.42
909.29	14708.51
909.46	14618.40
909.63	14614.30
909.80	14821.15
909.97	14776.09
910.14	14769.95
910.31	14829.34
910.48	14700.32
910.65	14675.74
910.82	14679.84
910.99	14612.26
911.16	14745.38
911.33	14567.20
911.50	14757.66
911.66	14552.87
911.83	14507.81
912.00	14573.35
912.17	14618.40
912.34	14505.76
912.51	14419.75
912.68	14389.03
912.85	14346.02
913.02	14438.18
913.19	14397.22
913.36	14499.62
913.53	14454.56
913.70	14419.75
913.86	14282.53
914.03	14405.41
914.20	14051.11
914.37	14159.66
914.54	14206.76
914.71	14221.10
914.88	14190.38
915.05	14151.46
915.22	14145.32
915.39	14130.98
915.55	14106.41
915.72	13948.72
915.89	13680.43
916.06	13940.52
916.23	13748.01
916.40	13971.24
916.57	13606.70
916.74	13588.27
916.91	13801.26
917.07	13643.57
917.24	13684.53
917.41	13930.28
917.58	13758.25
917.75	13758.25
917.92	13229.88
918.09	13600.56
918.26	13647.66
918.42	13659.95
918.59	13508.40
918.76	13305.65
918.93	13326.13
919.10	13303.60
919.27	13264.69
919.44	13295.41
919.60	13334.32
919.77	13322.04
919.94	13123.38
920.11	13119.29
920.28	13281.08
920.45	13145.91
920.61	13119.29
920.78	12994.36
920.95	12865.34
921.12	13029.18
921.29	12756.80
921.46	12873.53
921.62	12695.36
921.79	12748.61
921.96	12676.93
922.13	12566.34
922.30	12468.03
922.47	12480.32
922.63	12386.12
922.80	12443.46
922.97	12349.25
923.14	12009.29
923.31	12635.97
923.47	12212.04
923.64	12291.91
923.81	12302.15
923.98	12267.33
924.15	12099.40
924.32	12095.30
924.48	12150.60
924.65	12255.04
924.82	11870.03
924.99	11857.74
925.15	11726.67
925.32	12066.63
925.49	11704.14
925.66	11704.14
925.83	11654.99
925.99	11579.22
926.16	11663.18
926.33	11720.53
926.50	11515.73
926.67	11312.98
926.83	11505.49
927.00	11409.23
927.17	11364.18
927.34	11267.92
927.50	11198.29
927.67	11411.28
927.84	11321.17
928.01	11202.39
928.17	11130.71
928.34	11132.76
928.51	11054.94
928.68	10872.67
928.84	10968.92
929.01	10979.16
929.18	10710.88
929.35	10768.22
929.51	10614.62
929.68	10823.51
929.85	10659.68
930.02	10553.18
930.18	10495.84
930.35	10346.34
930.52	10594.14
930.69	10477.41
930.85	10602.33
931.02	10325.86
931.19	10319.71
931.36	10260.32
931.52	10336.10
931.69	10157.92
931.86	10149.73
932.02	10256.23
932.19	10262.37
932.36	10098.53
932.53	10082.15
932.69	9899.88
932.86	9979.75
933.03	9762.67
933.19	9523.05
933.36	9809.77
933.53	9897.83
933.70	9797.48
933.86	9758.57
934.03	9729.90
934.20	9496.43
934.36	9357.17
934.53	9310.07
934.70	9279.35
934.86	9125.75
935.03	9047.93
935.20	9269.11
935.36	9097.08
935.53	9105.27
935.70	8832.89
935.86	8904.57
936.03	8765.31
936.20	8736.63
936.36	8652.67
936.53	8421.25
936.70	8542.08
936.86	8562.56
937.03	8443.78
937.20	8247.17
937.36	8324.99
937.53	8173.44
937.70	8165.25
937.86	7802.76
938.03	7806.86
938.20	7989.13
938.36	7735.18
938.53	7823.24
938.70	7563.15
938.86	7432.08
939.03	7335.82
939.20	7614.35
939.36	7307.15
939.53	7274.38
939.70	7196.56
939.86	7014.29
940.03	7053.20
940.19	6905.75
940.36	6780.82
940.53	6997.91
940.69	6754.20
940.86	6621.08
941.03	6584.22
941.19	6500.25
941.36	6438.81
941.52	6453.15
941.69	6289.31
941.86	6283.17
942.02	6150.05
942.19	6143.91
942.35	6135.71
942.52	6158.24
942.69	5902.25
942.85	6059.94
943.02	5924.77
943.18	5975.97
943.35	5994.40
943.52	5758.89
943.68	5740.46
943.85	5611.43
944.01	5687.21
944.18	5722.02
944.35	5740.46
944.51	5541.80
944.68	5502.89
944.84	5631.91
945.01	5361.58
945.17	5656.49
945.34	5535.66
945.51	5642.15
945.67	5509.04
945.84	5488.56
946.00	5418.93
946.17	5519.28
946.33	5334.96
946.50	5580.71
946.67	5382.06
946.83	5353.39
947.00	5349.29
947.16	5529.52
947.33	5386.16
947.49	5302.19
947.66	5402.54
947.82	5441.45
947.99	5183.41
948.16	5396.40
948.32	5246.90
948.49	5408.69
948.65	5420.97
948.82	5431.21
948.98	5285.81
949.15	5263.28
949.31	5529.52
949.48	5234.61
949.64	5451.69
949.81	5334.96
949.97	5304.24
950.14	5390.25
950.30	5234.61
950.47	5351.34
950.63	5359.53
950.80	5341.10
950.96	5500.84
951.13	5361.58
951.30	5461.93
951.46	5310.38
951.63	5509.04
951.79	5435.31
951.96	5572.52
952.12	5470.12
952.29	5386.16
952.45	5541.80
952.62	5562.28
952.78	5545.90
952.94	5416.88
953.11	5504.94
953.27	5443.50
953.44	5574.57
953.60	5472.17
953.77	5558.19
953.93	5590.95
954.10	5590.95
954.26	5466.03
954.43	5488.56
954.59	5570.48
954.76	5754.79
954.92	5572.52
955.09	5568.43
955.25	5535.66
955.42	5382.06
955.58	5685.16
955.75	5599.15
955.91	5463.98
956.07	5638.06
956.24	5474.22
956.40	5521.32
956.57	5636.01
956.73	5570.48
956.90	5621.67
957.06	5595.05
957.23	5556.14
957.39	5642.15
957.56	5558.19
957.72	5242.80
957.88	5439.40
958.05	5687.21
958.21	5662.63
958.38	5607.34
958.54	5539.76
958.71	5599.15
958.87	5468.08
959.03	5691.31
959.20	5564.33
959.36	5375.92
959.53	5595.05
959.69	5625.77
959.85	5533.61
960.02	5570.48
960.18	5595.05
960.35	5674.92
960.51	5703.59
960.68	5541.80
960.84	5550.00
961.00	5488.56
961.17	5523.37
961.33	5547.95
961.50	5584.81
961.66	5713.83
961.82	5455.79
961.99	5504.94
962.15	5564.33
962.31	5550.00
962.48	5494.70
962.64	5656.49
962.81	5558.19
962.97	5486.51
963.13	5545.90
963.30	5496.75
963.46	5451.69
963.62	5560.24
963.79	5550.00
963.95	5474.22
964.12	5476.27
964.28	5443.50
964.44	5400.49
964.61	5459.88
964.77	5601.19
964.93	5644.20
965.10	5423.02
965.26	5380.01
965.42	5504.94
965.59	5506.99
965.75	5400.49
965.92	5384.11
966.08	5410.73
966.24	5459.88
966.41	5367.73
966.57	5433.26
966.73	5435.31
966.90	5525.42
967.06	5420.97
967.22	5468.08
967.39	5377.97
967.55	5246.90
967.71	5267.38
967.88	5210.03
968.04	5246.90
968.20	5214.13
968.37	5246.90
968.53	5377.97
968.69	5386.16
968.85	5244.85
969.02	5343.15
969.18	5238.70
969.34	5337.01
969.51	5343.15
969.67	5377.97
969.83	5156.79
970.00	5386.16
970.16	5167.03
970.32	5179.31
970.48	5230.51
970.65	5087.15
970.81	5156.79
970.97	5031.86
971.14	5064.63
971.30	5246.90
971.46	5179.31
971.63	5068.72
971.79	5205.94
971.95	5160.88
972.11	5011.38
972.28	5124.02
972.44	5167.03
972.60	5029.81
972.76	4992.95
972.93	5064.63
973.09	5146.55
973.25	4995.00
973.42	5005.24
973.58	5095.35
973.74	5003.19
973.90	5083.06
974.07	4886.45
974.23	4986.80
974.39	5066.67
974.55	4956.08
974.72	4943.80
974.88	4841.40
975.04	4976.56
975.20	4835.25
975.37	4947.89
975.53	4718.52
975.69	4925.36
975.85	4812.73
976.01	4886.45
976.18	4784.06
976.34	4753.34
976.50	4759.48
976.66	4822.97
976.83	4736.95
976.99	4714.42
977.15	4782.01
977.31	4616.12
977.47	4927.41
977.64	4669.37
977.80	4769.72
977.96	4751.29
978.12	4847.54
978.29	4718.52
978.45	4669.37
978.61	4620.22
978.77	4779.96
978.93	4538.30
979.10	4616.12
979.26	4689.85
979.42	4693.94
979.58	4470.72
979.74	4597.69
979.91	4648.89
980.07	4513.72
980.23	4564.92
980.39	4556.73
980.55	4501.44
980.71	4429.76
980.88	4550.59
981.04	4521.92
981.20	4517.82
981.36	4544.44
981.52	4483.00
981.68	4317.12
981.85	4474.81
982.01	4440.00
982.17	4374.46
982.33	4413.37
982.49	4411.32
982.65	4401.08
982.82	4274.11
982.98	4403.13
983.14	4304.83
983.30	4440.00
983.46	4480.96
983.62	4378.56
983.79	4315.07
983.95	4237.25
984.11	4329.41
984.27	4333.50
984.43	4366.27
984.59	4317.12
984.75	4362.17
984.91	4181.95
985.08	4308.93
985.24	4136.90
985.40	4218.82
985.56	4153.28
985.72	4224.96
985.88	4278.21
986.04	4210.62
986.20	4159.42
986.37	4083.65
986.53	4157.38
986.69	4138.94
986.85	4040.64
987.01	4206.53
987.17	4071.36
987.33	4124.61
987.49	4100.03
987.65	4138.94
987.82	4022.21
987.98	4018.11
988.14	4016.07
988.30	4130.75
988.46	3991.49
988.62	3997.64
988.78	3887.04
988.94	4026.31
989.10	3891.14
989.26	3991.49
989.42	3901.38
989.59	3868.61
989.75	3917.76
989.91	3973.06
990.07	3798.98
990.23	3878.85
990.39	3956.68
990.55	3837.89
990.71	3846.09
990.87	3909.57
991.03	3925.96
991.19	3862.47
991.35	3837.89
991.51	3786.69
991.67	3813.32
991.83	3803.08
992.00	3778.50
992.16	3758.02
992.32	3891.14
992.48	3790.79
992.64	3774.41
992.80	3790.79
992.96	3729.35
993.12	3715.02
993.28	3770.31
993.44	3782.60
993.60	3725.26
993.76	3784.65
993.92	3649.48
994.08	3856.33
994.24	3706.82
994.40	3690.44
994.56	3616.71
994.72	3678.15
994.88	3569.61
995.04	3624.90
995.20	3657.67
995.36	3549.13
995.52	3688.39
995.68	3647.43
995.84	3569.61
996.00	3674.06
996.16	3526.60
996.32	3487.69
996.48	3442.64
996.64	3620.81
996.80	3426.25
996.96	3606.47
997.12	3452.88
997.28	3512.27
997.44	3360.72
997.60	3473.36
997.76	3463.12
997.92	3364.81
998.08	3383.24
998.24	3416.01
998.40	3471.31
998.56	3495.88
998.72	3375.05
998.88	3401.68
999.04	3344.33
999.20	3540.94
999.36	3360.72
999.52	3422.16
999.68	3354.57
999.84	3473.36
1000.00	3409.87
1000.16	3377.10
1000.32	3323.85
1000.48	3379.15
1000.64	3184.59
1000.80	3246.03
1000.95	3155.92
1001.11	3379.15
1001.27	3176.40
1001.43	3338.19
1001.59	3176.40
1001.75	3084.24
1001.91	3192.78
1002.07	3278.80
1002.23	3200.98
1002.39	3229.65
1002.55	3192.78
1002.71	3117.01
1002.87	3067.86
1003.03	3256.27
1003.19	3166.16
1003.34	3133.39
1003.50	3049.43
1003.66	3114.96
1003.82	3135.44
1003.98	3129.30
1004.14	3129.30
1004.30	3035.09
1004.46	3057.62
1004.62	3030.99
1004.78	3053.52
1004.94	3061.71
1005.09	3119.06
1005.25	3030.99
1005.41	2924.50
1005.57	3043.28
1005.73	2985.94
1005.89	2955.22
1006.05	3014.61
1006.21	3006.42
1006.37	2885.59
1006.52	2928.60
1006.68	2965.46
1006.84	2969.55
1007.00	2908.12
1007.16	2959.31
1007.32	2883.54
1007.48	2861.01
1007.64	3000.27
1007.79	2936.79
1007.95	2910.16
1008.11	2852.82
1008.27	2869.20
1008.43	2924.50
1008.59	2901.97
1008.75	2873.30
1008.91	2924.50
1009.06	2856.92
1009.22	2906.07
1009.38	2856.92
1009.54	2955.22
1009.70	2820.05
1009.86	2760.66
1010.01	2983.89
1010.17	2641.88
1010.33	2854.87
1010.49	2738.13
1010.65	2785.24
1010.81	2717.65
1010.96	2871.25
1011.12	2641.88
1011.28	2682.84
1011.44	2815.96
1011.60	2711.51
1011.76	2748.37
1011.91	2795.48
1012.07	2635.74
1012.23	2645.98
1012.39	2617.30
1012.55	2740.18
1012.71	2705.37
1012.86	2594.78
1013.02	2711.51
1013.18	2666.46
1013.34	2633.69
1013.50	2791.38
1013.65	2666.46
1013.81	2629.59
1013.97	2648.02
1014.13	2691.03
1014.29	2699.22
1014.44	2672.60
1014.60	2549.72
1014.76	2637.78
1014.92	2580.44
1015.07	2650.07
1015.23	2553.82
1015.39	2541.53
1015.55	2523.10
1015.71	2523.10
1015.86	2512.86
1016.02	2449.37
1016.18	2484.19
1016.34	2568.15
1016.49	2572.25
1016.65	2641.88
1016.81	2510.81
1016.97	2457.56
1017.12	2502.62
1017.28	2435.03
1017.44	2449.37
1017.60	2475.99
1017.75	2486.23
1017.91	2473.95
1018.07	2502.62
1018.23	2465.75
1018.38	2338.78
1018.54	2404.32
1018.70	2492.38
1018.86	2480.09
1019.01	2385.88
1019.17	2543.58
1019.33	2519.00
1019.49	2457.56
1019.64	2469.85
1019.80	2441.18
1019.96	2519.00
1020.12	2428.89
1020.27	2457.56
1020.43	2351.07
1020.59	2396.12
1020.74	2355.16
1020.90	2394.08
1021.06	2344.92
1021.22	2355.16
1021.37	2404.32
1021.53	2297.82
1021.69	2416.60
1021.84	2201.57
1022.00	2320.35
1022.16	2295.77
1022.31	2375.64
1022.47	2373.60
1022.63	2234.33
1022.79	2187.23
1022.94	2338.78
1023.10	2416.60
1023.26	2269.15
1023.41	2314.20
1023.57	2265.05
1023.73	2328.54
1023.88	2258.91
1024.04	2281.44
1024.20	2158.56
1024.35	2222.05
1024.51	2246.62
1024.67	2211.81
1024.82	2342.88
1024.98	2107.36
1025.14	2291.68
1025.29	2133.98
1025.45	2330.59
1025.61	2215.90
1025.76	2246.62
1025.92	2199.52
1026.08	2277.34
1026.23	2101.22
1026.39	2228.19
1026.55	2131.94
1026.70	2170.85
1026.86	2168.80
1027.02	2150.37
1027.17	2168.80
1027.33	2232.29
1027.48	2105.31
1027.64	2174.94
1027.80	2072.54
1027.95	2082.78
1028.11	2031.58
1028.27	2271.20
1028.42	2148.32
1028.58	2133.98
1028.73	2189.28
1028.89	2011.11
1029.05	2220.00
1029.20	2111.46
>>>>>End Processed Spectral Data<<<<<
