SpectraSuite Data File
++++++++++++++++++++++++++++++++++++
Date: Fri Jun 02 14:44:35 CEST 2017
User: INFO_000
Dark Spectrum Present: No
Reference Spectrum Present: No
Number of Sampled Component Spectra: 1
Spectrometers: USB4H00879
Integration Time (usec): 80000 (USB4H00879)
Spectra Averaged: 1 (USB4H00879)
Boxcar Smoothing: 0 (USB4H00879)
Correct for Electrical Dark: No (USB4H00879)
Strobe/Lamp Enabled: No (USB4H00879)
Correct for Detector Non-linearity: No (USB4H00879)
Correct for Stray Light: No (USB4H00879)
Number of Pixels in Processed Spectrum: 3648
>>>>>Begin Processed Spectral Data<<<<<
345.13	1275.88
345.34	1275.88
345.56	1275.88
345.78	1300.46
345.99	1279.98
346.21	1693.67
346.42	1671.14
346.64	1667.05
346.86	1773.54
347.07	1665.00
347.29	1654.76
347.50	1658.85
347.72	1654.76
347.94	1689.57
348.15	1607.66
348.37	1628.14
348.59	1761.25
348.80	1675.24
349.02	1726.44
349.23	1830.88
349.45	1830.88
349.67	1814.50
349.88	1818.60
350.10	1957.86
350.31	1994.72
350.53	1818.60
350.75	2013.15
350.96	1781.73
351.18	1855.46
351.39	1877.99
351.61	1718.25
351.82	1951.71
352.04	1871.84
352.26	1765.35
352.47	1941.47
352.69	1875.94
352.90	1773.54
353.12	1853.41
353.34	1794.02
353.55	1949.67
353.77	1933.28
353.98	1834.98
354.20	1857.51
354.41	1941.47
354.63	1927.14
354.85	2029.54
355.06	1931.23
355.28	1796.07
355.49	1918.95
355.71	1888.23
355.92	1892.32
356.14	1939.43
356.35	1830.88
356.57	1812.45
356.79	1955.81
357.00	1837.03
357.22	1959.91
357.43	1851.36
357.65	1980.39
357.86	1820.64
358.08	1875.94
358.29	1912.80
358.51	1896.42
358.72	1961.95
358.94	1939.43
359.16	1918.95
359.37	1957.86
359.59	1972.19
359.80	2029.54
360.02	2007.01
360.23	2002.91
360.45	1982.43
360.66	1890.28
360.88	1853.41
361.09	2019.30
361.31	1966.05
361.52	1966.05
361.74	2058.21
361.95	2113.50
362.17	2017.25
362.38	2097.12
362.60	2054.11
362.81	2041.82
363.03	1896.42
363.24	1998.82
363.46	2070.50
363.67	2123.74
363.89	1990.63
364.10	2019.30
364.32	1955.81
364.53	2025.44
364.75	1914.85
364.96	2064.35
365.18	2017.25
365.39	1990.63
365.61	1982.43
365.82	2056.16
366.04	1994.72
366.25	2043.87
366.47	2105.31
366.68	2052.06
366.90	1961.95
367.11	2019.30
367.33	2082.78
367.54	2082.78
367.76	1974.24
367.97	2093.02
368.19	1994.72
368.40	2056.16
368.62	2007.01
368.83	1953.76
369.05	2056.16
369.26	2000.87
369.48	2060.26
369.69	1927.14
369.91	2084.83
370.12	1992.67
370.33	2107.36
370.55	1929.19
370.76	2029.54
370.98	2113.50
371.19	1992.67
371.41	1982.43
371.62	2011.11
371.84	1951.71
372.05	2131.94
372.27	2052.06
372.48	2047.97
372.69	2060.26
372.91	2170.85
373.12	2209.76
373.34	2101.22
373.55	2052.06
373.77	2086.88
373.98	2133.98
374.20	2185.18
374.41	2252.77
374.62	2144.22
374.84	2238.43
375.05	2156.51
375.27	2152.42
375.48	2181.09
375.70	2187.23
375.91	2232.29
376.12	2236.38
376.34	2181.09
376.55	2226.14
376.77	2129.89
376.98	2133.98
377.19	2142.18
377.41	2142.18
377.62	2215.90
377.84	2285.53
378.05	2308.06
378.27	2158.56
378.48	2217.95
378.69	2342.88
378.91	2236.38
379.12	2220.00
379.34	2248.67
379.55	2326.49
379.76	2318.30
379.98	2312.16
380.19	2301.92
380.41	2258.91
380.62	2338.78
380.83	2322.40
381.05	2097.12
381.26	2447.32
381.47	2273.25
381.69	2297.82
381.90	2412.51
382.12	2287.58
382.33	2306.01
382.54	2326.49
382.76	2279.39
382.97	2373.60
383.19	2287.58
383.40	2486.23
383.61	2279.39
383.83	2250.72
384.04	2289.63
384.25	2453.47
384.47	2330.59
384.68	2379.74
384.89	2322.40
385.11	2340.83
385.32	2340.83
385.54	2369.50
385.75	2371.55
385.96	2371.55
386.18	2416.60
386.39	2496.47
386.60	2306.01
386.82	2406.36
387.03	2430.94
387.24	2475.99
387.46	2437.08
387.67	2449.37
387.88	2592.73
388.10	2392.03
388.31	2463.71
388.52	2535.39
388.74	2478.04
388.95	2551.77
389.16	2580.44
389.38	2432.99
389.59	2559.96
389.80	2641.88
390.02	2537.43
390.23	2746.33
390.44	2609.11
390.66	2555.86
390.87	2480.09
391.08	2686.94
391.30	2721.75
391.51	2596.82
391.72	2693.08
391.94	2652.12
392.15	2643.93
392.36	2717.65
392.58	2623.45
392.79	2697.17
393.00	2666.46
393.22	2764.76
393.43	2768.85
393.64	2793.43
393.85	2811.86
394.07	2645.98
394.28	2719.70
394.49	2623.45
394.71	2676.70
394.92	2844.63
395.13	2654.17
395.35	2695.13
395.56	2783.19
395.77	2889.68
395.98	2721.75
396.20	2863.06
396.41	2854.87
396.62	2836.44
396.84	2818.00
397.05	2842.58
397.26	2832.34
397.47	2924.50
397.69	2848.72
397.90	2961.36
398.11	2961.36
398.32	2926.55
398.54	2904.02
398.75	2881.49
398.96	2936.79
399.18	3096.53
399.39	2863.06
399.60	3010.51
399.81	2955.22
400.03	2832.34
400.24	3141.58
400.45	3049.43
400.66	3123.15
400.88	3041.23
401.09	3186.64
401.30	3012.56
401.51	3117.01
401.73	3090.38
401.94	3088.34
402.15	3112.91
402.36	3059.67
402.58	3014.61
402.79	3119.06
403.00	3192.78
403.21	3223.50
403.43	3270.61
403.64	3186.64
403.85	3076.05
404.06	3254.22
404.27	3090.38
404.49	3133.39
404.70	3129.30
404.91	3260.37
405.12	3223.50
405.34	3256.27
405.55	3284.94
405.76	3051.47
405.97	3147.73
406.19	3383.24
406.40	3217.36
406.61	3350.48
406.82	3397.58
407.03	3313.61
407.25	3366.86
407.46	3391.44
407.67	3491.79
407.88	3397.58
408.09	3327.95
408.31	3411.92
408.52	3391.44
408.73	3289.04
408.94	3289.04
409.15	3502.03
409.37	3585.99
409.58	3459.02
409.79	3497.93
410.00	3592.14
410.21	3442.64
410.43	3551.18
410.64	3477.45
410.85	3643.34
411.06	3524.55
411.27	3497.93
411.48	3702.73
411.70	3555.27
411.91	3622.86
412.12	3684.30
412.33	3616.71
412.54	3565.51
412.76	3682.25
412.97	3723.21
413.18	3579.85
413.39	3629.00
413.60	3735.50
413.81	3637.19
414.03	3727.30
414.24	3585.99
414.45	3919.81
414.66	3575.75
414.87	3772.36
415.08	3741.64
415.30	3829.70
415.51	3866.56
415.72	3780.55
415.93	3825.61
416.14	3796.93
416.35	3841.99
416.56	3844.04
416.78	3882.95
416.99	3930.05
417.20	4022.21
417.41	3936.20
417.62	3885.00
417.83	3991.49
418.04	3905.48
418.26	3887.04
418.47	3880.90
418.68	4003.78
418.89	4038.59
419.10	4100.03
419.31	4149.18
419.52	4138.94
419.73	4138.94
419.95	4067.27
420.16	3958.72
420.37	3921.86
420.58	4110.27
420.79	3915.72
421.00	4093.89
421.21	4153.28
421.42	4003.78
421.63	4054.98
421.85	4108.23
422.06	4106.18
422.27	4155.33
422.48	4272.06
422.69	4208.58
422.90	4149.18
423.11	4253.63
423.32	4310.97
423.53	4347.84
423.75	4288.45
423.96	4360.13
424.17	4411.32
424.38	4519.87
424.59	4386.75
424.80	4638.65
425.01	4401.08
425.22	4413.37
425.43	4444.09
425.64	4530.11
425.85	4673.46
426.06	4661.18
426.28	4646.84
426.49	4474.81
426.70	4560.83
426.91	4607.93
427.12	4616.12
427.33	4726.71
427.54	4650.94
427.75	4712.38
427.96	4714.42
428.17	4870.07
428.38	4712.38
428.59	4923.32
428.80	4667.32
429.01	4831.16
429.23	4818.87
429.44	5033.91
429.65	4876.21
429.86	4843.45
430.07	4892.60
430.28	4861.88
430.49	4865.97
430.70	5134.26
430.91	4984.76
431.12	5003.19
431.33	5169.07
431.54	5126.07
431.75	5105.59
431.96	5261.23
432.17	5107.63
432.38	5124.02
432.59	5390.25
432.80	5314.48
433.01	5222.32
433.22	5236.66
433.43	5304.24
433.64	5271.47
433.85	5275.57
434.06	5474.22
434.27	5347.25
434.49	5461.93
434.70	5611.43
434.91	5384.11
435.12	5519.28
435.33	5457.84
435.54	5380.01
435.75	5441.45
435.96	5584.81
436.17	5386.16
436.38	5554.09
436.59	5689.26
436.80	5545.90
437.01	5824.42
437.22	5752.74
437.43	5808.04
437.64	5672.87
437.85	5744.55
438.06	5898.15
438.27	5748.65
438.48	5695.40
438.69	5910.44
438.90	5922.73
439.11	5658.54
439.32	5975.97
439.53	6031.27
439.74	5941.16
439.95	6061.99
440.16	5889.96
440.37	5961.64
440.57	5949.35
440.78	5969.83
440.99	6031.27
441.20	6127.52
441.41	5918.63
441.62	6031.27
441.83	5877.67
442.04	6258.59
442.25	6139.81
442.46	6090.66
442.67	6354.85
442.88	6662.04
443.09	6225.82
443.30	6184.87
443.51	6367.13
443.72	6784.92
443.93	6289.31
444.14	6487.96
444.35	6182.82
444.56	6418.33
444.77	6530.97
444.98	6549.40
445.19	6598.56
445.40	6236.06
445.61	6563.74
445.81	6647.71
446.02	6563.74
446.23	6504.35
446.44	6430.62
446.65	6647.71
446.86	6598.56
447.07	6614.94
447.28	6854.55
447.49	6834.07
447.70	6664.09
447.91	6854.55
448.12	6666.14
448.33	6856.60
448.54	6952.85
448.74	6688.67
448.95	6795.16
449.16	6836.12
449.37	6946.71
449.58	7004.05
449.79	7077.78
450.00	6746.01
450.21	7038.87
450.42	7169.94
450.63	7143.32
450.84	7032.72
451.05	7225.23
451.25	7120.79
451.46	6860.70
451.67	7319.44
451.88	7309.20
452.09	7085.97
452.30	7151.51
452.51	7081.88
452.72	7239.57
452.93	7516.05
453.13	7155.60
453.34	7192.47
453.55	7212.95
453.76	7368.59
453.97	7507.85
454.18	7509.90
454.39	7432.08
454.60	7565.20
454.81	7520.14
455.01	7690.12
455.22	7309.20
455.43	7659.40
455.64	7747.47
455.85	7886.73
456.06	8073.09
456.27	7892.87
456.48	7776.14
456.68	7806.86
456.89	7956.36
457.10	7929.74
457.31	7853.96
457.52	7745.42
457.73	7849.86
457.94	8099.72
458.14	8023.94
458.35	8224.64
458.56	8216.45
458.77	8181.64
458.98	8247.17
459.19	8179.59
459.39	8374.14
459.60	8347.52
459.81	8404.86
460.02	8542.08
460.23	8378.24
460.44	8550.27
460.65	8634.24
460.85	8515.45
461.06	8816.51
461.27	8587.13
461.48	8941.43
461.69	8990.58
461.89	8572.80
462.10	9031.54
462.31	8693.63
462.52	8871.80
462.73	9013.11
462.94	9342.83
463.14	9158.52
463.35	9154.42
463.56	9455.47
463.77	9391.98
463.98	9355.12
464.18	9183.09
464.39	9453.42
464.60	9654.12
464.81	9619.31
465.02	9494.38
465.23	9994.09
465.43	9604.97
465.64	9951.08
465.85	10028.90
466.06	9783.15
466.27	10221.41
466.47	9930.60
466.68	10110.82
466.89	9998.18
467.10	10334.05
467.30	9942.89
467.51	10372.96
467.72	10739.55
467.93	10321.76
468.14	10475.36
468.34	10559.33
468.55	10712.92
468.76	10606.43
468.97	10614.62
469.17	10942.30
469.38	11009.88
469.59	11284.31
469.80	10921.82
470.01	11024.22
470.21	11046.74
470.42	11204.44
470.63	11374.42
470.84	11325.27
471.04	11405.14
471.25	11413.33
471.46	11562.83
471.67	11849.55
471.87	11808.59
472.08	11685.71
472.29	12111.69
472.50	11611.98
472.70	11749.20
472.91	12027.72
473.12	12212.04
473.33	12148.55
473.53	12558.14
473.74	12312.39
473.95	12603.20
474.16	12537.66
474.36	12658.49
474.57	12824.38
474.78	12713.79
474.99	12824.38
475.19	12889.92
475.40	13016.89
475.61	13307.70
475.81	13119.29
476.02	13485.87
476.23	13211.45
476.44	13502.26
476.64	13713.20
476.85	13829.93
477.06	13709.10
477.27	14085.93
477.47	14012.20
477.68	13860.65
477.89	14124.84
478.09	14368.55
478.30	14331.69
478.51	14202.66
478.71	14569.25
478.92	14567.20
479.13	14731.04
479.34	14860.06
479.54	14855.97
479.75	14657.31
479.96	14821.15
480.16	15071.00
480.37	14839.58
480.58	15040.28
480.78	15460.12
480.99	15396.63
481.20	15376.15
481.41	15542.03
481.61	15587.09
481.82	15728.40
482.03	15726.35
482.23	15982.35
482.44	15990.54
482.65	16119.56
482.85	16125.71
483.06	16181.00
483.27	16293.64
483.47	16295.69
483.68	16455.43
483.89	16465.67
484.09	16516.87
484.30	16705.28
484.51	16535.30
484.71	17243.90
484.92	16971.52
485.13	17178.36
485.33	17274.62
485.54	16987.90
485.75	17215.23
485.95	17567.48
486.16	17493.75
486.37	17385.21
486.57	17651.44
486.78	17651.44
486.98	17805.04
487.19	17696.50
487.40	18089.71
487.60	18128.62
487.81	18138.86
488.02	18069.23
488.22	18024.17
488.43	18417.38
488.64	18102.00
488.84	18630.37
489.05	18814.69
489.25	18530.02
489.46	18728.67
489.67	18609.89
489.87	18968.29
490.08	19336.92
490.29	19033.82
490.49	19330.78
490.70	19474.13
490.90	19449.56
491.11	19193.56
491.32	19539.67
491.52	19580.63
491.73	19547.86
491.94	19599.06
492.14	19721.94
492.35	20133.58
492.55	19988.18
492.76	20154.06
492.97	20338.38
493.17	20315.85
493.38	20373.19
493.58	20528.84
493.79	20778.69
494.00	20479.69
494.20	20670.15
494.41	21053.12
494.61	21077.69
494.82	20664.00
495.02	20770.50
495.23	21098.17
495.44	21257.92
495.64	21358.27
495.85	21395.13
496.05	21597.88
496.26	21343.93
496.47	21784.24
496.67	21477.05
496.88	21837.49
497.08	21851.83
497.29	22267.56
497.49	21835.44
497.70	21839.54
497.91	22357.67
498.11	22351.53
498.32	22593.19
498.52	22673.06
498.73	22896.29
498.93	22658.73
499.14	23076.51
499.34	22929.06
499.55	23185.05
499.76	22705.83
499.96	23414.43
500.17	23320.22
500.37	23355.04
500.58	23430.81
500.78	23592.60
500.99	23533.21
501.19	23877.27
501.40	23760.53
501.60	23848.60
501.81	23793.30
502.02	23774.87
502.22	24028.82
502.43	24016.53
502.63	24487.56
502.84	24483.47
503.04	24389.26
503.25	24522.38
503.45	24469.13
503.66	24757.89
503.86	24991.36
504.07	25065.09
504.27	24999.55
504.48	25251.45
504.68	24956.55
504.89	25458.30
505.09	25214.59
505.30	25046.66
505.50	25206.40
505.71	25466.49
505.91	25757.30
506.12	25615.99
506.32	25761.40
506.53	25511.55
506.73	26097.27
506.94	26005.11
507.14	25994.87
507.35	25962.10
507.55	26259.06
507.76	26416.75
507.96	25898.61
508.17	26173.04
508.37	26361.45
508.58	26543.72
508.78	26551.91
508.99	26537.58
509.19	26662.51
509.40	26738.28
509.60	26891.88
509.81	26621.55
510.01	26840.68
510.22	26967.65
510.42	26758.76
510.63	27121.25
510.83	26986.08
511.04	27164.26
511.24	27004.52
511.44	26990.18
511.65	27580.00
511.85	27283.04
512.06	27154.02
512.26	27510.36
512.47	27444.83
512.67	27608.67
512.88	27954.77
513.08	27739.74
513.29	27842.14
513.49	28016.21
513.69	27885.14
513.90	27870.81
514.10	27858.52
514.31	28147.28
514.51	27993.68
514.72	28130.90
514.92	28106.32
515.13	28014.16
515.33	28104.28
515.53	28067.41
515.74	28536.40
515.94	28524.11
516.15	28300.88
516.35	28231.25
516.56	28341.84
516.76	28585.55
516.96	28675.66
517.17	28634.70
517.37	28573.26
517.58	28866.12
517.78	29085.25
517.99	28808.78
518.19	29107.78
518.39	29066.82
518.60	29408.83
518.80	29296.19
519.01	29331.01
519.21	29414.98
519.41	29394.50
519.62	29488.70
519.82	29494.85
520.03	29337.15
520.23	29619.77
520.43	29236.80
520.64	29793.85
520.84	29847.10
521.05	29732.41
521.25	29937.21
521.45	30113.33
521.66	30127.67
521.86	29689.40
522.07	29881.91
522.27	30070.33
522.47	30086.71
522.68	30285.36
522.88	30178.87
523.08	30774.83
523.29	30168.63
523.49	30438.96
523.70	30279.22
523.90	31041.06
524.10	30627.37
524.31	30680.62
524.51	30658.09
524.71	31075.88
524.92	30434.86
525.12	31004.20
525.33	31206.95
525.53	31434.27
525.73	31149.60
525.94	31383.07
526.14	31092.26
526.34	31434.27
526.55	31626.78
526.75	31637.02
526.95	31729.18
527.16	31372.83
527.36	31827.48
527.56	31860.25
527.77	32122.39
527.97	32058.90
528.17	31729.18
528.38	31970.84
528.58	32232.98
528.78	32251.41
528.99	32212.50
529.19	32550.42
529.39	31972.89
529.60	32460.30
529.80	32284.18
530.00	33029.64
530.21	32853.51
530.41	32865.80
530.61	32642.57
530.82	32972.30
531.02	32716.30
531.22	32544.27
531.43	32880.14
531.63	33418.75
531.83	33410.56
532.04	33789.44
532.24	33717.76
532.44	33482.24
532.64	33639.93
532.85	33940.99
533.05	33943.03
533.25	34100.73
533.46	33764.86
533.66	34450.93
533.86	34127.35
534.07	34594.29
534.27	34754.03
534.47	34498.03
534.67	34737.65
534.88	34715.12
535.08	34459.12
535.28	35073.51
535.49	35333.60
535.69	35337.70
535.89	35315.17
536.09	35755.49
536.30	35755.49
536.50	35440.10
536.70	35640.80
536.91	35786.21
537.11	35743.20
537.31	35812.83
537.51	35952.09
537.72	36500.95
537.92	36271.57
538.12	36619.73
538.32	36281.81
538.53	36455.89
538.73	36218.33
538.93	36189.66
539.13	36617.68
539.34	36468.18
539.54	36730.32
539.74	37090.76
539.94	36902.35
540.15	36795.85
540.35	37565.89
540.55	37357.00
540.75	37152.20
540.96	37285.32
541.16	37750.21
541.36	37250.50
541.56	37846.46
541.77	37797.31
541.97	37975.48
542.17	38258.10
542.37	38182.33
542.58	38159.80
542.78	38014.40
542.98	38372.79
543.18	38710.71
543.38	38796.72
543.59	39073.20
543.79	38589.88
543.99	38335.93
544.19	38854.06
544.40	38858.16
544.60	39257.51
544.80	39161.26
545.00	39247.27
545.20	39462.31
545.41	39429.54
545.61	39564.71
545.81	39859.62
546.01	39583.14
546.21	39863.71
546.42	39828.90
546.62	39785.89
546.82	39882.14
547.02	40107.42
547.22	40191.39
547.43	39974.30
547.63	40451.48
547.83	40152.48
548.03	40099.23
548.23	40639.89
548.44	40164.76
548.64	40785.30
548.84	40484.25
549.04	40838.54
549.24	41135.50
549.45	41295.24
549.65	40891.79
549.85	41082.25
550.05	41289.10
550.25	41278.86
550.45	41721.22
550.66	41717.12
550.86	41428.36
551.06	41762.18
551.26	41717.12
551.46	41831.81
551.66	41776.51
551.87	41854.34
552.07	41930.11
552.27	42100.09
552.47	42077.57
552.67	42419.58
552.87	42521.98
553.07	41923.97
553.28	42460.54
553.48	42265.98
553.68	42448.25
553.88	42706.29
554.08	42784.12
554.28	42483.06
554.48	42415.48
554.69	42802.55
554.89	42726.77
555.09	42622.33
555.29	42501.50
555.49	43289.96
555.69	43042.16
555.89	42548.60
556.10	42933.62
556.30	42988.91
556.50	43287.92
556.70	42980.72
556.90	43322.73
557.10	42849.65
557.30	43142.51
557.50	43574.63
557.70	43431.27
557.91	43562.34
558.11	43439.47
558.31	43857.25
558.51	43537.77
558.71	43615.59
558.91	43801.96
559.11	43908.45
559.31	43742.56
559.51	43945.31
559.72	43816.29
559.92	44031.33
560.12	43605.35
560.32	44047.71
560.52	44035.42
560.72	44014.94
560.92	43988.32
561.12	43926.88
561.32	44717.40
561.52	44072.29
561.72	44154.21
561.93	44109.15
562.13	43795.81
562.33	43605.35
562.53	44434.78
562.73	43859.30
562.93	44260.70
563.13	44389.72
563.33	44348.76
563.53	44070.24
563.73	44293.47
563.93	44641.62
564.13	44719.45
564.33	44356.96
564.53	44195.17
564.74	44258.65
564.94	44266.84
565.14	44094.82
565.34	44019.04
565.54	44645.72
565.74	44539.22
565.94	44717.40
566.14	44440.92
566.34	44229.98
566.54	45585.74
566.74	44025.18
566.94	44801.36
567.14	45126.99
567.34	44275.04
567.54	44567.90
567.74	44494.17
567.94	44397.91
568.14	44928.34
568.34	45139.28
568.54	44797.27
568.74	45184.33
568.94	45057.36
569.14	45155.66
569.34	45229.39
569.54	44885.33
569.75	44643.67
569.95	44877.14
570.15	45454.67
570.35	45337.93
570.55	45114.70
570.75	44965.20
570.95	45053.26
571.15	44997.97
571.35	45272.40
571.55	45604.17
571.75	45311.31
571.95	45331.79
572.15	45258.06
572.35	45413.71
572.55	45425.99
572.75	45063.50
572.95	45243.73
573.15	45385.04
573.35	45073.74
573.55	45266.25
573.75	45339.98
573.95	45299.02
574.15	45602.12
574.35	46064.96
574.55	45346.12
574.75	45585.74
574.95	45725.00
575.15	45591.88
575.34	45626.70
575.54	45641.03
575.74	45841.73
575.94	45905.22
576.14	45800.77
576.34	45712.71
576.54	45839.68
576.74	45991.23
576.94	45538.63
577.14	45997.38
577.34	46015.81
577.54	45727.05
577.74	46093.63
577.94	46302.53
578.14	46056.77
578.34	46490.94
578.54	45528.39
578.74	46157.12
578.94	46351.68
579.14	46030.15
579.34	45866.31
579.54	46284.09
579.74	46806.33
579.94	46191.94
580.13	47050.03
580.33	46601.53
580.53	46925.11
580.73	46437.69
580.93	46796.09
581.13	46824.76
581.33	46789.94
581.53	47095.09
581.73	46923.06
581.93	46961.97
582.13	46730.55
582.33	47134.00
582.53	47207.73
582.73	47263.02
582.92	47330.61
583.12	47002.93
583.32	47240.50
583.52	46947.64
583.72	47506.73
583.92	47113.52
584.12	47605.03
584.32	47678.76
584.52	47490.35
584.72	47525.16
584.92	47580.46
585.11	48141.60
585.31	47850.79
585.51	47791.40
585.71	47551.79
585.91	48344.35
586.11	47822.12
586.31	47580.46
586.51	47869.22
586.71	48215.33
586.91	48477.47
587.10	48088.35
587.30	48323.87
587.50	48166.18
587.70	48413.98
587.90	48645.40
588.10	48608.54
588.30	48311.58
588.50	48438.56
588.69	48899.35
588.89	48788.76
589.09	48874.77
589.29	48878.87
589.49	48973.08
589.69	48407.84
589.89	49288.46
590.08	49214.74
590.28	49413.39
590.48	49104.15
590.68	48954.64
590.88	49257.74
591.08	49452.30
591.28	48917.78
591.47	49800.46
591.67	49835.27
591.87	49820.94
592.07	49466.64
592.27	49773.83
592.47	49739.02
592.67	49636.62
592.86	50101.51
593.06	50105.60
593.26	50525.44
593.46	50044.16
593.66	50058.50
593.86	50189.57
594.05	50656.51
594.25	50199.81
594.45	50117.89
594.65	50597.12
594.85	50541.82
595.05	50865.40
595.24	50726.14
595.44	50869.50
595.64	50636.03
595.84	50828.54
596.04	51180.79
596.23	51334.38
596.43	51344.62
596.63	51186.93
596.83	51533.04
597.03	51328.24
597.22	52192.48
597.42	51516.65
597.62	51670.25
597.82	51737.83
598.02	51911.91
598.21	52458.72
598.41	51537.13
598.61	52157.67
598.81	51594.48
599.01	52597.98
599.20	51721.45
599.40	51686.64
599.60	52266.21
599.80	52436.19
600.00	52370.66
600.19	52759.77
600.39	52167.91
600.59	52821.21
600.79	52626.65
600.98	52937.94
601.18	53062.87
601.38	53040.34
601.58	53398.74
601.78	52970.71
601.97	52950.23
602.17	53613.77
602.37	53703.88
602.57	53234.90
602.76	53474.51
602.96	53253.33
603.16	53796.04
603.36	53611.73
603.55	53667.02
603.75	53798.09
603.95	54162.63
604.15	54224.07
604.34	54082.76
604.54	54555.84
604.74	54230.21
604.94	54256.84
605.13	54187.21
605.33	54582.46
605.53	54191.30
605.73	54484.16
605.92	54691.01
606.12	54392.00
606.32	54607.04
606.52	54459.58
606.71	54936.76
606.91	55047.35
607.11	54899.90
607.30	54967.48
607.50	55284.92
607.70	55141.56
607.90	55213.24
608.09	54738.11
608.29	55159.99
608.49	55127.22
608.68	55190.71
608.88	55229.62
609.08	55616.69
609.28	55846.06
609.47	55426.23
609.67	55923.88
609.87	55686.32
610.06	55717.04
610.26	55661.74
610.46	55829.68
610.66	55944.36
610.85	55985.32
611.05	55286.96
611.25	55737.52
611.44	55620.78
611.64	55768.24
611.84	55805.10
612.03	55944.36
612.23	55960.75
612.43	55952.55
612.62	56091.82
612.82	56110.25
613.02	56362.15
613.21	55637.17
613.41	55817.39
613.61	55862.44
613.80	55471.28
614.00	55841.96
614.20	55948.46
614.39	55405.75
614.59	56403.11
614.79	55710.89
614.98	55979.18
615.18	56341.67
615.38	55872.68
615.57	56093.86
615.77	56376.48
615.97	56186.02
616.16	56073.38
616.36	56013.99
616.56	56579.23
616.75	56026.28
616.95	55862.44
617.15	56097.96
617.34	56009.90
617.54	55860.40
617.74	56212.65
617.93	55852.20
618.13	55588.02
618.32	56028.33
618.52	55743.66
618.72	55764.14
618.91	55774.38
619.11	55590.06
619.31	56140.97
619.50	55268.53
619.70	55698.61
619.90	55461.04
620.09	55897.26
620.29	55473.33
620.48	55735.47
620.68	55966.89
620.88	55594.16
621.07	55794.86
621.27	55932.07
621.46	55235.77
621.66	55647.41
621.86	55438.51
622.05	55229.62
622.25	55823.53
622.44	55792.81
622.64	55248.05
622.84	55145.65
623.03	54969.53
623.23	55481.52
623.42	55293.11
623.62	55600.30
623.82	55844.01
624.01	55446.71
624.21	55473.33
624.40	55530.67
624.60	54981.82
624.80	54928.57
624.99	55178.42
625.19	54525.12
625.38	55436.47
625.58	55424.18
625.77	55250.10
625.97	55397.55
626.17	54803.64
626.36	55137.46
626.56	55037.11
626.75	54807.74
626.95	55231.67
627.14	54668.48
627.34	54719.68
627.54	55057.59
627.73	55354.55
627.93	55198.90
628.12	55096.50
628.32	55317.68
628.51	54785.21
628.71	54518.98
628.90	54822.08
629.10	54621.37
629.30	54990.01
629.49	54817.98
629.69	55026.87
629.88	54875.32
630.08	55026.87
630.27	54875.32
630.47	55043.26
630.66	54844.60
630.86	55325.88
631.05	54195.40
631.25	55121.08
631.44	55045.30
631.64	54838.46
631.84	54535.36
632.03	54867.13
632.23	54645.95
632.42	54633.66
632.62	54516.93
632.81	54394.05
633.01	54463.68
633.20	54613.18
633.40	54957.24
633.59	54582.46
633.79	54275.27
633.98	54154.44
634.18	54932.67
634.37	54740.16
634.57	54555.84
634.76	55047.35
634.96	54355.14
635.15	54639.81
635.35	54764.73
635.54	54279.36
635.74	54940.86
635.93	54269.12
636.13	54580.42
636.32	54299.84
636.52	54105.29
636.71	54576.32
636.91	54510.78
637.10	54416.58
637.30	54707.39
637.49	54416.58
637.69	54250.69
637.88	55200.95
638.08	54277.32
638.27	54279.36
638.46	54576.32
638.66	54629.57
638.85	54656.19
639.05	54912.19
639.24	54895.80
639.44	54330.56
639.63	54625.47
639.83	54682.81
640.02	54568.13
640.22	54381.76
640.41	54688.96
640.61	54140.10
640.80	54893.75
640.99	54121.67
641.19	55375.03
641.38	54529.22
641.58	54662.33
641.77	54392.00
641.97	54414.53
642.16	54449.35
642.36	54807.74
642.55	54836.41
642.74	54693.05
642.94	55282.87
643.13	54506.69
643.33	55104.70
643.52	55059.64
643.72	54547.65
643.91	54899.90
644.10	54738.11
644.30	55170.23
644.49	54824.12
644.69	55184.57
644.88	54903.99
645.08	54637.76
645.27	55219.38
645.46	54351.04
645.66	55252.15
645.85	54846.65
646.05	55217.33
646.24	55159.99
646.43	55647.41
646.63	55305.40
646.82	55545.01
647.02	55305.40
647.21	55463.09
647.40	55309.49
647.60	55467.19
647.79	55377.08
647.99	55323.83
648.18	55065.78
648.37	55735.47
648.57	55133.37
648.76	55661.74
648.96	55219.38
649.15	55266.48
649.34	55495.86
649.54	55809.20
649.73	55751.85
649.92	55897.26
650.12	55170.23
650.31	55645.36
650.51	55608.50
650.70	55778.48
650.89	55553.20
651.09	56364.20
651.28	55667.89
651.47	56196.26
651.67	55809.20
651.86	55958.70
652.06	55745.71
652.25	55684.27
652.44	55661.74
652.64	56022.19
652.83	55801.00
653.02	55776.43
653.22	56013.99
653.41	56143.02
653.60	55915.69
653.80	55794.86
653.99	56474.79
654.18	56079.53
654.38	56464.55
654.57	56536.23
654.76	56061.10
654.96	56222.89
655.15	55944.36
655.34	56358.05
655.54	55952.55
655.73	56411.30
655.92	56470.69
656.12	56497.31
656.31	56759.45
656.50	56474.79
656.70	56528.03
656.89	56444.07
657.08	56886.43
657.28	56925.34
657.47	56339.62
657.66	56827.04
657.86	56931.48
658.05	56943.77
658.24	57005.21
658.43	56413.35
658.63	56810.65
658.82	56521.89
659.01	56816.80
659.21	57121.94
659.40	57347.22
659.59	56767.65
659.79	57222.29
659.98	57369.75
660.17	57040.03
660.36	57195.67
660.56	57259.16
660.75	57162.90
660.94	56958.11
661.14	57060.51
661.33	57064.60
661.52	56679.58
661.71	57425.04
661.91	56911.00
662.10	57336.98
662.29	57793.68
662.49	57556.11
662.68	57345.17
662.87	57390.23
663.06	57509.01
663.26	57406.61
663.45	57722.00
663.64	57392.28
663.83	58090.63
664.03	57470.10
664.22	57736.34
664.41	58014.86
664.60	57865.36
664.80	57912.46
664.99	57664.66
665.18	57611.41
665.37	57578.64
665.57	57838.73
665.76	57304.21
665.95	57883.79
666.14	57652.37
666.34	57805.97
666.53	57992.33
666.72	57320.60
666.91	58281.09
667.11	57678.99
667.30	58285.19
667.49	57775.25
667.68	57863.31
667.87	57869.45
668.07	57953.42
668.26	58244.23
668.45	57785.49
668.64	57844.88
668.84	58463.36
669.03	57887.88
669.22	58328.20
669.41	58625.15
669.60	58160.26
669.80	58047.63
669.99	58653.82
670.18	57914.51
670.37	58104.97
670.57	58219.66
670.76	58213.51
670.95	58115.21
671.14	58274.95
671.33	58061.96
671.53	58451.08
671.72	57906.32
671.91	58373.25
672.10	58401.92
672.29	58406.02
672.48	57863.31
672.68	58356.87
672.87	57869.45
673.06	58272.90
673.25	57836.69
673.44	58004.62
673.64	58293.38
673.83	58145.93
674.02	58336.39
674.21	58113.16
674.40	58180.74
674.59	57914.51
674.79	58295.43
674.98	57244.82
675.17	58391.68
675.36	58041.48
675.55	58393.73
675.74	57652.37
675.94	58238.09
676.13	58500.23
676.32	58029.19
676.51	58315.91
676.70	58217.61
676.89	58281.09
677.08	58717.31
677.28	58078.35
677.47	58082.44
677.66	58987.64
677.85	58006.67
678.04	58061.96
678.23	58571.91
678.42	58277.00
678.62	58242.18
678.81	58369.16
679.00	57945.23
679.19	58586.24
679.38	58070.15
679.57	58145.93
679.76	58305.67
679.96	57914.51
680.15	58492.04
680.34	58102.92
680.53	57732.24
680.72	58563.71
680.91	58160.26
681.10	58213.51
681.29	57898.12
681.48	58340.49
681.68	57822.35
681.87	57486.48
682.06	57529.49
682.25	57803.92
682.44	57341.08
682.63	58123.40
682.82	57377.94
683.01	57441.43
683.20	57472.15
683.39	57470.10
683.59	57660.56
683.78	57259.16
683.97	57476.24
684.16	57615.50
684.35	57316.50
684.54	57341.08
684.73	57298.07
684.92	57330.84
685.11	57410.71
685.30	57052.31
685.49	57365.65
685.69	57257.11
685.88	57271.45
686.07	57095.32
686.26	56517.79
686.45	57685.14
686.64	57173.14
686.83	57259.16
687.02	57334.93
687.21	57341.08
687.40	56712.35
687.59	56798.37
687.78	56743.07
687.97	57185.43
688.16	56911.00
688.35	56605.86
688.54	56571.04
688.74	57152.66
688.93	56564.90
689.12	56599.71
689.31	56681.63
689.50	56982.68
689.69	56431.78
689.88	56147.11
690.07	56640.67
690.26	56405.16
690.45	56691.87
690.64	56620.19
690.83	56030.38
691.02	56120.49
691.21	56007.85
691.40	56401.06
691.59	56106.15
691.78	56155.30
691.97	56013.99
692.16	56177.83
692.35	56716.45
692.54	56286.37
692.73	55891.12
692.92	55727.28
693.11	55878.83
693.30	55497.91
693.49	55923.88
693.68	55858.35
693.87	55833.77
694.06	55104.70
694.25	55563.44
694.44	55162.04
694.63	55809.20
694.82	55432.37
695.01	55264.44
695.20	55430.32
695.39	55252.15
695.58	55174.33
695.77	55286.96
695.96	54719.68
696.15	55354.55
696.34	54871.23
696.53	55059.64
696.72	54693.05
696.91	55026.87
697.10	55311.54
697.29	54748.35
697.48	54930.62
697.67	54758.59
697.86	54750.40
698.05	54369.47
698.24	54686.91
698.43	54189.25
698.62	54793.40
698.81	54500.54
699.00	55002.30
699.19	54324.42
699.38	54162.63
699.57	54039.75
699.76	55022.78
699.95	53861.58
700.14	53992.65
700.32	54021.32
700.51	54418.63
700.70	54346.95
700.89	54211.78
701.08	53867.72
701.27	53988.55
701.46	53849.29
701.65	53212.37
701.84	54252.74
702.03	53683.40
702.22	53654.73
702.41	53753.04
702.60	53474.51
702.79	53707.98
702.98	53077.21
703.17	53482.70
703.35	53032.15
703.54	53228.76
703.73	53581.01
703.92	53337.30
704.11	53277.91
704.30	53548.24
704.49	53171.41
704.68	52608.22
704.87	53333.20
705.06	53040.34
705.25	53050.58
705.43	52909.27
705.62	53427.41
705.81	52542.69
706.00	52624.60
706.19	52638.94
706.38	52696.28
706.57	52712.67
706.76	52223.20
706.95	52788.44
707.14	52554.97
707.32	52516.06
707.51	52069.61
707.70	52563.17
707.89	52233.44
708.08	52366.56
708.27	52028.65
708.46	52608.22
708.65	52475.10
708.84	52401.38
709.02	51803.37
709.21	52104.42
709.40	52102.37
709.59	51885.29
709.78	51533.04
709.97	52188.39
710.16	52137.19
710.34	51578.09
710.53	51891.43
710.72	51653.87
710.91	52153.57
711.10	51916.01
711.29	51836.14
711.48	51508.46
711.66	51451.12
711.85	51055.86
712.04	51465.45
712.23	51258.61
712.42	51305.71
712.61	51512.56
712.80	51344.62
712.98	51520.75
713.17	51213.55
713.36	51635.44
713.55	51186.93
713.74	51246.32
713.93	51117.30
714.11	51176.69
714.30	50801.91
714.49	51029.24
714.68	51348.72
714.87	51127.54
715.06	51381.49
715.24	50664.70
715.43	50607.36
715.62	50279.68
715.81	50777.34
716.00	50685.18
716.18	50058.50
716.37	50279.68
716.56	50316.54
716.75	50758.91
716.94	50429.18
717.12	50459.90
717.31	50332.93
717.50	50320.64
717.69	50427.13
717.88	50373.89
718.06	50550.01
718.25	50855.16
718.44	49935.62
718.63	50167.04
718.82	49997.06
719.00	49734.92
719.19	49958.15
719.38	50109.70
719.57	49997.06
719.76	49775.88
719.94	49231.12
720.13	49671.43
720.32	49397.01
720.51	49788.17
720.69	49546.51
720.88	49354.00
721.07	48977.17
721.26	49067.28
721.44	49335.57
721.63	49157.39
721.82	49046.80
722.01	49151.25
722.20	49267.98
722.38	49284.37
722.57	48725.27
722.76	48901.40
722.95	48854.29
723.13	48672.03
723.32	49124.63
723.51	48336.16
723.70	48508.19
723.88	48846.10
724.07	48354.59
724.26	48842.01
724.44	48370.97
724.63	48874.77
724.82	48698.65
725.01	48530.72
725.19	48663.83
725.38	48129.31
725.57	48141.60
725.76	48667.93
725.94	48213.28
726.13	47934.76
726.32	48354.59
726.51	47795.49
726.69	48330.01
726.88	48502.04
727.07	48719.13
727.25	48321.82
727.44	48239.90
727.63	48354.59
727.82	48184.61
728.00	48137.51
728.19	48258.34
728.38	48702.74
728.56	47897.89
728.75	48334.11
728.94	48018.72
729.12	48362.78
729.31	48534.81
729.50	48041.25
729.69	48407.84
729.87	48213.28
730.06	48014.63
730.25	48205.09
730.43	48766.23
730.62	48110.88
730.81	48246.05
730.99	47926.56
731.18	48031.01
731.37	48483.61
731.55	48565.53
731.74	48702.74
731.93	49052.95
732.11	48420.13
732.30	48409.89
732.49	48317.73
732.67	48479.52
732.86	48280.86
733.05	48463.13
733.23	48039.20
733.42	48389.41
733.61	48086.31
733.79	48418.08
733.98	48755.99
734.17	48502.04
734.35	48475.42
734.54	48567.58
734.73	48586.01
734.91	48178.46
735.10	48100.64
735.29	48624.92
735.47	47832.36
735.66	47965.48
735.84	47756.58
736.03	47842.60
736.22	48612.63
736.40	47973.67
736.59	48344.35
736.78	47899.94
736.96	47940.90
737.15	47920.42
737.33	48432.41
737.52	47797.54
737.71	48096.55
737.89	48538.91
738.08	47795.49
738.27	47922.47
738.45	48260.38
738.64	48207.14
738.82	48135.46
739.01	48223.52
739.20	48035.11
739.38	48114.98
739.57	48219.42
739.75	48047.39
739.94	47781.16
740.13	48153.89
740.31	48114.98
740.50	47971.62
740.68	48127.27
740.87	47920.42
741.06	47957.28
741.24	48037.16
741.43	47461.68
741.61	48020.77
741.80	47576.36
741.99	47977.76
742.17	47555.88
742.36	48037.16
742.54	47562.03
742.73	47469.87
742.91	48438.56
743.10	48190.75
743.29	47908.13
743.47	48102.69
743.66	47807.78
743.84	47848.74
744.03	47613.23
744.21	47414.57
744.40	47858.98
744.59	47699.24
744.77	47547.69
744.96	47865.13
745.14	47433.00
745.33	47772.97
745.51	47039.79
745.70	47281.45
745.88	47682.86
746.07	47803.69
746.26	47580.46
746.44	47076.66
746.63	47260.97
746.81	47500.59
747.00	47199.54
747.18	47510.83
747.37	47215.92
747.55	46978.36
747.74	47506.73
747.92	46642.49
748.11	47273.26
748.29	47052.08
748.48	47349.04
748.66	47007.03
748.85	47371.57
749.03	47105.33
749.22	47725.86
749.41	46935.35
749.59	47660.33
749.78	46740.79
749.96	46712.12
750.15	47168.82
750.33	47027.51
750.52	47070.51
750.70	46943.54
750.89	47002.93
751.07	46791.99
751.26	46783.80
751.44	46626.10
751.63	46869.81
751.81	46400.83
752.00	46564.67
752.18	46935.35
752.37	46998.83
752.55	46503.23
752.74	46511.42
752.92	46462.27
753.10	46368.06
753.29	46591.29
753.47	45911.36
753.66	45987.14
753.84	46409.02
754.03	46189.89
754.21	45964.61
754.40	46843.19
754.58	46368.06
754.77	46775.61
754.95	46421.31
755.14	46140.74
755.32	46427.45
755.51	46101.82
755.69	46196.03
755.88	46169.41
756.06	46167.36
756.24	46306.62
756.43	45309.26
756.61	46263.61
756.80	45692.23
756.98	45923.65
757.17	45790.53
757.35	45524.30
757.54	45503.82
757.72	46376.25
757.90	45913.41
758.09	45487.43
758.27	45860.16
758.46	45272.40
758.64	45688.13
758.83	45819.20
759.01	45466.95
759.19	45573.45
759.38	45176.14
759.56	45604.17
759.75	45253.97
759.93	45368.65
760.12	45012.31
760.30	45446.47
760.48	45043.02
760.67	45589.83
760.85	45368.65
761.04	45116.75
761.22	45063.50
761.40	45296.97
761.59	44993.87
761.77	44950.87
761.96	45034.83
762.14	44946.77
762.32	44686.68
762.51	44770.64
762.69	44827.99
762.88	44838.23
763.06	44627.29
763.24	45040.98
763.43	44895.57
763.61	44590.42
763.80	44582.23
763.98	44385.63
764.16	44455.26
764.35	44250.46
764.53	44203.36
764.72	44021.09
764.90	44086.62
765.08	44326.24
765.27	43898.21
765.45	43890.02
765.63	43656.55
765.82	44272.99
766.00	43537.77
766.18	43674.98
766.37	44057.95
766.55	43507.05
766.74	43666.79
766.92	43324.78
767.10	43822.44
767.29	43650.41
767.47	42904.95
767.65	43693.41
767.84	43410.79
768.02	43275.63
768.20	43021.68
768.39	43230.57
768.57	43154.80
768.75	43433.32
768.94	43150.70
769.12	43273.58
769.30	43066.73
769.49	42984.82
769.67	43027.82
769.85	42671.48
770.04	43150.70
770.22	42585.46
770.40	42595.70
770.59	42163.58
770.77	42800.50
770.95	42366.33
771.14	42698.10
771.32	42190.20
771.50	42343.80
771.69	42091.90
771.87	42507.64
772.05	42325.37
772.24	41803.14
772.42	42249.60
772.60	41977.22
772.78	42087.81
772.97	41948.54
773.15	42032.51
773.33	41928.06
773.52	41858.43
773.70	41624.96
773.88	41745.80
774.07	41506.18
774.25	41571.72
774.43	41876.86
774.61	41762.18
774.80	41698.69
774.98	41735.56
775.16	41749.89
775.34	41784.71
775.53	41559.43
775.71	41948.54
775.89	41796.99
776.08	41311.63
776.26	42106.24
776.44	41624.96
776.62	41655.68
776.81	41465.22
776.99	41940.35
777.17	41639.30
777.35	41356.68
777.54	42206.59
777.72	41600.39
777.90	41596.29
778.08	41876.86
778.27	41600.39
778.45	42132.86
778.63	41977.22
778.81	41252.23
779.00	41952.64
779.18	41670.02
779.36	41989.50
779.54	42073.47
779.73	41786.75
779.91	42268.03
780.09	42028.41
780.27	42268.03
780.46	42362.23
780.64	42513.78
780.82	41895.30
781.00	41964.93
781.19	42554.74
781.37	42712.44
781.55	42360.19
781.73	42313.08
781.91	42184.06
782.10	42399.10
782.28	42173.82
782.46	42292.60
782.64	43029.87
782.82	41856.39
783.01	42151.29
783.19	42225.02
783.37	42368.38
783.55	41934.21
783.74	42687.86
783.92	42192.25
784.10	42472.82
784.28	42044.80
784.46	42108.29
784.64	41731.46
784.83	42290.55
785.01	42075.52
785.19	41534.85
785.37	42141.05
785.55	42038.65
785.74	41788.80
785.92	41514.37
786.10	42061.18
786.28	41715.08
786.46	41661.83
786.64	41506.18
786.83	41696.64
787.01	41823.62
787.19	41491.85
787.37	41667.97
787.55	41510.28
787.74	41541.00
787.92	41596.29
788.10	40818.07
788.28	40945.04
788.46	41065.87
788.64	40891.79
788.82	41330.06
789.01	40758.67
789.19	41229.71
789.37	40410.52
789.55	40635.80
789.73	40437.14
789.91	40490.39
790.09	40383.90
790.28	40228.25
790.46	40330.65
790.64	40111.52
790.82	40383.90
791.00	40103.32
791.18	40113.56
791.36	40078.75
791.55	40158.62
791.73	39792.03
791.91	39802.27
792.09	39957.92
792.27	39904.67
792.45	39667.11
792.63	39507.37
792.81	39458.21
793.00	39409.06
793.18	39679.39
793.36	39333.29
793.54	39593.38
793.72	38915.50
793.90	39118.25
794.08	38645.17
794.26	39593.38
794.44	38325.69
794.62	38573.49
794.81	38598.07
794.99	38522.29
795.17	38245.82
795.35	38413.75
795.53	38507.96
795.71	38356.41
795.89	38376.89
796.07	37922.24
796.25	37926.33
796.43	37905.85
796.61	37680.58
796.80	37893.57
796.98	37705.15
797.16	37414.34
797.34	37311.94
797.52	37148.11
797.70	37948.86
797.88	37109.19
798.06	36937.16
798.24	36822.48
798.42	36656.59
798.60	37064.14
798.78	36685.26
798.96	36677.07
799.14	36885.97
799.32	36459.99
799.51	36357.59
799.69	36378.07
799.87	36484.56
800.05	36044.25
800.23	35964.38
800.41	36091.35
800.59	35937.76
800.77	35782.11
800.95	35474.91
801.13	35423.72
801.31	35472.87
801.49	35489.25
801.67	35065.32
801.85	35266.02
802.03	35137.00
802.21	35284.45
802.39	34545.14
802.57	34594.29
802.75	34794.99
802.93	34868.72
803.11	34688.49
803.29	34559.47
803.47	34561.52
803.65	34598.38
803.83	34768.37
804.01	34708.97
804.19	34278.90
804.37	34096.63
804.55	34088.44
804.73	34137.59
804.91	33953.27
805.09	34190.84
805.27	33760.76
805.45	34055.67
805.63	34225.65
805.81	33230.34
805.99	33842.68
806.17	33400.32
806.35	33570.30
806.53	33158.66
806.71	33332.74
806.89	33291.78
807.07	33175.05
807.25	33125.89
807.43	32957.96
807.61	33371.65
807.79	32998.92
807.97	32914.95
808.15	32658.96
808.33	32587.28
808.51	32587.28
808.69	32519.70
808.87	32380.43
809.05	32249.36
809.23	32310.80
809.41	31979.03
809.59	32282.13
809.77	32517.65
809.95	31979.03
810.13	32146.97
810.31	32073.24
810.49	31962.65
810.67	31850.01
810.84	31915.54
811.02	31927.83
811.20	31600.16
811.38	31813.15
811.56	31424.03
811.74	31338.02
811.92	31694.36
812.10	31655.45
812.28	31809.05
812.46	31176.23
812.64	31153.70
812.82	31286.82
813.00	31094.31
813.18	31456.80
813.36	31278.63
813.53	30707.24
813.71	30864.94
813.89	30684.72
814.07	30830.12
814.25	30541.36
814.43	30701.10
814.61	30668.33
814.79	30805.55
814.97	30254.64
815.15	30567.98
815.33	30287.41
815.50	30314.03
815.68	30080.56
815.86	30598.70
816.04	30051.89
816.22	30361.14
816.40	30375.47
816.58	30154.29
816.76	30322.23
816.94	29771.32
817.11	30051.89
817.29	30041.65
817.47	29609.53
817.65	29781.56
817.83	29836.86
818.01	29308.48
818.19	29492.80
818.37	29578.81
818.54	29466.17
818.72	29296.19
818.90	29498.94
819.08	29013.57
819.26	29118.02
819.44	29150.79
819.62	29314.62
819.80	29464.13
819.97	29220.42
820.15	28909.13
820.33	28886.60
820.51	29306.43
820.69	28489.29
820.87	28915.27
821.05	29281.86
821.22	28720.71
821.40	29163.08
821.58	28761.67
821.76	28665.42
821.94	28679.75
822.12	28663.37
822.29	28909.13
822.47	28634.70
822.65	28919.37
822.83	28595.79
823.01	28382.80
823.19	28296.78
823.36	27956.82
823.54	28434.00
823.72	28300.88
823.90	28182.10
824.08	27854.42
824.25	27962.97
824.43	27868.76
824.61	27911.77
824.79	28153.43
824.97	28227.15
825.15	28036.69
825.32	28005.97
825.50	27774.55
825.68	27879.00
825.86	27889.24
826.04	27903.57
826.21	27983.44
826.39	27629.15
826.57	27528.80
826.75	27620.95
826.93	27057.76
827.10	27549.28
827.28	27450.97
827.46	27651.67
827.64	27330.14
827.81	27457.12
827.99	27719.26
828.17	27098.72
828.35	27151.97
828.53	27479.64
828.70	27117.15
828.88	27328.10
829.06	27270.75
829.24	27348.57
829.41	26865.25
829.59	27301.47
829.77	27002.47
829.95	26904.17
830.12	27022.95
830.30	27047.52
830.48	26754.66
830.66	26898.02
830.84	26967.65
831.01	26793.58
831.19	26975.84
831.37	26732.14
831.55	26625.64
831.72	26867.30
831.90	26394.22
832.08	26789.48
832.25	26633.83
832.43	27113.06
832.61	26498.67
832.79	26654.31
832.96	26715.75
833.14	26787.43
833.32	26814.05
833.50	26697.32
833.67	26474.09
833.85	26695.27
834.03	26435.18
834.20	26699.37
834.38	26316.40
834.56	26400.37
834.74	26097.27
834.91	26123.89
835.09	26177.14
835.27	25919.09
835.44	26074.74
835.62	25822.84
835.80	26107.51
835.98	26064.50
836.15	26205.81
836.33	26107.51
836.51	26017.40
836.68	25835.13
836.86	25710.20
837.04	25849.46
837.21	25847.41
837.39	26035.83
837.57	25704.06
837.75	25894.52
837.92	25357.95
838.10	25589.37
838.28	25396.86
838.45	25679.48
838.63	25192.06
838.81	25577.08
838.98	25190.02
839.16	25497.21
839.34	25454.20
839.51	25556.60
839.69	25403.00
839.87	25210.50
840.04	25470.59
840.22	25599.61
840.40	25382.52
840.57	25196.16
840.75	25343.61
840.93	24825.48
841.10	25443.96
841.28	25466.49
841.46	25419.39
841.63	25419.39
841.81	25167.49
841.98	25282.17
842.16	25181.82
842.34	25052.80
842.51	25134.72
842.69	25228.93
842.87	24792.71
843.04	24936.07
843.22	24903.30
843.40	25134.72
843.57	24866.44
843.75	25253.50
843.92	24620.68
844.10	25108.10
844.28	24692.36
844.45	24592.01
844.63	24794.76
844.81	24815.24
844.98	24569.48
845.16	24854.15
845.33	24581.77
845.51	24682.12
845.69	24123.02
845.86	24473.23
846.04	24303.25
846.21	24381.07
846.39	24452.75
846.57	24213.13
846.74	24473.23
846.92	24123.02
847.09	24217.23
847.27	23930.51
847.45	24250.00
847.62	24356.49
847.80	24229.52
847.97	24075.92
848.15	24006.29
848.32	24254.09
848.50	24186.51
848.68	23961.23
848.85	24245.90
849.03	24016.53
849.20	23848.60
849.38	23983.76
849.56	24043.15
849.73	23918.23
849.91	23926.42
850.08	24065.68
850.26	23455.39
850.43	23670.42
850.61	23555.74
850.78	23406.23
850.96	23766.68
851.14	23455.39
851.31	23828.12
851.49	23592.60
851.66	23740.05
851.84	23715.48
852.01	23682.71
852.19	23598.74
852.36	23522.97
852.54	23586.46
852.71	23477.91
852.89	23400.09
853.07	23430.81
853.24	23535.26
853.42	23260.83
853.59	23453.34
853.77	23488.15
853.94	23393.95
854.12	23293.60
854.29	22685.35
854.47	23414.43
854.64	23180.96
854.82	23293.60
854.99	23240.35
855.17	23209.63
855.34	23252.64
855.52	23049.89
855.69	23285.40
855.87	22916.77
856.04	22822.56
856.22	23133.86
856.39	22722.21
856.57	23084.70
856.74	22744.74
856.92	22761.12
857.09	22603.43
857.27	22931.11
857.44	22967.97
857.62	22855.33
857.79	22771.36
857.97	22689.45
858.14	22838.95
858.32	22523.56
858.49	22861.48
858.67	22771.36
858.84	22425.26
859.02	22595.24
859.19	22460.07
859.37	22202.03
859.54	22312.62
859.72	22556.33
859.89	22425.26
860.06	22398.63
860.24	22314.67
860.41	22365.87
860.59	21999.28
860.76	22359.72
860.94	22253.23
861.11	22269.61
861.29	22202.03
861.46	22431.40
861.64	21982.90
861.81	22042.29
861.98	22017.71
862.16	21892.79
862.33	21970.61
862.51	21933.75
862.68	22073.01
862.86	21696.18
863.03	21702.32
863.21	21765.81
863.38	21624.50
863.55	21737.14
863.73	21722.80
863.90	21884.59
864.08	21679.80
864.25	21704.37
864.43	21630.65
864.60	21655.22
864.77	21311.16
864.95	21771.96
865.12	21622.45
865.30	21317.31
865.47	21407.42
865.64	21575.35
865.82	21638.84
865.99	21462.71
866.17	21364.41
866.34	21401.27
866.51	21274.30
866.69	21268.16
866.86	21477.05
867.04	21243.58
867.21	21466.81
867.38	21204.67
867.56	21171.90
867.73	20854.47
867.91	20987.58
868.08	21040.83
868.25	21042.88
868.43	21079.74
868.60	20700.87
868.78	20739.78
868.95	21165.76
869.12	20530.89
869.30	20739.78
869.47	21094.08
869.64	20571.85
869.82	20539.08
869.99	20371.15
870.16	20639.43
870.34	20377.29
870.51	21010.11
870.69	20418.25
870.86	20238.03
871.03	20453.06
871.21	20164.30
871.38	20477.64
871.55	20207.31
871.73	20121.29
871.90	20250.32
872.07	20055.76
872.25	19715.80
872.42	20109.01
872.59	19998.41
872.77	19936.98
872.94	20147.92
873.11	19928.78
873.29	19832.53
873.46	19844.82
873.63	19560.15
873.81	19607.25
873.98	19472.09
874.15	19459.80
874.33	19369.69
874.50	19670.74
874.67	19388.12
874.85	19326.68
875.02	19449.56
875.19	19498.71
875.37	19132.12
875.54	19472.09
875.71	19476.18
875.88	19230.43
876.06	19222.23
876.23	19156.70
876.40	19017.44
876.58	19265.24
876.75	18859.74
876.92	18808.54
877.10	19046.11
877.27	18824.93
877.44	18820.83
877.61	18781.92
877.79	18507.49
877.96	18683.62
878.13	18904.80
878.31	18775.78
878.48	18685.67
878.65	18339.56
878.82	18530.02
879.00	18673.38
879.17	18372.33
879.34	18407.14
879.51	18257.64
879.69	18306.79
879.86	18149.10
880.03	18245.35
880.21	18454.25
880.38	18022.12
880.55	18231.02
880.72	18177.77
880.90	18108.14
881.07	17993.45
881.24	18079.47
881.41	17952.49
881.59	17878.77
881.76	17809.14
881.93	17784.56
882.10	17663.73
882.28	17641.20
882.45	17755.89
882.62	17733.36
882.79	17714.93
882.96	17440.50
883.14	17714.93
883.31	17665.78
883.48	17448.69
883.65	17739.51
883.83	17723.12
884.00	17792.75
884.17	17729.27
884.34	17606.39
884.51	17743.60
884.69	17499.89
884.86	17467.13
885.03	17456.89
885.20	17188.60
885.38	17293.05
885.55	17649.39
885.72	17530.61
885.89	17186.55
886.06	17075.96
886.24	17446.65
886.41	17305.34
886.58	17374.97
886.75	17198.84
886.92	16908.03
887.10	17262.33
887.27	17037.05
887.44	17002.24
887.61	17159.93
887.78	17125.11
887.95	16852.73
888.13	16715.52
888.30	17045.24
888.47	16781.06
888.64	17024.76
888.81	16987.90
888.99	16547.59
889.16	16463.62
889.33	16656.13
889.50	16717.57
889.67	16625.41
889.84	16541.44
890.01	16557.83
890.19	16437.00
890.36	16594.69
890.53	16285.45
890.70	16066.31
890.87	16422.66
891.04	16275.21
891.22	16414.47
891.39	16178.95
891.56	16013.07
891.73	16228.10
891.90	16176.91
892.07	16258.82
892.24	16197.38
892.42	15949.58
892.59	16287.50
892.76	15918.86
892.93	16064.27
893.10	16207.62
893.27	15894.29
893.44	15810.32
893.61	15865.61
893.79	16047.88
893.96	15836.94
894.13	15746.83
894.30	15836.94
894.47	15808.27
894.64	15990.54
894.81	15660.82
894.98	15568.66
895.15	15929.10
895.33	15955.72
895.50	15863.57
895.67	15841.04
895.84	15632.15
896.01	15828.75
896.18	15615.76
896.35	15906.57
896.52	15814.41
896.69	15650.58
896.86	15746.83
897.04	15628.05
897.21	15566.61
897.38	15759.12
897.55	15558.42
897.72	15464.21
897.89	15437.59
898.06	15800.08
898.23	15367.96
898.40	15367.96
898.57	15390.49
898.74	15478.55
898.91	15611.67
899.08	15570.71
899.26	15423.25
899.43	15560.47
899.60	15365.91
899.77	15539.99
899.94	15204.12
900.11	15327.00
900.28	15372.05
900.45	15257.37
900.62	15240.98
900.79	15609.62
900.96	15292.18
901.13	15197.98
901.30	15294.23
901.47	14991.13
901.64	15634.19
901.81	15290.13
901.98	15445.78
902.15	15402.77
902.32	15355.67
902.49	15294.23
902.66	15413.01
902.83	15253.27
903.01	15396.63
903.18	15351.57
903.35	15263.51
903.52	15091.48
903.69	15245.08
903.86	15415.06
904.03	14968.60
904.20	15353.62
904.37	15486.74
904.54	15310.61
904.71	15255.32
904.88	15290.13
905.05	15197.98
905.22	15386.39
905.39	15142.68
905.56	15308.57
905.73	15132.44
905.90	15212.31
906.07	15212.31
906.24	15197.98
906.41	15071.00
906.58	15071.00
906.75	15290.13
906.92	14874.40
907.09	14823.20
907.26	15126.30
907.43	14960.41
907.60	15064.86
907.77	15202.07
907.93	15126.30
908.10	15011.61
908.27	14972.70
908.44	14839.58
908.61	14917.40
908.78	15130.39
908.95	14997.28
909.12	15081.24
909.29	14923.55
909.46	14976.80
909.63	14964.51
909.80	14995.23
909.97	14939.93
910.14	14913.31
910.31	14886.68
910.48	14786.33
910.65	15001.37
910.82	14769.95
910.99	14903.07
911.16	14958.36
911.33	14667.55
911.50	14720.80
911.66	14749.47
911.83	14677.79
912.00	14513.95
912.17	14616.35
912.34	14505.76
912.51	14602.02
912.68	14735.14
912.85	14257.96
913.02	14636.83
913.19	14495.52
913.36	14542.63
913.53	14393.12
913.70	14378.79
913.86	14440.23
914.03	14393.12
914.20	14282.53
914.37	14251.81
914.54	14307.11
914.71	14298.92
914.88	14276.39
915.05	14272.29
915.22	14104.36
915.39	14165.80
915.55	14040.87
915.72	13795.12
915.89	13979.43
916.06	13838.12
916.23	13625.14
916.40	13809.45
916.57	13926.19
916.74	13791.02
916.91	14006.06
917.07	13766.45
917.24	13881.13
917.41	13879.08
917.58	13809.45
917.75	13606.70
917.92	13502.26
918.09	13623.09
918.26	13420.34
918.42	13481.78
918.59	13475.63
918.76	13580.08
918.93	13309.75
919.10	13289.27
919.27	13227.83
919.44	13313.84
919.60	13492.02
919.77	13203.25
919.94	13135.67
920.11	13031.23
920.28	13184.82
920.45	12939.07
920.61	12904.25
920.78	13152.06
920.95	13014.84
921.12	12871.48
921.29	12681.02
921.46	12779.32
921.62	12668.73
921.79	12633.92
921.96	12564.29
922.13	12552.00
922.30	12619.58
922.47	12488.51
922.63	12513.09
922.80	12623.68
922.97	12148.55
923.14	12078.92
923.31	12355.40
923.47	12240.71
923.64	12562.24
923.81	12054.34
923.98	12308.29
924.15	11972.43
924.32	12310.34
924.48	12050.25
924.65	12126.02
924.82	11679.57
924.99	11734.86
925.15	11810.64
925.32	11902.79
925.49	11427.67
925.66	11466.58
925.83	11609.93
925.99	11353.94
926.16	11532.11
926.33	11663.18
926.50	11401.04
926.67	11530.06
926.83	11460.43
927.00	11374.42
927.17	11272.02
927.34	11126.61
927.50	11188.05
927.67	11265.88
927.84	11175.77
928.01	11044.70
928.17	10973.02
928.34	10968.92
928.51	10887.00
928.68	10694.49
928.84	10784.60
929.01	10719.07
929.18	10571.61
929.35	10549.09
929.51	10608.48
929.68	10583.90
929.85	10471.26
930.02	10467.17
930.18	10444.64
930.35	10332.00
930.52	10293.09
930.69	10219.36
930.85	10311.52
931.02	10239.84
931.19	10250.08
931.36	10323.81
931.52	10035.05
931.69	10213.22
931.86	9987.94
932.02	9965.42
932.19	9940.84
932.36	9926.50
932.53	9992.04
932.69	9705.32
932.86	9981.80
933.03	9895.78
933.19	9635.69
933.36	9740.14
933.53	9719.66
933.70	9535.34
933.86	9662.32
934.03	9318.26
934.20	9342.83
934.36	9398.13
934.53	9262.96
934.70	9056.12
934.86	9043.83
935.03	8941.43
935.20	9107.32
935.36	8970.10
935.53	8828.79
935.70	8879.99
935.86	8494.97
936.03	8587.13
936.20	8630.14
936.36	8423.30
936.53	8431.49
936.70	8443.78
936.86	8380.29
937.03	8355.71
937.20	8021.89
937.36	8112.00
937.53	7923.59
937.70	7831.43
937.86	7759.75
938.03	7802.76
938.20	7966.60
938.36	7597.96
938.53	7497.61
938.70	7264.15
938.86	7344.02
939.03	7350.16
939.20	7208.85
939.36	7155.60
939.53	7188.37
939.70	7182.23
939.86	6870.94
940.03	6805.40
940.19	6813.59
940.36	6664.09
940.53	6815.64
940.69	6533.02
940.86	6557.60
941.03	6467.49
941.19	6123.43
941.36	6365.09
941.52	6315.94
941.69	6270.88
941.86	6084.52
942.02	6082.47
942.19	5949.35
942.35	6037.41
942.52	5920.68
942.69	5789.61
942.85	5922.73
943.02	5744.55
943.18	5758.89
943.35	5863.33
943.52	5656.49
943.68	5621.67
943.85	5668.78
944.01	5566.38
944.18	5525.42
944.35	5576.62
944.51	5451.69
944.68	5498.80
944.84	5416.88
945.01	5357.49
945.17	5246.90
945.34	5357.49
945.51	5412.78
945.67	5463.98
945.84	5365.68
946.00	5269.42
946.17	5382.06
946.33	5160.88
946.50	5177.26
946.67	5359.53
946.83	5185.46
947.00	5377.97
947.16	5257.14
947.33	5175.22
947.49	5228.46
947.66	5296.05
947.82	5236.66
947.99	5136.31
948.16	5275.57
948.32	5207.98
948.49	5316.53
948.65	5230.51
948.82	5236.66
948.98	5164.98
949.15	5146.55
949.31	5238.70
949.48	5210.03
949.64	5273.52
949.81	5330.86
949.97	5093.30
950.14	5302.19
950.30	5169.07
950.47	5259.18
950.63	5162.93
950.80	5230.51
950.96	5210.03
951.13	5328.81
951.30	5326.77
951.46	5232.56
951.63	5398.45
951.79	5267.38
951.96	5431.21
952.12	5400.49
952.29	5459.88
952.45	5351.34
952.62	5402.54
952.78	5439.40
952.94	5363.63
953.11	5386.16
953.27	5244.85
953.44	5380.01
953.60	5373.87
953.77	5363.63
953.93	5398.45
954.10	5291.95
954.26	5300.14
954.43	5359.53
954.59	5527.47
954.76	5459.88
954.92	5343.15
955.09	5449.64
955.25	5380.01
955.42	5521.32
955.58	5380.01
955.75	5543.85
955.91	5418.93
956.07	5420.97
956.24	5476.27
956.40	5365.68
956.57	5519.28
956.73	5459.88
956.90	5439.40
957.06	5361.58
957.23	5482.41
957.39	5386.16
957.56	5545.90
957.72	5574.57
957.88	5375.92
958.05	5509.04
958.21	5658.54
958.38	5531.56
958.54	5357.49
958.71	5445.55
958.87	5420.97
959.03	5435.31
959.20	5570.48
959.36	5427.12
959.53	5658.54
959.69	5371.82
959.85	5527.47
960.02	5439.40
960.18	5384.11
960.35	5457.84
960.51	5420.97
960.68	5449.64
960.84	5496.75
961.00	5367.73
961.17	5537.71
961.33	5500.84
961.50	5482.41
961.66	5515.18
961.82	5330.86
961.99	5425.07
962.15	5478.32
962.31	5449.64
962.48	5382.06
962.64	5406.64
962.81	5349.29
962.97	5334.96
963.13	5279.66
963.30	5339.05
963.46	5363.63
963.62	5283.76
963.79	5353.39
963.95	5373.87
964.12	5439.40
964.28	5388.21
964.44	5334.96
964.61	5341.10
964.77	5388.21
964.93	5431.21
965.10	5377.97
965.26	5312.43
965.42	5312.43
965.59	5248.94
965.75	5314.48
965.92	5361.58
966.08	5279.66
966.24	5250.99
966.41	5349.29
966.57	5099.44
966.73	5291.95
966.90	5445.55
967.06	5367.73
967.22	5320.62
967.39	5160.88
967.55	5187.50
967.71	5226.42
967.88	5201.84
968.04	5189.55
968.20	5259.18
968.37	5164.98
968.53	5046.20
968.69	5244.85
968.85	5128.11
969.02	5300.14
969.18	5160.88
969.34	5185.46
969.51	5136.31
969.67	5304.24
969.83	5144.50
970.00	5203.89
970.16	5146.55
970.32	5113.78
970.48	5228.46
970.65	4956.08
970.81	5111.73
970.97	5101.49
971.14	4949.94
971.30	5164.98
971.46	5033.91
971.63	5040.05
971.79	5191.60
971.95	4966.32
972.11	4929.46
972.28	5003.19
972.44	4927.41
972.60	4960.18
972.76	5142.45
972.93	4863.93
973.09	4911.03
973.25	5064.63
973.42	4853.69
973.58	4980.66
973.74	4992.95
973.90	4906.93
974.07	4997.04
974.23	4835.25
974.39	4896.69
974.55	4886.45
974.72	4853.69
974.88	4784.06
975.04	4990.90
975.20	4818.87
975.37	4876.21
975.53	4929.46
975.69	4919.22
975.85	4741.05
976.01	4755.38
976.18	4753.34
976.34	4876.21
976.50	4843.45
976.66	4796.34
976.83	4792.25
976.99	4736.95
977.15	4808.63
977.31	4519.87
977.47	4802.49
977.64	4595.64
977.80	4689.85
977.96	4767.67
978.12	4747.19
978.29	4571.07
978.45	4640.70
978.61	4546.49
978.77	4669.37
978.93	4560.83
979.10	4579.26
979.26	4587.45
979.42	4468.67
979.58	4480.96
979.74	4478.91
979.91	4446.14
980.07	4546.49
980.23	4519.87
980.39	4509.63
980.55	4521.92
980.71	4452.28
980.88	4487.10
981.04	4528.06
981.20	4493.24
981.36	4599.74
981.52	4472.76
981.68	4444.09
981.85	4337.60
982.01	4501.44
982.17	4300.73
982.33	4331.45
982.49	4519.87
982.65	4417.47
982.82	4384.70
982.98	4411.32
983.14	4304.83
983.30	4315.07
983.46	4396.99
983.62	4315.07
983.79	4261.82
983.95	4382.65
984.11	4216.77
984.27	4208.58
984.43	4345.79
984.59	4247.49
984.75	4310.97
984.91	4278.21
985.08	4306.88
985.24	4175.81
985.40	4169.66
985.56	4120.51
985.72	4419.52
985.88	4181.95
986.04	4067.27
986.20	4104.13
986.37	4132.80
986.53	4057.03
986.69	4151.23
986.85	4065.22
987.01	4075.46
987.17	4050.88
987.33	4079.55
987.49	4104.13
987.65	4026.31
987.82	4067.27
987.98	4048.83
988.14	4147.14
988.30	4106.18
988.46	4061.12
988.62	4052.93
988.78	4016.07
988.94	3887.04
989.10	4005.83
989.26	3780.55
989.42	3747.78
989.59	3862.47
989.75	3829.70
989.91	3940.29
990.07	3841.99
990.23	3878.85
990.39	3841.99
990.55	3839.94
990.71	3760.07
990.87	3774.41
991.03	3928.00
991.19	3803.08
991.35	3788.74
991.51	3772.36
991.67	3835.85
991.83	3864.52
992.00	3712.97
992.16	3815.37
992.32	3790.79
992.48	3907.52
992.64	3612.62
992.80	3874.76
992.96	3741.64
993.12	3784.65
993.28	3706.82
993.44	3645.38
993.60	3758.02
993.76	3782.60
993.92	3708.87
994.08	3649.48
994.24	3626.95
994.40	3680.20
994.56	3735.50
994.72	3674.06
994.88	3661.77
995.04	3542.99
995.20	3622.86
995.36	3493.83
995.52	3604.42
995.68	3585.99
995.84	3493.83
996.00	3657.67
996.16	3569.61
996.32	3506.12
996.48	3514.31
996.64	3592.14
996.80	3489.74
996.96	3506.12
997.12	3532.75
997.28	3547.08
997.44	3463.12
997.60	3573.71
997.76	3418.06
997.92	3514.31
998.08	3405.77
998.24	3278.80
998.40	3465.16
998.56	3475.40
998.72	3344.33
998.88	3395.53
999.04	3248.08
999.20	3514.31
999.36	3254.22
999.52	3385.29
999.68	3366.86
999.84	3385.29
1000.00	3321.81
1000.16	3336.14
1000.32	3338.19
1000.48	3477.45
1000.64	3284.94
1000.80	3350.48
1000.95	3141.58
1001.11	3309.52
1001.27	3262.41
1001.43	3340.24
1001.59	3229.65
1001.75	3254.22
1001.91	3330.00
1002.07	3182.54
1002.23	3157.97
1002.39	3153.87
1002.55	3198.93
1002.71	3219.41
1002.87	3186.64
1003.03	3162.06
1003.19	3141.58
1003.34	3223.50
1003.50	3147.73
1003.66	3205.07
1003.82	3227.60
1003.98	3014.61
1004.14	3067.86
1004.30	3092.43
1004.46	3102.67
1004.62	3041.23
1004.78	3162.06
1004.94	3016.66
1005.09	3110.86
1005.25	3125.20
1005.41	3074.00
1005.57	3037.14
1005.73	3010.51
1005.89	2981.84
1006.05	3080.14
1006.21	3026.90
1006.37	3043.28
1006.52	2850.77
1006.68	2873.30
1006.84	3049.43
1007.00	2961.36
1007.16	3035.09
1007.32	2934.74
1007.48	2838.48
1007.64	2844.63
1007.79	2914.26
1007.95	2856.92
1008.11	3080.14
1008.27	2891.73
1008.43	3016.66
1008.59	2891.73
1008.75	2955.22
1008.91	2785.24
1009.06	2867.16
1009.22	2867.16
1009.38	2893.78
1009.54	2973.65
1009.70	2762.71
1009.86	2901.97
1010.01	2770.90
1010.17	2715.61
1010.33	2764.76
1010.49	2861.01
1010.65	2912.21
1010.81	2656.22
1010.96	2762.71
1011.12	2658.26
1011.28	2738.13
1011.44	2891.73
1011.60	2807.77
1011.76	2650.07
1011.91	2736.09
1012.07	2713.56
1012.23	2680.79
1012.39	2598.87
1012.55	2811.86
1012.71	2678.74
1012.86	2666.46
1013.02	2678.74
1013.18	2625.50
1013.34	2688.98
1013.50	2727.89
1013.65	2688.98
1013.81	2695.13
1013.97	2645.98
1014.13	2676.70
1014.29	2584.54
1014.44	2600.92
1014.60	2519.00
1014.76	2600.92
1014.92	2629.59
1015.07	2621.40
1015.23	2686.94
1015.39	2590.68
1015.55	2551.77
1015.71	2596.82
1015.86	2541.53
1016.02	2549.72
1016.18	2510.81
1016.34	2506.71
1016.49	2641.88
1016.65	2611.16
1016.81	2551.77
1016.97	2531.29
1017.12	2564.06
1017.28	2488.28
1017.44	2471.90
1017.60	2480.09
1017.75	2566.10
1017.91	2473.95
1018.07	2461.66
1018.23	2420.70
1018.38	2318.30
1018.54	2523.10
1018.70	2367.45
1018.86	2418.65
1019.01	2371.55
1019.17	2408.41
1019.33	2416.60
1019.49	2404.32
1019.64	2406.36
1019.80	2385.88
1019.96	2400.22
1020.12	2441.18
1020.27	2310.11
1020.43	2420.70
1020.59	2336.73
1020.74	2447.32
1020.90	2455.51
1021.06	2432.99
1021.22	2344.92
1021.37	2473.95
1021.53	2275.29
1021.69	2449.37
1021.84	2306.01
1022.00	2404.32
1022.16	2320.35
1022.31	2359.26
1022.47	2414.56
1022.63	2389.98
1022.79	2211.81
1022.94	2260.96
1023.10	2385.88
1023.26	2344.92
1023.41	2318.30
1023.57	2220.00
1023.73	2306.01
1023.88	2314.20
1024.04	2230.24
1024.20	2238.43
1024.35	2189.28
1024.51	2334.68
1024.67	2271.20
1024.82	2363.36
1024.98	2129.89
1025.14	2312.16
1025.29	2240.48
1025.45	2293.72
1025.61	2119.65
1025.76	2193.37
1025.92	2234.33
1026.08	2174.94
1026.23	2187.23
1026.39	2230.24
1026.55	2271.20
1026.70	2144.22
1026.86	2160.61
1027.02	2160.61
1027.17	2297.82
1027.33	2228.19
1027.48	2215.90
1027.64	2203.61
1027.80	2080.74
1027.95	2166.75
1028.11	2088.93
1028.27	2191.33
1028.42	2215.90
1028.58	2236.38
1028.73	2244.57
1028.89	2093.02
1029.05	2236.38
1029.20	2117.60
>>>>>End Processed Spectral Data<<<<<
