SpectraSuite Data File
++++++++++++++++++++++++++++++++++++
Date: Fri Jun 02 14:44:37 CEST 2017
User: INFO_000
Dark Spectrum Present: No
Reference Spectrum Present: No
Number of Sampled Component Spectra: 1
Spectrometers: USB4H00879
Integration Time (usec): 80000 (USB4H00879)
Spectra Averaged: 1 (USB4H00879)
Boxcar Smoothing: 0 (USB4H00879)
Correct for Electrical Dark: No (USB4H00879)
Strobe/Lamp Enabled: No (USB4H00879)
Correct for Detector Non-linearity: No (USB4H00879)
Correct for Stray Light: No (USB4H00879)
Number of Pixels in Processed Spectrum: 3648
>>>>>Begin Processed Spectral Data<<<<<
345.13	1249.26
345.34	1249.26
345.56	1249.26
345.78	1273.84
345.99	1253.36
346.21	1697.77
346.42	1667.05
346.64	1691.62
346.86	1826.79
347.07	1599.46
347.29	1720.29
347.50	1724.39
347.72	1626.09
347.94	1738.73
348.15	1560.55
348.37	1599.46
348.59	1738.73
348.80	1624.04
349.02	1791.97
349.23	1902.56
349.45	1757.16
349.67	1882.08
349.88	1712.10
350.10	1861.60
350.31	1814.50
350.53	1789.92
350.75	1925.09
350.96	1775.59
351.18	1886.18
351.39	1867.75
351.61	1769.44
351.82	1873.89
352.04	1980.39
352.26	1748.97
352.47	1896.42
352.69	1906.66
352.90	1781.73
353.12	1865.70
353.34	1796.07
353.55	1976.29
353.77	1888.23
353.98	1884.13
354.20	1843.17
354.41	1992.67
354.63	1859.56
354.85	2076.64
355.06	1955.81
355.28	1851.36
355.49	1937.38
355.71	1998.82
355.92	1867.75
356.14	1906.66
356.35	1867.75
356.57	1810.40
356.79	1863.65
357.00	1873.89
357.22	2015.20
357.43	1839.08
357.65	1953.76
357.86	1796.07
358.08	1863.65
358.29	1933.28
358.51	2054.11
358.72	2029.54
358.94	1992.67
359.16	1900.52
359.37	1916.90
359.59	1912.80
359.80	1992.67
360.02	2002.91
360.23	1900.52
360.45	1951.71
360.66	1867.75
360.88	1869.80
361.09	1900.52
361.31	1939.43
361.52	1941.47
361.74	2060.26
361.95	2076.64
362.17	1953.76
362.38	2086.88
362.60	1998.82
362.81	1970.15
363.03	1941.47
363.24	1982.43
363.46	2105.31
363.67	2015.20
363.89	1931.23
364.10	1976.29
364.32	1959.91
364.53	2066.40
364.75	1894.37
364.96	2041.82
365.18	2060.26
365.39	2002.91
365.61	1920.99
365.82	2160.61
366.04	1972.19
366.25	1961.95
366.47	2072.54
366.68	2039.78
366.90	2021.35
367.11	2060.26
367.33	2101.22
367.54	2060.26
367.76	2007.01
367.97	2222.05
368.19	1992.67
368.40	2074.59
368.62	1996.77
368.83	1920.99
369.05	2099.17
369.26	2041.82
369.48	1976.29
369.69	2015.20
369.91	2109.41
370.12	2052.06
370.33	2125.79
370.55	2023.39
370.76	2007.01
370.98	2033.63
371.19	2090.98
371.41	2074.59
371.62	2074.59
371.84	2035.68
372.05	2144.22
372.27	2088.93
372.48	2115.55
372.69	2068.45
372.91	2193.37
373.12	2142.18
373.34	2152.42
373.55	2160.61
373.77	2142.18
373.98	2107.36
374.20	2066.40
374.41	2265.05
374.62	2148.32
374.84	2199.52
375.05	2211.81
375.27	2154.46
375.48	2107.36
375.70	2131.94
375.91	2230.24
376.12	2295.77
376.34	2232.29
376.55	2185.18
376.77	2215.90
376.98	2162.66
377.19	2148.32
377.41	2211.81
377.62	2125.79
377.84	2193.37
378.05	2326.49
378.27	2195.42
378.48	2269.15
378.69	2340.83
378.91	2295.77
379.12	2277.34
379.34	2226.14
379.55	2328.54
379.76	2293.72
379.98	2236.38
380.19	2303.96
380.41	2250.72
380.62	2267.10
380.83	2306.01
381.05	2226.14
381.26	2449.37
381.47	2246.62
381.69	2322.40
381.90	2402.27
382.12	2281.44
382.33	2328.54
382.54	2379.74
382.76	2250.72
382.97	2383.84
383.19	2283.49
383.40	2330.59
383.61	2299.87
383.83	2316.25
384.04	2379.74
384.25	2310.11
384.47	2432.99
384.68	2371.55
384.89	2301.92
385.11	2258.91
385.32	2387.93
385.54	2289.63
385.75	2299.87
385.96	2418.65
386.18	2422.75
386.39	2447.32
386.60	2336.73
386.82	2375.64
387.03	2443.23
387.24	2504.67
387.46	2475.99
387.67	2455.51
387.88	2488.28
388.10	2449.37
388.31	2414.56
388.52	2648.02
388.74	2529.24
388.95	2463.71
389.16	2519.00
389.38	2512.86
389.59	2553.82
389.80	2684.89
390.02	2531.29
390.23	2551.77
390.44	2557.91
390.66	2521.05
390.87	2600.92
391.08	2627.54
391.30	2727.89
391.51	2578.39
391.72	2777.05
391.94	2637.78
392.15	2588.63
392.36	2600.92
392.58	2572.25
392.79	2674.65
393.00	2668.50
393.22	2723.80
393.43	2787.29
393.64	2791.38
393.85	2840.53
394.07	2717.65
394.28	2695.13
394.49	2742.23
394.71	2731.99
394.92	2846.68
395.13	2641.88
395.35	2660.31
395.56	2748.37
395.77	2846.68
395.98	2824.15
396.20	2885.59
396.41	2807.77
396.62	2869.20
396.84	2717.65
397.05	2826.20
397.26	2865.11
397.47	2983.89
397.69	2846.68
397.90	3000.27
398.11	2928.60
398.32	2844.63
398.54	2893.78
398.75	2926.55
398.96	3033.04
399.18	3012.56
399.39	2944.98
399.60	3039.19
399.81	2967.51
400.03	2947.03
400.24	3293.13
400.45	2940.88
400.66	3082.19
400.88	3063.76
401.09	3227.60
401.30	3061.71
401.51	3149.78
401.73	3106.77
401.94	3149.78
402.15	3117.01
402.36	3018.71
402.58	3180.50
402.79	3139.54
403.00	3082.19
403.21	3106.77
403.43	3215.31
403.64	3112.91
403.85	2987.99
404.06	3266.51
404.27	3151.82
404.49	3246.03
404.70	3293.13
404.91	3289.04
405.12	3256.27
405.34	3297.23
405.55	3338.19
405.76	3121.10
405.97	3356.62
406.19	3487.69
406.40	3239.89
406.61	3442.64
406.82	3336.14
407.03	3381.20
407.25	3276.75
407.46	3434.44
407.67	3424.20
407.88	3542.99
408.09	3516.36
408.31	3377.10
408.52	3436.49
408.73	3391.44
408.94	3332.05
409.15	3479.50
409.37	3518.41
409.58	3585.99
409.79	3520.46
410.00	3542.99
410.21	3526.60
410.43	3545.03
410.64	3471.31
410.85	3686.34
411.06	3643.34
411.27	3690.44
411.48	3661.77
411.70	3518.41
411.91	3618.76
412.12	3600.33
412.33	3659.72
412.54	3565.51
412.76	3702.73
412.97	3710.92
413.18	3633.10
413.39	3723.21
413.60	3743.69
413.81	3841.99
414.03	3680.20
414.24	3610.57
414.45	3860.42
414.66	3559.37
414.87	3696.58
415.08	3715.02
415.30	3788.74
415.51	3727.30
415.72	3758.02
415.93	3794.89
416.14	3852.23
416.35	3850.18
416.56	3854.28
416.78	3862.47
416.99	3950.53
417.20	3903.43
417.41	4005.83
417.62	3882.95
417.83	4022.21
418.04	4001.73
418.26	3938.24
418.47	3956.68
418.68	3979.20
418.89	3891.14
419.10	3971.01
419.31	3979.20
419.52	4112.32
419.73	4011.97
419.95	4149.18
420.16	4018.11
420.37	4040.64
420.58	4132.80
420.79	3858.37
421.00	4267.97
421.21	4149.18
421.42	4122.56
421.63	4169.66
421.85	4097.99
422.06	4214.72
422.27	4239.30
422.48	4018.11
422.69	4378.56
422.90	4204.48
423.11	4233.15
423.32	4190.14
423.53	4366.27
423.75	4337.60
423.96	4452.28
424.17	4358.08
424.38	4425.66
424.59	4280.25
424.80	4577.21
425.01	4405.18
425.22	4450.24
425.43	4507.58
425.64	4669.37
425.85	4732.86
426.06	4552.63
426.28	4513.72
426.49	4437.95
426.70	4513.72
426.91	4597.69
427.12	4671.42
427.33	4605.88
427.54	4544.44
427.75	4706.23
427.96	4755.38
428.17	4700.09
428.38	4880.31
428.59	5015.48
428.80	4782.01
429.01	4810.68
429.23	4931.51
429.44	4997.04
429.65	5085.11
429.86	4970.42
430.07	4788.15
430.28	4853.69
430.49	4919.22
430.70	5142.45
430.91	5140.40
431.12	5066.67
431.33	5115.83
431.54	5302.19
431.75	5156.79
431.96	5066.67
432.17	5220.27
432.38	5320.62
432.59	5492.65
432.80	5453.74
433.01	5388.21
433.22	5425.07
433.43	5390.25
433.64	5425.07
433.85	5316.53
434.06	5490.60
434.27	5388.21
434.49	5556.14
434.70	5470.12
434.91	5496.75
435.12	5595.05
435.33	5486.51
435.54	5529.52
435.75	5457.84
435.96	5541.80
436.17	5449.64
436.38	5674.92
436.59	5578.67
436.80	5674.92
437.01	5779.37
437.22	5902.25
437.43	5664.68
437.64	5660.59
437.85	5851.05
438.06	6000.55
438.27	5687.21
438.48	5846.95
438.69	5953.45
438.90	5885.86
439.11	5801.90
439.32	5937.06
439.53	5904.29
439.74	5955.49
439.95	6084.52
440.16	5937.06
440.37	6037.41
440.57	5965.73
440.78	6080.42
440.99	6195.11
441.20	5982.12
441.41	6016.93
441.62	6203.30
441.83	5920.68
442.04	6180.77
442.25	6023.08
442.46	6209.44
442.67	6422.43
442.88	6516.64
443.09	6143.91
443.30	6098.85
443.51	6131.62
443.72	6588.32
443.93	6180.77
444.14	6510.49
444.35	6201.25
444.56	6485.92
444.77	6449.05
444.98	6348.70
445.19	6401.95
445.40	6573.98
445.61	6510.49
445.81	6430.62
446.02	6516.64
446.23	6410.14
446.44	6369.18
446.65	6647.71
446.86	6576.03
447.07	6461.34
447.28	6682.52
447.49	6754.20
447.70	6700.95
447.91	6631.32
448.12	6666.14
448.33	6885.27
448.54	6680.47
448.74	6698.91
448.95	6823.83
449.16	6776.73
449.37	7042.96
449.58	6858.65
449.79	6928.28
450.00	6838.17
450.21	6875.03
450.42	7034.77
450.63	7133.08
450.84	7018.39
451.05	6948.76
451.25	6870.94
451.46	6993.81
451.67	7118.74
451.88	7321.49
452.09	7272.34
452.30	7042.96
452.51	7090.07
452.72	7280.53
452.93	7538.57
453.13	7159.70
453.34	7309.20
453.55	7407.50
453.76	7219.09
453.97	7565.20
454.18	7339.92
454.39	7446.41
454.60	7444.37
454.81	7331.73
455.01	7597.96
455.22	7366.54
455.43	7530.38
455.64	7925.64
455.85	7841.67
456.06	7833.48
456.27	7655.31
456.48	7708.55
456.68	7931.78
456.89	7948.17
457.10	8083.33
457.31	8159.11
457.52	8005.51
457.73	7925.64
457.94	8306.56
458.14	8114.05
458.35	8284.03
458.56	8140.68
458.77	8157.06
458.98	8497.02
459.19	8292.23
459.39	8466.30
459.60	8671.10
459.81	8355.71
460.02	8425.34
460.23	8679.29
460.44	8714.11
460.65	8675.20
460.85	9095.03
461.06	8757.11
461.27	8433.54
461.48	9002.87
461.69	9004.92
461.89	8767.35
462.10	9000.82
462.31	8750.97
462.52	8988.53
462.73	8912.76
462.94	9279.35
463.14	9262.96
463.35	9289.59
463.56	9695.08
463.77	9557.87
463.98	9301.87
464.18	9604.97
464.39	9512.81
464.60	9699.18
464.81	9670.51
465.02	9504.62
465.23	10053.48
465.43	9858.92
465.64	10168.16
465.85	10045.29
466.06	9799.53
466.27	10157.92
466.47	10121.06
466.68	10227.56
466.89	10289.00
467.10	10450.78
467.30	10135.40
467.51	10440.54
467.72	10608.48
467.93	10536.80
468.14	10590.05
468.34	10794.84
468.55	10764.12
468.76	10796.89
468.97	10319.71
469.17	10970.97
469.38	10948.44
469.59	10936.15
469.80	10985.30
470.01	11122.52
470.21	11034.46
470.42	11280.21
470.63	11306.84
470.84	11091.80
471.04	11573.07
471.25	11554.64
471.46	11487.06
471.67	11870.03
471.87	11702.09
472.08	11732.81
472.29	11816.78
472.50	11736.91
472.70	11775.82
472.91	11882.31
473.12	12117.83
473.33	12283.72
473.53	12273.48
473.74	12015.43
473.95	12306.24
474.16	12556.10
474.36	12760.89
474.57	12697.41
474.78	12734.27
474.99	12683.07
475.19	12693.31
475.40	12963.64
475.61	13039.42
475.81	13160.25
476.02	13338.42
476.23	13434.68
476.44	13455.15
476.64	13526.83
476.85	13725.49
477.06	13473.59
477.27	13977.39
477.47	13799.21
477.68	13883.18
477.89	14065.45
478.09	14047.02
478.30	14077.74
478.51	14118.70
478.71	14202.66
478.92	14335.78
479.13	14546.72
479.34	14374.69
479.54	14581.54
479.75	14634.78
479.96	14915.36
480.16	14827.29
480.37	14903.07
480.58	15093.53
480.78	15294.23
480.99	15169.30
481.20	15331.09
481.41	15320.85
481.61	15468.31
481.82	15849.23
482.03	15396.63
482.23	15703.82
482.44	15513.36
482.65	15853.33
482.85	16113.42
483.06	16174.86
483.27	16137.99
483.47	16066.31
483.68	16256.78
483.89	16377.61
484.09	16264.97
484.30	16572.16
484.51	16709.38
484.71	16936.70
484.92	16811.78
485.13	16903.93
485.33	16961.28
485.54	16920.32
485.75	17319.67
485.95	17428.21
486.16	17424.12
486.37	17696.50
486.57	17512.18
486.78	17594.10
486.98	17729.27
487.19	17741.55
487.40	18077.42
487.60	17823.47
487.81	18149.10
488.02	17860.34
488.22	18069.23
488.43	18530.02
488.64	18378.47
488.84	18163.43
489.05	18659.04
489.25	18681.57
489.46	18841.31
489.67	18700.00
489.87	19019.49
490.08	19050.21
490.29	18781.92
490.49	19500.76
490.70	19318.49
490.90	19629.78
491.11	19334.87
491.32	19574.49
491.52	19521.24
491.73	19777.23
491.94	19719.89
492.14	19930.83
492.35	19984.08
492.55	20391.62
492.76	20045.52
492.97	20408.01
493.17	20491.98
493.38	20600.52
493.58	20569.80
493.79	20717.25
494.00	20518.60
494.20	20868.80
494.41	20920.00
494.61	21155.52
494.82	21237.44
495.02	21323.45
495.23	21325.50
495.44	21544.63
495.64	21511.86
495.85	21567.16
496.05	21909.17
496.26	21634.74
496.47	21794.48
496.67	21933.75
496.88	22234.80
497.08	21978.80
497.29	22550.18
497.49	22433.45
497.70	22660.77
497.91	22722.21
498.11	22251.18
498.32	22994.59
498.52	22986.40
498.73	23035.55
498.93	22963.87
499.14	23010.98
499.34	22924.96
499.55	23502.49
499.76	23365.28
499.96	23348.89
500.17	23516.83
500.37	23631.51
500.58	23760.53
500.78	23580.31
500.99	23768.73
501.19	23840.40
501.40	24049.30
501.60	24096.40
501.81	24184.46
502.02	24231.57
502.22	24106.64
502.43	24188.56
502.63	24448.65
502.84	24544.91
503.04	24612.49
503.25	24606.34
503.45	24571.53
503.66	24901.25
503.86	24909.44
504.07	25073.28
504.27	25114.24
504.48	24958.60
504.68	25220.74
504.89	25536.12
505.09	25339.52
505.30	25306.75
505.50	25435.77
505.71	25638.52
505.91	25863.80
506.12	25679.48
506.32	25646.71
506.53	25792.12
506.73	26005.11
506.94	25906.80
507.14	26087.03
507.35	25978.48
507.55	26183.28
507.76	26103.41
507.96	26117.75
508.17	26357.36
508.37	26269.30
508.58	26295.92
508.78	26343.02
508.99	26783.34
509.19	26439.28
509.40	26621.55
509.60	27014.76
509.81	26707.56
510.01	26707.56
510.22	26807.91
510.42	26844.77
510.63	26986.08
510.83	26941.03
511.04	27164.26
511.24	27108.96
511.44	27072.10
511.65	27182.69
511.85	27074.15
512.06	27022.95
512.26	27549.28
512.47	27309.66
512.67	27446.88
512.88	27385.44
513.08	27401.82
513.29	27539.04
513.49	27407.97
513.69	27672.15
513.90	27307.62
514.10	27487.84
514.31	27952.73
514.51	27786.84
514.72	27747.93
514.92	27739.74
515.13	27887.19
515.33	28132.95
515.53	28100.18
515.74	27995.73
515.94	28270.16
516.15	27883.09
516.35	28192.34
516.56	28366.42
516.76	28331.60
516.96	28237.39
517.17	28323.41
517.37	28278.35
517.58	27874.90
517.78	28434.00
517.99	28397.13
518.19	28767.82
518.39	28737.10
518.60	28829.26
518.80	28886.60
519.01	28882.50
519.21	29070.92
519.41	29021.77
519.62	28896.84
519.82	29089.35
520.03	29087.30
520.23	29001.29
520.43	29136.45
520.64	29271.62
520.84	29636.16
521.05	29392.45
521.25	29165.12
521.45	29423.17
521.66	29650.49
521.86	29509.18
522.07	29705.79
522.27	29771.32
522.47	29865.53
522.68	29992.50
522.88	29965.88
523.08	30117.43
523.29	29900.34
523.49	30268.98
523.70	30156.34
523.90	30393.90
524.10	30326.32
524.31	30715.44
524.51	30340.66
524.71	30733.87
524.92	30813.74
525.12	30860.84
525.33	30953.00
525.53	30883.37
525.73	31094.31
525.94	31125.03
526.14	30649.90
526.34	31125.03
526.55	31059.49
526.75	31133.22
526.95	31409.70
527.16	31409.70
527.36	31264.29
527.56	31503.90
527.77	31831.58
527.97	31780.38
528.17	31702.56
528.38	32214.55
528.58	32028.18
528.78	32237.08
528.99	32175.64
529.19	32405.01
529.39	32169.49
529.60	32388.63
529.80	32409.11
530.00	32353.81
530.21	32607.76
530.41	32822.80
530.61	33035.78
530.82	33068.55
531.02	32656.91
531.22	33230.34
531.43	33105.41
531.63	33285.64
531.83	33463.81
532.04	33617.41
532.24	33402.37
532.44	33990.14
532.64	33955.32
532.85	34104.82
533.05	34205.17
533.25	34182.65
533.46	34211.32
533.66	34491.89
533.86	34649.58
534.07	34727.41
534.27	34713.07
534.47	34690.54
534.67	34909.68
534.88	35018.22
535.08	34764.27
535.28	34999.79
535.49	35235.30
535.69	35390.95
535.89	35452.39
536.09	35673.57
536.30	35737.05
536.50	35919.32
536.70	35948.00
536.91	35868.12
537.11	36152.79
537.31	36130.26
537.51	36355.54
537.72	36632.02
537.92	36722.13
538.12	36619.73
538.32	36478.42
538.53	37098.95
538.73	36931.02
538.93	36877.77
539.13	37299.65
539.34	37025.23
539.54	37107.15
539.74	37430.72
539.94	37377.48
540.15	37303.75
540.35	37592.51
540.55	37682.62
540.75	37610.95
540.96	37967.29
541.16	37762.50
541.36	38114.75
541.56	38081.98
541.77	38448.57
541.97	37942.72
542.17	38135.23
542.37	38264.25
542.58	38768.05
542.78	38751.66
542.98	38860.21
543.18	38589.88
543.38	39359.91
543.59	39394.73
543.79	38467.00
543.99	38935.98
544.19	38970.80
544.40	38995.37
544.60	39605.67
544.80	39417.25
545.00	39607.72
545.20	40045.98
545.41	39255.46
545.61	39878.05
545.81	40080.80
546.01	40011.17
546.21	39896.48
546.42	40406.42
546.62	40273.31
546.82	40123.80
547.02	39945.63
547.22	40494.49
547.43	40015.26
547.63	40689.04
547.83	40510.87
548.03	40623.51
548.23	40852.88
548.44	40922.51
548.64	40951.18
548.84	40603.03
549.04	40637.84
549.24	41031.05
549.45	41651.59
549.65	40809.87
549.85	41330.06
550.05	41493.89
550.25	41485.70
550.45	41907.58
550.66	41381.26
550.86	41205.13
551.06	41676.16
551.26	41067.92
551.46	41616.77
551.66	41948.54
551.87	41932.16
552.07	42014.08
552.27	41948.54
552.47	42169.72
552.67	42050.94
552.87	42079.61
553.07	42044.80
553.28	42034.56
553.48	42491.26
553.68	42333.56
553.88	42562.93
554.08	42382.71
554.28	42286.46
554.48	42036.61
554.69	42460.54
554.89	42798.45
555.09	43050.35
555.29	42304.89
555.49	42732.92
555.69	42227.07
555.89	42534.26
556.10	42866.03
556.30	42257.79
556.50	43013.49
556.70	42745.20
556.90	42874.23
557.10	43117.93
557.30	42562.93
557.50	43087.21
557.70	43040.11
557.91	43701.61
558.11	42724.72
558.31	43365.74
558.51	42806.64
558.71	43431.27
558.91	43408.75
559.11	43142.51
559.31	43152.75
559.51	42980.72
559.72	43038.06
559.92	43275.63
560.12	43109.74
560.32	43531.62
560.52	43474.28
560.72	43558.25
560.92	43720.04
561.12	43564.39
561.32	43797.86
561.52	43226.48
561.72	43939.17
561.93	43558.25
562.13	43447.66
562.33	43683.17
562.53	44053.86
562.73	43586.92
562.93	43634.02
563.13	43822.44
563.33	43912.55
563.53	43998.56
563.73	43734.37
563.93	43877.73
564.13	44393.82
564.33	43894.11
564.53	44000.61
564.74	44180.83
564.94	43703.65
565.14	43930.98
565.34	43674.98
565.54	43996.51
565.74	43906.40
565.94	44473.69
566.14	44262.75
566.34	44074.34
566.54	44449.11
566.74	43621.73
566.94	44535.13
567.14	44395.87
567.34	44189.02
567.54	44516.70
567.74	44242.27
567.94	43961.70
568.14	44365.15
568.34	44612.95
568.54	44209.50
568.74	44608.86
568.94	44129.63
569.14	44698.97
569.34	44553.56
569.54	44430.68
569.75	44588.38
569.95	44385.63
570.15	45174.09
570.35	44475.74
570.55	44336.48
570.75	44410.20
570.95	44778.84
571.15	44696.92
571.35	44770.64
571.55	44875.09
571.75	44905.81
571.95	45040.98
572.15	44555.61
572.35	44971.35
572.55	44694.87
572.75	45071.70
572.95	45004.11
573.15	45710.66
573.35	45387.08
573.55	44645.72
573.75	44971.35
573.95	45358.41
574.15	44762.45
574.35	45303.12
574.55	45335.88
574.75	45327.69
574.95	45233.49
575.15	45690.18
575.34	45430.09
575.54	45524.30
575.74	45815.11
575.94	45538.63
576.14	45413.71
576.34	45997.38
576.54	46069.06
576.74	45647.18
576.94	45509.96
577.14	45671.75
577.34	45858.12
577.54	45847.88
577.74	46015.81
577.94	45759.81
578.14	46146.88
578.34	46402.88
578.54	45692.23
578.74	46253.37
578.94	46396.73
579.14	46327.10
579.34	46525.75
579.54	46218.56
579.74	46892.34
579.94	46525.75
580.13	46878.00
580.33	46923.06
580.53	46966.07
580.73	47093.04
580.93	46660.92
581.13	46935.35
581.33	47189.30
581.53	47007.03
581.73	47103.28
581.93	47148.34
582.13	47435.05
582.33	47353.13
582.53	47078.71
582.73	47480.11
582.92	47351.09
583.12	47297.84
583.32	47449.39
583.52	47373.61
583.72	47580.46
583.92	47387.95
584.12	47228.21
584.32	47795.49
584.52	47908.13
584.72	47963.43
584.92	48213.28
585.11	48413.98
585.31	48059.68
585.51	48330.01
585.71	48309.53
585.91	48678.17
586.11	48506.14
586.31	48237.86
586.51	48489.76
586.71	48596.25
586.91	48823.58
587.10	48538.91
587.30	48637.21
587.50	48805.14
587.70	49272.08
587.90	49198.35
588.10	48907.54
588.30	48971.03
588.50	49655.05
588.69	49354.00
588.89	49222.93
589.09	49736.97
589.29	49278.22
589.49	49757.45
589.69	49523.98
589.89	49601.80
590.08	49992.97
590.28	49505.55
590.48	49822.98
590.68	49681.67
590.88	50099.46
591.08	49771.78
591.28	49962.25
591.47	50423.04
591.67	50187.52
591.87	50369.79
592.07	50461.95
592.27	50310.40
592.47	50468.09
592.67	50099.46
592.86	50314.50
593.06	50525.44
593.26	50656.51
593.46	50590.97
593.66	50660.60
593.86	50822.39
594.05	50844.92
594.25	51447.02
594.45	50801.91
594.65	51027.19
594.85	50750.71
595.05	51797.23
595.24	50918.65
595.44	51401.97
595.64	51418.35
595.84	51373.30
596.04	51635.44
596.23	51391.73
596.43	51293.43
596.63	51741.93
596.83	51516.65
597.03	51952.87
597.22	52253.92
597.42	51944.68
597.62	52327.65
597.82	52585.69
598.02	51762.41
598.21	52651.23
598.41	51772.65
598.61	52413.66
598.81	52532.45
599.01	52282.59
599.20	52212.96
599.40	52274.40
599.60	52948.18
599.80	52548.83
600.00	52858.07
600.19	53030.10
600.39	52593.89
600.59	53640.40
600.79	53345.49
600.98	52948.18
601.18	53161.17
601.38	53783.76
601.58	53794.00
601.78	53380.31
601.97	53732.56
602.17	53662.93
602.37	53011.67
602.57	53400.79
602.76	53408.98
602.96	53855.43
603.16	53732.56
603.36	53974.22
603.55	53843.15
603.75	53687.50
603.95	54473.92
604.15	54183.11
604.34	54009.03
604.54	54113.48
604.74	54277.32
604.94	54400.19
605.13	54240.45
605.33	54592.70
605.53	53974.22
605.73	54465.73
605.92	54385.86
606.12	54252.74
606.32	54715.58
606.52	54361.28
606.71	54592.70
606.91	55151.80
607.11	54334.66
607.30	54949.05
607.50	54912.19
607.70	55178.42
607.90	54940.86
608.09	55112.89
608.29	55305.40
608.49	55051.45
608.68	55209.14
608.88	55307.44
609.08	55502.00
609.28	55440.56
609.47	54154.44
609.67	55653.55
609.87	55241.91
610.06	55770.28
610.26	55278.77
610.46	55798.96
610.66	55250.10
610.85	55293.11
611.05	54789.31
611.25	55366.84
611.44	55139.51
611.64	55121.08
611.84	55395.51
612.03	54977.72
612.23	55528.62
612.43	55622.83
612.62	55704.75
612.82	55332.02
613.02	55262.39
613.21	55547.06
613.41	55270.58
613.61	55588.02
613.80	55336.12
614.00	55583.92
614.20	55596.21
614.39	55733.42
614.59	55432.37
614.79	55477.43
614.98	55168.18
615.18	55682.22
615.38	55311.54
615.57	55530.67
615.77	55557.30
615.97	55620.78
616.16	55188.66
616.36	55321.78
616.56	55702.70
616.75	55370.93
616.95	55751.85
617.15	55358.64
617.34	55188.66
617.54	55651.50
617.74	55653.55
617.93	55598.26
618.13	55078.07
618.32	55198.90
618.52	55243.96
618.72	55157.94
618.91	55391.41
619.11	55155.89
619.31	54971.58
619.50	54918.33
619.70	54990.01
619.90	54918.33
620.09	54990.01
620.29	54947.00
620.48	55198.90
620.68	55145.65
620.88	54768.83
621.07	55014.58
621.27	54983.86
621.46	54648.00
621.66	55002.30
621.86	54658.24
622.05	54901.95
622.25	55106.74
622.44	55055.54
622.64	54600.89
622.84	55026.87
623.03	54764.73
623.23	54645.95
623.42	54484.16
623.62	54969.53
623.82	54793.40
624.01	54772.92
624.21	54990.01
624.40	55065.78
624.60	54334.66
624.80	54136.01
624.99	54551.74
625.19	54111.43
625.38	54736.06
625.58	55059.64
625.77	54228.16
625.97	54451.39
626.17	54291.65
626.36	54678.72
626.56	54772.92
626.75	54133.96
626.95	54473.92
627.14	54006.98
627.34	54508.74
627.54	54740.16
627.73	54133.96
627.93	53834.95
628.12	54252.74
628.32	54656.19
628.51	54355.14
628.71	54289.60
628.90	54080.71
629.10	54031.56
629.30	54355.14
629.49	54330.56
629.69	54234.31
629.88	53892.30
630.08	54707.39
630.27	54502.59
630.47	54260.93
630.66	54514.88
630.86	54914.23
631.05	53855.43
631.25	54656.19
631.44	54297.80
631.64	54277.32
631.84	54635.71
632.03	54779.07
632.23	54412.48
632.42	54697.15
632.62	54203.59
632.81	54371.52
633.01	54441.15
633.20	54525.12
633.40	54656.19
633.59	54738.11
633.79	53843.15
633.98	53847.24
634.18	54297.80
634.37	54621.37
634.57	54156.49
634.76	54086.85
634.96	54600.89
635.15	54680.77
635.35	54226.12
635.54	54707.39
635.74	54600.89
635.93	54078.66
636.13	54691.01
636.32	54549.70
636.52	54060.23
636.71	54699.20
636.91	54449.35
637.10	54637.76
637.30	54142.15
637.49	54338.75
637.69	54303.94
637.88	54805.69
638.08	54203.59
638.27	54822.08
638.46	54375.62
638.66	54404.29
638.85	54944.95
639.05	55155.89
639.24	54961.34
639.44	54404.29
639.63	54492.35
639.83	55116.98
640.02	54731.96
640.22	54678.72
640.41	54848.70
640.61	54598.85
640.80	54707.39
640.99	54256.84
641.19	55461.04
641.38	54443.20
641.58	54852.80
641.77	54883.51
641.97	54150.34
642.16	55248.05
642.36	55246.00
642.55	55254.20
642.74	54260.93
642.94	55362.74
643.13	54985.91
643.33	55090.36
643.52	55309.49
643.72	55014.58
643.91	55342.26
644.10	55520.43
644.30	55686.32
644.49	55366.84
644.69	55631.02
644.88	55289.01
645.08	55352.50
645.27	55174.33
645.46	54871.23
645.66	55661.74
645.85	55370.93
646.05	55311.54
646.24	55780.52
646.43	55551.15
646.63	55850.16
646.82	55919.79
647.02	56038.57
647.21	55571.63
647.40	55227.57
647.60	55903.40
647.79	56126.63
647.99	56106.15
648.18	55887.02
648.37	56204.45
648.57	56237.22
648.76	56169.64
648.96	55850.16
649.15	56476.83
649.34	56655.01
649.54	55981.23
649.73	56095.91
649.92	56370.34
650.12	56464.55
650.31	56079.53
650.51	55923.88
650.70	56206.50
650.89	55927.98
651.09	56997.02
651.28	56349.86
651.47	56929.44
651.67	56675.49
651.86	56751.26
652.06	56446.11
652.25	56714.40
652.44	56702.11
652.64	56640.67
652.83	55973.03
653.02	56190.12
653.22	56763.55
653.41	56521.89
653.60	56386.72
653.80	56618.14
653.99	57074.84
654.18	56597.66
654.38	56530.08
654.57	57091.22
654.76	56999.07
654.96	56421.54
655.15	56513.70
655.34	57175.19
655.54	56628.38
655.73	56892.57
655.92	56921.24
656.12	56874.14
656.31	57336.98
656.50	57351.32
656.70	56704.16
656.89	57134.23
657.08	57132.18
657.28	57406.61
657.47	57019.55
657.66	57250.97
657.86	57377.94
658.05	57140.38
658.24	57115.80
658.43	57400.47
658.63	57455.76
658.82	57517.20
659.01	57238.68
659.21	57676.94
659.40	57357.46
659.59	57664.66
659.79	57570.45
659.98	57371.80
660.17	57599.12
660.36	57668.75
660.56	57740.43
660.75	57689.23
660.94	57754.77
661.14	57339.03
661.33	57865.36
661.52	57158.81
661.71	57719.95
661.91	57341.08
662.10	57500.82
662.29	57988.24
662.49	58000.52
662.68	57670.80
662.87	57672.85
663.06	58000.52
663.26	57941.13
663.45	58342.53
663.64	57685.14
663.83	58381.45
664.03	58203.27
664.22	57971.85
664.41	57988.24
664.60	57773.20
664.80	57844.88
664.99	57779.34
665.18	57867.40
665.37	57586.83
665.57	58217.61
665.76	57859.21
665.95	58309.77
666.14	57834.64
666.34	58029.19
666.53	58061.96
666.72	58193.03
666.91	57758.86
667.11	58201.22
667.30	58358.92
667.49	58309.77
667.68	58272.90
667.87	57998.48
668.07	58244.23
668.26	58203.27
668.45	58107.02
668.64	57820.30
668.84	58686.59
669.03	58438.79
669.22	58143.88
669.41	58266.76
669.60	58121.35
669.80	57912.46
669.99	58494.08
670.18	57795.73
670.37	58211.46
670.57	58320.01
670.76	58213.51
670.95	58328.20
671.14	58246.28
671.33	57701.52
671.53	58539.14
671.72	57863.31
671.91	58328.20
672.10	57775.25
672.29	58156.17
672.48	57767.05
672.68	58324.10
672.87	57709.71
673.06	57955.47
673.25	58002.57
673.44	57793.68
673.64	58012.81
673.83	58047.63
674.02	57662.61
674.21	57877.64
674.40	58266.76
674.59	57707.66
674.79	57756.81
674.98	57730.19
675.17	57687.18
675.36	57830.54
675.55	58180.74
675.74	57769.10
675.94	58004.62
676.13	57646.22
676.32	57681.04
676.51	57975.95
676.70	57646.22
676.89	57482.39
677.08	58315.91
677.28	57853.07
677.47	58481.80
677.66	58266.76
677.85	58023.05
678.04	58082.44
678.23	58107.02
678.42	57781.39
678.62	57683.09
678.81	58066.06
679.00	57701.52
679.19	58004.62
679.38	57844.88
679.57	57543.83
679.76	57650.32
679.96	57744.53
680.15	57414.80
680.34	57300.12
680.53	57605.26
680.72	58135.69
680.91	57748.62
681.10	57312.41
681.29	57687.18
681.48	57406.61
681.68	57228.44
681.87	57263.25
682.06	57685.14
682.25	56906.91
682.44	57164.95
682.63	57423.00
682.82	56822.94
683.01	57123.99
683.20	56882.33
683.39	57412.76
683.59	57349.27
683.78	57031.83
683.97	56366.24
684.16	56681.63
684.35	56779.93
684.54	56833.18
684.73	56675.49
684.92	56343.72
685.11	56716.45
685.30	56673.44
685.49	56618.14
685.69	56495.27
685.88	57015.45
686.07	56491.17
686.26	56022.19
686.45	56831.13
686.64	56472.74
686.83	55981.23
687.02	56501.41
687.21	56538.27
687.40	56507.55
687.59	56317.09
687.78	56206.50
687.97	56476.83
688.16	56632.48
688.35	55987.37
688.54	56018.09
688.74	56001.71
688.93	55674.03
689.12	56071.34
689.31	55803.05
689.50	56370.34
689.69	55368.88
689.88	55286.96
690.07	55940.27
690.26	55602.35
690.45	55803.05
690.64	55467.19
690.83	55424.18
691.02	55557.30
691.21	55383.22
691.40	55641.26
691.59	55538.86
691.78	55223.48
691.97	55452.85
692.16	55502.00
692.35	55770.28
692.54	55606.45
692.73	55344.31
692.92	55315.64
693.11	55334.07
693.30	55073.98
693.49	55350.45
693.68	55381.17
693.87	54969.53
694.06	55223.48
694.25	54992.06
694.44	54670.53
694.63	55008.44
694.82	55293.11
695.01	54551.74
695.20	54598.85
695.39	54674.62
695.58	54629.57
695.77	54482.11
695.96	54443.20
696.15	54568.13
696.34	54283.46
696.53	54535.36
696.72	54424.77
696.91	54236.36
697.10	54326.47
697.29	53755.08
697.48	54496.45
697.67	54076.61
697.86	53423.31
698.05	54029.51
698.24	54441.15
698.43	53603.53
698.62	54154.44
698.81	53832.91
699.00	54002.89
699.19	53298.39
699.38	53970.12
699.57	53236.95
699.76	54551.74
699.95	53525.71
700.14	53511.38
700.32	53812.43
700.51	53370.07
700.70	53714.12
700.89	53589.20
701.08	53740.75
701.27	53538.00
701.46	53724.36
701.65	53187.80
701.84	53851.34
702.03	53501.14
702.22	53161.17
702.41	53253.33
702.60	53083.35
702.79	53269.72
702.98	52970.71
703.17	53023.96
703.35	52661.47
703.54	53007.58
703.73	53009.62
703.92	53413.07
704.11	52749.53
704.30	52640.99
704.49	52718.81
704.68	52731.10
704.87	52983.00
705.06	52266.21
705.25	52532.45
705.43	52597.98
705.62	52878.55
705.81	52651.23
706.00	52937.94
706.19	52356.32
706.38	52561.12
706.57	52331.75
706.76	52165.86
706.95	52491.49
707.14	52124.90
707.32	51926.25
707.51	52282.59
707.70	51983.59
707.89	52354.27
708.08	51875.05
708.27	52557.02
708.46	52042.98
708.65	52038.89
708.84	52352.23
709.02	52094.18
709.21	51870.95
709.40	51746.03
709.59	52131.04
709.78	51551.47
709.97	52442.34
710.16	52088.04
710.34	51768.55
710.53	51537.13
710.72	51711.21
710.91	51860.71
711.10	51549.42
711.29	51668.20
711.48	51627.24
711.66	51858.66
711.85	51252.47
712.04	51582.19
712.23	51547.37
712.42	51916.01
712.61	51737.83
712.80	51444.98
712.98	51551.47
713.17	50986.23
713.36	50955.51
713.55	51127.54
713.74	51381.49
713.93	51209.46
714.11	51459.31
714.30	51246.32
714.49	50869.50
714.68	51328.24
714.87	51240.18
715.06	51238.13
715.24	50926.84
715.43	51324.14
715.62	51008.76
715.81	50713.85
716.00	50932.98
716.18	50771.19
716.37	50713.85
716.56	50697.47
716.75	51266.80
716.94	50611.45
717.12	50431.23
717.31	50797.82
717.50	50332.93
717.69	50613.50
717.88	50758.91
718.06	50623.74
718.25	50826.49
718.44	50799.86
718.63	50562.30
718.82	50470.14
719.00	50322.69
719.19	50492.67
719.38	50492.67
719.57	50296.06
719.76	49964.29
719.94	49384.72
720.13	50240.77
720.32	50158.85
720.51	50074.88
720.69	50156.80
720.88	49779.98
721.07	50009.35
721.26	49534.22
721.44	49739.02
721.63	49575.18
721.82	49503.50
722.01	49763.59
722.20	49610.00
722.38	49194.26
722.57	49292.56
722.76	49593.61
722.95	49370.38
723.13	49255.70
723.32	49052.95
723.51	48575.77
723.70	48649.50
723.88	48776.47
724.07	48903.45
724.26	49382.67
724.44	48459.04
724.63	49016.08
724.82	49114.39
725.01	49098.00
725.19	48854.29
725.38	48762.14
725.57	48721.18
725.76	48891.16
725.94	48454.94
726.13	48708.89
726.32	48665.88
726.51	48792.86
726.69	49022.23
726.88	48893.21
727.07	48696.60
727.25	48393.50
727.44	49106.19
727.63	48821.53
727.82	48946.45
728.00	48901.40
728.19	48260.38
728.38	48538.91
728.56	48647.45
728.75	49126.67
728.94	48448.80
729.12	49046.80
729.31	48782.62
729.50	48985.36
729.69	48776.47
729.87	48821.53
730.06	49108.24
730.25	48735.51
730.43	48751.90
730.62	48553.24
730.81	49460.49
730.99	49022.23
731.18	48413.98
731.37	48788.76
731.55	48807.19
731.74	48911.64
731.93	49098.00
732.11	49141.01
732.30	48991.51
732.49	48645.40
732.67	48991.51
732.86	48751.90
733.05	49044.76
733.23	48254.24
733.42	48940.31
733.61	49030.42
733.79	48528.67
733.98	48821.53
734.17	48852.25
734.35	48743.70
734.54	49239.31
734.73	49016.08
734.91	48854.29
735.10	48301.34
735.29	49016.08
735.47	47959.33
735.66	48753.94
735.84	48522.52
736.03	48547.10
736.22	49007.89
736.40	48747.80
736.59	48362.78
736.78	48651.55
736.96	48835.86
737.15	48688.41
737.33	48319.77
737.52	48667.93
737.71	48676.12
737.89	48665.88
738.08	48301.34
738.27	48362.78
738.45	48938.26
738.64	48676.12
738.82	48284.96
739.01	48184.61
739.20	48340.25
739.38	48520.48
739.57	48323.87
739.75	48588.06
739.94	48033.06
740.13	48485.66
740.31	48190.75
740.50	48254.24
740.68	48381.21
740.87	48629.02
741.06	48559.39
741.24	48293.15
741.43	48153.89
741.61	48606.49
741.80	47732.01
741.99	48203.04
742.17	47945.00
742.36	48268.58
742.54	47996.20
742.73	48112.93
742.91	47961.38
743.10	47684.90
743.29	48035.11
743.47	48203.04
743.66	48153.89
743.84	48217.38
744.03	47906.08
744.21	48215.33
744.40	48223.52
744.59	47856.93
744.77	47742.25
744.96	47865.13
745.14	47971.62
745.33	47891.75
745.51	47729.96
745.70	47725.86
745.88	47525.16
746.07	47772.97
746.26	47203.63
746.44	47914.28
746.63	47500.59
746.81	47738.15
747.00	46992.69
747.18	47781.16
747.37	47504.68
747.55	47600.94
747.74	47623.47
747.92	47019.31
748.11	47447.34
748.29	47588.65
748.48	47420.72
748.66	47154.48
748.85	47543.59
749.03	47447.34
749.22	47086.90
749.41	47457.58
749.59	47484.20
749.78	47037.75
749.96	46943.54
750.15	47183.15
750.33	47420.72
750.52	47234.35
750.70	46871.86
750.89	47082.80
751.07	46687.54
751.26	46898.48
751.44	46531.90
751.63	47035.70
751.81	46769.46
752.00	46957.88
752.18	46849.33
752.37	46757.17
752.55	46277.95
752.74	46509.37
752.92	46339.39
753.10	46267.71
753.29	46640.44
753.47	46359.87
753.66	46214.46
753.84	46523.71
754.03	46159.17
754.21	46015.81
754.40	46449.98
754.58	46257.47
754.77	46388.54
754.95	45786.44
755.14	46275.90
755.32	46300.48
755.51	45747.53
755.69	45929.80
755.88	46095.68
756.06	46044.48
756.24	45925.70
756.43	45833.54
756.61	45823.30
756.80	45577.54
756.98	45219.15
757.17	45557.06
757.35	45598.02
757.54	45784.39
757.72	45727.05
757.90	45757.77
758.09	45079.89
758.27	45860.16
758.46	45296.97
758.64	45651.27
758.83	45256.01
759.01	45638.98
759.19	45751.62
759.38	45233.49
759.56	45372.75
759.75	45299.02
759.93	45161.81
760.12	44576.09
760.30	45028.69
760.48	44926.29
760.67	45032.78
760.85	45077.84
761.04	45182.29
761.22	45344.08
761.40	44950.87
761.59	45018.45
761.77	44856.66
761.96	45012.31
762.14	44631.38
762.32	44537.18
762.51	44539.22
762.69	44225.89
762.88	44598.62
763.06	44440.92
763.24	44490.07
763.43	44481.88
763.61	44363.10
763.80	44354.91
763.98	44170.59
764.16	44043.62
764.35	43863.39
764.53	43844.96
764.72	43976.03
764.90	43476.33
765.08	43726.18
765.27	44029.28
765.45	43521.38
765.63	43517.29
765.82	43640.17
766.00	43316.59
766.18	43578.73
766.37	43421.03
766.55	42947.95
766.74	43335.02
766.92	43588.97
767.10	43087.21
767.29	42995.06
767.47	42702.20
767.65	43412.84
767.84	42538.36
768.02	43238.76
768.20	42763.64
768.39	42972.53
768.57	42765.68
768.75	42820.98
768.94	42528.12
769.12	42642.81
769.30	42323.32
769.49	42466.68
769.67	42337.66
769.85	42728.82
770.04	42431.86
770.22	42249.60
770.40	42182.01
770.59	42229.12
770.77	42161.53
770.95	42288.51
771.14	42382.71
771.32	41620.87
771.50	41596.29
771.69	41776.51
771.87	42106.24
772.05	41440.65
772.24	41371.02
772.42	41491.85
772.60	41514.37
772.78	41262.47
772.97	41452.94
773.15	41710.98
773.33	41532.81
773.52	40881.55
773.70	41358.73
773.88	41416.07
774.07	41387.40
774.25	41561.48
774.43	41651.59
774.61	41231.75
774.80	41448.84
774.98	41590.15
775.16	41559.43
775.34	41221.52
775.53	41477.51
775.71	41624.96
775.89	41575.81
776.08	41375.11
776.26	40942.99
776.44	41352.58
776.62	41227.66
776.81	41084.30
776.99	41233.80
777.17	41205.13
777.35	41264.52
777.54	41510.28
777.72	41020.81
777.90	41090.44
778.08	41387.40
778.27	41522.57
778.45	41219.47
778.63	41645.44
778.81	41086.35
779.00	41805.19
779.18	41596.29
779.36	41790.85
779.54	41231.75
779.73	41459.08
779.91	41612.68
780.09	41543.05
780.27	41975.17
780.46	41532.81
780.64	41815.43
780.82	41506.18
781.00	41368.97
781.19	41909.63
781.37	41964.93
781.55	41637.25
781.73	41805.19
781.91	41616.77
782.10	41868.67
782.28	41614.72
782.46	41551.24
782.64	41934.21
782.82	41624.96
783.01	41772.42
783.19	41790.85
783.37	41940.35
783.55	41751.94
783.74	42003.84
783.92	41096.59
784.10	41962.88
784.28	41803.14
784.46	41323.91
784.64	41940.35
784.83	41878.91
785.01	42153.34
785.19	41528.71
785.37	41555.33
785.55	41737.60
785.74	41502.09
785.92	41207.18
786.10	41272.71
786.28	41426.31
786.46	40674.71
786.64	41119.12
786.83	41176.46
787.01	41391.50
787.19	41397.64
787.37	41209.23
787.55	41368.97
787.74	40916.37
787.92	41069.97
788.10	40777.11
788.28	40672.66
788.46	41108.88
788.64	40297.88
788.82	41112.97
789.01	40654.23
789.19	40660.37
789.37	40195.48
789.55	40650.13
789.73	40265.11
789.91	40416.66
790.09	40011.17
790.28	39947.68
790.46	40050.08
790.64	40283.55
790.82	39896.48
791.00	39765.41
791.18	40058.27
791.36	39925.15
791.55	39613.86
791.73	39515.56
791.91	39425.45
792.09	40088.99
792.27	39435.69
792.45	39499.17
792.63	39468.45
792.81	39404.97
793.00	39241.13
793.18	39699.87
793.36	38935.98
793.54	39110.06
793.72	38888.88
793.90	38870.45
794.08	38491.57
794.26	38563.25
794.44	38346.17
794.62	37926.33
794.81	38264.25
794.99	38155.71
795.17	38090.17
795.35	38161.85
795.53	38165.95
795.71	37903.81
795.89	37909.95
796.07	37754.30
796.25	37977.53
796.43	37561.79
796.61	37635.52
796.80	37250.50
796.98	37459.40
797.16	37033.42
797.34	37066.19
797.52	36773.33
797.70	37236.17
797.88	37025.23
798.06	36777.42
798.24	36918.73
798.42	36625.87
798.60	36488.66
798.78	36754.90
798.96	36863.44
799.14	36490.71
799.32	36566.48
799.51	36201.94
799.69	36636.11
799.87	36173.27
800.05	35902.94
800.23	35974.62
800.41	35894.75
800.59	35624.42
800.77	35589.60
800.95	35565.03
801.13	35597.79
801.31	35501.54
801.49	35657.18
801.67	34917.87
801.85	35180.01
802.03	35192.30
802.21	35114.47
802.39	34612.72
802.57	34665.97
802.75	34870.76
802.93	34569.71
803.11	34473.46
803.29	34549.23
803.47	34244.09
803.65	34391.54
803.83	34504.18
804.01	34708.97
804.19	34115.06
804.37	34332.15
804.55	34334.20
804.73	34084.34
804.91	34180.60
805.09	34063.86
805.27	33586.69
805.45	33922.55
805.63	33785.34
805.81	34092.54
805.99	33527.30
806.17	33662.46
806.35	33644.03
806.53	33316.36
806.71	33437.19
806.89	33365.51
807.07	33125.89
807.25	33048.07
807.43	32923.15
807.61	33426.95
807.79	32972.30
807.97	32960.01
808.15	32779.79
808.33	32644.62
808.51	32683.53
808.69	32728.59
808.87	32263.70
809.05	32691.73
809.23	32431.63
809.41	31827.48
809.59	32224.79
809.77	32314.90
809.95	32091.67
810.13	32218.64
810.31	31972.89
810.49	31993.37
810.67	31798.81
810.84	32206.36
811.02	31766.04
811.20	31594.01
811.38	31901.21
811.56	31254.05
811.74	31602.21
811.92	31481.38
812.10	31514.14
812.28	31766.04
812.46	31286.82
812.64	31428.13
812.82	31483.42
813.00	31184.42
813.18	31497.76
813.36	31127.08
813.53	31145.51
813.71	31172.13
813.89	30961.19
814.07	30963.24
814.25	30987.82
814.43	30639.66
814.61	30557.74
814.79	30436.91
814.97	30682.67
815.15	30594.61
815.33	30430.77
815.50	30021.17
815.68	30473.78
815.86	30422.58
816.04	30256.69
816.22	30383.66
816.40	30105.14
816.58	30367.28
816.76	30260.79
816.94	30004.79
817.11	30178.87
817.29	29957.69
817.47	30037.56
817.65	30000.69
817.83	30064.18
818.01	29601.34
818.19	29519.42
818.37	29640.25
818.54	29767.23
818.72	29255.23
818.90	29787.71
819.08	29959.73
819.26	29683.26
819.44	29544.00
819.62	29400.64
819.80	29556.28
819.97	29433.41
820.15	29488.70
820.33	29466.17
820.51	29339.20
820.69	29359.68
820.87	29417.02
821.05	29359.68
821.22	29226.56
821.40	28915.27
821.58	28845.64
821.76	29120.07
821.94	28685.90
822.12	28886.60
822.29	29015.62
822.47	28784.20
822.65	28823.11
822.83	28724.81
823.01	28843.59
823.19	28526.16
823.36	28526.16
823.54	28626.51
823.72	28642.89
823.90	28610.12
824.08	28423.76
824.25	28102.23
824.43	28069.46
824.61	28413.52
824.79	28229.20
824.97	28206.67
825.15	28130.90
825.32	28223.06
825.50	28075.60
825.68	28022.36
825.86	28014.16
826.04	27784.79
826.21	28069.46
826.39	28270.16
826.57	27838.04
826.75	28051.03
826.93	27833.94
827.10	27567.71
827.28	27739.74
827.46	28108.37
827.64	27989.59
827.81	27766.36
827.99	27903.57
828.17	27539.04
828.35	27487.84
828.53	27838.04
828.70	27612.76
828.88	27563.61
829.06	27844.18
829.24	27465.31
829.41	27369.05
829.59	27623.00
829.77	27229.79
829.95	27348.57
830.12	27270.75
830.30	27520.60
830.48	27326.05
830.66	27250.27
830.84	27461.21
831.01	27297.38
831.19	27117.15
831.37	27184.74
831.55	27057.76
831.72	27149.92
831.90	27008.61
832.08	27289.18
832.25	26855.01
832.43	26777.19
832.61	26912.36
832.79	26732.14
832.96	26543.72
833.14	26658.41
833.32	26883.69
833.50	26674.79
833.67	26721.90
833.85	26861.16
834.03	26568.30
834.20	26707.56
834.38	26885.73
834.56	26758.76
834.74	26521.20
834.91	26383.98
835.09	26220.14
835.27	26365.55
835.44	26406.51
835.62	25876.09
835.80	26349.17
835.98	26386.03
836.15	25767.54
836.33	26402.41
836.51	26244.72
836.68	26039.92
836.86	26121.84
837.04	26322.54
837.21	25900.66
837.39	26310.25
837.57	26209.90
837.75	26310.25
837.92	25976.44
838.10	25831.03
838.28	25673.34
838.45	25937.52
838.63	25982.58
838.81	25482.88
838.98	25663.10
839.16	25597.56
839.34	25749.11
839.51	25788.02
839.69	25263.74
839.87	25403.00
840.04	25599.61
840.22	25865.85
840.40	25581.18
840.57	25237.12
840.75	25636.47
840.93	25149.06
841.10	25468.54
841.28	25345.66
841.46	25343.61
841.63	25237.12
841.81	25548.41
841.98	25054.85
842.16	25566.84
842.34	25493.12
842.51	25136.77
842.69	25210.50
842.87	25351.81
843.04	25529.98
843.22	25269.89
843.40	24970.88
843.57	24827.53
843.75	25185.92
843.92	25226.88
844.10	24950.40
844.28	25208.45
844.45	24921.73
844.63	24823.43
844.81	24845.96
844.98	24921.73
845.16	24700.55
845.33	24596.10
845.51	24671.88
845.69	24706.70
845.86	24551.05
846.04	24516.23
846.21	24690.31
846.39	24565.39
846.57	24563.34
846.74	24669.83
846.92	24587.91
847.09	24469.13
847.27	24401.55
847.45	24520.33
847.62	24561.29
847.80	24569.48
847.97	24616.58
848.15	24221.33
848.32	24067.73
848.50	23983.76
848.68	24190.61
848.85	24276.62
849.03	23940.75
849.20	24082.06
849.38	24241.81
849.56	24219.28
849.73	24053.39
849.91	24030.87
850.08	24114.83
850.26	23522.97
850.43	23762.58
850.61	23766.68
850.78	23846.55
850.96	23944.85
851.14	23598.74
851.31	23871.12
851.49	23735.96
851.66	23717.53
851.84	23899.80
852.01	23821.97
852.19	23869.08
852.36	23242.40
852.54	23639.70
852.71	23363.23
852.89	23432.86
853.07	23647.90
853.24	23768.73
853.42	23277.21
853.59	23494.30
853.77	23391.90
853.94	23226.01
854.12	23592.60
854.29	23273.12
854.47	23144.09
854.64	22922.91
854.82	23099.04
854.99	23064.22
855.17	23236.25
855.34	23086.75
855.52	23088.80
855.69	23193.25
855.87	23013.02
856.04	22714.02
856.22	23017.12
856.39	22566.57
856.57	23105.18
856.74	22705.83
856.92	22980.26
857.09	22754.98
857.27	22886.05
857.44	23004.83
857.62	22695.59
857.79	22771.36
857.97	22785.70
858.14	22800.04
858.32	23043.74
858.49	22693.54
858.67	22724.26
858.84	22681.25
859.02	22507.18
859.19	22298.28
859.37	22435.50
859.54	22070.96
859.72	22509.22
859.89	21986.99
860.06	22494.89
860.24	22316.72
860.41	22419.11
860.59	22177.45
860.76	22472.36
860.94	22044.34
861.11	22265.52
861.29	21950.13
861.46	22032.05
861.64	21628.60
861.81	21968.56
861.98	21921.46
862.16	22111.92
862.33	21849.78
862.51	21946.03
862.68	21831.35
862.86	21763.76
863.03	21919.41
863.21	21690.04
863.38	21696.18
863.55	21843.63
863.73	21794.48
863.90	21575.35
864.08	21520.06
864.25	21456.57
864.43	21391.03
864.60	21520.06
864.77	21321.40
864.95	21468.86
865.12	21327.55
865.30	21368.51
865.47	21425.85
865.64	21292.73
865.82	21436.09
865.99	21288.64
866.17	21173.95
866.34	21200.57
866.51	21276.35
866.69	21108.41
866.86	21096.13
867.04	20944.58
867.21	21180.09
867.38	20786.88
867.56	20856.51
867.73	20842.18
867.91	20741.83
868.08	20774.60
868.25	20780.74
868.43	20762.31
868.60	20778.69
868.78	20762.31
868.95	20928.19
869.12	20623.05
869.30	20555.46
869.47	20698.82
869.64	20520.65
869.82	20485.83
869.99	20332.23
870.16	20629.19
870.34	20203.21
870.51	20260.55
870.69	20070.09
870.86	20457.16
871.03	20461.26
871.21	20227.79
871.38	20246.22
871.55	20027.09
871.73	20088.53
871.90	20133.58
872.07	19644.12
872.25	19764.95
872.42	19805.91
872.59	20047.57
872.77	19965.65
872.94	19496.66
873.11	19936.98
873.29	19697.36
873.46	19760.85
873.63	19744.47
873.81	19619.54
873.98	19564.25
874.15	19273.43
874.33	19244.76
874.50	19095.26
874.67	19433.18
874.85	19504.85
875.02	19326.68
875.19	19107.55
875.37	19072.73
875.54	18912.99
875.71	19263.19
875.88	18814.69
876.06	18802.40
876.23	19027.68
876.40	18818.78
876.58	19070.68
876.75	18751.20
876.92	18796.26
877.10	18673.38
877.27	18644.71
877.44	18767.59
877.61	18646.76
877.79	18654.95
877.96	18593.51
878.13	18493.16
878.31	18390.76
878.48	18409.19
878.65	18433.77
878.82	18167.53
879.00	18173.67
879.17	18263.79
879.34	18239.21
879.51	17983.21
879.69	18271.98
879.86	17884.91
880.03	17854.19
880.21	17975.02
880.38	18026.22
880.55	18136.81
880.72	18112.24
880.90	17975.02
881.07	17901.29
881.24	17813.23
881.41	18018.03
881.59	17768.18
881.76	17794.80
881.93	17817.33
882.10	17651.44
882.28	17512.18
882.45	17590.00
882.62	17567.48
882.79	17735.41
882.96	17137.40
883.14	17846.00
883.31	17270.52
883.48	17635.06
883.65	17555.19
883.83	17518.32
884.00	17651.44
884.17	17383.16
884.34	17624.82
884.51	17506.04
884.69	17387.25
884.86	17352.44
885.03	17276.66
885.20	17168.12
885.38	17299.19
885.55	16963.33
885.72	17147.64
885.89	16946.94
886.06	17215.23
886.24	17313.53
886.41	16994.04
886.58	17204.99
886.75	16992.00
886.92	16754.43
887.10	17045.24
887.27	16711.42
887.44	16912.13
887.61	16953.09
887.78	16918.27
887.95	16930.56
888.13	16658.18
888.30	16815.87
888.47	16527.11
888.64	16551.68
888.81	16600.83
888.99	16410.37
889.16	16238.34
889.33	16488.20
889.50	16293.64
889.67	16539.40
889.84	16408.33
890.01	16662.27
890.19	16420.61
890.36	16346.89
890.53	16455.43
890.70	16332.55
890.87	16254.73
891.04	15912.72
891.22	16090.89
891.39	16301.83
891.56	16092.94
891.73	16086.79
891.90	16015.12
892.07	16060.17
892.24	16008.97
892.42	16033.55
892.59	15978.25
892.76	15714.06
892.93	15748.88
893.10	15963.92
893.27	15599.38
893.44	15847.18
893.61	15769.36
893.79	15814.41
893.96	15660.82
894.13	15900.43
894.30	15820.56
894.47	15836.94
894.64	15599.38
894.81	15615.76
894.98	15638.29
895.15	15650.58
895.33	15279.89
895.50	15394.58
895.67	15445.78
895.84	15615.76
896.01	15519.51
896.18	15695.63
896.35	15744.78
896.52	15451.92
896.69	15748.88
896.86	15689.49
897.04	15621.91
897.21	15570.71
897.38	15245.08
897.55	15488.79
897.72	15462.16
897.89	15343.38
898.06	15656.72
898.23	15519.51
898.40	15384.34
898.57	15423.25
898.74	15419.16
898.91	15243.03
899.08	15406.87
899.26	15216.41
899.43	15582.99
899.60	15259.42
899.77	15091.48
899.94	15349.53
900.11	15240.98
900.28	15341.33
900.45	15148.82
900.62	15265.56
900.79	15435.54
900.96	15314.71
901.13	15197.98
901.30	15060.76
901.47	15265.56
901.64	15353.62
901.81	15261.46
901.98	15011.61
902.15	15294.23
902.32	15097.63
902.49	15030.04
902.66	15056.67
902.83	15216.41
903.01	15130.39
903.18	15214.36
903.35	15212.31
903.52	15146.78
903.69	15337.24
903.86	15238.94
904.03	15234.84
904.20	15267.61
904.37	15296.28
904.54	15165.21
904.71	15103.77
904.88	15308.57
905.05	15214.36
905.22	15058.71
905.39	15126.30
905.56	14937.88
905.73	15017.75
905.90	15283.99
906.07	14907.16
906.24	15109.91
906.41	14898.97
906.58	15126.30
906.75	15027.99
906.92	14993.18
907.09	15169.30
907.26	15021.85
907.43	14917.40
907.60	15032.09
907.77	15071.00
907.93	14745.38
908.10	14987.04
908.27	15099.67
908.44	15052.57
908.61	14798.62
908.78	15044.38
908.95	15005.47
909.12	14860.06
909.29	14874.40
909.46	15120.15
909.63	14980.89
909.80	14866.21
909.97	14923.55
910.14	14651.17
910.31	14876.44
910.48	14907.16
910.65	14751.52
910.82	14702.37
910.99	14829.34
911.16	14614.30
911.33	14659.36
911.50	14503.71
911.66	14608.16
911.83	14683.94
912.00	14522.15
912.17	14331.69
912.34	14651.17
912.51	14391.08
912.68	14397.22
912.85	14329.64
913.02	14487.33
913.19	14538.53
913.36	14491.43
913.53	14370.60
913.70	14182.18
913.86	14655.26
914.03	14589.73
914.20	14415.65
914.37	14241.57
914.54	14255.91
914.71	14407.46
914.88	14044.97
915.05	14063.40
915.22	13883.18
915.39	14161.70
915.55	13930.28
915.72	14008.11
915.89	14018.35
916.06	13913.90
916.23	13975.34
916.40	13799.21
916.57	13907.76
916.74	13727.53
916.91	14004.01
917.07	13928.24
917.24	13842.22
917.41	13659.95
917.58	13862.70
917.75	13535.03
917.92	13514.55
918.09	13449.01
918.26	13596.46
918.42	13475.63
918.59	13512.50
918.76	13248.31
918.93	13127.48
919.10	13326.13
919.27	13152.06
919.44	13270.84
919.60	13049.66
919.77	13299.51
919.94	13219.64
920.11	12916.54
920.28	12947.26
920.45	12881.72
920.61	12771.13
920.78	12801.85
920.95	12980.03
921.12	12855.10
921.29	12736.32
921.46	12549.95
921.62	12558.14
921.79	12566.34
921.96	12590.91
922.13	12560.19
922.30	12347.20
922.47	12410.69
922.63	12255.04
922.80	12193.61
922.97	12449.60
923.14	12265.28
923.31	12359.49
923.47	12146.50
923.64	12439.36
923.81	12273.48
923.98	12031.82
924.15	12013.38
924.32	12093.26
924.48	12089.16
924.65	11900.75
924.82	11865.93
924.99	11884.36
925.15	11767.63
925.32	11736.91
925.49	11646.80
925.66	11618.13
925.83	11476.82
925.99	11568.98
926.16	11495.25
926.33	11448.15
926.50	11317.08
926.67	11489.10
926.83	11454.29
927.00	11306.84
927.17	11140.95
927.34	11196.25
927.50	11063.13
927.67	11421.52
927.84	11167.57
928.01	11312.98
928.17	10923.87
928.34	10948.44
928.51	10911.58
928.68	10858.33
928.84	10751.84
929.01	10704.73
929.18	10727.26
929.35	10800.99
929.51	10727.26
929.68	10332.00
929.85	10407.78
930.02	10413.92
930.18	10549.09
930.35	10469.22
930.52	10256.23
930.69	10272.61
930.85	10356.58
931.02	10145.64
931.19	10110.82
931.36	10159.97
931.52	10133.35
931.69	10284.90
931.86	10039.14
932.02	10022.76
932.19	9942.89
932.36	9727.85
932.53	9914.22
932.69	9881.45
932.86	9949.03
933.03	9805.67
933.19	9594.73
933.36	9580.40
933.53	9842.54
933.70	9543.53
933.86	9404.27
934.03	9398.13
934.20	9400.18
934.36	9383.79
934.53	9236.34
934.70	9144.18
934.86	9373.55
935.03	8966.01
935.20	8984.44
935.36	9129.84
935.53	8908.66
935.70	8728.44
935.86	8783.74
936.03	8550.27
936.20	8554.37
936.36	8380.29
936.53	8515.45
936.70	8398.72
936.86	8507.26
937.03	8357.76
937.20	8093.57
937.36	8298.37
937.53	7747.47
937.70	7856.01
937.86	7784.33
938.03	7749.51
938.20	7763.85
938.36	7458.70
938.53	7542.67
938.70	7458.70
938.86	7446.41
939.03	7350.16
939.20	7341.97
939.36	7167.89
939.53	7221.14
939.70	7321.49
939.86	6995.86
940.03	6911.89
940.19	6723.48
940.36	6768.54
940.53	6750.10
940.69	6569.88
940.86	6700.95
941.03	6434.72
941.19	6557.60
941.36	6352.80
941.52	6434.72
941.69	6279.07
941.86	6197.15
942.02	6123.43
942.19	5996.45
942.35	6014.88
942.52	5926.82
942.69	5801.90
942.85	5869.48
943.02	5765.03
943.18	6006.69
943.35	5808.04
943.52	5826.47
943.68	5582.76
943.85	5779.37
944.01	5611.43
944.18	5658.54
944.35	5500.84
944.51	5404.59
944.68	5533.61
944.84	5392.30
945.01	5441.45
945.17	5418.93
945.34	5361.58
945.51	5367.73
945.67	5375.92
945.84	5271.47
946.00	5275.57
946.17	5365.68
946.33	5203.89
946.50	5246.90
946.67	5230.51
946.83	5302.19
947.00	5091.25
947.16	5369.77
947.33	5197.74
947.49	5285.81
947.66	5179.31
947.82	5322.67
947.99	5201.84
948.16	5296.05
948.32	5285.81
948.49	5216.18
948.65	5328.81
948.82	5224.37
948.98	5271.47
949.15	5205.94
949.31	5328.81
949.48	5326.77
949.64	5328.81
949.81	5367.73
949.97	5351.34
950.14	5285.81
950.30	5138.35
950.47	5408.69
950.63	5314.48
950.80	5279.66
950.96	5365.68
951.13	5255.09
951.30	5316.53
951.46	5365.68
951.63	5531.56
951.79	5398.45
951.96	5414.83
952.12	5371.82
952.29	5425.07
952.45	5343.15
952.62	5386.16
952.78	5369.77
952.94	5324.72
953.11	5341.10
953.27	5392.30
953.44	5482.41
953.60	5439.40
953.77	5353.39
953.93	5490.60
954.10	5263.28
954.26	5480.36
954.43	5435.31
954.59	5558.19
954.76	5484.46
954.92	5541.80
955.09	5519.28
955.25	5461.93
955.42	5509.04
955.58	5521.32
955.75	5498.80
955.91	5355.44
956.07	5478.32
956.24	5615.53
956.40	5517.23
956.57	5590.95
956.73	5517.23
956.90	5463.98
957.06	5562.28
957.23	5390.25
957.39	5463.98
957.56	5554.09
957.72	5519.28
957.88	5371.82
958.05	5672.87
958.21	5568.43
958.38	5550.00
958.54	5494.70
958.71	5586.86
958.87	5484.46
959.03	5609.39
959.20	5566.38
959.36	5478.32
959.53	5347.25
959.69	5461.93
959.85	5472.17
960.02	5492.65
960.18	5498.80
960.35	5474.22
960.51	5550.00
960.68	5296.05
960.84	5492.65
961.00	5568.43
961.17	5502.89
961.33	5406.64
961.50	5451.69
961.66	5412.78
961.82	5459.88
961.99	5597.10
962.15	5328.81
962.31	5509.04
962.48	5476.27
962.64	5455.79
962.81	5343.15
962.97	5576.62
963.13	5392.30
963.30	5515.18
963.46	5402.54
963.62	5500.84
963.79	5330.86
963.95	5398.45
964.12	5087.15
964.28	5478.32
964.44	5259.18
964.61	5437.36
964.77	5517.23
964.93	5500.84
965.10	5443.50
965.26	5556.14
965.42	5408.69
965.59	5238.70
965.75	5353.39
965.92	5361.58
966.08	5316.53
966.24	5408.69
966.41	5427.12
966.57	5433.26
966.73	5277.62
966.90	5476.27
967.06	5394.35
967.22	5361.58
967.39	5277.62
967.55	5255.09
967.71	5285.81
967.88	5171.12
968.04	5240.75
968.20	5121.97
968.37	5279.66
968.53	5240.75
968.69	5377.97
968.85	5228.46
969.02	5283.76
969.18	5326.77
969.34	5087.15
969.51	5130.16
969.67	5210.03
969.83	5140.40
970.00	5296.05
970.16	5201.84
970.32	5132.21
970.48	5179.31
970.65	5042.10
970.81	4995.00
970.97	5066.67
971.14	5025.72
971.30	5126.07
971.46	5050.29
971.63	5066.67
971.79	5181.36
971.95	5011.38
972.11	5046.20
972.28	5056.43
972.44	5283.76
972.60	4890.55
972.76	5124.02
972.93	4800.44
973.09	5040.05
973.25	5025.72
973.42	4964.28
973.58	5173.17
973.74	4935.60
973.90	4872.12
974.07	4906.93
974.23	4937.65
974.39	4931.51
974.55	4882.36
974.72	4904.89
974.88	4843.45
975.04	5050.29
975.20	4919.22
975.37	4908.98
975.53	4835.25
975.69	4874.17
975.85	4853.69
976.01	4736.95
976.18	4722.62
976.34	4755.38
976.50	4888.50
976.66	5095.35
976.83	4818.87
976.99	4915.12
977.15	4851.64
977.31	4642.75
977.47	4810.68
977.64	4702.14
977.80	4648.89
977.96	4636.60
978.12	4652.98
978.29	4628.41
978.45	4618.17
978.61	4548.54
978.77	4708.28
978.93	4562.87
979.10	4487.10
979.26	4620.22
979.42	4702.14
979.58	4417.47
979.74	4478.91
979.91	4526.01
980.07	4571.07
980.23	4579.26
980.39	4665.27
980.55	4614.07
980.71	4581.31
980.88	4452.28
981.04	4548.54
981.20	4466.62
981.36	4478.91
981.52	4528.06
981.68	4442.04
981.85	4532.15
982.01	4405.18
982.17	4431.80
982.33	4458.43
982.49	4548.54
982.65	4450.24
982.82	4399.04
982.98	4444.09
983.14	4239.30
983.30	4423.61
983.46	4337.60
983.62	4417.47
983.79	4239.30
983.95	4386.75
984.11	4245.44
984.27	4382.65
984.43	4321.21
984.59	4446.14
984.75	4325.31
984.91	4306.88
985.08	4198.34
985.24	4153.28
985.40	4274.11
985.56	4190.14
985.72	4251.58
985.88	4231.10
986.04	4102.08
986.20	4173.76
986.37	4231.10
986.53	4147.14
986.69	4206.53
986.85	4138.94
987.01	4087.75
987.17	4149.18
987.33	4016.07
987.49	4095.94
987.65	4108.23
987.82	4138.94
987.98	3999.68
988.14	4040.64
988.30	4116.42
988.46	4022.21
988.62	4167.62
988.78	3966.92
988.94	4014.02
989.10	4001.73
989.26	3712.97
989.42	4083.65
989.59	3858.37
989.75	3758.02
989.91	3897.28
990.07	3690.44
990.23	3921.86
990.39	3866.56
990.55	3913.67
990.71	3733.45
990.87	3762.12
991.03	4042.69
991.19	3846.09
991.35	3823.56
991.51	3801.03
991.67	3915.72
991.83	3870.66
992.00	3876.80
992.16	3885.00
992.32	3778.50
992.48	3758.02
992.64	3641.29
992.80	3807.17
992.96	3801.03
993.12	3643.34
993.28	3770.31
993.44	3684.30
993.60	3639.24
993.76	3704.78
993.92	3635.14
994.08	3751.88
994.24	3792.84
994.40	3561.42
994.56	3782.60
994.72	3557.32
994.88	3661.77
995.04	3618.76
995.20	3622.86
995.36	3477.45
995.52	3651.53
995.68	3680.20
995.84	3499.98
996.00	3731.40
996.16	3540.94
996.32	3547.08
996.48	3491.79
996.64	3514.31
996.80	3422.16
996.96	3487.69
997.12	3444.68
997.28	3413.96
997.44	3514.31
997.60	3508.17
997.76	3461.07
997.92	3452.88
998.08	3524.55
998.24	3354.57
998.40	3463.12
998.56	3356.62
998.72	3336.14
998.88	3352.52
999.04	3379.15
999.20	3485.64
999.36	3407.82
999.52	3512.27
999.68	3256.27
999.84	3459.02
1000.00	3354.57
1000.16	3315.66
1000.32	3330.00
1000.48	3473.36
1000.64	3241.93
1000.80	3258.32
1000.95	3215.31
1001.11	3280.85
1001.27	3248.08
1001.43	3256.27
1001.59	3114.96
1001.75	3157.97
1001.91	3194.83
1002.07	3174.35
1002.23	3272.65
1002.39	3196.88
1002.55	3102.67
1002.71	3088.34
1002.87	3227.60
1003.03	3076.05
1003.19	3151.82
1003.34	3196.88
1003.50	3141.58
1003.66	3248.08
1003.82	3076.05
1003.98	3022.80
1004.14	3114.96
1004.30	3063.76
1004.46	3153.87
1004.62	3133.39
1004.78	3119.06
1004.94	3145.68
1005.09	3071.95
1005.25	3071.95
1005.41	2998.23
1005.57	3071.95
1005.73	3039.19
1005.89	2985.94
1006.05	3076.05
1006.21	3092.43
1006.37	2883.54
1006.52	3051.47
1006.68	2885.59
1006.84	2992.08
1007.00	2961.36
1007.16	2977.75
1007.32	2934.74
1007.48	2867.16
1007.64	2947.03
1007.79	2936.79
1007.95	2959.31
1008.11	3026.90
1008.27	2940.88
1008.43	2926.55
1008.59	2834.39
1008.75	2938.84
1008.91	2897.88
1009.06	2801.62
1009.22	2850.77
1009.38	2969.55
1009.54	2762.71
1009.70	2779.09
1009.86	2826.20
1010.01	2920.40
1010.17	2867.16
1010.33	2897.88
1010.49	2832.34
1010.65	2914.26
1010.81	2772.95
1010.96	2897.88
1011.12	2731.99
1011.28	2750.42
1011.44	2686.94
1011.60	2779.09
1011.76	2746.33
1011.91	2828.24
1012.07	2625.50
1012.23	2623.45
1012.39	2641.88
1012.55	2738.13
1012.71	2785.24
1012.86	2635.74
1013.02	2701.27
1013.18	2607.06
1013.34	2717.65
1013.50	2707.41
1013.65	2691.03
1013.81	2641.88
1013.97	2529.24
1014.13	2596.82
1014.29	2648.02
1014.44	2705.37
1014.60	2605.02
1014.76	2699.22
1014.92	2617.30
1015.07	2596.82
1015.23	2596.82
1015.39	2607.06
1015.55	2615.26
1015.71	2519.00
1015.86	2598.87
1016.02	2570.20
1016.18	2410.46
1016.34	2564.06
1016.49	2572.25
1016.65	2600.92
1016.81	2457.56
1016.97	2486.23
1017.12	2600.92
1017.28	2555.86
1017.44	2443.23
1017.60	2527.19
1017.75	2432.99
1017.91	2484.19
1018.07	2480.09
1018.23	2459.61
1018.38	2445.27
1018.54	2453.47
1018.70	2418.65
1018.86	2416.60
1019.01	2469.85
1019.17	2486.23
1019.33	2537.43
1019.49	2445.27
1019.64	2392.03
1019.80	2461.66
1019.96	2392.03
1020.12	2371.55
1020.27	2328.54
1020.43	2432.99
1020.59	2322.40
1020.74	2420.70
1020.90	2453.47
1021.06	2334.68
1021.22	2387.93
1021.37	2340.83
1021.53	2289.63
1021.69	2291.68
1021.84	2246.62
1022.00	2359.26
1022.16	2248.67
1022.31	2250.72
1022.47	2344.92
1022.63	2453.47
1022.79	2228.19
1022.94	2250.72
1023.10	2351.07
1023.26	2275.29
1023.41	2273.25
1023.57	2301.92
1023.73	2355.16
1023.88	2312.16
1024.04	2263.01
1024.20	2303.96
1024.35	2222.05
1024.51	2320.35
1024.67	2244.57
1024.82	2297.82
1024.98	2193.37
1025.14	2349.02
1025.29	2185.18
1025.45	2232.29
1025.61	2090.98
1025.76	2246.62
1025.92	2275.29
1026.08	2236.38
1026.23	2293.72
1026.39	2217.95
1026.55	2154.46
1026.70	2125.79
1026.86	2115.55
1027.02	2215.90
1027.17	2283.49
1027.33	2166.75
1027.48	2105.31
1027.64	2125.79
1027.80	2136.03
1027.95	2230.24
1028.11	2068.45
1028.27	2199.52
1028.42	2111.46
1028.58	2076.64
1028.73	2129.89
1028.89	2119.65
1029.05	2215.90
1029.20	2174.94
>>>>>End Processed Spectral Data<<<<<
