SpectraSuite Data File
++++++++++++++++++++++++++++++++++++
Date: Fri Jun 02 14:44:32 CEST 2017
User: INFO_000
Dark Spectrum Present: No
Reference Spectrum Present: No
Number of Sampled Component Spectra: 1
Spectrometers: USB4H00879
Integration Time (usec): 80000 (USB4H00879)
Spectra Averaged: 1 (USB4H00879)
Boxcar Smoothing: 0 (USB4H00879)
Correct for Electrical Dark: No (USB4H00879)
Strobe/Lamp Enabled: No (USB4H00879)
Correct for Detector Non-linearity: No (USB4H00879)
Correct for Stray Light: No (USB4H00879)
Number of Pixels in Processed Spectrum: 3648
>>>>>Begin Processed Spectral Data<<<<<
345.13	1275.88
345.34	1275.88
345.56	1275.88
345.78	1286.12
345.99	1275.88
346.21	1732.58
346.42	1632.23
346.64	1679.33
346.86	1814.50
347.07	1609.70
347.29	1763.30
347.50	1574.89
347.72	1642.47
347.94	1773.54
348.15	1589.22
348.37	1576.94
348.59	1718.25
348.80	1658.85
349.02	1757.16
349.23	1898.47
349.45	1748.97
349.67	1832.93
349.88	1744.87
350.10	1880.04
350.31	1734.63
350.53	1771.49
350.75	1929.19
350.96	1708.01
351.18	1759.21
351.39	1781.73
351.61	1785.83
351.82	1798.12
352.04	1800.16
352.26	1828.84
352.47	1843.17
352.69	1855.46
352.90	1728.49
353.12	1828.84
353.34	1804.26
353.55	1818.60
353.77	1800.16
353.98	1722.34
354.20	1738.73
354.41	1849.32
354.63	1839.08
354.85	2021.35
355.06	1841.12
355.28	1736.68
355.49	1867.75
355.71	1837.03
355.92	1855.46
356.14	1902.56
356.35	1787.88
356.57	1896.42
356.79	1904.61
357.00	1740.77
357.22	1955.81
357.43	1816.55
357.65	1941.47
357.86	1800.16
358.08	1914.85
358.29	1935.33
358.51	1953.76
358.72	1964.00
358.94	1841.12
359.16	1841.12
359.37	1890.28
359.59	1843.17
359.80	1882.08
360.02	1992.67
360.23	1906.66
360.45	1959.91
360.66	1902.56
360.88	1828.84
361.09	1884.13
361.31	1892.32
361.52	1937.38
361.74	2015.20
361.95	1970.15
362.17	1886.18
362.38	2027.49
362.60	2019.30
362.81	1902.56
363.03	1849.32
363.24	1961.95
363.46	2064.35
363.67	1888.23
363.89	1898.47
364.10	1976.29
364.32	1912.80
364.53	2011.11
364.75	1791.97
364.96	1959.91
365.18	2000.87
365.39	1998.82
365.61	1910.75
365.82	2064.35
366.04	1912.80
366.25	1847.27
366.47	2019.30
366.68	1990.63
366.90	1902.56
367.11	1974.24
367.33	2074.59
367.54	1994.72
367.76	1998.82
367.97	2056.16
368.19	1961.95
368.40	2111.46
368.62	1974.24
368.83	1955.81
369.05	1984.48
369.26	1925.09
369.48	1806.31
369.69	1949.67
369.91	2015.20
370.12	1990.63
370.33	2066.40
370.55	1955.81
370.76	2002.91
370.98	2023.39
371.19	1988.58
371.41	2000.87
371.62	2056.16
371.84	2015.20
372.05	2058.21
372.27	2058.21
372.48	2076.64
372.69	2004.96
372.91	2148.32
373.12	2033.63
373.34	2041.82
373.55	2039.78
373.77	2129.89
373.98	2037.73
374.20	2140.13
374.41	2160.61
374.62	2078.69
374.84	2160.61
375.05	2170.85
375.27	2152.42
375.48	2189.28
375.70	2136.03
375.91	2133.98
376.12	2285.53
376.34	2127.84
376.55	2109.41
376.77	2162.66
376.98	2117.60
377.19	2158.56
377.41	2172.89
377.62	2133.98
377.84	2211.81
378.05	2332.64
378.27	2148.32
378.48	2260.96
378.69	2334.68
378.91	2295.77
379.12	2271.20
379.34	2246.62
379.55	2320.35
379.76	2248.67
379.98	2148.32
380.19	2240.48
380.41	2250.72
380.62	2316.25
380.83	2273.25
381.05	2203.61
381.26	2396.12
381.47	2287.58
381.69	2293.72
381.90	2439.13
382.12	2330.59
382.33	2250.72
382.54	2252.77
382.76	2279.39
382.97	2330.59
383.19	2246.62
383.40	2355.16
383.61	2344.92
383.83	2220.00
384.04	2330.59
384.25	2392.03
384.47	2408.41
384.68	2373.60
384.89	2342.88
385.11	2299.87
385.32	2422.75
385.54	2383.84
385.75	2404.32
385.96	2324.44
386.18	2361.31
386.39	2443.23
386.60	2371.55
386.82	2385.88
387.03	2424.80
387.24	2482.14
387.46	2488.28
387.67	2435.03
387.88	2437.08
388.10	2523.10
388.31	2482.14
388.52	2590.68
388.74	2586.58
388.95	2498.52
389.16	2508.76
389.38	2486.23
389.59	2672.60
389.80	2654.17
390.02	2553.82
390.23	2645.98
390.44	2562.01
390.66	2498.52
390.87	2592.73
391.08	2541.53
391.30	2699.22
391.51	2656.22
391.72	2688.98
391.94	2674.65
392.15	2592.73
392.36	2643.93
392.58	2500.57
392.79	2648.02
393.00	2768.85
393.22	2598.87
393.43	2688.98
393.64	2865.11
393.85	2842.58
394.07	2658.26
394.28	2756.57
394.49	2731.99
394.71	2811.86
394.92	2867.16
395.13	2697.17
395.35	2756.57
395.56	2775.00
395.77	2777.05
395.98	2758.61
396.20	2889.68
396.41	2813.91
396.62	2973.65
396.84	2895.83
397.05	2856.92
397.26	2848.72
397.47	2930.64
397.69	2844.63
397.90	3074.00
398.11	2901.97
398.32	2983.89
398.54	2838.48
398.75	3002.32
398.96	2834.39
399.18	3057.62
399.39	2926.55
399.60	3030.99
399.81	2867.16
400.03	2973.65
400.24	3336.14
400.45	2971.60
400.66	3149.78
400.88	3018.71
401.09	3188.69
401.30	3008.47
401.51	3196.88
401.73	3235.79
401.94	3045.33
402.15	3071.95
402.36	3172.30
402.58	3182.54
402.79	3190.74
403.00	3157.97
403.21	3250.13
403.43	3213.26
403.64	3297.23
403.85	3256.27
404.06	3266.51
404.27	3131.34
404.49	3174.35
404.70	3180.50
404.91	3291.09
405.12	3248.08
405.34	3243.98
405.55	3418.06
405.76	3096.53
405.97	3227.60
406.19	3526.60
406.40	3246.03
406.61	3356.62
406.82	3413.96
407.03	3278.80
407.25	3307.47
407.46	3452.88
407.67	3430.35
407.88	3436.49
408.09	3309.52
408.31	3395.53
408.52	3370.96
408.73	3368.91
408.94	3332.05
409.15	3459.02
409.37	3581.90
409.58	3569.61
409.79	3563.47
410.00	3571.66
410.21	3403.72
410.43	3608.52
410.64	3356.62
410.85	3557.32
411.06	3528.65
411.27	3477.45
411.48	3655.62
411.70	3647.43
411.91	3629.00
412.12	3764.17
412.33	3614.66
412.54	3518.41
412.76	3712.97
412.97	3770.31
413.18	3583.95
413.39	3667.91
413.60	3653.58
413.81	3667.91
414.03	3575.75
414.24	3653.58
414.45	3837.89
414.66	3647.43
414.87	3743.69
415.08	3635.14
415.30	3780.55
415.51	3764.17
415.72	3710.92
415.93	3741.64
416.14	3731.40
416.35	3821.51
416.56	3731.40
416.78	3862.47
416.99	3846.09
417.20	3807.17
417.41	3909.57
417.62	3901.38
417.83	3885.00
418.04	3919.81
418.26	3885.00
418.47	4097.99
418.68	4108.23
418.89	4079.55
419.10	4108.23
419.31	3917.76
419.52	4014.02
419.73	4030.40
419.95	3971.01
420.16	3999.68
420.37	4032.45
420.58	4118.47
420.79	3952.58
421.00	4140.99
421.21	4165.57
421.42	4005.83
421.63	4114.37
421.85	4059.07
422.06	4327.36
422.27	4294.59
422.48	4104.13
422.69	4259.78
422.90	4186.05
423.11	4403.13
423.32	4335.55
423.53	4501.44
423.75	4319.17
423.96	4491.20
424.17	4503.48
424.38	4562.87
424.59	4583.35
424.80	4677.56
425.01	4433.85
425.22	4392.89
425.43	4503.48
425.64	4663.22
425.85	4730.81
426.06	4468.67
426.28	4687.80
426.49	4513.72
426.70	4675.51
426.91	4564.92
427.12	4734.90
427.33	4732.86
427.54	4655.03
427.75	4747.19
427.96	4863.93
428.17	4804.53
428.38	4892.60
428.59	4945.84
428.80	4763.58
429.01	4804.53
429.23	4865.97
429.44	5099.44
429.65	4992.95
429.86	5001.14
430.07	4870.07
430.28	4929.46
430.49	5091.25
430.70	5246.90
430.91	5099.44
431.12	5035.96
431.33	5189.55
431.54	5236.66
431.75	5013.43
431.96	5253.04
432.17	5048.24
432.38	5068.72
432.59	5437.36
432.80	5418.93
433.01	5363.63
433.22	5281.71
433.43	5320.62
433.64	5400.49
433.85	5263.28
434.06	5550.00
434.27	5312.43
434.49	5420.97
434.70	5652.39
434.91	5457.84
435.12	5590.95
435.33	5441.45
435.54	5488.56
435.75	5459.88
435.96	5398.45
436.17	5496.75
436.38	5633.96
436.59	5613.48
436.80	5345.20
437.01	5889.96
437.22	5875.62
437.43	5679.02
437.64	5463.98
437.85	5795.75
438.06	5877.67
438.27	5775.27
438.48	5754.79
438.69	5894.05
438.90	5820.33
439.11	5793.70
439.32	5820.33
439.53	5994.40
439.74	5918.63
439.95	5885.86
440.16	5834.66
440.37	5826.47
440.57	5949.35
440.78	6102.95
440.99	5973.92
441.20	6137.76
441.41	5840.81
441.62	6092.71
441.83	5795.75
442.04	6123.43
442.25	6113.19
442.46	6201.25
442.67	6391.71
442.88	6578.08
443.09	6004.64
443.30	6219.68
443.51	6404.00
443.72	6487.96
443.93	6315.94
444.14	6451.10
444.35	6010.79
444.56	6410.14
444.77	6332.32
444.98	6363.04
445.19	6502.30
445.40	6477.73
445.61	6289.31
445.81	6520.73
446.02	6664.09
446.23	6520.73
446.44	6514.59
446.65	6508.44
446.86	6549.40
447.07	6549.40
447.28	6870.94
447.49	6616.99
447.70	6659.99
447.91	6666.14
448.12	6655.90
448.33	6862.74
448.54	6827.93
448.74	6643.61
448.95	6741.91
449.16	6696.86
449.37	7081.88
449.58	6774.68
449.79	7184.27
450.00	6717.34
450.21	7020.44
450.42	7188.37
450.63	6975.38
450.84	6866.84
451.05	7165.84
451.25	7159.70
451.46	7045.01
451.67	7288.72
451.88	7413.65
452.09	7286.67
452.30	7169.94
452.51	7268.24
452.72	7477.13
452.93	7708.55
453.13	7102.36
453.34	7495.57
453.55	7321.49
453.76	7368.59
453.97	7765.90
454.18	7368.59
454.39	7692.17
454.60	7571.34
454.81	7487.37
455.01	7772.04
455.22	7493.52
455.43	7708.55
455.64	7810.95
455.85	7784.33
456.06	8114.05
456.27	7806.86
456.48	7729.03
456.68	8011.65
456.89	8046.47
457.10	7933.83
457.31	8030.09
457.52	8241.03
457.73	8040.33
457.94	8163.20
458.14	8122.24
458.35	8365.95
458.56	8435.58
458.77	8281.99
458.98	8406.91
459.19	8394.62
459.39	8359.81
459.60	8679.29
459.81	8474.49
460.02	8550.27
460.23	8427.39
460.44	8841.08
460.65	8664.96
460.85	8767.35
461.06	8896.38
461.27	8564.61
461.48	9062.26
461.69	9049.97
461.89	8759.16
462.10	9035.64
462.31	8802.17
462.52	9019.25
462.73	8886.14
462.94	9242.48
463.14	9162.61
463.35	9039.73
463.56	9422.70
463.77	9375.60
463.98	9258.87
464.18	9428.85
464.39	9594.73
464.60	9713.52
464.81	9715.56
465.02	9514.86
465.23	9783.15
465.43	9596.78
465.64	9834.35
465.85	9834.35
466.06	9914.22
466.27	10198.88
466.47	9936.74
466.68	9998.18
466.89	9922.41
467.10	10262.37
467.30	9971.56
467.51	10428.26
467.72	10454.88
467.93	10178.40
468.14	10524.51
468.34	10620.77
468.55	10786.65
468.76	10387.30
468.97	10592.09
469.17	10872.67
469.38	10907.48
469.59	11024.22
469.80	10653.53
470.01	10970.97
470.21	11046.74
470.42	11286.36
470.63	11407.19
470.84	11171.67
471.04	11433.81
471.25	11362.13
471.46	11425.62
471.67	11620.17
471.87	11497.30
472.08	11788.11
472.29	12046.15
472.50	11415.38
472.70	11810.64
472.91	11988.81
473.12	12029.77
473.33	12107.59
473.53	12304.20
473.74	11921.23
473.95	12523.33
474.16	12361.54
474.36	12488.51
474.57	12586.82
474.78	12754.75
474.99	12756.80
475.19	12693.31
475.40	12838.72
475.61	13074.23
475.81	13170.49
476.02	13279.03
476.23	13174.58
476.44	13264.69
476.64	13506.35
476.85	13694.77
477.06	13641.52
477.27	14028.59
477.47	13897.52
477.68	13815.60
477.89	14128.94
478.09	14057.26
478.30	14028.59
478.51	14311.21
478.71	14378.79
478.92	14448.42
479.13	14565.15
479.34	14704.42
479.54	14849.82
479.75	14860.06
479.96	14698.27
480.16	14917.40
480.37	15226.65
480.58	15208.22
480.78	15230.74
480.99	15335.19
481.20	15474.45
481.41	15445.78
481.61	15767.31
481.82	15822.61
482.03	15648.53
482.23	16035.60
482.44	15869.71
482.65	16008.97
482.85	16215.82
483.06	16340.74
483.27	16252.68
483.47	16398.09
483.68	16592.64
483.89	16639.75
484.09	16611.07
484.30	16967.42
484.51	16877.31
484.71	17014.52
484.92	16783.10
485.13	17284.86
485.33	17121.02
485.54	17293.05
485.75	17432.31
485.95	17628.92
486.16	17610.48
486.37	17899.25
486.57	17624.82
486.78	18013.93
486.98	17792.75
487.19	18140.91
487.40	18185.96
487.60	18083.56
487.81	18280.17
488.02	18439.91
488.22	18153.20
488.43	18726.63
488.64	18482.92
488.84	18683.62
489.05	19093.21
489.25	18861.79
489.46	19238.62
489.67	18927.33
489.87	19140.32
490.08	19484.37
490.29	19330.78
490.49	19625.68
490.70	19474.13
490.90	19717.84
491.11	19750.61
491.32	19658.45
491.52	19824.34
491.73	19637.97
491.94	20047.57
492.14	20088.53
492.35	20561.61
492.55	20453.06
492.76	20315.85
492.97	20801.22
493.17	20645.57
493.38	20481.74
493.58	20846.27
493.79	20852.42
494.00	20715.20
494.20	21003.97
494.41	21239.48
494.61	21204.67
494.82	21178.04
495.02	21391.03
495.23	21483.19
495.44	21640.89
495.64	21550.78
495.85	21827.25
496.05	21966.51
496.26	21997.23
496.47	22257.32
496.67	22093.49
496.88	22195.89
497.08	21917.36
497.29	22273.71
497.49	22367.91
497.70	22367.91
497.91	22314.67
498.11	22484.65
498.32	22736.55
498.52	22916.77
498.73	23193.25
498.93	22892.19
499.14	22920.87
499.34	23215.77
499.55	23318.17
499.76	23137.95
499.96	23152.29
500.17	23371.42
500.37	23674.52
500.58	23684.76
500.78	23928.47
500.99	23553.69
501.19	23938.71
501.40	23879.32
501.60	23756.44
501.81	23932.56
502.02	24022.67
502.22	23830.16
502.43	24092.30
502.63	24477.32
502.84	24358.54
503.04	24546.95
503.25	24239.76
503.45	24612.49
503.66	24741.51
503.86	24737.41
504.07	24917.64
504.27	24620.68
504.48	25108.10
504.68	25071.23
504.89	25269.89
505.09	25118.34
505.30	25122.43
505.50	25337.47
505.71	25134.72
505.91	25351.81
506.12	25364.09
506.32	25370.24
506.53	25325.18
506.73	25554.55
506.94	25562.75
507.14	25433.72
507.35	25728.63
507.55	25800.31
507.76	26052.21
507.96	25796.21
508.17	25937.52
508.37	26140.27
508.58	26107.51
508.78	26228.34
508.99	26556.01
509.19	26433.13
509.40	26822.25
509.60	26568.30
509.81	26689.13
510.01	26695.27
510.22	26289.77
510.42	26558.06
510.63	26525.29
510.83	26660.46
511.04	26963.56
511.24	26984.04
511.44	26607.21
511.65	26969.70
511.85	26887.78
512.06	27043.43
512.26	27129.44
512.47	27184.74
512.67	27317.86
512.88	27143.78
513.08	27268.70
513.29	27438.69
513.49	27166.31
513.69	27584.09
513.90	27809.37
514.10	27637.34
514.31	27657.82
514.51	27776.60
514.72	27629.15
514.92	27551.32
515.13	27782.74
515.33	27668.06
515.53	27823.70
515.74	28024.40
515.94	28497.49
516.15	28151.38
516.35	27989.59
516.56	28165.71
516.76	28401.23
516.96	28458.57
517.17	28651.08
517.37	28581.45
517.58	28393.04
517.78	28454.48
517.99	28573.26
518.19	28505.68
518.39	28696.14
518.60	28882.50
518.80	28968.52
519.01	29060.68
519.21	29023.81
519.41	28997.19
519.62	28835.40
519.82	29113.92
520.03	29079.11
520.23	29062.72
520.43	29167.17
520.64	29343.30
520.84	29627.96
521.05	29668.92
521.25	29193.79
521.45	29716.03
521.66	30051.89
521.86	29705.79
522.07	29955.64
522.27	29691.45
522.47	30170.68
522.68	30443.06
522.88	30205.49
523.08	30512.69
523.29	30195.25
523.49	30301.75
523.70	30266.93
523.90	30711.34
524.10	30916.14
524.31	30787.11
524.51	30150.20
524.71	31102.50
524.92	30938.66
525.12	31045.16
525.33	31178.28
525.53	30850.60
525.73	31491.62
525.94	31467.04
526.14	31677.98
526.34	31479.33
526.55	31493.66
526.75	31305.25
526.95	31720.99
527.16	31903.26
527.36	32212.50
527.56	32175.64
527.77	32605.71
527.97	32239.12
528.17	32132.63
528.38	32458.26
528.58	32697.87
528.78	32523.79
528.99	32597.52
529.19	33009.16
529.39	32658.96
529.60	32984.58
529.80	32904.71
530.00	32843.27
530.21	33302.02
530.41	33185.29
530.61	33314.31
530.82	33209.86
531.02	33306.12
531.22	33445.38
531.43	33549.82
531.63	33842.68
531.83	33906.17
532.04	34639.34
532.24	33816.06
532.44	34221.56
532.64	34444.79
532.85	34305.52
533.05	34156.02
533.25	34774.51
533.46	34491.89
533.66	35091.94
533.86	34903.53
534.07	34981.35
534.27	34979.31
534.47	35358.18
534.67	35403.24
534.88	35184.10
535.08	35257.83
535.28	35861.98
535.49	35442.15
535.69	35784.16
535.89	35816.93
536.09	35898.84
536.30	36365.78
536.50	36353.49
536.70	36187.61
536.91	36232.66
537.11	36449.75
537.31	36486.61
537.51	36455.89
537.72	36949.45
537.92	36894.16
538.12	37041.61
538.32	36496.85
538.53	37387.72
538.73	36771.28
538.93	37146.06
539.13	37076.43
539.34	37471.68
539.54	37629.38
539.74	37746.11
539.94	37252.55
540.15	37504.45
540.35	37909.95
540.55	37985.72
540.75	37914.05
540.96	37934.53
541.16	38114.75
541.36	38049.21
541.56	38176.19
541.77	38462.90
541.97	38016.44
542.17	38514.10
542.37	38585.78
542.58	38630.83
542.78	38442.42
542.98	38671.79
543.18	38718.90
543.38	39163.31
543.59	39026.09
543.79	38952.37
543.99	38952.37
544.19	39142.83
544.40	38737.33
544.60	39280.04
544.80	39695.78
545.00	39044.52
545.20	39751.07
545.41	39486.89
545.61	39552.42
545.81	39601.57
546.01	39671.20
546.21	39822.75
546.42	39669.15
546.62	39949.73
546.82	39681.44
547.02	40037.79
547.22	40283.55
547.43	40211.87
547.63	40498.58
547.83	40469.91
548.03	39779.74
548.23	40457.62
548.44	40490.39
548.64	40426.90
548.84	40400.28
549.04	40291.74
549.24	40762.77
549.45	40850.83
549.65	40494.49
549.85	40719.76
550.05	41043.34
550.25	40699.28
550.45	41194.89
550.66	40803.73
550.86	40975.76
551.06	41297.29
551.26	41248.14
551.46	41424.26
551.66	41500.04
551.87	41147.79
552.07	41069.97
552.27	41186.70
552.47	41575.81
552.67	41618.82
552.87	41383.30
553.07	41371.02
553.28	41710.98
553.48	41649.54
553.68	41536.90
553.88	42085.76
554.08	41942.40
554.28	41926.02
554.48	41856.39
554.69	42034.56
554.89	41956.74
555.09	41665.92
555.29	41991.55
555.49	42141.05
555.69	42237.31
555.89	42186.11
556.10	42388.86
556.30	42200.44
556.50	42169.72
556.70	42401.14
556.90	42880.37
557.10	42550.65
557.30	42296.70
557.50	42630.52
557.70	42474.87
557.91	43093.36
558.11	42214.78
558.31	42884.47
558.51	42472.82
558.71	42663.28
558.91	43033.97
559.11	42952.05
559.31	42534.26
559.51	42665.33
559.72	43013.49
559.92	42874.23
560.12	42702.20
560.32	42882.42
560.52	43027.82
560.72	43021.68
560.92	43171.18
561.12	43396.46
561.32	43283.82
561.52	42988.91
561.72	43791.72
561.93	43154.80
562.13	43343.21
562.33	43070.83
562.53	43683.17
562.73	43421.03
562.93	43294.06
563.13	43582.82
563.33	43459.94
563.53	43539.82
563.73	43068.78
563.93	44051.81
564.13	43885.92
564.33	44141.92
564.53	43734.37
564.74	44166.49
564.94	43789.67
565.14	43701.61
565.34	43554.15
565.54	43838.82
565.74	43746.66
565.94	44281.18
566.14	43969.89
566.34	44129.63
566.54	44236.12
566.74	44098.91
566.94	44324.19
567.14	44651.86
567.34	44369.24
567.54	44375.39
567.74	44678.49
567.94	44195.17
568.14	44440.92
568.34	44782.93
568.54	44557.66
568.74	45063.50
568.94	44668.25
569.14	45030.74
569.34	45028.69
569.54	44946.77
569.75	44731.73
569.95	44631.38
570.15	45352.27
570.35	45243.73
570.55	44971.35
570.75	44897.62
570.95	45149.52
571.15	45354.32
571.35	45057.36
571.55	45505.87
571.75	45172.05
571.95	45862.21
572.15	45526.35
572.35	45845.83
572.55	45892.93
572.75	45743.43
572.95	45575.50
573.15	45829.44
573.35	45706.57
573.55	46013.76
573.75	45653.32
573.95	45831.49
574.15	45671.75
574.35	46499.13
574.55	46118.21
574.75	46179.65
574.95	46091.58
575.15	45821.25
575.34	46097.73
575.54	46314.81
575.74	46374.20
575.94	46415.16
576.14	46312.77
576.34	46980.40
576.54	46726.46
576.74	46093.63
576.94	46177.60
577.14	46615.86
577.34	47140.14
577.54	46570.81
577.74	46728.50
577.94	46865.72
578.14	46875.96
578.34	47303.98
578.54	46765.37
578.74	47078.71
578.94	47271.21
579.14	47076.66
579.34	46974.26
579.54	47590.70
579.74	47553.83
579.94	47246.64
580.13	47754.54
580.33	47353.13
580.53	47732.01
580.73	47605.03
580.93	47641.90
581.13	47654.18
581.33	47916.32
581.53	48166.18
581.73	47801.64
581.93	48266.53
582.13	48303.39
582.33	48274.72
582.53	48203.04
582.73	48565.53
582.92	48010.53
583.12	48338.21
583.32	47916.32
583.52	48461.08
583.72	48559.39
583.92	48254.24
584.12	48796.95
584.32	49427.73
584.52	48915.73
584.72	48815.38
584.92	48616.73
585.11	48712.98
585.31	49059.09
585.51	49003.80
585.71	48794.90
585.91	49493.26
586.11	48776.47
586.31	49253.65
586.51	49124.63
586.71	48989.46
586.91	49837.32
587.10	49442.06
587.30	49227.02
587.50	49052.95
587.70	49659.15
587.90	49480.97
588.10	49599.76
588.30	49575.18
588.50	49640.71
588.69	49839.37
588.89	49728.78
589.09	49810.70
589.29	49841.42
589.49	50443.52
589.69	49706.25
589.89	49882.37
590.08	50089.22
590.28	50291.97
590.48	50017.54
590.68	50013.44
590.88	50298.11
591.08	49863.94
591.28	50420.99
591.47	50509.05
591.67	50410.75
591.87	50238.72
592.07	50457.85
592.27	50588.92
592.47	50248.96
592.67	50672.89
592.86	50558.20
593.06	50582.78
593.26	50500.86
593.46	50703.61
593.66	50449.66
593.86	50836.73
594.05	50740.47
594.25	50879.74
594.45	50447.61
594.65	50740.47
594.85	50556.16
595.05	51025.14
595.24	51014.90
595.44	50846.97
595.64	50953.46
595.84	51191.03
596.04	50984.18
596.23	51176.69
596.43	51340.53
596.63	51238.13
596.83	50918.65
597.03	51152.12
597.22	51991.78
597.42	51449.07
597.62	52008.17
597.82	51471.60
598.02	51551.47
598.21	52049.13
598.41	51324.14
598.61	51688.68
598.81	51700.97
599.01	52272.35
599.20	52184.29
599.40	51873.00
599.60	51717.35
599.80	51844.33
600.00	51868.90
600.19	52110.56
600.39	51715.31
600.59	52571.36
600.79	51797.23
600.98	52298.98
601.18	51997.93
601.38	52663.52
601.58	52659.42
601.78	52704.48
601.97	52376.80
602.17	52387.04
602.37	52831.45
602.57	52817.11
602.76	52571.36
602.96	52391.14
603.16	52567.26
603.36	52919.51
603.55	53474.51
603.75	53347.54
603.95	52831.45
604.15	53038.29
604.34	53284.05
604.54	53198.04
604.74	53236.95
604.94	53806.28
605.13	53181.65
605.33	53146.84
605.53	53648.59
605.73	53871.82
605.92	53685.45
606.12	53458.13
606.32	53765.32
606.52	53171.41
606.71	53597.39
606.91	54144.20
607.11	53306.58
607.30	53738.70
607.50	53900.49
607.70	53978.31
607.90	53583.05
608.09	54043.85
608.29	53638.35
608.49	54084.81
608.68	53552.33
608.88	54031.56
609.08	54275.27
609.28	54066.38
609.47	53810.38
609.67	54752.44
609.87	54539.46
610.06	54826.17
610.26	54414.53
610.46	54525.12
610.66	54326.47
610.85	54432.96
611.05	54174.92
611.25	54695.10
611.44	54222.02
611.64	54967.48
611.84	54469.82
612.03	54930.62
612.23	54604.99
612.43	54602.94
612.62	54484.16
612.82	54682.81
613.02	54691.01
613.21	54688.96
613.41	54480.06
613.61	54756.54
613.80	54265.03
614.00	54959.29
614.20	54504.64
614.39	54457.54
614.59	54783.16
614.79	54711.49
614.98	54824.12
615.18	55063.74
615.38	55076.02
615.57	55186.61
615.77	55293.11
615.97	55043.26
616.16	55055.54
616.36	54576.32
616.56	55145.65
616.75	55248.05
616.95	54826.17
617.15	55194.81
617.34	54967.48
617.54	55000.25
617.74	55514.29
617.93	55309.49
618.13	54777.02
618.32	54920.38
618.52	54875.32
618.72	54686.91
618.91	55145.65
619.11	55049.40
619.31	55184.57
619.50	55297.20
619.70	55082.17
619.90	55452.85
620.09	55225.53
620.29	55495.86
620.48	55473.33
620.68	55502.00
620.88	54723.77
621.07	55057.59
621.27	55483.57
621.46	55198.90
621.66	55024.82
621.86	54547.65
622.05	54637.76
622.25	55399.60
622.44	54858.94
622.64	55053.50
622.84	55291.06
623.03	54633.66
623.23	54826.17
623.42	55401.65
623.62	55196.85
623.82	55340.21
624.01	54871.23
624.21	55596.21
624.40	55272.63
624.60	55286.96
624.80	55278.77
624.99	55063.74
625.19	55135.41
625.38	55067.83
625.58	55196.85
625.77	55016.63
625.97	55260.34
626.17	55375.03
626.36	54963.39
626.56	55096.50
626.75	54543.55
626.95	55327.92
627.14	54918.33
627.34	55893.16
627.54	55350.45
627.73	55413.94
627.93	55592.11
628.12	55076.02
628.32	55358.64
628.51	55557.30
628.71	55469.23
628.90	55516.34
629.10	55628.98
629.30	55372.98
629.49	55608.50
629.69	55653.55
629.88	55342.26
630.08	55329.97
630.27	55393.46
630.47	55932.07
630.66	55483.57
630.86	55768.24
631.05	55078.07
631.25	55714.99
631.44	55436.47
631.64	55731.37
631.84	55739.57
632.03	55987.37
632.23	55825.58
632.42	55839.92
632.62	56022.19
632.81	55336.12
633.01	55983.27
633.20	55788.72
633.40	56001.71
633.59	55952.55
633.79	55504.05
633.98	55432.37
634.18	55700.65
634.37	55801.00
634.57	55520.43
634.76	56102.06
634.96	55616.69
635.15	55956.65
635.35	55825.58
635.54	55489.71
635.74	55977.13
635.93	55426.23
636.13	55872.68
636.32	55819.44
636.52	55362.74
636.71	55467.19
636.91	55403.70
637.10	55372.98
637.30	55682.22
637.49	55798.96
637.69	55489.71
637.88	56067.24
638.08	55129.27
638.27	56054.95
638.46	55311.54
638.66	55436.47
638.85	55452.85
639.05	56003.75
639.24	55854.25
639.44	55628.98
639.63	55696.56
639.83	55923.88
640.02	55573.68
640.22	56128.68
640.41	56296.61
640.61	55303.35
640.80	56276.13
640.99	55493.81
641.19	56132.78
641.38	55907.50
641.58	55676.08
641.77	55481.52
641.97	55411.89
642.16	56226.98
642.36	55989.42
642.55	56226.98
642.74	55149.75
642.94	56292.52
643.13	55698.61
643.33	56226.98
643.52	55747.76
643.72	56276.13
643.91	55710.89
644.10	55540.91
644.30	56190.12
644.49	56083.62
644.69	56161.45
644.88	56259.75
645.08	56294.56
645.27	56167.59
645.46	55768.24
645.66	56278.18
645.85	55887.02
646.05	56313.00
646.24	56052.90
646.43	55997.61
646.63	56538.27
646.82	56382.63
647.02	56075.43
647.21	56349.86
647.40	55983.27
647.60	56186.02
647.79	56784.03
647.99	56052.90
648.18	56157.35
648.37	56360.10
648.57	56722.59
648.76	56548.51
648.96	56032.42
649.15	56329.38
649.34	56628.38
649.54	56417.44
649.73	55893.16
649.92	56335.52
650.12	56646.82
650.31	56671.39
650.51	56194.21
650.70	56704.16
650.89	56407.20
651.09	57185.43
651.28	56018.09
651.47	56226.98
651.67	56855.71
651.86	56513.70
652.06	56057.00
652.25	56544.42
652.44	56650.91
652.64	56120.49
652.83	56341.67
653.02	56171.69
653.22	56474.79
653.41	56149.16
653.60	55889.07
653.80	56497.31
653.99	56689.82
654.18	56403.11
654.38	56403.11
654.57	56505.51
654.76	56265.89
654.96	56571.04
655.15	56358.05
655.34	56675.49
655.54	56163.50
655.73	56650.91
655.92	56349.86
656.12	56188.07
656.31	56495.27
656.50	56601.76
656.70	56824.99
656.89	56229.03
657.08	56538.27
657.28	56607.90
657.47	56886.43
657.66	56970.39
657.86	56456.35
658.05	56939.68
658.24	57046.17
658.43	56267.94
658.63	56528.03
658.82	56878.24
659.01	56470.69
659.21	56958.11
659.40	56591.52
659.59	56362.15
659.79	56788.13
659.98	56587.42
660.17	56872.09
660.36	56675.49
660.56	56624.29
660.75	56927.39
660.94	56781.98
661.14	56560.80
661.33	56880.28
661.52	56374.44
661.71	57201.82
661.91	56439.97
662.10	56812.70
662.29	57158.81
662.49	57046.17
662.68	56865.95
662.87	57136.28
663.06	57119.90
663.26	56620.19
663.45	57158.81
663.64	56837.28
663.83	57423.00
664.03	57382.04
664.22	57173.14
664.41	56890.52
664.60	56710.30
664.80	57193.62
664.99	56984.73
665.18	56720.54
665.37	57230.49
665.57	57054.36
665.76	56851.61
665.95	57177.24
666.14	56984.73
666.34	56800.41
666.53	57146.52
666.72	56911.00
666.91	56573.09
667.11	57160.86
667.30	57228.44
667.49	56747.17
667.68	57037.98
667.87	56571.04
668.07	57537.68
668.26	57044.12
668.45	57199.77
668.64	56804.51
668.84	57455.76
669.03	57433.24
669.22	56974.49
669.41	56999.07
669.60	57138.33
669.80	56540.32
669.99	57492.63
670.18	56652.96
670.37	57169.05
670.57	57111.70
670.76	56970.39
670.95	56997.02
671.14	56806.56
671.33	56792.22
671.53	57293.97
671.72	57435.28
671.91	57033.88
672.10	56634.53
672.29	56951.96
672.48	57060.51
672.68	57359.51
672.87	56794.27
673.06	57099.42
673.25	57050.27
673.44	56630.43
673.64	56927.39
673.83	57203.86
674.02	56855.71
674.21	56816.80
674.40	57035.93
674.59	56802.46
674.79	57158.81
674.98	56954.01
675.17	57423.00
675.36	56755.36
675.55	57517.20
675.74	56896.67
675.94	57017.50
676.13	56947.87
676.32	57502.87
676.51	57590.93
676.70	57320.60
676.89	57152.66
677.08	57261.21
677.28	56786.08
677.47	57392.28
677.66	57549.97
677.85	57167.00
678.04	56841.37
678.23	57478.29
678.42	57017.50
678.62	56913.05
678.81	57599.12
679.00	57212.06
679.19	57975.95
679.38	56767.65
679.57	56882.33
679.76	57146.52
679.96	57134.23
680.15	57468.05
680.34	57435.28
680.53	57255.06
680.72	57400.47
680.91	57089.18
681.10	56997.02
681.29	57007.26
681.48	56956.06
681.68	56933.53
681.87	56798.37
682.06	56857.76
682.25	56181.93
682.44	56958.11
682.63	57271.45
682.82	56894.62
683.01	56888.48
683.20	56743.07
683.39	56755.36
683.59	56673.44
683.78	56515.75
683.97	56898.72
684.16	56951.96
684.35	56845.47
684.54	56626.34
684.73	56884.38
684.92	56427.68
685.11	56259.75
685.30	56378.53
685.49	56999.07
685.69	56663.20
685.88	56403.11
686.07	56763.55
686.26	56634.53
686.45	56306.85
686.64	57013.40
686.83	56329.38
687.02	56497.31
687.21	56607.90
687.40	56331.43
687.59	56472.74
687.78	56542.37
687.97	56554.66
688.16	56128.68
688.35	56550.56
688.54	56183.97
688.74	56528.03
688.93	56255.65
689.12	56292.52
689.31	56454.31
689.50	56390.82
689.69	55608.50
689.88	56079.53
690.07	56399.01
690.26	56528.03
690.45	56497.31
690.64	56153.26
690.83	55737.52
691.02	55891.12
691.21	55727.28
691.40	56069.29
691.59	55655.60
691.78	55827.63
691.97	56001.71
692.16	55981.23
692.35	56431.78
692.54	56206.50
692.73	55948.46
692.92	55831.72
693.11	55499.95
693.30	55585.97
693.49	56067.24
693.68	55682.22
693.87	55803.05
694.06	55510.19
694.25	55289.01
694.44	55565.49
694.63	55669.93
694.82	55796.91
695.01	55639.22
695.20	55315.64
695.39	55463.09
695.58	55602.35
695.77	55377.08
695.96	55112.89
696.15	55106.74
696.34	55276.72
696.53	55190.71
696.72	55299.25
696.91	54994.10
697.10	55235.77
697.29	54748.35
697.48	55133.37
697.67	55159.99
697.86	54684.86
698.05	54826.17
698.24	55166.13
698.43	54383.81
698.62	54602.94
698.81	54418.63
699.00	54965.43
699.19	54361.28
699.38	54838.46
699.57	54531.26
699.76	55121.08
699.95	54594.75
700.14	54432.96
700.32	54269.12
700.51	54764.73
700.70	54365.38
700.89	54641.85
701.08	54533.31
701.27	54559.94
701.46	54529.22
701.65	53861.58
701.84	54256.84
702.03	54443.20
702.22	53830.86
702.41	54058.18
702.60	53824.71
702.79	53869.77
702.98	53804.24
703.17	54174.92
703.35	53617.87
703.54	53650.64
703.73	53968.07
703.92	54086.85
704.11	53802.19
704.30	53757.13
704.49	53632.21
704.68	53335.25
704.87	53822.67
705.06	53540.05
705.25	53572.81
705.43	53763.28
705.62	53318.87
705.81	53421.26
706.00	53677.26
706.19	52901.08
706.38	53073.11
706.57	53398.74
706.76	52995.29
706.95	52989.14
707.14	52917.46
707.32	53091.54
707.51	52733.15
707.70	53130.45
707.89	53226.71
708.08	53208.28
708.27	52851.93
708.46	53126.36
708.65	52786.39
708.84	53001.43
709.02	53353.68
709.21	52698.33
709.40	52630.75
709.59	52843.74
709.78	52557.02
709.97	52856.03
710.16	52493.54
710.34	52489.44
710.53	52673.76
710.72	52536.54
710.91	52307.17
711.10	52935.90
711.29	52772.06
711.48	52557.02
711.66	52210.92
711.85	52229.35
712.04	52270.31
712.23	52511.97
712.42	52370.66
712.61	52063.46
712.80	52002.02
712.98	52716.76
713.17	52096.23
713.36	51799.27
713.55	52149.48
713.74	52059.37
713.93	52149.48
714.11	51952.87
714.30	51506.41
714.49	51674.35
714.68	51846.38
714.87	51655.92
715.06	51969.26
715.24	52079.85
715.43	51696.88
715.62	51168.50
715.81	51537.13
716.00	51500.27
716.18	51285.23
716.37	51219.70
716.56	51141.88
716.75	51684.59
716.94	51285.23
717.12	51137.78
717.31	51455.21
717.50	51520.75
717.69	50959.61
717.88	50986.23
718.06	50896.12
718.25	51385.58
718.44	51197.17
718.63	51303.67
718.82	50617.60
719.00	50660.60
719.19	50896.12
719.38	50556.16
719.57	50377.98
719.76	50150.66
719.94	50246.91
720.13	50885.88
720.32	50443.52
720.51	50228.48
720.69	49792.26
720.88	50578.68
721.07	50205.95
721.26	50044.16
721.44	49888.52
721.63	49954.05
721.82	49689.87
722.01	50132.23
722.20	49962.25
722.38	49874.18
722.57	49556.75
722.76	49976.58
722.95	49833.22
723.13	49313.04
723.32	49374.48
723.51	49138.96
723.70	48973.08
723.88	49583.37
724.07	48913.69
724.26	49550.60
724.44	48700.70
724.63	49741.06
724.82	49243.41
725.01	48780.57
725.19	49224.98
725.38	49081.62
725.57	48923.93
725.76	49132.82
725.94	48618.78
726.13	48968.98
726.32	49046.80
726.51	48743.70
726.69	49116.43
726.88	49075.48
727.07	49081.62
727.25	48444.70
727.44	49288.46
727.63	48733.46
727.82	48977.17
728.00	48852.25
728.19	48608.54
728.38	49020.18
728.56	48409.89
728.75	49184.02
728.94	48784.66
729.12	48760.09
729.31	48616.73
729.50	48796.95
729.69	48489.76
729.87	48749.85
730.06	48551.20
730.25	48751.90
730.43	48821.53
730.62	48293.15
730.81	48727.32
730.99	48747.80
731.18	47990.05
731.37	48907.54
731.55	48452.89
731.74	48860.44
731.93	48796.95
732.11	48788.76
732.30	49130.77
732.49	48436.51
732.67	48659.74
732.86	48833.81
733.05	48758.04
733.23	48149.79
733.42	48735.51
733.61	48440.60
733.79	48510.24
733.98	49147.15
734.17	48475.42
734.35	48379.17
734.54	48471.32
734.73	48835.86
734.91	48276.77
735.10	48098.59
735.29	48846.10
735.47	47889.70
735.66	48497.95
735.84	48338.21
736.03	47910.18
736.22	48735.51
736.40	48153.89
736.59	48368.93
736.78	48307.49
736.96	48401.69
737.15	48317.73
737.33	48235.81
737.52	48569.63
737.71	48239.90
737.89	48100.64
738.08	48039.20
738.27	47854.89
738.45	48252.19
738.64	48375.07
738.82	47846.69
739.01	47705.38
739.20	47840.55
739.38	48037.16
739.57	48473.37
739.75	48217.38
739.94	47922.47
740.13	47793.45
740.31	47858.98
740.50	48424.22
740.68	48166.18
740.87	47953.19
741.06	47815.97
741.24	47281.45
741.43	47748.39
741.61	48041.25
741.80	47428.91
741.99	47813.93
742.17	47822.12
742.36	47801.64
742.54	47484.20
742.73	47678.76
742.91	48026.92
743.10	47404.33
743.29	47734.06
743.47	47670.57
743.66	48018.72
743.84	47637.80
744.03	47670.57
744.21	47588.65
744.40	47748.39
744.59	47254.83
744.77	47449.39
744.96	47494.44
745.14	47283.50
745.33	46970.16
745.51	47125.81
745.70	47488.30
745.88	46757.17
746.07	47256.88
746.26	47222.06
746.44	47056.18
746.63	46978.36
746.81	47029.55
747.00	46601.53
747.18	47361.33
747.37	47310.13
747.55	46949.68
747.74	47107.38
747.92	46425.40
748.11	46728.50
748.29	46865.72
748.48	46869.81
748.66	46667.06
748.85	46980.40
749.03	46937.40
749.22	46957.88
749.41	46406.97
749.59	47033.65
749.78	46646.58
749.96	46253.37
750.15	46789.94
750.33	46441.79
750.52	46861.62
750.70	46806.33
750.89	45974.85
751.07	46331.20
751.26	46286.14
751.44	45876.55
751.63	45999.43
751.81	46005.57
752.00	46374.20
752.18	46030.15
752.37	46173.50
752.55	45827.40
752.74	46175.55
752.92	46173.50
753.10	45585.74
753.29	46318.91
753.47	45524.30
753.66	45667.66
753.84	46060.87
754.03	46064.96
754.21	45694.28
754.40	45790.53
754.58	45899.08
754.77	45925.70
754.95	45522.25
755.14	45718.85
755.32	45669.70
755.51	45663.56
755.69	45409.61
755.88	45495.63
756.06	45405.52
756.24	45370.70
756.43	45464.91
756.61	45362.51
756.80	45282.64
756.98	45139.28
757.17	45469.00
757.35	45530.44
757.54	45184.33
757.72	44991.83
757.90	44856.66
758.09	44807.51
758.27	45114.70
758.46	44952.91
758.64	44770.64
758.83	45016.40
759.01	45020.50
759.19	44825.94
759.38	44766.55
759.56	45241.68
759.75	44840.28
759.93	44316.00
760.12	44316.00
760.30	44737.88
760.48	44492.12
760.67	44666.20
760.85	44213.60
761.04	44787.03
761.22	44094.82
761.40	44463.45
761.59	44416.35
761.77	44053.86
761.96	44326.24
762.14	43939.17
762.32	43636.07
762.51	44088.67
762.69	43865.44
762.88	44201.31
763.06	44148.06
763.24	44516.70
763.43	44285.28
763.61	43777.38
763.80	43894.11
763.98	43869.54
764.16	43740.52
764.35	43218.28
764.53	43349.35
764.72	43103.60
764.90	43720.04
765.08	43521.38
765.27	43369.83
765.45	43300.20
765.63	42859.89
765.82	43048.30
766.00	42925.42
766.18	42589.56
766.37	43294.06
766.55	42812.79
766.74	43001.20
766.92	42827.12
767.10	42825.07
767.29	42534.26
767.47	42378.62
767.65	42702.20
767.84	42599.80
768.02	42724.72
768.20	42407.29
768.39	42653.05
768.57	42433.91
768.75	42382.71
768.94	42534.26
769.12	42046.85
769.30	42055.04
769.49	42458.49
769.67	41745.80
769.85	41940.35
770.04	42079.61
770.22	41928.06
770.40	42157.44
770.59	41397.64
770.77	42034.56
770.95	41874.82
771.14	41870.72
771.32	41694.60
771.50	41266.57
771.69	41743.75
771.87	41731.46
772.05	41674.12
772.24	41092.49
772.42	41852.29
772.60	41278.86
772.78	41082.25
772.97	41305.48
773.15	41461.13
773.33	41547.14
773.52	41348.49
773.70	41276.81
773.88	40959.38
774.07	41018.77
774.25	41024.91
774.43	41074.06
774.61	41198.99
774.80	41332.11
774.98	41131.40
775.16	41178.51
775.34	40875.41
775.53	41096.59
775.71	41244.04
775.89	41231.75
776.08	40957.33
776.26	41174.41
776.44	41258.38
776.62	41328.01
776.81	40549.78
776.99	41252.23
777.17	41280.91
777.35	41158.03
777.54	41563.53
777.72	40785.30
777.90	41223.56
778.08	41129.36
778.27	41010.57
778.45	41547.14
778.63	41502.09
778.81	40899.98
779.00	41690.50
779.18	41160.08
779.36	41700.74
779.54	41514.37
779.73	41162.12
779.91	41452.94
780.09	41256.33
780.27	41557.38
780.46	41475.46
780.64	41964.93
780.82	41285.00
781.00	41184.65
781.19	41928.06
781.37	41786.75
781.55	42026.37
781.73	42292.60
781.91	41688.45
782.10	41450.89
782.28	41803.14
782.46	41803.14
782.64	41891.20
782.82	41883.01
783.01	41706.88
783.19	41723.27
783.37	41964.93
783.55	42050.94
783.74	41915.78
783.92	41706.88
784.10	42186.11
784.28	41809.28
784.46	41776.51
784.64	41686.40
784.83	41678.21
785.01	42153.34
785.19	41833.86
785.37	41733.51
785.55	41606.53
785.74	41029.01
785.92	41631.11
786.10	41719.17
786.28	41522.57
786.46	41391.50
786.64	40912.27
786.83	41354.63
787.01	41276.81
787.19	41223.56
787.37	41616.77
787.55	41557.38
787.74	41043.34
787.92	41127.31
788.10	40998.29
788.28	40643.99
788.46	41026.96
788.64	40527.25
788.82	40902.03
789.01	40474.01
789.19	41115.02
789.37	40164.76
789.55	40469.91
789.73	40635.80
789.91	40279.45
790.09	40490.39
790.28	40304.02
790.46	40494.49
790.64	40603.03
790.82	40050.08
791.00	40156.57
791.18	40091.04
791.36	40101.28
791.55	39876.00
791.73	39685.54
791.91	39624.10
792.09	40011.17
792.27	39957.92
792.45	39386.54
792.63	39624.10
792.81	39716.26
793.00	39703.97
793.18	39390.63
793.36	39259.56
793.54	39849.38
793.72	39224.75
793.90	39343.53
794.08	38991.28
794.26	39490.98
794.44	38784.43
794.62	38706.61
794.81	39032.24
794.99	38403.51
795.17	38469.04
795.35	38493.62
795.53	38675.89
795.71	38743.47
795.89	38002.11
796.07	38229.43
796.25	37942.72
796.43	37705.15
796.61	37602.75
796.80	37719.49
796.98	38012.35
797.16	37303.75
797.34	37955.00
797.52	37576.13
797.70	37868.99
797.88	37389.77
798.06	37725.63
798.24	37293.51
798.42	37320.13
798.60	37313.99
798.78	36916.68
798.96	37361.09
799.14	36742.61
799.32	36779.47
799.51	36888.01
799.69	37006.80
799.87	36797.90
800.05	36672.98
800.23	36652.50
800.41	36230.62
800.59	36099.55
800.77	35986.91
800.95	35984.86
801.13	36247.00
801.31	35778.01
801.49	35917.28
801.67	35853.79
801.85	35806.69
802.03	35505.63
802.21	35186.15
802.39	35679.71
802.57	35050.99
802.75	35292.65
802.93	35247.59
803.11	35128.81
803.29	35030.51
803.47	35249.64
803.65	35235.30
803.83	35128.81
804.01	34856.43
804.19	34598.38
804.37	34489.84
804.55	34670.06
804.73	34700.78
804.91	34379.25
805.09	34856.43
805.27	34575.86
805.45	34762.22
805.63	34663.92
805.81	34106.87
805.99	34551.28
806.17	34151.93
806.35	34219.51
806.53	33859.07
806.71	33963.51
806.89	33881.60
807.07	33756.67
807.25	34235.89
807.43	33396.23
807.61	33478.15
807.79	33639.93
807.97	33691.13
808.15	33467.91
808.33	33160.71
808.51	33326.60
808.69	33428.99
808.87	33173.00
809.05	33195.53
809.23	32783.88
809.41	33148.42
809.59	32773.64
809.77	32878.09
809.95	32538.13
810.13	32785.93
810.31	32640.53
810.49	32835.08
810.67	32654.86
810.84	32337.43
811.02	32560.66
811.20	32126.49
811.38	32259.60
811.56	31911.45
811.74	32554.51
811.92	32200.21
812.10	32112.15
812.28	32290.32
812.46	32101.91
812.64	32132.63
812.82	31698.46
813.00	31733.28
813.18	31890.97
813.36	31649.31
813.53	31675.93
813.71	31684.12
813.89	31747.61
814.07	31575.58
814.25	31819.29
814.43	31311.39
814.61	31243.81
814.79	31211.04
814.97	31262.24
815.15	31264.29
815.33	31137.32
815.50	31176.23
815.68	30881.32
815.86	31188.52
816.04	31022.63
816.22	30848.55
816.40	31090.21
816.58	30950.95
816.76	30613.04
816.94	30869.03
817.11	30590.51
817.29	30514.73
817.47	30373.42
817.65	30502.45
817.83	30565.93
818.01	30330.42
818.19	29916.73
818.37	30277.17
818.54	30121.52
818.72	29924.92
818.90	30250.55
819.08	30395.95
819.26	30182.96
819.44	29998.65
819.62	29863.48
819.80	29967.93
819.97	30012.98
820.15	30015.03
820.33	29584.96
820.51	29894.20
820.69	29552.19
820.87	29900.34
821.05	30088.76
821.22	29316.67
821.40	29580.86
821.58	29460.03
821.76	29625.92
821.94	29314.62
822.12	29310.53
822.29	29539.90
822.47	29001.29
822.65	29242.95
822.83	29318.72
823.01	28927.56
823.19	28849.74
823.36	28902.98
823.54	29048.39
823.72	29072.96
823.90	28868.17
824.08	28733.00
824.25	28933.70
824.43	28907.08
824.61	28546.64
824.79	28882.50
824.97	28436.05
825.15	28989.00
825.32	29005.38
825.50	28096.08
825.68	28585.55
825.86	28806.73
826.04	28456.53
826.21	28558.92
826.39	28345.94
826.57	28376.66
826.75	28239.44
826.93	27897.43
827.10	27907.67
827.28	28333.65
827.46	28380.75
827.64	28294.74
827.81	27997.78
827.99	28427.85
828.17	27938.39
828.35	27713.11
828.53	28024.40
828.70	27692.63
828.88	27936.34
829.06	27862.61
829.24	27790.94
829.41	27586.14
829.59	27688.54
829.77	27496.03
829.95	27934.29
830.12	27600.47
830.30	27637.34
830.48	27424.35
830.66	27651.67
830.84	27473.50
831.01	27358.81
831.19	27430.49
831.37	27313.76
831.55	27051.62
831.72	27567.71
831.90	27174.50
832.08	27346.53
832.25	27487.84
832.43	27360.86
832.61	27229.79
832.79	27037.28
832.96	27047.52
833.14	27137.63
833.32	27321.95
833.50	27328.10
833.67	26988.13
833.85	27115.11
834.03	26814.05
834.20	26754.66
834.38	26920.55
834.56	26914.41
834.74	26791.53
834.91	26738.28
835.09	26562.15
835.27	26386.03
835.44	26605.16
835.62	26058.35
835.80	26353.26
835.98	26639.98
836.15	26314.35
836.33	26398.32
836.51	26584.68
836.68	26457.71
836.86	26418.80
837.04	26173.04
837.21	26304.11
837.39	26449.52
837.57	26383.98
837.75	26297.97
837.92	25863.80
838.10	26062.45
838.28	25831.03
838.45	25947.76
838.63	25968.24
838.81	25794.17
838.98	25726.58
839.16	25716.34
839.34	25654.90
839.51	25679.48
839.69	25671.29
839.87	25521.79
840.04	25654.90
840.22	25730.68
840.40	25646.71
840.57	25484.92
840.75	25452.16
840.93	25054.85
841.10	25245.31
841.28	25661.05
841.46	25343.61
841.63	25349.76
841.81	25591.42
841.98	25112.19
842.16	25499.26
842.34	25210.50
842.51	25136.77
842.69	25464.44
842.87	24960.64
843.04	25261.69
843.22	25138.82
843.40	25282.17
843.57	24960.64
843.75	25132.67
843.92	24944.26
844.10	25101.95
844.28	24878.72
844.45	24948.36
844.63	25024.13
844.81	24376.97
844.98	24743.56
845.16	24657.54
845.33	24755.85
845.51	24450.70
845.69	24608.39
845.86	24340.11
846.04	24364.68
846.21	24508.04
846.39	24594.06
846.57	24401.55
846.74	24391.31
846.92	24350.35
847.09	24342.16
847.27	24192.65
847.45	24204.94
847.62	24174.22
847.80	24268.43
847.97	24110.74
848.15	23983.76
848.32	23842.45
848.50	24163.98
848.68	23799.44
848.85	24067.73
849.03	23781.01
849.20	23871.12
849.38	24047.25
849.56	23834.26
849.73	23920.28
849.91	23907.99
850.08	23889.56
850.26	23512.73
850.43	23948.95
850.61	23608.98
850.78	23144.09
850.96	23725.72
851.14	23422.62
851.31	23660.18
851.49	23486.11
851.66	23025.31
851.84	23436.95
852.01	23484.06
852.19	23387.80
852.36	23350.94
852.54	23420.57
852.71	23283.36
852.89	23041.70
853.07	23000.74
853.24	23379.61
853.42	23080.61
853.59	22951.59
853.77	23047.84
853.94	23230.11
854.12	23303.84
854.29	22660.77
854.47	22832.80
854.64	22884.00
854.82	22566.57
854.99	22582.95
855.17	22765.22
855.34	22544.04
855.52	23072.42
855.69	22988.45
855.87	22585.00
856.04	22310.57
856.22	22625.96
856.39	22400.68
856.57	22412.97
856.74	22156.97
856.92	22365.87
857.09	22419.11
857.27	22425.26
857.44	22386.35
857.62	22408.87
857.79	22511.27
857.97	22267.56
858.14	22337.20
858.32	22173.36
858.49	22261.42
858.67	22376.11
858.84	22056.62
859.02	22283.95
859.19	22212.27
859.37	21802.68
859.54	21909.17
859.72	22005.42
859.89	21786.29
860.06	21974.70
860.24	21673.65
860.41	21745.33
860.59	21653.17
860.76	21939.89
860.94	21726.90
861.11	21731.00
861.29	21280.44
861.46	21675.70
861.64	21423.80
861.81	21536.44
861.98	21606.07
862.16	21431.99
862.33	21278.40
862.51	21360.31
862.68	21239.48
862.86	21229.24
863.03	21296.83
863.21	21155.52
863.38	21266.11
863.55	21305.02
863.73	21130.94
863.90	21046.97
864.08	21077.69
864.25	20932.29
864.43	21262.01
864.60	20827.84
864.77	20827.84
864.95	21153.47
865.12	20704.96
865.30	20973.25
865.47	20723.40
865.64	20645.57
865.82	21071.55
865.99	20883.14
866.17	20528.84
866.34	20856.51
866.51	20557.51
866.69	20838.08
866.86	20666.05
867.04	20618.95
867.21	20729.54
867.38	20600.52
867.56	20367.05
867.73	20305.61
867.91	20340.43
868.08	20283.08
868.25	20244.17
868.43	20213.45
868.60	19912.40
868.78	19910.35
868.95	20117.20
869.12	20350.67
869.30	19990.22
869.47	20242.12
869.64	19680.98
869.82	20018.89
869.99	19771.09
870.16	19842.77
870.34	19920.59
870.51	20014.80
870.69	19621.59
870.86	19742.42
871.03	19689.17
871.21	19343.06
871.38	19621.59
871.55	19367.64
871.73	19527.38
871.90	19447.51
872.07	19547.86
872.25	19238.62
872.42	19435.22
872.59	19234.52
872.77	19224.28
872.94	19424.98
873.11	19189.47
873.29	19242.71
873.46	18906.85
873.63	19103.45
873.81	18876.13
873.98	18956.00
874.15	19168.99
874.33	18788.07
874.50	18759.39
874.67	18790.11
874.85	18456.29
875.02	18886.37
875.19	18630.37
875.37	18847.46
875.54	18693.86
875.71	18693.86
875.88	18650.85
876.06	18501.35
876.23	18636.52
876.40	18480.87
876.58	18331.37
876.75	18288.36
876.92	18233.07
877.10	18247.40
877.27	18241.26
877.44	17868.53
877.61	18095.85
877.79	18151.15
877.96	18095.85
878.13	18302.70
878.31	17919.73
878.48	18188.01
878.65	18261.74
878.82	17968.88
879.00	17841.90
879.17	17958.64
879.34	17925.87
879.51	17637.11
879.69	17579.76
879.86	17514.23
880.03	17432.31
880.21	17673.97
880.38	17659.63
880.55	17594.10
880.72	17385.21
880.90	17493.75
881.07	17520.37
881.24	17235.70
881.41	17549.04
881.59	17463.03
881.76	17334.01
881.93	17239.80
882.10	17215.23
882.28	17340.15
882.45	17401.59
882.62	17403.64
882.79	17286.90
882.96	16807.68
883.14	17010.43
883.31	17276.66
883.48	17020.67
883.65	16934.65
883.83	17002.24
884.00	16965.37
884.17	17000.19
884.34	17184.51
884.51	17151.74
884.69	16965.37
884.86	16905.98
885.03	17053.44
885.20	16867.07
885.38	16877.31
885.55	16746.24
885.72	16846.59
885.89	16875.26
886.06	16836.35
886.24	16762.62
886.41	16649.99
886.58	16705.28
886.75	16811.78
886.92	16596.74
887.10	16787.20
887.27	16621.31
887.44	16633.60
887.61	16666.37
887.78	16512.77
887.95	16680.71
888.13	16490.24
888.30	16467.72
888.47	16357.13
888.64	16260.87
888.81	16570.12
888.99	16277.26
889.16	16129.80
889.33	16260.87
889.50	16328.45
889.67	16396.04
889.84	16189.19
890.01	16183.05
890.19	16060.17
890.36	16127.75
890.53	16176.91
890.70	16058.12
890.87	16002.83
891.04	15935.24
891.22	15812.37
891.39	16099.08
891.56	15851.28
891.73	15607.57
891.90	15613.71
892.07	15701.78
892.24	15843.09
892.42	15699.73
892.59	15554.32
892.76	15374.10
892.93	15591.19
893.10	15836.94
893.27	15415.06
893.44	15636.24
893.61	15453.97
893.79	15890.19
893.96	15474.45
894.13	15527.70
894.30	15580.95
894.47	15435.54
894.64	15484.69
894.81	15521.56
894.98	15476.50
895.15	15511.32
895.33	15249.18
895.50	15283.99
895.67	15466.26
895.84	15324.95
896.01	15650.58
896.18	15290.13
896.35	15716.11
896.52	15443.73
896.69	15439.64
896.86	15310.61
897.04	15609.62
897.21	15335.19
897.38	15380.25
897.55	15443.73
897.72	15382.29
897.89	15724.30
898.06	15413.01
898.23	15327.00
898.40	15517.46
898.57	15290.13
898.74	15507.22
898.91	15367.96
899.08	15093.53
899.26	15367.96
899.43	15552.27
899.60	15429.40
899.77	15535.89
899.94	15146.78
900.11	15058.71
900.28	15331.09
900.45	15044.38
900.62	15152.92
900.79	15363.86
900.96	15130.39
901.13	15124.25
901.30	15273.75
901.47	15185.69
901.64	15197.98
901.81	15167.26
901.98	15154.97
902.15	15611.67
902.32	15071.00
902.49	15187.74
902.66	15150.87
902.83	15300.37
903.01	15230.74
903.18	15396.63
903.35	15236.89
903.52	15306.52
903.69	15105.82
903.86	15255.32
904.03	15154.97
904.20	15273.75
904.37	15517.46
904.54	14987.04
904.71	15030.04
904.88	15212.31
905.05	15103.77
905.22	15212.31
905.39	15324.95
905.56	15310.61
905.73	15099.67
905.90	15200.02
906.07	15306.52
906.24	15200.02
906.41	15071.00
906.58	15150.87
906.75	15275.80
906.92	14980.89
907.09	15062.81
907.26	15148.82
907.43	15095.58
907.60	15357.72
907.77	15406.87
907.93	15228.70
908.10	15081.24
908.27	15445.78
908.44	15335.19
908.61	14913.31
908.78	15245.08
908.95	15312.66
909.12	15122.20
909.29	15197.98
909.46	14980.89
909.63	15187.74
909.80	15083.29
909.97	15189.78
910.14	15079.19
910.31	15136.54
910.48	15005.47
910.65	15107.87
910.82	14896.92
910.99	14720.80
911.16	14939.93
911.33	15148.82
911.50	15077.15
911.66	15036.19
911.83	14931.74
912.00	14823.20
912.17	14731.04
912.34	14698.27
912.51	14761.76
912.68	14626.59
912.85	14876.44
913.02	14829.34
913.19	14591.78
913.36	14634.78
913.53	14618.40
913.70	14651.17
913.86	14653.22
914.03	14763.81
914.20	14579.49
914.37	14772.00
914.54	14720.80
914.71	14538.53
914.88	14395.17
915.05	14429.99
915.22	14350.12
915.39	14473.00
915.55	14282.53
915.72	14055.21
915.89	14348.07
916.06	14255.91
916.23	14143.27
916.40	14223.14
916.57	14192.42
916.74	14022.44
916.91	14049.07
917.07	13907.76
917.24	14042.92
917.41	14151.46
917.58	13821.74
917.75	14028.59
917.92	13997.87
918.09	14020.39
918.26	13909.80
918.42	13809.45
918.59	13899.56
918.76	13862.70
918.93	13594.42
919.10	13575.98
919.27	13578.03
919.44	13733.68
919.60	13729.58
919.77	13553.46
919.94	13383.48
920.11	13190.97
920.28	13471.54
920.45	13420.34
920.61	13336.37
920.78	13328.18
920.95	13111.10
921.12	13205.30
921.29	13053.75
921.46	13029.18
921.62	12861.24
921.79	12980.03
921.96	13029.18
922.13	13004.60
922.30	13047.61
922.47	12580.67
922.63	12496.71
922.80	12750.65
922.97	12810.04
923.14	12482.37
923.31	12623.68
923.47	12543.81
923.64	12625.73
923.81	12564.29
923.98	12588.86
924.15	12382.02
924.32	12429.12
924.48	12523.33
924.65	12322.63
924.82	12259.14
924.99	12150.60
925.15	12316.48
925.32	12357.44
925.49	12017.48
925.66	12037.96
925.83	11841.36
925.99	11845.45
926.16	11984.71
926.33	11958.09
926.50	11784.01
926.67	11999.05
926.83	11728.72
927.00	11829.07
927.17	11716.43
927.34	11636.56
927.50	11536.21
927.67	11618.13
927.84	11448.15
928.01	11601.74
928.17	11495.25
928.34	11126.61
928.51	11212.63
928.68	11136.85
928.84	11075.42
929.01	10891.10
929.18	11132.76
929.35	11095.89
929.51	10919.77
929.68	10784.60
929.85	10753.88
930.02	10794.84
930.18	10731.36
930.35	10882.91
930.52	10854.23
930.69	10641.25
930.85	10712.92
931.02	10372.96
931.19	10536.80
931.36	10506.08
931.52	10465.12
931.69	10524.51
931.86	10284.90
932.02	10391.39
932.19	10057.57
932.36	10383.20
932.53	10254.18
932.69	10018.66
932.86	10053.48
933.03	10135.40
933.19	9977.70
933.36	9967.46
933.53	10049.38
933.70	10026.86
933.86	9740.14
934.03	9875.31
934.20	9523.05
934.36	9588.59
934.53	9500.53
934.70	9316.21
934.86	9523.05
935.03	9400.18
935.20	9199.48
935.36	9228.15
935.53	9248.63
935.70	9064.31
935.86	9088.89
936.03	8777.59
936.20	8843.13
936.36	8757.11
936.53	8832.89
936.70	8793.98
936.86	8716.16
937.03	8576.89
937.20	8322.94
937.36	8488.83
937.53	8175.49
937.70	8228.74
937.86	8183.68
938.03	7913.35
938.20	8103.81
938.36	7640.97
938.53	7894.92
938.70	7501.71
938.86	7622.54
939.03	7618.44
939.20	7600.01
939.36	7483.28
939.53	7235.47
939.70	7522.19
939.86	7128.98
940.03	7047.06
940.19	6932.37
940.36	6995.86
940.53	6981.53
940.69	6918.04
940.86	6768.54
941.03	6616.99
941.19	6616.99
941.36	6492.06
941.52	6651.80
941.69	6447.01
941.86	6426.53
942.02	6252.45
942.19	6104.99
942.35	6436.77
942.52	6066.08
942.69	5965.73
942.85	6074.28
943.02	5953.45
943.18	5963.68
943.35	5945.25
943.52	5836.71
943.68	5961.64
943.85	5849.00
944.01	5638.06
944.18	5793.70
944.35	5824.42
944.51	5623.72
944.68	5564.33
944.84	5623.72
945.01	5506.99
945.17	5631.91
945.34	5627.82
945.51	5437.36
945.67	5607.34
945.84	5496.75
946.00	5511.08
946.17	5431.21
946.33	5298.10
946.50	5576.62
946.67	5320.62
946.83	5492.65
947.00	5463.98
947.16	5324.72
947.33	5414.83
947.49	5349.29
947.66	5304.24
947.82	5375.92
947.99	5367.73
948.16	5525.42
948.32	5318.57
948.49	5398.45
948.65	5380.01
948.82	5298.10
948.98	5300.14
949.15	5203.89
949.31	5269.42
949.48	5304.24
949.64	5339.05
949.81	5349.29
949.97	5359.53
950.14	5345.20
950.30	5437.36
950.47	5500.84
950.63	5457.84
950.80	5484.46
950.96	5449.64
951.13	5337.01
951.30	5449.64
951.46	5377.97
951.63	5451.69
951.79	5595.05
951.96	5343.15
952.12	5439.40
952.29	5476.27
952.45	5420.97
952.62	5502.89
952.78	5572.52
952.94	5597.10
953.11	5531.56
953.27	5486.51
953.44	5582.76
953.60	5486.51
953.77	5601.19
953.93	5652.39
954.10	5498.80
954.26	5451.69
954.43	5597.10
954.59	5664.68
954.76	5580.71
954.92	5527.47
955.09	5560.24
955.25	5445.55
955.42	5525.42
955.58	5605.29
955.75	5543.85
955.91	5480.36
956.07	5570.48
956.24	5494.70
956.40	5539.76
956.57	5646.25
956.73	5588.91
956.90	5660.59
957.06	5564.33
957.23	5500.84
957.39	5605.29
957.56	5484.46
957.72	5533.61
957.88	5547.95
958.05	5509.04
958.21	5670.83
958.38	5584.81
958.54	5584.81
958.71	5681.07
958.87	5511.08
959.03	5562.28
959.20	5646.25
959.36	5568.43
959.53	5607.34
959.69	5441.45
959.85	5517.23
960.02	5631.91
960.18	5595.05
960.35	5531.56
960.51	5679.02
960.68	5521.32
960.84	5619.63
961.00	5392.30
961.17	5541.80
961.33	5529.52
961.50	5576.62
961.66	5543.85
961.82	5509.04
961.99	5441.45
962.15	5584.81
962.31	5533.61
962.48	5523.37
962.64	5576.62
962.81	5420.97
962.97	5494.70
963.13	5556.14
963.30	5242.80
963.46	5400.49
963.62	5509.04
963.79	5496.75
963.95	5447.60
964.12	5427.12
964.28	5459.88
964.44	5431.21
964.61	5648.30
964.77	5339.05
964.93	5414.83
965.10	5402.54
965.26	5377.97
965.42	5455.79
965.59	5330.86
965.75	5318.57
965.92	5463.98
966.08	5386.16
966.24	5308.34
966.41	5267.38
966.57	5451.69
966.73	5365.68
966.90	5406.64
967.06	5345.20
967.22	5314.48
967.39	5457.84
967.55	5212.08
967.71	5169.07
967.88	5103.54
968.04	5332.91
968.20	5322.67
968.37	5134.26
968.53	5322.67
968.69	5259.18
968.85	5167.03
969.02	5283.76
969.18	5257.14
969.34	5246.90
969.51	5316.53
969.67	5171.12
969.83	5115.83
970.00	5259.18
970.16	5097.39
970.32	5189.55
970.48	5289.90
970.65	5046.20
970.81	5042.10
970.97	5058.48
971.14	4890.55
971.30	5195.70
971.46	4995.00
971.63	5136.31
971.79	5156.79
971.95	5091.25
972.11	4984.76
972.28	5072.82
972.44	5025.72
972.60	5171.12
972.76	4958.13
972.93	4997.04
973.09	4960.18
973.25	5029.81
973.42	5027.76
973.58	5015.48
973.74	4992.95
973.90	4968.37
974.07	4827.06
974.23	5031.86
974.39	5046.20
974.55	4902.84
974.72	4677.56
974.88	4652.98
975.04	4929.46
975.20	4831.16
975.37	4956.08
975.53	4734.90
975.69	4939.70
975.85	4782.01
976.01	4712.38
976.18	4702.14
976.34	4853.69
976.50	4642.75
976.66	4820.92
976.83	4642.75
976.99	4722.62
977.15	4808.63
977.31	4532.15
977.47	4734.90
977.64	4704.18
977.80	4644.79
977.96	4689.85
978.12	4652.98
978.29	4509.63
978.45	4495.29
978.61	4491.20
978.77	4624.31
978.93	4523.96
979.10	4501.44
979.26	4454.33
979.42	4513.72
979.58	4394.94
979.74	4548.54
979.91	4589.50
980.07	4448.19
980.23	4546.49
980.39	4429.76
980.55	4534.20
980.71	4423.61
980.88	4411.32
981.04	4573.11
981.20	4427.71
981.36	4415.42
981.52	4411.32
981.68	4368.32
981.85	4376.51
982.01	4298.69
982.17	4325.31
982.33	4315.07
982.49	4431.80
982.65	4360.13
982.82	4378.56
982.98	4353.98
983.14	4222.91
983.30	4376.51
983.46	4114.37
983.62	4358.08
983.79	4186.05
983.95	4204.48
984.11	4145.09
984.27	4239.30
984.43	4251.58
984.59	4292.54
984.75	4306.88
984.91	4114.37
985.08	4161.47
985.24	4069.31
985.40	4065.22
985.56	4149.18
985.72	4227.01
985.88	4263.87
986.04	4097.99
986.20	4073.41
986.37	4089.79
986.53	4001.73
986.69	4204.48
986.85	4083.65
987.01	3964.87
987.17	4079.55
987.33	4009.92
987.49	4075.46
987.65	4116.42
987.82	3956.68
987.98	3946.44
988.14	3997.64
988.30	4016.07
988.46	3944.39
988.62	3964.87
988.78	3907.52
988.94	3893.19
989.10	3794.89
989.26	3868.61
989.42	3930.05
989.59	3788.74
989.75	3862.47
989.91	3829.70
990.07	3698.63
990.23	3792.84
990.39	3805.13
990.55	3807.17
990.71	3680.20
990.87	3825.61
991.03	3774.41
991.19	3751.88
991.35	3715.02
991.51	3719.11
991.67	3721.16
991.83	3919.81
992.00	3788.74
992.16	3717.06
992.32	3616.71
992.48	3645.38
992.64	3612.62
992.80	3696.58
992.96	3770.31
993.12	3700.68
993.28	3665.86
993.44	3647.43
993.60	3606.47
993.76	3612.62
993.92	3704.78
994.08	3631.05
994.24	3667.91
994.40	3620.81
994.56	3635.14
994.72	3590.09
994.88	3520.46
995.04	3645.38
995.20	3557.32
995.36	3487.69
995.52	3674.06
995.68	3499.98
995.84	3497.93
996.00	3626.95
996.16	3528.65
996.32	3508.17
996.48	3403.72
996.64	3467.21
996.80	3461.07
996.96	3430.35
997.12	3385.29
997.28	3418.06
997.44	3305.42
997.60	3401.68
997.76	3581.90
997.92	3332.05
998.08	3391.44
998.24	3327.95
998.40	3366.86
998.56	3514.31
998.72	3301.33
998.88	3330.00
999.04	3225.55
999.20	3330.00
999.36	3323.85
999.52	3379.15
999.68	3289.04
999.84	3297.23
1000.00	3315.66
1000.16	3403.72
1000.32	3330.00
1000.48	3375.05
1000.64	3180.50
1000.80	3160.02
1000.95	3180.50
1001.11	3153.87
1001.27	3149.78
1001.43	3254.22
1001.59	3157.97
1001.75	3178.45
1001.91	3235.79
1002.07	3166.16
1002.23	3065.81
1002.39	3112.91
1002.55	3104.72
1002.71	3074.00
1002.87	3178.45
1003.03	3033.04
1003.19	3108.82
1003.34	3151.82
1003.50	3137.49
1003.66	3104.72
1003.82	3096.53
1003.98	3131.34
1004.14	3057.62
1004.30	3008.47
1004.46	2973.65
1004.62	2975.70
1004.78	3047.38
1004.94	3051.47
1005.09	3055.57
1005.25	3043.28
1005.41	2977.75
1005.57	3055.57
1005.73	2959.31
1005.89	2994.13
1006.05	3051.47
1006.21	2949.08
1006.37	2957.27
1006.52	2893.78
1006.68	2873.30
1006.84	2889.68
1007.00	2885.59
1007.16	2975.70
1007.32	2854.87
1007.48	2867.16
1007.64	2973.65
1007.79	2797.53
1007.95	2873.30
1008.11	2957.27
1008.27	2815.96
1008.43	2826.20
1008.59	2801.62
1008.75	2850.77
1008.91	2899.92
1009.06	2748.37
1009.22	2869.20
1009.38	2766.81
1009.54	2787.29
1009.70	2871.25
1009.86	2793.43
1010.01	2832.34
1010.17	2643.93
1010.33	2762.71
1010.49	2799.57
1010.65	2746.33
1010.81	2699.22
1010.96	2639.83
1011.12	2713.56
1011.28	2658.26
1011.44	2760.66
1011.60	2639.83
1011.76	2627.54
1011.91	2867.16
1012.07	2695.13
1012.23	2562.01
1012.39	2652.12
1012.55	2654.17
1012.71	2650.07
1012.86	2605.02
1013.02	2637.78
1013.18	2682.84
1013.34	2574.30
1013.50	2682.84
1013.65	2629.59
1013.81	2637.78
1013.97	2652.12
1014.13	2514.91
1014.29	2605.02
1014.44	2686.94
1014.60	2551.77
1014.76	2521.05
1014.92	2572.25
1015.07	2467.80
1015.23	2574.30
1015.39	2559.96
1015.55	2500.57
1015.71	2527.19
1015.86	2602.97
1016.02	2516.95
1016.18	2445.27
1016.34	2537.43
1016.49	2490.33
1016.65	2449.37
1016.81	2480.09
1016.97	2297.82
1017.12	2486.23
1017.28	2465.75
1017.44	2414.56
1017.60	2486.23
1017.75	2465.75
1017.91	2428.89
1018.07	2467.80
1018.23	2453.47
1018.38	2375.64
1018.54	2469.85
1018.70	2361.31
1018.86	2396.12
1019.01	2306.01
1019.17	2461.66
1019.33	2555.86
1019.49	2385.88
1019.64	2277.34
1019.80	2326.49
1019.96	2426.84
1020.12	2351.07
1020.27	2277.34
1020.43	2394.08
1020.59	2373.60
1020.74	2422.75
1020.90	2355.16
1021.06	2322.40
1021.22	2299.87
1021.37	2346.97
1021.53	2312.16
1021.69	2340.83
1021.84	2236.38
1022.00	2289.63
1022.16	2189.28
1022.31	2289.63
1022.47	2299.87
1022.63	2342.88
1022.79	2142.18
1022.94	2181.09
1023.10	2396.12
1023.26	2334.68
1023.41	2213.85
1023.57	2230.24
1023.73	2244.57
1023.88	2197.47
1024.04	2246.62
1024.20	2236.38
1024.35	2273.25
1024.51	2312.16
1024.67	2236.38
1024.82	2263.01
1024.98	2115.55
1025.14	2152.42
1025.29	2183.13
1025.45	2250.72
1025.61	2142.18
1025.76	2174.94
1025.92	2207.71
1026.08	2222.05
1026.23	2131.94
1026.39	2220.00
1026.55	2160.61
1026.70	2035.68
1026.86	2142.18
1027.02	2052.06
1027.17	2199.52
1027.33	2170.85
1027.48	2082.78
1027.64	2068.45
1027.80	2084.83
1027.95	2109.41
1028.11	2054.11
1028.27	2123.74
1028.42	2181.09
1028.58	2150.37
1028.73	2060.26
1028.89	2035.68
1029.05	2164.70
1029.20	2045.92
>>>>>End Processed Spectral Data<<<<<
