SpectraSuite Data File
++++++++++++++++++++++++++++++++++++
Date: Fri Jun 02 14:44:33 CEST 2017
User: INFO_000
Dark Spectrum Present: No
Reference Spectrum Present: No
Number of Sampled Component Spectra: 1
Spectrometers: USB4H00879
Integration Time (usec): 80000 (USB4H00879)
Spectra Averaged: 1 (USB4H00879)
Boxcar Smoothing: 0 (USB4H00879)
Correct for Electrical Dark: No (USB4H00879)
Strobe/Lamp Enabled: No (USB4H00879)
Correct for Detector Non-linearity: No (USB4H00879)
Correct for Stray Light: No (USB4H00879)
Number of Pixels in Processed Spectrum: 3648
>>>>>Begin Processed Spectral Data<<<<<
345.13	1236.97
345.34	1236.97
345.56	1236.97
345.78	1302.51
345.99	1300.46
346.21	1677.29
346.42	1683.43
346.64	1669.09
346.86	1791.97
347.07	1712.10
347.29	1765.35
347.50	1587.18
347.72	1626.09
347.94	1748.97
348.15	1560.55
348.37	1732.58
348.59	1724.39
348.80	1626.09
349.02	1806.31
349.23	1927.14
349.45	1863.65
349.67	1845.22
349.88	1785.83
350.10	1933.28
350.31	1804.26
350.53	1789.92
350.75	1920.99
350.96	1755.11
351.18	1888.23
351.39	1886.18
351.61	1861.60
351.82	1937.38
352.04	1802.21
352.26	1886.18
352.47	1845.22
352.69	1945.57
352.90	1800.16
353.12	1861.60
353.34	1855.46
353.55	1992.67
353.77	1898.47
353.98	1802.21
354.20	1777.64
354.41	1927.14
354.63	1896.42
354.85	1986.53
355.06	1892.32
355.28	1812.45
355.49	1939.43
355.71	1896.42
355.92	1939.43
356.14	1951.71
356.35	1968.10
356.57	1820.64
356.79	1972.19
357.00	1834.98
357.22	1996.77
357.43	1896.42
357.65	1959.91
357.86	1839.08
358.08	1927.14
358.29	1972.19
358.51	1949.67
358.72	1994.72
358.94	1955.81
359.16	1910.75
359.37	1925.09
359.59	1935.33
359.80	1923.04
360.02	1914.85
360.23	2027.49
360.45	1957.86
360.66	1961.95
360.88	1931.23
361.09	1990.63
361.31	2027.49
361.52	1982.43
361.74	2009.06
361.95	2052.06
362.17	1996.77
362.38	2052.06
362.60	2025.44
362.81	1980.39
363.03	1941.47
363.24	1949.67
363.46	2140.13
363.67	2019.30
363.89	1990.63
364.10	1953.76
364.32	1996.77
364.53	1964.00
364.75	1865.70
364.96	1984.48
365.18	1957.86
365.39	1945.57
365.61	1966.05
365.82	2084.83
366.04	1998.82
366.25	1933.28
366.47	2050.02
366.68	2080.74
366.90	2025.44
367.11	2023.39
367.33	2050.02
367.54	2123.74
367.76	2007.01
367.97	2090.98
368.19	2062.30
368.40	2052.06
368.62	1961.95
368.83	1941.47
369.05	2076.64
369.26	2002.91
369.48	1988.58
369.69	1947.62
369.91	2031.58
370.12	2013.15
370.33	2088.93
370.55	1900.52
370.76	2037.73
370.98	2076.64
371.19	2050.02
371.41	2093.02
371.62	1992.67
371.84	1994.72
372.05	2160.61
372.27	2035.68
372.48	2052.06
372.69	2150.37
372.91	2109.41
373.12	2207.71
373.34	2084.83
373.55	2148.32
373.77	2172.89
373.98	2095.07
374.20	2152.42
374.41	2349.02
374.62	2076.64
374.84	2144.22
375.05	2222.05
375.27	2166.75
375.48	2172.89
375.70	2084.83
375.91	2197.47
376.12	2310.11
376.34	2185.18
376.55	2232.29
376.77	2164.70
376.98	2129.89
377.19	2097.12
377.41	2162.66
377.62	2217.95
377.84	2215.90
378.05	2297.82
378.27	2144.22
378.48	2316.25
378.69	2236.38
378.91	2281.44
379.12	2230.24
379.34	2162.66
379.55	2283.49
379.76	2277.34
379.98	2244.57
380.19	2232.29
380.41	2240.48
380.62	2263.01
380.83	2271.20
381.05	2222.05
381.26	2443.23
381.47	2244.57
381.69	2289.63
381.90	2342.88
382.12	2252.77
382.33	2314.20
382.54	2230.24
382.76	2246.62
382.97	2263.01
383.19	2242.53
383.40	2314.20
383.61	2238.43
383.83	2275.29
384.04	2359.26
384.25	2291.68
384.47	2443.23
384.68	2441.18
384.89	2291.68
385.11	2273.25
385.32	2383.84
385.54	2334.68
385.75	2412.51
385.96	2428.89
386.18	2435.03
386.39	2422.75
386.60	2430.94
386.82	2404.32
387.03	2359.26
387.24	2463.71
387.46	2437.08
387.67	2457.56
387.88	2510.81
388.10	2486.23
388.31	2551.77
388.52	2562.01
388.74	2453.47
388.95	2574.30
389.16	2537.43
389.38	2527.19
389.59	2582.49
389.80	2617.30
390.02	2502.62
390.23	2648.02
390.44	2621.40
390.66	2553.82
390.87	2533.34
391.08	2559.96
391.30	2727.89
391.51	2691.03
391.72	2650.07
391.94	2658.26
392.15	2643.93
392.36	2615.26
392.58	2641.88
392.79	2596.82
393.00	2734.04
393.22	2740.18
393.43	2738.13
393.64	2805.72
393.85	2836.44
394.07	2711.51
394.28	2725.85
394.49	2791.38
394.71	2863.06
394.92	2785.24
395.13	2740.18
395.35	2697.17
395.56	2744.28
395.77	2723.80
395.98	2838.48
396.20	2826.20
396.41	2893.78
396.62	2766.81
396.84	2813.91
397.05	2756.57
397.26	2967.51
397.47	2910.16
397.69	2754.52
397.90	3100.62
398.11	2807.77
398.32	2881.49
398.54	2877.40
398.75	2930.64
398.96	2895.83
399.18	3074.00
399.39	2906.07
399.60	3006.42
399.81	2947.03
400.03	2957.27
400.24	3205.07
400.45	2975.70
400.66	3157.97
400.88	3014.61
401.09	3227.60
401.30	2973.65
401.51	3186.64
401.73	3067.86
401.94	3094.48
402.15	3260.37
402.36	3078.10
402.58	3180.50
402.79	3190.74
403.00	3110.86
403.21	3270.61
403.43	3110.86
403.64	3319.76
403.85	3110.86
404.06	3241.93
404.27	3180.50
404.49	3221.45
404.70	3059.67
404.91	3332.05
405.12	3352.52
405.34	3227.60
405.55	3469.26
405.76	3186.64
405.97	3166.16
406.19	3436.49
406.40	3272.65
406.61	3344.33
406.82	3258.32
407.03	3239.89
407.25	3221.45
407.46	3518.41
407.67	3319.76
407.88	3444.68
408.09	3387.34
408.31	3387.34
408.52	3336.14
408.73	3360.72
408.94	3360.72
409.15	3522.51
409.37	3485.64
409.58	3530.70
409.79	3446.73
410.00	3577.80
410.21	3528.65
410.43	3475.40
410.64	3502.03
410.85	3573.71
411.06	3577.80
411.27	3481.55
411.48	3575.75
411.70	3530.70
411.91	3520.46
412.12	3688.39
412.33	3622.86
412.54	3559.37
412.76	3817.41
412.97	3616.71
413.18	3575.75
413.39	3731.40
413.60	3649.48
413.81	3651.53
414.03	3604.42
414.24	3604.42
414.45	3891.14
414.66	3610.57
414.87	3796.93
415.08	3659.72
415.30	3772.36
415.51	3741.64
415.72	3743.69
415.93	3805.13
416.14	3968.96
416.35	3813.32
416.56	3854.28
416.78	3848.13
416.99	3909.57
417.20	3805.13
417.41	3915.72
417.62	3911.62
417.83	3964.87
418.04	3940.29
418.26	3968.96
418.47	3913.67
418.68	4038.59
418.89	3915.72
419.10	4065.22
419.31	4024.26
419.52	4083.65
419.73	3989.44
419.95	4059.07
420.16	3917.76
420.37	4059.07
420.58	4048.83
420.79	3876.80
421.00	4050.88
421.21	4079.55
421.42	4081.60
421.63	4097.99
421.85	4079.55
422.06	4270.01
422.27	4278.21
422.48	4175.81
422.69	4267.97
422.90	4157.38
423.11	4253.63
423.32	4235.20
423.53	4403.13
423.75	4343.74
423.96	4478.91
424.17	4331.45
424.38	4468.67
424.59	4337.60
424.80	4526.01
425.01	4353.98
425.22	4364.22
425.43	4509.63
425.64	4556.73
425.85	4564.92
426.06	4698.04
426.28	4593.59
426.49	4495.29
426.70	4532.15
426.91	4720.57
427.12	4790.20
427.33	4730.81
427.54	4548.54
427.75	4757.43
427.96	4810.68
428.17	4835.25
428.38	4876.21
428.59	4947.89
428.80	4683.70
429.01	4808.63
429.23	4818.87
429.44	5054.39
429.65	5005.24
429.86	4915.12
430.07	4902.84
430.28	4859.83
430.49	4980.66
430.70	5246.90
430.91	5101.49
431.12	5207.98
431.33	5144.50
431.54	5230.51
431.75	5158.83
431.96	5253.04
432.17	5113.78
432.38	5226.42
432.59	5433.26
432.80	5443.50
433.01	5304.24
433.22	5410.73
433.43	5406.64
433.64	5287.86
433.85	5294.00
434.06	5377.97
434.27	5306.29
434.49	5412.78
434.70	5566.38
434.91	5400.49
435.12	5584.81
435.33	5629.87
435.54	5511.08
435.75	5351.34
435.96	5595.05
436.17	5502.89
436.38	5656.49
436.59	5707.69
436.80	5506.99
437.01	5740.46
437.22	5820.33
437.43	5617.58
437.64	5574.57
437.85	5918.63
438.06	5775.27
438.27	5693.35
438.48	5842.85
438.69	5918.63
438.90	5906.34
439.11	5742.50
439.32	5752.74
439.53	5781.42
439.74	5830.57
439.95	5982.12
440.16	5978.02
440.37	5937.06
440.57	5902.25
440.78	5996.45
440.99	6092.71
441.20	6012.84
441.41	5871.53
441.62	5982.12
441.83	5951.40
442.04	5986.21
442.25	6080.42
442.46	6055.84
442.67	6133.67
442.88	6528.92
443.09	5980.07
443.30	6238.11
443.51	6356.90
443.72	6397.85
443.93	6104.99
444.14	6375.33
444.35	6209.44
444.56	6457.25
444.77	6256.54
444.98	6301.60
445.19	6338.46
445.40	6217.63
445.61	6401.95
445.81	6422.43
446.02	6565.79
446.23	6612.89
446.44	6295.46
446.65	6510.49
446.86	6432.67
447.07	6580.12
447.28	6791.06
447.49	6750.10
447.70	6655.90
447.91	6696.86
448.12	6735.77
448.33	6717.34
448.54	6805.40
448.74	6721.43
448.95	6754.20
449.16	6616.99
449.37	7163.79
449.58	6821.78
449.79	7004.05
450.00	6631.32
450.21	6991.77
450.42	7081.88
450.63	6985.62
450.84	6915.99
451.05	7131.03
451.25	6971.29
451.46	6924.18
451.67	7198.61
451.88	7204.75
452.09	7188.37
452.30	7061.40
452.51	6936.47
452.72	7442.32
452.93	7557.00
453.13	7356.30
453.34	7278.48
453.55	7309.20
453.76	7395.22
453.97	7673.74
454.18	7421.84
454.39	7681.93
454.60	7462.80
454.81	7645.07
455.01	7661.45
455.22	7419.79
455.43	7448.46
455.64	7950.21
455.85	7831.43
456.06	8138.63
456.27	7919.50
456.48	7853.96
456.68	7985.03
456.89	7966.60
457.10	8093.57
457.31	8226.69
457.52	8095.62
457.73	8138.63
457.94	8214.40
458.14	8116.10
458.35	8515.45
458.56	8142.72
458.77	8277.89
458.98	8224.64
459.19	8347.52
459.39	8478.59
459.60	8687.48
459.81	8382.34
460.02	8542.08
460.23	8597.37
460.44	8712.06
460.65	8624.00
460.85	8949.62
461.06	8857.46
461.27	8572.80
461.48	8974.20
461.69	9064.31
461.89	8685.44
462.10	8804.22
462.31	8867.70
462.52	8968.06
462.73	9023.35
462.94	9246.58
463.14	9203.57
463.35	9107.32
463.56	9750.38
463.77	9541.49
463.98	9236.34
464.18	9367.41
464.39	9408.37
464.60	9717.61
464.81	9609.07
465.02	9647.98
465.23	9703.28
465.43	9817.96
465.64	9977.70
465.85	9858.92
466.06	9762.67
466.27	10295.14
466.47	10094.44
466.68	10221.41
466.89	10264.42
467.10	10239.84
467.30	9809.77
467.51	10112.87
467.72	10291.04
467.93	10082.15
468.14	10557.28
468.34	10508.13
468.55	10612.57
468.76	10479.46
468.97	10536.80
469.17	10835.80
469.38	10850.14
469.59	10921.82
469.80	10592.09
470.01	10823.51
470.21	10764.12
470.42	10970.97
470.63	11302.74
470.84	11032.41
471.04	11243.35
471.25	11186.01
471.46	11167.57
471.67	11458.39
471.87	11548.50
472.08	11593.55
472.29	11880.27
472.50	11413.33
472.70	11583.31
472.91	11642.70
473.12	12062.54
473.33	12017.48
473.53	12263.24
473.74	11710.29
473.95	12287.81
474.16	12357.44
474.36	12457.79
474.57	12420.93
474.78	12592.96
474.99	12496.71
475.19	12642.11
475.40	12853.05
475.61	12822.33
475.81	13045.56
476.02	13123.38
476.23	13145.91
476.44	13205.30
476.64	13373.24
476.85	13633.33
477.06	13365.04
477.27	13772.59
477.47	13649.71
477.68	13739.82
477.89	14067.50
478.09	13999.91
478.30	14100.26
478.51	13909.80
478.71	14384.93
478.92	14352.16
479.13	14354.21
479.34	14507.81
479.54	14651.17
479.75	14735.14
479.96	14688.03
480.16	14929.69
480.37	14880.54
480.58	15068.95
480.78	15451.92
480.99	15347.48
481.20	15349.53
481.41	15535.89
481.61	15591.19
481.82	15716.11
482.03	15484.69
482.23	15855.37
482.44	15795.98
482.65	16006.92
482.85	16183.05
483.06	16355.08
483.27	16191.24
483.47	16408.33
483.68	16289.54
483.89	16742.14
484.09	16609.03
484.30	16523.01
484.51	16961.28
484.71	16799.49
484.92	17010.43
485.13	17080.06
485.33	17256.18
485.54	17213.18
485.75	17401.59
485.95	17444.60
486.16	17481.46
486.37	17696.50
486.57	17942.25
486.78	17616.63
486.98	18007.79
487.19	17981.17
487.40	18249.45
487.60	18114.28
487.81	18665.19
488.02	18484.97
488.22	18341.61
488.43	18712.29
488.64	18730.72
488.84	18681.57
489.05	18835.17
489.25	18835.17
489.46	19279.58
489.67	19218.14
489.87	19543.77
490.08	19580.63
490.29	19324.63
490.49	19789.52
490.70	19500.76
490.90	19791.57
491.11	19637.97
491.32	19965.65
491.52	20104.91
491.73	19873.49
491.94	20254.41
492.14	20270.79
492.35	20725.44
492.55	20491.98
492.76	20508.36
492.97	20721.35
493.17	20518.60
493.38	20956.86
493.58	20999.87
493.79	21241.53
494.00	20833.99
494.20	21069.50
494.41	21714.61
494.61	21444.28
494.82	21503.67
495.02	21608.12
495.23	21538.49
495.44	21534.39
495.64	21968.56
495.85	21853.87
496.05	21759.67
496.26	21690.04
496.47	22261.42
496.67	22077.10
496.88	22367.91
497.08	22273.71
497.29	22494.89
497.49	22300.33
497.70	22453.93
497.91	22298.28
498.11	22464.17
498.32	22718.12
498.52	22793.89
498.73	22974.11
498.93	22924.96
499.14	23017.12
499.34	23248.54
499.55	23248.54
499.76	23154.33
499.96	23473.82
500.17	23066.27
500.37	23586.46
500.58	23383.71
500.78	23514.78
500.99	23738.01
501.19	23563.93
501.40	23516.83
501.60	23623.32
501.81	23856.79
502.02	23860.88
502.22	23932.56
502.43	23969.43
502.63	24229.52
502.84	24358.54
503.04	24268.43
503.25	24245.90
503.45	24161.94
503.66	24499.85
503.86	24362.64
504.07	24659.59
504.27	24454.79
504.48	24645.26
504.68	24446.60
504.89	24622.73
505.09	24864.39
505.30	24807.05
505.50	24592.01
505.71	25187.97
505.91	24956.55
506.12	25032.32
506.32	25112.19
506.53	25239.17
506.73	25427.58
506.94	25624.18
507.14	25130.62
507.35	25443.96
507.55	25437.82
507.76	25511.55
507.96	25556.60
508.17	25689.72
508.37	25482.88
508.58	25562.75
508.78	25849.46
508.99	26041.97
509.19	26330.73
509.40	26021.49
509.60	26080.88
509.81	25859.70
510.01	26406.51
510.22	26011.25
510.42	26304.11
510.63	26580.59
510.83	26615.40
511.04	26193.52
511.24	26904.17
511.44	26599.02
511.65	26412.65
511.85	26553.96
512.06	26812.01
512.26	27084.39
512.47	26971.75
512.67	26924.65
512.88	26971.75
513.08	26637.93
513.29	27119.20
513.49	27137.63
513.69	27313.76
513.90	27227.74
514.10	27631.19
514.31	27358.81
514.51	27340.38
514.72	27536.99
514.92	27504.22
515.13	27688.54
515.33	27682.39
515.53	27754.07
515.74	27852.38
515.94	27838.04
516.15	28036.69
516.35	27735.64
516.56	28313.17
516.76	28139.09
516.96	27971.16
517.17	28366.42
517.37	28278.35
517.58	28378.70
517.78	28560.97
517.99	28180.05
518.19	28948.04
518.39	28931.65
518.60	28808.78
518.80	28708.43
519.01	29107.78
519.21	28970.57
519.41	28948.04
519.62	28644.94
519.82	29439.55
520.03	29255.23
520.23	29146.69
520.43	29484.61
520.64	29365.82
520.84	29599.29
521.05	29730.36
521.25	29709.88
521.45	29736.51
521.66	30328.37
521.86	29906.49
522.07	30350.90
522.27	30000.69
522.47	30109.24
522.68	30604.84
522.88	30232.11
523.08	30762.54
523.29	30658.09
523.49	30674.48
523.70	30508.59
523.90	30946.86
524.10	31086.12
524.31	31194.66
524.51	31004.20
524.71	31641.12
524.92	31333.92
525.12	31039.01
525.33	31223.33
525.53	31692.32
525.73	31880.73
525.94	31671.84
526.14	31880.73
526.34	32167.45
526.55	31893.02
526.75	32024.09
526.95	32261.65
527.16	32026.14
527.36	32134.68
527.56	31944.22
527.77	32847.37
527.97	32828.94
528.17	32525.84
528.38	32507.41
528.58	32519.70
528.78	32894.47
528.99	32923.15
529.19	33121.80
529.39	32802.32
529.60	33195.53
529.80	33011.21
530.00	33639.93
530.21	33502.72
530.41	33793.53
530.61	33676.80
530.82	33297.92
531.02	33539.58
531.22	33945.08
531.43	33756.67
531.63	34113.02
531.83	34293.24
532.04	34672.11
532.24	34055.67
532.44	34442.74
532.64	34555.38
532.85	34565.62
533.05	34676.21
533.25	34979.31
533.46	34438.64
533.66	35214.82
533.86	35177.96
534.07	35247.59
534.27	34924.01
534.47	35171.82
534.67	35401.19
534.88	35354.08
535.08	35298.79
535.28	35448.29
535.49	35786.21
535.69	35724.77
535.89	35687.90
536.09	35671.52
536.30	36287.96
536.50	35956.19
536.70	36253.14
536.91	35904.99
537.11	36107.74
537.31	36654.54
537.51	36242.90
537.72	36623.83
537.92	36883.92
538.12	36881.87
538.32	36969.93
538.53	36851.15
538.73	36982.22
538.93	36675.02
539.13	36664.78
539.34	37062.09
539.54	36765.14
539.74	37086.67
539.94	37307.85
540.15	37025.23
540.35	37627.33
540.55	37707.20
540.75	37856.70
540.96	37518.79
541.16	37279.18
541.36	37914.05
541.56	37797.31
541.77	37811.65
541.97	37533.12
542.17	38143.42
542.37	38006.20
542.58	38182.33
542.78	37885.37
542.98	38331.83
543.18	38395.32
543.38	38534.58
543.59	38559.16
543.79	38270.39
543.99	38536.63
544.19	38655.41
544.40	38968.75
544.60	38841.78
544.80	38954.41
545.00	38800.82
545.20	39228.84
545.41	38847.92
545.61	38829.49
545.81	39108.01
546.01	38915.50
546.21	39079.34
546.42	39108.01
546.62	39482.79
546.82	39194.03
547.02	39290.28
547.22	39511.46
547.43	39269.80
547.63	39323.05
547.83	39783.84
548.03	39527.84
548.23	39810.46
548.44	40097.18
548.64	39896.48
548.84	39982.49
549.04	39878.05
549.24	40312.22
549.45	40271.26
549.65	39974.30
549.85	40287.64
550.05	40568.21
550.25	40246.68
550.45	40875.41
550.66	40531.35
550.86	40539.54
551.06	40420.76
551.26	40400.28
551.46	41166.22
551.66	40418.71
551.87	40875.41
552.07	40699.28
552.27	40863.12
552.47	41137.55
552.67	41094.54
552.87	40926.61
553.07	41061.77
553.28	41389.45
553.48	41391.50
553.68	41395.59
553.88	41307.53
554.08	41551.24
554.28	41766.27
554.48	41088.40
554.69	41479.56
554.89	41692.55
555.09	41952.64
555.29	41786.75
555.49	41747.84
555.69	41944.45
555.89	41631.11
556.10	41991.55
556.30	41891.20
556.50	42120.57
556.70	42210.68
556.90	42319.23
557.10	42360.19
557.30	42202.49
557.50	42505.59
557.70	42429.82
557.91	42644.85
558.11	42059.13
558.31	42610.04
558.51	42638.71
558.71	42601.85
558.91	43373.93
559.11	42929.52
559.31	42550.65
559.51	42763.64
559.72	42788.21
559.92	42964.34
560.12	42753.40
560.32	43289.96
560.52	42968.43
560.72	43040.11
560.92	43564.39
561.12	43017.58
561.32	43711.84
561.52	43468.14
561.72	43793.76
561.93	43677.03
562.13	43574.63
562.33	43869.54
562.53	44105.06
562.73	43771.24
562.93	43959.65
563.13	43941.22
563.33	43623.78
563.53	44131.68
563.73	43890.02
563.93	44270.94
564.13	44221.79
564.33	44041.57
564.53	44524.89
564.74	44412.25
564.94	44287.32
565.14	44772.69
565.34	44072.29
565.54	44195.17
565.74	44266.84
565.94	44791.12
566.14	44316.00
566.34	44664.15
566.54	45268.30
566.74	44709.21
566.94	44680.53
567.14	45034.83
567.34	44516.70
567.54	45227.34
567.74	44625.24
567.94	44817.75
568.14	45061.46
568.34	45274.45
568.54	44965.20
568.74	45409.61
568.94	45110.61
569.14	45395.28
569.34	45344.08
569.54	45172.05
569.75	45608.26
569.95	45053.26
570.15	45845.83
570.35	45417.80
570.55	45434.19
570.75	45528.39
570.95	45935.94
571.15	45784.39
571.35	45612.36
571.55	46247.23
571.75	45796.68
571.95	46259.52
572.15	45579.59
572.35	46136.64
572.55	45976.90
572.75	46073.15
572.95	45716.81
573.15	46249.28
573.35	46083.39
573.55	45770.05
573.75	46048.58
573.95	46200.13
574.15	46466.36
574.35	46822.71
574.55	46421.31
574.75	46499.13
574.95	46359.87
575.15	45997.38
575.34	46464.32
575.54	46646.58
575.74	46699.83
575.94	46433.60
576.14	46386.49
576.34	46961.97
576.54	46687.54
576.74	46955.83
576.94	46656.82
577.14	47039.79
577.34	47316.27
577.54	46808.37
577.74	46873.91
577.94	47365.42
578.14	47109.43
578.34	47297.84
578.54	46791.99
578.74	46957.88
578.94	46837.05
579.14	47441.20
579.34	47082.80
579.54	47136.05
579.74	47545.64
579.94	47297.84
580.13	47910.18
580.33	47400.24
580.53	47648.04
580.73	47379.76
580.93	47265.07
581.13	47478.06
581.33	47635.75
581.53	47652.14
581.73	47727.91
581.93	48319.77
582.13	47912.23
582.33	47826.21
582.53	47738.15
582.73	47967.52
582.92	48102.69
583.12	48182.56
583.32	47901.99
583.52	47627.56
583.72	47777.06
583.92	47686.95
584.12	48117.03
584.32	48682.27
584.52	48026.92
584.72	48684.31
584.92	48141.60
585.11	48712.98
585.31	48297.25
585.51	48616.73
585.71	48692.50
585.91	48645.40
586.11	48502.04
586.31	48559.39
586.51	48690.46
586.71	48686.36
586.91	48905.49
587.10	48829.72
587.30	48514.33
587.50	48620.83
587.70	48747.80
587.90	48491.80
588.10	48971.03
588.30	48956.69
588.50	48973.08
588.69	48962.84
588.89	49124.63
589.09	48694.55
589.29	49341.71
589.49	49435.92
589.69	48907.54
589.89	49104.15
590.08	49294.61
590.28	48655.64
590.48	49184.02
590.68	49149.20
590.88	49743.11
591.08	49237.26
591.28	48805.14
591.47	49421.58
591.67	49513.74
591.87	49820.94
592.07	49466.64
592.27	49571.08
592.47	49597.71
592.67	49536.27
592.86	49442.06
593.06	49927.43
593.26	49583.37
593.46	49640.71
593.66	49865.99
593.86	49919.24
594.05	50011.40
594.25	49964.29
594.45	49575.18
594.65	50042.12
594.85	49689.87
595.05	50545.92
595.24	50216.19
595.44	50085.12
595.64	50296.06
595.84	50001.16
596.04	50197.76
596.23	50152.71
596.43	50773.24
596.63	50177.28
596.83	50464.00
597.03	50910.46
597.22	50867.45
597.42	50996.47
597.62	51201.27
597.82	51084.53
598.02	50640.12
598.21	51078.39
598.41	50418.94
598.61	51416.30
598.81	50885.88
599.01	51277.04
599.20	51268.85
599.40	51125.49
599.60	51391.73
599.80	51098.87
600.00	51641.58
600.19	51598.57
600.39	51078.39
600.59	52051.17
600.79	51653.87
600.98	51731.69
601.18	51778.79
601.38	51637.48
601.58	51811.56
601.78	52020.45
601.97	52245.73
602.17	52571.36
602.37	52208.87
602.57	51750.12
602.76	52745.44
602.96	52479.20
603.16	53116.12
603.36	52499.68
603.55	52886.74
603.75	52313.31
603.95	53021.91
604.15	52622.56
604.34	52743.39
604.54	53050.58
604.74	52935.90
604.94	52917.46
605.13	52913.37
605.33	53650.64
605.53	52886.74
605.73	53294.29
605.92	53408.98
606.12	53732.56
606.32	53726.41
606.52	53615.82
606.71	53501.14
606.91	54056.14
607.11	53599.44
607.30	53912.78
607.50	53998.79
607.70	54480.06
607.90	53927.11
608.09	53703.88
608.29	54291.65
608.49	54219.97
608.68	54332.61
608.88	54320.32
609.08	54113.48
609.28	54314.18
609.47	54381.76
609.67	54914.23
609.87	54574.27
610.06	54781.12
610.26	54719.68
610.46	55162.04
610.66	54625.47
610.85	54744.25
611.05	54705.34
611.25	54912.19
611.44	54463.68
611.64	54822.08
611.84	54953.15
612.03	54426.82
612.23	55047.35
612.43	55256.24
612.62	54940.86
612.82	55006.39
613.02	55055.54
613.21	55153.85
613.41	54998.20
613.61	55645.36
613.80	55047.35
614.00	55264.44
614.20	55284.92
614.39	55155.89
614.59	55424.18
614.79	55686.32
614.98	55491.76
615.18	55370.93
615.38	55813.29
615.57	55243.96
615.77	55514.29
615.97	55504.05
616.16	55901.36
616.36	55588.02
616.56	55569.58
616.75	55620.78
616.95	54947.00
617.15	55563.44
617.34	55858.35
617.54	55461.04
617.74	55927.98
617.93	55786.67
618.13	55553.20
618.32	55751.85
618.52	55133.37
618.72	55651.50
618.91	55882.92
619.11	55291.06
619.31	55878.83
619.50	55538.86
619.70	55725.23
619.90	55801.00
620.09	55626.93
620.29	55897.26
620.48	55852.20
620.68	56284.33
620.88	55588.02
621.07	55714.99
621.27	55411.89
621.46	55073.98
621.66	55585.97
621.86	55506.10
622.05	55563.44
622.25	56075.43
622.44	55409.84
622.64	55581.87
622.84	55506.10
623.03	55522.48
623.23	55956.65
623.42	55530.67
623.62	55520.43
623.82	56118.44
624.01	56046.76
624.21	55975.08
624.40	55954.60
624.60	56020.14
624.80	55747.76
624.99	55370.93
625.19	55622.83
625.38	55575.73
625.58	55618.74
625.77	56091.82
625.97	55841.96
626.17	55434.42
626.36	55483.57
626.56	55594.16
626.75	55362.74
626.95	55997.61
627.14	55714.99
627.34	55782.57
627.54	55506.10
627.73	55923.88
627.93	55469.23
628.12	55194.81
628.32	55512.24
628.51	55882.92
628.71	55534.77
628.90	55596.21
629.10	55510.19
629.30	55622.83
629.49	55399.60
629.69	55760.05
629.88	55760.05
630.08	55938.22
630.27	55659.69
630.47	55655.60
630.66	55418.03
630.86	56022.19
631.05	55127.22
631.25	56024.23
631.44	55698.61
631.64	55647.41
631.84	55856.30
632.03	56194.21
632.23	55096.50
632.42	56005.80
632.62	55446.71
632.81	55372.98
633.01	55583.92
633.20	55723.18
633.40	55203.00
633.59	55839.92
633.79	55346.36
633.98	55106.74
634.18	55565.49
634.37	55690.41
634.57	55022.78
634.76	54979.77
634.96	55307.44
635.15	55481.52
635.35	55112.89
635.54	55268.53
635.74	55622.83
635.93	54820.03
636.13	55590.06
636.32	55727.28
636.52	55184.57
636.71	55030.97
636.91	55301.30
637.10	55442.61
637.30	54983.86
637.49	55526.58
637.69	55254.20
637.88	55364.79
638.08	55309.49
638.27	55758.00
638.46	55088.31
638.66	55090.36
638.85	55354.55
639.05	55397.55
639.24	55538.86
639.44	55016.63
639.63	55260.34
639.83	55080.12
640.02	55272.63
640.22	55354.55
640.41	55424.18
640.61	54901.95
640.80	55325.88
640.99	54910.14
641.19	55702.70
641.38	55329.97
641.58	54922.43
641.77	55205.05
641.97	54768.83
642.16	54832.32
642.36	55428.27
642.55	55334.07
642.74	55063.74
642.94	55739.57
643.13	55096.50
643.33	54924.47
643.52	55624.88
643.72	55215.29
643.91	55092.41
644.10	55356.60
644.30	55702.70
644.49	55334.07
644.69	55733.42
644.88	55246.00
645.08	55112.89
645.27	55446.71
645.46	54650.05
645.66	55479.47
645.85	55014.58
646.05	55325.88
646.24	55219.38
646.43	55366.84
646.63	55450.80
646.82	55467.19
647.02	55354.55
647.21	55368.88
647.40	55422.13
647.60	55719.09
647.79	55493.81
647.99	55393.46
648.18	55241.91
648.37	55897.26
648.57	55747.76
648.76	55665.84
648.96	55569.58
649.15	55737.52
649.34	55844.01
649.54	55858.35
649.73	55088.31
649.92	55669.93
650.12	55493.81
650.31	55706.80
650.51	55833.77
650.70	55694.51
650.89	55696.56
651.09	56016.04
651.28	55792.81
651.47	55903.40
651.67	56050.86
651.86	56091.82
652.06	55682.22
652.25	56108.20
652.44	55942.31
652.64	55987.37
652.83	55762.09
653.02	55719.09
653.22	56071.34
653.41	55745.71
653.60	55536.82
653.80	55958.70
653.99	55954.60
654.18	55917.74
654.38	55987.37
654.57	55831.72
654.76	55616.69
654.96	55622.83
655.15	55751.85
655.34	56089.77
655.54	55968.94
655.73	55557.30
655.92	55735.47
656.12	56229.03
656.31	55620.78
656.50	55780.52
656.70	56235.17
656.89	55844.01
657.08	56067.24
657.28	56153.26
657.47	55745.71
657.66	56104.10
657.86	56016.04
658.05	56769.69
658.24	56300.71
658.43	55899.31
658.63	56341.67
658.82	56353.96
659.01	56544.42
659.21	55977.13
659.40	56280.23
659.59	56149.16
659.79	56796.32
659.98	56183.97
660.17	56626.34
660.36	56714.40
660.56	56771.74
660.75	56546.47
660.94	56796.32
661.14	56687.78
661.33	56736.93
661.52	56097.96
661.71	56728.73
661.91	56317.09
662.10	56192.17
662.29	56775.84
662.49	56736.93
662.68	57269.40
662.87	56423.59
663.06	57093.27
663.26	56935.58
663.45	57109.66
663.64	56808.61
663.83	57083.03
664.03	56769.69
664.22	56962.20
664.41	57214.10
664.60	57232.53
664.80	56448.16
664.99	56732.83
665.18	56319.14
665.37	57275.54
665.57	57537.68
665.76	56882.33
665.95	56911.00
666.14	56994.97
666.34	57150.62
666.53	57296.02
666.72	56947.87
666.91	56956.06
667.11	56792.22
667.30	57054.36
667.49	57273.49
667.68	57072.79
667.87	57148.57
668.07	57312.41
668.26	57572.50
668.45	57285.78
668.64	57083.03
668.84	57607.31
669.03	57404.56
669.22	57554.07
669.41	57384.08
669.60	57654.42
669.80	57263.25
669.99	57171.10
670.18	57416.85
670.37	57367.70
670.57	57777.29
670.76	57746.57
670.95	57427.09
671.14	57420.95
671.33	57183.38
671.53	57941.13
671.72	57418.90
671.91	57494.67
672.10	57171.10
672.29	57275.54
672.48	57265.30
672.68	57803.92
672.87	57562.26
673.06	57840.78
673.25	57312.41
673.44	57611.41
673.64	57334.93
673.83	57062.55
674.02	57484.43
674.21	57228.44
674.40	57343.12
674.59	57343.12
674.79	57513.11
674.98	57400.47
675.17	57441.43
675.36	57132.18
675.55	58025.10
675.74	57902.22
675.94	57248.92
676.13	57605.26
676.32	57664.66
676.51	57435.28
676.70	57504.91
676.89	57742.48
677.08	57834.64
677.28	57617.55
677.47	57961.61
677.66	57891.98
677.85	57693.33
678.04	57932.94
678.23	57955.47
678.42	57910.41
678.62	57619.60
678.81	57842.83
679.00	57484.43
679.19	57982.09
679.38	57799.82
679.57	57414.80
679.76	58225.80
679.96	57820.30
680.15	57640.08
680.34	57738.38
680.53	57635.98
680.72	57701.52
680.91	57539.73
681.10	57586.83
681.29	57894.03
681.48	57423.00
681.68	57423.00
681.87	57732.24
682.06	57064.60
682.25	57054.36
682.44	57136.28
682.63	57783.44
682.82	57054.36
683.01	57373.84
683.20	57068.70
683.39	57934.99
683.59	57111.70
683.78	57656.46
683.97	56978.59
684.16	57633.94
684.35	56935.58
684.54	56958.11
684.73	57083.03
684.92	57019.55
685.11	56966.30
685.30	56870.04
685.49	57746.57
685.69	57238.68
685.88	57423.00
686.07	56853.66
686.26	57289.88
686.45	57566.35
686.64	57138.33
686.83	57093.27
687.02	57427.09
687.21	57291.93
687.40	57080.98
687.59	57142.42
687.78	56941.72
687.97	56777.89
688.16	56853.66
688.35	56556.70
688.54	56595.62
688.74	56693.92
688.93	56476.83
689.12	56485.03
689.31	56458.40
689.50	56698.01
689.69	56386.72
689.88	56183.97
690.07	56521.89
690.26	56235.17
690.45	56493.22
690.64	56308.90
690.83	56255.65
691.02	55997.61
691.21	56497.31
691.40	56071.34
691.59	56612.00
691.78	56161.45
691.97	56192.17
692.16	56071.34
692.35	56415.40
692.54	56530.08
692.73	56757.41
692.92	55942.31
693.11	55823.53
693.30	56013.99
693.49	55954.60
693.68	55934.12
693.87	56001.71
694.06	55633.07
694.25	55561.39
694.44	55600.30
694.63	55502.00
694.82	55778.48
695.01	55186.61
695.20	55801.00
695.39	55291.06
695.58	55338.16
695.77	55073.98
695.96	55192.76
696.15	55712.94
696.34	55086.26
696.53	54969.53
696.72	55401.65
696.91	55116.98
697.10	55035.06
697.29	54850.75
697.48	54715.58
697.67	54916.28
697.86	54901.95
698.05	54355.14
698.24	54707.39
698.43	54586.56
698.62	54942.91
698.81	54928.57
699.00	54965.43
699.19	54310.08
699.38	54797.50
699.57	54244.55
699.76	55073.98
699.95	53947.59
700.14	54389.95
700.32	54252.74
700.51	54129.86
700.70	54527.17
700.89	54336.71
701.08	54367.43
701.27	53781.71
701.46	54103.24
701.65	53548.24
701.84	54154.44
702.03	53857.48
702.22	53449.94
702.41	53265.62
702.60	53589.20
702.79	53736.65
702.98	53388.50
703.17	53525.71
703.35	53116.12
703.54	53466.32
703.73	53527.76
703.92	53433.55
704.11	53484.75
704.30	53521.62
704.49	53464.27
704.68	52901.08
704.87	53310.67
705.06	53212.37
705.25	53093.59
705.43	53535.95
705.62	53322.96
705.81	53320.91
706.00	52759.77
706.19	52903.13
706.38	52917.46
706.57	53011.67
706.76	52929.75
706.95	53005.53
707.14	52573.41
707.32	52645.08
707.51	52395.23
707.70	52810.97
707.89	52901.08
708.08	52606.17
708.27	52782.30
708.46	52479.20
708.65	52557.02
708.84	52421.86
709.02	52675.80
709.21	52561.12
709.40	52212.96
709.59	52260.07
709.78	51918.06
709.97	52684.00
710.16	52221.16
710.34	52110.56
710.53	51735.79
710.72	51598.57
710.91	51760.36
711.10	51838.18
711.29	52247.78
711.48	52188.39
711.66	51784.94
711.85	51639.53
712.04	51852.52
712.23	51678.44
712.42	51365.10
712.61	51565.81
712.80	51555.57
712.98	52059.37
713.17	51641.58
713.36	51475.69
713.55	51406.06
713.74	51123.44
713.93	51541.23
714.11	51160.31
714.30	51016.95
714.49	50877.69
714.68	51289.33
714.87	51344.62
715.06	51279.09
715.24	50832.63
715.43	51049.72
715.62	51033.33
715.81	50914.55
716.00	51229.94
716.18	50433.28
716.37	50640.12
716.56	50470.14
716.75	51074.29
716.94	50973.94
717.12	50289.92
717.31	50902.26
717.50	50832.63
717.69	50291.97
717.88	50570.49
718.06	50574.59
718.25	50926.84
718.44	49906.95
718.63	50156.80
718.82	50349.31
719.00	50394.37
719.19	49919.24
719.38	50302.21
719.57	50029.83
719.76	49878.28
719.94	49505.55
720.13	49667.34
720.32	49773.83
720.51	49911.05
720.69	49634.57
720.88	49587.47
721.07	49714.44
721.26	49325.33
721.44	49448.21
721.63	49501.45
721.82	49259.79
722.01	48934.17
722.20	49284.37
722.38	48813.34
722.57	48940.31
722.76	49425.68
722.95	49108.24
723.13	49030.42
723.32	48889.11
723.51	48264.48
723.70	48653.59
723.88	48473.37
724.07	48672.03
724.26	48676.12
724.44	48766.23
724.63	48452.89
724.82	48602.39
725.01	48272.67
725.19	48725.27
725.38	48227.62
725.57	48356.64
725.76	48307.49
725.94	48266.53
726.13	47871.27
726.32	48211.23
726.51	48303.39
726.69	48653.59
726.88	48561.44
727.07	48424.22
727.25	48616.73
727.44	48276.77
727.63	48346.40
727.82	48244.00
728.00	48805.14
728.19	48117.03
728.38	48790.81
728.56	47832.36
728.75	48659.74
728.94	47914.28
729.12	48207.14
729.31	48176.42
729.50	48125.22
729.69	48301.34
729.87	48233.76
730.06	48272.67
730.25	48637.21
730.43	48872.73
730.62	48102.69
730.81	48346.40
730.99	48379.17
731.18	48198.94
731.37	48506.14
731.55	48600.35
731.74	48577.82
731.93	48543.00
732.11	48493.85
732.30	48192.80
732.49	47918.37
732.67	48690.46
732.86	48223.52
733.05	48301.34
733.23	48082.21
733.42	48477.47
733.61	48315.68
733.79	48610.59
733.98	48952.60
734.17	48497.95
734.35	48534.81
734.54	48325.92
734.73	48555.29
734.91	48485.66
735.10	48196.90
735.29	48651.55
735.47	47594.79
735.66	48219.42
735.84	48391.45
736.03	47850.79
736.22	48164.13
736.40	48198.94
736.59	48358.69
736.78	48153.89
736.96	47951.14
737.15	48248.10
737.33	48276.77
737.52	47985.96
737.71	47957.28
737.89	48284.96
738.08	47992.10
738.27	48088.35
738.45	49028.37
738.64	48381.21
738.82	48209.18
739.01	48117.03
739.20	48157.99
739.38	48350.49
739.57	48133.41
739.75	47736.10
739.94	47969.57
740.13	48047.39
740.31	47889.70
740.50	48149.79
740.68	47789.35
740.87	48338.21
741.06	48024.87
741.24	47752.49
741.43	47758.63
741.61	48006.44
741.80	47484.20
741.99	47875.37
742.17	47953.19
742.36	47447.34
742.54	47349.04
742.73	47732.01
742.91	47904.04
743.10	47840.55
743.29	48020.77
743.47	47764.78
743.66	47707.43
743.84	47920.42
744.03	47916.32
744.21	47744.30
744.40	48047.39
744.59	47811.88
744.77	47729.96
744.96	47689.00
745.14	47406.38
745.33	47623.47
745.51	47404.33
745.70	47363.37
745.88	47598.89
746.07	47484.20
746.26	47213.87
746.44	47592.75
746.63	47203.63
746.81	47045.94
747.00	47068.47
747.18	47490.35
747.37	47355.18
747.55	47230.26
747.74	47650.09
747.92	46802.23
748.11	46740.79
748.29	47535.40
748.48	47267.12
748.66	46832.95
748.85	46863.67
749.03	47443.24
749.22	46988.60
749.41	46910.77
749.59	47109.43
749.78	47111.47
749.96	46611.77
750.15	47158.58
750.33	47076.66
750.52	47285.55
750.70	46763.32
750.89	46791.99
751.07	46843.19
751.26	46570.81
751.44	46683.45
751.63	46808.37
751.81	46464.32
752.00	46204.22
752.18	46738.74
752.37	46693.69
752.55	46570.81
752.74	46366.01
752.92	46529.85
753.10	46314.81
753.29	46875.96
753.47	46144.83
753.66	45876.55
753.84	46388.54
754.03	46359.87
754.21	46423.36
754.40	46363.96
754.58	46511.42
754.77	46331.20
754.95	45847.88
755.14	46179.65
755.32	46388.54
755.51	45722.95
755.69	45845.83
755.88	46368.06
756.06	46089.54
756.24	45905.22
756.43	45589.83
756.61	45628.74
756.80	45765.96
756.98	45079.89
757.17	45800.77
757.35	45888.84
757.54	45618.50
757.72	45790.53
757.90	45565.26
758.09	45630.79
758.27	45299.02
758.46	45077.84
758.64	45536.59
758.83	45276.49
759.01	45677.90
759.19	45440.33
759.38	45139.28
759.56	45587.78
759.75	44926.29
759.93	45120.85
760.12	44440.92
760.30	44893.52
760.48	45086.03
760.67	44815.70
760.85	45006.16
761.04	44903.76
761.22	44965.20
761.40	45296.97
761.59	44764.50
761.77	44776.79
761.96	44854.61
762.14	44721.49
762.32	44559.70
762.51	44565.85
762.69	44711.25
762.88	44408.15
763.06	44473.69
763.24	44385.63
763.43	44406.11
763.61	44565.85
763.80	44551.51
763.98	43943.27
764.16	44156.25
764.35	43957.60
764.53	43476.33
764.72	43705.70
764.90	43963.75
765.08	44039.52
765.27	44250.46
765.45	43521.38
765.63	42984.82
765.82	43695.46
766.00	43316.59
766.18	43570.54
766.37	43693.41
766.55	42923.38
766.74	43398.51
766.92	43447.66
767.10	43099.50
767.29	42968.43
767.47	42777.97
767.65	42808.69
767.84	42980.72
768.02	42988.91
768.20	42837.36
768.39	42804.59
768.57	43107.69
768.75	42972.53
768.94	42827.12
769.12	42648.95
769.30	42679.67
769.49	42278.27
769.67	42710.39
769.85	41862.53
770.04	42564.98
770.22	42179.96
770.40	42210.68
770.59	42130.81
770.77	42276.22
770.95	42044.80
771.14	41807.23
771.32	41973.12
771.50	41934.21
771.69	41696.64
771.87	42358.14
772.05	41782.66
772.24	41741.70
772.42	41682.31
772.60	41653.64
772.78	41352.58
772.97	41215.37
773.15	41721.22
773.33	41600.39
773.52	41565.57
773.70	41350.54
773.88	41573.77
774.07	41063.82
774.25	41072.01
774.43	41366.92
774.61	41557.38
774.80	41317.77
774.98	41459.08
775.16	41434.50
775.34	41440.65
775.53	40981.90
775.71	41696.64
775.89	41479.56
776.08	40854.93
776.26	41174.41
776.44	41039.25
776.62	41483.66
776.81	40752.53
776.99	41051.53
777.17	41422.22
777.35	41354.63
777.54	41563.53
777.72	41174.41
777.90	41655.68
778.08	41735.56
778.27	41287.05
778.45	41643.40
778.63	41379.21
778.81	40951.18
779.00	41950.59
779.18	41328.01
779.36	41878.91
779.54	41489.80
779.73	40936.85
779.91	41614.72
780.09	41731.46
780.27	41889.15
780.46	41917.82
780.64	41844.10
780.82	41440.65
781.00	41184.65
781.19	42083.71
781.37	42288.51
781.55	41903.49
781.73	42159.48
781.91	41588.10
782.10	41772.42
782.28	41762.18
782.46	41553.29
782.64	41995.65
782.82	41874.82
783.01	41674.12
783.19	42153.34
783.37	41594.25
783.55	41665.92
783.74	42235.26
783.92	41487.75
784.10	41952.64
784.28	41334.15
784.46	41117.07
784.64	41418.12
784.83	41659.78
785.01	41964.93
785.19	41606.53
785.37	41475.46
785.55	41293.19
785.74	41366.92
785.92	40975.76
786.10	41188.75
786.28	41586.05
786.46	41500.04
786.64	41276.81
786.83	41246.09
787.01	41473.42
787.19	40791.44
787.37	41014.67
787.55	41041.29
787.74	40867.22
787.92	41270.67
788.10	40793.49
788.28	40777.11
788.46	40709.52
788.64	40777.11
788.82	41039.25
789.01	40748.43
789.19	40680.85
789.37	40594.84
789.55	40465.81
789.73	40199.58
789.91	40033.69
790.09	40117.66
790.28	39904.67
790.46	39779.74
790.64	40279.45
790.82	40023.45
791.00	39589.28
791.18	39779.74
791.36	39753.12
791.55	39951.77
791.73	39364.01
791.91	39302.57
792.09	39579.04
792.27	39476.65
792.45	39554.47
792.63	39384.49
792.81	39179.69
793.00	39329.19
793.18	39003.56
793.36	39345.58
793.54	39425.45
793.72	38899.12
793.90	38639.03
794.08	38546.87
794.26	38518.20
794.44	38677.94
794.62	38567.35
794.81	38372.79
794.99	38485.43
795.17	38553.01
795.35	37967.29
795.53	38286.78
795.71	38239.67
795.89	38067.64
796.07	37402.05
796.25	37541.32
796.43	37584.32
796.61	37350.85
796.80	37281.22
796.98	37768.64
797.16	37305.80
797.34	37090.76
797.52	36812.24
797.70	37125.58
797.88	36836.81
798.06	37109.19
798.24	36967.88
798.42	36875.73
798.60	36826.57
798.78	36478.42
798.96	36769.23
799.14	35911.13
799.32	36390.36
799.51	35866.08
799.69	36447.70
799.87	36103.64
800.05	35565.03
800.23	35907.04
800.41	35628.51
800.59	35679.71
800.77	35603.94
800.95	35653.09
801.13	35732.96
801.31	35440.10
801.49	35436.00
801.67	35124.71
801.85	35395.04
802.03	35132.90
802.21	34940.39
802.39	34727.41
802.57	34817.52
802.75	34764.27
802.93	34872.81
803.11	34516.47
803.29	34786.80
803.47	34698.73
803.65	34608.62
803.83	34440.69
804.01	34113.02
804.19	33957.37
804.37	34115.06
804.55	34162.17
804.73	33789.44
804.91	33943.03
805.09	33986.04
805.27	34065.91
805.45	33746.43
805.63	33711.61
805.81	33531.39
805.99	33857.02
806.17	33617.41
806.35	33693.18
806.53	33361.41
806.71	33363.46
806.89	33410.56
807.07	33396.23
807.25	33492.48
807.43	32710.16
807.61	33383.94
807.79	33000.97
807.97	32865.80
808.15	32609.81
808.33	32941.58
808.51	32779.79
808.69	32890.38
808.87	32771.60
809.05	32456.21
809.23	32601.61
809.41	32210.45
809.59	32626.19
809.77	32554.51
809.95	32368.15
810.13	32300.56
810.31	32189.97
810.49	32067.09
810.67	32120.34
810.84	32003.61
811.02	32116.25
811.20	31946.26
811.38	31925.78
811.56	31546.91
811.74	31753.76
811.92	31743.52
812.10	31809.05
812.28	31804.95
812.46	31491.62
812.64	31753.76
812.82	31270.43
813.00	31667.74
813.18	31356.45
813.36	31354.40
813.53	30950.95
813.71	31122.98
813.89	31069.73
814.07	31170.08
814.25	31034.92
814.43	30862.89
814.61	31000.10
814.79	30912.04
814.97	30711.34
815.15	30918.18
815.33	30285.36
815.50	30627.37
815.68	30557.74
815.86	31084.07
816.04	30477.87
816.22	30555.69
816.40	30418.48
816.58	30418.48
816.76	30039.61
816.94	30170.68
817.11	30363.18
817.29	30248.50
817.47	30424.62
817.65	30088.76
817.83	30045.75
818.01	29969.97
818.19	29933.11
818.37	29935.16
818.54	29779.51
818.72	29668.92
818.90	29775.42
819.08	29816.38
819.26	29763.13
819.44	29754.94
819.62	29292.10
819.80	29492.80
819.97	29816.38
820.15	29644.35
820.33	29132.36
820.51	29398.59
820.69	29251.14
820.87	29503.04
821.05	29378.11
821.22	29124.16
821.40	29253.19
821.58	29345.34
821.76	29224.51
821.94	29052.48
822.12	28995.14
822.29	29337.15
822.47	28769.86
822.65	29253.19
822.83	29101.64
823.01	28849.74
823.19	28870.22
823.36	28821.06
823.54	28575.31
823.72	28524.11
823.90	28583.50
824.08	28446.29
824.25	28362.32
824.43	28106.32
824.61	28282.45
824.79	28245.58
824.97	28298.83
825.15	28665.42
825.32	28446.29
825.50	28063.32
825.68	28071.51
825.86	28413.52
826.04	28751.43
826.21	28204.63
826.39	28286.54
826.57	27885.14
826.75	28034.64
826.93	27696.73
827.10	28038.74
827.28	27729.50
827.46	28169.81
827.64	28192.34
827.81	27792.98
827.99	27987.54
828.17	27864.66
828.35	27688.54
828.53	27711.07
828.70	27584.09
828.88	27942.49
829.06	27868.76
829.24	27905.62
829.41	27784.79
829.59	27549.28
829.77	27778.65
829.95	27500.12
830.12	27356.77
830.30	27354.72
830.48	27655.77
830.66	27446.88
830.84	27393.63
831.01	27133.54
831.19	27727.45
831.37	27178.59
831.55	27092.58
831.72	27170.40
831.90	27438.69
832.08	27336.29
832.25	27334.24
832.43	27125.35
832.61	27256.42
832.79	26977.89
832.96	26996.32
833.14	26949.22
833.32	27403.87
833.50	27201.12
833.67	26945.12
833.85	27186.79
834.03	26654.31
834.20	26691.18
834.38	27018.85
834.56	26877.54
834.74	26605.16
834.91	26857.06
835.09	26744.42
835.27	26314.35
835.44	26517.10
835.62	26353.26
835.80	26465.90
835.98	26603.11
836.15	26578.54
836.33	26549.87
836.51	26807.91
836.68	26209.90
836.86	26488.43
837.04	26318.45
837.21	26076.79
837.39	26300.01
837.57	26322.54
837.75	26189.42
837.92	25947.76
838.10	25898.61
838.28	25646.71
838.45	26093.17
838.63	25794.17
838.81	26140.27
838.98	25939.57
839.16	25935.48
839.34	25810.55
839.51	25839.22
839.69	25751.16
839.87	25775.73
840.04	25718.39
840.22	25771.64
840.40	25659.00
840.57	25677.43
840.75	25732.73
840.93	25060.99
841.10	25536.12
841.28	25775.73
841.46	25460.35
841.63	25544.31
841.81	25745.02
841.98	25474.68
842.16	25398.91
842.34	25697.91
842.51	25087.62
842.69	25691.77
842.87	25462.40
843.04	25212.54
843.22	25273.98
843.40	25441.92
843.57	24995.46
843.75	25210.50
843.92	25163.39
844.10	25233.02
844.28	25052.80
844.45	24977.03
844.63	25267.84
844.81	24907.40
844.98	25091.71
845.16	24929.92
845.33	24843.91
845.51	24966.79
845.69	24909.44
845.86	24581.77
846.04	24639.11
846.21	24911.49
846.39	24776.33
846.57	24462.99
846.74	24874.63
846.92	24618.63
847.09	24665.74
847.27	24573.58
847.45	24655.50
847.62	24614.54
847.80	24698.50
847.97	24303.25
848.15	24313.48
848.32	24336.01
848.50	24299.15
848.68	24149.65
848.85	24161.94
849.03	23842.45
849.20	24376.97
849.38	24082.06
849.56	24100.50
849.73	23643.80
849.91	24137.36
850.08	24196.75
850.26	23873.17
850.43	24209.04
850.61	23910.04
850.78	23623.32
850.96	23807.64
851.14	23752.34
851.31	23950.99
851.49	24159.89
851.66	23844.50
851.84	23467.67
852.01	23787.16
852.19	23731.86
852.36	23688.85
852.54	23662.23
852.71	23629.46
852.89	23529.11
853.07	23570.07
853.24	23178.91
853.42	23619.22
853.59	23107.23
853.77	23537.30
853.94	23305.88
854.12	23377.56
854.29	23185.05
854.47	23201.44
854.64	23074.46
854.82	23105.18
854.99	23422.62
855.17	22961.83
855.34	22683.30
855.52	23412.38
855.69	22992.55
855.87	22943.39
856.04	22787.75
856.22	22978.21
856.39	22578.86
856.57	22804.13
856.74	22945.44
856.92	23002.78
857.09	22750.88
857.27	22820.52
857.44	23051.94
857.62	22752.93
857.79	22976.16
857.97	22894.24
858.14	22597.29
858.32	22441.64
858.49	22660.77
858.67	22374.06
858.84	22435.50
859.02	22324.91
859.19	22505.13
859.37	22240.94
859.54	22261.42
859.72	22308.52
859.89	22486.70
860.06	22318.76
860.24	22073.01
860.41	22283.95
860.59	21808.82
860.76	22048.43
860.94	22107.82
861.11	21995.18
861.29	22046.38
861.46	22070.96
861.64	21812.92
861.81	21927.60
861.98	21950.13
862.16	21663.41
862.33	21745.33
862.51	21317.31
862.68	21739.19
862.86	21561.02
863.03	21636.79
863.21	21847.73
863.38	21526.20
863.55	21526.20
863.73	21565.11
863.90	21329.59
864.08	21554.87
864.25	21452.47
864.43	21495.48
864.60	21520.06
864.77	21341.88
864.95	21132.99
865.12	20815.55
865.30	21169.85
865.47	21206.72
865.64	21198.52
865.82	21026.50
865.99	21087.93
866.17	21266.11
866.34	21204.67
866.51	20745.92
866.69	20979.39
866.86	21221.05
867.04	20780.74
867.21	20788.93
867.38	20760.26
867.56	20698.82
867.73	20393.67
867.91	20817.60
868.08	20408.01
868.25	20827.84
868.43	20659.91
868.60	20707.01
868.78	20543.17
868.95	20287.18
869.12	20448.97
869.30	20438.73
869.47	20410.06
869.64	20399.82
869.82	20768.45
869.99	20365.00
870.16	20401.86
870.34	20289.23
870.51	20129.48
870.69	19881.68
870.86	19896.02
871.03	19900.11
871.21	19803.86
871.38	20223.69
871.55	19504.85
871.73	19832.53
871.90	19934.93
872.07	19826.39
872.25	19744.47
872.42	19578.58
872.59	19793.62
872.77	19525.33
872.94	19597.01
873.11	19582.68
873.29	19275.48
873.46	19480.28
873.63	19322.59
873.81	19408.60
873.98	19109.60
874.15	19042.01
874.33	19003.10
874.50	19168.99
874.67	19138.27
874.85	19017.44
875.02	18951.90
875.19	18831.07
875.37	19054.30
875.54	18988.77
875.71	18669.28
875.88	18712.29
876.06	18745.06
876.23	18792.16
876.40	18603.75
876.58	18597.60
876.75	18790.11
876.92	18595.56
877.10	18441.96
877.27	18392.81
877.44	17987.31
877.61	18013.93
877.79	18462.44
877.96	18161.39
878.13	18235.11
878.31	18263.79
878.48	18026.22
878.65	17929.97
878.82	17946.35
879.00	18061.04
879.17	18083.56
879.34	17958.64
879.51	18091.76
879.69	17989.36
879.86	17663.73
880.03	17628.92
880.21	17567.48
880.38	17692.40
880.55	17604.34
880.72	17614.58
880.90	17753.84
881.07	17667.83
881.24	17438.45
881.41	17680.11
881.59	17291.00
881.76	17506.04
881.93	17512.18
882.10	17194.75
882.28	17262.33
882.45	17495.80
882.62	17284.86
882.79	17442.55
882.96	17227.51
883.14	17131.26
883.31	17454.84
883.48	17338.10
883.65	17393.40
883.83	17258.23
884.00	17016.57
884.17	17293.05
884.34	17170.17
884.51	17057.53
884.69	17235.70
884.86	17155.83
885.03	17125.11
885.20	16994.04
885.38	17088.25
885.55	17123.07
885.72	16797.44
885.89	17051.39
886.06	17102.59
886.24	16725.76
886.41	16951.04
886.58	16834.30
886.75	16889.60
886.92	16568.07
887.10	16686.85
887.27	16588.55
887.44	16498.44
887.61	16434.95
887.78	16553.73
887.95	16594.69
888.13	16199.43
888.30	16492.29
888.47	16461.57
888.64	16359.17
888.81	16287.50
888.99	16303.88
889.16	16051.98
889.33	16146.19
889.50	16209.67
889.67	16123.66
889.84	16054.03
890.01	15898.38
890.19	16113.42
890.36	16273.16
890.53	15965.96
890.70	15970.06
890.87	16004.88
891.04	15755.02
891.22	15789.84
891.39	15730.45
891.56	15834.89
891.73	15744.78
891.90	15724.30
892.07	15515.41
892.24	15458.07
892.42	15820.56
892.59	15855.37
892.76	15605.52
892.93	15707.92
893.10	15757.07
893.27	15447.83
893.44	15513.36
893.61	15683.34
893.79	15484.69
893.96	15529.75
894.13	15423.25
894.30	15425.30
894.47	15431.44
894.64	15453.97
894.81	15445.78
894.98	15445.78
895.15	15456.02
895.33	15157.02
895.50	15380.25
895.67	15499.03
895.84	15144.73
896.01	15318.81
896.18	15408.92
896.35	15521.56
896.52	15253.27
896.69	15062.81
896.86	15159.06
897.04	15277.85
897.21	15173.40
897.38	15447.83
897.55	15038.23
897.72	15267.61
897.89	15376.15
898.06	15298.33
898.23	15210.26
898.40	15431.44
898.57	14917.40
898.74	15146.78
898.91	14970.65
899.08	15159.06
899.26	15249.18
899.43	15042.33
899.60	14974.75
899.77	15044.38
899.94	15058.71
900.11	15081.24
900.28	15114.01
900.45	15111.96
900.62	14974.75
900.79	15087.39
900.96	15222.55
901.13	14860.06
901.30	14999.32
901.47	14860.06
901.64	14929.69
901.81	14905.12
901.98	15179.54
902.15	15159.06
902.32	15036.19
902.49	14956.32
902.66	15044.38
902.83	14970.65
903.01	14868.25
903.18	14845.73
903.35	14937.88
903.52	14991.13
903.69	14987.04
903.86	15091.48
904.03	14980.89
904.20	15200.02
904.37	15071.00
904.54	15148.82
904.71	14728.99
904.88	15163.16
905.05	14782.24
905.22	15210.26
905.39	14913.31
905.56	14800.67
905.73	14612.26
905.90	14905.12
906.07	14929.69
906.24	14858.01
906.41	14905.12
906.58	15093.53
906.75	15091.48
906.92	14827.29
907.09	14880.54
907.26	15101.72
907.43	14735.14
907.60	14798.62
907.77	15003.42
907.93	15011.61
908.10	14780.19
908.27	14958.36
908.44	14853.92
908.61	14802.72
908.78	14735.14
908.95	14794.53
909.12	14786.33
909.29	14696.22
909.46	14825.25
909.63	14919.45
909.80	14911.26
909.97	14929.69
910.14	14718.75
910.31	14477.09
910.48	14812.96
910.65	14831.39
910.82	14731.04
910.99	14663.46
911.16	14495.52
911.33	14602.02
911.50	14454.56
911.66	14429.99
911.83	14690.08
912.00	14368.55
912.17	14292.77
912.34	14407.46
912.51	14628.64
912.68	14370.60
912.85	14380.84
913.02	14372.64
913.19	14454.56
913.36	14456.61
913.53	14477.09
913.70	14495.52
913.86	14335.78
914.03	14366.50
914.20	14176.04
914.37	14286.63
914.54	13977.39
914.71	14278.44
914.88	13989.67
915.05	14063.40
915.22	13993.77
915.39	14118.70
915.55	13793.07
915.72	13983.53
915.89	13975.34
916.06	13961.00
916.23	13922.09
916.40	13823.79
916.57	13700.91
916.74	13801.26
916.91	13831.98
917.07	13666.10
917.24	13686.58
917.41	13844.27
917.58	13635.38
917.75	13588.27
917.92	13389.62
918.09	13518.64
918.26	13311.80
918.42	13375.28
918.59	13633.33
918.76	13516.59
918.93	13141.82
919.10	13414.20
919.27	13158.20
919.44	13344.56
919.60	13459.25
919.77	13295.41
919.94	13102.90
920.11	13242.17
920.28	13111.10
920.45	12984.12
920.61	13016.89
920.78	13092.66
920.95	12894.01
921.12	12805.95
921.29	12699.45
921.46	12816.19
921.62	12650.30
921.79	12726.08
921.96	12717.89
922.13	12664.64
922.30	12502.85
922.47	12451.65
922.63	12379.97
922.80	12459.84
922.97	12128.07
923.14	12375.88
923.31	12402.50
923.47	12089.16
923.64	12537.66
923.81	12259.14
923.98	12234.57
924.15	11994.95
924.32	11886.41
924.48	12107.59
924.65	12130.12
924.82	12050.25
924.99	11685.71
925.15	11898.70
925.32	11833.16
925.49	11648.85
925.66	11851.60
925.83	11673.42
925.99	11618.13
926.16	11757.39
926.33	11765.58
926.50	11536.21
926.67	11491.15
926.83	11282.26
927.00	11472.72
927.17	11384.66
927.34	11177.81
927.50	11403.09
927.67	11476.82
927.84	11349.84
928.01	11229.01
928.17	11067.22
928.34	11054.94
928.51	11030.36
928.68	11009.88
928.84	10897.24
929.01	10792.80
929.18	10618.72
929.35	10944.34
929.51	10843.99
929.68	10493.79
929.85	10694.49
930.02	10583.90
930.18	10561.37
930.35	10723.16
930.52	10794.84
930.69	10465.12
930.85	10534.75
931.02	10501.98
931.19	10420.06
931.36	10147.69
931.52	10325.86
931.69	10262.37
931.86	10215.27
932.02	10051.43
932.19	10076.01
932.36	10227.56
932.53	10112.87
932.69	10004.33
932.86	10012.52
933.03	9840.49
933.19	9742.19
933.36	9781.10
933.53	9842.54
933.70	9629.55
933.86	9604.97
934.03	9656.17
934.20	9480.05
934.36	9527.15
934.53	9215.86
934.70	9408.37
934.86	9420.66
935.03	8968.06
935.20	9066.36
935.36	9068.41
935.53	9011.06
935.70	9009.01
935.86	9117.56
936.03	8847.22
936.20	8836.99
936.36	8605.56
936.53	8630.14
936.70	8619.90
936.86	8640.38
937.03	8480.64
937.20	8236.93
937.36	8411.01
937.53	8118.15
937.70	7958.41
937.86	8124.29
938.03	7876.49
938.20	8069.00
938.36	7708.55
938.53	7872.39
938.70	7595.92
938.86	7536.52
939.03	7548.81
939.20	7315.34
939.36	7280.53
939.53	7352.21
939.70	7487.37
939.86	7071.64
940.03	6858.65
940.19	6840.22
940.36	6959.00
940.53	6854.55
940.69	6662.04
940.86	6838.17
941.03	6573.98
941.19	6604.70
941.36	6420.38
941.52	6473.63
941.69	6330.27
941.86	6498.20
942.02	6311.84
942.19	6254.50
942.35	6184.87
942.52	6207.39
942.69	6029.22
942.85	5914.53
943.02	5941.16
943.18	5840.81
943.35	5871.53
943.52	5801.90
943.68	5693.35
943.85	5865.38
944.01	5607.34
944.18	5750.70
944.35	5623.72
944.51	5580.71
944.68	5672.87
944.84	5588.91
945.01	5484.46
945.17	5550.00
945.34	5556.14
945.51	5482.41
945.67	5586.86
945.84	5449.64
946.00	5519.28
946.17	5414.83
946.33	5328.81
946.50	5582.76
946.67	5478.32
946.83	5328.81
947.00	5494.70
947.16	5167.03
947.33	5316.53
947.49	5382.06
947.66	5459.88
947.82	5351.34
947.99	5373.87
948.16	5509.04
948.32	5263.28
948.49	5377.97
948.65	5459.88
948.82	5433.26
948.98	5345.20
949.15	5361.58
949.31	5488.56
949.48	5285.81
949.64	5349.29
949.81	5345.20
949.97	5420.97
950.14	5427.12
950.30	5312.43
950.47	5302.19
950.63	5361.58
950.80	5425.07
950.96	5343.15
951.13	5433.26
951.30	5388.21
951.46	5402.54
951.63	5455.79
951.79	5562.28
951.96	5388.21
952.12	5310.38
952.29	5513.13
952.45	5377.97
952.62	5349.29
952.78	5472.17
952.94	5318.57
953.11	5466.03
953.27	5398.45
953.44	5574.57
953.60	5423.02
953.77	5662.63
953.93	5494.70
954.10	5453.74
954.26	5529.52
954.43	5492.65
954.59	5558.19
954.76	5582.76
954.92	5533.61
955.09	5586.86
955.25	5468.08
955.42	5418.93
955.58	5597.10
955.75	5570.48
955.91	5396.40
956.07	5629.87
956.24	5640.11
956.40	5570.48
956.57	5588.91
956.73	5480.36
956.90	5623.72
957.06	5582.76
957.23	5431.21
957.39	5388.21
957.56	5672.87
957.72	5513.13
957.88	5496.75
958.05	5695.40
958.21	5642.15
958.38	5599.15
958.54	5533.61
958.71	5607.34
958.87	5554.09
959.03	5494.70
959.20	5654.44
959.36	5595.05
959.53	5541.80
959.69	5506.99
959.85	5685.16
960.02	5427.12
960.18	5588.91
960.35	5640.11
960.51	5541.80
960.68	5433.26
960.84	5566.38
961.00	5496.75
961.17	5558.19
961.33	5580.71
961.50	5619.63
961.66	5543.85
961.82	5547.95
961.99	5638.06
962.15	5719.98
962.31	5509.04
962.48	5537.71
962.64	5582.76
962.81	5416.88
962.97	5494.70
963.13	5580.71
963.30	5496.75
963.46	5414.83
963.62	5453.74
963.79	5472.17
963.95	5588.91
964.12	5494.70
964.28	5490.60
964.44	5459.88
964.61	5466.03
964.77	5437.36
964.93	5656.49
965.10	5414.83
965.26	5636.01
965.42	5406.64
965.59	5455.79
965.75	5308.34
965.92	5511.08
966.08	5380.01
966.24	5380.01
966.41	5392.30
966.57	5326.77
966.73	5513.13
966.90	5371.82
967.06	5410.73
967.22	5369.77
967.39	5519.28
967.55	5310.38
967.71	5302.19
967.88	5224.37
968.04	5337.01
968.20	5283.76
968.37	5238.70
968.53	5328.81
968.69	5205.94
968.85	5261.23
969.02	5291.95
969.18	5437.36
969.34	5279.66
969.51	5242.80
969.67	5308.34
969.83	5140.40
970.00	5388.21
970.16	5140.40
970.32	5197.74
970.48	5228.46
970.65	5095.35
970.81	5124.02
970.97	5117.87
971.14	5193.65
971.30	5255.09
971.46	5214.13
971.63	5023.67
971.79	5117.87
971.95	5107.63
972.11	5220.27
972.28	5107.63
972.44	5306.29
972.60	5021.62
972.76	5130.16
972.93	5015.48
973.09	4956.08
973.25	4917.17
973.42	5017.52
973.58	5078.96
973.74	5050.29
973.90	5128.11
974.07	4812.73
974.23	5029.81
974.39	4890.55
974.55	5009.33
974.72	4949.94
974.88	4898.74
975.04	4870.07
975.20	4995.00
975.37	4990.90
975.53	5005.24
975.69	4798.39
975.85	4908.98
976.01	4655.03
976.18	4814.77
976.34	4779.96
976.50	4845.49
976.66	4894.65
976.83	4857.78
976.99	4896.69
977.15	4775.86
977.31	4648.89
977.47	4812.73
977.64	4714.42
977.80	4773.82
977.96	4794.29
978.12	4771.77
978.29	4681.66
978.45	4695.99
978.61	4695.99
978.77	4730.81
978.93	4554.68
979.10	4595.64
979.26	4583.35
979.42	4628.41
979.58	4464.57
979.74	4583.35
979.91	4571.07
980.07	4558.78
980.23	4587.45
980.39	4499.39
980.55	4548.54
980.71	4526.01
980.88	4526.01
981.04	4415.42
981.20	4493.24
981.36	4640.70
981.52	4429.76
981.68	4374.46
981.85	4435.90
982.01	4427.71
982.17	4507.58
982.33	4444.09
982.49	4442.04
982.65	4349.89
982.82	4444.09
982.98	4337.60
983.14	4313.02
983.30	4437.95
983.46	4468.67
983.62	4413.37
983.79	4321.21
983.95	4280.25
984.11	4259.78
984.27	4337.60
984.43	4192.19
984.59	4200.38
984.75	4222.91
984.91	4231.10
985.08	4261.82
985.24	4235.20
985.40	4151.23
985.56	4188.10
985.72	4204.48
985.88	4339.65
986.04	4130.75
986.20	4171.71
986.37	4130.75
986.53	4136.90
986.69	4231.10
986.85	4018.11
987.01	4050.88
987.17	4192.19
987.33	4028.35
987.49	3966.92
987.65	4065.22
987.82	4059.07
987.98	4054.98
988.14	4042.69
988.30	4161.47
988.46	4011.97
988.62	4024.26
988.78	3989.44
988.94	3985.35
989.10	3874.76
989.26	3887.04
989.42	3805.13
989.59	3745.73
989.75	3903.43
989.91	3880.90
990.07	3676.10
990.23	3862.47
990.39	3895.24
990.55	3954.63
990.71	3835.85
990.87	3915.72
991.03	3829.70
991.19	3841.99
991.35	3778.50
991.51	3809.22
991.67	3801.03
991.83	3723.21
992.00	3850.18
992.16	3846.09
992.32	3745.73
992.48	3813.32
992.64	3618.76
992.80	3762.12
992.96	3653.58
993.12	3805.13
993.28	3909.57
993.44	3768.26
993.60	3653.58
993.76	3743.69
993.92	3694.54
994.08	3739.59
994.24	3643.34
994.40	3696.58
994.56	3653.58
994.72	3551.18
994.88	3530.70
995.04	3643.34
995.20	3641.29
995.36	3502.03
995.52	3672.01
995.68	3553.23
995.84	3600.33
996.00	3649.48
996.16	3620.81
996.32	3450.83
996.48	3426.25
996.64	3532.75
996.80	3504.07
996.96	3510.22
997.12	3368.91
997.28	3493.83
997.44	3416.01
997.60	3344.33
997.76	3459.02
997.92	3522.51
998.08	3545.03
998.24	3432.40
998.40	3348.43
998.56	3557.32
998.72	3362.76
998.88	3293.13
999.04	3305.42
999.20	3418.06
999.36	3332.05
999.52	3373.00
999.68	3276.75
999.84	3340.24
1000.00	3440.59
1000.16	3393.48
1000.32	3229.65
1000.48	3407.82
1000.64	3274.70
1000.80	3209.17
1000.95	3200.98
1001.11	3250.13
1001.27	3252.17
1001.43	3286.99
1001.59	3157.97
1001.75	3164.11
1001.91	3258.32
1002.07	3180.50
1002.23	3182.54
1002.39	3125.20
1002.55	3110.86
1002.71	3153.87
1002.87	3200.98
1003.03	3076.05
1003.19	3123.15
1003.34	3188.69
1003.50	3092.43
1003.66	3155.92
1003.82	3149.78
1003.98	3055.57
1004.14	3092.43
1004.30	2994.13
1004.46	3076.05
1004.62	3010.51
1004.78	2996.18
1004.94	3080.14
1005.09	3157.97
1005.25	3092.43
1005.41	2996.18
1005.57	2969.55
1005.73	2973.65
1005.89	2994.13
1006.05	2926.55
1006.21	2914.26
1006.37	2944.98
1006.52	2934.74
1006.68	2957.27
1006.84	3026.90
1007.00	2869.20
1007.16	2912.21
1007.32	2803.67
1007.48	2912.21
1007.64	2936.79
1007.79	2809.81
1007.95	2838.48
1008.11	3008.47
1008.27	2791.38
1008.43	2910.16
1008.59	2942.93
1008.75	2928.60
1008.91	2826.20
1009.06	2756.57
1009.22	2820.05
1009.38	2742.23
1009.54	2770.90
1009.70	2828.24
1009.86	2881.49
1010.01	2797.53
1010.17	2664.41
1010.33	2779.09
1010.49	2760.66
1010.65	2811.86
1010.81	2729.94
1010.96	2764.76
1011.12	2772.95
1011.28	2629.59
1011.44	2760.66
1011.60	2686.94
1011.76	2748.37
1011.91	2756.57
1012.07	2662.36
1012.23	2658.26
1012.39	2631.64
1012.55	2666.46
1012.71	2602.97
1012.86	2551.77
1013.02	2670.55
1013.18	2609.11
1013.34	2549.72
1013.50	2744.28
1013.65	2627.54
1013.81	2580.44
1013.97	2650.07
1014.13	2537.43
1014.29	2645.98
1014.44	2736.09
1014.60	2559.96
1014.76	2582.49
1014.92	2543.58
1015.07	2484.19
1015.23	2564.06
1015.39	2547.67
1015.55	2537.43
1015.71	2461.66
1015.86	2521.05
1016.02	2535.39
1016.18	2428.89
1016.34	2506.71
1016.49	2516.95
1016.65	2553.82
1016.81	2535.39
1016.97	2463.71
1017.12	2455.51
1017.28	2365.40
1017.44	2459.61
1017.60	2430.94
1017.75	2420.70
1017.91	2453.47
1018.07	2441.18
1018.23	2420.70
1018.38	2475.99
1018.54	2330.59
1018.70	2527.19
1018.86	2394.08
1019.01	2314.20
1019.17	2383.84
1019.33	2449.37
1019.49	2424.80
1019.64	2394.08
1019.80	2365.40
1019.96	2459.61
1020.12	2334.68
1020.27	2379.74
1020.43	2394.08
1020.59	2443.23
1020.74	2426.84
1020.90	2404.32
1021.06	2289.63
1021.22	2326.49
1021.37	2353.12
1021.53	2226.14
1021.69	2361.31
1021.84	2301.92
1022.00	2379.74
1022.16	2203.61
1022.31	2291.68
1022.47	2351.07
1022.63	2295.77
1022.79	2185.18
1022.94	2289.63
1023.10	2328.54
1023.26	2279.39
1023.41	2238.43
1023.57	2207.71
1023.73	2263.01
1023.88	2322.40
1024.04	2191.33
1024.20	2205.66
1024.35	2232.29
1024.51	2277.34
1024.67	2164.70
1024.82	2256.86
1024.98	2224.09
1025.14	2209.76
1025.29	2140.13
1025.45	2265.05
1025.61	2166.75
1025.76	2148.32
1025.92	2127.84
1026.08	2328.54
1026.23	2203.61
1026.39	2125.79
1026.55	2156.51
1026.70	2144.22
1026.86	2113.50
1027.02	2236.38
1027.17	2174.94
1027.33	2115.55
1027.48	2156.51
1027.64	2172.89
1027.80	2140.13
1027.95	2156.51
1028.11	2041.82
1028.27	2138.08
1028.42	2058.21
1028.58	2109.41
1028.73	2105.31
1028.89	2097.12
1029.05	2142.18
1029.20	2138.08
>>>>>End Processed Spectral Data<<<<<
