SpectraSuite Data File
++++++++++++++++++++++++++++++++++++
Date: Tue Jun 13 11:52:07 CEST 2017
User: INFO_000
Dark Spectrum Present: No
Reference Spectrum Present: No
Number of Sampled Component Spectra: 1
Spectrometers: USB4H00879
Integration Time (usec): 30000 (USB4H00879)
Spectra Averaged: 1 (USB4H00879)
Boxcar Smoothing: 0 (USB4H00879)
Correct for Electrical Dark: No (USB4H00879)
Strobe/Lamp Enabled: No (USB4H00879)
Correct for Detector Non-linearity: No (USB4H00879)
Correct for Stray Light: No (USB4H00879)
Number of Pixels in Processed Spectrum: 3648
>>>>>Begin Processed Spectral Data<<<<<
345.13	1304.56
345.34	1304.56
345.56	1304.56
345.78	1312.75
345.99	1417.19
346.21	1490.92
346.42	1482.73
346.64	1531.88
346.86	1568.74
347.07	1517.54
347.29	1564.65
347.50	1443.82
347.72	1449.96
347.94	1593.32
348.15	1474.54
348.37	1445.87
348.59	1531.88
348.80	1509.35
349.02	1599.46
349.23	1679.33
349.45	1646.57
349.67	1576.94
349.88	1621.99
350.10	1689.57
350.31	1669.09
350.53	1660.90
350.75	1669.09
350.96	1562.60
351.18	1611.75
351.39	1703.91
351.61	1570.79
351.82	1660.90
352.04	1689.57
352.26	1624.04
352.47	1671.14
352.69	1593.32
352.90	1615.85
353.12	1662.95
353.34	1691.62
353.55	1617.90
353.77	1591.27
353.98	1585.13
354.20	1638.38
354.41	1646.57
354.63	1751.01
354.85	1650.66
355.06	1718.25
355.28	1572.84
355.49	1615.85
355.71	1703.91
355.92	1701.86
356.14	1689.57
356.35	1697.77
356.57	1662.95
356.79	1691.62
357.00	1681.38
357.22	1656.81
357.43	1714.15
357.65	1753.06
357.86	1648.61
358.08	1734.63
358.29	1675.24
358.51	1763.30
358.72	1753.06
358.94	1693.67
359.16	1691.62
359.37	1744.87
359.59	1687.53
359.80	1708.01
360.02	1660.90
360.23	1740.77
360.45	1802.21
360.66	1746.92
360.88	1705.96
361.09	1720.29
361.31	1738.73
361.52	1726.44
361.74	1779.68
361.95	1775.59
362.17	1730.53
362.38	1748.97
362.60	1781.73
362.81	1771.49
363.03	1781.73
363.24	1744.87
363.46	1759.21
363.67	1757.16
363.89	1732.58
364.10	1755.11
364.32	1683.43
364.53	1851.36
364.75	1695.72
364.96	1832.93
365.18	1708.01
365.39	1865.70
365.61	1843.17
365.82	1873.89
366.04	1705.96
366.25	1763.30
366.47	1873.89
366.68	1753.06
366.90	1710.05
367.11	1806.31
367.33	1787.88
367.54	1863.65
367.76	1771.49
367.97	1906.66
368.19	1771.49
368.40	1875.94
368.62	1839.08
368.83	1820.64
369.05	1918.95
369.26	1812.45
369.48	1861.60
369.69	1796.07
369.91	1839.08
370.12	1759.21
370.33	1804.26
370.55	1810.40
370.76	1834.98
370.98	1871.84
371.19	1867.75
371.41	1867.75
371.62	1839.08
371.84	1873.89
372.05	1902.56
372.27	1861.60
372.48	1771.49
372.69	1931.23
372.91	1855.46
373.12	1925.09
373.34	1884.13
373.55	1939.43
373.77	1972.19
373.98	1959.91
374.20	1910.75
374.41	2007.01
374.62	1877.99
374.84	1953.76
375.05	1953.76
375.27	1996.77
375.48	1945.57
375.70	1964.00
375.91	2013.15
376.12	2021.35
376.34	1931.23
376.55	1914.85
376.77	2019.30
376.98	1994.72
377.19	1970.15
377.41	2019.30
377.62	2035.68
377.84	2107.36
378.05	2095.07
378.27	2039.78
378.48	1992.67
378.69	2029.54
378.91	1986.53
379.12	2031.58
379.34	2062.30
379.55	2060.26
379.76	1996.77
379.98	2027.49
380.19	2144.22
380.41	2004.96
380.62	2148.32
380.83	2103.26
381.05	2172.89
381.26	2058.21
381.47	2103.26
381.69	2043.87
381.90	2187.23
382.12	2154.46
382.33	2082.78
382.54	2162.66
382.76	2060.26
382.97	2150.37
383.19	2166.75
383.40	2205.66
383.61	2166.75
383.83	2103.26
384.04	2154.46
384.25	2265.05
384.47	2222.05
384.68	2228.19
384.89	2164.70
385.11	2217.95
385.32	2217.95
385.54	2215.90
385.75	2189.28
385.96	2320.35
386.18	2254.81
386.39	2275.29
386.60	2303.96
386.82	2271.20
387.03	2406.36
387.24	2320.35
387.46	2263.01
387.67	2355.16
387.88	2332.64
388.10	2338.78
388.31	2367.45
388.52	2392.03
388.74	2299.87
388.95	2361.31
389.16	2392.03
389.38	2437.08
389.59	2435.03
389.80	2506.71
390.02	2353.12
390.23	2439.13
390.44	2461.66
390.66	2373.60
390.87	2396.12
391.08	2432.99
391.30	2537.43
391.51	2414.56
391.72	2478.04
391.94	2486.23
392.15	2482.14
392.36	2590.68
392.58	2502.62
392.79	2619.35
393.00	2455.51
393.22	2621.40
393.43	2533.34
393.64	2680.79
393.85	2592.73
394.07	2586.58
394.28	2666.46
394.49	2627.54
394.71	2541.53
394.92	2701.27
395.13	2682.84
395.35	2656.22
395.56	2592.73
395.77	2697.17
395.98	2740.18
396.20	2744.28
396.41	2768.85
396.62	2797.53
396.84	2770.90
397.05	2740.18
397.26	2875.35
397.47	2895.83
397.69	2801.62
397.90	2803.67
398.11	2746.33
398.32	2830.29
398.54	2895.83
398.75	2797.53
398.96	2832.34
399.18	2901.97
399.39	2815.96
399.60	2908.12
399.81	2848.72
400.03	2914.26
400.24	3049.43
400.45	2961.36
400.66	3012.56
400.88	2924.50
401.09	3084.24
401.30	2951.12
401.51	3035.09
401.73	3108.82
401.94	2977.75
402.15	3155.92
402.36	3055.57
402.58	3078.10
402.79	3078.10
403.00	3182.54
403.21	3096.53
403.43	3147.73
403.64	3209.17
403.85	3041.23
404.06	3254.22
404.27	3076.05
404.49	3092.43
404.70	3190.74
404.91	3309.52
405.12	3362.76
405.34	3325.90
405.55	3411.92
405.76	3243.98
405.97	3219.41
406.19	3330.00
406.40	3342.28
406.61	3346.38
406.82	3399.63
407.03	3278.80
407.25	3291.09
407.46	3426.25
407.67	3387.34
407.88	3381.20
408.09	3311.57
408.31	3375.05
408.52	3454.92
408.73	3432.40
408.94	3416.01
409.15	3461.07
409.37	3532.75
409.58	3497.93
409.79	3479.50
410.00	3594.19
410.21	3467.21
410.43	3434.44
410.64	3479.50
410.85	3520.46
411.06	3639.24
411.27	3661.77
411.48	3538.89
411.70	3633.10
411.91	3626.95
412.12	3608.52
412.33	3639.24
412.54	3698.63
412.76	3758.02
412.97	3694.54
413.18	3600.33
413.39	3641.29
413.60	3727.30
413.81	3747.78
414.03	3643.34
414.24	3727.30
414.45	3999.68
414.66	3737.54
414.87	3958.72
415.08	3784.65
415.30	3766.21
415.51	3798.98
415.72	3913.67
415.93	3887.04
416.14	3907.52
416.35	3985.35
416.56	3839.94
416.78	3882.95
416.99	4024.26
417.20	4018.11
417.41	3921.86
417.62	4001.73
417.83	4106.18
418.04	3987.40
418.26	4003.78
418.47	4112.32
418.68	4165.57
418.89	3919.81
419.10	4085.70
419.31	4138.94
419.52	4243.39
419.73	4190.14
419.95	4186.05
420.16	4116.42
420.37	4298.69
420.58	4120.51
420.79	4169.66
421.00	4413.37
421.21	4329.41
421.42	4343.74
421.63	4329.41
421.85	4364.22
422.06	4401.08
422.27	4399.04
422.48	4399.04
422.69	4528.06
422.90	4497.34
423.11	4450.24
423.32	4607.93
423.53	4587.45
423.75	4599.74
423.96	4659.13
424.17	4589.50
424.38	4708.28
424.59	4765.62
424.80	4847.54
425.01	4714.42
425.22	4796.34
425.43	4693.94
425.64	4943.80
425.85	4779.96
426.06	4888.50
426.28	4827.06
426.49	4906.93
426.70	4831.16
426.91	5130.16
427.12	4976.56
427.33	4935.60
427.54	4825.01
427.75	4919.22
427.96	5146.55
428.17	4964.28
428.38	5171.12
428.59	5300.14
428.80	5052.34
429.01	5160.88
429.23	5164.98
429.44	5433.26
429.65	5298.10
429.86	5357.49
430.07	5242.80
430.28	5375.92
430.49	5351.34
430.70	5459.88
430.91	5394.35
431.12	5486.51
431.33	5597.10
431.54	5576.62
431.75	5605.29
431.96	5466.03
432.17	5517.23
432.38	5593.00
432.59	5873.57
432.80	5758.89
433.01	5738.41
433.22	5805.99
433.43	5767.08
433.64	5773.22
433.85	5742.50
434.06	5844.90
434.27	5789.61
434.49	5820.33
434.70	6000.55
434.91	5990.31
435.12	6111.14
435.33	5953.45
435.54	5846.95
435.75	5810.09
435.96	6107.04
436.17	5949.35
436.38	6131.62
436.59	6227.87
436.80	6102.95
437.01	6227.87
437.22	6193.06
437.43	6281.12
437.64	6078.37
437.85	6268.83
438.06	6264.74
438.27	6256.54
438.48	6223.78
438.69	6383.52
438.90	6395.81
439.11	6260.64
439.32	6328.22
439.53	6473.63
439.74	6516.64
439.95	6504.35
440.16	6524.83
440.37	6610.84
440.57	6447.01
440.78	6586.27
440.99	6641.56
441.20	6643.61
441.41	6737.82
441.62	6688.67
441.83	6533.02
442.04	6856.60
442.25	6729.63
442.46	6799.26
442.67	6768.54
442.88	7227.28
443.09	6721.43
443.30	6770.58
443.51	6856.60
443.72	7208.85
443.93	6905.75
444.14	7237.52
444.35	6657.95
444.56	7198.61
444.77	7124.88
444.98	7114.64
445.19	7163.79
445.40	7098.26
445.61	7169.94
445.81	7292.82
446.02	7145.36
446.23	7212.95
446.44	7141.27
446.65	7253.91
446.86	7294.86
447.07	7223.19
447.28	7507.85
447.49	7421.84
447.70	7266.19
447.91	7364.50
448.12	7522.19
448.33	7647.12
448.54	7663.50
448.74	7475.09
448.95	7616.40
449.16	7442.32
449.37	7946.12
449.58	7655.31
449.79	8042.37
450.00	7507.85
450.21	7690.12
450.42	7950.21
450.63	7905.16
450.84	7763.85
451.05	7866.25
451.25	7921.54
451.46	7950.21
451.67	7952.26
451.88	8066.95
452.09	8187.78
452.30	8140.68
452.51	8216.45
452.72	8345.47
452.93	8363.90
453.13	8275.84
453.34	8105.86
453.55	8365.95
453.76	8271.75
453.97	8691.58
454.18	8394.62
454.39	8503.17
454.60	8535.93
454.81	8431.49
455.01	8726.39
455.22	8433.54
455.43	8773.50
455.64	8871.80
455.85	8851.32
456.06	9015.16
456.27	8814.46
456.48	8966.01
456.68	8830.84
456.89	8826.75
457.10	9228.15
457.31	9156.47
457.52	8935.29
457.73	9135.99
457.94	9496.43
458.14	9033.59
458.35	9625.45
458.56	9197.43
458.77	9226.10
458.98	9494.38
459.19	9641.84
459.39	9449.33
459.60	9791.34
459.81	9664.36
460.02	9787.24
460.23	9699.18
460.44	10159.97
460.65	9955.18
460.85	10110.82
461.06	10280.80
461.27	9652.08
461.48	10215.27
461.69	10231.65
461.89	10037.09
462.10	10360.67
462.31	9987.94
462.52	10145.64
462.73	10393.44
462.94	10608.48
463.14	10413.92
463.35	10686.30
463.56	10817.37
463.77	10786.65
463.98	10610.53
464.18	10712.92
464.39	11005.78
464.60	11177.81
464.81	11108.18
465.02	10940.25
465.23	11251.54
465.43	11050.84
465.64	11439.95
465.85	11380.56
466.06	11188.05
466.27	11458.39
466.47	11392.85
466.68	11442.00
466.89	11632.46
467.10	11784.01
467.30	11552.59
467.51	11767.63
467.72	12035.91
467.93	11804.49
468.14	12029.77
468.34	11997.00
468.55	12181.32
468.76	12173.13
468.97	11941.71
469.17	12390.21
469.38	12384.07
469.59	12543.81
469.80	12402.50
470.01	12429.12
470.21	12674.88
470.42	12777.28
470.63	12918.59
470.84	12576.58
471.04	13252.41
471.25	13137.72
471.46	13125.43
471.67	13453.11
471.87	13260.60
472.08	13369.14
472.29	13883.18
472.50	13360.95
472.70	13522.74
472.91	13575.98
473.12	13856.56
473.33	14065.45
473.53	14104.36
473.74	13899.56
473.95	14194.47
474.16	14421.80
474.36	14333.73
474.57	14737.18
474.78	14540.58
474.99	14595.87
475.19	14649.12
475.40	14825.25
475.61	15171.35
475.81	15288.09
476.02	15513.36
476.23	15245.08
476.44	15525.65
476.64	15800.08
476.85	15802.13
477.06	15763.22
477.27	16097.03
477.47	16146.19
477.68	16101.13
477.89	16348.93
478.09	16346.89
478.30	16318.22
478.51	16318.22
478.71	16574.21
478.92	16647.94
479.13	16711.42
479.34	17024.76
479.54	16957.18
479.75	17053.44
479.96	17284.86
480.16	17278.71
480.37	17256.18
480.58	17645.30
480.78	17831.66
480.99	17776.37
481.20	18114.28
481.41	18091.76
481.61	18245.35
481.82	18251.50
482.03	18353.90
482.23	18265.83
482.44	18683.62
482.65	18716.39
482.85	19019.49
483.06	18863.84
483.27	19117.79
483.47	19039.97
483.68	19351.26
483.89	19433.18
484.09	19265.24
484.30	19211.99
484.51	19564.25
484.71	19664.60
484.92	19752.66
485.13	19916.50
485.33	20035.28
485.54	19930.83
485.75	20543.17
485.95	20410.06
486.16	20561.61
486.37	20561.61
486.57	20524.74
486.78	20707.01
486.98	20657.86
487.19	21003.97
487.40	21448.38
487.60	20776.64
487.81	21663.41
488.02	21452.47
488.22	21386.94
488.43	21847.73
488.64	21851.83
488.84	21855.92
489.05	22144.69
489.25	22025.90
489.46	22455.98
489.67	22265.52
489.87	22574.76
490.08	22705.83
490.29	22339.24
490.49	22652.58
490.70	23180.96
490.90	23039.65
491.11	22855.33
491.32	23244.45
491.52	23191.20
491.73	23117.47
491.94	23555.74
492.14	23590.55
492.35	23500.44
492.55	23844.50
492.76	23727.77
492.97	24059.54
493.17	24241.81
493.38	24075.92
493.58	24323.72
493.79	24680.07
494.00	24250.00
494.20	24645.26
494.41	24581.77
494.61	24966.79
494.82	24927.88
495.02	25024.13
495.23	25173.63
495.44	25335.42
495.64	25366.14
495.85	25198.21
496.05	25482.88
496.26	25601.66
496.47	26041.97
496.67	25781.88
496.88	25951.86
497.08	25579.13
497.29	25982.58
497.49	26084.98
497.70	26209.90
497.91	26578.54
498.11	26703.46
498.32	26474.09
498.52	26986.08
498.73	27209.31
498.93	26881.64
499.14	26898.02
499.34	27299.42
499.55	27184.74
499.76	27039.33
499.96	27096.67
500.17	27606.62
500.37	27573.85
500.58	27551.32
500.78	27700.83
500.99	27854.42
501.19	28091.99
501.40	27620.95
501.60	27762.26
501.81	27993.68
502.02	28073.56
502.22	28255.82
502.43	28364.37
502.63	28390.99
502.84	28587.60
503.04	28567.12
503.25	28554.83
503.45	28651.08
503.66	28687.95
503.86	28945.99
504.07	29261.38
504.27	28776.01
504.48	29359.68
504.68	29249.09
504.89	29390.40
505.09	29535.81
505.30	29437.50
505.50	29498.94
505.71	29748.79
505.91	29681.21
506.12	29742.65
506.32	29599.29
506.53	29969.97
506.73	29822.52
506.94	30035.51
507.14	30084.66
507.35	30389.81
507.55	30352.94
507.76	30410.29
507.96	30410.29
508.17	30447.15
508.37	30318.13
508.58	30254.64
508.78	30527.02
508.99	30623.28
509.19	30731.82
509.40	31016.49
509.60	30821.93
509.81	30879.27
510.01	30772.78
510.22	30754.35
510.42	31196.71
510.63	31219.24
510.83	31178.28
511.04	31172.13
511.24	31528.48
511.44	31329.83
511.65	31626.78
511.85	31647.26
512.06	31690.27
512.26	31510.05
512.47	31985.18
512.67	31964.70
512.88	31772.19
513.08	31360.55
513.29	32003.61
513.49	31936.02
513.69	31839.77
513.90	32069.14
514.10	32251.41
514.31	32183.83
514.51	32609.81
514.72	32357.91
514.92	32362.00
515.13	32591.37
515.33	32386.58
515.53	32429.59
515.74	32902.67
515.94	32802.32
516.15	32775.69
516.35	32736.78
516.56	33408.51
516.76	32855.56
516.96	33146.37
517.17	33306.12
517.37	33123.85
517.58	33349.12
517.78	33564.16
517.99	33715.71
518.19	33668.61
518.39	33799.68
518.60	33824.25
518.80	33547.78
519.01	33707.52
519.21	33973.75
519.41	34084.34
519.62	33928.70
519.82	34029.05
520.03	34686.45
520.23	34115.06
520.43	34252.28
520.64	34506.23
520.84	34475.51
521.05	34207.22
521.25	34391.54
521.45	34774.51
521.66	35165.67
521.86	34936.30
522.07	35036.65
522.27	35177.96
522.47	35005.93
522.68	35429.86
522.88	35288.55
523.08	35579.36
523.29	35487.20
523.49	35538.40
523.70	35325.41
523.90	35673.57
524.10	35507.68
524.31	36175.32
524.51	35845.60
524.71	36036.06
524.92	36036.06
525.12	36613.59
525.33	36445.65
525.53	36476.37
525.73	36445.65
525.94	36249.05
526.14	36781.52
526.34	36492.76
526.55	36591.06
526.75	37047.75
526.95	36967.88
527.16	36918.73
527.36	37209.54
527.56	37209.54
527.77	37342.66
527.97	37418.44
528.17	37406.15
528.38	37772.74
528.58	37830.08
528.78	37991.87
528.99	37645.76
529.19	38378.93
529.39	37942.72
529.60	38254.01
529.80	38196.67
530.00	38079.93
530.21	38598.07
530.41	38882.73
530.61	38778.29
530.82	38645.17
531.02	38860.21
531.22	39060.91
531.43	39126.44
531.63	39488.93
531.83	39615.91
532.04	39478.69
532.24	39384.49
532.44	39570.85
532.64	39730.59
532.85	40152.48
533.05	39511.46
533.25	40146.33
533.46	40238.49
533.66	40385.94
533.86	40183.19
534.07	40760.72
534.27	40422.81
534.47	40861.07
534.67	40635.80
534.88	40572.31
535.08	40932.75
535.28	41006.48
535.49	41387.40
535.69	41772.42
535.89	41508.23
536.09	41315.72
536.30	41377.16
536.50	41358.73
536.70	41905.54
536.91	41835.91
537.11	41960.83
537.31	42055.04
537.51	41895.30
537.72	42399.10
537.92	42167.68
538.12	42399.10
538.32	42751.35
538.53	42556.79
538.73	42354.04
538.93	42755.44
539.13	42648.95
539.34	42980.72
539.54	43095.41
539.74	43197.80
539.94	42788.21
540.15	42675.57
540.35	43124.08
540.55	43367.79
540.75	43597.16
540.96	43638.12
541.16	43627.88
541.36	43498.86
541.56	43468.14
541.77	43824.48
541.97	43599.21
542.17	43971.94
542.37	43859.30
542.58	44307.80
542.78	44299.61
542.98	44232.03
543.18	44176.73
543.38	44696.92
543.59	44780.88
543.79	44275.04
543.99	44363.10
544.19	44877.14
544.40	44342.62
544.60	45215.05
544.80	44666.20
545.00	44813.65
545.20	45223.25
545.41	45006.16
545.61	45055.31
545.81	45505.87
546.01	45759.81
546.21	45948.23
546.42	45307.21
546.62	45409.61
546.82	45696.33
547.02	45710.66
547.22	45456.71
547.43	45233.49
547.63	45735.24
547.83	46226.75
548.03	45684.04
548.23	45737.29
548.44	45632.84
548.64	46124.35
548.84	46132.54
549.04	45946.18
549.24	46314.81
549.45	46630.20
549.65	46355.77
549.85	46579.00
550.05	46601.53
550.25	46312.77
550.45	46941.49
550.66	46615.86
550.86	46853.43
551.06	47035.70
551.26	46964.02
551.46	46839.09
551.66	46716.22
551.87	46824.76
552.07	47064.37
552.27	47140.14
552.47	47033.65
552.67	47269.17
552.87	47158.58
553.07	47191.34
553.28	47357.23
553.48	47322.41
553.68	47181.10
553.88	47877.41
554.08	47633.71
554.28	47598.89
554.48	47625.51
554.69	47705.38
554.89	47570.22
555.09	48182.56
555.29	47295.79
555.49	47881.51
555.69	47623.47
555.89	47471.92
556.10	48127.27
556.30	47748.39
556.50	48033.06
556.70	47899.94
556.90	48145.70
557.10	48276.77
557.30	48080.16
557.50	48430.36
557.70	47863.08
557.91	48606.49
558.11	48270.62
558.31	48413.98
558.51	48510.24
558.71	48604.44
558.91	48614.68
559.11	48155.94
559.31	48461.08
559.51	48293.15
559.72	48735.51
559.92	48999.70
560.12	47985.96
560.32	48882.97
560.52	48567.58
560.72	48899.35
560.92	48786.71
561.12	48745.75
561.32	49421.58
561.52	49024.28
561.72	49077.52
561.93	48782.62
562.13	48880.92
562.33	48536.86
562.53	49558.80
562.73	49200.40
562.93	49612.04
563.13	49284.37
563.33	48727.32
563.53	49440.01
563.73	48971.03
563.93	49560.84
564.13	49513.74
564.33	49485.07
564.53	49343.76
564.74	50064.64
564.94	49577.23
565.14	49945.86
565.34	49437.97
565.54	49835.27
565.74	49505.55
565.94	50156.80
566.14	50070.79
566.34	49982.73
566.54	49831.18
566.74	49743.11
566.94	50038.02
567.14	50033.92
567.34	49796.36
567.54	49669.39
567.74	49765.64
567.94	49642.76
568.14	50316.54
568.34	50185.47
568.54	50396.42
568.74	50349.31
568.94	50316.54
569.14	50629.88
569.34	50695.42
569.54	50664.70
569.75	49933.57
569.95	50468.09
570.15	50916.60
570.35	50146.56
570.55	50418.94
570.75	50672.89
570.95	50529.53
571.15	50722.04
571.35	50439.42
571.55	51315.95
571.75	50826.49
571.95	50871.54
572.15	50431.23
572.35	51442.93
572.55	50423.04
572.75	50857.21
572.95	50558.20
573.15	51115.25
573.35	50945.27
573.55	50777.34
573.75	51041.53
573.95	51148.02
574.15	51164.40
574.35	51766.51
574.55	50973.94
574.75	51125.49
574.95	51893.48
575.15	51090.68
575.34	51236.08
575.54	51365.10
575.74	51885.29
575.94	51602.67
576.14	51672.30
576.34	52081.89
576.54	51639.53
576.74	51850.47
576.94	51283.19
577.14	52067.56
577.34	52268.26
577.54	51565.81
577.74	52341.99
577.94	52030.69
578.14	52352.23
578.34	51930.34
578.54	51829.99
578.74	51805.42
578.94	52344.03
579.14	51967.21
579.34	52491.49
579.54	52016.36
579.74	52241.63
579.94	52358.37
580.13	52856.03
580.33	52423.90
580.53	52364.51
580.73	52862.17
580.93	52880.60
581.13	52772.06
581.33	52643.04
581.53	53282.00
581.73	52706.52
581.93	53046.49
582.13	53161.17
582.33	53404.88
582.53	53009.62
582.73	53251.28
582.92	53267.67
583.12	53466.32
583.32	53275.86
583.52	52847.83
583.72	53658.83
583.92	53292.24
584.12	53447.89
584.32	53626.06
584.52	53650.64
584.72	53558.48
584.92	53767.37
585.11	54088.90
585.31	53556.43
585.51	53916.87
585.71	53744.84
585.91	54080.71
586.11	53837.00
586.31	53490.90
586.51	53789.90
586.71	54258.88
586.91	54312.13
587.10	54695.10
587.30	53839.05
587.50	54604.99
587.70	54230.21
587.90	54156.49
588.10	54506.69
588.30	54383.81
588.50	54686.91
588.69	54596.80
588.89	54615.23
589.09	54475.97
589.29	54381.76
589.49	54629.57
589.69	54834.36
589.89	54967.48
590.08	54891.71
590.28	55004.34
590.48	55184.57
590.68	54715.58
590.88	54600.89
591.08	54310.08
591.28	54432.96
591.47	55059.64
591.67	54863.03
591.87	54752.44
592.07	55125.17
592.27	55377.08
592.47	55266.48
592.67	55116.98
592.86	54977.72
593.06	55430.32
593.26	55583.92
593.46	55280.82
593.66	55284.92
593.86	55145.65
594.05	55551.15
594.25	55882.92
594.45	55309.49
594.65	55315.64
594.85	55110.84
595.05	55467.19
595.24	55876.78
595.44	55227.57
595.64	55919.79
595.84	55805.10
596.04	55456.95
596.23	55375.03
596.43	55798.96
596.63	55540.91
596.83	55585.97
597.03	55821.48
597.22	56528.03
597.42	56186.02
597.62	56329.38
597.82	56298.66
598.02	56192.17
598.21	56427.68
598.41	55938.22
598.61	55633.07
598.81	56573.09
599.01	56911.00
599.20	56169.64
599.40	56417.44
599.60	56439.97
599.80	56769.69
600.00	56587.42
600.19	57111.70
600.39	56456.35
600.59	56851.61
600.79	56753.31
600.98	56665.25
601.18	57023.64
601.38	56685.73
601.58	57449.62
601.78	56884.38
601.97	56857.76
602.17	57476.24
602.37	56874.14
602.57	56964.25
602.76	57482.39
602.96	57011.35
603.16	57685.14
603.36	57521.30
603.55	57924.75
603.75	57291.93
603.95	57668.75
604.15	57656.46
604.34	57549.97
604.54	57502.87
604.74	57287.83
604.94	57998.48
605.13	57728.14
605.33	57678.99
605.53	57732.24
605.73	57779.34
605.92	57707.66
606.12	57601.17
606.32	58070.15
606.52	58064.01
606.71	58184.84
606.91	58430.60
607.11	58018.95
607.30	58006.67
607.50	58356.87
607.70	58176.65
607.90	58389.64
608.09	58295.43
608.29	58184.84
608.49	58047.63
608.68	58377.35
608.88	58383.49
609.08	58877.05
609.28	58535.04
609.47	57828.49
609.67	58608.77
609.87	58410.12
610.06	58713.22
610.26	58627.20
610.46	58702.98
610.66	58840.19
610.85	58487.94
611.05	58768.51
611.25	58406.02
611.44	58498.18
611.64	58551.43
611.84	58115.21
612.03	58156.17
612.23	58389.64
612.43	58532.99
612.62	58479.75
612.82	58528.90
613.02	58768.51
613.21	58627.20
613.41	58598.53
613.61	58653.82
613.80	58401.92
614.00	58621.06
614.20	58340.49
614.39	58635.39
614.59	58500.23
614.79	58559.62
614.98	58555.52
615.18	58526.85
615.38	58872.96
615.57	58750.08
615.77	58674.30
615.97	58696.83
616.16	59192.44
616.36	58582.15
616.56	58969.21
616.75	58723.46
616.95	58186.89
617.15	58403.97
617.34	58535.04
617.54	58410.12
617.74	58664.06
617.93	58762.37
618.13	58223.75
618.32	58549.38
618.52	58416.26
618.72	58199.18
618.91	58399.88
619.11	58473.60
619.31	58825.85
619.50	58414.21
619.70	58709.12
619.90	58340.49
620.09	57904.27
620.29	58391.68
620.48	58121.35
620.68	58961.02
620.88	57797.77
621.07	58598.53
621.27	58051.72
621.46	57709.71
621.66	57986.19
621.86	58199.18
622.05	57914.51
622.25	58422.40
622.44	57846.93
622.64	57664.66
622.84	58135.69
623.03	58070.15
623.23	58299.53
623.42	58547.33
623.62	58025.10
623.82	58332.29
624.01	57582.74
624.21	58477.70
624.40	58266.76
624.60	57848.97
624.80	57859.21
624.99	57967.76
625.19	57597.07
625.38	58485.89
625.58	57930.89
625.77	57744.53
625.97	58393.73
626.17	58047.63
626.36	57664.66
626.56	58031.24
626.75	57175.19
626.95	58016.91
627.14	57988.24
627.34	58410.12
627.54	57652.37
627.73	57906.32
627.93	57543.83
628.12	57621.65
628.32	57812.11
628.51	57859.21
628.71	57775.25
628.90	57449.62
629.10	57533.59
629.30	57896.08
629.49	57846.93
629.69	57775.25
629.88	58184.84
630.08	58104.97
630.27	57953.42
630.47	57615.50
630.66	57588.88
630.86	57652.37
631.05	57414.80
631.25	57998.48
631.44	57801.87
631.64	57496.72
631.84	58195.08
632.03	58109.07
632.23	57734.29
632.42	58174.60
632.62	58207.37
632.81	57412.76
633.01	57947.28
633.20	57775.25
633.40	58006.67
633.59	57748.62
633.79	57920.65
633.98	57767.05
634.18	57814.16
634.37	57330.84
634.57	57687.18
634.76	58131.59
634.96	57879.69
635.15	57734.29
635.35	58008.71
635.54	57511.06
635.74	57310.36
635.93	57085.08
636.13	57963.66
636.32	57918.60
636.52	57312.41
636.71	57568.40
636.91	57382.04
637.10	57980.04
637.30	57427.09
637.49	57519.25
637.69	57441.43
637.88	57664.66
638.08	57216.15
638.27	58016.91
638.46	57848.97
638.66	57167.00
638.85	57717.90
639.05	57781.39
639.24	57990.28
639.44	57404.56
639.63	57744.53
639.83	57760.91
640.02	57746.57
640.22	57924.75
640.41	57805.97
640.61	57558.16
640.80	57916.56
640.99	57351.32
641.19	57926.80
641.38	57658.51
641.58	57369.75
641.77	57445.52
641.97	57359.51
642.16	57173.14
642.36	57404.56
642.55	57859.21
642.74	57298.07
642.94	57840.78
643.13	57230.49
643.33	58176.65
643.52	57801.87
643.72	57803.92
643.91	57379.99
644.10	57300.12
644.30	57740.43
644.49	57517.20
644.69	57693.33
644.88	57590.93
645.08	57603.22
645.27	57416.85
645.46	57402.52
645.66	57404.56
645.85	57513.11
646.05	57504.91
646.24	57513.11
646.43	57592.98
646.63	58170.50
646.82	58113.16
647.02	57910.41
647.21	57449.62
647.40	57631.89
647.60	57955.47
647.79	57642.13
647.99	57730.19
648.18	57687.18
648.37	58215.56
648.57	57779.34
648.76	57959.56
648.96	57455.76
649.15	58160.26
649.34	57904.27
649.54	57652.37
649.73	57416.85
649.92	57699.47
650.12	57525.39
650.31	58207.37
650.51	57828.49
650.70	57509.01
650.89	57619.60
651.09	58506.37
651.28	57543.83
651.47	58018.95
651.67	57765.01
651.86	58123.40
652.06	57363.60
652.25	57552.02
652.44	57867.40
652.64	57562.26
652.83	57613.46
653.02	57449.62
653.22	57748.62
653.41	57973.90
653.60	57457.81
653.80	57719.95
653.99	57975.95
654.18	57519.25
654.38	57754.77
654.57	57496.72
654.76	57648.27
654.96	57425.04
655.15	57744.53
655.34	57656.46
655.54	57382.04
655.73	57853.07
655.92	57502.87
656.12	57396.37
656.31	57451.67
656.50	57791.63
656.70	57394.32
656.89	57695.38
657.08	57711.76
657.28	57539.73
657.47	57660.56
657.66	57621.65
657.86	57459.86
658.05	57310.36
658.24	57357.46
658.43	57156.76
658.63	57414.80
658.82	57607.31
659.01	57418.90
659.21	57509.01
659.40	57664.66
659.59	57240.73
659.79	57250.97
659.98	57711.76
660.17	57785.49
660.36	57439.38
660.56	57410.71
660.75	57431.19
660.94	57777.29
661.14	57635.98
661.33	57676.94
661.52	57044.12
661.71	57488.53
661.91	57334.93
662.10	57420.95
662.29	57705.62
662.49	57189.53
662.68	57279.64
662.87	57478.29
663.06	57427.09
663.26	57255.06
663.45	57715.86
663.64	57287.83
663.83	57808.01
664.03	57339.03
664.22	57156.76
664.41	56931.48
664.60	56773.79
664.80	57638.03
664.99	56976.54
665.18	57244.82
665.37	57181.34
665.57	57283.73
665.76	57509.01
665.95	56962.20
666.14	57003.16
666.34	57226.39
666.53	56976.54
666.72	57240.73
666.91	57207.96
667.11	57105.56
667.30	57035.93
667.49	56771.74
667.68	57447.57
667.87	57062.55
668.07	56695.97
668.26	57031.83
668.45	57275.54
668.64	56880.28
668.84	57517.20
669.03	57492.63
669.22	56796.32
669.41	57085.08
669.60	56810.65
669.80	56450.21
669.99	57015.45
670.18	56691.87
670.37	56824.99
670.57	57392.28
670.76	56810.65
670.95	56767.65
671.14	56644.77
671.33	56781.98
671.53	56900.76
671.72	56943.77
671.91	56587.42
672.10	56513.70
672.29	56480.93
672.48	56884.38
672.68	56714.40
672.87	56702.11
673.06	56571.04
673.25	56521.89
673.44	56450.21
673.64	56693.92
673.83	56579.23
674.02	56685.73
674.21	56468.64
674.40	56313.00
674.59	55887.02
674.79	56054.95
674.98	55897.26
675.17	56741.02
675.36	56296.61
675.55	56489.12
675.74	56214.69
675.94	55932.07
676.13	55995.56
676.32	56243.37
676.51	56630.43
676.70	56229.03
676.89	55760.05
677.08	56288.42
677.28	55831.72
677.47	56370.34
677.66	56442.02
677.85	56089.77
678.04	56396.96
678.23	56683.68
678.42	56022.19
678.62	55473.33
678.81	56272.04
679.00	55905.45
679.19	56057.00
679.38	56118.44
679.57	55831.72
679.76	55868.59
679.96	55807.15
680.15	55762.09
680.34	55739.57
680.53	55985.32
680.72	56046.76
680.91	55786.67
681.10	55989.42
681.29	55700.65
681.48	55432.37
681.68	55284.92
681.87	56044.71
682.06	55778.48
682.25	54996.15
682.44	55698.61
682.63	55329.97
682.82	54990.01
683.01	55256.24
683.20	55325.88
683.39	55340.21
683.59	55246.00
683.78	55071.93
683.97	55039.16
684.16	55286.96
684.35	54985.91
684.54	55002.30
684.73	55016.63
684.92	54944.95
685.11	54774.97
685.30	54981.82
685.49	55377.08
685.69	54629.57
685.88	55049.40
686.07	54676.67
686.26	54486.21
686.45	54752.44
686.64	54836.41
686.83	54721.72
687.02	54963.39
687.21	54932.67
687.40	54418.63
687.59	54570.18
687.78	54500.54
687.97	54764.73
688.16	54361.28
688.35	54467.78
688.54	54496.45
688.74	54607.04
688.93	54265.03
689.12	54000.84
689.31	54420.67
689.50	54217.92
689.69	54031.56
689.88	53787.85
690.07	53994.70
690.26	53976.26
690.45	54281.41
690.64	54166.73
690.83	53773.52
691.02	53517.52
691.21	53904.59
691.40	53687.50
691.59	53802.19
691.78	53765.32
691.97	54093.00
692.16	53619.92
692.35	53839.05
692.54	53955.78
692.73	53773.52
692.92	53589.20
693.11	53578.96
693.30	53417.17
693.49	53861.58
693.68	53062.87
693.87	53365.97
694.06	53183.70
694.25	53439.70
694.44	53255.38
694.63	53368.02
694.82	53282.00
695.01	53406.93
695.20	53292.24
695.39	53181.65
695.58	52915.42
695.77	52974.81
695.96	52735.20
696.15	52858.07
696.34	52495.58
696.53	52911.32
696.72	52796.63
696.91	53036.25
697.10	52892.89
697.29	52415.71
697.48	52747.48
697.67	52268.26
697.86	52452.58
698.05	52129.00
698.24	52927.70
698.43	52022.50
698.62	52528.35
698.81	51965.16
699.00	52182.24
699.19	51870.95
699.38	51997.93
699.57	52061.41
699.76	52573.41
699.95	51877.10
700.14	51954.92
700.32	52122.85
700.51	52069.61
700.70	52415.71
700.89	52151.52
701.08	51987.69
701.27	51950.82
701.46	52225.25
701.65	51268.85
701.84	51762.41
702.03	51911.91
702.22	51580.14
702.41	51897.58
702.60	51207.41
702.79	51821.80
702.98	51676.40
703.17	51266.80
703.35	51313.90
703.54	50842.87
703.73	51721.45
703.92	51580.14
704.11	51623.15
704.30	51438.83
704.49	51080.44
704.68	51076.34
704.87	51354.86
705.06	50806.01
705.25	51461.36
705.43	51066.10
705.62	51252.47
705.81	50629.88
706.00	50699.51
706.19	51000.57
706.38	50527.48
706.57	50810.10
706.76	50730.23
706.95	50797.82
707.14	50232.58
707.32	50472.19
707.51	50408.70
707.70	50398.46
707.89	50177.28
708.08	50449.66
708.27	50496.77
708.46	50488.57
708.65	50212.10
708.84	50009.35
709.02	50291.97
709.21	50074.88
709.40	50398.46
709.59	49902.85
709.78	49345.81
709.97	50513.15
710.16	49732.87
710.34	49683.72
710.53	50021.64
710.72	49935.62
710.91	50138.37
711.10	49972.49
711.29	49861.90
711.48	50164.99
711.66	49687.82
711.85	49773.83
712.04	49534.22
712.23	49534.22
712.42	49407.25
712.61	49755.40
712.80	49523.98
712.98	49757.45
713.17	49263.89
713.36	49216.78
713.55	49392.91
713.74	49173.78
713.93	49255.70
714.11	48901.40
714.30	48860.44
714.49	48741.66
714.68	49253.65
714.87	49198.35
715.06	49298.70
715.24	48979.22
715.43	49206.55
715.62	48692.50
715.81	48450.84
716.00	48882.97
716.18	48260.38
716.37	48198.94
716.56	48330.01
716.75	48706.84
716.94	48213.28
717.12	48305.44
717.31	48727.32
717.50	48397.60
717.69	48465.18
717.88	47697.19
718.06	48284.96
718.25	48172.32
718.44	47795.49
718.63	47820.07
718.82	48035.11
719.00	48141.60
719.19	47846.69
719.38	47660.33
719.57	47435.05
719.76	47600.94
719.94	47402.28
720.13	47258.93
720.32	47732.01
720.51	47512.88
720.69	47164.72
720.88	47559.98
721.07	47136.05
721.26	46562.62
721.44	47181.10
721.63	46832.95
721.82	46871.86
722.01	46548.28
722.20	47031.60
722.38	46794.04
722.57	46105.92
722.76	46867.76
722.95	46593.34
723.13	46298.43
723.32	46742.84
723.51	46163.26
723.70	46056.77
723.88	45899.08
724.07	46349.63
724.26	46288.19
724.44	45679.94
724.63	46019.91
724.82	45690.18
725.01	45954.37
725.19	45940.04
725.38	45847.88
725.57	45516.11
725.76	45886.79
725.94	45768.01
726.13	45729.09
726.32	46085.44
726.51	45454.67
726.69	45858.12
726.88	45350.22
727.07	45317.45
727.25	45704.52
727.44	45573.45
727.63	45425.99
727.82	45458.76
728.00	45489.48
728.19	45155.66
728.38	45718.85
728.56	44596.57
728.75	45583.69
728.94	45378.89
729.12	45264.21
729.31	45620.55
729.50	45065.55
729.69	45000.02
729.87	45364.56
730.06	45165.90
730.25	45436.23
730.43	45772.10
730.62	45534.54
730.81	45344.08
730.99	45190.48
731.18	44797.27
731.37	45243.73
731.55	45165.90
731.74	45499.72
731.93	45065.55
732.11	45305.16
732.30	45221.20
732.49	45233.49
732.67	44856.66
732.86	44823.89
733.05	44807.51
733.23	44377.43
733.42	44518.74
733.61	44709.21
733.79	44963.15
733.98	44885.33
734.17	44549.46
734.35	44545.37
734.54	44586.33
734.73	44881.24
734.91	44666.20
735.10	44520.79
735.29	44459.35
735.47	44760.40
735.66	44479.83
735.84	44326.24
736.03	44143.97
736.22	44373.34
736.40	44053.86
736.59	44485.98
736.78	44000.61
736.96	44424.54
737.15	44270.94
737.33	44152.16
737.52	44049.76
737.71	44168.54
737.89	44268.89
738.08	44191.07
738.27	43828.58
738.45	44068.19
738.64	43894.11
738.82	43822.44
739.01	44334.43
739.20	43756.90
739.38	44086.62
739.57	43801.96
739.75	44053.86
739.94	43914.59
740.13	44031.33
740.31	43527.53
740.50	43631.97
740.68	43717.99
740.87	43705.70
741.06	43672.93
741.24	43253.10
741.43	43173.23
741.61	43701.61
741.80	43218.28
741.99	43539.82
742.17	43398.51
742.36	43418.99
742.54	42939.76
742.73	43486.57
742.91	43292.01
743.10	42761.59
743.29	43064.69
743.47	43367.79
743.66	42935.66
743.84	42919.28
744.03	42947.95
744.21	42941.81
744.40	42771.83
744.59	43117.93
744.77	43058.54
744.96	42909.04
745.14	42870.13
745.33	42810.74
745.51	43203.95
745.70	43271.53
745.88	42673.52
746.07	42491.26
746.26	42653.05
746.44	42784.12
746.63	42444.15
746.81	42319.23
747.00	42667.38
747.18	43081.07
747.37	42429.82
747.55	42585.46
747.74	42499.45
747.92	42098.05
748.11	42016.13
748.29	42282.36
748.48	42233.21
748.66	42096.00
748.85	42415.48
749.03	42247.55
749.22	42194.30
749.41	41782.66
749.59	41823.62
749.78	41446.79
749.96	41670.02
750.15	41618.82
750.33	42030.46
750.52	41704.84
750.70	41727.36
750.89	41403.78
751.07	41170.32
751.26	41268.62
751.44	41434.50
751.63	41401.74
751.81	41430.41
752.00	41448.84
752.18	41551.24
752.37	41139.60
752.55	41444.74
752.74	41141.64
752.92	40824.21
753.10	41348.49
753.29	41106.83
753.47	40883.60
753.66	40551.83
753.84	41389.45
754.03	40758.67
754.21	40992.14
754.40	40826.26
754.58	40768.91
754.77	40637.84
754.95	40723.86
755.14	40555.93
755.32	40598.93
755.51	40777.11
755.69	40342.94
755.88	40697.24
756.06	40693.14
756.24	40480.15
756.43	40521.11
756.61	40254.87
756.80	40261.02
756.98	40043.93
757.17	40301.98
757.35	40207.77
757.54	40455.57
757.72	40705.43
757.90	40263.07
758.09	39876.00
758.27	39937.44
758.46	39935.39
758.64	40113.56
758.83	40162.72
759.01	39876.00
759.19	39910.82
759.38	40015.26
759.56	39742.88
759.75	39773.60
759.93	39767.46
760.12	39579.04
760.30	39687.59
760.48	39785.89
760.67	39302.57
760.85	39556.52
761.04	39695.78
761.22	39456.17
761.40	39654.82
761.59	39366.06
761.77	39290.28
761.96	38911.41
762.14	39259.56
762.32	38927.79
762.51	39372.20
762.69	39048.62
762.88	38974.89
763.06	39120.30
763.24	39331.24
763.43	39306.66
763.61	38823.34
763.80	39003.56
763.98	38620.59
764.16	38682.03
764.35	38577.59
764.53	38196.67
764.72	38415.80
764.90	38641.07
765.08	38608.31
765.27	38368.69
765.45	38172.09
765.63	38098.36
765.82	38532.53
766.00	38663.60
766.18	38403.51
766.37	38303.16
766.55	38073.79
766.74	38151.61
766.92	38014.40
767.10	37866.94
767.29	37989.82
767.47	37789.12
767.65	37926.33
767.84	37526.98
768.02	38020.54
768.20	37307.85
768.39	37686.72
768.57	37950.91
768.75	37301.70
768.94	37516.74
769.12	37723.58
769.30	37318.09
769.49	37477.83
769.67	37375.43
769.85	37389.77
770.04	37445.06
770.22	36904.40
770.40	36826.57
770.59	36881.87
770.77	37492.16
770.95	37166.54
771.14	36484.56
771.32	36802.00
771.50	36783.57
771.69	36820.43
771.87	37131.72
772.05	36459.99
772.24	36584.91
772.42	36738.51
772.60	36539.86
772.78	36928.97
772.97	36373.97
773.15	36517.33
773.33	36507.09
773.52	36402.64
773.70	36656.59
773.88	36466.13
774.07	36271.57
774.25	36386.26
774.43	36531.67
774.61	36586.96
774.80	36646.35
774.98	36384.21
775.16	36578.77
775.34	36580.82
775.53	36146.65
775.71	36425.17
775.89	36447.70
776.08	36083.16
776.26	36326.87
776.44	36320.73
776.62	36197.85
776.81	36339.16
776.99	36457.94
777.17	36355.54
777.35	36462.04
777.54	36449.75
777.72	36228.57
777.90	36296.15
778.08	36488.66
778.27	36537.81
778.45	36705.74
778.63	36828.62
778.81	36373.97
779.00	37025.23
779.18	36683.22
779.36	36971.98
779.54	36572.63
779.73	36537.81
779.91	37060.04
780.09	36986.32
780.27	36490.71
780.46	36693.46
780.64	37416.39
780.82	36648.40
781.00	36281.81
781.19	36761.04
781.37	36892.11
781.55	36939.21
781.73	36670.93
781.91	36681.17
782.10	36666.83
782.28	36828.62
782.46	36879.82
782.64	36896.20
782.82	36799.95
783.01	37060.04
783.19	37084.62
783.37	36933.07
783.55	36715.98
783.74	36732.37
783.92	36826.57
784.10	36949.45
784.28	36627.92
784.46	36865.49
784.64	36713.94
784.83	36695.50
785.01	36804.05
785.19	36398.55
785.37	36509.14
785.55	37123.53
785.74	36345.30
785.92	36236.76
786.10	36875.73
786.28	36302.29
786.46	36695.50
786.64	36255.19
786.83	36242.90
787.01	36322.77
787.19	36169.18
787.37	36206.04
787.55	35993.05
787.74	36206.04
787.92	36361.69
788.10	36099.55
788.28	36185.56
788.46	36369.88
788.64	35919.32
788.82	35937.76
789.01	35814.88
789.19	36144.60
789.37	35657.18
789.55	36017.63
789.73	35190.25
789.91	35788.25
790.09	35653.09
790.28	36056.54
790.46	35569.12
790.64	35827.17
790.82	35542.50
791.00	35325.41
791.18	35376.61
791.36	35245.54
791.55	35481.06
791.73	35022.31
791.91	35014.12
792.09	34954.73
792.27	34807.28
792.45	34751.98
792.63	34909.68
792.81	34794.99
793.00	34846.19
793.18	34311.67
793.36	34143.74
793.54	34481.65
793.72	34434.55
793.90	34182.65
794.08	34125.30
794.26	34414.07
794.44	33736.19
794.62	33295.88
794.81	33912.31
794.99	33611.26
795.17	33601.02
795.35	33390.08
795.53	33859.07
795.71	33764.86
795.89	33611.26
796.07	33332.74
796.25	33275.40
796.43	33314.31
796.61	32865.80
796.80	32763.40
796.98	33238.53
797.16	32499.22
797.34	32941.58
797.52	32773.64
797.70	32667.15
797.88	32484.88
798.06	32482.83
798.24	32335.38
798.42	32468.50
798.60	32351.76
798.78	32396.82
798.96	32497.17
799.14	32130.58
799.32	32450.06
799.51	31880.73
799.69	32038.42
799.87	32124.44
800.05	31647.26
800.23	31897.11
800.41	31733.28
800.59	31923.74
800.77	31700.51
800.95	31403.55
801.13	31440.42
801.31	31227.43
801.49	31329.83
801.67	31032.87
801.85	31247.91
802.03	30985.77
802.21	30934.57
802.39	30643.76
802.57	30813.74
802.75	30803.50
802.93	30543.41
803.11	30690.86
803.29	30441.01
803.47	30498.35
803.65	30455.34
803.83	30150.20
804.01	30350.90
804.19	29994.55
804.37	29933.11
804.55	30262.83
804.73	29892.15
804.91	30144.05
805.09	30010.93
805.27	29861.43
805.45	29736.51
805.63	29703.74
805.81	29638.20
805.99	29390.40
806.17	29423.17
806.35	29638.20
806.53	29032.00
806.71	29328.96
806.89	29453.89
807.07	28999.24
807.25	29036.10
807.43	28839.50
807.61	29234.75
807.79	29154.88
807.97	28941.89
808.15	28573.26
808.33	28726.86
808.51	29097.54
808.69	28790.34
808.87	28585.55
809.05	28599.88
809.23	28345.94
809.41	27950.68
809.59	28450.38
809.77	28554.83
809.95	28151.38
810.13	28464.72
810.31	28014.16
810.49	28192.34
810.67	28020.31
810.84	28026.45
811.02	28022.36
811.20	27897.43
811.38	27778.65
811.56	27717.21
811.74	27661.91
811.92	27647.58
812.10	27735.64
812.28	27551.32
812.46	27258.46
812.64	27131.49
812.82	27389.53
813.00	27264.61
813.18	27481.69
813.36	27194.98
813.53	27004.52
813.71	27287.14
813.89	27133.54
814.07	27192.93
814.25	27170.40
814.43	27039.33
814.61	26844.77
814.79	27129.44
814.97	27016.80
815.15	26881.64
815.33	26330.73
815.50	26326.64
815.68	26707.56
815.86	26668.65
816.04	26603.11
816.22	26297.97
816.40	26582.63
816.58	26347.12
816.76	26316.40
816.94	26103.41
817.11	26001.01
817.29	25958.00
817.47	26115.70
817.65	25900.66
817.83	25839.22
818.01	25646.71
818.19	25826.93
818.37	25458.30
818.54	25659.00
818.72	25400.96
818.90	25695.86
819.08	25679.48
819.26	25663.10
819.44	25368.19
819.62	25491.07
819.80	25575.03
819.97	25388.67
820.15	25282.17
820.33	25292.41
820.51	25501.31
820.69	25038.47
820.87	25183.87
821.05	25482.88
821.22	25337.47
821.40	25097.86
821.58	25024.13
821.76	24821.38
821.94	25026.18
822.12	25009.79
822.29	25151.10
822.47	24706.70
822.65	24876.68
822.83	24907.40
823.01	24827.53
823.19	24735.37
823.36	24538.76
823.54	24305.29
823.72	24393.36
823.90	24344.20
824.08	24223.37
824.25	24270.48
824.43	24067.73
824.61	23930.51
824.79	24141.46
824.97	24260.24
825.15	24209.04
825.32	24135.31
825.50	24211.09
825.68	24266.38
825.86	24084.11
826.04	24170.13
826.21	23920.28
826.39	23844.50
826.57	23838.36
826.75	23731.86
826.93	23580.31
827.10	23410.33
827.28	23742.10
827.46	23895.70
827.64	23703.19
827.81	23643.80
827.99	23629.46
828.17	23522.97
828.35	23611.03
828.53	23537.30
828.70	23451.29
828.88	23398.04
829.06	23357.08
829.24	23527.06
829.41	23041.70
829.59	23379.61
829.77	23318.17
829.95	23469.72
830.12	23342.75
830.30	23090.85
830.48	23148.19
830.66	23316.12
830.84	23096.99
831.01	22955.68
831.19	23183.01
831.37	22800.04
831.55	22754.98
831.72	22619.81
831.90	22783.65
832.08	22752.93
832.25	22892.19
832.43	22765.22
832.61	22611.62
832.79	22638.25
832.96	22484.65
833.14	22458.03
833.32	22720.17
833.50	22673.06
833.67	22257.32
833.85	22443.69
834.03	22312.62
834.20	22226.60
834.38	22455.98
834.56	22443.69
834.74	21978.80
834.91	22228.65
835.09	22359.72
835.27	22142.64
835.44	21991.09
835.62	21915.31
835.80	22154.93
835.98	22062.77
836.15	21886.64
836.33	22079.15
836.51	22070.96
836.68	21839.54
836.86	21737.14
837.04	21788.34
837.21	21835.44
837.39	21868.21
837.57	21898.93
837.75	21917.36
837.92	21509.82
838.10	21964.46
838.28	21446.33
838.45	21683.89
838.63	21345.98
838.81	21544.63
838.98	21542.58
839.16	21552.82
839.34	21479.10
839.51	21366.46
839.69	21528.25
839.87	21253.82
840.04	21194.43
840.22	21591.73
840.40	21202.62
840.57	20897.47
840.75	21219.00
840.93	20819.65
841.10	21057.21
841.28	21472.95
841.46	21153.47
841.63	20754.12
841.81	21073.60
841.98	20975.30
842.16	20838.08
842.34	21165.76
842.51	20627.14
842.69	20942.53
842.87	21040.83
843.04	20872.90
843.22	20805.31
843.40	20747.97
843.57	20731.59
843.75	20799.17
843.92	20719.30
844.10	20729.54
844.28	20879.04
844.45	20711.11
844.63	20496.07
844.81	20276.94
844.98	20272.84
845.16	20336.33
845.33	20428.49
845.51	20127.44
845.69	20299.47
845.86	20401.86
846.04	20420.30
846.21	20219.60
846.39	20348.62
846.57	20135.63
846.74	20457.16
846.92	20045.52
847.09	20117.20
847.27	20129.48
847.45	20127.44
847.62	19992.27
847.80	19805.91
847.97	20041.42
848.15	19910.35
848.32	19877.58
848.50	19810.00
848.68	19742.42
848.85	19742.42
849.03	20022.99
849.20	19814.10
849.38	19754.71
849.56	19572.44
849.73	19744.47
849.91	19840.72
850.08	19793.62
850.26	19416.79
850.43	19422.94
850.61	19678.93
850.78	19205.85
850.96	19298.01
851.14	19318.49
851.31	19431.13
851.49	19314.39
851.66	19379.93
851.84	19410.65
852.01	19496.66
852.19	19449.56
852.36	19330.78
852.54	19259.10
852.71	19279.58
852.89	19238.62
853.07	19095.26
853.24	19338.97
853.42	18931.42
853.59	19107.55
853.77	19074.78
853.94	18974.43
854.12	19072.73
854.29	18808.54
854.47	18994.91
854.64	18783.97
854.82	18943.71
854.99	18908.90
855.17	18720.48
855.34	18583.27
855.52	18964.19
855.69	18900.70
855.87	18632.42
856.04	18413.29
856.22	18859.74
856.39	18429.67
856.57	18532.07
856.74	18587.36
856.92	18581.22
857.09	18290.41
857.27	18464.49
857.44	18546.40
857.62	18624.23
857.79	18335.46
857.97	18169.58
858.14	18417.38
858.32	18265.83
858.49	18343.66
858.67	18134.76
858.84	18163.43
859.02	18251.50
859.19	18173.67
859.37	18271.98
859.54	18018.03
859.72	18388.71
859.89	18222.83
860.06	18091.76
860.24	17856.24
860.41	18091.76
860.59	17788.66
860.76	17790.70
860.94	17809.14
861.11	17936.11
861.29	17710.83
861.46	17862.38
861.64	17663.73
861.81	17549.04
861.98	17616.63
862.16	17432.31
862.33	17571.57
862.51	17506.04
862.68	17424.12
862.86	17196.79
863.03	17311.48
863.21	17518.32
863.38	17497.84
863.55	17430.26
863.73	17385.21
863.90	17473.27
864.08	17538.80
864.25	17387.25
864.43	17340.15
864.60	17305.34
864.77	16998.14
864.95	17073.92
865.12	17168.12
865.30	17331.96
865.47	17118.97
865.64	17137.40
865.82	16998.14
865.99	17243.90
866.17	16932.61
866.34	16811.78
866.51	16537.35
866.69	17008.38
866.86	16981.76
867.04	16781.06
867.21	16977.66
867.38	16938.75
867.56	16656.13
867.73	16525.06
867.91	16678.66
868.08	16881.41
868.25	16740.10
868.43	16559.88
868.60	16428.81
868.78	16559.88
868.95	16613.12
869.12	16256.78
869.30	16324.36
869.47	16484.10
869.64	16297.74
869.82	16443.14
869.99	16199.43
870.16	16387.85
870.34	16291.59
870.51	16230.15
870.69	16119.56
870.86	16082.70
871.03	16183.05
871.21	15941.39
871.38	16193.29
871.55	15935.24
871.73	16094.99
871.90	15888.14
872.07	15943.44
872.25	15666.96
872.42	15896.33
872.59	15873.81
872.77	15836.94
872.94	15648.53
873.11	15703.82
873.29	15843.09
873.46	15638.29
873.63	15666.96
873.81	15587.09
873.98	15601.43
874.15	15621.91
874.33	15585.04
874.50	15195.93
874.67	15224.60
874.85	15292.18
875.02	15206.17
875.19	14980.89
875.37	15128.35
875.54	15085.34
875.71	15085.34
875.88	15085.34
876.06	15243.03
876.23	15019.80
876.40	14870.30
876.58	14919.45
876.75	14669.60
876.92	15001.37
877.10	14851.87
877.27	14700.32
877.44	14804.77
877.61	14880.54
877.79	14903.07
877.96	14724.90
878.13	14722.85
878.31	14522.15
878.48	14595.87
878.65	14661.41
878.82	14757.66
879.00	14585.63
879.17	14602.02
879.34	14669.60
879.51	14454.56
879.69	14417.70
879.86	14311.21
880.03	14409.51
880.21	14329.64
880.38	14522.15
880.55	14575.39
880.72	14180.14
880.90	14321.45
881.07	14186.28
881.24	14219.05
881.41	14401.32
881.59	14143.27
881.76	14059.31
881.93	14214.95
882.10	14130.98
882.28	14120.74
882.45	13963.05
882.62	13958.96
882.79	14169.90
882.96	13807.41
883.14	14155.56
883.31	13991.72
883.48	14139.18
883.65	14040.87
883.83	14100.26
884.00	13938.48
884.17	13784.88
884.34	13983.53
884.51	14042.92
884.69	13856.56
884.86	13924.14
885.03	13848.36
885.20	13684.53
885.38	13887.28
885.55	13645.62
885.72	13686.58
885.89	13762.35
886.06	13618.99
886.24	13631.28
886.41	13573.94
886.58	13709.10
886.75	13805.36
886.92	13516.59
887.10	13659.95
887.27	13385.52
887.44	13496.11
887.61	13506.35
887.78	13643.57
887.95	13455.15
888.13	13461.30
888.30	13418.29
888.47	13352.76
888.64	13317.94
888.81	13066.04
888.99	13287.22
889.16	13248.31
889.33	13381.43
889.50	13168.44
889.67	13293.37
889.84	13000.51
890.01	12955.45
890.19	13330.23
890.36	13100.86
890.53	13102.90
890.70	12957.50
890.87	12988.22
891.04	13092.66
891.22	12990.27
891.39	13092.66
891.56	13045.56
891.73	12857.15
891.90	12971.83
892.07	12756.80
892.24	12787.52
892.42	12889.92
892.59	12631.87
892.76	12791.61
892.93	12767.04
893.10	12818.24
893.27	12656.45
893.44	12953.40
893.61	12699.45
893.79	12711.74
893.96	12666.69
894.13	12949.31
894.30	12887.87
894.47	12638.02
894.64	12742.46
894.81	12875.58
894.98	12875.58
895.15	12689.21
895.33	12463.94
895.50	12552.00
895.67	12826.43
895.84	12558.14
896.01	12697.41
896.18	12453.70
896.35	12621.63
896.52	12468.03
896.69	12457.79
896.86	12523.33
897.04	12523.33
897.21	12439.36
897.38	12404.55
897.55	12441.41
897.72	12478.27
897.89	12506.95
898.06	12631.87
898.23	12670.78
898.40	12635.97
898.57	12300.10
898.74	12566.34
898.91	12386.12
899.08	12482.37
899.26	12406.59
899.43	12660.54
899.60	12287.81
899.77	12359.49
899.94	12543.81
900.11	12265.28
900.28	12433.22
900.45	12287.81
900.62	12312.39
900.79	12367.68
900.96	12435.27
901.13	12361.54
901.30	12437.31
901.47	12320.58
901.64	12398.40
901.81	12382.02
901.98	12201.80
902.15	12320.58
902.32	12336.96
902.49	12418.88
902.66	12351.30
902.83	12379.97
903.01	12371.78
903.18	12400.45
903.35	12369.73
903.52	12126.02
903.69	12375.88
903.86	12392.26
904.03	12351.30
904.20	12242.76
904.37	12300.10
904.54	12107.59
904.71	12242.76
904.88	12255.04
905.05	12300.10
905.22	12175.17
905.39	12367.68
905.56	12218.18
905.73	12308.29
905.90	12083.02
906.07	12035.91
906.24	12287.81
906.41	12255.04
906.58	12361.54
906.75	12220.23
906.92	12119.88
907.09	12179.27
907.26	11908.94
907.43	11927.37
907.60	12230.47
907.77	12201.80
907.93	12187.46
908.10	12136.26
908.27	12189.51
908.44	12046.15
908.61	12115.78
908.78	12132.17
908.95	12232.52
909.12	11845.45
909.29	12083.02
909.46	12097.35
909.63	12183.37
909.80	11863.88
909.97	12017.48
910.14	11915.08
910.31	11964.23
910.48	12058.44
910.65	11865.93
910.82	11943.75
910.99	11921.23
911.16	11831.12
911.33	11947.85
911.50	11915.08
911.66	11953.99
911.83	11659.09
912.00	11822.92
912.17	11652.94
912.34	11777.87
912.51	11675.47
912.68	11552.59
912.85	11786.06
913.02	11767.63
913.19	11585.36
913.36	11620.17
913.53	11661.13
913.70	11597.65
913.86	11517.78
914.03	11446.10
914.20	11616.08
914.37	11487.06
914.54	11349.84
914.71	11450.19
914.88	11450.19
915.05	11190.10
915.22	11396.95
915.39	11466.58
915.55	11282.26
915.72	11317.08
915.89	11210.58
916.06	11216.72
916.23	11077.46
916.40	11214.68
916.57	11312.98
916.74	11153.24
916.91	11124.57
917.07	11022.17
917.24	11038.55
917.41	11016.02
917.58	11267.92
917.75	10938.20
917.92	10936.15
918.09	10837.85
918.26	11054.94
918.42	11138.90
918.59	10864.47
918.76	10714.97
918.93	10798.94
919.10	10579.81
919.27	10671.97
919.44	10700.64
919.60	10878.81
919.77	10592.09
919.94	10553.18
920.11	10475.36
920.28	10391.39
920.45	10518.37
920.61	10436.45
920.78	10510.18
920.95	10248.04
921.12	10233.70
921.29	10319.71
921.46	10319.71
921.62	10229.60
921.79	10186.60
921.96	10149.73
922.13	10059.62
922.30	10057.57
922.47	9969.51
922.63	10084.20
922.80	10018.66
922.97	9879.40
923.14	9875.31
923.31	9869.16
923.47	9772.91
923.64	9836.39
923.81	9502.58
923.98	9697.13
924.15	9723.76
924.32	9709.42
924.48	9707.37
924.65	9658.22
924.82	9439.09
924.99	9504.62
925.15	9324.40
925.32	9660.27
925.49	9633.64
925.66	9574.25
925.83	9381.74
925.99	9256.82
926.16	9478.00
926.33	9330.55
926.50	9148.28
926.67	9150.32
926.83	9353.07
927.00	9105.27
927.17	9078.65
927.34	8986.49
927.50	9011.06
927.67	9002.87
927.84	8998.77
928.01	9033.59
928.17	8908.66
928.34	8865.66
928.51	8841.08
928.68	8681.34
928.84	8869.75
929.01	8669.05
929.18	8656.76
929.35	8624.00
929.51	8650.62
929.68	8451.97
929.85	8462.21
930.02	8529.79
930.18	8472.45
930.35	8468.35
930.52	8380.29
930.69	8400.77
930.85	8112.00
931.02	8202.11
931.19	8222.59
931.36	8202.11
931.52	8316.80
931.69	8257.41
931.86	8048.52
932.02	8052.61
932.19	7962.50
932.36	7884.68
932.53	7933.83
932.69	7804.81
932.86	7962.50
933.03	7829.38
933.19	7737.23
933.36	7806.86
933.53	7776.14
933.70	7669.64
933.86	7606.16
934.03	7673.74
934.20	7430.03
934.36	7503.76
934.53	7348.11
934.70	7391.12
934.86	7364.50
935.03	7362.45
935.20	7294.86
935.36	7102.36
935.53	7137.17
935.70	7167.89
935.86	7110.55
936.03	7171.99
936.20	6905.75
936.36	6881.18
936.53	6924.18
936.70	6791.06
936.86	6786.97
937.03	6598.56
937.20	6590.36
937.36	6700.95
937.53	6313.89
937.70	6440.86
937.86	6348.70
938.03	6356.90
938.20	6340.51
938.36	6129.57
938.53	6193.06
938.70	5949.35
938.86	6008.74
939.03	5939.11
939.20	5953.45
939.36	5744.55
939.53	5719.98
939.70	5945.25
939.86	5529.52
940.03	5535.66
940.19	5466.03
940.36	5490.60
940.53	5515.18
940.69	5390.25
940.86	5441.45
941.03	5361.58
941.19	5242.80
941.36	5224.37
941.52	5207.98
941.69	5138.35
941.86	5136.31
942.02	4972.47
942.19	4900.79
942.35	4951.99
942.52	4974.52
942.69	4648.89
942.85	4872.12
943.02	4923.32
943.18	4695.99
943.35	4716.47
943.52	4603.83
943.68	4609.98
943.85	4544.44
944.01	4644.79
944.18	4499.39
944.35	4665.27
944.51	4440.00
944.68	4392.89
944.84	4622.27
945.01	4569.02
945.17	4546.49
945.34	4548.54
945.51	4468.67
945.67	4509.63
945.84	4534.20
946.00	4503.48
946.17	4394.94
946.33	4425.66
946.50	4407.23
946.67	4343.74
946.83	4472.76
947.00	4554.68
947.16	4304.83
947.33	4257.73
947.49	4245.44
947.66	4386.75
947.82	4224.96
947.99	4245.44
948.16	4249.54
948.32	4349.89
948.49	4300.73
948.65	4362.17
948.82	4186.05
948.98	4286.40
949.15	4147.14
949.31	4358.08
949.48	4280.25
949.64	4294.59
949.81	4313.02
949.97	4358.08
950.14	4276.16
950.30	4319.17
950.47	4376.51
950.63	4171.71
950.80	4222.91
950.96	4407.23
951.13	4347.84
951.30	4306.88
951.46	4392.89
951.63	4468.67
951.79	4302.78
951.96	4368.32
952.12	4415.42
952.29	4556.73
952.45	4239.30
952.62	4343.74
952.78	4431.80
952.94	4466.62
953.11	4425.66
953.27	4362.17
953.44	4581.31
953.60	4384.70
953.77	4415.42
953.93	4270.01
954.10	4421.56
954.26	4319.17
954.43	4296.64
954.59	4411.32
954.76	4491.20
954.92	4388.80
955.09	4429.76
955.25	4581.31
955.42	4454.33
955.58	4392.89
955.75	4409.28
955.91	4409.28
956.07	4505.53
956.24	4519.87
956.40	4417.47
956.57	4392.89
956.73	4368.32
956.90	4597.69
957.06	4456.38
957.23	4401.08
957.39	4329.41
957.56	4411.32
957.72	4480.96
957.88	4333.50
958.05	4263.87
958.21	4513.72
958.38	4456.38
958.54	4382.65
958.71	4315.07
958.87	4454.33
959.03	4401.08
959.20	4433.85
959.36	4454.33
959.53	4343.74
959.69	4431.80
959.85	4440.00
960.02	4405.18
960.18	4501.44
960.35	4466.62
960.51	4366.27
960.68	4241.34
960.84	4384.70
961.00	4274.11
961.17	4376.51
961.33	4474.81
961.50	4399.04
961.66	4370.37
961.82	4421.56
961.99	4485.05
962.15	4222.91
962.31	4382.65
962.48	4376.51
962.64	4351.93
962.81	4396.99
962.97	4376.51
963.13	4401.08
963.30	4526.01
963.46	4274.11
963.62	4382.65
963.79	4304.83
963.95	4259.78
964.12	4353.98
964.28	4341.69
964.44	4274.11
964.61	4440.00
964.77	4286.40
964.93	4425.66
965.10	4333.50
965.26	4358.08
965.42	4259.78
965.59	4292.54
965.75	4382.65
965.92	4265.92
966.08	4300.73
966.24	4413.37
966.41	4212.67
966.57	4315.07
966.73	4321.21
966.90	4321.21
967.06	4235.20
967.22	4272.06
967.39	4229.06
967.55	4138.94
967.71	4194.24
967.88	4175.81
968.04	4196.29
968.20	4151.23
968.37	4108.23
968.53	4259.78
968.69	4181.95
968.85	4116.42
969.02	4186.05
969.18	4147.14
969.34	4140.99
969.51	4231.10
969.67	4255.68
969.83	4128.70
970.00	4071.36
970.16	4184.00
970.32	4212.67
970.48	4212.67
970.65	4192.19
970.81	4063.17
970.97	4016.07
971.14	4128.70
971.30	4044.74
971.46	3981.25
971.63	3964.87
971.79	4204.48
971.95	4165.57
972.11	3948.48
972.28	4134.85
972.44	4083.65
972.60	4005.83
972.76	3997.64
972.93	3930.05
973.09	3975.11
973.25	3915.72
973.42	3852.23
973.58	4024.26
973.74	3997.64
973.90	4044.74
974.07	4044.74
974.23	3831.75
974.39	3962.82
974.55	3839.94
974.72	3966.92
974.88	3866.56
975.04	3925.96
975.20	3925.96
975.37	3932.10
975.53	3803.08
975.69	3837.89
975.85	3864.52
976.01	3946.44
976.18	3839.94
976.34	3895.24
976.50	3874.76
976.66	3841.99
976.83	3784.65
976.99	3841.99
977.15	3794.89
977.31	3835.85
977.47	3620.81
977.64	3780.55
977.80	3749.83
977.96	3803.08
978.12	3733.45
978.29	3692.49
978.45	3688.39
978.61	3600.33
978.77	3741.64
978.93	3762.12
979.10	3776.45
979.26	3618.76
979.42	3706.82
979.58	3663.82
979.74	3778.50
979.91	3862.47
980.07	3629.00
980.23	3622.86
980.39	3665.86
980.55	3639.24
980.71	3588.04
980.88	3614.66
981.04	3616.71
981.20	3581.90
981.36	3626.95
981.52	3629.00
981.68	3655.62
981.85	3549.13
982.01	3569.61
982.17	3545.03
982.33	3542.99
982.49	3616.71
982.65	3542.99
982.82	3477.45
982.98	3553.23
983.14	3393.48
983.30	3422.16
983.46	3606.47
983.62	3528.65
983.79	3403.72
983.95	3430.35
984.11	3360.72
984.27	3510.22
984.43	3395.53
984.59	3459.02
984.75	3346.38
984.91	3487.69
985.08	3446.73
985.24	3295.18
985.40	3340.24
985.56	3325.90
985.72	3373.00
985.88	3313.61
986.04	3354.57
986.20	3319.76
986.37	3389.39
986.53	3309.52
986.69	3508.17
986.85	3362.76
987.01	3413.96
987.17	3340.24
987.33	3311.57
987.49	3223.50
987.65	3270.61
987.82	3266.51
987.98	3172.30
988.14	3252.17
988.30	3237.84
988.46	3194.83
988.62	3180.50
988.78	3233.74
988.94	3241.93
989.10	3225.55
989.26	3207.12
989.42	3282.89
989.59	3098.58
989.75	3190.74
989.91	3250.13
990.07	3147.73
990.23	3086.29
990.39	3106.77
990.55	3092.43
990.71	3123.15
990.87	2994.13
991.03	3164.11
991.19	2981.84
991.35	3033.04
991.51	3069.91
991.67	3121.10
991.83	3231.69
992.00	3047.38
992.16	3053.52
992.32	3037.14
992.48	3155.92
992.64	2904.02
992.80	3057.62
992.96	2996.18
993.12	3051.47
993.28	3033.04
993.44	2987.99
993.60	2953.17
993.76	2971.60
993.92	2916.31
994.08	2916.31
994.24	3014.61
994.40	3033.04
994.56	2957.27
994.72	2938.84
994.88	2963.41
995.04	2979.79
995.20	2891.73
995.36	2877.40
995.52	2938.84
995.68	2836.44
995.84	2908.12
996.00	2881.49
996.16	2961.36
996.32	2944.98
996.48	2949.08
996.64	2934.74
996.80	2916.31
996.96	2899.92
997.12	2861.01
997.28	2826.20
997.44	2793.43
997.60	2801.62
997.76	2754.52
997.92	2805.72
998.08	2828.24
998.24	2848.72
998.40	2791.38
998.56	2799.57
998.72	2721.75
998.88	2748.37
999.04	2758.61
999.20	2803.67
999.36	2719.70
999.52	2820.05
999.68	2750.42
999.84	2748.37
1000.00	2775.00
1000.16	2770.90
1000.32	2805.72
1000.48	2768.85
1000.64	2645.98
1000.80	2691.03
1000.95	2566.10
1001.11	2680.79
1001.27	2695.13
1001.43	2750.42
1001.59	2607.06
1001.75	2566.10
1001.91	2615.26
1002.07	2650.07
1002.23	2574.30
1002.39	2600.92
1002.55	2611.16
1002.71	2582.49
1002.87	2678.74
1003.03	2580.44
1003.19	2619.35
1003.34	2576.34
1003.50	2600.92
1003.66	2641.88
1003.82	2580.44
1003.98	2537.43
1004.14	2551.77
1004.30	2498.52
1004.46	2592.73
1004.62	2492.38
1004.78	2566.10
1004.94	2559.96
1005.09	2420.70
1005.25	2498.52
1005.41	2572.25
1005.57	2533.34
1005.73	2461.66
1005.89	2367.45
1006.05	2605.02
1006.21	2508.76
1006.37	2467.80
1006.52	2484.19
1006.68	2420.70
1006.84	2478.04
1007.00	2424.80
1007.16	2564.06
1007.32	2447.32
1007.48	2453.47
1007.64	2404.32
1007.79	2445.27
1007.95	2396.12
1008.11	2435.03
1008.27	2459.61
1008.43	2406.36
1008.59	2398.17
1008.75	2465.75
1008.91	2326.49
1009.06	2385.88
1009.22	2379.74
1009.38	2359.26
1009.54	2445.27
1009.70	2336.73
1009.86	2492.38
1010.01	2404.32
1010.17	2359.26
1010.33	2406.36
1010.49	2295.77
1010.65	2400.22
1010.81	2271.20
1010.96	2342.88
1011.12	2340.83
1011.28	2371.55
1011.44	2320.35
1011.60	2310.11
1011.76	2197.47
1011.91	2387.93
1012.07	2301.92
1012.23	2285.53
1012.39	2322.40
1012.55	2316.25
1012.71	2303.96
1012.86	2322.40
1013.02	2244.57
1013.18	2301.92
1013.34	2150.37
1013.50	2285.53
1013.65	2248.67
1013.81	2181.09
1013.97	2203.61
1014.13	2265.05
1014.29	2248.67
1014.44	2275.29
1014.60	2207.71
1014.76	2250.72
1014.92	2242.53
1015.07	2222.05
1015.23	2250.72
1015.39	2164.70
1015.55	2197.47
1015.71	2150.37
1015.86	2232.29
1016.02	2211.81
1016.18	2133.98
1016.34	2236.38
1016.49	2129.89
1016.65	2246.62
1016.81	2197.47
1016.97	2097.12
1017.12	2131.94
1017.28	2156.51
1017.44	2101.22
1017.60	2150.37
1017.75	2144.22
1017.91	2152.42
1018.07	2090.98
1018.23	2117.60
1018.38	2121.70
1018.54	2164.70
1018.70	2117.60
1018.86	2052.06
1019.01	2017.25
1019.17	2088.93
1019.33	2191.33
1019.49	2097.12
1019.64	2179.04
1019.80	2099.17
1019.96	2082.78
1020.12	2066.40
1020.27	2070.50
1020.43	2093.02
1020.59	2060.26
1020.74	2056.16
1020.90	2105.31
1021.06	2090.98
1021.22	2015.20
1021.37	2052.06
1021.53	1984.48
1021.69	2090.98
1021.84	1980.39
1022.00	2033.63
1022.16	2000.87
1022.31	2047.97
1022.47	1992.67
1022.63	2004.96
1022.79	1976.29
1022.94	2027.49
1023.10	2041.82
1023.26	2000.87
1023.41	1994.72
1023.57	1927.14
1023.73	1955.81
1023.88	1984.48
1024.04	1912.80
1024.20	1980.39
1024.35	2047.97
1024.51	1902.56
1024.67	1945.57
1024.82	2090.98
1024.98	1986.53
1025.14	2007.01
1025.29	1992.67
1025.45	1937.38
1025.61	1941.47
1025.76	1912.80
1025.92	1920.99
1026.08	1984.48
1026.23	1910.75
1026.39	2047.97
1026.55	1904.61
1026.70	1896.42
1026.86	2002.91
1027.02	1955.81
1027.17	1886.18
1027.33	1959.91
1027.48	1961.95
1027.64	1884.13
1027.80	1935.33
1027.95	1888.23
1028.11	1841.12
1028.27	1920.99
1028.42	1789.92
1028.58	1806.31
1028.73	1865.70
1028.89	1753.06
1029.05	1890.28
1029.20	1947.62
>>>>>End Processed Spectral Data<<<<<
