SpectraSuite Data File
++++++++++++++++++++++++++++++++++++
Date: Tue Jun 13 11:53:15 CEST 2017
User: INFO_000
Dark Spectrum Present: No
Reference Spectrum Present: No
Number of Sampled Component Spectra: 1
Spectrometers: USB4H00879
Integration Time (usec): 30000 (USB4H00879)
Spectra Averaged: 1 (USB4H00879)
Boxcar Smoothing: 0 (USB4H00879)
Correct for Electrical Dark: No (USB4H00879)
Strobe/Lamp Enabled: No (USB4H00879)
Correct for Detector Non-linearity: No (USB4H00879)
Correct for Stray Light: No (USB4H00879)
Number of Pixels in Processed Spectrum: 3648
>>>>>Begin Processed Spectral Data<<<<<
345.13	1388.52
345.34	1388.52
345.56	1388.52
345.78	1273.84
345.99	1341.42
346.21	1503.21
346.42	1437.67
346.64	1466.35
346.86	1568.74
347.07	1533.93
347.29	1499.11
347.50	1495.02
347.72	1458.15
347.94	1591.27
348.15	1495.02
348.37	1443.82
348.59	1533.93
348.80	1501.16
349.02	1568.74
349.23	1632.23
349.45	1648.61
349.67	1630.18
349.88	1523.69
350.10	1714.15
350.31	1634.28
350.53	1597.42
350.75	1632.23
350.96	1646.57
351.18	1591.27
351.39	1574.89
351.61	1603.56
351.82	1656.81
352.04	1660.90
352.26	1585.13
352.47	1634.28
352.69	1621.99
352.90	1574.89
353.12	1634.28
353.34	1566.70
353.55	1640.42
353.77	1619.94
353.98	1634.28
354.20	1562.60
354.41	1632.23
354.63	1632.23
354.85	1767.40
355.06	1695.72
355.28	1626.09
355.49	1652.71
355.71	1665.00
355.92	1562.60
356.14	1687.53
356.35	1628.14
356.57	1644.52
356.79	1656.81
357.00	1658.85
357.22	1679.33
357.43	1621.99
357.65	1685.48
357.86	1615.85
358.08	1593.32
358.29	1669.09
358.51	1660.90
358.72	1716.20
358.94	1701.86
359.16	1626.09
359.37	1628.14
359.59	1662.95
359.80	1679.33
360.02	1699.81
360.23	1640.42
360.45	1746.92
360.66	1673.19
360.88	1595.37
361.09	1726.44
361.31	1724.39
361.52	1609.70
361.74	1720.29
361.95	1695.72
362.17	1671.14
362.38	1734.63
362.60	1781.73
362.81	1705.96
363.03	1705.96
363.24	1722.34
363.46	1710.05
363.67	1757.16
363.89	1740.77
364.10	1748.97
364.32	1693.67
364.53	1724.39
364.75	1628.14
364.96	1822.69
365.18	1759.21
365.39	1646.57
365.61	1642.47
365.82	1748.97
366.04	1738.73
366.25	1732.58
366.47	1804.26
366.68	1675.24
366.90	1636.33
367.11	1738.73
367.33	1806.31
367.54	1732.58
367.76	1699.81
367.97	1720.29
368.19	1789.92
368.40	1783.78
368.62	1734.63
368.83	1742.82
369.05	1708.01
369.26	1779.68
369.48	1654.76
369.69	1781.73
369.91	1794.02
370.12	1843.17
370.33	1857.51
370.55	1785.83
370.76	1839.08
370.98	1814.50
371.19	1740.77
371.41	1732.58
371.62	1736.68
371.84	1767.40
372.05	1890.28
372.27	1888.23
372.48	1810.40
372.69	1791.97
372.91	1859.56
373.12	1814.50
373.34	1802.21
373.55	1851.36
373.77	1875.94
373.98	1880.04
374.20	1832.93
374.41	1918.95
374.62	1863.65
374.84	1791.97
375.05	1937.38
375.27	1863.65
375.48	1933.28
375.70	1894.37
375.91	1810.40
376.12	1953.76
376.34	1900.52
376.55	1931.23
376.77	1968.10
376.98	1908.71
377.19	1931.23
377.41	1875.94
377.62	1923.04
377.84	1914.85
378.05	1949.67
378.27	1875.94
378.48	1949.67
378.69	2115.55
378.91	1994.72
379.12	1937.38
379.34	1931.23
379.55	1931.23
379.76	1978.34
379.98	1976.29
380.19	1927.14
380.41	1978.34
380.62	1912.80
380.83	1974.24
381.05	1906.66
381.26	2052.06
381.47	1925.09
381.69	2009.06
381.90	2033.63
382.12	2009.06
382.33	1978.34
382.54	2056.16
382.76	2078.69
382.97	2041.82
383.19	1980.39
383.40	2043.87
383.61	2070.50
383.83	2021.35
384.04	2060.26
384.25	2105.31
384.47	2050.02
384.68	2093.02
384.89	2152.42
385.11	2082.78
385.32	2084.83
385.54	2062.30
385.75	2068.45
385.96	2099.17
386.18	2138.08
386.39	2074.59
386.60	2154.46
386.82	2170.85
387.03	2168.80
387.24	2142.18
387.46	2093.02
387.67	2209.76
387.88	2160.61
388.10	2222.05
388.31	2191.33
388.52	2138.08
388.74	2195.42
388.95	2195.42
389.16	2226.14
389.38	2211.81
389.59	2263.01
389.80	2291.68
390.02	2254.81
390.23	2273.25
390.44	2306.01
390.66	2275.29
390.87	2271.20
391.08	2279.39
391.30	2301.92
391.51	2238.43
391.72	2256.86
391.94	2238.43
392.15	2371.55
392.36	2389.98
392.58	2246.62
392.79	2318.30
393.00	2328.54
393.22	2359.26
393.43	2400.22
393.64	2383.84
393.85	2478.04
394.07	2404.32
394.28	2426.84
394.49	2465.75
394.71	2461.66
394.92	2459.61
395.13	2443.23
395.35	2435.03
395.56	2426.84
395.77	2430.94
395.98	2510.81
396.20	2422.75
396.41	2506.71
396.62	2545.63
396.84	2523.10
397.05	2469.85
397.26	2490.33
397.47	2619.35
397.69	2535.39
397.90	2760.66
398.11	2602.97
398.32	2607.06
398.54	2516.95
398.75	2484.19
398.96	2699.22
399.18	2637.78
399.39	2596.82
399.60	2549.72
399.81	2643.93
400.03	2629.59
400.24	2799.57
400.45	2676.70
400.66	2740.18
400.88	2709.46
401.09	2746.33
401.30	2717.65
401.51	2717.65
401.73	2775.00
401.94	2748.37
402.15	2768.85
402.36	2805.72
402.58	2799.57
402.79	2768.85
403.00	2797.53
403.21	2736.09
403.43	2840.53
403.64	2858.96
403.85	2762.71
404.06	2887.64
404.27	2824.15
404.49	2836.44
404.70	2897.88
404.91	2869.20
405.12	2881.49
405.34	2803.67
405.55	3057.62
405.76	2904.02
405.97	2977.75
406.19	2967.51
406.40	2924.50
406.61	3010.51
406.82	2934.74
407.03	2924.50
407.25	2961.36
407.46	3014.61
407.67	3022.80
407.88	2983.89
408.09	2996.18
408.31	3071.95
408.52	3080.14
408.73	2967.51
408.94	3004.37
409.15	3090.38
409.37	3020.75
409.58	3096.53
409.79	3039.19
410.00	3168.21
410.21	3164.11
410.43	3166.16
410.64	3102.67
410.85	3033.04
411.06	3205.07
411.27	3078.10
411.48	3059.67
411.70	3225.55
411.91	3176.40
412.12	3229.65
412.33	3143.63
412.54	3303.37
412.76	3200.98
412.97	3162.06
413.18	3209.17
413.39	3262.41
413.60	3256.27
413.81	3256.27
414.03	3291.09
414.24	3418.06
414.45	3311.57
414.66	3241.93
414.87	3430.35
415.08	3397.58
415.30	3420.11
415.51	3432.40
415.72	3270.61
415.93	3289.04
416.14	3346.38
416.35	3321.81
416.56	3430.35
416.78	3434.44
416.99	3489.74
417.20	3569.61
417.41	3585.99
417.62	3469.26
417.83	3497.93
418.04	3499.98
418.26	3463.12
418.47	3547.08
418.68	3579.85
418.89	3633.10
419.10	3600.33
419.31	3545.03
419.52	3672.01
419.73	3631.05
419.95	3772.36
420.16	3526.60
420.37	3669.96
420.58	3721.16
420.79	3545.03
421.00	3592.14
421.21	3618.76
421.42	3598.28
421.63	3772.36
421.85	3706.82
422.06	3911.62
422.27	3786.69
422.48	3872.71
422.69	3925.96
422.90	3858.37
423.11	3831.75
423.32	3973.06
423.53	3930.05
423.75	3938.24
423.96	4036.55
424.17	3868.61
424.38	4034.50
424.59	4020.16
424.80	4083.65
425.01	4116.42
425.22	4059.07
425.43	4036.55
425.64	4233.15
425.85	4001.73
426.06	4147.14
426.28	4024.26
426.49	4216.77
426.70	4042.69
426.91	4177.86
427.12	4052.93
427.33	4091.84
427.54	4018.11
427.75	4390.84
427.96	4284.35
428.17	4331.45
428.38	4351.93
428.59	4378.56
428.80	4358.08
429.01	4267.97
429.23	4437.95
429.44	4589.50
429.65	4450.24
429.86	4464.57
430.07	4423.61
430.28	4462.52
430.49	4671.42
430.70	4655.03
430.91	4593.59
431.12	4599.74
431.33	4700.09
431.54	4581.31
431.75	4794.29
431.96	4687.80
432.17	4519.87
432.38	4710.33
432.59	4816.82
432.80	4825.01
433.01	4732.86
433.22	4954.04
433.43	4712.38
433.64	4777.91
433.85	4902.84
434.06	4898.74
434.27	4843.45
434.49	4904.89
434.70	5013.43
434.91	4997.04
435.12	4927.41
435.33	4992.95
435.54	5162.93
435.75	4947.89
435.96	5027.76
436.17	4878.26
436.38	5097.39
436.59	5164.98
436.80	5042.10
437.01	5318.57
437.22	5310.38
437.43	5072.82
437.64	5126.07
437.85	5224.37
438.06	5351.34
438.27	5195.70
438.48	5187.50
438.69	5347.25
438.90	5386.16
439.11	5302.19
439.32	5398.45
439.53	5359.53
439.74	5283.76
439.95	5482.41
440.16	5392.30
440.37	5377.97
440.57	5457.84
440.78	5408.69
440.99	5453.74
441.20	5527.47
441.41	5451.69
441.62	5633.96
441.83	5459.88
442.04	5590.95
442.25	5638.06
442.46	5545.90
442.67	5801.90
442.88	5908.39
443.09	5500.84
443.30	5709.74
443.51	5633.96
443.72	5963.68
443.93	5689.26
444.14	5941.16
444.35	5799.85
444.56	5883.81
444.77	5865.38
444.98	5812.14
445.19	5849.00
445.40	5828.52
445.61	5949.35
445.81	6018.98
446.02	6053.80
446.23	5846.95
446.44	5724.07
446.65	6076.32
446.86	6029.22
447.07	6035.36
447.28	6297.50
447.49	6127.52
447.70	6070.18
447.91	6141.86
448.12	6197.15
448.33	6256.54
448.54	6260.64
448.74	6117.28
448.95	6293.41
449.16	6424.48
449.37	6401.95
449.58	6264.74
449.79	6512.54
450.00	6215.59
450.21	6221.73
450.42	6619.04
450.63	6483.87
450.84	6434.72
451.05	6461.34
451.25	6518.68
451.46	6330.27
451.67	6647.71
451.88	6725.53
452.09	6717.34
452.30	6623.13
452.51	6631.32
452.72	6750.10
452.93	6848.41
453.13	6758.30
453.34	6596.51
453.55	6664.09
453.76	6746.01
453.97	7196.56
454.18	6842.26
454.39	7004.05
454.60	7110.55
454.81	6969.24
455.01	7065.49
455.22	6975.38
455.43	7085.97
455.64	7141.27
455.85	7196.56
456.06	7327.63
456.27	7231.38
456.48	7038.87
456.68	7313.30
456.89	7141.27
457.10	7526.29
457.31	7544.72
457.52	7354.26
457.73	7325.58
457.94	7829.38
458.14	7606.16
458.35	7792.52
458.56	7577.48
458.77	7350.16
458.98	7837.58
459.19	7612.30
459.39	7874.44
459.60	7804.81
459.81	7909.26
460.02	7892.87
460.23	7733.13
460.44	8097.67
460.65	8148.87
460.85	8050.57
461.06	7987.08
461.27	7939.97
461.48	8245.12
461.69	8374.14
461.89	7970.69
462.10	8238.98
462.31	8236.93
462.52	8255.36
462.73	8396.67
462.94	8411.01
463.14	8411.01
463.35	8462.21
463.56	8777.59
463.77	8568.70
463.98	8411.01
464.18	8664.96
464.39	8533.89
464.60	8853.37
464.81	9113.46
465.02	8798.07
465.23	9082.74
465.43	9006.97
465.64	9146.23
465.85	8828.79
466.06	9058.17
466.27	9213.81
466.47	9222.00
466.68	9215.86
466.89	9420.66
467.10	9424.75
467.30	9256.82
467.51	9430.90
467.72	9537.39
467.93	9359.22
468.14	9457.52
468.34	9713.52
468.55	9600.88
468.76	9686.89
468.97	9727.85
469.17	9889.64
469.38	9789.29
469.59	10168.16
469.80	9684.84
470.01	10020.71
470.21	10133.35
470.42	10407.78
470.63	10409.83
470.84	10235.75
471.04	10332.00
471.25	10479.46
471.46	10194.79
471.67	10719.07
471.87	10512.22
472.08	10854.23
472.29	10749.79
472.50	10604.38
472.70	10626.91
472.91	10899.29
473.12	10975.06
473.33	11136.85
473.53	11097.94
473.74	11161.43
473.95	11353.94
474.16	11525.97
474.36	11505.49
474.57	11622.22
474.78	11687.76
474.99	11513.68
475.19	11362.13
475.40	11751.24
475.61	11900.75
475.81	11956.04
476.02	12169.03
476.23	12017.48
476.44	12220.23
476.64	12054.34
476.85	12263.24
477.06	12187.46
477.27	12502.85
477.47	12695.36
477.68	12617.54
477.89	12638.02
478.09	13109.05
478.30	12912.44
478.51	12754.75
478.71	13117.24
478.92	13195.06
479.13	12980.03
479.34	13541.17
479.54	13610.80
479.75	13266.74
479.96	13553.46
480.16	13584.18
480.37	13735.73
480.58	13635.38
480.78	13717.29
480.99	13889.32
481.20	14036.78
481.41	14165.80
481.61	14219.05
481.82	14214.95
482.03	14176.04
482.23	14456.61
482.44	14567.20
482.65	14591.78
482.85	14683.94
483.06	14550.82
483.27	14868.25
483.47	14784.29
483.68	14954.27
483.89	14999.32
484.09	15046.43
484.30	15083.29
484.51	15410.96
484.71	15496.98
484.92	15363.86
485.13	15539.99
485.33	15656.72
485.54	15523.60
485.75	15906.57
485.95	15800.08
486.16	15998.73
486.37	15847.18
486.57	15836.94
486.78	16144.14
486.98	16154.38
487.19	16187.14
487.40	16541.44
487.60	16193.29
487.81	16862.97
488.02	16631.55
488.22	16674.56
488.43	16764.67
488.64	16842.50
488.84	17032.96
489.05	17231.61
489.25	17243.90
489.46	17252.09
489.67	17143.55
489.87	17084.16
490.08	17407.73
490.29	17247.99
490.49	17665.78
490.70	17524.47
490.90	17641.20
491.11	17796.85
491.32	17819.38
491.52	17932.01
491.73	17868.53
491.94	17991.41
492.14	18122.48
492.35	18175.72
492.55	18194.15
492.76	18470.63
492.97	18566.88
493.17	18536.17
493.38	18597.60
493.58	19154.65
493.79	18964.19
494.00	18505.45
494.20	18851.55
494.41	19003.10
494.61	19009.25
494.82	19095.26
495.02	19107.55
495.23	19199.71
495.44	19089.12
495.64	19314.39
495.85	19615.44
496.05	19746.51
496.26	19463.90
496.47	19846.87
496.67	19732.18
496.88	19715.80
497.08	19695.32
497.29	20047.57
497.49	19883.73
497.70	19996.37
497.91	20268.75
498.11	20076.24
498.32	20274.89
498.52	20283.08
498.73	20217.55
498.93	20713.16
499.14	20586.18
499.34	20428.49
499.55	20788.93
499.76	20774.60
499.96	20913.86
500.17	20707.01
500.37	20827.84
500.58	20823.75
500.78	20903.62
500.99	21229.24
501.19	21262.01
501.40	21034.69
501.60	21249.72
501.81	21376.70
502.02	21251.77
502.22	21206.72
502.43	21528.25
502.63	21671.61
502.84	21601.97
503.04	21544.63
503.25	21851.83
503.45	21753.52
503.66	21917.36
503.86	21720.76
504.07	21946.03
504.27	21982.90
504.48	22415.02
504.68	21982.90
504.89	22281.90
505.09	22171.31
505.30	22240.94
505.50	22357.67
505.71	22470.31
505.91	22453.93
506.12	22326.96
506.32	22556.33
506.53	22494.89
506.73	22369.96
506.94	22501.03
507.14	22621.86
507.35	22781.60
507.55	22769.32
507.76	23049.89
507.96	23074.46
508.17	22681.25
508.37	22886.05
508.58	23053.98
508.78	22978.21
508.99	23127.71
509.19	23250.59
509.40	23164.57
509.60	23174.81
509.81	23035.55
510.01	23406.23
510.22	23365.28
510.42	23332.51
510.63	23465.63
510.83	23393.95
511.04	23596.70
511.24	23543.45
511.44	23383.71
511.65	23537.30
511.85	23629.46
512.06	23682.71
512.26	24024.72
512.47	23873.17
512.67	23715.48
512.88	23985.81
513.08	23774.87
513.29	24010.39
513.49	23961.23
513.69	23989.91
513.90	24104.59
514.10	24159.89
514.31	24096.40
514.51	24112.78
514.72	24252.05
514.92	24139.41
515.13	24446.60
515.33	24309.39
515.53	24419.98
515.74	24450.70
515.94	24866.44
516.15	24526.47
516.35	24583.82
516.56	24606.34
516.76	24495.75
516.96	24614.54
517.17	24815.24
517.37	24673.93
517.58	24596.10
517.78	24653.45
517.99	24657.54
518.19	24999.55
518.39	25110.14
518.60	25091.71
518.80	24979.07
519.01	25179.78
519.21	25091.71
519.41	25140.86
519.62	24985.22
519.82	25228.93
520.03	25454.20
520.23	25243.26
520.43	25511.55
520.64	25726.58
520.84	25736.82
521.05	25337.47
521.25	25888.37
521.45	25685.62
521.66	25693.82
521.86	25841.27
522.07	25878.13
522.27	25945.72
522.47	25796.21
522.68	26029.68
522.88	25992.82
523.08	26107.51
523.29	26185.33
523.49	25994.87
523.70	26207.86
523.90	26250.86
524.10	26291.82
524.31	26467.95
524.51	26236.53
524.71	26525.29
524.92	26451.56
525.12	26969.70
525.33	26416.75
525.53	26961.51
525.73	27133.54
525.94	26875.49
526.14	26836.58
526.34	27170.40
526.55	27123.30
526.75	27131.49
526.95	27391.58
527.16	26975.84
527.36	27336.29
527.56	27477.60
527.77	27190.88
527.97	27432.54
528.17	27598.43
528.38	27803.22
528.58	27772.50
528.78	27895.38
528.99	27860.57
529.19	27905.62
529.39	27545.18
529.60	27801.18
529.80	27919.96
530.00	27786.84
530.21	27922.01
530.41	28288.59
530.61	28268.11
530.82	28362.32
531.02	28382.80
531.22	28134.99
531.43	28425.81
531.63	28587.60
531.83	28780.10
532.04	29005.38
532.24	28378.70
532.44	28773.96
532.64	28823.11
532.85	29050.44
533.05	28765.77
533.25	28939.85
533.46	29394.50
533.66	29386.30
533.86	29072.96
534.07	29150.79
534.27	29173.31
534.47	29189.70
534.67	29396.54
534.88	29754.94
535.08	29836.86
535.28	30029.37
535.49	29945.40
535.69	30088.76
535.89	29824.57
536.09	29740.60
536.30	30266.93
536.50	30068.28
536.70	30125.62
536.91	30189.11
537.11	30328.37
537.31	30490.16
537.51	30314.03
537.72	30721.58
537.92	30600.75
538.12	30506.54
538.32	30596.65
538.53	30918.18
538.73	30707.24
538.93	30553.65
539.13	30709.29
539.34	30834.22
539.54	30748.20
539.74	31112.74
539.94	30866.98
540.15	30846.51
540.35	31233.57
540.55	30758.44
540.75	30942.76
540.96	31534.62
541.16	31292.96
541.36	31157.80
541.56	31342.11
541.77	31565.34
541.97	31405.60
542.17	31276.58
542.37	31739.42
542.58	31542.81
542.78	31481.38
542.98	31444.51
543.18	31397.41
543.38	32163.35
543.59	31925.78
543.79	31897.11
543.99	31782.43
544.19	32114.20
544.40	31702.56
544.60	32245.27
544.80	32275.99
545.00	31872.54
545.20	32587.28
545.41	32065.05
545.61	32265.75
545.81	32562.70
546.01	32296.47
546.21	32015.90
546.42	32077.33
546.62	32648.72
546.82	32187.92
547.02	32482.83
547.22	32382.48
547.43	32341.52
547.63	32448.02
547.83	32521.74
548.03	32132.63
548.23	32607.76
548.44	32624.14
548.64	33068.55
548.84	32572.94
549.04	32738.83
549.24	32484.88
549.45	32880.14
549.65	33062.41
549.85	32929.29
550.05	33005.06
550.25	32941.58
550.45	33207.81
550.66	33156.61
550.86	32689.68
551.06	33340.93
551.26	33062.41
551.46	32982.54
551.66	33490.43
551.87	33109.51
552.07	33347.08
552.27	33048.07
552.47	33246.72
552.67	33289.73
552.87	33142.28
553.07	33572.35
553.28	32894.47
553.48	33267.20
553.68	33377.79
553.88	33723.90
554.08	33500.67
554.28	33324.55
554.48	33529.34
554.69	33572.35
554.89	33224.20
555.09	33777.15
555.29	33404.42
555.49	33553.92
555.69	33500.67
555.89	33416.71
556.10	33443.33
556.30	33496.58
556.50	33900.03
556.70	33547.78
556.90	33783.29
557.10	33897.98
557.30	33355.27
557.50	33877.50
557.70	33701.37
557.91	33877.50
558.11	33797.63
558.31	33940.99
558.51	33748.48
558.71	34053.62
558.91	33992.19
559.11	34221.56
559.31	33603.07
559.51	33543.68
559.72	33963.51
559.92	33668.61
560.12	33762.81
560.32	33940.99
560.52	33736.19
560.72	33746.43
560.92	33983.99
561.12	33760.76
561.32	34246.13
561.52	33900.03
561.72	34174.45
561.93	34129.40
562.13	34244.09
562.33	33547.78
562.53	34092.54
562.73	34151.93
562.93	34070.01
563.13	34092.54
563.33	33959.42
563.53	33867.26
563.73	34076.15
563.93	33916.41
564.13	34291.19
564.33	34397.68
564.53	34143.74
564.74	34356.72
564.94	34242.04
565.14	34117.11
565.34	34315.76
565.54	34137.59
565.74	34409.97
565.94	34303.48
566.14	34248.18
566.34	34215.41
566.54	34598.38
566.74	34098.68
566.94	34293.24
567.14	34661.87
567.34	34387.44
567.54	34729.45
567.74	34055.67
567.94	34221.56
568.14	34721.26
568.34	34387.44
568.54	34409.97
568.74	34590.19
568.94	34547.18
569.14	34524.66
569.34	34201.08
569.54	35132.90
569.75	34555.38
569.95	34604.53
570.15	34739.69
570.35	34878.96
570.55	34516.47
570.75	34346.48
570.95	34608.62
571.15	34813.42
571.35	34620.91
571.55	35001.83
571.75	34518.51
571.95	34461.17
572.15	34790.89
572.35	34711.02
572.55	34903.53
572.75	34543.09
572.95	34919.92
573.15	34772.46
573.35	34987.50
573.55	34690.54
573.75	34915.82
573.95	34625.01
574.15	34575.86
574.35	34823.66
574.55	34919.92
574.75	34774.51
574.95	34919.92
575.15	34739.69
575.34	34870.76
575.54	35075.56
575.74	35315.17
575.94	34932.20
576.14	35159.53
576.34	35169.77
576.54	35108.33
576.74	35073.51
576.94	35235.30
577.14	35065.32
577.34	35077.61
577.54	34715.12
577.74	35114.47
577.94	35304.93
578.14	35165.67
578.34	35294.69
578.54	34840.04
578.74	35409.38
578.94	35417.57
579.14	35198.44
579.34	35640.80
579.54	35374.56
579.74	35839.45
579.94	35239.40
580.13	35472.87
580.33	35474.91
580.53	35354.08
580.73	35378.66
580.93	35292.65
581.13	35456.48
581.33	35565.03
581.53	35745.25
581.73	35825.12
581.93	35759.58
582.13	35628.51
582.33	35579.36
582.53	35788.25
582.73	35939.80
582.92	35321.32
583.12	35366.37
583.32	35915.23
583.52	35560.93
583.72	35935.71
583.92	35644.90
584.12	35739.10
584.32	35993.05
584.52	36154.84
584.72	35745.25
584.92	36099.55
585.11	35995.10
585.31	35698.14
585.51	36212.18
585.71	36052.44
585.91	36193.75
586.11	36308.44
586.31	35706.34
586.51	36079.07
586.71	36199.90
586.91	36314.58
587.10	36330.97
587.30	36191.70
587.50	36218.33
587.70	36347.35
587.90	36570.58
588.10	36193.75
588.30	36050.39
588.50	36521.43
588.69	36541.91
588.89	36060.63
589.09	36193.75
589.29	36380.12
589.49	36816.33
589.69	36154.84
589.89	36222.42
590.08	36599.25
590.28	36306.39
590.48	36412.88
590.68	36617.68
590.88	36732.37
591.08	36496.85
591.28	36715.98
591.47	36976.08
591.67	36515.28
591.87	36404.69
592.07	36652.50
592.27	36586.96
592.47	36746.70
592.67	36693.46
592.86	36541.91
593.06	36390.36
593.26	36738.51
593.46	36337.11
593.66	36603.35
593.86	36894.16
594.05	36693.46
594.25	36621.78
594.45	36799.95
594.65	36503.00
594.85	36533.71
595.05	36941.26
595.24	36924.88
595.44	36406.74
595.64	36605.39
595.84	36697.55
596.04	36689.36
596.23	36953.55
596.43	36718.03
596.63	36775.37
596.83	36906.44
597.03	36734.42
597.22	37244.36
597.42	36828.62
597.62	36918.73
597.82	36771.28
598.02	37162.44
598.21	37078.47
598.41	37094.86
598.61	36959.69
598.81	37195.21
599.01	36808.14
599.20	37207.50
599.40	37248.46
599.60	37004.75
599.80	37268.94
600.00	37273.03
600.19	37645.76
600.39	37127.63
600.59	37301.70
600.79	37205.45
600.98	37375.43
601.18	37252.55
601.38	37201.35
601.58	37443.01
601.78	37582.27
601.97	37449.16
602.17	37754.30
602.37	37445.06
602.57	37385.67
602.76	37379.53
602.96	37248.46
603.16	37660.10
603.36	37330.37
603.55	37647.81
603.75	37379.53
603.95	37529.03
604.15	37744.06
604.34	37111.24
604.54	37959.10
604.74	37307.85
604.94	37686.72
605.13	37635.52
605.33	37746.11
605.53	37737.92
605.73	37821.89
605.92	37592.51
606.12	37619.14
606.32	37985.72
606.52	37584.32
606.71	37723.58
606.91	38323.64
607.11	37617.09
607.30	37721.54
607.50	37848.51
607.70	37961.15
607.90	37561.79
608.09	37682.62
608.29	37877.18
608.49	37549.51
608.68	37907.90
608.88	37922.24
609.08	37885.37
609.28	37864.89
609.47	37797.31
609.67	38069.69
609.87	37789.12
610.06	38221.24
610.26	37641.67
610.46	37670.34
610.66	37969.34
610.85	37928.38
611.05	37821.89
611.25	37608.90
611.44	37793.22
611.64	37998.01
611.84	37557.70
612.03	37916.09
612.23	37903.81
612.43	38335.93
612.62	37975.48
612.82	37916.09
613.02	38000.06
613.21	37645.76
613.41	37889.47
613.61	38038.97
613.80	37633.47
614.00	37871.04
614.20	37926.33
614.39	37821.89
614.59	37594.56
614.79	37742.02
614.98	37572.03
615.18	37369.29
615.38	38045.12
615.57	37285.32
615.77	37705.15
615.97	37668.29
616.16	37836.22
616.36	37619.14
616.56	37600.71
616.75	37537.22
616.95	37336.52
617.15	37469.64
617.34	37785.02
617.54	37445.06
617.74	37772.74
617.93	37553.60
618.13	37535.17
618.32	37483.97
618.52	37342.66
618.72	37383.62
618.91	37561.79
619.11	37682.62
619.31	37537.22
619.50	37440.96
619.70	36820.43
619.90	37320.13
620.09	37303.75
620.29	37725.63
620.48	37408.20
620.68	37643.71
620.88	37074.38
621.07	37217.74
621.27	37645.76
621.46	36916.68
621.66	37287.37
621.86	37432.77
622.05	37072.33
622.25	37307.85
622.44	37025.23
622.64	37017.04
622.84	37131.72
623.03	37361.09
623.23	37121.48
623.42	37266.89
623.62	36871.63
623.82	37006.80
624.01	37166.54
624.21	37049.80
624.40	36951.50
624.60	37096.91
624.80	36836.81
624.99	37133.77
625.19	36482.52
625.38	36892.11
625.58	36924.88
625.77	36931.02
625.97	36699.60
626.17	36353.49
626.36	36488.66
626.56	37006.80
626.75	36281.81
626.95	36873.68
627.14	36625.87
627.34	37023.18
627.54	36613.59
627.73	36664.78
627.93	36879.82
628.12	36627.92
628.32	36666.83
628.51	36840.91
628.71	36597.20
628.90	36652.50
629.10	36300.25
629.30	36722.13
629.49	36466.13
629.69	36208.09
629.88	36449.75
630.08	36586.96
630.27	36787.66
630.47	36738.51
630.66	36550.10
630.86	36525.52
631.05	36402.64
631.25	36509.14
631.44	36589.01
631.64	36693.46
631.84	36148.70
632.03	36691.41
632.23	36316.63
632.42	36511.19
632.62	36175.32
632.81	35876.32
633.01	36416.98
633.20	36560.34
633.40	35988.95
633.59	36707.79
633.79	36105.69
633.98	36472.28
634.18	36529.62
634.37	36111.83
634.57	36152.79
634.76	36802.00
634.96	36337.11
635.15	36324.82
635.35	36312.53
635.54	36173.27
635.74	36572.63
635.93	36034.01
636.13	36447.70
636.32	36529.62
636.52	35933.66
636.71	36318.68
636.91	36154.84
637.10	36124.12
637.30	35775.97
637.49	36247.00
637.69	36111.83
637.88	36138.46
638.08	36009.43
638.27	36378.07
638.46	35984.86
638.66	35945.95
638.85	36005.34
639.05	36130.26
639.24	36126.17
639.44	35544.55
639.63	36052.44
639.83	36079.07
640.02	36040.15
640.22	35948.00
640.41	36240.86
640.61	35677.66
640.80	36494.80
640.99	35829.21
641.19	36097.50
641.38	36013.53
641.58	36015.58
641.77	36085.21
641.97	36003.29
642.16	35778.01
642.36	36421.08
642.55	36087.26
642.74	35739.10
642.94	36337.11
643.13	35558.88
643.33	36505.04
643.52	36158.94
643.72	35802.59
643.91	36199.90
644.10	35716.58
644.30	36003.29
644.49	35935.71
644.69	36203.99
644.88	36189.66
645.08	35861.98
645.27	36070.87
645.46	35587.55
645.66	36175.32
645.85	35452.39
646.05	35745.25
646.24	36081.11
646.43	36083.16
646.63	35900.89
646.82	36013.53
647.02	35939.80
647.21	35640.80
647.40	35458.53
647.60	35796.45
647.79	36031.96
647.99	35804.64
648.18	35878.36
648.37	36066.78
648.57	35771.87
648.76	35802.59
648.96	35384.80
649.15	35810.78
649.34	35866.08
649.54	35513.83
649.73	35587.55
649.92	35878.36
650.12	35415.52
650.31	35894.75
650.51	35685.86
650.70	35767.77
650.89	35722.72
651.09	36144.60
651.28	35608.03
651.47	35769.82
651.67	35706.34
651.86	35882.46
652.06	35698.14
652.25	35775.97
652.44	35931.61
652.64	35550.69
652.83	35603.94
653.02	35284.45
653.22	35436.00
653.41	35358.18
653.60	35409.38
653.80	35294.69
653.99	35266.02
654.18	35837.41
654.38	35483.11
654.57	35524.07
654.76	35542.50
654.96	35548.64
655.15	35698.14
655.34	35321.32
655.54	35263.97
655.73	35536.35
655.92	35300.84
656.12	35534.31
656.31	35618.27
656.50	35395.04
656.70	35593.70
656.89	35507.68
657.08	35384.80
657.28	35315.17
657.47	35409.38
657.66	35128.81
657.86	35108.33
658.05	35440.10
658.24	35397.09
658.43	35057.13
658.63	35593.70
658.82	35186.15
659.01	35194.34
659.21	35155.43
659.40	35192.30
659.59	35210.73
659.79	35489.25
659.98	35411.43
660.17	35284.45
660.36	35177.96
660.56	35128.81
660.75	35087.85
660.94	35104.23
661.14	35134.95
661.33	35380.71
661.52	35163.62
661.71	35010.03
661.91	34960.87
662.10	35067.37
662.29	35202.53
662.49	35126.76
662.68	35079.66
662.87	35034.60
663.06	35270.12
663.26	34567.66
663.45	35243.49
663.64	35022.31
663.83	35374.56
664.03	35321.32
664.22	35028.46
664.41	35415.52
664.60	34983.40
664.80	34999.79
664.99	34614.77
665.18	35018.22
665.37	35005.93
665.57	34919.92
665.76	34977.26
665.95	34616.82
666.14	35022.31
666.34	34858.48
666.53	35020.27
666.72	34807.28
666.91	34784.75
667.11	34385.40
667.30	34713.07
667.49	34659.82
667.68	34452.98
667.87	34426.35
668.07	34702.83
668.26	34653.68
668.45	34700.78
668.64	34694.64
668.84	34930.16
669.03	34618.86
669.22	34608.62
669.41	34668.02
669.60	34393.59
669.80	34178.55
669.99	34452.98
670.18	34211.32
670.37	34500.08
670.57	34639.34
670.76	34180.60
670.95	34602.48
671.14	34346.48
671.33	33891.83
671.53	34674.16
671.72	34430.45
671.91	34174.45
672.10	34242.04
672.29	34174.45
672.48	34385.40
672.68	34426.35
672.87	34291.19
673.06	34010.62
673.25	33766.91
673.44	34043.38
673.64	34196.98
673.83	33949.18
674.02	33992.19
674.21	33873.40
674.40	34131.45
674.59	33297.92
674.79	33824.25
674.98	33627.65
675.17	34108.92
675.36	33918.46
675.55	33961.47
675.74	33908.22
675.94	33887.74
676.13	33654.27
676.32	33830.40
676.51	34135.54
676.70	34276.85
676.89	34110.97
677.08	33920.51
677.28	33693.18
677.47	33992.19
677.66	33926.65
677.85	34088.44
678.04	33664.51
678.23	34244.09
678.42	33836.54
678.62	33730.05
678.81	33578.50
679.00	33801.72
679.19	33707.52
679.38	33676.80
679.57	33617.41
679.76	33932.79
679.96	33797.63
680.15	33912.31
680.34	33291.78
680.53	33533.44
680.72	33388.03
680.91	33740.29
681.10	33240.58
681.29	33760.76
681.48	33277.44
681.68	33326.60
681.87	33375.75
682.06	33203.72
682.25	32921.10
682.44	33050.12
682.63	33265.16
682.82	33054.22
683.01	33074.70
683.20	32863.75
683.39	32978.44
683.59	32998.92
683.78	33158.66
683.97	33037.83
684.16	32986.63
684.35	32632.33
684.54	32843.27
684.73	32628.24
684.92	32732.68
685.11	32515.60
685.30	32783.88
685.49	32921.10
685.69	32982.54
685.88	32534.03
686.07	32632.33
686.26	32370.19
686.45	32624.14
686.64	32491.02
686.83	32693.77
687.02	32718.35
687.21	32349.71
687.40	32716.30
687.59	32484.88
687.78	32493.07
687.97	32603.66
688.16	32513.55
688.35	32515.60
688.54	32558.61
688.74	32427.54
688.93	32202.26
689.12	32007.70
689.31	32067.09
689.50	32290.32
689.69	32206.36
689.88	32159.25
690.07	32302.61
690.26	31835.67
690.45	32488.98
690.64	32189.97
690.83	31927.83
691.02	31827.48
691.21	32462.35
691.40	31733.28
691.59	31882.78
691.78	31886.87
691.97	32079.38
692.16	31737.37
692.35	31870.49
692.54	31694.36
692.73	31976.98
692.92	31868.44
693.11	31856.15
693.30	31700.51
693.49	31764.00
693.68	31440.42
693.87	31708.70
694.06	31305.25
694.25	31471.14
694.44	31610.40
694.63	31329.83
694.82	31536.67
695.01	31385.12
695.20	31129.12
695.39	31430.18
695.58	31256.10
695.77	31243.81
695.96	31321.63
696.15	31264.29
696.34	31184.42
696.53	31182.37
696.72	31096.36
696.91	31036.97
697.10	31249.96
697.29	30801.45
697.48	30942.76
697.67	30547.50
697.86	30938.66
698.05	31016.49
698.24	31030.82
698.43	30742.06
698.62	30756.39
698.81	30381.62
699.00	30959.14
699.19	30535.21
699.38	30979.62
699.57	30617.13
699.76	30733.87
699.95	30750.25
700.14	30805.55
700.32	30463.54
700.51	30635.56
700.70	30680.62
700.89	30621.23
701.08	30469.68
701.27	30586.41
701.46	30488.11
701.65	30027.32
701.84	30443.06
702.03	30193.20
702.22	30625.32
702.41	30197.30
702.60	30189.11
702.79	30211.64
702.98	30162.48
703.17	30234.16
703.35	30277.17
703.54	29828.66
703.73	30156.34
703.92	30324.27
704.11	30504.49
704.30	30094.90
704.49	30248.50
704.68	29955.64
704.87	29906.49
705.06	29750.84
705.25	29685.31
705.43	29738.55
705.62	30002.74
705.81	30037.56
706.00	29859.38
706.19	29531.71
706.38	29398.59
706.57	29619.77
706.76	29449.79
706.95	29587.00
707.14	29605.44
707.32	29517.37
707.51	29187.65
707.70	29443.65
707.89	29550.14
708.08	29427.26
708.27	29253.19
708.46	29402.69
708.65	29341.25
708.84	29173.31
709.02	29232.71
709.21	29079.11
709.40	29234.75
709.59	29212.23
709.78	28978.76
709.97	29290.05
710.16	28886.60
710.34	28739.15
710.53	29072.96
710.72	28935.75
710.91	28937.80
711.10	28868.17
711.29	28941.89
711.48	28937.80
711.66	28919.37
711.85	28479.05
712.04	28661.32
712.23	28579.40
712.42	28792.39
712.61	28474.96
712.80	28493.39
712.98	28472.91
713.17	28436.05
713.36	28229.20
713.55	28204.63
713.74	28532.30
713.93	28337.74
714.11	28286.54
714.30	28229.20
714.49	28079.70
714.68	28456.53
714.87	28290.64
715.06	28272.21
715.24	28247.63
715.43	28051.03
715.62	28003.92
715.81	28141.14
716.00	27866.71
716.18	27747.93
716.37	27852.38
716.56	27590.24
716.75	28055.12
716.94	27874.90
717.12	27985.49
717.31	27745.88
717.50	27651.67
717.69	27764.31
717.88	27891.29
718.06	27663.96
718.25	27737.69
718.44	27414.11
718.63	27604.57
718.82	27397.73
719.00	27536.99
719.19	27704.92
719.38	27354.72
719.57	27463.26
719.76	27407.97
719.94	26820.20
720.13	27209.31
720.32	27407.97
720.51	26988.13
720.69	26957.41
720.88	26994.28
721.07	26756.71
721.26	26828.39
721.44	26895.97
721.63	26945.12
721.82	26762.86
722.01	26773.10
722.20	26990.18
722.38	26732.14
722.57	26502.76
722.76	26730.09
722.95	26412.65
723.13	26474.09
723.32	26218.10
723.51	26279.54
723.70	26232.43
723.88	26484.33
724.07	26101.36
724.26	26197.62
724.44	26080.88
724.63	26308.21
724.82	26230.38
725.01	26205.81
725.19	26226.29
725.38	26031.73
725.57	26039.92
725.76	26203.76
725.94	25929.33
726.13	26052.21
726.32	25843.32
726.51	25884.28
726.69	26025.59
726.88	25964.15
727.07	25931.38
727.25	25800.31
727.44	25478.78
727.63	26015.35
727.82	25869.94
728.00	25534.07
728.19	25572.99
728.38	25865.85
728.56	25370.24
728.75	25642.62
728.94	25542.27
729.12	25656.95
729.31	25517.69
729.50	25476.73
729.69	25876.09
729.87	25732.73
730.06	25464.44
730.25	25855.61
730.43	25849.46
730.62	25558.65
730.81	25654.90
730.99	25644.66
731.18	25321.09
731.37	25800.31
731.55	25833.08
731.74	25335.42
731.93	25265.79
732.11	25667.19
732.30	25421.44
732.49	24979.07
732.67	25163.39
732.86	25181.82
733.05	25091.71
733.23	25116.29
733.42	25200.26
733.61	24874.63
733.79	25077.38
733.98	25276.03
734.17	25140.86
734.35	25155.20
734.54	24878.72
734.73	25206.40
734.91	25198.21
735.10	24917.64
735.29	25032.32
735.47	24755.85
735.66	24805.00
735.84	24983.17
736.03	24686.22
736.22	24829.57
736.40	24471.18
736.59	24704.65
736.78	24751.75
736.96	24723.08
737.15	24600.20
737.33	24589.96
737.52	24868.48
737.71	24606.34
737.89	24716.93
738.08	24151.70
738.27	24276.62
738.45	24776.33
738.64	24411.79
738.82	24184.46
739.01	24190.61
739.20	24555.15
739.38	24209.04
739.57	24577.67
739.75	24467.08
739.94	24133.26
740.13	24362.64
740.31	24290.96
740.50	24161.94
740.68	23953.04
740.87	24116.88
741.06	24186.51
741.24	23920.28
741.43	24194.70
741.61	24125.07
741.80	24000.15
741.99	23944.85
742.17	24004.24
742.36	24176.27
742.54	23967.38
742.73	23828.12
742.91	24139.41
743.10	23750.29
743.29	24123.02
743.47	23895.70
743.66	23973.52
743.84	23920.28
744.03	23889.56
744.21	23520.92
744.40	24069.78
744.59	23535.26
744.77	23461.53
744.96	23627.42
745.14	23656.09
745.33	23830.16
745.51	23545.50
745.70	23828.12
745.88	23551.64
746.07	23545.50
746.26	23244.45
746.44	23563.93
746.63	23285.40
746.81	23598.74
747.00	23207.58
747.18	23492.25
747.37	23490.20
747.55	23350.94
747.74	23666.33
747.92	23381.66
748.11	23244.45
748.29	23307.93
748.48	23346.84
748.66	23199.39
748.85	23246.49
749.03	23379.61
749.22	23359.13
749.41	22947.49
749.59	23586.46
749.78	23113.38
749.96	22800.04
750.15	23320.22
750.33	23232.16
750.52	22800.04
750.70	22873.76
750.89	22726.31
751.07	22845.09
751.26	22859.43
751.44	22775.46
751.63	22748.84
751.81	22599.34
752.00	22767.27
752.18	22890.15
752.37	23053.98
752.55	22494.89
752.74	22462.12
752.92	22597.29
753.10	22513.32
753.29	22724.26
753.47	22544.04
753.66	22023.86
753.84	22537.90
754.03	22415.02
754.21	22361.77
754.40	22404.78
754.58	22298.28
754.77	22662.82
754.95	22242.99
755.14	22369.96
755.32	22519.46
755.51	22107.82
755.69	22193.84
755.88	22040.24
756.06	22355.63
756.24	22251.18
756.43	22189.74
756.61	22152.88
756.80	21989.04
756.98	22177.45
757.17	21927.60
757.35	22275.76
757.54	21855.92
757.72	22378.15
757.90	21747.38
758.09	21837.49
758.27	22050.48
758.46	22062.77
758.64	21700.28
758.83	21843.63
759.01	21765.81
759.19	21726.90
759.38	21761.72
759.56	21898.93
759.75	21724.85
759.93	21577.40
760.12	21503.67
760.30	21608.12
760.48	21368.51
760.67	21632.69
760.85	21733.04
761.04	21767.86
761.22	21595.83
761.40	21481.14
761.59	21690.04
761.77	21491.38
761.96	21350.07
762.14	21434.04
762.32	21323.45
762.51	21462.71
762.69	21337.79
762.88	21479.10
763.06	21382.84
763.24	21196.48
763.43	21262.01
763.61	20987.58
763.80	21208.76
763.98	21276.35
764.16	21262.01
764.35	21214.91
764.53	20969.15
764.72	20936.38
764.90	21026.50
765.08	21087.93
765.27	20893.38
765.45	20799.17
765.63	20625.09
765.82	21065.41
766.00	20704.96
766.18	20944.58
766.37	20985.54
766.55	20993.73
766.74	20981.44
766.92	20532.93
767.10	20410.06
767.29	20704.96
767.47	20645.57
767.65	20584.13
767.84	20377.29
768.02	20827.84
768.20	20530.89
768.39	20356.81
768.57	20512.46
768.75	20313.80
768.94	20412.10
769.12	20367.05
769.30	20336.33
769.49	20195.02
769.67	20113.10
769.85	19863.25
770.04	20164.30
770.22	20178.64
770.40	20074.19
770.59	20195.02
770.77	20205.26
770.95	20164.30
771.14	20014.80
771.32	19898.06
771.50	19689.17
771.69	20090.57
771.87	19867.34
772.05	19887.82
772.24	19683.03
772.42	19748.56
772.60	19971.79
772.78	19820.24
772.97	19812.05
773.15	20016.85
773.33	19637.97
773.52	19822.29
773.70	19826.39
773.88	19789.52
774.07	19799.76
774.25	19775.19
774.43	19820.24
774.61	19865.30
774.80	19865.30
774.98	19838.67
775.16	19865.30
775.34	19781.33
775.53	19746.51
775.71	19617.49
775.89	19539.67
776.08	19654.36
776.26	19554.01
776.44	19883.73
776.62	19728.08
776.81	19594.96
776.99	19826.39
777.17	19769.04
777.35	19752.66
777.54	19990.22
777.72	20039.37
777.90	19689.17
778.08	19877.58
778.27	19881.68
778.45	20025.04
778.63	19885.78
778.81	19699.41
779.00	19996.37
779.18	19986.13
779.36	20016.85
779.54	19941.07
779.73	19697.36
779.91	19883.73
780.09	19945.17
780.27	20031.18
780.46	19703.51
780.64	19861.20
780.82	19709.65
781.00	19752.66
781.19	19697.36
781.37	19963.60
781.55	19912.40
781.73	20125.39
781.91	19824.34
782.10	19840.72
782.28	19990.22
782.46	20125.39
782.64	20043.47
782.82	19701.46
783.01	19977.94
783.19	19803.86
783.37	20145.87
783.55	19807.95
783.74	19963.60
783.92	19687.12
784.10	20088.53
784.28	19785.43
784.46	19775.19
784.64	19994.32
784.83	19599.06
785.01	19959.50
785.19	19832.53
785.37	19822.29
785.55	19955.41
785.74	19631.83
785.92	19807.95
786.10	19605.20
786.28	19531.48
786.46	19773.14
786.64	19697.36
786.83	19633.88
787.01	19625.68
787.19	19554.01
787.37	19904.21
787.55	19793.62
787.74	19463.90
787.92	19576.53
788.10	19384.02
788.28	19300.06
788.46	19394.26
788.64	19250.91
788.82	19605.20
789.01	19439.32
789.19	19463.90
789.37	19304.15
789.55	19408.60
789.73	19123.93
789.91	19103.45
790.09	19109.60
790.28	19105.50
790.46	18677.48
790.64	19195.61
790.82	19035.87
791.00	18869.98
791.18	18927.33
791.36	18728.67
791.55	19089.12
791.73	18996.96
791.91	18757.35
792.09	18728.67
792.27	18878.18
792.45	19211.99
792.63	18740.96
792.81	18736.87
793.00	18628.32
793.18	18347.75
793.36	18396.90
793.54	18505.45
793.72	18362.09
793.90	18378.47
794.08	18226.92
794.26	18558.69
794.44	18257.64
794.62	18095.85
794.81	18038.51
794.99	18255.59
795.17	18188.01
795.35	18015.98
795.53	18063.08
795.71	17866.48
795.89	17833.71
796.07	18140.91
796.25	18112.24
796.43	17950.45
796.61	17714.93
796.80	17735.41
796.98	17602.29
797.16	17975.02
797.34	17690.35
797.52	17315.58
797.70	17710.83
797.88	17524.47
798.06	17592.05
798.24	17624.82
798.42	17489.65
798.60	17245.94
798.78	17587.96
798.96	17342.20
799.14	17178.36
799.32	17368.82
799.51	17276.66
799.69	17301.24
799.87	17112.83
800.05	16963.33
800.23	17250.04
800.41	17088.25
800.59	16852.73
800.77	17026.81
800.95	16740.10
801.13	17043.20
801.31	16815.87
801.49	16922.37
801.67	16897.79
801.85	16811.78
802.03	16822.02
802.21	16705.28
802.39	16719.62
802.57	16508.68
802.75	16535.30
802.93	16629.51
803.11	16152.33
803.29	16383.75
803.47	16375.56
803.65	16537.35
803.83	16330.50
804.01	16217.86
804.19	15916.81
804.37	15949.58
804.55	16314.12
804.73	16004.88
804.91	16123.66
805.09	16160.52
805.27	16135.95
805.45	16074.51
805.63	16035.60
805.81	16137.99
805.99	16041.74
806.17	16178.95
806.35	16008.97
806.53	15783.70
806.71	15783.70
806.89	15605.52
807.07	15761.17
807.25	15685.39
807.43	15556.37
807.61	15795.98
807.79	15597.33
807.97	15621.91
808.15	15533.84
808.33	15718.16
808.51	15623.95
808.69	15433.49
808.87	15642.39
809.05	15429.40
809.23	15171.35
809.41	15384.34
809.59	15163.16
809.77	15308.57
809.95	15286.04
810.13	15224.60
810.31	15208.22
810.49	15234.84
810.67	15197.98
810.84	15062.81
811.02	14954.27
811.20	14921.50
811.38	14819.10
811.56	14741.28
811.74	14958.36
811.92	14925.60
812.10	14923.55
812.28	14767.90
812.46	14978.84
812.64	14853.92
812.82	14884.64
813.00	14673.70
813.18	14751.52
813.36	14589.73
813.53	14346.02
813.71	14663.46
813.89	14669.60
814.07	14550.82
814.25	14427.94
814.43	14407.46
814.61	14346.02
814.79	14511.91
814.97	14407.46
815.15	14466.85
815.33	14225.19
815.50	14366.50
815.68	14229.29
815.86	14266.15
816.04	14309.16
816.22	14343.97
816.40	14223.14
816.58	14149.42
816.76	14128.94
816.94	14014.25
817.11	13954.86
817.29	14001.96
817.47	13936.43
817.65	13758.25
817.83	14126.89
818.01	13686.58
818.19	13940.52
818.37	13588.27
818.54	13768.49
818.72	13672.24
818.90	13698.86
819.08	13813.55
819.26	13778.73
819.44	13836.08
819.62	13870.89
819.80	13811.50
819.97	13610.80
820.15	13461.30
820.33	13397.81
820.51	13580.08
820.69	13330.23
820.87	13397.81
821.05	13537.07
821.22	13403.96
821.40	13463.35
821.58	13367.09
821.76	13354.80
821.94	13356.85
822.12	13201.21
822.29	13496.11
822.47	13262.65
822.65	13154.10
822.83	13430.58
823.01	13166.39
823.19	13262.65
823.36	12932.92
823.54	12957.50
823.72	13094.71
823.90	13029.18
824.08	12889.92
824.25	12939.07
824.43	12904.25
824.61	12996.41
824.79	12740.41
824.97	12834.62
825.15	12955.45
825.32	13053.75
825.50	12881.72
825.68	12730.17
825.86	13133.62
826.04	13006.65
826.21	12668.73
826.39	12777.28
826.57	12764.99
826.75	12574.53
826.93	12484.42
827.10	12640.06
827.28	12721.98
827.46	12588.86
827.64	12631.87
827.81	12599.10
827.99	12683.07
828.17	12525.38
828.35	12488.51
828.53	12435.27
828.70	12396.35
828.88	12414.79
829.06	12619.58
829.24	12484.42
829.41	12496.71
829.59	12523.33
829.77	12316.48
829.95	12433.22
830.12	12277.57
830.30	12427.07
830.48	12300.10
830.66	12310.34
830.84	12277.57
831.01	12193.61
831.19	12193.61
831.37	11990.86
831.55	12089.16
831.72	12248.90
831.90	12025.67
832.08	12306.24
832.25	11886.41
832.43	12044.10
832.61	12185.41
832.79	12005.19
832.96	12070.73
833.14	12105.54
833.32	12132.17
833.50	11953.99
833.67	11974.47
833.85	12095.30
834.03	11808.59
834.20	11898.70
834.38	11679.57
834.56	11841.36
834.74	11751.24
834.91	11960.14
835.09	11847.50
835.27	11718.48
835.44	11900.75
835.62	11454.29
835.80	11538.26
835.98	11628.37
836.15	11577.17
836.33	11743.05
836.51	11585.36
836.68	11460.43
836.86	11652.94
837.04	11530.06
837.21	11648.85
837.39	11607.89
837.57	11609.93
837.75	11392.85
837.92	11286.36
838.10	11364.18
838.28	11065.18
838.45	11509.58
838.63	11267.92
838.81	11325.27
838.98	11190.10
839.16	11310.93
839.34	11378.51
839.51	11198.29
839.69	11067.22
839.87	11284.31
840.04	11130.71
840.22	11071.32
840.40	11278.16
840.57	11036.50
840.75	11345.75
840.93	11061.08
841.10	11140.95
841.28	11237.20
841.46	10913.63
841.63	11046.74
841.81	11214.68
841.98	10936.15
842.16	11022.17
842.34	11009.88
842.51	10954.58
842.69	11122.52
842.87	10930.01
843.04	11001.69
843.22	11040.60
843.40	10753.88
843.57	10913.63
843.75	11075.42
843.92	10778.46
844.10	10960.73
844.28	10858.33
844.45	10786.65
844.63	10655.58
844.81	10780.51
844.98	10811.23
845.16	10643.29
845.33	10975.06
845.51	10700.64
845.69	10729.31
845.86	10661.73
846.04	10600.29
846.21	10665.82
846.39	10682.20
846.57	10753.88
846.74	10534.75
846.92	10684.25
847.09	10489.70
847.27	10770.27
847.45	10602.33
847.62	10702.68
847.80	10465.12
847.97	10510.18
848.15	10375.01
848.32	10336.10
848.50	10442.59
848.68	10452.83
848.85	10583.90
849.03	10403.68
849.20	10504.03
849.38	10434.40
849.56	10585.95
849.73	10352.48
849.91	10188.64
850.08	10456.93
850.26	10346.34
850.43	10407.78
850.61	10168.16
850.78	10094.44
850.96	10151.78
851.14	10008.42
851.31	10252.13
851.49	10319.71
851.66	10190.69
851.84	10227.56
852.01	10200.93
852.19	10184.55
852.36	10049.38
852.54	10051.43
852.71	10119.01
852.89	10119.01
853.07	10190.69
853.24	9994.09
853.42	9992.04
853.59	10121.06
853.77	9946.98
853.94	9922.41
854.12	9914.22
854.29	9834.35
854.47	9936.74
854.64	9901.93
854.82	9906.02
854.99	9840.49
855.17	9852.78
855.34	9897.83
855.52	9820.01
855.69	10041.19
855.87	9967.46
856.04	9901.93
856.22	9987.94
856.39	9762.67
856.57	9846.63
856.74	9658.22
856.92	9772.91
857.09	9572.21
857.27	9711.47
857.44	9637.74
857.62	9809.77
857.79	9836.39
857.97	9506.67
858.14	9811.82
858.32	9455.47
858.49	9635.69
858.67	9580.40
858.84	9424.75
859.02	9492.34
859.19	9547.63
859.37	9369.46
859.54	9428.85
859.72	9670.51
859.89	9312.11
860.06	9471.86
860.24	9322.35
860.41	9334.64
860.59	9348.98
860.76	9246.58
860.94	9256.82
861.11	9418.61
861.29	9543.53
861.46	9357.17
861.64	9353.07
861.81	9357.17
861.98	9162.61
862.16	9447.28
862.33	9273.20
862.51	9092.98
862.68	9119.60
862.86	9246.58
863.03	9246.58
863.21	9273.20
863.38	9279.35
863.55	8902.52
863.73	9027.45
863.90	9117.56
864.08	9181.04
864.25	9209.72
864.43	9082.74
864.60	8884.09
864.77	8953.72
864.95	9006.97
865.12	8888.18
865.30	8963.96
865.47	9015.16
865.64	8869.75
865.82	8955.77
865.99	8959.86
866.17	8902.52
866.34	8974.20
866.51	8871.80
866.69	9084.79
866.86	8925.05
867.04	8730.49
867.21	8777.59
867.38	8800.12
867.56	8767.35
867.73	8644.48
867.91	8853.37
868.08	8736.63
868.25	8757.11
868.43	8724.35
868.60	8626.04
868.78	8671.10
868.95	8730.49
869.12	8644.48
869.30	8490.88
869.47	8662.91
869.64	8456.06
869.82	8535.93
869.99	8572.80
870.16	8411.01
870.34	8654.72
870.51	8525.69
870.69	8607.61
870.86	8236.93
871.03	8384.38
871.21	8443.78
871.38	8365.95
871.55	8378.24
871.73	8431.49
871.90	8302.47
872.07	8271.75
872.25	8255.36
872.42	8464.25
872.59	8202.11
872.77	8271.75
872.94	8044.42
873.11	8243.07
873.29	8327.04
873.46	8241.03
873.63	8136.58
873.81	8150.92
873.98	8109.96
874.15	7923.59
874.33	8077.19
874.50	8017.80
874.67	7888.78
874.85	8124.29
875.02	8062.85
875.19	7923.59
875.37	7905.16
875.54	8015.75
875.71	8048.52
875.88	7935.88
876.06	7892.87
876.23	7931.78
876.40	7759.75
876.58	7808.90
876.75	7765.90
876.92	7686.03
877.10	7899.02
877.27	7724.94
877.44	7759.75
877.61	7794.57
877.79	7831.43
877.96	7907.21
878.13	7497.61
878.31	7790.47
878.48	7595.92
878.65	7694.22
878.82	7524.24
879.00	7735.18
879.17	7499.66
879.34	7454.61
879.51	7593.87
879.69	7548.81
879.86	7565.20
880.03	7493.52
880.21	7497.61
880.38	7493.52
880.55	7634.83
880.72	7671.69
880.90	7536.52
881.07	7364.50
881.24	7464.85
881.41	7538.57
881.59	7462.80
881.76	7368.59
881.93	7294.86
882.10	7290.77
882.28	7387.02
882.45	7415.69
882.62	7395.22
882.79	7387.02
882.96	7094.16
883.14	7427.98
883.31	7219.09
883.48	7419.79
883.65	7344.02
883.83	7354.26
884.00	7231.38
884.17	7313.30
884.34	7225.23
884.51	7280.53
884.69	7239.57
884.86	7231.38
885.03	7321.49
885.20	7094.16
885.38	7028.63
885.55	7231.38
885.72	7214.99
885.89	7143.32
886.06	7131.03
886.24	7196.56
886.41	7141.27
886.58	7282.58
886.75	6969.24
886.92	7223.19
887.10	7184.27
887.27	7061.40
887.44	7165.84
887.61	7122.84
887.78	7106.45
887.95	7219.09
888.13	7016.34
888.30	7114.64
888.47	7012.24
888.64	7018.39
888.81	7032.72
888.99	6928.28
889.16	6891.41
889.33	6999.96
889.50	6905.75
889.67	6956.95
889.84	6821.78
890.01	6856.60
890.19	7071.64
890.36	7047.06
890.53	6860.70
890.70	6746.01
890.87	6711.19
891.04	6895.51
891.22	6754.20
891.39	6807.45
891.56	6799.26
891.73	6774.68
891.90	6780.82
892.07	6549.40
892.24	6725.53
892.42	6688.67
892.59	6707.10
892.76	6664.09
892.93	6705.05
893.10	6748.06
893.27	6637.47
893.44	6606.75
893.61	6578.08
893.79	6655.90
893.96	6694.81
894.13	6633.37
894.30	6623.13
894.47	6705.05
894.64	6655.90
894.81	6623.13
894.98	6600.60
895.15	6782.87
895.33	6559.64
895.50	6537.12
895.67	6588.32
895.84	6545.31
896.01	6401.95
896.18	6590.36
896.35	6684.57
896.52	6383.52
896.69	6449.05
896.86	6629.27
897.04	6606.75
897.21	6479.77
897.38	6371.23
897.55	6633.37
897.72	6594.46
897.89	6483.87
898.06	6541.21
898.23	6338.46
898.40	6481.82
898.57	6625.18
898.74	6537.12
898.91	6541.21
899.08	6498.20
899.26	6539.16
899.43	6573.98
899.60	6483.87
899.77	6465.44
899.94	6514.59
900.11	6328.22
900.28	6354.85
900.45	6393.76
900.62	6346.66
900.79	6391.71
900.96	6404.00
901.13	6268.83
901.30	6404.00
901.47	6219.68
901.64	6358.94
901.81	6266.78
901.98	6215.59
902.15	6416.29
902.32	6420.38
902.49	6375.33
902.66	6467.49
902.83	6262.69
903.01	6356.90
903.18	6631.32
903.35	6463.39
903.52	6295.46
903.69	6350.75
903.86	6447.01
904.03	6444.96
904.20	6524.83
904.37	6420.38
904.54	6371.23
904.71	6266.78
904.88	6236.06
905.05	6469.53
905.22	6262.69
905.39	6272.93
905.56	6350.75
905.73	6330.27
905.90	6377.37
906.07	6383.52
906.24	6408.09
906.41	6203.30
906.58	6270.88
906.75	6301.60
906.92	6217.63
907.09	6225.82
907.26	6252.45
907.43	6123.43
907.60	6215.59
907.77	6313.89
907.93	6203.30
908.10	6180.77
908.27	6389.66
908.44	6111.14
908.61	6315.94
908.78	6068.13
908.95	6277.02
909.12	6209.44
909.29	6168.48
909.46	6111.14
909.63	6227.87
909.80	6180.77
909.97	6205.35
910.14	6174.63
910.31	6135.71
910.48	6234.02
910.65	6197.15
910.82	6025.12
910.99	6100.90
911.16	6092.71
911.33	6186.91
911.50	6148.00
911.66	6010.79
911.83	6252.45
912.00	5953.45
912.17	6115.23
912.34	6066.08
912.51	6076.32
912.68	6211.49
912.85	6082.47
913.02	5978.02
913.19	6168.48
913.36	5990.31
913.53	6193.06
913.70	5889.96
913.86	5998.50
914.03	6074.28
914.20	6184.87
914.37	5926.82
914.54	5900.20
914.71	6018.98
914.88	5904.29
915.05	5898.15
915.22	5883.81
915.39	5896.10
915.55	5971.88
915.72	5879.72
915.89	5750.70
916.06	5705.64
916.23	5697.45
916.40	5769.13
916.57	5840.81
916.74	5734.31
916.91	5597.10
917.07	5693.35
917.24	5693.35
917.41	5707.69
917.58	5769.13
917.75	5617.58
917.92	5660.59
918.09	5797.80
918.26	5558.19
918.42	5687.21
918.59	5617.58
918.76	5545.90
918.93	5558.19
919.10	5584.81
919.27	5584.81
919.44	5642.15
919.60	5588.91
919.77	5613.48
919.94	5609.39
920.11	5498.80
920.28	5396.40
920.45	5400.49
920.61	5273.52
920.78	5337.01
920.95	5322.67
921.12	5296.05
921.29	5250.99
921.46	5324.72
921.62	5248.94
921.79	5312.43
921.96	5330.86
922.13	5207.98
922.30	5177.26
922.47	5244.85
922.63	5285.81
922.80	5185.46
922.97	5164.98
923.14	5107.63
923.31	5007.28
923.47	5058.48
923.64	5306.29
923.81	5058.48
923.98	5119.92
924.15	5095.35
924.32	5101.49
924.48	5130.16
924.65	5097.39
924.82	5025.72
924.99	4937.65
925.15	4939.70
925.32	4900.79
925.49	4771.77
925.66	4943.80
925.83	4825.01
925.99	4917.17
926.16	4956.08
926.33	4782.01
926.50	4820.92
926.67	4794.29
926.83	4779.96
927.00	4769.72
927.17	4597.69
927.34	4663.22
927.50	4646.84
927.67	4616.12
927.84	4550.59
928.01	4630.46
928.17	4626.36
928.34	4790.20
928.51	4517.82
928.68	4597.69
928.84	4652.98
929.01	4523.96
929.18	4407.23
929.35	4382.65
929.51	4542.39
929.68	4440.00
929.85	4497.34
930.02	4433.85
930.18	4380.61
930.35	4321.21
930.52	4444.09
930.69	4351.93
930.85	4288.45
931.02	4442.04
931.19	4337.60
931.36	4396.99
931.52	4300.73
931.69	4261.82
931.86	4282.30
932.02	4274.11
932.19	4173.76
932.36	4184.00
932.53	4278.21
932.69	4255.68
932.86	4227.01
933.03	4212.67
933.19	4110.27
933.36	4044.74
933.53	4116.42
933.70	4001.73
933.86	4124.61
934.03	4048.83
934.20	4050.88
934.36	4050.88
934.53	3925.96
934.70	3923.91
934.86	4050.88
935.03	3874.76
935.20	4001.73
935.36	4001.73
935.53	3798.98
935.70	3717.06
935.86	3913.67
936.03	3698.63
936.20	3684.30
936.36	3829.70
936.53	3715.02
936.70	3649.48
936.86	3585.99
937.03	3524.55
937.20	3626.95
937.36	3653.58
937.53	3620.81
937.70	3469.26
937.86	3618.76
938.03	3467.21
938.20	3610.57
938.36	3446.73
938.53	3407.82
938.70	3264.46
938.86	3330.00
939.03	3282.89
939.20	3268.56
939.36	3303.37
939.53	3203.02
939.70	3305.42
939.86	3063.76
940.03	3153.87
940.19	3098.58
940.36	3119.06
940.53	3088.34
940.69	3100.62
940.86	3131.34
941.03	3100.62
941.19	3006.42
941.36	3053.52
941.52	2906.07
941.69	2922.45
941.86	2971.60
942.02	2985.94
942.19	2887.64
942.35	2922.45
942.52	2889.68
942.69	2834.39
942.85	2861.01
943.02	2781.14
943.18	2818.00
943.35	2785.24
943.52	2707.41
943.68	2731.99
943.85	2744.28
944.01	2748.37
944.18	2758.61
944.35	2719.70
944.51	2633.69
944.68	2633.69
944.84	2625.50
945.01	2664.41
945.17	2656.22
945.34	2584.54
945.51	2662.36
945.67	2756.57
945.84	2547.67
946.00	2676.70
946.17	2502.62
946.33	2543.58
946.50	2625.50
946.67	2580.44
946.83	2609.11
947.00	2557.91
947.16	2543.58
947.33	2531.29
947.49	2512.86
947.66	2531.29
947.82	2621.40
947.99	2555.86
948.16	2570.20
948.32	2543.58
948.49	2582.49
948.65	2543.58
948.82	2488.28
948.98	2537.43
949.15	2525.15
949.31	2574.30
949.48	2588.63
949.64	2529.24
949.81	2510.81
949.97	2557.91
950.14	2543.58
950.30	2396.12
950.47	2543.58
950.63	2432.99
950.80	2475.99
950.96	2523.10
951.13	2551.77
951.30	2549.72
951.46	2514.91
951.63	2508.76
951.79	2572.25
951.96	2508.76
952.12	2512.86
952.29	2482.14
952.45	2488.28
952.62	2484.19
952.78	2445.27
952.94	2514.91
953.11	2424.80
953.27	2490.33
953.44	2529.24
953.60	2478.04
953.77	2566.10
953.93	2387.93
954.10	2490.33
954.26	2631.64
954.43	2445.27
954.59	2508.76
954.76	2549.72
954.92	2537.43
955.09	2525.15
955.25	2430.94
955.42	2457.56
955.58	2465.75
955.75	2441.18
955.91	2496.47
956.07	2420.70
956.24	2457.56
956.40	2453.47
956.57	2484.19
956.73	2418.65
956.90	2572.25
957.06	2568.15
957.23	2500.57
957.39	2449.37
957.56	2484.19
957.72	2426.84
957.88	2428.89
958.05	2480.09
958.21	2545.63
958.38	2478.04
958.54	2502.62
958.71	2519.00
958.87	2443.23
959.03	2471.90
959.20	2392.03
959.36	2475.99
959.53	2410.46
959.69	2451.42
959.85	2482.14
960.02	2351.07
960.18	2459.61
960.35	2363.36
960.51	2367.45
960.68	2488.28
960.84	2422.75
961.00	2340.83
961.17	2387.93
961.33	2465.75
961.50	2455.51
961.66	2467.80
961.82	2396.12
961.99	2389.98
962.15	2475.99
962.31	2432.99
962.48	2336.73
962.64	2371.55
962.81	2303.96
962.97	2443.23
963.13	2392.03
963.30	2426.84
963.46	2404.32
963.62	2381.79
963.79	2318.30
963.95	2306.01
964.12	2363.36
964.28	2373.60
964.44	2314.20
964.61	2414.56
964.77	2373.60
964.93	2480.09
965.10	2328.54
965.26	2330.59
965.42	2324.44
965.59	2265.05
965.75	2328.54
965.92	2367.45
966.08	2328.54
966.24	2389.98
966.41	2295.77
966.57	2410.46
966.73	2324.44
966.90	2377.69
967.06	2418.65
967.22	2346.97
967.39	2351.07
967.55	2265.05
967.71	2373.60
967.88	2285.53
968.04	2320.35
968.20	2203.61
968.37	2281.44
968.53	2303.96
968.69	2297.82
968.85	2392.03
969.02	2312.16
969.18	2316.25
969.34	2275.29
969.51	2258.91
969.67	2299.87
969.83	2297.82
970.00	2334.68
970.16	2320.35
970.32	2224.09
970.48	2308.06
970.65	2326.49
970.81	2281.44
970.97	2256.86
971.14	2160.61
971.30	2195.42
971.46	2258.91
971.63	2328.54
971.79	2306.01
971.95	2332.64
972.11	2226.14
972.28	2211.81
972.44	2340.83
972.60	2164.70
972.76	2314.20
972.93	2224.09
973.09	2299.87
973.25	2297.82
973.42	2228.19
973.58	2281.44
973.74	2238.43
973.90	2275.29
974.07	2191.33
974.23	2191.33
974.39	2201.57
974.55	2252.77
974.72	2244.57
974.88	2246.62
975.04	2179.04
975.20	2152.42
975.37	2195.42
975.53	2222.05
975.69	2228.19
975.85	2119.65
976.01	2240.48
976.18	2172.89
976.34	2197.47
976.50	2185.18
976.66	2160.61
976.83	2148.32
976.99	2162.66
977.15	2176.99
977.31	2191.33
977.47	2166.75
977.64	2179.04
977.80	2250.72
977.96	2101.22
978.12	2125.79
978.29	2191.33
978.45	2136.03
978.61	2158.56
978.77	2168.80
978.93	2119.65
979.10	2230.24
979.26	2207.71
979.42	2123.74
979.58	2156.51
979.74	2199.52
979.91	2181.09
980.07	2115.55
980.23	2121.70
980.39	2140.13
980.55	2146.27
980.71	2127.84
980.88	2136.03
981.04	2127.84
981.20	2199.52
981.36	2084.83
981.52	2187.23
981.68	2138.08
981.85	2191.33
982.01	2156.51
982.17	2045.92
982.33	2097.12
982.49	2127.84
982.65	2047.97
982.82	2080.74
982.98	2113.50
983.14	2025.44
983.30	2078.69
983.46	2142.18
983.62	2111.46
983.79	2103.26
983.95	2037.73
984.11	2062.30
984.27	2138.08
984.43	2047.97
984.59	2105.31
984.75	2068.45
984.91	2164.70
985.08	2131.94
985.24	2050.02
985.40	2101.22
985.56	2156.51
985.72	2076.64
985.88	2031.58
986.04	1984.48
986.20	2093.02
986.37	2076.64
986.53	1982.43
986.69	2058.21
986.85	2043.87
987.01	2072.54
987.17	2037.73
987.33	2070.50
987.49	2072.54
987.65	2093.02
987.82	1998.82
987.98	1974.24
988.14	2047.97
988.30	2045.92
988.46	1980.39
988.62	2052.06
988.78	2023.39
988.94	2013.15
989.10	2039.78
989.26	1994.72
989.42	2011.11
989.59	1984.48
989.75	1990.63
989.91	1988.58
990.07	2019.30
990.23	1974.24
990.39	2047.97
990.55	2007.01
990.71	1992.67
990.87	1996.77
991.03	2019.30
991.19	1978.34
991.35	1900.52
991.51	1994.72
991.67	1964.00
991.83	1966.05
992.00	2115.55
992.16	1937.38
992.32	1953.76
992.48	1968.10
992.64	2004.96
992.80	1949.67
992.96	1953.76
993.12	2045.92
993.28	2039.78
993.44	2017.25
993.60	1964.00
993.76	1920.99
993.92	1974.24
994.08	2031.58
994.24	2002.91
994.40	1998.82
994.56	1880.04
994.72	1923.04
994.88	1908.71
995.04	1937.38
995.20	1970.15
995.36	1982.43
995.52	1935.33
995.68	2097.12
995.84	1974.24
996.00	1976.29
996.16	1929.19
996.32	1871.84
996.48	1959.91
996.64	1959.91
996.80	1984.48
996.96	1933.28
997.12	1855.46
997.28	1847.27
997.44	1912.80
997.60	1916.90
997.76	1869.80
997.92	1828.84
998.08	2004.96
998.24	1853.41
998.40	1898.47
998.56	1908.71
998.72	1851.36
998.88	1898.47
999.04	1929.19
999.20	1937.38
999.36	1855.46
999.52	1929.19
999.68	1765.35
999.84	1812.45
1000.00	1908.71
1000.16	1871.84
1000.32	1877.99
1000.48	1912.80
1000.64	1837.03
1000.80	1867.75
1000.95	1804.26
1001.11	1853.41
1001.27	1822.69
1001.43	1935.33
1001.59	1834.98
1001.75	1861.60
1001.91	1832.93
1002.07	1859.56
1002.23	1804.26
1002.39	1859.56
1002.55	1910.75
1002.71	1773.54
1002.87	1839.08
1003.03	1830.88
1003.19	1806.31
1003.34	1859.56
1003.50	1828.84
1003.66	1808.36
1003.82	1902.56
1003.98	1814.50
1004.14	1918.95
1004.30	1785.83
1004.46	1828.84
1004.62	1839.08
1004.78	1841.12
1004.94	1820.64
1005.09	1812.45
1005.25	1865.70
1005.41	1779.68
1005.57	1875.94
1005.73	1841.12
1005.89	1812.45
1006.05	1834.98
1006.21	1861.60
1006.37	1767.40
1006.52	1839.08
1006.68	1812.45
1006.84	1904.61
1007.00	1802.21
1007.16	1845.22
1007.32	1753.06
1007.48	1828.84
1007.64	1855.46
1007.79	1812.45
1007.95	1708.01
1008.11	1834.98
1008.27	1841.12
1008.43	1775.59
1008.59	1804.26
1008.75	1843.17
1008.91	1812.45
1009.06	1830.88
1009.22	1832.93
1009.38	1810.40
1009.54	1742.82
1009.70	1832.93
1009.86	1765.35
1010.01	1814.50
1010.17	1863.65
1010.33	1740.77
1010.49	1802.21
1010.65	1751.01
1010.81	1783.78
1010.96	1742.82
1011.12	1804.26
1011.28	1769.44
1011.44	1785.83
1011.60	1794.02
1011.76	1720.29
1011.91	1814.50
1012.07	1699.81
1012.23	1703.91
1012.39	1730.53
1012.55	1791.97
1012.71	1783.78
1012.86	1687.53
1013.02	1738.73
1013.18	1763.30
1013.34	1695.72
1013.50	1781.73
1013.65	1810.40
1013.81	1767.40
1013.97	1712.10
1014.13	1759.21
1014.29	1753.06
1014.44	1781.73
1014.60	1687.53
1014.76	1683.43
1014.92	1751.01
1015.07	1724.39
1015.23	1804.26
1015.39	1759.21
1015.55	1759.21
1015.71	1726.44
1015.86	1634.28
1016.02	1658.85
1016.18	1728.49
1016.34	1722.34
1016.49	1761.25
1016.65	1787.88
1016.81	1726.44
1016.97	1767.40
1017.12	1687.53
1017.28	1730.53
1017.44	1667.05
1017.60	1775.59
1017.75	1755.11
1017.91	1691.62
1018.07	1732.58
1018.23	1718.25
1018.38	1669.09
1018.54	1720.29
1018.70	1849.32
1018.86	1675.24
1019.01	1660.90
1019.17	1714.15
1019.33	1759.21
1019.49	1708.01
1019.64	1779.68
1019.80	1787.88
1019.96	1683.43
1020.12	1726.44
1020.27	1685.48
1020.43	1689.57
1020.59	1738.73
1020.74	1757.16
1020.90	1742.82
1021.06	1677.29
1021.22	1675.24
1021.37	1656.81
1021.53	1687.53
1021.69	1677.29
1021.84	1642.47
1022.00	1697.77
1022.16	1667.05
1022.31	1740.77
1022.47	1787.88
1022.63	1705.96
1022.79	1613.80
1022.94	1671.14
1023.10	1796.07
1023.26	1642.47
1023.41	1675.24
1023.57	1685.48
1023.73	1746.92
1023.88	1578.98
1024.04	1595.37
1024.20	1683.43
1024.35	1714.15
1024.51	1601.51
1024.67	1726.44
1024.82	1662.95
1024.98	1660.90
1025.14	1673.19
1025.29	1677.29
1025.45	1710.05
1025.61	1656.81
1025.76	1761.25
1025.92	1599.46
1026.08	1755.11
1026.23	1720.29
1026.39	1624.04
1026.55	1679.33
1026.70	1640.42
1026.86	1677.29
1027.02	1662.95
1027.17	1613.80
1027.33	1658.85
1027.48	1665.00
1027.64	1642.47
1027.80	1603.56
1027.95	1619.94
1028.11	1589.22
1028.27	1662.95
1028.42	1558.50
1028.58	1669.09
1028.73	1607.66
1028.89	1603.56
1029.05	1701.86
1029.20	1691.62
>>>>>End Processed Spectral Data<<<<<
