SpectraSuite Data File
++++++++++++++++++++++++++++++++++++
Date: Tue Jun 13 11:52:07 CEST 2017
User: INFO_000
Dark Spectrum Present: No
Reference Spectrum Present: No
Number of Sampled Component Spectra: 1
Spectrometers: USB4H00879
Integration Time (usec): 30000 (USB4H00879)
Spectra Averaged: 1 (USB4H00879)
Boxcar Smoothing: 0 (USB4H00879)
Correct for Electrical Dark: No (USB4H00879)
Strobe/Lamp Enabled: No (USB4H00879)
Correct for Detector Non-linearity: No (USB4H00879)
Correct for Stray Light: No (USB4H00879)
Number of Pixels in Processed Spectrum: 3648
>>>>>Begin Processed Spectral Data<<<<<
345.13	1341.42
345.34	1341.42
345.56	1341.42
345.78	1312.75
345.99	1316.84
346.21	1515.50
346.42	1511.40
346.64	1531.88
346.86	1507.30
347.07	1497.07
347.29	1519.59
347.50	1476.59
347.72	1492.97
347.94	1566.70
348.15	1492.97
348.37	1535.98
348.59	1521.64
348.80	1458.15
349.02	1632.23
349.23	1685.48
349.45	1601.51
349.67	1685.48
349.88	1576.94
350.10	1638.38
350.31	1636.33
350.53	1601.51
350.75	1683.43
350.96	1589.22
351.18	1626.09
351.39	1599.46
351.61	1566.70
351.82	1644.52
352.04	1640.42
352.26	1562.60
352.47	1673.19
352.69	1630.18
352.90	1630.18
353.12	1599.46
353.34	1568.74
353.55	1656.81
353.77	1644.52
353.98	1630.18
354.20	1613.80
354.41	1671.14
354.63	1699.81
354.85	1767.40
355.06	1662.95
355.28	1730.53
355.49	1642.47
355.71	1624.04
355.92	1595.37
356.14	1722.34
356.35	1697.77
356.57	1660.90
356.79	1679.33
357.00	1648.61
357.22	1705.96
357.43	1718.25
357.65	1738.73
357.86	1630.18
358.08	1681.38
358.29	1732.58
358.51	1695.72
358.72	1726.44
358.94	1691.62
359.16	1636.33
359.37	1748.97
359.59	1748.97
359.80	1800.16
360.02	1714.15
360.23	1777.64
360.45	1767.40
360.66	1753.06
360.88	1662.95
361.09	1710.05
361.31	1783.78
361.52	1738.73
361.74	1761.25
361.95	1816.55
362.17	1757.16
362.38	1830.88
362.60	1826.79
362.81	1722.34
363.03	1644.52
363.24	1734.63
363.46	1689.57
363.67	1777.64
363.89	1808.36
364.10	1728.49
364.32	1746.92
364.53	1812.45
364.75	1677.29
364.96	1716.20
365.18	1839.08
365.39	1818.60
365.61	1789.92
365.82	1804.26
366.04	1759.21
366.25	1773.54
366.47	1843.17
366.68	1820.64
366.90	1800.16
367.11	1804.26
367.33	1818.60
367.54	1744.87
367.76	1726.44
367.97	1851.36
368.19	1796.07
368.40	1775.59
368.62	1767.40
368.83	1783.78
369.05	1787.88
369.26	1783.78
369.48	1796.07
369.69	1839.08
369.91	1824.74
370.12	1783.78
370.33	1843.17
370.55	1804.26
370.76	1824.74
370.98	1904.61
371.19	1818.60
371.41	1806.31
371.62	1869.80
371.84	1834.98
372.05	1894.37
372.27	1820.64
372.48	1832.93
372.69	1849.32
372.91	1957.86
373.12	1927.14
373.34	1900.52
373.55	1857.51
373.77	1918.95
373.98	1857.51
374.20	1968.10
374.41	2039.78
374.62	1980.39
374.84	1941.47
375.05	1935.33
375.27	1974.24
375.48	1970.15
375.70	1984.48
375.91	1978.34
376.12	1974.24
376.34	2000.87
376.55	1961.95
376.77	1920.99
376.98	1990.63
377.19	1984.48
377.41	1970.15
377.62	1990.63
377.84	2031.58
378.05	2011.11
378.27	2084.83
378.48	2064.35
378.69	2185.18
378.91	2099.17
379.12	2035.68
379.34	2037.73
379.55	2179.04
379.76	2060.26
379.98	2138.08
380.19	2017.25
380.41	2095.07
380.62	2017.25
380.83	2146.27
381.05	2023.39
381.26	2142.18
381.47	2074.59
381.69	2097.12
381.90	2148.32
382.12	2113.50
382.33	2205.66
382.54	2021.35
382.76	2136.03
382.97	2133.98
383.19	2107.36
383.40	2283.49
383.61	2125.79
383.83	2123.74
384.04	2170.85
384.25	2156.51
384.47	2230.24
384.68	2203.61
384.89	2156.51
385.11	2332.64
385.32	2156.51
385.54	2185.18
385.75	2129.89
385.96	2238.43
386.18	2254.81
386.39	2322.40
386.60	2269.15
386.82	2328.54
387.03	2283.49
387.24	2279.39
387.46	2299.87
387.67	2357.21
387.88	2383.84
388.10	2416.60
388.31	2392.03
388.52	2349.02
388.74	2389.98
388.95	2412.51
389.16	2441.18
389.38	2441.18
389.59	2449.37
389.80	2482.14
390.02	2430.94
390.23	2435.03
390.44	2410.46
390.66	2389.98
390.87	2398.17
391.08	2525.15
391.30	2514.91
391.51	2473.95
391.72	2521.05
391.94	2521.05
392.15	2480.09
392.36	2486.23
392.58	2451.42
392.79	2494.43
393.00	2594.78
393.22	2506.71
393.43	2609.11
393.64	2697.17
393.85	2652.12
394.07	2557.91
394.28	2678.74
394.49	2633.69
394.71	2627.54
394.92	2600.92
395.13	2594.78
395.35	2633.69
395.56	2717.65
395.77	2684.89
395.98	2838.48
396.20	2756.57
396.41	2777.05
396.62	2865.11
396.84	2738.13
397.05	2789.33
397.26	2801.62
397.47	2840.53
397.69	2734.04
397.90	2856.92
398.11	2777.05
398.32	2852.82
398.54	2779.09
398.75	2842.58
398.96	2891.73
399.18	2938.84
399.39	2897.88
399.60	2955.22
399.81	3018.71
400.03	2879.44
400.24	3117.01
400.45	2938.84
400.66	3014.61
400.88	2987.99
401.09	3037.14
401.30	3024.85
401.51	2975.70
401.73	3002.32
401.94	3125.20
402.15	3129.30
402.36	3074.00
402.58	3155.92
402.79	3071.95
403.00	3160.02
403.21	3110.86
403.43	3104.72
403.64	3229.65
403.85	3069.91
404.06	3188.69
404.27	3119.06
404.49	3168.21
404.70	3241.93
404.91	3186.64
405.12	3129.30
405.34	3182.54
405.55	3309.52
405.76	3112.91
405.97	3252.17
406.19	3350.48
406.40	3309.52
406.61	3291.09
406.82	3377.10
407.03	3360.72
407.25	3360.72
407.46	3426.25
407.67	3352.52
407.88	3450.83
408.09	3307.47
408.31	3399.63
408.52	3459.02
408.73	3364.81
408.94	3399.63
409.15	3479.50
409.37	3502.03
409.58	3534.79
409.79	3420.11
410.00	3545.03
410.21	3481.55
410.43	3532.75
410.64	3561.42
410.85	3616.71
411.06	3530.70
411.27	3530.70
411.48	3657.67
411.70	3579.85
411.91	3653.58
412.12	3690.44
412.33	3532.75
412.54	3561.42
412.76	3772.36
412.97	3604.42
413.18	3608.52
413.39	3702.73
413.60	3657.67
413.81	3776.45
414.03	3651.53
414.24	3790.79
414.45	3837.89
414.66	3760.07
414.87	3919.81
415.08	3803.08
415.30	3835.85
415.51	3968.96
415.72	3866.56
415.93	3844.04
416.14	3891.14
416.35	4005.83
416.56	3923.91
416.78	3995.59
416.99	3952.58
417.20	3932.10
417.41	4038.59
417.62	4063.17
417.83	4138.94
418.04	3966.92
418.26	3964.87
418.47	4024.26
418.68	4089.79
418.89	4081.60
419.10	4048.83
419.31	4118.47
419.52	4220.86
419.73	4239.30
419.95	4267.97
420.16	4143.04
420.37	4188.10
420.58	4263.87
420.79	4208.58
421.00	4235.20
421.21	4288.45
421.42	4319.17
421.63	4304.83
421.85	4296.64
422.06	4466.62
422.27	4317.12
422.48	4386.75
422.69	4470.72
422.90	4538.30
423.11	4652.98
423.32	4530.11
423.53	4708.28
423.75	4431.80
423.96	4589.50
424.17	4575.16
424.38	4769.72
424.59	4644.79
424.80	4827.06
425.01	4612.03
425.22	4736.95
425.43	4657.08
425.64	4868.02
425.85	4837.30
426.06	4794.29
426.28	4904.89
426.49	4757.43
426.70	4937.65
426.91	4931.51
427.12	5007.28
427.33	4949.94
427.54	4923.32
427.75	5050.29
427.96	5093.30
428.17	5128.11
428.38	5146.55
428.59	5175.22
428.80	5136.31
429.01	5255.09
429.23	5171.12
429.44	5437.36
429.65	5365.68
429.86	5355.44
430.07	5134.26
430.28	5156.79
430.49	5445.55
430.70	5441.45
430.91	5373.87
431.12	5492.65
431.33	5584.81
431.54	5427.12
431.75	5455.79
431.96	5529.52
432.17	5527.47
432.38	5523.37
432.59	5711.78
432.80	5640.11
433.01	5760.94
433.22	5722.02
433.43	5662.63
433.64	5889.96
433.85	5599.15
434.06	5834.66
434.27	5801.90
434.49	5834.66
434.70	5881.77
434.91	5971.88
435.12	6008.74
435.33	5894.05
435.54	5996.45
435.75	5969.83
435.96	6043.56
436.17	5967.78
436.38	6041.51
436.59	6076.32
436.80	6068.13
437.01	6328.22
437.22	6426.53
437.43	6160.29
437.64	6072.23
437.85	6209.44
438.06	6266.78
438.27	6111.14
438.48	6281.12
438.69	6477.73
438.90	6416.29
439.11	6277.02
439.32	6485.92
439.53	6483.87
439.74	6524.83
439.95	6385.57
440.16	6504.35
440.37	6567.84
440.57	6393.76
440.78	6508.44
440.99	6580.12
441.20	6528.92
441.41	6657.95
441.62	6713.24
441.83	6510.49
442.04	6690.71
442.25	6805.40
442.46	6709.15
442.67	6944.66
442.88	7251.86
443.09	6727.58
443.30	6887.32
443.51	6758.30
443.72	7059.35
443.93	6762.39
444.14	7264.15
444.35	6866.84
444.56	7085.97
444.77	7051.16
444.98	7171.99
445.19	7208.85
445.40	7178.13
445.61	7227.28
445.81	7231.38
446.02	7204.75
446.23	7116.69
446.44	7016.34
446.65	7364.50
446.86	7214.99
447.07	7243.67
447.28	7530.38
447.49	7405.46
447.70	7387.02
447.91	7485.33
448.12	7563.15
448.33	7612.30
448.54	7587.72
448.74	7438.22
448.95	7647.12
449.16	7425.93
449.37	7903.11
449.58	7444.37
449.79	7972.74
450.00	7686.03
450.21	7739.27
450.42	7964.55
450.63	8025.99
450.84	7962.50
451.05	7792.52
451.25	7948.17
451.46	7815.05
451.67	7899.02
451.88	8148.87
452.09	8116.10
452.30	8036.23
452.51	8177.54
452.72	8232.83
452.93	8429.44
453.13	8066.95
453.34	8085.38
453.55	8265.60
453.76	8361.86
453.97	8718.20
454.18	8423.30
454.39	8443.78
454.60	8281.99
454.81	8490.88
455.01	8767.35
455.22	8271.75
455.43	8572.80
455.64	8722.30
455.85	8841.08
456.06	9166.71
456.27	8818.55
456.48	8771.45
456.68	8927.10
456.89	8849.27
457.10	9158.52
457.31	9080.69
457.52	9234.29
457.73	9080.69
457.94	9426.80
458.14	9219.96
458.35	9684.84
458.56	9389.94
458.77	9310.07
458.98	9527.15
459.19	9672.56
459.39	9445.23
459.60	9787.24
459.81	9566.06
460.02	9674.60
460.23	9918.31
460.44	9994.09
460.65	9856.87
460.85	9889.64
461.06	10121.06
461.27	9779.05
461.48	10022.76
461.69	10305.38
461.89	10080.10
462.10	10184.55
462.31	9992.04
462.52	10213.22
462.73	10149.73
462.94	10526.56
463.14	10483.55
463.35	10520.42
463.56	10964.82
463.77	10708.83
463.98	10622.81
464.18	10311.52
464.39	10841.95
464.60	11077.46
464.81	11132.76
465.02	10960.73
465.23	11265.88
465.43	11022.17
465.64	11425.62
465.85	11325.27
466.06	11157.33
466.27	11667.28
466.47	11577.17
466.68	11571.02
466.89	11716.43
467.10	11777.87
467.30	11650.89
467.51	11845.45
467.72	11818.83
467.93	11878.22
468.14	11906.89
468.34	12302.15
468.55	12345.16
468.76	12205.89
468.97	12224.33
469.17	12586.82
469.38	12476.23
469.59	12842.81
469.80	12418.88
470.01	12447.55
470.21	12470.08
470.42	12855.10
470.63	12894.01
470.84	12920.63
471.04	13203.25
471.25	12977.98
471.46	13008.70
471.67	13483.83
471.87	13229.88
472.08	13588.27
472.29	13621.04
472.50	13121.34
472.70	13489.97
472.91	13610.80
473.12	14083.88
473.33	13862.70
473.53	14257.96
473.74	13934.38
473.95	14352.16
474.16	14397.22
474.36	14229.29
474.57	14569.25
474.78	14845.73
474.99	14722.85
475.19	14561.06
475.40	15042.33
475.61	15111.96
475.81	15245.08
476.02	15597.33
476.23	15503.12
476.44	15709.97
476.64	15912.72
476.85	15955.72
477.06	15576.85
477.27	15976.20
477.47	16191.24
477.68	16051.98
477.89	16187.14
478.09	16346.89
478.30	16428.81
478.51	16303.88
478.71	16459.52
478.92	16570.12
479.13	16860.93
479.34	16977.66
479.54	16965.37
479.75	17305.34
479.96	17219.32
480.16	17245.94
480.37	17270.52
480.58	17786.61
480.78	17839.86
480.99	18030.32
481.20	17878.77
481.41	17821.42
481.61	18134.76
481.82	18292.46
482.03	18306.79
482.23	18398.95
482.44	18464.49
482.65	18781.92
482.85	18960.09
483.06	18845.41
483.27	18818.78
483.47	19171.04
483.68	19101.40
483.89	19558.10
484.09	19269.34
484.30	19607.25
484.51	19674.84
484.71	20016.85
484.92	19748.56
485.13	20072.14
485.33	20049.61
485.54	20125.39
485.75	20375.24
485.95	20393.67
486.16	20469.45
486.37	20770.50
486.57	20879.04
486.78	20627.14
486.98	20903.62
487.19	21001.92
487.40	21079.74
487.60	21139.13
487.81	21726.90
488.02	21475.00
488.22	21309.11
488.43	21827.25
488.64	21927.60
488.84	21989.04
489.05	22087.34
489.25	21991.09
489.46	22365.87
489.67	22089.39
489.87	22814.37
490.08	22404.78
490.29	22716.07
490.49	22918.82
490.70	22843.04
490.90	23053.98
491.11	23117.47
491.32	23076.51
491.52	23281.31
491.73	23342.75
491.94	23500.44
492.14	23588.50
492.35	23875.22
492.55	23821.97
492.76	24286.86
492.97	24278.67
493.17	23953.04
493.38	24438.41
493.58	24635.02
493.79	24172.18
494.00	24358.54
494.20	24710.79
494.41	24671.88
494.61	25130.62
494.82	24956.55
495.02	24895.11
495.23	25282.17
495.44	25423.48
495.64	25527.93
495.85	25366.14
496.05	25464.44
496.26	25601.66
496.47	25890.42
496.67	25620.09
496.88	26091.12
497.08	25824.89
497.29	26060.40
497.49	25958.00
497.70	26508.91
497.91	26465.90
498.11	26578.54
498.32	26535.53
498.52	26650.22
498.73	27436.64
498.93	27051.62
499.14	27076.19
499.34	27199.07
499.55	27106.91
499.76	27199.07
499.96	27438.69
500.17	27297.38
500.37	27784.79
500.58	27541.08
500.78	27514.46
500.99	27623.00
501.19	28071.51
501.40	27651.67
501.60	28087.89
501.81	28010.07
502.02	28061.27
502.22	27977.30
502.43	28188.24
502.63	28208.72
502.84	28202.58
503.04	28499.53
503.25	28614.22
503.45	28616.27
503.66	28839.50
503.86	28587.60
504.07	28835.40
504.27	28855.88
504.48	29580.86
504.68	29218.37
504.89	29146.69
505.09	29455.93
505.30	29521.47
505.50	29201.99
505.71	29171.27
505.91	29730.36
506.12	29740.60
506.32	29564.48
506.53	29744.70
506.73	30049.85
506.94	30045.75
507.14	30019.13
507.35	30330.42
507.55	30176.82
507.76	30295.60
507.96	30236.21
508.17	30553.65
508.37	30690.86
508.58	30215.73
508.78	30260.79
508.99	30697.00
509.19	30567.98
509.40	30539.31
509.60	30729.77
509.81	30907.94
510.01	30451.25
510.22	30862.89
510.42	31059.49
510.63	31254.05
510.83	30955.05
511.04	31309.35
511.24	31594.01
511.44	31129.12
511.65	31852.06
511.85	31563.29
512.06	31102.50
512.26	31655.45
512.47	31804.95
512.67	31731.23
512.88	31872.54
513.08	31737.37
513.29	32005.66
513.49	32290.32
513.69	32251.41
513.90	32151.06
514.10	32286.23
514.31	32189.97
514.51	32384.53
514.72	32394.77
514.92	32419.35
515.13	32681.49
515.33	32642.57
515.53	32663.05
515.74	32747.02
515.94	32853.51
516.15	33076.74
516.35	32591.37
516.56	32951.82
516.76	33074.70
516.96	33115.65
517.17	33336.84
517.37	32876.04
517.58	33494.53
517.78	33234.44
517.99	33480.19
518.19	33517.06
518.39	33719.81
518.60	33682.94
518.80	33748.48
519.01	33633.79
519.21	33725.95
519.41	34047.48
519.62	33650.17
519.82	34090.49
520.03	34387.44
520.23	33992.19
520.43	34156.02
520.64	34776.56
520.84	34960.87
521.05	34719.21
521.25	34655.73
521.45	34762.22
521.66	35192.30
521.86	34704.88
522.07	34876.91
522.27	35196.39
522.47	34909.68
522.68	35593.70
522.88	35202.53
523.08	35472.87
523.29	35655.14
523.49	35542.50
523.70	35560.93
523.90	35716.58
524.10	35982.81
524.31	35978.72
524.51	35997.15
524.71	36253.14
524.92	35818.97
525.12	36234.71
525.33	36365.78
525.53	36464.08
525.73	36457.94
525.94	36746.70
526.14	36580.82
526.34	36795.85
526.55	36830.67
526.75	36783.57
526.95	37332.42
527.16	37227.98
527.36	36914.64
527.56	37332.42
527.77	37352.90
527.97	37287.37
528.17	37569.99
528.38	37844.41
528.58	37643.71
528.78	37934.53
528.99	37926.33
529.19	38284.73
529.39	37981.63
529.60	38731.18
529.80	38270.39
530.00	37981.63
530.21	38849.97
530.41	38725.04
530.61	38641.07
530.82	38553.01
531.02	38841.78
531.22	38700.47
531.43	38659.51
531.63	38944.17
531.83	39638.44
532.04	39417.25
532.24	39343.53
532.44	40220.06
532.64	39587.24
532.85	40097.18
533.05	39642.53
533.25	39941.53
533.46	39984.54
533.66	40678.80
533.86	39959.97
534.07	40580.50
534.27	40240.54
534.47	40682.90
534.67	40811.92
534.88	40887.70
535.08	40627.60
535.28	41235.85
535.49	41104.78
535.69	41244.04
535.89	41471.37
536.09	41373.06
536.30	41950.59
536.50	41688.45
536.70	41291.15
536.91	41432.46
537.11	41643.40
537.31	41866.63
537.51	42059.13
537.72	42493.30
537.92	42206.59
538.12	42771.83
538.32	42177.92
538.53	42710.39
538.73	42669.43
538.93	43087.21
539.13	42472.82
539.34	42724.72
539.54	42509.69
539.74	43054.45
539.94	43105.65
540.15	43195.76
540.35	43847.01
540.55	43648.36
540.75	43345.26
540.96	43646.31
541.16	43461.99
541.36	43693.41
541.56	43445.61
541.77	44352.86
541.97	43701.61
542.17	44062.05
542.37	43971.94
542.58	43949.41
542.78	44023.14
542.98	43861.35
543.18	44295.52
543.38	44717.40
543.59	44588.38
543.79	44799.32
543.99	44856.66
544.19	44934.48
544.40	44784.98
544.60	45266.25
544.80	44735.83
545.00	44819.80
545.20	45141.33
545.41	45073.74
545.61	45202.77
545.81	45141.33
546.01	45540.68
546.21	45145.42
546.42	45446.47
546.62	45806.92
546.82	45473.10
547.02	45849.92
547.22	45931.84
547.43	45368.65
547.63	45710.66
547.83	45802.82
548.03	45825.35
548.23	46062.91
548.44	45864.26
548.64	46017.86
548.84	46181.70
549.04	45876.55
549.24	46126.40
549.45	46325.05
549.65	46472.51
549.85	46280.00
550.05	46761.27
550.25	46282.05
550.45	47011.12
550.66	46468.41
550.86	46462.27
551.06	46892.34
551.26	47064.37
551.46	46970.16
551.66	46658.87
551.87	46806.33
552.07	46941.49
552.27	47197.49
552.47	46931.25
552.67	47443.24
552.87	47559.98
553.07	47590.70
553.28	47256.88
553.48	47570.22
553.68	47365.42
553.88	47443.24
554.08	47611.18
554.28	47443.24
554.48	47248.69
554.69	47476.01
554.89	47846.69
555.09	47846.69
555.29	47932.71
555.49	48084.26
555.69	47697.19
555.89	48055.59
556.10	47973.67
556.30	47836.45
556.50	48084.26
556.70	47686.95
556.90	48198.94
557.10	48397.60
557.30	47889.70
557.50	48311.58
557.70	48340.25
557.91	48436.51
558.11	48426.27
558.31	48547.10
558.51	48659.74
558.71	48307.49
558.91	48815.38
559.11	48614.68
559.31	48643.35
559.51	48567.58
559.72	48643.35
559.92	49206.55
560.12	48536.86
560.32	49114.39
560.52	48706.84
560.72	48708.89
560.92	48751.90
561.12	48999.70
561.32	49347.86
561.52	48821.53
561.72	48903.45
561.93	49132.82
562.13	48907.54
562.33	48889.11
562.53	49493.26
562.73	49059.09
562.93	49009.94
563.13	49448.21
563.33	49186.07
563.53	49569.04
563.73	49030.42
563.93	49267.98
564.13	49943.81
564.33	49210.64
564.53	49278.22
564.74	49931.53
564.94	49143.06
565.14	49800.46
565.34	48993.56
565.54	49198.35
565.74	49566.99
565.94	49759.50
566.14	49851.66
566.34	49763.59
566.54	49892.61
566.74	49771.78
566.94	49902.85
567.14	49939.72
567.34	49804.55
567.54	50146.56
567.74	49779.98
567.94	50189.57
568.14	50427.13
568.34	50599.16
568.54	50054.40
568.74	50650.36
568.94	50197.76
569.14	50435.33
569.34	50459.90
569.54	50339.07
569.75	49841.42
569.95	50332.93
570.15	51117.30
570.35	50726.14
570.55	50351.36
570.75	50394.37
570.95	50547.96
571.15	50478.33
571.35	50660.60
571.55	51076.34
571.75	50621.69
571.95	50828.54
572.15	50683.13
572.35	50705.66
572.55	50703.61
572.75	51180.79
572.95	50996.47
573.15	51125.49
573.35	50863.35
573.55	50935.03
573.75	51037.43
573.95	51381.49
574.15	50844.92
574.35	51514.61
574.55	50967.80
574.75	51344.62
574.95	51440.88
575.15	50920.70
575.34	51643.63
575.54	51639.53
575.74	51504.37
575.94	51664.11
576.14	51737.83
576.34	51987.69
576.54	51279.09
576.74	51756.27
576.94	51700.97
577.14	52270.31
577.34	52210.92
577.54	51948.78
577.74	52012.26
577.94	52079.85
578.14	52147.43
578.34	52161.76
578.54	51653.87
578.74	52145.38
578.94	52679.90
579.14	51752.17
579.34	52196.58
579.54	52290.79
579.74	52567.26
579.94	52329.70
580.13	52782.30
580.33	52430.05
580.53	52970.71
580.73	52935.90
580.93	52696.28
581.13	52649.18
581.33	53005.53
581.53	53052.63
581.73	52980.95
581.93	53507.28
582.13	52894.94
582.33	52929.75
582.53	53195.99
582.73	53009.62
582.92	53318.87
583.12	53392.59
583.32	52772.06
583.52	53257.43
583.72	53208.28
583.92	53286.10
584.12	53486.80
584.32	54072.52
584.52	53724.36
584.72	53753.04
584.92	53650.64
585.11	53988.55
585.31	53261.52
585.51	54193.35
585.71	53640.40
585.91	53904.59
586.11	53802.19
586.31	53662.93
586.51	53781.71
586.71	54260.93
586.91	53925.07
587.10	54199.49
587.30	54195.40
587.50	54815.93
587.70	54322.37
587.90	54338.75
588.10	54488.26
588.30	54764.73
588.50	54488.26
588.69	54209.73
588.89	54131.91
589.09	54277.32
589.29	54934.71
589.49	54850.75
589.69	54492.35
589.89	54990.01
590.08	54877.37
590.28	54510.78
590.48	54779.07
590.68	54848.70
590.88	55121.08
591.08	54787.26
591.28	54703.29
591.47	54940.86
591.67	55194.81
591.87	55297.20
592.07	55164.09
592.27	55348.40
592.47	55327.92
592.67	55463.09
592.86	54785.21
593.06	55413.94
593.26	55012.54
593.46	55139.51
593.66	55260.34
593.86	55323.83
594.05	55223.48
594.25	55815.34
594.45	55051.45
594.65	55278.77
594.85	55243.96
595.05	55712.94
595.24	56024.23
595.44	55520.43
595.64	55545.01
595.84	55753.90
596.04	55624.88
596.23	55569.58
596.43	55973.03
596.63	55884.97
596.83	55975.08
597.03	56231.08
597.22	55895.21
597.42	56140.97
597.62	56140.97
597.82	56130.73
598.02	56472.74
598.21	56663.20
598.41	55809.20
598.61	56587.42
598.81	56169.64
599.01	56353.96
599.20	56163.50
599.40	56394.92
599.60	56437.92
599.80	56759.45
600.00	56384.68
600.19	56743.07
600.39	56341.67
600.59	56876.19
600.79	56980.63
600.98	56626.34
601.18	57162.90
601.38	56913.05
601.58	57044.12
601.78	56997.02
601.97	56855.71
602.17	57527.44
602.37	57412.76
602.57	57232.53
602.76	57517.20
602.96	57193.62
603.16	57703.57
603.36	57250.97
603.55	57818.25
603.75	57486.48
603.95	57799.82
604.15	57236.63
604.34	57361.56
604.54	57699.47
604.74	57750.67
604.94	57449.62
605.13	57836.69
605.33	57767.05
605.53	58023.05
605.73	58004.62
605.92	58115.21
606.12	57990.28
606.32	57900.17
606.52	57982.09
606.71	57965.71
606.91	58166.41
607.11	57633.94
607.30	58225.80
607.50	57961.61
607.70	57848.97
607.90	58178.70
608.09	58150.02
608.29	58651.78
608.49	58487.94
608.68	58512.52
608.88	58072.20
609.08	58162.31
609.28	58508.42
609.47	58391.68
609.67	58627.20
609.87	58291.33
610.06	59026.56
610.26	58553.47
610.46	58479.75
610.66	58631.30
610.85	58651.78
611.05	58705.02
611.25	58485.89
611.44	58199.18
611.64	58696.83
611.84	58100.87
612.03	58266.76
612.23	58625.15
612.43	58735.74
612.62	58449.03
612.82	59067.51
613.02	58590.34
613.21	58707.07
613.41	58430.60
613.61	58406.02
613.80	57998.48
614.00	58475.65
614.20	58528.90
614.39	58459.27
614.59	58793.09
614.79	58827.90
614.98	58866.81
615.18	58672.26
615.38	58795.13
615.57	58182.79
615.77	59104.38
615.97	58797.18
616.16	58758.27
616.36	58614.91
616.56	59020.41
616.75	58584.19
616.95	58588.29
617.15	58418.31
617.34	58522.76
617.54	58199.18
617.74	58535.04
617.93	58453.12
618.13	58274.95
618.32	58735.74
618.52	58397.83
618.72	58408.07
618.91	58801.28
619.11	58494.08
619.31	58322.05
619.50	58619.01
619.70	58391.68
619.90	58721.41
620.09	58494.08
620.29	58096.78
620.48	58139.78
620.68	58625.15
620.88	57810.06
621.07	58240.14
621.27	58539.14
621.46	58236.04
621.66	58508.42
621.86	57898.12
622.05	57670.80
622.25	58303.62
622.44	58168.46
622.64	58141.83
622.84	58127.50
623.03	58424.45
623.23	58342.53
623.42	58227.85
623.62	58463.36
623.82	58479.75
624.01	57951.37
624.21	58303.62
624.40	58197.13
624.60	58059.91
624.80	57926.80
624.99	57900.17
625.19	57722.00
625.38	58059.91
625.58	57861.26
625.77	57887.88
625.97	57492.63
626.17	57787.53
626.36	58158.22
626.56	58188.94
626.75	57468.05
626.95	58266.76
627.14	57898.12
627.34	58258.57
627.54	57830.54
627.73	57900.17
627.93	58203.27
628.12	57824.40
628.32	57746.57
628.51	57818.25
628.71	57509.01
628.90	57861.26
629.10	57423.00
629.30	58045.58
629.49	57425.04
629.69	58084.49
629.88	57826.45
630.08	57789.58
630.27	57894.03
630.47	57664.66
630.66	58305.67
630.86	58006.67
631.05	57412.76
631.25	58406.02
631.44	57785.49
631.64	58166.41
631.84	57857.17
632.03	57883.79
632.23	57711.76
632.42	57998.48
632.62	57879.69
632.81	57758.86
633.01	57502.87
633.20	58178.70
633.40	57773.20
633.59	58078.35
633.79	57466.00
633.98	57713.81
634.18	58084.49
634.37	58143.88
634.57	57566.35
634.76	58064.01
634.96	57722.00
635.15	57627.79
635.35	57728.14
635.54	57314.45
635.74	58174.60
635.93	57502.87
636.13	58018.95
636.32	57941.13
636.52	57123.99
636.71	57592.98
636.91	57644.18
637.10	57937.04
637.30	57240.73
637.49	57883.79
637.69	57369.75
637.88	57910.41
638.08	57398.42
638.27	58047.63
638.46	57543.83
638.66	57316.50
638.85	57767.05
639.05	57660.56
639.24	57461.91
639.44	57345.17
639.63	57167.00
639.83	57625.74
640.02	57853.07
640.22	57588.88
640.41	57816.21
640.61	57216.15
640.80	57541.78
640.99	57183.38
641.19	58283.14
641.38	57615.50
641.58	57408.66
641.77	57472.15
641.97	57357.46
642.16	57515.15
642.36	57588.88
642.55	57668.75
642.74	57425.04
642.94	57957.52
643.13	57431.19
643.33	57982.09
643.52	57709.71
643.72	57867.40
643.91	57787.53
644.10	57832.59
644.30	57631.89
644.49	57504.91
644.69	57713.81
644.88	57545.87
645.08	57210.01
645.27	57461.91
645.46	57533.59
645.66	57457.81
645.85	57717.90
646.05	57451.67
646.24	57418.90
646.43	57719.95
646.63	57754.77
646.82	58035.34
647.02	57558.16
647.21	58143.88
647.40	57795.73
647.60	57812.11
647.79	58072.20
647.99	57705.62
648.18	57627.79
648.37	57816.21
648.57	57644.18
648.76	58141.83
648.96	57652.37
649.15	57746.57
649.34	57797.77
649.54	57693.33
649.73	57926.80
649.92	57543.83
650.12	57848.97
650.31	58287.24
650.51	57412.76
650.70	57590.93
650.89	57828.49
651.09	58274.95
651.28	57701.52
651.47	58004.62
651.67	57930.89
651.86	58123.40
652.06	57390.23
652.25	57531.54
652.44	58098.83
652.64	57400.47
652.83	57728.14
653.02	57326.74
653.22	57664.66
653.41	57443.48
653.60	57373.84
653.80	57681.04
653.99	57513.11
654.18	57629.84
654.38	57779.34
654.57	57416.85
654.76	57891.98
654.96	57619.60
655.15	57803.92
655.34	57707.66
655.54	57431.19
655.73	57486.48
655.92	57910.41
656.12	57517.20
656.31	57429.14
656.50	57357.46
656.70	57461.91
656.89	57545.87
657.08	57722.00
657.28	57420.95
657.47	57734.29
657.66	57638.03
657.86	57447.57
658.05	57205.91
658.24	57220.25
658.43	57273.49
658.63	57554.07
658.82	57650.32
659.01	57633.94
659.21	57848.97
659.40	57865.36
659.59	57253.01
659.79	57853.07
659.98	57232.53
660.17	58156.17
660.36	57183.38
660.56	57771.15
660.75	57111.70
660.94	57732.24
661.14	57601.17
661.33	57560.21
661.52	57261.21
661.71	57357.46
661.91	56833.18
662.10	57119.90
662.29	57752.72
662.49	57851.02
662.68	57703.57
662.87	57633.94
663.06	57126.04
663.26	57119.90
663.45	57488.53
663.64	57296.02
663.83	58125.45
664.03	57531.54
664.22	57887.88
664.41	57351.32
664.60	56896.67
664.80	57035.93
664.99	57480.34
665.18	56923.29
665.37	57255.06
665.57	57283.73
665.76	57048.22
665.95	57261.21
666.14	57132.18
666.34	56923.29
666.53	57089.18
666.72	56806.56
666.91	56849.56
667.11	56773.79
667.30	57306.26
667.49	56976.54
667.68	56683.68
667.87	56437.92
668.07	57218.20
668.26	57341.08
668.45	57201.82
668.64	57015.45
668.84	57582.74
669.03	57279.64
669.22	56698.01
669.41	56771.74
669.60	57324.69
669.80	56835.23
669.99	57334.93
670.18	56990.87
670.37	56984.73
670.57	56962.20
670.76	56818.84
670.95	57179.29
671.14	56417.44
671.33	56431.78
671.53	57476.24
671.72	56853.66
671.91	56945.82
672.10	56300.71
672.29	56859.80
672.48	56833.18
672.68	56865.95
672.87	56601.76
673.06	56325.28
673.25	56358.05
673.44	56188.07
673.64	56337.57
673.83	56640.67
674.02	56112.30
674.21	56028.33
674.40	56835.23
674.59	56319.14
674.79	56251.56
674.98	56112.30
675.17	56792.22
675.36	55977.13
675.55	56792.22
675.74	56116.39
675.94	56157.35
676.13	56011.95
676.32	56480.93
676.51	56812.70
676.70	56251.56
676.89	56386.72
677.08	56077.48
677.28	55696.56
677.47	56339.62
677.66	56474.79
677.85	55999.66
678.04	56327.33
678.23	56167.59
678.42	55856.30
678.62	55880.88
678.81	56192.17
679.00	55968.94
679.19	56349.86
679.38	55833.77
679.57	55921.83
679.76	56057.00
679.96	55745.71
680.15	55661.74
680.34	56167.59
680.53	55403.70
680.72	56220.84
680.91	55770.28
681.10	55758.00
681.29	55594.16
681.48	55674.03
681.68	55450.80
681.87	55321.78
682.06	55598.26
682.25	55078.07
682.44	55923.88
682.63	55571.63
682.82	55024.82
683.01	55450.80
683.20	55329.97
683.39	55446.71
683.59	55131.32
683.78	55338.16
683.97	55125.17
684.16	55076.02
684.35	54469.82
684.54	55334.07
684.73	54891.71
684.92	55033.02
685.11	55090.36
685.30	54738.11
685.49	55508.14
685.69	54666.43
685.88	54938.81
686.07	54996.15
686.26	54574.27
686.45	54877.37
686.64	55217.33
686.83	54537.41
687.02	55078.07
687.21	55020.73
687.40	54801.60
687.59	54590.66
687.78	54566.08
687.97	54924.47
688.16	54428.87
688.35	54236.36
688.54	54348.99
688.74	54777.02
688.93	54586.56
689.12	54365.38
689.31	54424.77
689.50	54498.50
689.69	54160.58
689.88	53767.37
690.07	53890.25
690.26	54410.43
690.45	54607.04
690.64	54193.35
690.83	54056.14
691.02	53695.69
691.21	53630.16
691.40	53738.70
691.59	53935.30
691.78	53845.19
691.97	53996.74
692.16	53726.41
692.35	54031.56
692.54	53832.91
692.73	53880.01
692.92	53845.19
693.11	53728.46
693.30	53239.00
693.49	53984.46
693.68	53525.71
693.87	53460.18
694.06	53392.59
694.25	53179.60
694.44	53626.06
694.63	52991.19
694.82	53081.30
695.01	53214.42
695.20	53118.17
695.39	53081.30
695.58	52974.81
695.77	53015.77
695.96	52401.38
696.15	52817.11
696.34	52247.78
696.53	52913.37
696.72	52888.79
696.91	52761.82
697.10	52835.55
697.29	52800.73
697.48	52731.10
697.67	52706.52
697.86	52622.56
698.05	51907.82
698.24	52636.89
698.43	52147.43
698.62	52810.97
698.81	52341.99
699.00	52417.76
699.19	52098.28
699.38	52569.31
699.57	52067.56
699.76	52747.48
699.95	52217.06
700.14	52194.53
700.32	51647.72
700.51	52075.75
700.70	52108.52
700.89	52178.15
701.08	51999.97
701.27	51776.75
701.46	52395.23
701.65	51059.96
701.84	51649.77
702.03	51385.58
702.22	51727.59
702.41	51795.18
702.60	51870.95
702.79	52047.08
702.98	51262.71
703.17	51750.12
703.35	51123.44
703.54	51619.05
703.73	51946.73
703.92	52129.00
704.11	51367.15
704.30	51162.36
704.49	51516.65
704.68	51154.16
704.87	51225.84
705.06	50832.63
705.25	51203.31
705.43	51205.36
705.62	50939.13
705.81	50855.16
706.00	50963.70
706.19	50695.42
706.38	50775.29
706.57	51029.24
706.76	50568.44
706.95	50783.48
707.14	50547.96
707.32	51141.88
707.51	50851.06
707.70	50525.44
707.89	50877.69
708.08	50504.96
708.27	50271.49
708.46	50418.94
708.65	50334.98
708.84	50271.49
709.02	50533.63
709.21	50181.38
709.40	50267.39
709.59	50185.47
709.78	49423.63
709.97	50154.75
710.16	49947.91
710.34	49802.50
710.53	50271.49
710.72	50081.03
710.91	50021.64
711.10	50164.99
711.29	49921.29
711.48	49849.61
711.66	49739.02
711.85	49497.36
712.04	49356.05
712.23	49329.42
712.42	49497.36
712.61	49288.46
712.80	49540.36
712.98	49771.78
713.17	49159.44
713.36	49288.46
713.55	49466.64
713.74	49155.35
713.93	49392.91
714.11	49341.71
714.30	49179.92
714.49	49098.00
714.68	49227.02
714.87	48821.53
715.06	49292.56
715.24	48905.49
715.43	49007.89
715.62	49116.43
715.81	48655.64
716.00	48895.25
716.18	48645.40
716.37	48094.50
716.56	48305.44
716.75	48913.69
716.94	48598.30
717.12	48114.98
717.31	48495.90
717.50	48358.69
717.69	48624.92
717.88	48307.49
718.06	48074.02
718.25	48500.00
718.44	47527.21
718.63	47955.24
718.82	48002.34
719.00	47766.82
719.19	47955.24
719.38	48004.39
719.57	47424.81
719.76	47217.97
719.94	47134.00
720.13	47719.72
720.32	47631.66
720.51	47322.41
720.69	47439.15
720.88	47201.58
721.07	47418.67
721.26	47461.68
721.44	47043.89
721.63	46843.19
721.82	46685.50
722.01	46914.87
722.20	46988.60
722.38	46685.50
722.57	46437.69
722.76	46611.77
722.95	46603.58
723.13	46255.42
723.32	46443.84
723.51	46038.34
723.70	46048.58
723.88	46282.05
724.07	45806.92
724.26	46273.85
724.44	45563.21
724.63	46091.58
724.82	46114.11
725.01	46071.10
725.19	45925.70
725.38	45630.79
725.57	46050.63
725.76	45745.48
725.94	45509.96
726.13	45669.70
726.32	46112.06
726.51	45356.36
726.69	45950.27
726.88	45880.64
727.07	46017.86
727.25	45636.94
727.44	45999.43
727.63	45407.56
727.82	45403.47
728.00	45851.97
728.19	45237.58
728.38	45290.83
728.56	45137.23
728.75	45815.11
728.94	44903.76
729.12	45280.59
729.31	45299.02
729.50	44916.05
729.69	45661.51
729.87	45198.67
730.06	44993.87
730.25	45202.77
730.43	45471.05
730.62	45213.01
730.81	45528.39
730.99	45434.19
731.18	44997.97
731.37	45057.36
731.55	45210.96
731.74	45342.03
731.93	45133.14
732.11	45124.94
732.30	44850.52
732.49	44731.73
732.67	44862.80
732.86	45206.86
733.05	44901.71
733.23	44365.15
733.42	44737.88
733.61	44418.39
733.79	45026.64
733.98	44815.70
734.17	44889.43
734.35	45100.37
734.54	44764.50
734.73	45008.21
734.91	44713.30
735.10	44545.37
735.29	44846.42
735.47	44227.93
735.66	44242.27
735.84	45043.02
736.03	44457.31
736.22	44563.80
736.40	44262.75
736.59	44827.99
736.78	44148.06
736.96	44414.30
737.15	44186.97
737.33	44037.47
737.52	43885.92
737.71	44014.94
737.89	44053.86
738.08	44080.48
738.27	44103.01
738.45	44641.62
738.64	44178.78
738.82	43951.46
739.01	44213.60
739.20	43748.71
739.38	44105.06
739.57	43935.07
739.75	43826.53
739.94	43941.22
740.13	43455.85
740.31	44023.14
740.50	44227.93
740.68	43857.25
740.87	43654.50
741.06	43758.95
741.24	43226.48
741.43	43154.80
741.61	43930.98
741.80	43314.54
741.99	43150.70
742.17	43373.93
742.36	43476.33
742.54	43136.37
742.73	43306.35
742.91	43750.76
743.10	43382.12
743.29	43070.83
743.47	43451.75
743.66	43167.09
743.84	43359.59
744.03	43418.99
744.21	42669.43
744.40	43240.81
744.59	42575.22
744.77	42847.60
744.96	42911.09
745.14	42825.07
745.33	42923.38
745.51	42646.90
745.70	42937.71
745.88	42755.44
746.07	42691.96
746.26	42478.97
746.44	42452.34
746.63	42399.10
746.81	42427.77
747.00	42415.48
747.18	42618.23
747.37	42534.26
747.55	42300.79
747.74	42419.58
747.92	42317.18
748.11	42184.06
748.29	42364.28
748.48	41774.47
748.66	42331.51
748.85	42395.00
749.03	42165.63
749.22	42366.33
749.41	41686.40
749.59	41811.33
749.78	41977.22
749.96	41344.39
750.15	41866.63
750.33	42046.85
750.52	41737.60
750.70	41702.79
750.89	41813.38
751.07	41573.77
751.26	41541.00
751.44	41391.50
751.63	41926.02
751.81	41387.40
752.00	41383.30
752.18	41643.40
752.37	41713.03
752.55	41305.48
752.74	41364.87
752.92	41213.32
753.10	41145.74
753.29	41432.46
753.47	40922.51
753.66	40809.87
753.84	41309.58
754.03	40924.56
754.21	41059.73
754.40	40879.50
754.58	40992.14
754.77	40969.61
754.95	40752.53
755.14	40666.52
755.32	41094.54
755.51	40541.59
755.69	40478.10
755.88	40342.94
756.06	40379.80
756.24	40566.16
756.43	40256.92
756.61	40820.11
756.80	40324.50
756.98	40134.04
757.17	40471.96
757.35	40340.89
757.54	40488.34
757.72	40064.41
757.90	40232.35
758.09	39765.41
758.27	40349.08
758.46	40334.74
758.64	40013.21
758.83	40080.80
759.01	39581.09
759.19	39810.46
759.38	40002.97
759.56	39982.49
759.75	39482.79
759.93	39650.72
760.12	39611.81
760.30	39261.61
760.48	39904.67
760.67	39574.95
760.85	39742.88
761.04	39869.86
761.22	39525.80
761.40	39329.19
761.59	39536.04
761.77	39288.23
761.96	39259.56
762.14	38864.30
762.32	38948.27
762.51	39327.14
762.69	38964.65
762.88	39130.54
763.06	39206.31
763.24	39321.00
763.43	39304.62
763.61	38696.37
763.80	38960.56
763.98	38892.97
764.16	38718.90
764.35	38573.49
764.53	38327.74
764.72	38456.76
764.90	38706.61
765.08	38809.01
765.27	38759.86
765.45	38364.60
765.63	37926.33
765.82	38192.57
766.00	38190.52
766.18	38094.27
766.37	38196.67
766.55	38133.18
766.74	38514.10
766.92	38272.44
767.10	38120.89
767.29	38292.92
767.47	37754.30
767.65	37993.92
767.84	37311.94
768.02	37832.13
768.20	37678.53
768.39	37823.93
768.57	37604.80
768.75	37856.70
768.94	37348.81
769.12	37500.36
769.30	37352.90
769.49	37438.92
769.67	37334.47
769.85	37084.62
770.04	37184.97
770.22	37225.93
770.40	37244.36
770.59	36689.36
770.77	37463.49
770.95	37234.12
771.14	37094.86
771.32	36799.95
771.50	36933.07
771.69	36810.19
771.87	36898.25
772.05	36593.11
772.24	36482.52
772.42	36376.02
772.60	36429.27
772.78	36197.85
772.97	35982.81
773.15	36345.30
773.33	36494.80
773.52	36013.53
773.70	36562.39
773.88	36462.04
774.07	36154.84
774.25	36163.03
774.43	36490.71
774.61	36386.26
774.80	36697.55
774.98	36224.47
775.16	35966.43
775.34	36492.76
775.53	36363.73
775.71	36486.61
775.89	36240.86
776.08	36376.02
776.26	36152.79
776.44	36496.85
776.62	36464.08
776.81	36163.03
776.99	36328.92
777.17	36206.04
777.35	36390.36
777.54	36873.68
777.72	36171.22
777.90	36476.37
778.08	36765.14
778.27	36685.26
778.45	36820.43
778.63	36861.39
778.81	36396.50
779.00	36914.64
779.18	36537.81
779.36	36603.35
779.54	36539.86
779.73	36464.08
779.91	37082.57
780.09	36750.80
780.27	37203.40
780.46	36955.60
780.64	36756.94
780.82	36756.94
781.00	36654.54
781.19	36963.79
781.37	36732.37
781.55	36697.55
781.73	36894.16
781.91	36984.27
782.10	36705.74
782.28	36957.64
782.46	36982.22
782.64	36939.21
782.82	36580.82
783.01	36672.98
783.19	36720.08
783.37	36695.50
783.55	36638.16
783.74	37021.13
783.92	36437.46
784.10	37057.99
784.28	36894.16
784.46	36445.65
784.64	36935.12
784.83	36511.19
785.01	36963.79
785.19	37084.62
785.37	36672.98
785.55	36941.26
785.74	36627.92
785.92	36093.40
786.10	36537.81
786.28	36640.21
786.46	36535.76
786.64	36470.23
786.83	36181.46
787.01	36363.73
787.19	35898.84
787.37	36126.17
787.55	36638.16
787.74	36595.15
787.92	36703.70
788.10	36689.36
788.28	36023.77
788.46	36556.24
788.64	35978.72
788.82	36068.83
789.01	36095.45
789.19	36089.31
789.37	35810.78
789.55	35950.04
789.73	35569.12
789.91	35251.69
790.09	35632.61
790.28	35597.79
790.46	35646.94
790.64	35579.36
790.82	35620.32
791.00	35272.17
791.18	35257.83
791.36	35032.55
791.55	35163.62
791.73	35376.61
791.91	34952.68
792.09	35323.36
792.27	35116.52
792.45	34999.79
792.63	34627.06
792.81	34530.80
793.00	34397.68
793.18	34784.75
793.36	34455.03
793.54	34483.70
793.72	34342.39
793.90	34397.68
794.08	34190.84
794.26	34121.21
794.44	34176.50
794.62	33897.98
794.81	34037.24
794.99	34004.47
795.17	33617.41
795.35	33674.75
795.53	33650.17
795.71	33914.36
795.89	33719.81
796.07	33699.33
796.25	33488.38
796.43	33232.39
796.61	33324.55
796.80	33185.29
796.98	32962.06
797.16	32790.03
797.34	32609.81
797.52	32321.04
797.70	32845.32
797.88	32790.03
798.06	32366.10
798.24	32437.78
798.42	32392.72
798.60	32405.01
798.78	32456.21
798.96	32609.81
799.14	32075.29
799.32	32618.00
799.51	31686.17
799.69	32134.68
799.87	32028.18
800.05	31581.73
800.23	31972.89
800.41	31761.95
800.59	31626.78
800.77	31464.99
800.95	31417.89
801.13	31370.79
801.31	31223.33
801.49	31475.23
801.67	31176.23
801.85	31491.62
802.03	31016.49
802.21	31008.29
802.39	30938.66
802.57	31028.77
802.75	30713.39
802.93	30682.67
803.11	30590.51
803.29	30469.68
803.47	30600.75
803.65	30420.53
803.83	30213.68
804.01	30461.49
804.19	30010.93
804.37	30004.79
804.55	29896.25
804.73	30123.57
804.91	30000.69
805.09	30201.40
805.27	29898.30
805.45	29707.83
805.63	30172.72
805.81	29646.40
805.99	29738.55
806.17	29437.50
806.35	29599.29
806.53	29290.05
806.71	29265.47
806.89	29490.75
807.07	29048.39
807.25	29402.69
807.43	29341.25
807.61	29210.18
807.79	29138.50
807.97	28749.39
808.15	28745.29
808.33	28728.91
808.51	28776.01
808.69	29156.93
808.87	28769.86
809.05	28489.29
809.23	28442.19
809.41	28253.78
809.59	28477.01
809.77	28434.00
809.95	28507.72
810.13	28417.61
810.31	28180.05
810.49	28149.33
810.67	28126.80
810.84	28124.75
811.02	27995.73
811.20	27795.03
811.38	28024.40
811.56	27766.36
811.74	27510.36
811.92	27928.15
812.10	27702.87
812.28	27379.29
812.46	27786.84
812.64	27442.78
812.82	27582.04
813.00	27102.82
813.18	27580.00
813.36	27211.36
813.53	26934.88
813.71	26900.07
813.89	27197.02
814.07	26941.03
814.25	26984.04
814.43	26834.53
814.61	26793.58
814.79	26646.12
814.97	26695.27
815.15	26697.32
815.33	26498.67
815.50	26388.08
815.68	26738.28
815.86	26760.81
816.04	26463.85
816.22	26803.82
816.40	26396.27
816.58	26273.39
816.76	26009.20
816.94	25953.91
817.11	26357.36
817.29	26082.93
817.47	25781.88
817.65	25763.45
817.83	26156.66
818.01	25683.58
818.19	25863.80
818.37	25544.31
818.54	25239.17
818.72	25304.70
818.90	25579.13
819.08	25736.82
819.26	25570.94
819.44	25593.47
819.62	25480.83
819.80	25742.97
819.97	25382.52
820.15	25288.32
820.33	25118.34
820.51	25441.92
820.69	25423.48
820.87	25431.68
821.05	25517.69
821.22	25396.86
821.40	25040.51
821.58	24952.45
821.76	24837.76
821.94	25108.10
822.12	24731.27
822.29	25015.94
822.47	24821.38
822.65	24911.49
822.83	24979.07
823.01	24594.06
823.19	24661.64
823.36	24379.02
823.54	24626.82
823.72	24393.36
823.90	24329.87
824.08	24065.68
824.25	24350.35
824.43	24241.81
824.61	24206.99
824.79	24163.98
824.97	24084.11
825.15	24243.85
825.32	24227.47
825.50	23774.87
825.68	24137.36
825.86	23926.42
826.04	24116.88
826.21	23738.01
826.39	23762.58
826.57	24123.02
826.75	23928.47
826.93	23649.94
827.10	23533.21
827.28	23936.66
827.46	23684.76
827.64	23623.32
827.81	23488.15
827.99	23574.17
828.17	23447.19
828.35	23244.45
828.53	23379.61
828.70	23451.29
828.88	23287.45
829.06	23422.62
829.24	23314.08
829.41	23119.52
829.59	23293.60
829.77	23170.72
829.95	23015.07
830.12	23146.14
830.30	23336.60
830.48	23068.32
830.66	22793.89
830.84	23217.82
831.01	23135.90
831.19	22994.59
831.37	22863.52
831.55	22996.64
831.72	22730.41
831.90	22761.12
832.08	22947.49
832.25	22654.63
832.43	22664.87
832.61	22437.55
832.79	22642.34
832.96	22726.31
833.14	22632.10
833.32	22496.94
833.50	22642.34
833.67	22517.42
833.85	22589.10
834.03	22318.76
834.20	22482.60
834.38	22380.20
834.56	22412.97
834.74	22171.31
834.91	22630.05
835.09	22187.69
835.27	22073.01
835.44	22054.58
835.62	22013.62
835.80	21903.03
835.98	22159.02
836.15	22113.97
836.33	21915.31
836.51	22257.32
836.68	21681.85
836.86	21655.22
837.04	21919.41
837.21	21792.44
837.39	21812.92
837.57	22308.52
837.75	21681.85
837.92	21792.44
838.10	21499.58
838.28	21487.29
838.45	21604.02
838.63	21395.13
838.81	21608.12
838.98	21429.94
839.16	21259.96
839.34	21274.30
839.51	21427.90
839.69	21126.85
839.87	21235.39
840.04	21092.03
840.22	21425.85
840.40	21161.66
840.57	21032.64
840.75	21032.64
840.93	20887.23
841.10	21006.02
841.28	21161.66
841.46	20848.32
841.63	20942.53
841.81	21001.92
841.98	20995.78
842.16	20872.90
842.34	20922.05
842.51	20594.37
842.69	21219.00
842.87	20649.67
843.04	20713.16
843.22	20704.96
843.40	20960.96
843.57	20678.34
843.75	20670.15
843.92	20737.73
844.10	20993.73
844.28	20573.89
844.45	20901.57
844.63	20661.96
844.81	20483.78
844.98	20491.98
845.16	20342.47
845.33	20580.04
845.51	20303.56
845.69	20281.03
845.86	20254.41
846.04	20268.75
846.21	20424.39
846.39	20125.39
846.57	20299.47
846.74	20211.40
846.92	19902.16
847.09	19799.76
847.27	20037.33
847.45	20045.52
847.62	20076.24
847.80	20098.77
847.97	20016.85
848.15	20070.09
848.32	19812.05
848.50	20123.34
848.68	19961.55
848.85	19693.27
849.03	19715.80
849.20	19754.71
849.38	19742.42
849.56	19883.73
849.73	19265.24
849.91	19865.30
850.08	19752.66
850.26	19455.70
850.43	19560.15
850.61	19457.75
850.78	19324.63
850.96	19386.07
851.14	19203.80
851.31	19341.02
851.49	19197.66
851.66	19418.84
851.84	19680.98
852.01	19320.54
852.19	19324.63
852.36	19302.11
852.54	19181.28
852.71	19406.55
852.89	19390.17
853.07	19203.80
853.24	18990.81
853.42	19189.47
853.59	19211.99
853.77	19359.45
853.94	19177.18
854.12	19158.75
854.29	18898.66
854.47	18874.08
854.64	18947.81
854.82	19056.35
854.99	18743.01
855.17	18755.30
855.34	18509.54
855.52	18773.73
855.69	18896.61
855.87	18487.01
856.04	18693.86
856.22	18611.94
856.39	18556.64
856.57	18540.26
856.74	18683.62
856.92	18523.88
857.09	18513.64
857.27	18423.53
857.44	18706.15
857.62	18468.58
857.79	18351.85
857.97	18210.54
858.14	18282.22
858.32	18093.80
858.49	18312.94
858.67	18280.17
858.84	18349.80
859.02	18288.36
859.19	18022.12
859.37	18097.90
859.54	18118.38
859.72	17870.58
859.89	18071.28
860.06	18204.39
860.24	18007.79
860.41	17977.07
860.59	18015.98
860.76	17817.33
860.94	17989.36
861.11	18069.23
861.29	17671.92
861.46	18108.14
861.64	17600.24
861.81	17686.26
861.98	17712.88
862.16	17667.83
862.33	17516.28
862.51	17405.69
862.68	17698.55
862.86	17512.18
863.03	17579.76
863.21	17415.93
863.38	17368.82
863.55	17417.97
863.73	17239.80
863.90	17530.61
864.08	17325.82
864.25	17467.13
864.43	17231.61
864.60	17278.71
864.77	17184.51
864.95	17313.53
865.12	17133.31
865.30	17102.59
865.47	16973.56
865.64	17045.24
865.82	17065.72
865.99	17041.15
866.17	17116.92
866.34	16979.71
866.51	16895.74
866.69	17028.86
866.86	16824.06
867.04	16709.38
867.21	16879.36
867.38	16764.67
867.56	16748.29
867.73	16617.22
867.91	16676.61
868.08	16617.22
868.25	16465.67
868.43	16480.00
868.60	16525.06
868.78	16621.31
868.95	16637.70
869.12	16666.37
869.30	16262.92
869.47	16660.23
869.64	16305.93
869.82	16289.54
869.99	16508.68
870.16	16437.00
870.34	16099.08
870.51	16340.74
870.69	16115.47
870.86	16144.14
871.03	16094.99
871.21	16054.03
871.38	16056.08
871.55	16142.09
871.73	16043.79
871.90	15666.96
872.07	15697.68
872.25	15658.77
872.42	15712.02
872.59	15734.54
872.77	15671.06
872.94	15712.02
873.11	15660.82
873.29	15742.74
873.46	15539.99
873.63	15732.50
873.81	15597.33
873.98	15460.12
874.15	15460.12
874.33	15449.88
874.50	15218.46
874.67	15460.12
874.85	15273.75
875.02	15339.29
875.19	15013.66
875.37	15261.46
875.54	15300.37
875.71	15302.42
875.88	15052.57
876.06	15019.80
876.23	15216.41
876.40	15118.11
876.58	14827.29
876.75	14999.32
876.92	14927.64
877.10	15038.23
877.27	14792.48
877.44	14722.85
877.61	14595.87
877.79	14741.28
877.96	14874.40
878.13	14919.45
878.31	14442.28
878.48	14526.24
878.65	14448.42
878.82	14583.59
879.00	14413.60
879.17	14397.22
879.34	14571.30
879.51	14399.27
879.69	14454.56
879.86	14626.59
880.03	14421.80
880.21	14124.84
880.38	14219.05
880.55	14440.23
880.72	14372.64
880.90	14518.05
881.07	14360.36
881.24	14145.32
881.41	14278.44
881.59	13993.77
881.76	14298.92
881.93	14110.50
882.10	14223.14
882.28	14001.96
882.45	14198.57
882.62	14075.69
882.79	14110.50
882.96	13971.24
883.14	13893.42
883.31	14075.69
883.48	14141.22
883.65	13936.43
883.83	13948.72
884.00	13909.80
884.17	13983.53
884.34	13920.04
884.51	13688.62
884.69	13909.80
884.86	13999.91
885.03	13967.15
885.20	13717.29
885.38	13815.60
885.55	13897.52
885.72	13694.77
885.89	13803.31
886.06	13743.92
886.24	13592.37
886.41	13698.86
886.58	13662.00
886.75	13815.60
886.92	13453.11
887.10	13682.48
887.27	13371.19
887.44	13696.82
887.61	13754.16
887.78	13696.82
887.95	13528.88
888.13	13399.86
888.30	13561.65
888.47	13559.60
888.64	13291.32
888.81	13442.87
888.99	13260.60
889.16	13260.60
889.33	13223.73
889.50	13240.12
889.67	12963.64
889.84	13117.24
890.01	13053.75
890.19	13240.12
890.36	13031.23
890.53	12961.59
890.70	12990.27
890.87	12965.69
891.04	13002.55
891.22	12988.22
891.39	12887.87
891.56	12885.82
891.73	12842.81
891.90	12826.43
892.07	12867.39
892.24	12906.30
892.42	12638.02
892.59	12926.78
892.76	12627.78
892.93	12873.53
893.10	12857.15
893.27	12805.95
893.44	12879.68
893.61	12699.45
893.79	12937.02
893.96	12767.04
894.13	12687.17
894.30	12552.00
894.47	12771.13
894.64	12660.54
894.81	12607.30
894.98	12678.97
895.15	12414.79
895.33	12519.23
895.50	12584.77
895.67	12535.62
895.84	12719.93
896.01	12535.62
896.18	12412.74
896.35	12652.35
896.52	12554.05
896.69	12707.65
896.86	12599.10
897.04	12566.34
897.21	12566.34
897.38	12515.14
897.55	12625.73
897.72	12681.02
897.89	12332.87
898.06	12465.99
898.23	12769.09
898.40	12318.53
898.57	12631.87
898.74	12398.40
898.91	12508.99
899.08	12461.89
899.26	12631.87
899.43	12488.51
899.60	12427.07
899.77	12590.91
899.94	12441.41
900.11	12349.25
900.28	12486.47
900.45	12363.59
900.62	12457.79
900.79	12277.57
900.96	12488.51
901.13	12431.17
901.30	12422.98
901.47	12406.59
901.64	12363.59
901.81	12281.67
901.98	12392.26
902.15	12543.81
902.32	12322.63
902.49	12142.41
902.66	12207.94
902.83	12275.52
903.01	12312.39
903.18	12513.09
903.35	12384.07
903.52	12296.00
903.69	12347.20
903.86	12308.29
904.03	12429.12
904.20	12443.46
904.37	12343.11
904.54	12394.31
904.71	12361.54
904.88	12353.35
905.05	12230.47
905.22	12289.86
905.39	12101.45
905.56	12345.16
905.73	12064.58
905.90	12224.33
906.07	12298.05
906.24	12107.59
906.41	12142.41
906.58	12300.10
906.75	12365.64
906.92	12095.30
907.09	12476.23
907.26	12005.19
907.43	12007.24
907.60	11999.05
907.77	12199.75
907.93	12166.98
908.10	12097.35
908.27	12269.38
908.44	12105.54
908.61	12119.88
908.78	11970.38
908.95	12019.53
909.12	11831.12
909.29	12007.24
909.46	11974.47
909.63	11894.60
909.80	12058.44
909.97	12050.25
910.14	12037.96
910.31	12074.82
910.48	11992.90
910.65	12109.64
910.82	12177.22
910.99	12062.54
911.16	11761.48
911.33	11685.71
911.50	11906.89
911.66	11798.35
911.83	11751.24
912.00	11755.34
912.17	11822.92
912.34	11802.44
912.51	11556.69
912.68	11671.37
912.85	11804.49
913.02	11757.39
913.19	11609.93
913.36	11741.00
913.53	11747.15
913.70	11542.35
913.86	11597.65
914.03	11661.13
914.20	11515.73
914.37	11378.51
914.54	11521.87
914.71	11439.95
914.88	11403.09
915.05	11575.12
915.22	11390.80
915.39	11401.04
915.55	11231.06
915.72	11169.62
915.89	11306.84
916.06	11358.03
916.23	11183.96
916.40	11075.42
916.57	11237.20
916.74	11181.91
916.91	11138.90
917.07	10979.16
917.24	11089.75
917.41	11046.74
917.58	10884.95
917.75	10835.80
917.92	10889.05
918.09	11046.74
918.26	10891.10
918.42	10999.64
918.59	10989.40
918.76	10882.91
918.93	10755.93
919.10	10741.60
919.27	10686.30
919.44	10743.64
919.60	10733.40
919.77	10561.37
919.94	10479.46
920.11	10342.24
920.28	10444.64
920.45	10383.20
920.61	10235.75
920.78	10174.31
920.95	10215.27
921.12	10458.98
921.29	10311.52
921.46	10411.87
921.62	10162.02
921.79	10231.65
921.96	10094.44
922.13	10241.89
922.30	10067.81
922.47	10028.90
922.63	10051.43
922.80	10166.12
922.97	9938.79
923.14	9846.63
923.31	9996.14
923.47	9760.62
923.64	9965.42
923.81	9750.38
923.98	9717.61
924.15	9666.41
924.32	9613.17
924.48	9639.79
924.65	9475.95
924.82	9471.86
924.99	9502.58
925.15	9490.29
925.32	9494.38
925.49	9578.35
925.66	9320.31
925.83	9228.15
925.99	9150.32
926.16	9193.33
926.33	9226.10
926.50	9248.63
926.67	9314.16
926.83	9140.08
927.00	9156.47
927.17	9080.69
927.34	9154.42
927.50	8961.91
927.67	9123.70
927.84	8933.24
928.01	9049.97
928.17	8767.35
928.34	8912.76
928.51	8667.00
928.68	8767.35
928.84	8664.96
929.01	8765.31
929.18	8546.17
929.35	8576.89
929.51	8570.75
929.68	8820.60
929.85	8546.17
930.02	8462.21
930.18	8544.13
930.35	8462.21
930.52	8316.80
930.69	8466.30
930.85	8126.34
931.02	8247.17
931.19	8318.85
931.36	8157.06
931.52	8109.96
931.69	8083.33
931.86	7991.17
932.02	8017.80
932.19	8105.86
932.36	8054.66
932.53	7966.60
932.69	7923.59
932.86	7937.93
933.03	7874.44
933.19	7827.34
933.36	7653.26
933.53	7751.56
933.70	7749.51
933.86	7540.62
934.03	7737.23
934.20	7540.62
934.36	7530.38
934.53	7430.03
934.70	7442.32
934.86	7540.62
935.03	7294.86
935.20	7266.19
935.36	7245.71
935.53	7221.14
935.70	7073.68
935.86	7079.83
936.03	7108.50
936.20	6987.67
936.36	6868.89
936.53	6707.10
936.70	6864.79
936.86	6766.49
937.03	6717.34
937.20	6514.59
937.36	6727.58
937.53	6399.90
937.70	6545.31
937.86	6408.09
938.03	6297.50
938.20	6262.69
938.36	6201.25
938.53	6279.07
938.70	6055.84
938.86	6018.98
939.03	5887.91
939.20	5828.52
939.36	5869.48
939.53	5746.60
939.70	5980.07
939.86	5564.33
940.03	5619.63
940.19	5547.95
940.36	5408.69
940.53	5441.45
940.69	5300.14
940.86	5269.42
941.03	5255.09
941.19	5294.00
941.36	5162.93
941.52	5291.95
941.69	5021.62
941.86	5189.55
942.02	5046.20
942.19	4970.42
942.35	4917.17
942.52	4923.32
942.69	4876.21
942.85	4939.70
943.02	4845.49
943.18	4831.16
943.35	4765.62
943.52	4673.46
943.68	4669.37
943.85	4618.17
944.01	4569.02
944.18	4552.63
944.35	4513.72
944.51	4609.98
944.68	4413.37
944.84	4358.08
945.01	4544.44
945.17	4435.90
945.34	4495.29
945.51	4442.04
945.67	4454.33
945.84	4413.37
946.00	4339.65
946.17	4413.37
946.33	4421.56
946.50	4505.53
946.67	4347.84
946.83	4327.36
947.00	4335.55
947.16	4390.84
947.33	4353.98
947.49	4347.84
947.66	4239.30
947.82	4419.52
947.99	4310.97
948.16	4356.03
948.32	4284.35
948.49	4405.18
948.65	4241.34
948.82	4333.50
948.98	4452.28
949.15	4245.44
949.31	4335.55
949.48	4267.97
949.64	4349.89
949.81	4306.88
949.97	4382.65
950.14	4345.79
950.30	4278.21
950.47	4366.27
950.63	4247.49
950.80	4296.64
950.96	4284.35
951.13	4177.86
951.30	4310.97
951.46	4345.79
951.63	4280.25
951.79	4489.15
951.96	4476.86
952.12	4403.13
952.29	4401.08
952.45	4317.12
952.62	4384.70
952.78	4394.94
952.94	4378.56
953.11	4409.28
953.27	4298.69
953.44	4444.09
953.60	4425.66
953.77	4458.43
953.93	4323.26
954.10	4499.39
954.26	4399.04
954.43	4358.08
954.59	4462.52
954.76	4435.90
954.92	4394.94
955.09	4454.33
955.25	4399.04
955.42	4349.89
955.58	4470.72
955.75	4493.24
955.91	4483.00
956.07	4343.74
956.24	4353.98
956.40	4495.29
956.57	4374.46
956.73	4382.65
956.90	4382.65
957.06	4448.19
957.23	4399.04
957.39	4485.05
957.56	4360.13
957.72	4478.91
957.88	4415.42
958.05	4474.81
958.21	4530.11
958.38	4286.40
958.54	4442.04
958.71	4528.06
958.87	4462.52
959.03	4435.90
959.20	4319.17
959.36	4431.80
959.53	4372.41
959.69	4386.75
959.85	4587.45
960.02	4419.52
960.18	4454.33
960.35	4423.61
960.51	4521.92
960.68	4478.91
960.84	4356.03
961.00	4466.62
961.17	4378.56
961.33	4399.04
961.50	4413.37
961.66	4409.28
961.82	4409.28
961.99	4433.85
962.15	4417.47
962.31	4425.66
962.48	4388.80
962.64	4403.13
962.81	4495.29
962.97	4452.28
963.13	4425.66
963.30	4396.99
963.46	4523.96
963.62	4392.89
963.79	4411.32
963.95	4343.74
964.12	4405.18
964.28	4450.24
964.44	4384.70
964.61	4411.32
964.77	4403.13
964.93	4435.90
965.10	4292.54
965.26	4169.66
965.42	4202.43
965.59	4337.60
965.75	4151.23
965.92	4298.69
966.08	4239.30
966.24	4210.62
966.41	4212.67
966.57	4214.72
966.73	4278.21
966.90	4298.69
967.06	4265.92
967.22	4229.06
967.39	4235.20
967.55	4284.35
967.71	4147.14
967.88	4155.33
968.04	4249.54
968.20	4153.28
968.37	4069.31
968.53	4147.14
968.69	4163.52
968.85	4147.14
969.02	4227.01
969.18	4220.86
969.34	4130.75
969.51	4159.42
969.67	4114.37
969.83	4126.66
970.00	4177.86
970.16	4218.82
970.32	4104.13
970.48	4202.43
970.65	4104.13
970.81	4077.51
970.97	4134.85
971.14	4110.27
971.30	4081.60
971.46	4097.99
971.63	4202.43
971.79	4149.18
971.95	4016.07
972.11	3981.25
972.28	4030.40
972.44	4122.56
972.60	3925.96
972.76	4001.73
972.93	3971.01
973.09	4028.35
973.25	4020.16
973.42	4038.59
973.58	3973.06
973.74	3985.35
973.90	3971.01
974.07	3901.38
974.23	4007.87
974.39	3874.76
974.55	3850.18
974.72	3983.30
974.88	3938.24
975.04	3989.44
975.20	3917.76
975.37	3782.60
975.53	3934.15
975.69	3778.50
975.85	3858.37
976.01	3844.04
976.18	3778.50
976.34	3829.70
976.50	3854.28
976.66	3854.28
976.83	3880.90
976.99	3936.20
977.15	3841.99
977.31	3817.41
977.47	3821.51
977.64	3841.99
977.80	3737.54
977.96	3809.22
978.12	3788.74
978.29	3729.35
978.45	3694.54
978.61	3667.91
978.77	3760.07
978.93	3805.13
979.10	3626.95
979.26	3841.99
979.42	3735.50
979.58	3616.71
979.74	3831.75
979.91	3688.39
980.07	3743.69
980.23	3649.48
980.39	3690.44
980.55	3629.00
980.71	3608.52
980.88	3643.34
981.04	3643.34
981.20	3688.39
981.36	3633.10
981.52	3602.38
981.68	3522.51
981.85	3672.01
982.01	3512.27
982.17	3499.98
982.33	3520.46
982.49	3547.08
982.65	3502.03
982.82	3526.60
982.98	3514.31
983.14	3528.65
983.30	3489.74
983.46	3475.40
983.62	3502.03
983.79	3442.64
983.95	3426.25
984.11	3383.24
984.27	3479.50
984.43	3442.64
984.59	3405.77
984.75	3495.88
984.91	3487.69
985.08	3393.48
985.24	3393.48
985.40	3352.52
985.56	3276.75
985.72	3479.50
985.88	3409.87
986.04	3256.27
986.20	3317.71
986.37	3342.28
986.53	3299.28
986.69	3260.37
986.85	3227.60
987.01	3293.13
987.17	3364.81
987.33	3260.37
987.49	3270.61
987.65	3325.90
987.82	3284.94
987.98	3358.67
988.14	3192.78
988.30	3272.65
988.46	3203.02
988.62	3155.92
988.78	3180.50
988.94	3258.32
989.10	3239.89
989.26	3047.38
989.42	3137.49
989.59	3096.53
989.75	3086.29
989.91	3143.63
990.07	3108.82
990.23	3137.49
990.39	3086.29
990.55	3211.22
990.71	3102.67
990.87	3112.91
991.03	3133.39
991.19	3084.24
991.35	3119.06
991.51	3063.76
991.67	3153.87
991.83	3129.30
992.00	3155.92
992.16	2940.88
992.32	3096.53
992.48	3045.33
992.64	2971.60
992.80	3024.85
992.96	2996.18
993.12	2949.08
993.28	2961.36
993.44	3018.71
993.60	2977.75
993.76	3022.80
993.92	2975.70
994.08	3092.43
994.24	2959.31
994.40	2953.17
994.56	3012.56
994.72	2813.91
994.88	2969.55
995.04	2932.69
995.20	2955.22
995.36	2844.63
995.52	2926.55
995.68	2971.60
995.84	2861.01
996.00	2914.26
996.16	2922.45
996.32	2926.55
996.48	2985.94
996.64	2922.45
996.80	2990.03
996.96	2983.89
997.12	2893.78
997.28	2803.67
997.44	2883.54
997.60	2858.96
997.76	2836.44
997.92	2840.53
998.08	2830.29
998.24	2797.53
998.40	2879.44
998.56	2725.85
998.72	2725.85
998.88	2686.94
999.04	2832.34
999.20	2725.85
999.36	2723.80
999.52	2803.67
999.68	2748.37
999.84	2742.23
1000.00	2652.12
1000.16	2740.18
1000.32	2746.33
1000.48	2727.89
1000.64	2701.27
1000.80	2684.89
1000.95	2721.75
1001.11	2668.50
1001.27	2664.41
1001.43	2605.02
1001.59	2570.20
1001.75	2727.89
1001.91	2678.74
1002.07	2600.92
1002.23	2553.82
1002.39	2592.73
1002.55	2615.26
1002.71	2619.35
1002.87	2617.30
1003.03	2611.16
1003.19	2607.06
1003.34	2578.39
1003.50	2572.25
1003.66	2519.00
1003.82	2594.78
1003.98	2635.74
1004.14	2508.76
1004.30	2541.53
1004.46	2482.14
1004.62	2469.85
1004.78	2619.35
1004.94	2494.43
1005.09	2602.97
1005.25	2588.63
1005.41	2543.58
1005.57	2516.95
1005.73	2418.65
1005.89	2484.19
1006.05	2545.63
1006.21	2602.97
1006.37	2488.28
1006.52	2461.66
1006.68	2404.32
1006.84	2551.77
1007.00	2484.19
1007.16	2414.56
1007.32	2459.61
1007.48	2414.56
1007.64	2555.86
1007.79	2430.94
1007.95	2359.26
1008.11	2426.84
1008.27	2428.89
1008.43	2322.40
1008.59	2424.80
1008.75	2432.99
1008.91	2455.51
1009.06	2414.56
1009.22	2506.71
1009.38	2553.82
1009.54	2375.64
1009.70	2445.27
1009.86	2349.02
1010.01	2394.08
1010.17	2422.75
1010.33	2326.49
1010.49	2394.08
1010.65	2328.54
1010.81	2312.16
1010.96	2338.78
1011.12	2287.58
1011.28	2303.96
1011.44	2248.67
1011.60	2260.96
1011.76	2258.91
1011.91	2342.88
1012.07	2234.33
1012.23	2316.25
1012.39	2351.07
1012.55	2301.92
1012.71	2285.53
1012.86	2308.06
1013.02	2385.88
1013.18	2275.29
1013.34	2197.47
1013.50	2209.76
1013.65	2263.01
1013.81	2205.66
1013.97	2203.61
1014.13	2291.68
1014.29	2238.43
1014.44	2228.19
1014.60	2183.13
1014.76	2242.53
1014.92	2267.10
1015.07	2220.00
1015.23	2191.33
1015.39	2193.37
1015.55	2142.18
1015.71	2174.94
1015.86	2093.02
1016.02	2133.98
1016.18	2203.61
1016.34	2220.00
1016.49	2168.80
1016.65	2260.96
1016.81	2144.22
1016.97	2164.70
1017.12	2144.22
1017.28	2103.26
1017.44	2123.74
1017.60	2090.98
1017.75	2041.82
1017.91	2080.74
1018.07	2140.13
1018.23	2131.94
1018.38	2133.98
1018.54	2109.41
1018.70	2228.19
1018.86	2074.59
1019.01	2060.26
1019.17	2123.74
1019.33	2133.98
1019.49	2138.08
1019.64	2090.98
1019.80	2150.37
1019.96	2070.50
1020.12	2039.78
1020.27	2045.92
1020.43	2117.60
1020.59	2129.89
1020.74	2062.30
1020.90	2093.02
1021.06	2090.98
1021.22	2027.49
1021.37	2017.25
1021.53	2037.73
1021.69	2039.78
1021.84	2019.30
1022.00	2015.20
1022.16	2015.20
1022.31	1982.43
1022.47	2043.87
1022.63	1961.95
1022.79	2021.35
1022.94	2088.93
1023.10	2072.54
1023.26	1943.52
1023.41	2031.58
1023.57	1992.67
1023.73	2004.96
1023.88	1980.39
1024.04	1933.28
1024.20	2019.30
1024.35	1953.76
1024.51	1912.80
1024.67	1980.39
1024.82	2031.58
1024.98	1955.81
1025.14	1968.10
1025.29	1972.19
1025.45	1959.91
1025.61	2000.87
1025.76	1939.43
1025.92	1961.95
1026.08	1929.19
1026.23	1923.04
1026.39	1937.38
1026.55	1892.32
1026.70	1966.05
1026.86	1968.10
1027.02	1992.67
1027.17	1888.23
1027.33	1912.80
1027.48	1861.60
1027.64	1894.37
1027.80	1843.17
1027.95	1939.43
1028.11	1828.84
1028.27	1873.89
1028.42	1892.32
1028.58	1923.04
1028.73	1839.08
1028.89	1871.84
1029.05	1939.43
1029.20	1865.70
>>>>>End Processed Spectral Data<<<<<
