SpectraSuite Data File
++++++++++++++++++++++++++++++++++++
Date: Tue Jun 13 12:02:25 CEST 2017
User: INFO_000
Dark Spectrum Present: No
Reference Spectrum Present: No
Number of Sampled Component Spectra: 1
Spectrometers: USB4H00879
Integration Time (usec): 30000 (USB4H00879)
Spectra Averaged: 1 (USB4H00879)
Boxcar Smoothing: 0 (USB4H00879)
Correct for Electrical Dark: No (USB4H00879)
Strobe/Lamp Enabled: No (USB4H00879)
Correct for Detector Non-linearity: No (USB4H00879)
Correct for Stray Light: No (USB4H00879)
Number of Pixels in Processed Spectrum: 3648
>>>>>Begin Processed Spectral Data<<<<<
345.13	1318.89
345.34	1318.89
345.56	1318.89
345.78	1308.65
345.99	1333.23
346.21	1544.17
346.42	1533.93
346.64	1538.02
346.86	1550.31
347.07	1488.87
347.29	1490.92
347.50	1495.02
347.72	1476.59
347.94	1478.63
348.15	1460.20
348.37	1513.45
348.59	1544.17
348.80	1519.59
349.02	1615.85
349.23	1593.32
349.45	1667.05
349.67	1656.81
349.88	1632.23
350.10	1652.71
350.31	1585.13
350.53	1609.70
350.75	1681.38
350.96	1648.61
351.18	1624.04
351.39	1646.57
351.61	1546.22
351.82	1714.15
352.04	1730.53
352.26	1669.09
352.47	1556.46
352.69	1621.99
352.90	1609.70
353.12	1609.70
353.34	1607.66
353.55	1589.22
353.77	1617.90
353.98	1601.51
354.20	1576.94
354.41	1615.85
354.63	1667.05
354.85	1687.53
355.06	1699.81
355.28	1593.32
355.49	1613.80
355.71	1595.37
355.92	1648.61
356.14	1685.48
356.35	1609.70
356.57	1585.13
356.79	1660.90
357.00	1656.81
357.22	1626.09
357.43	1656.81
357.65	1640.42
357.86	1699.81
358.08	1636.33
358.29	1624.04
358.51	1728.49
358.72	1646.57
358.94	1619.94
359.16	1650.66
359.37	1609.70
359.59	1593.32
359.80	1656.81
360.02	1658.85
360.23	1626.09
360.45	1658.85
360.66	1761.25
360.88	1640.42
361.09	1724.39
361.31	1738.73
361.52	1595.37
361.74	1722.34
361.95	1753.06
362.17	1669.09
362.38	1710.05
362.60	1763.30
362.81	1644.52
363.03	1675.24
363.24	1671.14
363.46	1685.48
363.67	1665.00
363.89	1716.20
364.10	1675.24
364.32	1681.38
364.53	1695.72
364.75	1558.50
364.96	1732.58
365.18	1656.81
365.39	1665.00
365.61	1673.19
365.82	1705.96
366.04	1710.05
366.25	1693.67
366.47	1597.42
366.68	1683.43
366.90	1660.90
367.11	1742.82
367.33	1710.05
367.54	1744.87
367.76	1683.43
367.97	1685.48
368.19	1755.11
368.40	1689.57
368.62	1705.96
368.83	1716.20
369.05	1730.53
369.26	1751.01
369.48	1701.86
369.69	1650.66
369.91	1638.38
370.12	1679.33
370.33	1744.87
370.55	1634.28
370.76	1695.72
370.98	1751.01
371.19	1753.06
371.41	1697.77
371.62	1796.07
371.84	1679.33
372.05	1699.81
372.27	1775.59
372.48	1777.64
372.69	1761.25
372.91	1757.16
373.12	1812.45
373.34	1753.06
373.55	1728.49
373.77	1734.63
373.98	1751.01
374.20	1822.69
374.41	1832.93
374.62	1738.73
374.84	1742.82
375.05	1794.02
375.27	1822.69
375.48	1773.54
375.70	1857.51
375.91	1880.04
376.12	1945.57
376.34	1791.97
376.55	1785.83
376.77	1806.31
376.98	1814.50
377.19	1746.92
377.41	1820.64
377.62	1834.98
377.84	1818.60
378.05	1880.04
378.27	1871.84
378.48	1980.39
378.69	1923.04
378.91	1853.41
379.12	1800.16
379.34	1826.79
379.55	1816.55
379.76	1918.95
379.98	1873.89
380.19	1888.23
380.41	1908.71
380.62	1914.85
380.83	1875.94
381.05	1830.88
381.26	1978.34
381.47	1849.32
381.69	1869.80
381.90	1923.04
382.12	1918.95
382.33	1902.56
382.54	1955.81
382.76	1916.90
382.97	1968.10
383.19	1898.47
383.40	1935.33
383.61	1914.85
383.83	1822.69
384.04	1904.61
384.25	1980.39
384.47	1984.48
384.68	1898.47
384.89	1939.43
385.11	1953.76
385.32	1906.66
385.54	1910.75
385.75	1957.86
385.96	1986.53
386.18	1976.29
386.39	1957.86
386.60	2045.92
386.82	2011.11
387.03	2054.11
387.24	2017.25
387.46	2037.73
387.67	2080.74
387.88	2023.39
388.10	2064.35
388.31	2068.45
388.52	2138.08
388.74	2060.26
388.95	2088.93
389.16	2125.79
389.38	2043.87
389.59	2156.51
389.80	2093.02
390.02	2097.12
390.23	2060.26
390.44	2047.97
390.66	2039.78
390.87	2109.41
391.08	2031.58
391.30	2193.37
391.51	2140.13
391.72	2072.54
391.94	2164.70
392.15	2164.70
392.36	2109.41
392.58	2195.42
392.79	2156.51
393.00	2152.42
393.22	2162.66
393.43	2109.41
393.64	2226.14
393.85	2285.53
394.07	2222.05
394.28	2181.09
394.49	2244.57
394.71	2207.71
394.92	2215.90
395.13	2248.67
395.35	2267.10
395.56	2211.81
395.77	2342.88
395.98	2338.78
396.20	2340.83
396.41	2344.92
396.62	2332.64
396.84	2238.43
397.05	2351.07
397.26	2453.47
397.47	2435.03
397.69	2277.34
397.90	2453.47
398.11	2342.88
398.32	2324.44
398.54	2484.19
398.75	2328.54
398.96	2432.99
399.18	2418.65
399.39	2490.33
399.60	2510.81
399.81	2447.32
400.03	2451.42
400.24	2572.25
400.45	2457.56
400.66	2453.47
400.88	2412.51
401.09	2506.71
401.30	2559.96
401.51	2488.28
401.73	2502.62
401.94	2631.64
402.15	2641.88
402.36	2551.77
402.58	2564.06
402.79	2523.10
403.00	2557.91
403.21	2617.30
403.43	2652.12
403.64	2621.40
403.85	2547.67
404.06	2582.49
404.27	2480.09
404.49	2656.22
404.70	2508.76
404.91	2650.07
405.12	2615.26
405.34	2611.16
405.55	2797.53
405.76	2574.30
405.97	2668.50
406.19	2766.81
406.40	2734.04
406.61	2729.94
406.82	2744.28
407.03	2721.75
407.25	2748.37
407.46	2797.53
407.67	2781.14
407.88	2813.91
408.09	2711.51
408.31	2818.00
408.52	2813.91
408.73	2928.60
408.94	2768.85
409.15	2848.72
409.37	2891.73
409.58	2846.68
409.79	2910.16
410.00	2867.16
410.21	2775.00
410.43	2875.35
410.64	2836.44
410.85	2887.64
411.06	2893.78
411.27	2934.74
411.48	2926.55
411.70	3000.27
411.91	2924.50
412.12	2932.69
412.33	3026.90
412.54	2920.40
412.76	3067.86
412.97	2856.92
413.18	2885.59
413.39	2965.46
413.60	3004.37
413.81	3084.24
414.03	2994.13
414.24	2932.69
414.45	3121.10
414.66	3000.27
414.87	3143.63
415.08	3078.10
415.30	3139.54
415.51	3010.51
415.72	3133.39
415.93	3043.28
416.14	3133.39
416.35	3119.06
416.56	3121.10
416.78	3133.39
416.99	3233.74
417.20	3182.54
417.41	3143.63
417.62	3221.45
417.83	3305.42
418.04	3074.00
418.26	3203.02
418.47	3215.31
418.68	3227.60
418.89	3180.50
419.10	3211.22
419.31	3297.23
419.52	3418.06
419.73	3354.57
419.95	3305.42
420.16	3274.70
420.37	3327.95
420.58	3360.72
420.79	3358.67
421.00	3397.58
421.21	3340.24
421.42	3379.15
421.63	3399.63
421.85	3389.39
422.06	3395.53
422.27	3571.66
422.48	3485.64
422.69	3590.09
422.90	3471.31
423.11	3551.18
423.32	3594.19
423.53	3592.14
423.75	3594.19
423.96	3803.08
424.17	3692.49
424.38	3717.06
424.59	3620.81
424.80	3864.52
425.01	3725.26
425.22	3698.63
425.43	3696.58
425.64	3745.73
425.85	3942.34
426.06	3809.22
426.28	3712.97
426.49	3846.09
426.70	3809.22
426.91	3850.18
427.12	3782.60
427.33	3776.45
427.54	3876.80
427.75	3913.67
427.96	3973.06
428.17	3833.80
428.38	3960.77
428.59	3973.06
428.80	3985.35
429.01	3997.64
429.23	4059.07
429.44	4044.74
429.65	4077.51
429.86	4091.84
430.07	3968.96
430.28	4147.14
430.49	4106.18
430.70	4200.38
430.91	4175.81
431.12	4175.81
431.33	4224.96
431.54	4184.00
431.75	4165.57
431.96	4382.65
432.17	4159.42
432.38	4323.26
432.59	4325.31
432.80	4239.30
433.01	4366.27
433.22	4440.00
433.43	4460.48
433.64	4399.04
433.85	4429.76
434.06	4450.24
434.27	4310.97
434.49	4573.11
434.70	4579.26
434.91	4446.14
435.12	4605.88
435.33	4673.46
435.54	4511.68
435.75	4499.39
435.96	4515.77
436.17	4536.25
436.38	4540.35
436.59	4689.85
436.80	4591.55
437.01	4773.82
437.22	4751.29
437.43	4554.68
437.64	4659.13
437.85	4716.47
438.06	4782.01
438.27	4788.15
438.48	4786.10
438.69	4786.10
438.90	4759.48
439.11	4829.11
439.32	4878.26
439.53	4931.51
439.74	4978.61
439.95	4927.41
440.16	4855.73
440.37	4962.23
440.57	4861.88
440.78	4970.42
440.99	5099.44
441.20	4968.37
441.41	4837.30
441.62	4929.46
441.83	4859.83
442.04	5021.62
442.25	5007.28
442.46	4997.04
442.67	5207.98
442.88	5484.46
443.09	4935.60
443.30	5230.51
443.51	4990.90
443.72	5257.14
443.93	5236.66
444.14	5377.97
444.35	5054.39
444.56	5291.95
444.77	5259.18
444.98	5320.62
445.19	5294.00
445.40	5427.12
445.61	5224.37
445.81	5457.84
446.02	5361.58
446.23	5353.39
446.44	5281.71
446.65	5504.94
446.86	5576.62
447.07	5373.87
447.28	5595.05
447.49	5517.23
447.70	5521.32
447.91	5550.00
448.12	5586.86
448.33	5631.91
448.54	5691.31
448.74	5560.24
448.95	5609.39
449.16	5523.37
449.37	5730.22
449.58	5746.60
449.79	5863.33
450.00	5711.78
450.21	5836.71
450.42	5875.62
450.63	5818.28
450.84	5842.85
451.05	5869.48
451.25	5906.34
451.46	5900.20
451.67	5912.49
451.88	6055.84
452.09	5961.64
452.30	6051.75
452.51	6037.41
452.72	6092.71
452.93	6229.92
453.13	6123.43
453.34	6104.99
453.55	6098.85
453.76	6274.98
453.97	6346.66
454.18	6301.60
454.39	6381.47
454.60	6317.98
454.81	6313.89
455.01	6481.82
455.22	6416.29
455.43	6295.46
455.64	6533.02
455.85	6539.16
456.06	6616.99
456.27	6481.82
456.48	6571.93
456.68	6576.03
456.89	6647.71
457.10	6748.06
457.31	6604.70
457.52	6621.08
457.73	6840.22
457.94	6793.11
458.14	6727.58
458.35	6979.48
458.56	6924.18
458.77	6819.74
458.98	6948.76
459.19	6795.16
459.39	6989.72
459.60	7073.68
459.81	7047.06
460.02	7245.71
460.23	7114.64
460.44	7460.75
460.65	7239.57
460.85	7354.26
461.06	7473.04
461.27	7266.19
461.48	7522.19
461.69	7565.20
461.89	7135.12
462.10	7468.94
462.31	7493.52
462.52	7401.36
462.73	7487.37
462.94	7769.99
463.14	7733.13
463.35	7536.52
463.56	7819.14
463.77	7905.16
463.98	7956.36
464.18	7843.72
464.39	7968.65
464.60	8038.28
464.81	8228.74
465.02	8025.99
465.23	8101.76
465.43	8281.99
465.64	8339.33
465.85	8150.92
466.06	8208.26
466.27	8482.69
466.47	8351.62
466.68	8451.97
466.89	8400.77
467.10	8734.59
467.30	8314.75
467.51	8578.94
467.72	8718.20
467.93	8675.20
468.14	8712.06
468.34	8759.16
468.55	8755.07
468.76	8867.70
468.97	8904.57
469.17	9013.11
469.38	8994.68
469.59	9121.65
469.80	9011.06
470.01	9109.36
470.21	9254.77
470.42	9318.26
470.63	9453.42
470.84	9287.54
471.04	9402.22
471.25	9502.58
471.46	9496.43
471.67	9635.69
471.87	9559.92
472.08	9701.23
472.29	9846.63
472.50	9660.27
472.70	9658.22
472.91	9836.39
473.12	9953.13
473.33	10094.44
473.53	10334.05
473.74	10190.69
473.95	10295.14
474.16	10467.17
474.36	10465.12
474.57	10420.06
474.78	10753.88
474.99	10501.98
475.19	10407.78
475.40	10768.22
475.61	10839.90
475.81	10966.87
476.02	11124.57
476.23	10899.29
476.44	11007.83
476.64	11302.74
476.85	11382.61
477.06	11296.60
477.27	11736.91
477.47	11362.13
477.68	11519.82
477.89	11712.33
478.09	11745.10
478.30	11935.56
478.51	11964.23
478.71	11915.08
478.92	11937.61
479.13	12195.65
479.34	12334.92
479.54	12257.09
479.75	12281.67
479.96	12363.59
480.16	12496.71
480.37	12828.48
480.58	12472.13
480.78	12793.66
480.99	12830.52
481.20	12943.16
481.41	13084.47
481.61	13092.66
481.82	12945.21
482.03	13152.06
482.23	13338.42
482.44	13170.49
482.65	13344.56
482.85	13367.09
483.06	13430.58
483.27	13571.89
483.47	13557.55
483.68	13727.53
483.89	13899.56
484.09	13829.93
484.30	13932.33
484.51	14126.89
484.71	14311.21
484.92	14208.81
485.13	14167.85
485.33	14399.27
485.54	14417.70
485.75	14692.13
485.95	14628.64
486.16	14806.81
486.37	14602.02
486.57	14651.17
486.78	14821.15
486.98	14974.75
487.19	15249.18
487.40	15228.70
487.60	15257.37
487.81	15286.04
488.02	15226.65
488.22	15243.03
488.43	15783.70
488.64	15617.81
488.84	15875.85
489.05	15888.14
489.25	15585.04
489.46	16025.36
489.67	16201.48
489.87	15925.00
490.08	16211.72
490.29	16445.19
490.49	16627.46
490.70	16383.75
490.90	16486.15
491.11	16400.13
491.32	16615.17
491.52	16787.20
491.73	16647.94
491.94	16822.02
492.14	16846.59
492.35	17196.79
492.55	17143.55
492.76	17424.12
492.97	17336.06
493.17	17389.30
493.38	17317.62
493.58	17393.40
493.79	17610.48
494.00	17540.85
494.20	17657.59
494.41	17643.25
494.61	17854.19
494.82	17966.83
495.02	17991.41
495.23	17846.00
495.44	17821.42
495.64	17987.31
495.85	18126.57
496.05	18357.99
496.26	18226.92
496.47	18548.45
496.67	18355.94
496.88	18587.36
497.08	18804.45
497.29	18622.18
497.49	18691.81
497.70	18851.55
497.91	19111.64
498.11	18962.14
498.32	19076.83
498.52	19103.45
498.73	19273.43
498.93	18978.53
499.14	19392.22
499.34	19269.34
499.55	19592.92
499.76	19506.90
499.96	19351.26
500.17	19439.32
500.37	19617.49
500.58	19580.63
500.78	19650.26
500.99	19887.82
501.19	20225.74
501.40	19943.12
501.60	19850.96
501.81	19984.08
502.02	20195.02
502.22	20215.50
502.43	19988.18
502.63	20149.96
502.84	20367.05
503.04	20698.82
503.25	20481.74
503.45	20373.19
503.66	20629.19
503.86	20776.64
504.07	20575.94
504.27	20881.09
504.48	21003.97
504.68	20817.60
504.89	21137.09
505.09	20907.71
505.30	21089.98
505.50	20979.39
505.71	21132.99
505.91	21249.72
506.12	21241.53
506.32	21335.74
506.53	21460.66
506.73	21593.78
506.94	21608.12
507.14	21161.66
507.35	21417.66
507.55	21542.58
507.76	21677.75
507.96	21745.33
508.17	21941.94
508.37	21925.55
508.58	22019.76
508.78	21880.50
508.99	22099.63
509.19	22095.53
509.40	22283.95
509.60	22210.22
509.81	22318.76
510.01	22046.38
510.22	22183.60
510.42	22257.32
510.63	22490.79
510.83	22716.07
511.04	22433.45
511.24	22597.29
511.44	22548.14
511.65	22742.69
511.85	22412.97
512.06	22849.19
512.26	23053.98
512.47	23000.74
512.67	22894.24
512.88	23049.89
513.08	22795.94
513.29	22996.64
513.49	22851.24
513.69	23058.08
513.90	22906.53
514.10	23248.54
514.31	23254.69
514.51	23269.02
514.72	23250.59
514.92	22898.34
515.13	23705.24
515.33	23574.17
515.53	23377.56
515.74	23240.35
515.94	23531.16
516.15	23512.73
516.35	23451.29
516.56	23864.98
516.76	23541.40
516.96	23928.47
517.17	23903.89
517.37	23832.21
517.58	23961.23
517.78	24139.41
517.99	24024.72
518.19	24446.60
518.39	24059.54
518.60	24393.36
518.80	24252.05
519.01	24450.70
519.21	24589.96
519.41	24286.86
519.62	24090.26
519.82	24700.55
520.03	24641.16
520.23	24938.12
520.43	24764.04
520.64	25130.62
520.84	25038.47
521.05	24686.22
521.25	25046.66
521.45	24903.30
521.66	25157.25
521.86	25058.95
522.07	25179.78
522.27	25173.63
522.47	25472.64
522.68	25417.34
522.88	25484.92
523.08	25597.56
523.29	25663.10
523.49	25747.06
523.70	25742.97
523.90	25863.80
524.10	25609.85
524.31	25738.87
524.51	25859.70
524.71	26033.78
524.92	25874.04
525.12	26400.37
525.33	26031.73
525.53	26482.28
525.73	26439.28
525.94	26601.07
526.14	26648.17
526.34	26447.47
526.55	26631.79
526.75	26701.42
526.95	26744.42
527.16	26816.10
527.36	27123.30
527.56	26527.34
527.77	27235.94
527.97	26805.86
528.17	27240.03
528.38	27612.76
528.58	27580.00
528.78	27618.91
528.99	27285.09
529.19	27616.86
529.39	27539.04
529.60	27922.01
529.80	27713.11
530.00	27692.63
530.21	27954.77
530.41	28251.73
530.61	27872.85
530.82	28423.76
531.02	28284.50
531.22	28167.76
531.43	28474.96
531.63	28505.68
531.83	28769.86
532.04	28741.19
532.24	28413.52
532.44	28739.15
532.64	29019.72
532.85	28892.74
533.05	28837.45
533.25	28984.90
533.46	29107.78
533.66	29263.43
533.86	28995.14
534.07	29795.90
534.27	29427.26
534.47	29285.95
534.67	29271.62
534.88	29681.21
535.08	29384.26
535.28	29845.05
535.49	29750.84
535.69	30152.24
535.89	30072.37
536.09	30047.80
536.30	30342.70
536.50	30201.40
536.70	30225.97
536.91	30260.79
537.11	30242.35
537.31	30639.66
537.51	30621.23
537.72	30780.97
537.92	30823.98
538.12	30948.90
538.32	31028.77
538.53	31014.44
538.73	30948.90
538.93	30823.98
539.13	30914.09
539.34	31082.02
539.54	31110.69
539.74	31247.91
539.94	31647.26
540.15	31421.98
540.35	31284.77
540.55	31809.05
540.75	31555.10
540.96	31710.75
541.16	31706.65
541.36	31907.35
541.56	31901.21
541.77	31882.78
541.97	31909.40
542.17	31991.32
542.37	32065.05
542.58	32163.35
542.78	32097.81
542.98	32302.61
543.18	32429.59
543.38	32675.34
543.59	32323.09
543.79	32603.66
543.99	32808.46
544.19	32517.65
544.40	32837.13
544.60	32792.08
544.80	32841.23
545.00	32652.81
545.20	32968.20
545.41	33054.22
545.61	33021.45
545.81	33369.60
546.01	32947.72
546.21	33154.57
546.42	33132.04
546.62	33345.03
546.82	33275.40
547.02	33474.05
547.22	33611.26
547.43	33115.65
547.63	33295.88
547.83	33555.97
548.03	33639.93
548.23	33510.91
548.44	33451.52
548.64	33598.98
548.84	33740.29
549.04	33687.04
549.24	34364.92
549.45	34137.59
549.65	33598.98
549.85	34106.87
550.05	33975.80
550.25	34012.66
550.45	34395.64
550.66	33924.60
550.86	34061.82
551.06	34690.54
551.26	34334.20
551.46	34448.88
551.66	34233.85
551.87	34125.30
552.07	34416.11
552.27	34653.68
552.47	34760.17
552.67	34438.64
552.87	34002.43
553.07	34788.85
553.28	34782.70
553.48	34471.41
553.68	34932.20
553.88	35298.79
554.08	34684.40
554.28	34983.40
554.48	34723.31
554.69	35100.14
554.89	35071.46
555.09	34829.80
555.29	34805.23
555.49	34889.20
555.69	35239.40
555.89	35153.38
556.10	34919.92
556.30	34729.45
556.50	35065.32
556.70	35153.38
556.90	34948.59
557.10	35134.95
557.30	34588.14
557.50	35325.41
557.70	35415.52
557.91	35511.78
558.11	35087.85
558.31	35671.52
558.51	35331.56
558.71	35696.10
558.91	35882.46
559.11	35472.87
559.31	35515.87
559.51	35423.72
559.72	35343.84
559.92	35935.71
560.12	35720.67
560.32	35714.53
560.52	35659.23
560.72	35587.55
560.92	35575.27
561.12	35745.25
561.32	36468.18
561.52	35933.66
561.72	36015.58
561.93	35939.80
562.13	35927.52
562.33	35829.21
562.53	36058.59
562.73	35784.16
562.93	35945.95
563.13	36007.39
563.33	36027.87
563.53	36447.70
563.73	35952.09
563.93	35993.05
564.13	36167.13
564.33	36494.80
564.53	36122.07
564.74	36558.29
564.94	36629.97
565.14	36505.04
565.34	35876.32
565.54	36261.33
565.74	36257.24
565.94	36345.30
566.14	36351.45
566.34	36025.82
566.54	36896.20
566.74	36101.59
566.94	36607.44
567.14	36642.26
567.34	36533.71
567.54	36591.06
567.74	36521.43
567.94	36378.07
568.14	36951.50
568.34	36926.92
568.54	36152.79
568.74	36859.34
568.94	36793.81
569.14	36758.99
569.34	36535.76
569.54	36902.35
569.75	36652.50
569.95	36961.74
570.15	37418.44
570.35	37213.64
570.55	36840.91
570.75	36982.22
570.95	36763.09
571.15	37252.55
571.35	36898.25
571.55	37619.14
571.75	37137.87
571.95	37311.94
572.15	37447.11
572.35	37332.42
572.55	37017.04
572.75	37258.70
572.95	37705.15
573.15	37340.61
573.35	37569.99
573.55	36998.60
573.75	37109.19
573.95	37580.23
574.15	37277.13
574.35	37690.82
574.55	37590.47
574.75	37752.26
574.95	37809.60
575.15	37459.40
575.34	37488.07
575.54	37934.53
575.74	37916.09
575.94	37852.61
576.14	37785.02
576.34	38165.95
576.54	37887.42
576.74	37981.63
576.94	37742.02
577.14	38124.99
577.34	38153.66
577.54	37914.05
577.74	38251.96
577.94	38147.51
578.14	38098.36
578.34	38286.78
578.54	37961.15
578.74	37895.61
578.94	38022.59
579.14	38139.32
579.34	38198.71
579.54	38499.76
579.74	38581.68
579.94	38671.79
580.13	38669.75
580.33	38264.25
580.53	38184.38
580.73	38770.10
580.93	38542.77
581.13	38874.54
581.33	38575.54
581.53	39042.48
581.73	38684.08
581.93	38763.95
582.13	38655.41
582.33	38991.28
582.53	39083.44
582.73	38667.70
582.92	38923.69
583.12	39239.08
583.32	38972.85
583.52	38802.86
583.72	39574.95
583.92	38501.81
584.12	39163.31
584.32	39632.29
584.52	39470.50
584.72	39191.98
584.92	39538.08
585.11	39779.74
585.31	39781.79
585.51	39370.15
585.71	39060.91
585.91	39546.28
586.11	39228.84
586.31	39138.73
586.51	39607.72
586.71	39773.60
586.91	39671.20
587.10	39703.97
587.30	39955.87
587.50	39781.79
587.70	39646.63
587.90	39923.10
588.10	39843.23
588.30	39564.71
588.50	40011.17
588.69	40019.36
588.89	39972.25
589.09	40418.71
589.29	39663.01
589.49	40390.04
589.69	39832.99
589.89	40187.29
590.08	40029.60
590.28	39857.57
590.48	40355.22
590.68	39896.48
590.88	40297.88
591.08	39986.59
591.28	39624.10
591.47	40320.41
591.67	40304.02
591.87	40562.07
592.07	40523.16
592.27	40134.04
592.47	40498.58
592.67	40283.55
592.86	40455.57
593.06	40381.85
593.26	40605.08
593.46	40201.63
593.66	40351.13
593.86	40332.70
594.05	40541.59
594.25	41080.21
594.45	40437.14
594.65	40756.63
594.85	40416.66
595.05	41039.25
595.24	40641.94
595.44	40705.43
595.64	40744.34
595.84	40938.90
596.04	40938.90
596.23	41282.95
596.43	41041.29
596.63	40482.20
596.83	40801.68
597.03	41606.53
597.22	41489.80
597.42	41330.06
597.62	40988.05
597.82	41409.93
598.02	41233.80
598.21	41512.33
598.41	41125.26
598.61	41131.40
598.81	41389.45
599.01	41758.08
599.20	41569.67
599.40	41567.62
599.60	41231.75
599.80	41387.40
600.00	41686.40
600.19	42104.19
600.39	41291.15
600.59	41952.64
600.79	41561.48
600.98	41522.57
601.18	41899.39
601.38	42098.05
601.58	42024.32
601.78	41481.61
601.97	41811.33
602.17	42079.61
602.37	41977.22
602.57	41868.67
602.76	42061.18
602.96	41932.16
603.16	42083.71
603.36	41837.95
603.55	42222.97
603.75	41948.54
603.95	41985.41
604.15	42364.28
604.34	42237.31
604.54	42444.15
604.74	42048.89
604.94	42573.17
605.13	42362.23
605.33	42472.82
605.53	42360.19
605.73	42450.30
605.92	42495.35
606.12	42491.26
606.32	42909.04
606.52	42401.14
606.71	42427.77
606.91	42863.99
607.11	42751.35
607.30	42816.88
607.50	42689.91
607.70	42804.59
607.90	42737.01
608.09	42909.04
608.29	42657.14
608.49	43126.13
608.68	42802.55
608.88	42677.62
609.08	42730.87
609.28	42909.04
609.47	43103.60
609.67	43132.27
609.87	42954.10
610.06	43013.49
610.26	43031.92
610.46	43226.48
610.66	43109.74
610.85	42812.79
611.05	42761.59
611.25	42835.31
611.44	43292.01
611.64	43277.68
611.84	42820.98
612.03	42804.59
612.23	42708.34
612.43	42923.38
612.62	42626.42
612.82	43150.70
613.02	43029.87
613.21	42997.10
613.41	42984.82
613.61	43156.85
613.80	42970.48
614.00	43201.90
614.20	43007.34
614.39	42962.29
614.59	43410.79
614.79	42947.95
614.98	42892.66
615.18	43285.87
615.38	42685.81
615.57	43285.87
615.77	43115.89
615.97	43091.31
616.16	43326.83
616.36	42863.99
616.56	42947.95
616.75	42933.62
616.95	42937.71
617.15	43033.97
617.34	43175.28
617.54	43117.93
617.74	43011.44
617.93	42968.43
618.13	42835.31
618.32	42964.34
618.52	42925.42
618.72	42591.61
618.91	43079.02
619.11	42534.26
619.31	43054.45
619.50	42929.52
619.70	42646.90
619.90	42937.71
620.09	43087.21
620.29	42868.08
620.48	42909.04
620.68	43054.45
620.88	42661.24
621.07	42571.13
621.27	43199.85
621.46	42782.07
621.66	42814.83
621.86	42696.05
622.05	42659.19
622.25	43199.85
622.44	42624.37
622.64	42528.12
622.84	42816.88
623.03	42540.41
623.23	42343.80
623.42	42464.63
623.62	43017.58
623.82	43054.45
624.01	42478.97
624.21	42720.63
624.40	43029.87
624.60	42657.14
624.80	42046.85
624.99	42587.51
625.19	42280.31
625.38	42708.34
625.58	42773.88
625.77	42481.02
625.97	42567.03
626.17	42542.45
626.36	42569.08
626.56	42681.72
626.75	42372.47
626.95	42741.11
627.14	42530.17
627.34	42599.80
627.54	42546.55
627.73	42640.76
627.93	42341.75
628.12	42214.78
628.32	42632.57
628.51	42677.62
628.71	42259.84
628.90	42794.36
629.10	42292.60
629.30	42433.91
629.49	42311.03
629.69	42231.16
629.88	42419.58
630.08	42550.65
630.27	42380.67
630.47	42442.10
630.66	42177.92
630.86	42405.24
631.05	42370.43
631.25	42689.91
631.44	42509.69
631.64	42173.82
631.84	42321.27
632.03	42526.07
632.23	42556.79
632.42	42380.67
632.62	42528.12
632.81	42132.86
633.01	42341.75
633.20	42419.58
633.40	42351.99
633.59	42284.41
633.79	42079.61
633.98	42319.23
634.18	42335.61
634.37	42483.06
634.57	42401.14
634.76	42372.47
634.96	42341.75
635.15	42376.57
635.35	42155.39
635.54	42245.50
635.74	42532.22
635.93	42005.89
636.13	42618.23
636.32	42333.56
636.52	42163.58
636.71	42067.33
636.91	42642.81
637.10	42624.37
637.30	42460.54
637.49	42489.21
637.69	42026.37
637.88	42292.60
638.08	42263.93
638.27	42777.97
638.46	42106.24
638.66	42126.72
638.85	42395.00
639.05	42220.92
639.24	42671.48
639.44	41999.74
639.63	42337.66
639.83	42239.36
640.02	42284.41
640.22	41811.33
640.41	42698.10
640.61	41616.77
640.80	42059.13
640.99	42104.19
641.19	42417.53
641.38	42130.81
641.58	42268.03
641.77	41913.73
641.97	41768.32
642.16	42161.53
642.36	42425.72
642.55	42593.65
642.74	42190.20
642.94	42759.54
643.13	42028.41
643.33	42384.76
643.52	42675.57
643.72	42249.60
643.91	42118.53
644.10	42610.04
644.30	42519.93
644.49	42366.33
644.69	42448.25
644.88	42347.90
645.08	41837.95
645.27	42552.69
645.46	42151.29
645.66	42235.26
645.85	42110.33
646.05	42331.51
646.24	42429.82
646.43	42311.03
646.63	42433.91
646.82	42448.25
647.02	42521.98
647.21	42321.27
647.40	42186.11
647.60	42415.48
647.79	42667.38
647.99	42489.21
648.18	42286.46
648.37	42528.12
648.57	42556.79
648.76	42521.98
648.96	42323.32
649.15	42691.96
649.34	42743.16
649.54	42296.70
649.73	42198.40
649.92	42204.54
650.12	42194.30
650.31	42515.83
650.51	42218.88
650.70	42540.41
650.89	42253.69
651.09	42839.41
651.28	42272.12
651.47	42382.71
651.67	42253.69
651.86	42659.19
652.06	41827.71
652.25	42407.29
652.44	42294.65
652.64	42378.62
652.83	42780.02
653.02	42388.86
653.22	42304.89
653.41	42175.87
653.60	42122.62
653.80	42257.79
653.99	42349.95
654.18	42317.18
654.38	42079.61
654.57	42351.99
654.76	42087.81
654.96	42157.44
655.15	42294.65
655.34	42222.97
655.54	41811.33
655.73	41956.74
655.92	42702.20
656.12	42601.85
656.31	42167.68
656.50	41987.46
656.70	42272.12
656.89	42206.59
657.08	42075.52
657.28	42220.92
657.47	41989.50
657.66	42593.65
657.86	42052.99
658.05	42415.48
658.24	42265.98
658.43	41985.41
658.63	42530.17
658.82	42096.00
659.01	42435.96
659.21	42470.78
659.40	41655.68
659.59	41938.30
659.79	42468.73
659.98	42372.47
660.17	41852.29
660.36	42268.03
660.56	42333.56
660.75	42030.46
660.94	42212.73
661.14	42323.32
661.33	41901.44
661.52	42169.72
661.71	42517.88
661.91	42222.97
662.10	42175.87
662.29	42489.21
662.49	42737.01
662.68	41893.25
662.87	42022.27
663.06	42216.83
663.26	41678.21
663.45	42050.94
663.64	42188.16
663.83	42151.29
664.03	42071.42
664.22	41897.34
664.41	42257.79
664.60	41776.51
664.80	42069.37
664.99	42128.77
665.18	41885.06
665.37	42065.28
665.57	42100.09
665.76	41940.35
665.95	41813.38
666.14	42030.46
666.34	42192.25
666.53	41903.49
666.72	41874.82
666.91	41702.79
667.11	41930.11
667.30	42009.98
667.49	41796.99
667.68	41811.33
667.87	41551.24
668.07	41686.40
668.26	41817.47
668.45	41809.28
668.64	41483.66
668.84	42141.05
669.03	41926.02
669.22	41721.22
669.41	41416.07
669.60	41770.37
669.80	41706.88
669.99	42120.57
670.18	41430.41
670.37	41768.32
670.57	41774.47
670.76	41211.28
670.95	42026.37
671.14	41569.67
671.33	41616.77
671.53	41786.75
671.72	41338.25
671.91	41377.16
672.10	41500.04
672.29	41629.06
672.48	41272.71
672.68	41833.86
672.87	41344.39
673.06	41541.00
673.25	41227.66
673.44	41139.60
673.64	41696.64
673.83	41231.75
674.02	41348.49
674.21	41299.34
674.40	41414.02
674.59	41262.47
674.79	41160.08
674.98	41168.27
675.17	41274.76
675.36	41235.85
675.55	41196.94
675.74	40963.47
675.94	40895.89
676.13	41117.07
676.32	41090.44
676.51	40899.98
676.70	41381.26
676.89	41428.36
677.08	41493.89
677.28	40308.12
677.47	41395.59
677.66	41186.70
677.85	40875.41
678.04	41321.87
678.23	40934.80
678.42	41141.64
678.62	41301.39
678.81	41102.73
679.00	40725.91
679.19	41076.11
679.38	40770.96
679.57	40897.94
679.76	40705.43
679.96	40940.94
680.15	41143.69
680.34	40975.76
680.53	40981.90
680.72	40721.81
680.91	40979.85
681.10	40609.17
681.29	40816.02
681.48	40564.12
681.68	40574.36
681.87	40488.34
682.06	40273.31
682.25	40433.05
682.44	40555.93
682.63	40412.57
682.82	40355.22
683.01	40533.40
683.20	40306.07
683.39	40570.26
683.59	40426.90
683.78	40054.17
683.97	40232.35
684.16	40445.33
684.35	40045.98
684.54	40349.08
684.73	40166.81
684.92	40215.96
685.11	39755.17
685.30	40123.80
685.49	40271.26
685.69	40013.21
685.88	39929.25
686.07	40480.15
686.26	40160.67
686.45	40414.62
686.64	39941.53
686.83	40088.99
687.02	40209.82
687.21	40129.95
687.40	40000.93
687.59	40039.84
687.78	39992.73
687.97	40015.26
688.16	39832.99
688.35	39777.70
688.54	39359.91
688.74	39648.68
688.93	39878.05
689.12	39835.04
689.31	39472.55
689.50	39413.16
689.69	39417.25
689.88	39165.35
690.07	39757.22
690.26	39710.11
690.45	39722.40
690.64	39425.45
690.83	39507.37
691.02	39337.38
691.21	39282.09
691.40	39259.56
691.59	39630.24
691.78	39239.08
691.97	39478.69
692.16	39224.75
692.35	39232.94
692.54	39427.49
692.73	39497.13
692.92	39187.88
693.11	39255.46
693.30	38927.79
693.49	39108.01
693.68	39052.72
693.87	39019.95
694.06	39230.89
694.25	39196.07
694.44	38968.75
694.63	38766.00
694.82	39007.66
695.01	39058.86
695.20	38405.56
695.39	39173.55
695.58	38784.43
695.77	38491.57
695.96	38364.60
696.15	38858.16
696.34	38608.31
696.53	38755.76
696.72	38938.03
696.91	38235.58
697.10	38452.66
697.29	38256.06
697.48	38628.79
697.67	38049.21
697.86	38073.79
698.05	38264.25
698.24	38858.16
698.43	38368.69
698.62	38247.86
698.81	38094.27
699.00	38264.25
699.19	38393.27
699.38	37854.65
699.57	37737.92
699.76	38288.82
699.95	38063.55
700.14	37590.47
700.32	37844.41
700.51	38184.38
700.70	38391.22
700.89	37883.33
701.08	38352.31
701.27	37817.79
701.46	38047.16
701.65	37486.02
701.84	37670.34
702.03	38010.30
702.22	37608.90
702.41	37561.79
702.60	38057.40
702.79	37357.00
702.98	37303.75
703.17	37541.32
703.35	37309.89
703.54	37623.23
703.73	37989.82
703.92	37367.24
704.11	37512.64
704.30	37289.42
704.49	37395.91
704.68	36967.88
704.87	37082.57
705.06	37266.89
705.25	36910.54
705.43	37262.79
705.62	37365.19
705.81	37094.86
706.00	37223.88
706.19	36666.83
706.38	37074.38
706.57	36906.44
706.76	36924.88
706.95	36865.49
707.14	36922.83
707.32	36736.46
707.51	36775.37
707.70	37098.95
707.89	36818.38
708.08	37125.58
708.27	37107.15
708.46	37121.48
708.65	36541.91
708.84	37107.15
709.02	36847.05
709.21	36517.33
709.40	36546.00
709.59	36363.73
709.78	36271.57
709.97	36691.41
710.16	36539.86
710.34	36541.91
710.53	36586.96
710.72	36236.76
710.91	36423.12
711.10	36453.84
711.29	36496.85
711.48	36488.66
711.66	36347.35
711.85	36263.38
712.04	36199.90
712.23	36275.67
712.42	35931.61
712.61	35861.98
712.80	35833.31
712.98	36105.69
713.17	36005.34
713.36	36005.34
713.55	35618.27
713.74	35571.17
713.93	36132.31
714.11	35763.68
714.30	35872.22
714.49	35614.18
714.68	35728.86
714.87	35569.12
715.06	35849.69
715.24	35577.31
715.43	35698.14
715.62	35687.90
715.81	35495.39
716.00	35327.46
716.18	35337.70
716.37	35569.12
716.56	35218.92
716.75	35429.86
716.94	35300.84
717.12	35268.07
717.31	35419.62
717.50	35157.48
717.69	34833.90
717.88	35065.32
718.06	35354.08
718.25	34881.00
718.44	34784.75
718.63	34647.54
718.82	34457.07
719.00	34964.97
719.19	34647.54
719.38	34711.02
719.57	34563.57
719.76	34235.89
719.94	34199.03
720.13	34444.79
720.32	34543.09
720.51	34262.52
720.69	34289.14
720.88	34209.27
721.07	34192.89
721.26	33975.80
721.44	34047.48
721.63	34227.70
721.82	34078.20
722.01	33879.55
722.20	34037.24
722.38	33869.31
722.57	33426.95
722.76	34090.49
722.95	33711.61
723.13	33453.57
723.32	33652.22
723.51	33365.51
723.70	33236.48
723.88	33437.19
724.07	33584.64
724.26	33207.81
724.44	32962.06
724.63	33582.59
724.82	33043.98
725.01	33355.27
725.19	33248.77
725.38	33099.27
725.57	33203.72
725.76	33226.24
725.94	32716.30
726.13	32873.99
726.32	32921.10
726.51	32663.05
726.69	33093.13
726.88	33160.71
727.07	32800.27
727.25	32628.24
727.44	33046.02
727.63	32773.64
727.82	32534.03
728.00	33144.33
728.19	32749.07
728.38	33064.46
728.56	32493.07
728.75	32871.95
728.94	32638.48
729.12	32486.93
729.31	32849.42
729.50	32974.34
729.69	32740.88
729.87	32800.27
730.06	32755.21
730.25	32275.99
730.43	32802.32
730.62	32540.18
730.81	32611.85
730.99	32417.30
731.18	32181.78
731.37	32650.77
731.55	32599.57
731.74	32577.04
731.93	32501.26
732.11	32290.32
732.30	32712.20
732.49	32640.53
732.67	32278.04
732.86	32200.21
733.05	32030.23
733.23	31878.68
733.42	32380.43
733.61	32257.56
733.79	32142.87
733.98	32392.72
734.17	31981.08
734.35	32032.28
734.54	31876.63
734.73	32067.09
734.91	32075.29
735.10	31940.12
735.29	32015.90
735.47	31753.76
735.66	31833.63
735.84	31997.46
736.03	31802.91
736.22	31884.83
736.40	31634.97
736.59	31833.63
736.78	31610.40
736.96	31651.36
737.15	32013.85
737.33	31704.60
737.52	31548.96
737.71	31723.04
737.89	31643.17
738.08	31802.91
738.27	31622.69
738.45	31673.88
738.64	31616.54
738.82	31548.96
739.01	31522.34
739.20	31442.46
739.38	31727.13
739.57	31417.89
739.75	31522.34
739.94	31094.31
740.13	31479.33
740.31	31180.32
740.50	31348.26
740.68	31280.67
740.87	31348.26
741.06	31209.00
741.24	31229.48
741.43	30973.48
741.61	31686.17
741.80	30975.53
741.99	30893.61
742.17	30830.12
742.36	30891.56
742.54	30807.59
742.73	30860.84
742.91	30918.18
743.10	30731.82
743.29	30959.14
743.47	31272.48
743.66	30789.16
743.84	30901.80
744.03	31014.44
744.21	30670.38
744.40	30828.07
744.59	30465.58
744.77	30567.98
744.96	30623.28
745.14	30664.24
745.33	31088.17
745.51	30422.58
745.70	30387.76
745.88	30334.51
746.07	30393.90
746.26	30588.46
746.44	30451.25
746.63	30461.49
746.81	30541.36
747.00	30418.48
747.18	30328.37
747.37	30303.79
747.55	30139.96
747.74	30580.27
747.92	30152.24
748.11	30461.49
748.29	30148.15
748.48	30152.24
748.66	30068.28
748.85	30213.68
749.03	30201.40
749.22	30228.02
749.41	29849.14
749.59	29883.96
749.78	29894.20
749.96	30101.04
750.15	30041.65
750.33	30266.93
750.52	29795.90
750.70	29881.91
750.89	29890.10
751.07	29517.37
751.26	29660.73
751.44	29378.11
751.63	29400.64
751.81	29781.56
752.00	29552.19
752.18	29787.71
752.37	29523.52
752.55	29537.85
752.74	29500.99
752.92	29562.43
753.10	29320.77
753.29	29648.44
753.47	29388.35
753.66	29288.00
753.84	29261.38
754.03	29177.41
754.21	29206.08
754.40	29410.88
754.58	29257.28
754.77	29273.67
754.95	29337.15
755.14	29122.12
755.32	29193.79
755.51	29201.99
755.69	29195.84
755.88	28868.17
756.06	28976.71
756.24	28888.65
756.43	29015.62
756.61	28843.59
756.80	28485.20
756.98	28874.31
757.17	28888.65
757.35	28892.74
757.54	29025.86
757.72	29171.27
757.90	28534.35
758.09	28900.94
758.27	28728.91
758.46	28720.71
758.64	28413.52
758.83	28634.70
759.01	28804.68
759.19	28411.47
759.38	28724.81
759.56	28622.41
759.75	28466.77
759.93	28841.54
760.12	28182.10
760.30	28456.53
760.48	28212.82
760.67	28268.11
760.85	28384.85
761.04	28368.46
761.22	28487.25
761.40	28569.16
761.59	28321.36
761.77	28208.72
761.96	28149.33
762.14	28214.87
762.32	27903.57
762.51	27934.29
762.69	27870.81
762.88	27723.35
763.06	28094.04
763.24	27919.96
763.43	28347.98
763.61	27749.98
763.80	27506.27
763.98	27749.98
764.16	27717.21
764.35	27571.80
764.53	27473.50
764.72	27496.03
764.90	27702.87
765.08	27672.15
765.27	27424.35
765.45	27297.38
765.63	27299.42
765.82	27395.68
766.00	27221.60
766.18	27391.58
766.37	27674.20
766.55	27227.74
766.74	27414.11
766.92	27450.97
767.10	27477.60
767.29	27223.65
767.47	26977.89
767.65	27012.71
767.84	27133.54
768.02	27197.02
768.20	26764.90
768.39	27027.04
768.57	27119.20
768.75	26852.97
768.94	27137.63
769.12	27086.43
769.30	26705.51
769.49	26658.41
769.67	26973.80
769.85	26750.57
770.04	26828.39
770.22	26576.49
770.40	26566.25
770.59	26576.49
770.77	26842.73
770.95	26947.17
771.14	26635.88
771.32	26269.30
771.50	26566.25
771.69	26418.80
771.87	26635.88
772.05	26371.69
772.24	26328.69
772.42	26191.47
772.60	26330.73
772.78	26302.06
772.97	26011.25
773.15	26449.52
773.33	26179.18
773.52	26076.79
773.70	26418.80
773.88	26508.91
774.07	26316.40
774.25	25822.84
774.43	26457.71
774.61	26523.24
774.80	26371.69
774.98	26357.36
775.16	26111.60
775.34	26166.90
775.53	26121.84
775.71	26281.58
775.89	26197.62
776.08	26121.84
776.26	26209.90
776.44	26310.25
776.62	26027.63
776.81	25740.92
776.99	26130.03
777.17	26130.03
777.35	26332.78
777.54	26300.01
777.72	26347.12
777.90	26470.00
778.08	26388.08
778.27	26363.50
778.45	26449.52
778.63	26533.48
778.81	26127.99
779.00	26402.41
779.18	26359.41
779.36	26332.78
779.54	26758.76
779.73	26351.21
779.91	26291.82
780.09	26527.34
780.27	26551.91
780.46	26277.49
780.64	26648.17
780.82	26662.51
781.00	26596.97
781.19	26459.76
781.37	26527.34
781.55	26654.31
781.73	26795.62
781.91	26508.91
782.10	26476.14
782.28	26582.63
782.46	26594.92
782.64	26771.05
782.82	26300.01
783.01	26467.95
783.19	26691.18
783.37	26488.43
783.55	26445.42
783.74	26809.96
783.92	26513.00
784.10	26500.72
784.28	26904.17
784.46	26359.41
784.64	26480.24
784.83	26644.07
785.01	26674.79
785.19	26422.89
785.37	26728.04
785.55	26635.88
785.74	26191.47
785.92	26269.30
786.10	26531.44
786.28	26394.22
786.46	26150.51
786.64	26226.29
786.83	26140.27
787.01	26185.33
787.19	26271.34
787.37	26244.72
787.55	25968.24
787.74	26345.07
787.92	26183.28
788.10	26136.18
788.28	26021.49
788.46	26003.06
788.64	25652.86
788.82	26304.11
789.01	26355.31
789.19	25955.96
789.37	25951.86
789.55	26103.41
789.73	25673.34
789.91	25779.83
790.09	25912.95
790.28	25931.38
790.46	25517.69
790.64	25738.87
790.82	25710.20
791.00	25843.32
791.18	25403.00
791.36	25413.24
791.55	25341.57
791.73	25239.17
791.91	25081.47
792.09	25400.96
792.27	25470.59
792.45	25415.29
792.63	25224.83
792.81	24956.55
793.00	24753.80
793.18	24981.12
793.36	24878.72
793.54	24870.53
793.72	24766.09
793.90	24944.26
794.08	24921.73
794.26	24946.31
794.44	24428.17
794.62	24458.89
794.81	24368.78
794.99	24727.17
795.17	24583.82
795.35	24297.10
795.53	24549.00
795.71	24542.86
795.89	24481.42
796.07	24258.19
796.25	24131.22
796.43	23946.90
796.61	23750.29
796.80	23957.14
796.98	23981.71
797.16	23797.40
797.34	23443.10
797.52	23871.12
797.70	24094.35
797.88	24016.53
798.06	23426.71
798.24	23719.57
798.42	23781.01
798.60	23654.04
798.78	23561.88
798.96	23430.81
799.14	23269.02
799.32	23459.48
799.51	23197.34
799.69	23172.77
799.87	23080.61
800.05	23084.70
800.23	22916.77
800.41	22996.64
800.59	23140.00
800.77	22998.69
800.95	22869.67
801.13	23111.33
801.31	22933.15
801.49	22894.24
801.67	22283.95
801.85	22824.61
802.03	22505.13
802.21	22517.42
802.39	22146.73
802.57	22269.61
802.75	22335.15
802.93	22271.66
803.11	22132.40
803.29	22173.36
803.47	22222.51
803.65	22087.34
803.83	21966.51
804.01	21956.27
804.19	21929.65
804.37	21839.54
804.55	21923.51
804.73	21796.53
804.91	21853.87
805.09	21999.28
805.27	21616.31
805.45	21753.52
805.63	21890.74
805.81	21800.63
805.99	21524.15
806.17	21618.36
806.35	21575.35
806.53	21251.77
806.71	21585.59
806.89	21339.83
807.07	21309.11
807.25	21423.80
807.43	21108.41
807.61	21563.06
807.79	21102.27
807.97	21266.11
808.15	21073.60
808.33	20932.29
808.51	20750.02
808.69	21087.93
808.87	20856.51
809.05	20446.92
809.23	20879.04
809.41	20608.71
809.59	20481.74
809.77	20829.89
809.95	20621.00
810.13	20500.17
810.31	20487.88
810.49	20537.03
810.67	20528.84
810.84	20645.57
811.02	20721.35
811.20	20238.03
811.38	20410.06
811.56	20285.13
811.74	20342.47
811.92	20088.53
812.10	20315.85
812.28	20016.85
812.46	20098.77
812.64	20160.20
812.82	20020.94
813.00	20068.05
813.18	19832.53
813.36	19900.11
813.53	19918.54
813.71	19697.36
813.89	19701.46
814.07	19934.93
814.25	19689.17
814.43	19781.33
814.61	19629.78
814.79	19769.04
814.97	19381.98
815.15	19619.54
815.33	19445.46
815.50	19205.85
815.68	19373.78
815.86	19431.13
816.04	19363.54
816.22	19269.34
816.40	19371.74
816.58	19128.03
816.76	19242.71
816.94	18927.33
817.11	19085.02
817.29	19162.84
817.47	19162.84
817.65	18880.22
817.83	18972.38
818.01	18700.00
818.19	18786.02
818.37	18968.29
818.54	18869.98
818.72	18876.13
818.90	18853.60
819.08	18783.97
819.26	18558.69
819.44	18507.49
819.62	18657.00
819.80	18734.82
819.97	18595.56
820.15	18552.55
820.33	18374.38
820.51	18460.39
820.69	18220.78
820.87	18577.12
821.05	18353.90
821.22	18300.65
821.40	18429.67
821.58	18208.49
821.76	18306.79
821.94	18218.73
822.12	18282.22
822.29	18329.32
822.47	18171.63
822.65	18292.46
822.83	18061.04
823.01	18173.67
823.19	17917.68
823.36	17794.80
823.54	17895.15
823.72	18038.51
823.90	17764.08
824.08	17626.87
824.25	17880.82
824.43	17575.67
824.61	17999.60
824.79	17819.38
824.97	17921.77
825.15	17745.65
825.32	17671.92
825.50	17575.67
825.68	17581.81
825.86	17549.04
826.04	17549.04
826.21	17733.36
826.39	17313.53
826.57	17112.83
826.75	17358.58
826.93	17182.46
827.10	17456.89
827.28	17633.01
827.46	16928.51
827.64	17413.88
827.81	17258.23
827.99	17254.14
828.17	17241.85
828.35	17135.35
828.53	17153.79
828.70	16836.35
828.88	17059.58
829.06	17071.87
829.24	17198.84
829.41	17247.99
829.59	17006.33
829.77	16916.22
829.95	17166.07
830.12	16959.23
830.30	16834.30
830.48	16807.68
830.66	16719.62
830.84	16682.75
831.01	16705.28
831.19	16807.68
831.37	16817.92
831.55	16764.67
831.72	16578.31
831.90	16611.07
832.08	16545.54
832.25	16434.95
832.43	16682.75
832.61	16338.69
832.79	16604.93
832.96	16303.88
833.14	16598.79
833.32	16398.09
833.50	16633.60
833.67	16633.60
833.85	16422.66
834.03	16219.91
834.20	16621.31
834.38	16348.93
834.56	16332.55
834.74	16150.28
834.91	16221.96
835.09	16291.59
835.27	16232.20
835.44	16107.27
835.62	15910.67
835.80	16029.45
835.98	16037.64
836.15	15968.01
836.33	15982.35
836.51	16023.31
836.68	15925.00
836.86	15916.81
837.04	16023.31
837.21	15902.48
837.39	15865.61
837.57	15884.05
837.75	15863.57
837.92	15535.89
838.10	15603.47
838.28	15539.99
838.45	15564.56
838.63	15705.87
838.81	15605.52
838.98	15701.78
839.16	15333.14
839.34	15585.04
839.51	15394.58
839.69	15367.96
839.87	15240.98
840.04	15560.47
840.22	15464.21
840.40	15296.28
840.57	15451.92
840.75	15116.06
840.93	15353.62
841.10	15288.09
841.28	15589.14
841.46	15181.59
841.63	15310.61
841.81	15357.72
841.98	15200.02
842.16	15445.78
842.34	15101.72
842.51	15189.78
842.69	15245.08
842.87	15013.66
843.04	15255.32
843.22	15068.95
843.40	15116.06
843.57	15015.71
843.75	15163.16
843.92	15329.05
844.10	14978.84
844.28	15077.15
844.45	15075.10
844.63	14812.96
844.81	14982.94
844.98	14767.90
845.16	14855.97
845.33	14704.42
845.51	14735.14
845.69	14526.24
845.86	14790.43
846.04	14808.86
846.21	14745.38
846.39	14634.78
846.57	14642.98
846.74	14421.80
846.92	14542.63
847.09	14616.35
847.27	14499.62
847.45	14585.63
847.62	14700.32
847.80	14735.14
847.97	14509.86
848.15	14626.59
848.32	14327.59
848.50	14546.72
848.68	14268.20
848.85	14386.98
849.03	14169.90
849.20	14440.23
849.38	14204.71
849.56	14370.60
849.73	14274.34
849.91	14145.32
850.08	14305.06
850.26	14159.66
850.43	14343.97
850.61	14237.48
850.78	14042.92
850.96	14176.04
851.14	14130.98
851.31	14403.36
851.49	14104.36
851.66	14073.64
851.84	13944.62
852.01	14049.07
852.19	14116.65
852.36	13848.36
852.54	14049.07
852.71	14047.02
852.89	13961.00
853.07	13854.51
853.24	13674.29
853.42	13715.25
853.59	13672.24
853.77	13854.51
853.94	13655.86
854.12	13944.62
854.29	13684.53
854.47	13936.43
854.64	13834.03
854.82	13821.74
854.99	13614.90
855.17	13483.83
855.34	13633.33
855.52	13670.19
855.69	13911.85
855.87	13586.22
856.04	13522.74
856.22	13442.87
856.39	13578.03
856.57	13731.63
856.74	13408.05
856.92	13549.36
857.09	13256.50
857.27	13434.68
857.44	13567.79
857.62	13494.07
857.79	13367.09
857.97	13182.77
858.14	13535.03
858.32	13197.11
858.49	13342.52
858.67	13016.89
858.84	13281.08
859.02	13389.62
859.19	13145.91
859.37	13295.41
859.54	13193.01
859.72	13016.89
859.89	13209.40
860.06	13262.65
860.24	13033.27
860.41	12871.48
860.59	13023.03
860.76	12867.39
860.94	12820.28
861.11	12756.80
861.29	13082.42
861.46	12769.09
861.64	12779.32
861.81	12812.09
861.98	12830.52
862.16	12771.13
862.33	12891.96
862.51	12662.59
862.68	12924.73
862.86	12777.28
863.03	12625.73
863.21	12697.41
863.38	12781.37
863.55	12535.62
863.73	12808.00
863.90	12740.41
864.08	12654.40
864.25	12429.12
864.43	12525.38
864.60	12478.27
864.77	12437.31
864.95	12625.73
865.12	12425.03
865.30	12300.10
865.47	12302.15
865.64	12605.25
865.82	12257.09
865.99	12392.26
866.17	12451.65
866.34	12361.54
866.51	12103.50
866.69	12420.93
866.86	12341.06
867.04	12115.78
867.21	12373.83
867.38	12248.90
867.56	12228.42
867.73	12109.64
867.91	12117.83
868.08	12246.85
868.25	12103.50
868.43	12062.54
868.60	12058.44
868.78	12060.49
868.95	12150.60
869.12	11872.07
869.30	11904.84
869.47	11976.52
869.64	11870.03
869.82	11798.35
869.99	11599.70
870.16	11808.59
870.34	11841.36
870.51	11980.62
870.69	11657.04
870.86	11855.69
871.03	11720.53
871.21	11521.87
871.38	11661.13
871.55	11458.39
871.73	11784.01
871.90	11693.90
872.07	11403.09
872.25	11609.93
872.42	11431.76
872.59	11536.21
872.77	11534.16
872.94	11550.54
873.11	11308.88
873.29	11376.47
873.46	11396.95
873.63	11462.48
873.81	11378.51
873.98	11294.55
874.15	11333.46
874.33	11136.85
874.50	10942.30
874.67	11257.68
874.85	11081.56
875.02	10930.01
875.19	10970.97
875.37	10973.02
875.54	11063.13
875.71	11259.73
875.88	10852.19
876.06	11104.09
876.23	11095.89
876.40	10950.49
876.58	10930.01
876.75	11032.41
876.92	10676.06
877.10	10964.82
877.27	10796.89
877.44	10766.17
877.61	10835.80
877.79	10647.39
877.96	10637.15
878.13	10643.29
878.31	10579.81
878.48	10555.23
878.65	10501.98
878.82	10454.88
879.00	10542.94
879.17	10456.93
879.34	10512.22
879.51	10370.91
879.69	10440.54
879.86	10432.35
880.03	10594.14
880.21	10379.11
880.38	10405.73
880.55	10430.30
880.72	10362.72
880.90	10477.41
881.07	10207.08
881.24	10268.52
881.41	10360.67
881.59	10309.47
881.76	10346.34
881.93	10332.00
882.10	10047.33
882.28	10309.47
882.45	10200.93
882.62	10164.07
882.79	10180.45
882.96	10035.05
883.14	9973.61
883.31	9994.09
883.48	10043.24
883.65	10033.00
883.83	10110.82
884.00	10022.76
884.17	10147.69
884.34	9994.09
884.51	10039.14
884.69	10030.95
884.86	10196.84
885.03	10014.57
885.20	9912.17
885.38	9965.42
885.55	9973.61
885.72	9992.04
885.89	10053.48
886.06	10057.57
886.24	9863.02
886.41	9830.25
886.58	9930.60
886.75	9971.56
886.92	9799.53
887.10	10076.01
887.27	9901.93
887.44	9895.78
887.61	9977.70
887.78	9793.39
887.95	9715.56
888.13	9701.23
888.30	9676.65
888.47	9750.38
888.64	9641.84
888.81	9705.32
888.99	9678.70
889.16	9588.59
889.33	9627.50
889.50	9561.97
889.67	9613.17
889.84	9654.12
890.01	9555.82
890.19	9561.97
890.36	9656.17
890.53	9662.32
890.70	9498.48
890.87	9541.49
891.04	9465.71
891.22	9412.46
891.39	9318.26
891.56	9340.79
891.73	9533.29
891.90	9400.18
892.07	9260.91
892.24	9344.88
892.42	9346.93
892.59	9478.00
892.76	9301.87
892.93	9340.79
893.10	9516.91
893.27	9322.35
893.44	9226.10
893.61	9217.91
893.79	9260.91
893.96	9324.40
894.13	9148.28
894.30	9084.79
894.47	9133.94
894.64	9199.48
894.81	9187.19
894.98	9138.04
895.15	9205.62
895.33	8966.01
895.50	9303.92
895.67	9133.94
895.84	9033.59
896.01	9205.62
896.18	8879.99
896.35	8990.58
896.52	8959.86
896.69	9045.88
896.86	9195.38
897.04	9170.80
897.21	9107.32
897.38	9113.46
897.55	9117.56
897.72	9080.69
897.89	9035.64
898.06	9019.25
898.23	9058.17
898.40	8976.25
898.57	9140.08
898.74	8945.53
898.91	9015.16
899.08	8947.58
899.26	8963.96
899.43	8974.20
899.60	8949.62
899.77	9000.82
899.94	9035.64
900.11	8888.18
900.28	9015.16
900.45	8824.70
900.62	8927.10
900.79	8955.77
900.96	8968.06
901.13	9041.78
901.30	8904.57
901.47	8836.99
901.64	8861.56
901.81	8734.59
901.98	8810.36
902.15	8972.15
902.32	8695.68
902.49	8734.59
902.66	8902.52
902.83	8777.59
903.01	8836.99
903.18	8937.34
903.35	9062.26
903.52	8898.42
903.69	8791.93
903.86	8757.11
904.03	8726.39
904.20	8900.47
904.37	8882.04
904.54	8748.92
904.71	8900.47
904.88	8785.79
905.05	8656.76
905.22	8736.63
905.39	8789.88
905.56	8961.91
905.73	8726.39
905.90	8546.17
906.07	8722.30
906.24	8693.63
906.41	8664.96
906.58	8902.52
906.75	8724.35
906.92	8669.05
907.09	8744.83
907.26	8753.02
907.43	8572.80
907.60	8644.48
907.77	8662.91
907.93	8882.04
908.10	8822.65
908.27	8791.93
908.44	8634.24
908.61	8716.16
908.78	8466.30
908.95	8619.90
909.12	8609.66
909.29	8597.37
909.46	8601.47
909.63	8578.94
909.80	8361.86
909.97	8679.29
910.14	8443.78
910.31	8505.21
910.48	8572.80
910.65	8601.47
910.82	8515.45
910.99	8617.85
911.16	8451.97
911.33	8474.49
911.50	8492.93
911.66	8419.20
911.83	8263.55
912.00	8494.97
912.17	8484.73
912.34	8437.63
912.51	8306.56
912.68	8339.33
912.85	8417.15
913.02	8439.68
913.19	8406.91
913.36	8284.03
913.53	8390.53
913.70	8189.83
913.86	8376.19
914.03	8169.35
914.20	8202.11
914.37	8163.20
914.54	8136.58
914.71	8241.03
914.88	8173.44
915.05	8114.05
915.22	8337.28
915.39	8095.62
915.55	8230.79
915.72	8140.68
915.89	8126.34
916.06	8038.28
916.23	8275.84
916.40	8093.57
916.57	7847.82
916.74	8015.75
916.91	7827.34
917.07	7942.02
917.24	7960.45
917.41	7788.43
917.58	7884.68
917.75	7804.81
917.92	7718.79
918.09	7683.98
918.26	7780.23
918.42	7868.30
918.59	7706.51
918.76	7643.02
918.93	7589.77
919.10	7536.52
919.27	7673.74
919.44	7716.75
919.60	7387.02
919.77	7620.49
919.94	7534.48
920.11	7458.70
920.28	7518.09
920.45	7483.28
920.61	7546.76
920.78	7481.23
920.95	7440.27
921.12	7407.50
921.29	7280.53
921.46	7423.89
921.62	7223.19
921.79	7387.02
921.96	7239.57
922.13	7237.52
922.30	7229.33
922.47	7243.67
922.63	7073.68
922.80	7047.06
922.97	7145.36
923.14	6911.89
923.31	7059.35
923.47	6977.43
923.64	7190.42
923.81	6995.86
923.98	6989.72
924.15	6842.26
924.32	6920.09
924.48	6741.91
924.65	6827.93
924.82	6915.99
924.99	6852.50
925.15	6629.27
925.32	6709.15
925.49	6674.33
925.66	6700.95
925.83	6631.32
925.99	6391.71
926.16	6571.93
926.33	6766.49
926.50	6647.71
926.67	6629.27
926.83	6569.88
927.00	6586.27
927.17	6516.64
927.34	6571.93
927.50	6324.13
927.67	6510.49
927.84	6373.28
928.01	6432.67
928.17	6219.68
928.34	6363.04
928.51	6277.02
928.68	6354.85
928.84	6203.30
929.01	6274.98
929.18	5951.40
929.35	6076.32
929.51	6143.91
929.68	6055.84
929.85	5896.10
930.02	6043.56
930.18	6008.74
930.35	5945.25
930.52	5990.31
930.69	6070.18
930.85	6027.17
931.02	5711.78
931.19	5885.86
931.36	5822.38
931.52	5849.00
931.69	5791.66
931.86	5693.35
932.02	5793.70
932.19	5722.02
932.36	5601.19
932.53	5676.97
932.69	5578.67
932.86	5599.15
933.03	5625.77
933.19	5564.33
933.36	5441.45
933.53	5498.80
933.70	5490.60
933.86	5552.04
934.03	5459.88
934.20	5330.86
934.36	5318.57
934.53	5228.46
934.70	5250.99
934.86	5216.18
935.03	5068.72
935.20	5097.39
935.36	5269.42
935.53	4990.90
935.70	5013.43
935.86	5015.48
936.03	4894.65
936.20	5052.34
936.36	4902.84
936.53	4849.59
936.70	4818.87
936.86	4982.71
937.03	4845.49
937.20	4716.47
937.36	4677.56
937.53	4630.46
937.70	4632.51
937.86	4493.24
938.03	4581.31
938.20	4638.65
938.36	4472.76
938.53	4358.08
938.70	4296.64
938.86	4214.72
939.03	4233.15
939.20	4294.59
939.36	4270.01
939.53	4175.81
939.70	4245.44
939.86	4118.47
940.03	3932.10
940.19	4229.06
940.36	4104.13
940.53	3985.35
940.69	3891.14
940.86	3874.76
941.03	3786.69
941.19	3813.32
941.36	3811.27
941.52	3827.65
941.69	3708.87
941.86	3758.02
942.02	3747.78
942.19	3672.01
942.35	3717.06
942.52	3547.08
942.69	3446.73
942.85	3508.17
943.02	3481.55
943.18	3522.51
943.35	3545.03
943.52	3530.70
943.68	3442.64
943.85	3389.39
944.01	3450.83
944.18	3432.40
944.35	3465.16
944.51	3276.75
944.68	3235.79
944.84	3413.96
945.01	3332.05
945.17	3327.95
945.34	3293.13
945.51	3260.37
945.67	3323.85
945.84	3303.37
946.00	3100.62
946.17	3250.13
946.33	3256.27
946.50	3225.55
946.67	3180.50
946.83	3176.40
947.00	3194.83
947.16	3137.49
947.33	3182.54
947.49	3041.23
947.66	3094.48
947.82	3127.25
947.99	3147.73
948.16	3112.91
948.32	3190.74
948.49	3112.91
948.65	3203.02
948.82	3153.87
948.98	3155.92
949.15	3041.23
949.31	3108.82
949.48	3119.06
949.64	3071.95
949.81	3086.29
949.97	3028.95
950.14	3067.86
950.30	3071.95
950.47	3092.43
950.63	3065.81
950.80	3153.87
950.96	3133.39
951.13	3110.86
951.30	3104.72
951.46	3071.95
951.63	3047.38
951.79	3135.44
951.96	3069.91
952.12	3112.91
952.29	3092.43
952.45	3090.38
952.62	3094.48
952.78	3049.43
952.94	3008.47
953.11	3014.61
953.27	3030.99
953.44	3045.33
953.60	3020.75
953.77	3063.76
953.93	3100.62
954.10	2996.18
954.26	3026.90
954.43	3033.04
954.59	2981.84
954.76	3137.49
954.92	3096.53
955.09	2981.84
955.25	3051.47
955.42	3012.56
955.58	3119.06
955.75	3051.47
955.91	3049.43
956.07	3002.32
956.24	2987.99
956.40	2959.31
956.57	3049.43
956.73	2975.70
956.90	3092.43
957.06	2987.99
957.23	2987.99
957.39	3030.99
957.56	3055.57
957.72	2940.88
957.88	2975.70
958.05	3006.42
958.21	2920.40
958.38	2977.75
958.54	2918.36
958.71	3008.47
958.87	2840.53
959.03	2965.46
959.20	2940.88
959.36	3033.04
959.53	2955.22
959.69	2856.92
959.85	3086.29
960.02	2820.05
960.18	2942.93
960.35	2947.03
960.51	2936.79
960.68	2781.14
960.84	2887.64
961.00	2932.69
961.17	2891.73
961.33	2961.36
961.50	2949.08
961.66	2891.73
961.82	2926.55
961.99	2912.21
962.15	2942.93
962.31	2840.53
962.48	2848.72
962.64	2854.87
962.81	2899.92
962.97	2910.16
963.13	2828.24
963.30	2885.59
963.46	2867.16
963.62	2889.68
963.79	2813.91
963.95	2871.25
964.12	2928.60
964.28	2775.00
964.44	2916.31
964.61	2879.44
964.77	2891.73
964.93	2891.73
965.10	2797.53
965.26	2861.01
965.42	2766.81
965.59	2891.73
965.75	2818.00
965.92	2842.58
966.08	2809.81
966.24	2924.50
966.41	2834.39
966.57	2899.92
966.73	2844.63
966.90	2797.53
967.06	2899.92
967.22	2820.05
967.39	2875.35
967.55	2709.46
967.71	2818.00
967.88	2891.73
968.04	2801.62
968.20	2803.67
968.37	2795.48
968.53	2824.15
968.69	2779.09
968.85	2865.11
969.02	2803.67
969.18	2781.14
969.34	2729.94
969.51	2731.99
969.67	2688.98
969.83	2799.57
970.00	2815.96
970.16	2764.76
970.32	2746.33
970.48	2807.77
970.65	2795.48
970.81	2623.45
970.97	2779.09
971.14	2699.22
971.30	2754.52
971.46	2748.37
971.63	2744.28
971.79	2727.89
971.95	2742.23
972.11	2707.41
972.28	2686.94
972.44	2639.83
972.60	2686.94
972.76	2672.60
972.93	2648.02
973.09	2658.26
973.25	2711.51
973.42	2619.35
973.58	2607.06
973.74	2688.98
973.90	2738.13
974.07	2627.54
974.23	2652.12
974.39	2664.41
974.55	2633.69
974.72	2672.60
974.88	2617.30
975.04	2656.22
975.20	2557.91
975.37	2641.88
975.53	2555.86
975.69	2602.97
975.85	2672.60
976.01	2432.99
976.18	2658.26
976.34	2568.15
976.50	2666.46
976.66	2633.69
976.83	2566.10
976.99	2641.88
977.15	2602.97
977.31	2529.24
977.47	2596.82
977.64	2562.01
977.80	2594.78
977.96	2500.57
978.12	2656.22
978.29	2566.10
978.45	2557.91
978.61	2541.53
978.77	2455.51
978.93	2527.19
979.10	2463.71
979.26	2451.42
979.42	2492.38
979.58	2490.33
979.74	2529.24
979.91	2529.24
980.07	2531.29
980.23	2510.81
980.39	2498.52
980.55	2459.61
980.71	2428.89
980.88	2482.14
981.04	2441.18
981.20	2428.89
981.36	2430.94
981.52	2549.72
981.68	2432.99
981.85	2494.43
982.01	2463.71
982.17	2420.70
982.33	2428.89
982.49	2428.89
982.65	2455.51
982.82	2404.32
982.98	2490.33
983.14	2426.84
983.30	2398.17
983.46	2455.51
983.62	2484.19
983.79	2400.22
983.95	2406.36
984.11	2355.16
984.27	2482.14
984.43	2383.84
984.59	2381.79
984.75	2475.99
984.91	2389.98
985.08	2383.84
985.24	2400.22
985.40	2363.36
985.56	2402.27
985.72	2287.58
985.88	2418.65
986.04	2369.50
986.20	2392.03
986.37	2349.02
986.53	2367.45
986.69	2400.22
986.85	2283.49
987.01	2338.78
987.17	2363.36
987.33	2377.69
987.49	2224.09
987.65	2285.53
987.82	2369.50
987.98	2287.58
988.14	2414.56
988.30	2301.92
988.46	2287.58
988.62	2412.51
988.78	2252.77
988.94	2367.45
989.10	2312.16
989.26	2344.92
989.42	2250.72
989.59	2256.86
989.75	2187.23
989.91	2275.29
990.07	2248.67
990.23	2291.68
990.39	2224.09
990.55	2258.91
990.71	2322.40
990.87	2265.05
991.03	2312.16
991.19	2295.77
991.35	2252.77
991.51	2234.33
991.67	2281.44
991.83	2320.35
992.00	2246.62
992.16	2238.43
992.32	2310.11
992.48	2359.26
992.64	2242.53
992.80	2254.81
992.96	2314.20
993.12	2273.25
993.28	2244.57
993.44	2232.29
993.60	2240.48
993.76	2207.71
993.92	2238.43
994.08	2217.95
994.24	2258.91
994.40	2271.20
994.56	2252.77
994.72	2234.33
994.88	2142.18
995.04	2242.53
995.20	2205.66
995.36	2185.18
995.52	2248.67
995.68	2111.46
995.84	2209.76
996.00	2174.94
996.16	2201.57
996.32	2160.61
996.48	2101.22
996.64	2176.99
996.80	2207.71
996.96	2252.77
997.12	2146.27
997.28	2140.13
997.44	2148.32
997.60	2183.13
997.76	2189.28
997.92	2189.28
998.08	2146.27
998.24	2109.41
998.40	2197.47
998.56	2105.31
998.72	2093.02
998.88	2101.22
999.04	2133.98
999.20	2121.70
999.36	2078.69
999.52	2166.75
999.68	2123.74
999.84	2193.37
1000.00	2164.70
1000.16	2088.93
1000.32	2129.89
1000.48	2084.83
1000.64	2127.84
1000.80	2088.93
1000.95	2039.78
1001.11	2107.36
1001.27	2093.02
1001.43	2140.13
1001.59	2107.36
1001.75	2103.26
1001.91	2162.66
1002.07	2088.93
1002.23	2060.26
1002.39	2107.36
1002.55	2090.98
1002.71	2056.16
1002.87	2072.54
1003.03	2050.02
1003.19	2082.78
1003.34	2125.79
1003.50	2131.94
1003.66	2131.94
1003.82	2115.55
1003.98	2090.98
1004.14	2074.59
1004.30	2035.68
1004.46	2033.63
1004.62	2082.78
1004.78	2099.17
1004.94	2045.92
1005.09	2033.63
1005.25	2050.02
1005.41	2033.63
1005.57	2035.68
1005.73	2017.25
1005.89	1955.81
1006.05	2047.97
1006.21	1992.67
1006.37	1951.71
1006.52	2004.96
1006.68	2047.97
1006.84	2045.92
1007.00	2023.39
1007.16	2047.97
1007.32	1992.67
1007.48	1972.19
1007.64	2023.39
1007.79	1957.86
1007.95	1953.76
1008.11	2000.87
1008.27	1978.34
1008.43	2021.35
1008.59	2058.21
1008.75	1947.62
1008.91	1949.67
1009.06	2009.06
1009.22	1957.86
1009.38	1974.24
1009.54	1968.10
1009.70	1982.43
1009.86	1996.77
1010.01	1957.86
1010.17	1943.52
1010.33	1968.10
1010.49	1951.71
1010.65	1984.48
1010.81	1902.56
1010.96	1920.99
1011.12	1984.48
1011.28	1925.09
1011.44	1941.47
1011.60	1925.09
1011.76	1937.38
1011.91	2011.11
1012.07	1937.38
1012.23	1910.75
1012.39	1941.47
1012.55	1849.32
1012.71	1834.98
1012.86	1912.80
1013.02	1943.52
1013.18	1945.57
1013.34	1925.09
1013.50	1959.91
1013.65	1920.99
1013.81	1916.90
1013.97	1923.04
1014.13	1900.52
1014.29	1908.71
1014.44	1865.70
1014.60	1914.85
1014.76	1875.94
1014.92	1896.42
1015.07	2004.96
1015.23	1873.89
1015.39	1894.37
1015.55	1804.26
1015.71	1880.04
1015.86	1931.23
1016.02	1832.93
1016.18	1849.32
1016.34	1875.94
1016.49	1925.09
1016.65	1933.28
1016.81	1939.43
1016.97	1810.40
1017.12	1904.61
1017.28	1773.54
1017.44	1808.36
1017.60	1791.97
1017.75	1910.75
1017.91	1832.93
1018.07	1873.89
1018.23	1867.75
1018.38	1818.60
1018.54	1886.18
1018.70	1845.22
1018.86	1884.13
1019.01	1843.17
1019.17	1851.36
1019.33	1843.17
1019.49	1910.75
1019.64	1849.32
1019.80	1914.85
1019.96	1794.02
1020.12	1849.32
1020.27	1765.35
1020.43	1804.26
1020.59	1785.83
1020.74	1818.60
1020.90	1837.03
1021.06	1830.88
1021.22	1822.69
1021.37	1804.26
1021.53	1820.64
1021.69	1740.77
1021.84	1765.35
1022.00	1828.84
1022.16	1818.60
1022.31	1839.08
1022.47	1769.44
1022.63	1865.70
1022.79	1736.68
1022.94	1746.92
1023.10	1800.16
1023.26	1847.27
1023.41	1746.92
1023.57	1798.12
1023.73	1808.36
1023.88	1894.37
1024.04	1716.20
1024.20	1816.55
1024.35	1699.81
1024.51	1769.44
1024.67	1787.88
1024.82	1824.74
1024.98	1798.12
1025.14	1785.83
1025.29	1714.15
1025.45	1812.45
1025.61	1757.16
1025.76	1775.59
1025.92	1738.73
1026.08	1761.25
1026.23	1785.83
1026.39	1791.97
1026.55	1677.29
1026.70	1783.78
1026.86	1746.92
1027.02	1726.44
1027.17	1716.20
1027.33	1779.68
1027.48	1839.08
1027.64	1767.40
1027.80	1685.48
1027.95	1779.68
1028.11	1640.42
1028.27	1769.44
1028.42	1832.93
1028.58	1779.68
1028.73	1753.06
1028.89	1710.05
1029.05	1777.64
1029.20	1767.40
>>>>>End Processed Spectral Data<<<<<
