SpectraSuite Data File
++++++++++++++++++++++++++++++++++++
Date: Tue Jun 13 11:50:59 CEST 2017
User: INFO_000
Dark Spectrum Present: No
Reference Spectrum Present: No
Number of Sampled Component Spectra: 1
Spectrometers: USB4H00879
Integration Time (usec): 30000 (USB4H00879)
Spectra Averaged: 1 (USB4H00879)
Boxcar Smoothing: 0 (USB4H00879)
Correct for Electrical Dark: No (USB4H00879)
Strobe/Lamp Enabled: No (USB4H00879)
Correct for Detector Non-linearity: No (USB4H00879)
Correct for Stray Light: No (USB4H00879)
Number of Pixels in Processed Spectrum: 3648
>>>>>Begin Processed Spectral Data<<<<<
345.13	1308.65
345.34	1308.65
345.56	1308.65
345.78	1302.51
345.99	1417.19
346.21	1501.16
346.42	1509.35
346.64	1454.06
346.86	1513.45
347.07	1501.16
347.29	1501.16
347.50	1521.64
347.72	1564.65
347.94	1558.50
348.15	1490.92
348.37	1460.20
348.59	1572.84
348.80	1482.73
349.02	1611.75
349.23	1640.42
349.45	1636.33
349.67	1720.29
349.88	1595.37
350.10	1679.33
350.31	1646.57
350.53	1554.41
350.75	1673.19
350.96	1585.13
351.18	1669.09
351.39	1662.95
351.61	1652.71
351.82	1689.57
352.04	1595.37
352.26	1581.03
352.47	1697.77
352.69	1658.85
352.90	1675.24
353.12	1662.95
353.34	1615.85
353.55	1675.24
353.77	1673.19
353.98	1605.61
354.20	1669.09
354.41	1665.00
354.63	1703.91
354.85	1712.10
355.06	1683.43
355.28	1566.70
355.49	1652.71
355.71	1703.91
355.92	1685.48
356.14	1703.91
356.35	1675.24
356.57	1628.14
356.79	1654.76
357.00	1677.29
357.22	1720.29
357.43	1667.05
357.65	1646.57
357.86	1685.48
358.08	1724.39
358.29	1724.39
358.51	1679.33
358.72	1740.77
358.94	1753.06
359.16	1656.81
359.37	1769.44
359.59	1683.43
359.80	1716.20
360.02	1728.49
360.23	1718.25
360.45	1810.40
360.66	1658.85
360.88	1658.85
361.09	1667.05
361.31	1798.12
361.52	1773.54
361.74	1779.68
361.95	1701.86
362.17	1755.11
362.38	1814.50
362.60	1753.06
362.81	1769.44
363.03	1757.16
363.24	1826.79
363.46	1830.88
363.67	1808.36
363.89	1863.65
364.10	1742.82
364.32	1779.68
364.53	1826.79
364.75	1791.97
364.96	1808.36
365.18	1769.44
365.39	1824.74
365.61	1730.53
365.82	1826.79
366.04	1810.40
366.25	1740.77
366.47	1781.73
366.68	1775.59
366.90	1806.31
367.11	1761.25
367.33	1751.01
367.54	1779.68
367.76	1857.51
367.97	1761.25
368.19	1820.64
368.40	1744.87
368.62	1785.83
368.83	1841.12
369.05	1841.12
369.26	1759.21
369.48	1822.69
369.69	1751.01
369.91	1789.92
370.12	1847.27
370.33	1884.13
370.55	1841.12
370.76	1888.23
370.98	1908.71
371.19	1830.88
371.41	1884.13
371.62	1822.69
371.84	1884.13
372.05	1918.95
372.27	1906.66
372.48	1873.89
372.69	1834.98
372.91	1918.95
373.12	1888.23
373.34	1896.42
373.55	1904.61
373.77	1945.57
373.98	1920.99
374.20	1937.38
374.41	2060.26
374.62	1916.90
374.84	1984.48
375.05	1992.67
375.27	1966.05
375.48	1980.39
375.70	1935.33
375.91	1996.77
376.12	2017.25
376.34	2019.30
376.55	1941.47
376.77	2023.39
376.98	2033.63
377.19	1945.57
377.41	1964.00
377.62	2025.44
377.84	2062.30
378.05	2015.20
378.27	2039.78
378.48	2142.18
378.69	2215.90
378.91	2064.35
379.12	2082.78
379.34	2111.46
379.55	2158.56
379.76	2056.16
379.98	2072.54
380.19	2172.89
380.41	2060.26
380.62	2086.88
380.83	2113.50
381.05	2088.93
381.26	2133.98
381.47	2078.69
381.69	2101.22
381.90	2131.94
382.12	2066.40
382.33	2101.22
382.54	2127.84
382.76	2181.09
382.97	2158.56
383.19	2191.33
383.40	2156.51
383.61	2158.56
383.83	2205.66
384.04	2203.61
384.25	2207.71
384.47	2256.86
384.68	2320.35
384.89	2263.01
385.11	2242.53
385.32	2322.40
385.54	2117.60
385.75	2265.05
385.96	2273.25
386.18	2246.62
386.39	2263.01
386.60	2275.29
386.82	2375.64
387.03	2324.44
387.24	2291.68
387.46	2320.35
387.67	2344.92
387.88	2324.44
388.10	2402.27
388.31	2437.08
388.52	2494.43
388.74	2402.27
388.95	2408.41
389.16	2447.32
389.38	2488.28
389.59	2396.12
389.80	2521.05
390.02	2492.38
390.23	2519.00
390.44	2516.95
390.66	2490.33
390.87	2449.37
391.08	2473.95
391.30	2502.62
391.51	2492.38
391.72	2475.99
391.94	2494.43
392.15	2549.72
392.36	2535.39
392.58	2643.93
392.79	2594.78
393.00	2611.16
393.22	2631.64
393.43	2645.98
393.64	2611.16
393.85	2574.30
394.07	2607.06
394.28	2602.97
394.49	2652.12
394.71	2609.11
394.92	2791.38
395.13	2666.46
395.35	2590.68
395.56	2703.32
395.77	2783.19
395.98	2799.57
396.20	2764.76
396.41	2826.20
396.62	2725.85
396.84	2738.13
397.05	2863.06
397.26	2789.33
397.47	2940.88
397.69	2770.90
397.90	2877.40
398.11	2936.79
398.32	2854.87
398.54	2836.44
398.75	2822.10
398.96	2985.94
399.18	2983.89
399.39	2963.41
399.60	3067.86
399.81	2938.84
400.03	2926.55
400.24	3137.49
400.45	2971.60
400.66	3004.37
400.88	3037.14
401.09	3135.44
401.30	3061.71
401.51	3074.00
401.73	3090.38
401.94	3026.90
402.15	3239.89
402.36	3139.54
402.58	3143.63
402.79	3192.78
403.00	3147.73
403.21	3205.07
403.43	3213.26
403.64	3342.28
403.85	3221.45
404.06	3243.98
404.27	3243.98
404.49	3213.26
404.70	3213.26
404.91	3344.33
405.12	3237.84
405.34	3194.83
405.55	3368.91
405.76	3250.13
405.97	3338.19
406.19	3350.48
406.40	3295.18
406.61	3387.34
406.82	3420.11
407.03	3297.23
407.25	3336.14
407.46	3483.59
407.67	3471.31
407.88	3446.73
408.09	3456.97
408.31	3377.10
408.52	3547.08
408.73	3448.78
408.94	3416.01
409.15	3506.12
409.37	3442.64
409.58	3635.14
409.79	3620.81
410.00	3606.47
410.21	3487.69
410.43	3579.85
410.64	3561.42
410.85	3639.24
411.06	3635.14
411.27	3608.52
411.48	3661.77
411.70	3700.68
411.91	3612.62
412.12	3672.01
412.33	3682.25
412.54	3848.13
412.76	3825.61
412.97	3755.97
413.18	3626.95
413.39	3764.17
413.60	3758.02
413.81	3811.27
414.03	3825.61
414.24	3928.00
414.45	3917.76
414.66	3850.18
414.87	4014.02
415.08	3919.81
415.30	3848.13
415.51	3868.61
415.72	3893.19
415.93	4030.40
416.14	3991.49
416.35	4054.98
416.56	3964.87
416.78	3925.96
416.99	4040.64
417.20	3950.53
417.41	4190.14
417.62	4071.36
417.83	4050.88
418.04	4032.45
418.26	4114.37
418.47	4093.89
418.68	4206.53
418.89	4042.69
419.10	4267.97
419.31	4212.67
419.52	4423.61
419.73	4302.78
419.95	4274.11
420.16	4274.11
420.37	4206.53
420.58	4327.36
420.79	4126.66
421.00	4388.80
421.21	4495.29
421.42	4321.21
421.63	4349.89
421.85	4378.56
422.06	4480.96
422.27	4515.77
422.48	4560.83
422.69	4526.01
422.90	4648.89
423.11	4599.74
423.32	4575.16
423.53	4652.98
423.75	4659.13
423.96	4739.00
424.17	4632.51
424.38	4739.00
424.59	4732.86
424.80	4997.04
425.01	4741.05
425.22	4884.41
425.43	4724.66
425.64	5009.33
425.85	5015.48
426.06	4904.89
426.28	4982.71
426.49	4857.78
426.70	5052.34
426.91	5093.30
427.12	5085.11
427.33	4962.23
427.54	5029.81
427.75	5117.87
427.96	5281.71
428.17	5136.31
428.38	5283.76
428.59	5205.94
428.80	5093.30
429.01	5398.45
429.23	5220.27
429.44	5572.52
429.65	5392.30
429.86	5349.29
430.07	5365.68
430.28	5367.73
430.49	5228.46
430.70	5494.70
430.91	5560.24
431.12	5441.45
431.33	5640.11
431.54	5633.96
431.75	5531.56
431.96	5644.20
432.17	5681.07
432.38	5713.83
432.59	5916.58
432.80	5666.73
433.01	5881.77
433.22	5838.76
433.43	5773.22
433.64	5803.94
433.85	5674.92
434.06	5928.87
434.27	5830.57
434.49	5959.59
434.70	6074.28
434.91	6012.84
435.12	6102.95
435.33	6188.96
435.54	5857.19
435.75	5971.88
435.96	5994.40
436.17	5916.58
436.38	6205.35
436.59	6201.25
436.80	6252.45
437.01	6293.41
437.22	6502.30
437.43	6463.39
437.64	6201.25
437.85	6479.77
438.06	6416.29
438.27	6250.40
438.48	6408.09
438.69	6389.66
438.90	6410.14
439.11	6332.32
439.32	6479.77
439.53	6518.68
439.74	6703.00
439.95	6666.14
440.16	6526.88
440.37	6580.12
440.57	6447.01
440.78	6666.14
440.99	6709.15
441.20	6682.52
441.41	6510.49
441.62	6778.78
441.83	6543.26
442.04	6915.99
442.25	6856.60
442.46	6938.52
442.67	7098.26
442.88	7225.23
443.09	6799.26
443.30	6956.95
443.51	6948.76
443.72	7221.14
443.93	6913.94
444.14	7352.21
444.35	6948.76
444.56	7309.20
444.77	7106.45
444.98	7036.82
445.19	7194.51
445.40	7272.34
445.61	7245.71
445.81	7485.33
446.02	7387.02
446.23	7458.70
446.44	7262.10
446.65	7255.95
446.86	7389.07
447.07	7382.93
447.28	7606.16
447.49	7530.38
447.70	7532.43
447.91	7509.90
448.12	7550.86
448.33	7767.95
448.54	7679.88
448.74	7710.60
448.95	7647.12
449.16	7718.79
449.37	8032.13
449.58	7694.22
449.79	7946.12
450.00	7884.68
450.21	7970.69
450.42	8214.40
450.63	8175.49
450.84	8175.49
451.05	7886.73
451.25	7974.79
451.46	8077.19
451.67	8089.48
451.88	8232.83
452.09	8228.74
452.30	8284.03
452.51	8175.49
452.72	8216.45
452.93	8636.28
453.13	8279.94
453.34	8368.00
453.55	8417.15
453.76	8566.65
453.97	8832.89
454.18	8470.40
454.39	8677.24
454.60	8480.64
454.81	8509.31
455.01	8716.16
455.22	8548.22
455.43	8718.20
455.64	9015.16
455.85	9125.75
456.06	9168.76
456.27	8937.34
456.48	9074.55
456.68	9201.52
456.89	9119.60
457.10	9320.31
457.31	9305.97
457.52	9228.15
457.73	9248.63
457.94	9391.98
458.14	9314.16
458.35	9529.20
458.56	9250.67
458.77	9361.27
458.98	9678.70
459.19	9705.32
459.39	9674.60
459.60	9826.15
459.81	9684.84
460.02	9645.93
460.23	9893.74
460.44	10164.07
460.65	10094.44
460.85	10010.47
461.06	10164.07
461.27	9852.78
461.48	10325.86
461.69	10559.33
461.89	10133.35
462.10	10598.24
462.31	10256.23
462.52	10409.83
462.73	10501.98
462.94	10714.97
463.14	10669.92
463.35	10594.14
463.56	11069.27
463.77	10876.76
463.98	10719.07
464.18	10864.47
464.39	11048.79
464.60	11247.44
464.81	11282.26
465.02	11091.80
465.23	11411.28
465.43	11376.47
465.64	11261.78
465.85	11462.48
466.06	11280.21
466.27	11904.84
466.47	11802.44
466.68	11716.43
466.89	11716.43
467.10	11972.43
467.30	11759.44
467.51	11847.50
467.72	12142.41
467.93	11767.63
468.14	12318.53
468.34	12248.90
468.55	12277.57
468.76	12240.71
468.97	12296.00
469.17	12556.10
469.38	12592.96
469.59	12779.32
469.80	12519.23
470.01	12668.73
470.21	12904.25
470.42	13102.90
470.63	13160.25
470.84	13025.08
471.04	13254.45
471.25	13205.30
471.46	13274.93
471.67	13451.06
471.87	13565.74
472.08	13618.99
472.29	13743.92
472.50	13530.93
472.70	13780.78
472.91	13860.65
473.12	14157.61
473.33	14069.55
473.53	14343.97
473.74	14061.35
473.95	14364.45
474.16	14581.54
474.36	14495.52
474.57	14778.14
474.78	14909.21
474.99	14548.77
475.19	14896.92
475.40	15036.19
475.61	15281.94
475.81	15437.59
476.02	15677.20
476.23	15578.90
476.44	15652.63
476.64	15669.01
476.85	15968.01
477.06	15939.34
477.27	16375.56
477.47	16428.81
477.68	16248.58
477.89	16533.25
478.09	16670.47
478.30	16557.83
478.51	16660.23
478.71	17045.24
478.92	16948.99
479.13	17225.47
479.34	17387.25
479.54	17368.82
479.75	17153.79
479.96	17411.83
480.16	17485.56
480.37	17727.22
480.58	17843.95
480.78	18165.48
480.99	18257.64
481.20	17870.58
481.41	18247.40
481.61	18439.91
481.82	18769.63
482.03	18798.31
482.23	18595.56
482.44	18812.64
482.65	19259.10
482.85	19068.64
483.06	18947.81
483.27	19214.04
483.47	19158.75
483.68	19480.28
483.89	19664.60
484.09	19422.94
484.30	19906.26
484.51	19975.89
484.71	20235.98
484.92	19994.32
485.13	20375.24
485.33	20266.70
485.54	20227.79
485.75	20534.98
485.95	20817.60
486.16	20926.14
486.37	20807.36
486.57	20936.38
486.78	21130.94
486.98	21065.41
487.19	21194.43
487.40	21204.67
487.60	21628.60
487.81	22242.99
488.02	21731.00
488.22	21503.67
488.43	21929.65
488.64	21898.93
488.84	22384.30
489.05	22343.34
489.25	22513.32
489.46	22709.93
489.67	22535.85
489.87	22877.86
490.08	22806.18
490.29	23037.60
490.49	23436.95
490.70	23060.13
490.90	23621.27
491.11	23336.60
491.32	23365.28
491.52	23447.19
491.73	23862.93
491.94	23701.14
492.14	23766.68
492.35	24090.26
492.55	24280.72
492.76	24153.74
492.97	24671.88
493.17	24032.91
493.38	24297.10
493.58	24821.38
493.79	24598.15
494.00	24739.46
494.20	25355.90
494.41	25183.87
494.61	25327.23
494.82	25429.63
495.02	25226.88
495.23	25243.26
495.44	25419.39
495.64	25818.74
495.85	25865.85
496.05	25847.41
496.26	25943.67
496.47	26351.21
496.67	26205.81
496.88	26330.73
497.08	26187.38
497.29	26633.83
497.49	26410.60
497.70	26607.21
497.91	26914.41
498.11	27045.48
498.32	27209.31
498.52	26936.93
498.73	27393.63
498.93	27223.65
499.14	27629.15
499.34	27258.46
499.55	27741.78
499.76	27506.27
499.96	27776.60
500.17	27739.74
500.37	27987.54
500.58	27786.84
500.78	27889.24
500.99	28094.04
501.19	28358.22
501.40	27735.64
501.60	28272.21
501.81	28778.06
502.02	28462.67
502.22	28278.35
502.43	28616.27
502.63	28591.69
502.84	28741.19
503.04	28845.64
503.25	28884.55
503.45	28923.46
503.66	29361.73
503.86	29124.16
504.07	29466.17
504.27	29181.51
504.48	29425.22
504.68	29443.65
504.89	29722.17
505.09	29906.49
505.30	29376.06
505.50	29906.49
505.71	29789.75
505.91	30107.19
506.12	29900.34
506.32	29623.87
506.53	30586.41
506.73	30459.44
506.94	30320.18
507.14	30445.10
507.35	30062.13
507.55	30598.70
507.76	30711.34
507.96	30363.18
508.17	30666.28
508.37	30864.94
508.58	30666.28
508.78	31055.40
508.99	31241.76
509.19	30735.92
509.40	31217.19
509.60	31331.87
509.81	31258.15
510.01	31125.03
510.22	31378.98
510.42	31069.73
510.63	31161.89
510.83	31252.00
511.04	31454.75
511.24	31913.50
511.44	31630.88
511.65	31991.32
511.85	31860.25
512.06	31780.38
512.26	32335.38
512.47	31835.67
512.67	31764.00
512.88	32243.22
513.08	31966.74
513.29	32362.00
513.49	32443.92
513.69	32146.97
513.90	32474.64
514.10	32583.18
514.31	32443.92
514.51	32402.96
514.72	32878.09
514.92	32783.88
515.13	32720.40
515.33	32908.81
515.53	32847.37
515.74	33033.74
515.94	33037.83
516.15	32906.76
516.35	33037.83
516.56	33177.09
516.76	33234.44
516.96	33201.67
517.17	33555.97
517.37	33584.64
517.58	33652.22
517.78	33445.38
517.99	33498.62
518.19	34006.52
518.39	33908.22
518.60	33871.36
518.80	34094.58
519.01	34377.20
519.21	33955.32
519.41	34229.75
519.62	34229.75
519.82	34332.15
520.03	34590.19
520.23	34426.35
520.43	34043.38
520.64	34663.92
520.84	35186.15
521.05	34807.28
521.25	34985.45
521.45	35018.22
521.66	35143.14
521.86	34868.72
522.07	34954.73
522.27	35501.54
522.47	35347.94
522.68	35581.41
522.88	35339.75
523.08	35814.88
523.29	35751.39
523.49	35784.16
523.70	36042.20
523.90	36345.30
524.10	35870.17
524.31	36222.42
524.51	35972.57
524.71	36359.64
524.92	36447.70
525.12	36787.66
525.33	36451.80
525.53	36750.80
525.73	36863.44
525.94	36466.13
526.14	36869.58
526.34	36980.17
526.55	37062.09
526.75	37232.07
526.95	37520.84
527.16	37447.11
527.36	37320.13
527.56	37686.72
527.77	37709.25
527.97	37711.30
528.17	38067.64
528.38	37912.00
528.58	37742.02
528.78	37969.34
528.99	37875.13
529.19	38792.62
529.39	37866.94
529.60	38895.02
529.80	38407.61
530.00	38534.58
530.21	38790.58
530.41	38933.93
530.61	38725.04
530.82	39044.52
531.02	38995.37
531.22	39288.23
531.43	39122.35
531.63	39302.57
531.83	39593.38
532.04	39695.78
532.24	39757.22
532.44	40078.75
532.64	40095.13
532.85	40021.41
533.05	39933.34
533.25	40103.32
533.46	40183.19
533.66	40514.97
533.86	40490.39
534.07	41055.63
534.27	40703.38
534.47	40899.98
534.67	40961.42
534.88	41237.90
535.08	40748.43
535.28	41311.63
535.49	41506.18
535.69	41784.71
535.89	41559.43
536.09	41639.30
536.30	41870.72
536.50	41493.89
536.70	42306.94
536.91	41719.17
537.11	41880.96
537.31	42120.57
537.51	42186.11
537.72	42366.33
537.92	42386.81
538.12	42569.08
538.32	42567.03
538.53	42904.95
538.73	42810.74
538.93	43128.17
539.13	42818.93
539.34	43083.12
539.54	42861.94
539.74	43357.55
539.94	43451.75
540.15	43177.33
540.35	43750.76
540.55	43685.22
540.75	43998.56
540.96	43531.62
541.16	43253.10
541.36	43793.76
541.56	43560.30
541.77	44307.80
541.97	43986.27
542.17	44115.29
542.37	44283.23
542.58	44354.91
542.78	44514.65
542.98	44350.81
543.18	44479.83
543.38	45016.40
543.59	44987.73
543.79	44764.50
543.99	44645.72
544.19	44954.96
544.40	44832.08
544.60	45202.77
544.80	44907.86
545.00	45028.69
545.20	45288.78
545.41	45479.24
545.61	45301.07
545.81	45729.09
546.01	45681.99
546.21	45413.71
546.42	45432.14
546.62	45622.60
546.82	45729.09
547.02	45663.56
547.22	46245.18
547.43	45217.10
547.63	45708.61
547.83	46196.03
548.03	45876.55
548.23	46067.01
548.44	45978.95
548.64	46404.92
548.84	46402.88
549.04	46245.18
549.24	46456.12
549.45	46667.06
549.65	46810.42
549.85	46644.54
550.05	46994.74
550.25	46255.42
550.45	47211.82
550.66	46710.07
550.86	46884.15
551.06	46990.64
551.26	47037.75
551.46	47306.03
551.66	46968.12
551.87	47025.46
552.07	47541.55
552.27	47213.87
552.47	47197.49
552.67	47734.06
552.87	47686.95
553.07	47449.39
553.28	47531.31
553.48	47451.44
553.68	47541.55
553.88	47996.20
554.08	47330.61
554.28	47750.44
554.48	47879.46
554.69	47715.62
554.89	48268.58
555.09	48012.58
555.29	47627.56
555.49	48149.79
555.69	47977.76
555.89	47609.13
556.10	48399.65
556.30	47955.24
556.50	48248.10
556.70	48121.12
556.90	48205.09
557.10	48373.02
557.30	48008.48
557.50	48618.78
557.70	48278.82
557.91	49034.52
558.11	48235.81
558.31	48536.86
558.51	48139.55
558.71	48647.45
558.91	48792.86
559.11	48536.86
559.31	48702.74
559.51	48813.34
559.72	48145.70
559.92	48557.34
560.12	48524.57
560.32	49184.02
560.52	48837.91
560.72	48725.27
560.92	49134.87
561.12	49022.23
561.32	49577.23
561.52	48801.05
561.72	49134.87
561.93	48629.02
562.13	49227.02
562.33	48686.36
562.53	49337.62
562.73	48534.81
562.93	49558.80
563.13	49200.40
563.33	49138.96
563.53	49267.98
563.73	48993.56
563.93	49394.96
564.13	49802.50
564.33	49190.16
564.53	49034.52
564.74	49861.90
564.94	49650.95
565.14	49655.05
565.34	49323.28
565.54	49933.57
565.74	49788.17
565.94	49962.25
566.14	49450.25
566.34	49898.76
566.54	50189.57
566.74	49364.24
566.94	50140.42
567.14	50593.02
567.34	49700.11
567.54	49718.54
567.74	49796.36
567.94	49722.63
568.14	50304.26
568.34	50076.93
568.54	49913.09
568.74	50349.31
568.94	50040.07
569.14	50173.19
569.34	50271.49
569.54	50322.69
569.75	50439.42
569.95	50181.38
570.15	50291.97
570.35	50386.18
570.55	50318.59
570.75	50494.72
570.95	50812.15
571.15	50482.43
571.35	50801.91
571.55	50715.90
571.75	50951.41
571.95	50816.25
572.15	50707.71
572.35	50842.87
572.55	50574.59
572.75	50861.30
572.95	50857.21
573.15	51016.95
573.35	50975.99
573.55	50775.29
573.75	50566.40
573.95	51094.77
574.15	50896.12
574.35	51244.27
574.55	51264.75
574.75	50803.96
574.95	51285.23
575.15	51143.92
575.34	51053.81
575.54	51291.38
575.74	51430.64
575.94	51258.61
576.14	51090.68
576.34	51825.90
576.54	51473.65
576.74	51473.65
576.94	51283.19
577.14	51660.01
577.34	51885.29
577.54	51557.61
577.74	51750.12
577.94	51889.38
578.14	52061.41
578.34	51967.21
578.54	51594.48
578.74	51602.67
578.94	51639.53
579.14	51844.33
579.34	51637.48
579.54	52292.83
579.74	52428.00
579.94	52049.13
580.13	52471.01
580.33	52208.87
580.53	52393.18
580.73	52571.36
580.93	52505.82
581.13	52946.14
581.33	52710.62
581.53	52913.37
581.73	52026.60
581.93	52671.71
582.13	53005.53
582.33	52552.93
582.53	52743.39
582.73	52929.75
582.92	53114.07
583.12	52808.92
583.32	52761.82
583.52	52595.93
583.72	52909.27
583.92	52536.54
584.12	53249.24
584.32	53359.83
584.52	52978.90
584.72	53206.23
584.92	53339.35
585.11	53488.85
585.31	53587.15
585.51	53572.81
585.71	52983.00
585.91	53499.09
586.11	53187.80
586.31	53818.57
586.51	53288.15
586.71	53611.73
586.91	53568.72
587.10	53970.12
587.30	54389.95
587.50	54228.16
587.70	54287.56
587.90	54111.43
588.10	54240.45
588.30	53724.36
588.50	53986.50
588.69	54416.58
588.89	54006.98
589.09	54119.62
589.29	54355.14
589.49	54713.53
589.69	54023.37
589.89	54283.46
590.08	54721.72
590.28	54351.04
590.48	54342.85
590.68	54238.40
590.88	54467.78
591.08	54297.80
591.28	54097.09
591.47	55088.31
591.67	54555.84
591.87	54906.04
592.07	54764.73
592.27	54523.07
592.47	54693.05
592.67	54766.78
592.86	54494.40
593.06	54678.72
593.26	54985.91
593.46	54734.01
593.66	55024.82
593.86	55076.02
594.05	54928.57
594.25	55194.81
594.45	54920.38
594.65	54752.44
594.85	54574.27
595.05	54998.20
595.24	55153.85
595.44	55071.93
595.64	55506.10
595.84	55184.57
596.04	55338.16
596.23	55002.30
596.43	55645.36
596.63	55323.83
596.83	55266.48
597.03	55891.12
597.22	55801.00
597.42	55463.09
597.62	55884.97
597.82	55528.62
598.02	55581.87
598.21	55624.88
598.41	55088.31
598.61	55327.92
598.81	55989.42
599.01	55973.03
599.20	55876.78
599.40	55563.44
599.60	55846.06
599.80	56663.20
600.00	55897.26
600.19	55833.77
600.39	55567.54
600.59	56237.22
600.79	56097.96
600.98	55831.72
601.18	55942.31
601.38	56753.31
601.58	56657.06
601.78	56734.88
601.97	56396.96
602.17	57019.55
602.37	56337.57
602.57	56480.93
602.76	56612.00
602.96	56325.28
603.16	56718.49
603.36	56894.62
603.55	56773.79
603.75	56593.57
603.95	57222.29
604.15	56884.38
604.34	56507.55
604.54	57042.07
604.74	56904.86
604.94	56693.92
605.13	57392.28
605.33	56906.91
605.53	57386.13
605.73	57564.31
605.92	57371.80
606.12	57142.42
606.32	57392.28
606.52	57230.49
606.71	56956.06
606.91	57848.97
607.11	57435.28
607.30	57195.67
607.50	57492.63
607.70	57263.25
607.90	57709.71
608.09	57607.31
608.29	57601.17
608.49	57543.83
608.68	57851.02
608.88	57832.59
609.08	57625.74
609.28	57859.21
609.47	57441.43
609.67	57511.06
609.87	57459.86
610.06	57934.99
610.26	58080.39
610.46	57937.04
610.66	57828.49
610.85	57961.61
611.05	57590.93
611.25	58254.47
611.44	57226.39
611.64	57531.54
611.84	57519.25
612.03	57474.20
612.23	58055.82
612.43	58082.44
612.62	57875.60
612.82	58008.71
613.02	57738.38
613.21	57908.36
613.41	57865.36
613.61	58037.39
613.80	57455.76
614.00	57861.26
614.20	58008.71
614.39	58053.77
614.59	58139.78
614.79	57752.72
614.98	57584.79
615.18	57808.01
615.38	57715.86
615.57	57351.32
615.77	57265.30
615.97	57859.21
616.16	58047.63
616.36	57646.22
616.56	57818.25
616.75	57611.41
616.95	57406.61
617.15	57853.07
617.34	58145.93
617.54	57406.61
617.74	57738.38
617.93	57418.90
618.13	57312.41
618.32	57916.56
618.52	57601.17
618.72	57621.65
618.91	57738.38
619.11	57291.93
619.31	57500.82
619.50	57689.23
619.70	56931.48
619.90	57566.35
620.09	57478.29
620.29	57568.40
620.48	57539.73
620.68	57834.64
620.88	57189.53
621.07	57050.27
621.27	57341.08
621.46	56681.63
621.66	57398.42
621.86	57359.51
622.05	56874.14
622.25	57232.53
622.44	57156.76
622.64	56962.20
622.84	57359.51
623.03	56777.89
623.23	57265.30
623.42	56818.84
623.62	57318.55
623.82	57234.58
624.01	57123.99
624.21	57259.16
624.40	57046.17
624.60	57054.36
624.80	56759.45
624.99	56757.41
625.19	56646.82
625.38	57181.34
625.58	56870.04
625.77	56872.09
625.97	56853.66
626.17	56669.34
626.36	56984.73
626.56	56841.37
626.75	56216.74
626.95	57582.74
627.14	56868.00
627.34	57162.90
627.54	56632.48
627.73	56911.00
627.93	56618.14
628.12	56413.35
628.32	56716.45
628.51	56689.82
628.71	56874.14
628.90	56331.43
629.10	56749.21
629.30	56900.76
629.49	56534.18
629.69	56657.06
629.88	56730.78
630.08	57064.60
630.27	56552.61
630.47	56437.92
630.66	56151.21
630.86	56771.74
631.05	56288.42
631.25	56980.63
631.44	56333.48
631.64	56667.30
631.84	56673.44
632.03	57009.31
632.23	56779.93
632.42	57248.92
632.62	56495.27
632.81	56480.93
633.01	56476.83
633.20	56745.12
633.40	56593.57
633.59	56775.84
633.79	56614.05
633.98	56403.11
634.18	56732.83
634.37	56712.35
634.57	56630.43
634.76	56775.84
634.96	56978.59
635.15	56695.97
635.35	56351.91
635.54	56704.16
635.74	56886.43
635.93	56706.21
636.13	56616.10
636.32	56745.12
636.52	56022.19
636.71	56538.27
636.91	56761.50
637.10	56442.02
637.30	56757.41
637.49	57097.37
637.69	56779.93
637.88	56911.00
638.08	56366.24
638.27	56517.79
638.46	56372.39
638.66	56143.02
638.85	56868.00
639.05	56495.27
639.24	56460.45
639.44	56145.06
639.63	56460.45
639.83	56669.34
640.02	56267.94
640.22	56374.44
640.41	56323.24
640.61	56157.35
640.80	56308.90
640.99	55983.27
641.19	56972.44
641.38	56120.49
641.58	55997.61
641.77	56450.21
641.97	56294.56
642.16	56806.56
642.36	56790.17
642.55	56675.49
642.74	56241.32
642.94	56861.85
643.13	56220.84
643.33	56716.45
643.52	56857.76
643.72	56448.16
643.91	56528.03
644.10	56724.64
644.30	56323.24
644.49	56321.19
644.69	56329.38
644.88	56341.67
645.08	56417.44
645.27	56368.29
645.46	56382.63
645.66	56366.24
645.85	56171.69
646.05	56667.30
646.24	56550.56
646.43	56470.69
646.63	56480.93
646.82	57156.76
647.02	56599.71
647.21	56747.17
647.40	56143.02
647.60	56544.42
647.79	56708.25
647.99	56747.17
648.18	56612.00
648.37	56951.96
648.57	56960.15
648.76	56540.32
648.96	56087.72
649.15	56581.28
649.34	57054.36
649.54	56525.99
649.73	56093.86
649.92	56560.80
650.12	56542.37
650.31	56870.04
650.51	56341.67
650.70	56911.00
650.89	56208.55
651.09	57136.28
651.28	56632.48
651.47	56966.30
651.67	56503.46
651.86	56947.87
652.06	56335.52
652.25	56579.23
652.44	56599.71
652.64	56521.89
652.83	56605.86
653.02	56349.86
653.22	56280.23
653.41	56698.01
653.60	56513.70
653.80	56677.54
653.99	56538.27
654.18	56431.78
654.38	56356.00
654.57	56546.47
654.76	56605.86
654.96	56841.37
655.15	56667.30
655.34	56102.06
655.54	56331.43
655.73	56181.93
655.92	56448.16
656.12	56274.09
656.31	56159.40
656.50	56214.69
656.70	56280.23
656.89	55903.40
657.08	56394.92
657.28	55962.79
657.47	56343.72
657.66	56730.78
657.86	55985.32
658.05	56286.37
658.24	56571.04
658.43	56140.97
658.63	56671.39
658.82	56259.75
659.01	56339.62
659.21	56280.23
659.40	56370.34
659.59	55909.55
659.79	56556.70
659.98	56409.25
660.17	56419.49
660.36	55708.85
660.56	56401.06
660.75	56298.66
660.94	56140.97
661.14	56063.14
661.33	56530.08
661.52	56278.18
661.71	56382.63
661.91	56249.51
662.10	56218.79
662.29	56022.19
662.49	55866.54
662.68	56296.61
662.87	56220.84
663.06	56202.41
663.26	56220.84
663.45	56067.24
663.64	55962.79
663.83	56323.24
664.03	55921.83
664.22	56257.70
664.41	56233.13
664.60	55538.86
664.80	56247.46
664.99	55934.12
665.18	55733.42
665.37	56128.68
665.57	56284.33
665.76	55874.73
665.95	56028.33
666.14	55725.23
666.34	55854.25
666.53	55981.23
666.72	55848.11
666.91	55688.37
667.11	55608.50
667.30	55614.64
667.49	55747.76
667.68	55723.18
667.87	55411.89
668.07	56020.14
668.26	55936.17
668.45	55696.56
668.64	55231.67
668.84	56026.28
669.03	55604.40
669.22	55119.03
669.41	55344.31
669.60	55755.95
669.80	55395.51
669.99	55790.76
670.18	55581.87
670.37	55876.78
670.57	55782.57
670.76	55286.96
670.95	55628.98
671.14	55428.27
671.33	55381.17
671.53	55659.69
671.72	55432.37
671.91	55129.27
672.10	55116.98
672.29	55733.42
672.48	55344.31
672.68	55268.53
672.87	55250.10
673.06	54990.01
673.25	55266.48
673.44	55170.23
673.64	55055.54
673.83	55176.37
674.02	55141.56
674.21	54947.00
674.40	55166.13
674.59	54774.97
674.79	54932.67
674.98	54791.36
675.17	55127.22
675.36	54672.57
675.55	55241.91
675.74	54822.08
675.94	54645.95
676.13	55190.71
676.32	54768.83
676.51	55254.20
676.70	54557.89
676.89	54604.99
677.08	55071.93
677.28	54232.26
677.47	54844.60
677.66	55276.72
677.85	54891.71
678.04	55194.81
678.23	54727.87
678.42	54965.43
678.62	54645.95
678.81	54951.10
679.00	54334.66
679.19	55272.63
679.38	54607.04
679.57	54508.74
679.76	54561.98
679.96	54398.15
680.15	54574.27
680.34	54564.03
680.53	54457.54
680.72	54176.97
680.91	54678.72
681.10	54054.09
681.29	54445.25
681.48	54211.78
681.68	54379.71
681.87	54072.52
682.06	54138.05
682.25	53613.77
682.44	54111.43
682.63	53904.59
682.82	53632.21
683.01	53470.42
683.20	53595.34
683.39	53974.22
683.59	53568.72
683.78	53484.75
683.97	53884.11
684.16	53427.41
684.35	53400.79
684.54	53851.34
684.73	53458.13
684.92	53425.36
685.11	53460.18
685.30	53615.82
685.49	53603.53
685.69	53656.78
685.88	53054.68
686.07	53439.70
686.26	53245.14
686.45	53435.60
686.64	53189.84
686.83	53456.08
687.02	53107.93
687.21	53144.79
687.40	53286.10
687.59	53023.96
687.78	53257.43
687.97	53036.25
688.16	53116.12
688.35	52716.76
688.54	53026.01
688.74	53351.63
688.93	52669.66
689.12	52767.96
689.31	53181.65
689.50	52868.31
689.69	52659.42
689.88	52262.11
690.07	52886.74
690.26	52362.46
690.45	52794.59
690.64	52243.68
690.83	52962.52
691.02	52638.94
691.21	52704.48
691.40	52331.75
691.59	52511.97
691.78	52075.75
691.97	52731.10
692.16	52653.28
692.35	52190.44
692.54	52323.55
692.73	52737.24
692.92	52057.32
693.11	52174.05
693.30	52202.72
693.49	52274.40
693.68	52059.37
693.87	52020.45
694.06	51780.84
694.25	52057.32
694.44	51932.39
694.63	51997.93
694.82	51387.63
695.01	51877.10
695.20	51254.51
695.39	51856.62
695.58	52069.61
695.77	51678.44
695.96	51545.33
696.15	51635.44
696.34	51651.82
696.53	51545.33
696.72	51506.41
696.91	51451.12
697.10	51115.25
697.29	50662.65
697.48	51440.88
697.67	51172.60
697.86	50863.35
698.05	50998.52
698.24	51389.68
698.43	50951.41
698.62	50943.22
698.81	50922.74
699.00	51021.05
699.19	50611.45
699.38	50885.88
699.57	50652.41
699.76	51543.28
699.95	50263.30
700.14	50666.75
700.32	50705.66
700.51	50451.71
700.70	51066.10
700.89	50670.84
701.08	50967.80
701.27	50443.52
701.46	50539.77
701.65	50164.99
701.84	50431.23
702.03	50535.68
702.22	50189.57
702.41	50334.98
702.60	50072.84
702.79	50136.32
702.98	49941.77
703.17	50117.89
703.35	50054.40
703.54	49880.33
703.73	49900.81
703.92	50695.42
704.11	49974.53
704.30	49677.58
704.49	49515.79
704.68	49550.60
704.87	49562.89
705.06	49175.83
705.25	49343.76
705.43	49798.41
705.62	49632.52
705.81	49231.12
706.00	49435.92
706.19	48913.69
706.38	49728.78
706.57	49407.25
706.76	49399.05
706.95	49562.89
707.14	48981.27
707.32	49397.01
707.51	48645.40
707.70	48950.55
707.89	48801.05
708.08	48909.59
708.27	49513.74
708.46	49401.10
708.65	49024.28
708.84	49050.90
709.02	49138.96
709.21	48489.76
709.40	48510.24
709.59	48244.00
709.78	48409.89
709.97	48747.80
710.16	48157.99
710.34	48100.64
710.53	48569.63
710.72	47904.04
710.91	48637.21
711.10	48530.72
711.29	48860.44
711.48	48715.03
711.66	48168.22
711.85	47715.62
712.04	48256.29
712.23	48225.57
712.42	48211.23
712.61	48080.16
712.80	47832.36
712.98	48192.80
713.17	47541.55
713.36	47945.00
713.55	47951.14
713.74	47865.13
713.93	47768.87
714.11	47938.85
714.30	47822.12
714.49	47590.70
714.68	47682.86
714.87	47904.04
715.06	47996.20
715.24	47095.09
715.43	47584.55
715.62	47566.12
715.81	47574.31
716.00	47650.09
716.18	47131.95
716.37	46662.97
716.56	46849.33
716.75	46908.72
716.94	46947.64
717.12	46765.37
717.31	47344.94
717.50	47070.51
717.69	46632.25
717.88	46720.31
718.06	47025.46
718.25	46748.98
718.44	46398.78
718.63	46607.67
718.82	46433.60
719.00	46523.71
719.19	46503.23
719.38	46351.68
719.57	46298.43
719.76	45964.61
719.94	45716.81
720.13	45921.60
720.32	46052.67
720.51	46064.96
720.69	45669.70
720.88	45911.36
721.07	45440.33
721.26	45917.51
721.44	45403.47
721.63	45188.43
721.82	45362.51
722.01	45352.27
722.20	45647.18
722.38	45196.62
722.57	45206.86
722.76	45393.23
722.95	45307.21
723.13	44991.83
723.32	44961.11
723.51	44856.66
723.70	44537.18
723.88	44893.52
724.07	44221.79
724.26	44576.09
724.44	44182.88
724.63	44586.33
724.82	45016.40
725.01	44856.66
725.19	44635.48
725.38	44350.81
725.57	44334.43
725.76	44133.73
725.94	44414.30
726.13	44571.99
726.32	44397.91
726.51	44238.17
726.69	44707.16
726.88	44066.14
727.07	44045.66
727.25	44174.69
727.44	44168.54
727.63	44240.22
727.82	43902.31
728.00	43924.83
728.19	44158.30
728.38	44252.51
728.56	43396.46
728.75	44289.37
728.94	43930.98
729.12	44281.18
729.31	44113.25
729.50	43533.67
729.69	43980.13
729.87	43777.38
730.06	43826.53
730.25	43742.56
730.43	43855.20
730.62	43599.21
730.81	43722.08
730.99	43511.14
731.18	43451.75
731.37	44170.59
731.55	43996.51
731.74	43883.87
731.93	43707.75
732.11	43595.11
732.30	43871.59
732.49	43488.62
732.67	43568.49
732.86	43570.54
733.05	43619.69
733.23	43412.84
733.42	43328.87
733.61	43064.69
733.79	43443.56
733.98	43556.20
734.17	43349.35
734.35	43365.74
734.54	43582.82
734.73	43500.90
734.91	43337.07
735.10	42927.47
735.29	43515.24
735.47	43179.37
735.66	42921.33
735.84	42917.23
736.03	43289.96
736.22	43576.68
736.40	43300.20
736.59	43013.49
736.78	43017.58
736.96	42726.77
737.15	43130.22
737.33	42806.64
737.52	42691.96
737.71	42792.31
737.89	42861.94
738.08	42759.54
738.27	42358.14
738.45	42847.60
738.64	42648.95
738.82	42911.09
739.01	42722.68
739.20	42411.38
739.38	42421.62
739.57	42616.18
739.75	42268.03
739.94	42196.35
740.13	42425.72
740.31	42036.61
740.50	42505.59
740.68	42444.15
740.87	42122.62
741.06	42317.18
741.24	42087.81
741.43	41936.26
741.61	42390.91
741.80	41840.00
741.99	42034.56
742.17	42098.05
742.36	42288.51
742.54	41792.90
742.73	41926.02
742.91	42366.33
743.10	41575.81
743.29	42157.44
743.47	42069.37
743.66	41837.95
743.84	42118.53
744.03	42024.32
744.21	41512.33
744.40	41805.19
744.59	41604.49
744.77	41530.76
744.96	41682.31
745.14	41936.26
745.33	41454.98
745.51	41088.40
745.70	41145.74
745.88	41297.29
746.07	41399.69
746.26	41356.68
746.44	41446.79
746.63	41454.98
746.81	41018.77
747.00	40732.05
747.18	41706.88
747.37	40879.50
747.55	40977.81
747.74	41164.17
747.92	41092.49
748.11	40707.47
748.29	40932.75
748.48	40865.17
748.66	40842.64
748.85	40781.20
749.03	41026.96
749.22	40799.63
749.41	40570.26
749.59	41139.60
749.78	40451.48
749.96	40222.11
750.15	40287.64
750.33	40492.44
750.52	40457.62
750.70	40191.39
750.89	40056.22
751.07	40111.52
751.26	40078.75
751.44	40293.79
751.63	40424.86
751.81	40132.00
752.00	40039.84
752.18	39951.77
752.37	40107.42
752.55	39802.27
752.74	39718.31
752.92	40002.97
753.10	39658.91
753.29	40238.49
753.47	39386.54
753.66	39605.67
753.84	40035.74
754.03	39484.84
754.21	39290.28
754.40	39755.17
754.58	39656.87
754.77	39493.03
754.95	39325.10
755.14	39304.62
755.32	39579.04
755.51	38991.28
755.69	39124.40
755.88	39171.50
756.06	39259.56
756.24	39026.09
756.43	39040.43
756.61	39101.87
756.80	39050.67
756.98	38757.81
757.17	38907.31
757.35	39052.72
757.54	38782.38
757.72	38952.37
757.90	38907.31
758.09	38985.13
758.27	38802.86
758.46	38970.80
758.64	38620.59
758.83	38548.92
759.01	38972.85
759.19	38571.44
759.38	38512.05
759.56	38698.42
759.75	38815.15
759.93	38378.93
760.12	38264.25
760.30	38387.13
760.48	38393.27
760.67	37907.90
760.85	38383.03
761.04	38272.44
761.22	38278.58
761.40	38360.50
761.59	38323.64
761.77	37787.07
761.96	38172.09
762.14	38016.44
762.32	37612.99
762.51	37483.97
762.69	37780.93
762.88	37567.94
763.06	37617.09
763.24	37793.22
763.43	37836.22
763.61	37547.46
763.80	37586.37
763.98	37307.85
764.16	37666.24
764.35	36949.45
764.53	37123.53
764.72	37101.00
764.90	37340.61
765.08	37115.34
765.27	37062.09
765.45	37012.94
765.63	36582.87
765.82	37238.22
766.00	36599.25
766.18	36337.11
766.37	37178.82
766.55	36623.83
766.74	36754.90
766.92	36734.42
767.10	36638.16
767.29	36402.64
767.47	36154.84
767.65	36611.54
767.84	36226.52
768.02	36464.08
768.20	36113.88
768.39	36156.89
768.57	36410.84
768.75	36187.61
768.94	36513.23
769.12	36132.31
769.30	36029.91
769.49	35900.89
769.67	35825.12
769.85	35847.64
770.04	36060.63
770.22	35818.97
770.40	35923.42
770.59	35524.07
770.77	35653.09
770.95	35821.02
771.14	35522.02
771.32	35489.25
771.50	35192.30
771.69	35593.70
771.87	35917.28
772.05	35403.24
772.24	35276.26
772.42	35223.01
772.60	35233.25
772.78	35147.24
772.97	35206.63
773.15	35263.97
773.33	35284.45
773.52	34932.20
773.70	35595.74
773.88	35397.09
774.07	34790.89
774.25	35247.59
774.43	35237.35
774.61	35270.12
774.80	35247.59
774.98	34969.07
775.16	35165.67
775.34	35364.32
775.53	35055.08
775.71	35042.79
775.89	35132.90
776.08	35272.17
776.26	35110.38
776.44	35108.33
776.62	35012.07
776.81	34885.10
776.99	34893.29
777.17	34969.07
777.35	35337.70
777.54	35266.02
777.72	35177.96
777.90	34991.59
778.08	35114.47
778.27	34932.20
778.45	35411.43
778.63	35415.52
778.81	35050.99
779.00	35505.63
779.18	35139.05
779.36	35608.03
779.54	35327.46
779.73	35290.60
779.91	35421.67
780.09	35147.24
780.27	35638.75
780.46	35263.97
780.64	35601.89
780.82	35337.70
781.00	35139.05
781.19	35237.35
781.37	35509.73
781.55	35513.83
781.73	35560.93
781.91	35511.78
782.10	35507.68
782.28	35646.94
782.46	35843.55
782.64	35751.39
782.82	35526.11
783.01	35636.70
783.19	35460.58
783.37	35306.98
783.55	35405.28
783.74	35587.55
783.92	35173.86
784.10	35595.74
784.28	35886.56
784.46	35151.34
784.64	34934.25
784.83	35436.00
785.01	35534.31
785.19	35263.97
785.37	35605.98
785.55	35128.81
785.74	35030.51
785.92	34854.38
786.10	35321.32
786.28	35167.72
786.46	34895.34
786.64	35071.46
786.83	35450.34
787.01	34926.06
787.19	35247.59
787.37	34948.59
787.55	35306.98
787.74	34805.23
787.92	34905.58
788.10	34883.05
788.28	34569.71
788.46	34895.34
788.64	34641.39
788.82	34852.33
789.01	34678.25
789.19	34475.51
789.37	34625.01
789.55	34698.73
789.73	34526.71
789.91	34346.48
790.09	34344.44
790.28	34231.80
790.46	34401.78
790.64	33988.09
790.82	34440.69
791.00	34573.81
791.18	33666.56
791.36	34502.13
791.55	34096.63
791.73	33666.56
791.91	33746.43
792.09	33828.35
792.27	33633.79
792.45	33719.81
792.63	33519.10
792.81	33598.98
793.00	33414.66
793.18	32990.73
793.36	32849.42
793.54	33056.26
793.72	33025.54
793.90	32761.36
794.08	32550.42
794.26	32951.82
794.44	32804.36
794.62	32341.52
794.81	32581.13
794.99	32636.43
795.17	32491.02
795.35	32409.11
795.53	32714.25
795.71	32495.12
795.89	32224.79
796.07	32239.12
796.25	32138.77
796.43	32024.09
796.61	31768.09
796.80	31598.11
796.98	32120.34
797.16	31727.13
797.34	31866.39
797.52	31727.13
797.70	31524.38
797.88	31538.72
798.06	31217.19
798.24	31354.40
798.42	31313.44
798.60	31047.21
798.78	30805.55
798.96	31217.19
799.14	31010.34
799.32	30832.17
799.51	30475.82
799.69	30903.85
799.87	31006.25
800.05	30553.65
800.23	30807.59
800.41	30774.83
800.59	30729.77
800.77	30328.37
800.95	30084.66
801.13	30250.55
801.31	30072.37
801.49	30357.04
801.67	29969.97
801.85	30318.13
802.03	29902.39
802.21	29705.79
802.39	29509.18
802.57	29668.92
802.75	29574.72
802.93	29480.51
803.11	29578.81
803.29	29347.39
803.47	29105.73
803.65	29208.13
803.83	29363.78
804.01	29414.98
804.19	28761.67
804.37	28714.57
804.55	29075.01
804.73	28960.33
804.91	29085.25
805.09	28913.22
805.27	28597.84
805.45	28749.39
805.63	28849.74
805.81	28620.36
805.99	28575.31
806.17	28487.25
806.35	28632.65
806.53	28288.59
806.71	28413.52
806.89	28085.84
807.07	28272.21
807.25	28200.53
807.43	28266.06
807.61	28313.17
807.79	27885.14
807.97	27649.63
808.15	27852.38
808.33	27561.56
808.51	27698.78
808.69	27655.77
808.87	27635.29
809.05	27455.07
809.23	27315.81
809.41	27215.46
809.59	27266.66
809.77	27348.57
809.95	27201.12
810.13	27287.14
810.31	27078.24
810.49	27010.66
810.67	26609.26
810.84	26480.24
811.02	26945.12
811.20	26592.87
811.38	27045.48
811.56	26504.81
811.74	26738.28
811.92	26607.21
812.10	26639.98
812.28	27002.47
812.46	26369.65
812.64	26750.57
812.82	26123.89
813.00	26263.15
813.18	26254.96
813.36	26248.82
813.53	26027.63
813.71	25990.77
813.89	25902.71
814.07	26015.35
814.25	26156.66
814.43	25931.38
814.61	25771.64
814.79	25534.07
814.97	25497.21
815.15	25759.35
815.33	25382.52
815.50	25312.89
815.68	25732.73
815.86	25474.68
816.04	25220.74
816.22	25579.13
816.40	25446.01
816.58	25503.35
816.76	25077.38
816.94	25308.80
817.11	25499.26
817.29	25290.37
817.47	24868.48
817.65	25116.29
817.83	25228.93
818.01	24628.87
818.19	24551.05
818.37	24622.73
818.54	24712.84
818.72	24383.12
818.90	24909.44
819.08	24549.00
819.26	24499.85
819.44	24399.50
819.62	24477.32
819.80	24442.51
819.97	24452.75
820.15	24467.08
820.33	24116.88
820.51	24481.42
820.69	24092.30
820.87	24426.12
821.05	24628.87
821.22	24166.03
821.40	24252.05
821.58	23948.95
821.76	23916.18
821.94	24065.68
822.12	24020.63
822.29	23772.82
822.47	23641.75
822.65	23971.47
822.83	23748.25
823.01	23711.38
823.19	24000.15
823.36	23656.09
823.54	23529.11
823.72	23451.29
823.90	23457.43
824.08	23410.33
824.25	23457.43
824.43	23000.74
824.61	23479.96
824.79	23406.23
824.97	23078.56
825.15	23398.04
825.32	23533.21
825.50	23295.64
825.68	23002.78
825.86	23158.43
826.04	23037.60
826.21	22984.35
826.39	22986.40
826.57	22902.43
826.75	22861.48
826.93	22984.35
827.10	22933.15
827.28	23183.01
827.46	22929.06
827.64	22859.43
827.81	22666.92
827.99	22709.93
828.17	22648.49
828.35	22644.39
828.53	22501.03
828.70	22421.16
828.88	22437.55
829.06	22251.18
829.24	22744.74
829.41	22517.42
829.59	22384.30
829.77	22564.52
829.95	22312.62
830.12	22197.93
830.30	22339.24
830.48	22111.92
830.66	22269.61
830.84	21853.87
831.01	22040.24
831.19	22144.69
831.37	21929.65
831.55	21964.46
831.72	21759.67
831.90	22091.44
832.08	22120.11
832.25	21812.92
832.43	21898.93
832.61	21642.93
832.79	21837.49
832.96	21630.65
833.14	21851.83
833.32	21804.72
833.50	21919.41
833.67	21745.33
833.85	21915.31
834.03	21534.39
834.20	21554.87
834.38	21587.64
834.56	21491.38
834.74	21137.09
834.91	21362.36
835.09	21374.65
835.27	21294.78
835.44	21284.54
835.62	20987.58
835.80	21085.89
835.98	21354.17
836.15	21286.59
836.33	21124.80
836.51	20965.06
836.68	20866.75
836.86	21067.45
837.04	20971.20
837.21	20885.19
837.39	21024.45
837.57	21345.98
837.75	21149.37
837.92	20813.51
838.10	20647.62
838.28	20498.12
838.45	20637.38
838.63	20555.46
838.81	20891.33
838.98	20623.05
839.16	20526.79
839.34	20645.57
839.51	20825.79
839.69	20221.64
839.87	20534.98
840.04	20340.43
840.22	20506.31
840.40	20385.48
840.57	20420.30
840.75	20418.25
840.93	19994.32
841.10	20483.78
841.28	20553.41
841.46	20109.01
841.63	20379.34
841.81	20104.91
841.98	20022.99
842.16	20109.01
842.34	20184.78
842.51	19910.35
842.69	20203.21
842.87	19898.06
843.04	20078.29
843.22	20025.04
843.40	19848.91
843.57	19795.67
843.75	20117.20
843.92	19836.63
844.10	19918.54
844.28	19973.84
844.45	19906.26
844.63	19723.99
844.81	19873.49
844.98	19611.35
845.16	19908.30
845.33	19648.21
845.51	19373.78
845.69	19308.25
845.86	19267.29
846.04	19181.28
846.21	19521.24
846.39	19349.21
846.57	19433.18
846.74	19420.89
846.92	19515.09
847.09	19343.06
847.27	19181.28
847.45	19146.46
847.62	19263.19
847.80	19228.38
847.97	19070.68
848.15	19074.78
848.32	18861.79
848.50	19148.51
848.68	19220.19
848.85	19207.90
849.03	18996.96
849.20	18960.09
849.38	18874.08
849.56	18927.33
849.73	18671.33
849.91	18747.11
850.08	18937.57
850.26	18937.57
850.43	18777.83
850.61	18601.70
850.78	18521.83
850.96	18659.04
851.14	18765.54
851.31	18667.24
851.49	18466.53
851.66	18630.37
851.84	18487.01
852.01	18546.40
852.19	18673.38
852.36	18308.84
852.54	18480.87
852.71	18493.16
852.89	18376.42
853.07	18247.40
853.24	18327.27
853.42	18577.12
853.59	18290.41
853.77	18325.22
853.94	18357.99
854.12	18218.73
854.29	18005.74
854.47	18253.55
854.64	18085.61
854.82	18110.19
854.99	17956.59
855.17	18013.93
855.34	17975.02
855.52	18163.43
855.69	18487.01
855.87	17649.39
856.04	17929.97
856.22	17987.31
856.39	17696.50
856.57	17927.92
856.74	17745.65
856.92	17876.72
857.09	17633.01
857.27	17641.20
857.44	17800.94
857.62	17870.58
857.79	17698.55
857.97	17749.75
858.14	17534.71
858.32	17600.24
858.49	17524.47
858.67	17485.56
858.84	17448.69
859.02	17139.45
859.19	17272.57
859.37	17274.62
859.54	17559.28
859.72	17503.99
859.89	17127.16
860.06	17401.59
860.24	17387.25
860.41	17450.74
860.59	17211.13
860.76	17331.96
860.94	17176.31
861.11	17112.83
861.29	17030.91
861.46	16789.25
861.64	16774.91
861.81	17252.09
861.98	17035.00
862.16	16686.85
862.33	16955.13
862.51	17084.16
862.68	16858.88
862.86	16867.07
863.03	16965.37
863.21	16867.07
863.38	16973.56
863.55	16830.21
863.73	16740.10
863.90	16746.24
864.08	16596.74
864.25	16707.33
864.43	16865.02
864.60	16500.48
864.77	16658.18
864.95	16334.60
865.12	16477.96
865.30	16477.96
865.47	16318.22
865.64	16551.68
865.82	16361.22
865.99	16334.60
866.17	16224.01
866.34	16379.65
866.51	16330.50
866.69	16531.20
866.86	16340.74
867.04	16111.37
867.21	16326.41
867.38	16156.43
867.56	16031.50
867.73	16011.02
867.91	15916.81
868.08	16099.08
868.25	16066.31
868.43	15662.86
868.60	15830.80
868.78	16033.55
868.95	16015.12
869.12	15902.48
869.30	15769.36
869.47	15853.33
869.64	15578.90
869.82	15552.27
869.99	15476.50
870.16	15748.88
870.34	15591.19
870.51	15718.16
870.69	15570.71
870.86	15582.99
871.03	15343.38
871.21	15372.05
871.38	15363.86
871.55	15513.36
871.73	15261.46
871.90	15529.75
872.07	15365.91
872.25	15081.24
872.42	15054.62
872.59	15206.17
872.77	15177.50
872.94	14970.65
873.11	15216.41
873.29	15130.39
873.46	14919.45
873.63	14825.25
873.81	14987.04
873.98	14987.04
874.15	14679.84
874.33	14712.61
874.50	14810.91
874.67	14868.25
874.85	14520.10
875.02	14538.53
875.19	14450.47
875.37	14610.21
875.54	14599.97
875.71	14696.22
875.88	14372.64
876.06	14559.01
876.23	14303.01
876.40	14317.35
876.58	14290.73
876.75	14352.16
876.92	14303.01
877.10	14403.36
877.27	14348.07
877.44	14243.62
877.61	14108.46
877.79	13973.29
877.96	14018.35
878.13	14137.13
878.31	14266.15
878.48	13973.29
878.65	14214.95
878.82	13813.55
879.00	14008.11
879.17	13977.39
879.34	13850.41
879.51	13946.67
879.69	13844.27
879.86	13760.30
880.03	13862.70
880.21	13623.09
880.38	13940.52
880.55	13928.24
880.72	13616.94
880.90	13696.82
881.07	13762.35
881.24	13625.14
881.41	13678.38
881.59	13555.51
881.76	13649.71
881.93	13461.30
882.10	13195.06
882.28	13522.74
882.45	13496.11
882.62	13539.12
882.79	13487.92
882.96	13336.37
883.14	13510.45
883.31	13260.60
883.48	13319.99
883.65	13485.87
883.83	13541.17
884.00	13289.27
884.17	13348.66
884.34	13356.85
884.51	13201.21
884.69	13252.41
884.86	13436.72
885.03	13434.68
885.20	13033.27
885.38	13352.76
885.55	13256.50
885.72	13057.85
885.89	13244.21
886.06	13152.06
886.24	13123.38
886.41	13094.71
886.58	13332.28
886.75	13123.38
886.92	12924.73
887.10	13039.42
887.27	12939.07
887.44	13119.29
887.61	13084.47
887.78	12902.20
887.95	12873.53
888.13	13051.70
888.30	12924.73
888.47	12920.63
888.64	12977.98
888.81	12863.29
888.99	12699.45
889.16	12791.61
889.33	12889.92
889.50	12683.07
889.67	13002.55
889.84	12672.83
890.01	12693.31
890.19	12515.14
890.36	12793.66
890.53	12605.25
890.70	12449.60
890.87	12482.37
891.04	12474.18
891.22	12451.65
891.39	12537.66
891.56	12302.15
891.73	12277.57
891.90	12455.75
892.07	12375.88
892.24	12267.33
892.42	12508.99
892.59	12240.71
892.76	12113.74
892.93	12328.77
893.10	12289.86
893.27	12152.65
893.44	12201.80
893.61	12060.49
893.79	12195.65
893.96	12216.13
894.13	12359.49
894.30	12228.42
894.47	12189.51
894.64	12035.91
894.81	12003.14
894.98	12101.45
895.15	12148.55
895.33	12222.28
895.50	11908.94
895.67	12166.98
895.84	11992.90
896.01	12154.69
896.18	12035.91
896.35	12031.82
896.52	12166.98
896.69	12117.83
896.86	11997.00
897.04	11980.62
897.21	12089.16
897.38	12191.56
897.55	11908.94
897.72	12179.27
897.89	11974.47
898.06	12132.17
898.23	12091.21
898.40	12005.19
898.57	12054.34
898.74	12031.82
898.91	12130.12
899.08	11990.86
899.26	11919.18
899.43	11919.18
899.60	11947.85
899.77	11814.73
899.94	11888.46
900.11	11945.80
900.28	11849.55
900.45	11902.79
900.62	11915.08
900.79	11761.48
900.96	12023.62
901.13	11939.66
901.30	11913.03
901.47	11685.71
901.64	11884.36
901.81	11978.57
901.98	12009.29
902.15	11829.07
902.32	11765.58
902.49	11824.97
902.66	12031.82
902.83	11949.90
903.01	11728.72
903.18	11714.38
903.35	11798.35
903.52	11827.02
903.69	11902.79
903.86	11853.64
904.03	11882.31
904.20	11667.28
904.37	12050.25
904.54	11822.92
904.71	11624.27
904.88	11970.38
905.05	11648.85
905.22	11822.92
905.39	11657.04
905.56	11820.88
905.73	11595.60
905.90	11708.24
906.07	11673.42
906.24	11679.57
906.41	11595.60
906.58	11542.35
906.75	11671.37
906.92	11372.37
907.09	11476.82
907.26	11669.33
907.43	11503.44
907.60	11554.64
907.77	11714.38
907.93	11706.19
908.10	11632.46
908.27	11730.76
908.44	11683.66
908.61	11542.35
908.78	11558.74
908.95	11532.11
909.12	11523.92
909.29	11450.19
909.46	11386.71
909.63	11370.32
909.80	11579.22
909.97	11630.41
910.14	11566.93
910.31	11620.17
910.48	11450.19
910.65	11339.60
910.82	11378.51
910.99	11372.37
911.16	11200.34
911.33	11339.60
911.50	11265.88
911.66	11376.47
911.83	11452.24
912.00	11382.61
912.17	11083.61
912.34	11222.87
912.51	11157.33
912.68	11206.48
912.85	11194.20
913.02	11259.73
913.19	11177.81
913.36	10940.25
913.53	11018.07
913.70	11063.13
913.86	11149.14
914.03	11126.61
914.20	11032.41
914.37	10973.02
914.54	11145.05
914.71	11071.32
914.88	11247.44
915.05	10760.03
915.22	11003.74
915.39	10843.99
915.55	10827.61
915.72	11048.79
915.89	10841.95
916.06	10817.37
916.23	10868.57
916.40	10749.79
916.57	10653.53
916.74	10737.50
916.91	10665.82
917.07	10657.63
917.24	10585.95
917.41	10743.64
917.58	10612.57
917.75	10514.27
917.92	10338.15
918.09	10323.81
918.26	10264.42
918.42	10501.98
918.59	10348.39
918.76	10477.41
918.93	10307.43
919.10	10200.93
919.27	10207.08
919.44	10397.54
919.60	10299.23
919.77	10151.78
919.94	9946.98
920.11	10147.69
920.28	10078.05
920.45	9928.55
920.61	10055.53
920.78	9887.59
920.95	9826.15
921.12	9809.77
921.29	9938.79
921.46	9899.88
921.62	9809.77
921.79	9836.39
921.96	9854.83
922.13	9820.01
922.30	9828.20
922.47	9881.45
922.63	9404.27
922.80	9416.56
922.97	9523.05
923.14	9490.29
923.31	9324.40
923.47	9219.96
923.64	9484.14
923.81	9351.03
923.98	9373.55
924.15	9277.30
924.32	9410.42
924.48	9379.70
924.65	9232.24
924.82	9029.49
924.99	9148.28
925.15	9066.36
925.32	9179.00
925.49	9064.31
925.66	9187.19
925.83	8951.67
925.99	8976.25
926.16	8990.58
926.33	8785.79
926.50	8712.06
926.67	8888.18
926.83	8787.83
927.00	8707.96
927.17	8914.81
927.34	8630.14
927.50	8550.27
927.67	8830.84
927.84	8603.52
928.01	8548.22
928.17	8507.26
928.34	8589.18
928.51	8499.07
928.68	8265.60
928.84	8241.03
929.01	8241.03
929.18	8451.97
929.35	8171.40
929.51	8216.45
929.68	8267.65
929.85	8138.63
930.02	8130.44
930.18	8056.71
930.35	7935.88
930.52	8036.23
930.69	8189.83
930.85	8017.80
931.02	7790.47
931.19	7851.91
931.36	7921.54
931.52	7860.10
931.69	7884.68
931.86	7741.32
932.02	7700.36
932.19	7688.07
932.36	7481.23
932.53	7661.45
932.69	7593.87
932.86	7604.11
933.03	7514.00
933.19	7413.65
933.36	7516.05
933.53	7655.31
933.70	7243.67
933.86	7182.23
934.03	7284.62
934.20	7194.51
934.36	7231.38
934.53	7188.37
934.70	6977.43
934.86	7137.17
935.03	6967.19
935.20	7020.44
935.36	6901.65
935.53	6885.27
935.70	6784.92
935.86	6811.54
936.03	6735.77
936.20	6637.47
936.36	6649.75
936.53	6526.88
936.70	6475.68
936.86	6594.46
937.03	6526.88
937.20	6377.37
937.36	6375.33
937.53	6035.36
937.70	6178.72
937.86	6188.96
938.03	6186.91
938.20	5943.21
938.36	6047.65
938.53	5857.19
938.70	5748.65
938.86	5828.52
939.03	5662.63
939.20	5734.31
939.36	5681.07
939.53	5627.82
939.70	5605.29
939.86	5427.12
940.03	5312.43
940.19	5291.95
940.36	5269.42
940.53	5259.18
940.69	5185.46
940.86	5181.36
941.03	5054.39
941.19	4855.73
941.36	5054.39
941.52	4986.80
941.69	4976.56
941.86	4917.17
942.02	4667.32
942.19	4794.29
942.35	4962.23
942.52	4835.25
942.69	4720.57
942.85	4562.87
943.02	4589.50
943.18	4607.93
943.35	4569.02
943.52	4573.11
943.68	4577.21
943.85	4358.08
944.01	4540.35
944.18	4399.04
944.35	4540.35
944.51	4411.32
944.68	4362.17
944.84	4343.74
945.01	4333.50
945.17	4427.71
945.34	4358.08
945.51	4403.13
945.67	4212.67
945.84	4339.65
946.00	4241.34
946.17	4282.30
946.33	4157.38
946.50	4218.82
946.67	4253.63
946.83	4249.54
947.00	4198.34
947.16	4028.35
947.33	4220.86
947.49	4270.01
947.66	4304.83
947.82	4145.09
947.99	4163.52
948.16	4263.87
948.32	4063.17
948.49	4032.45
948.65	4134.85
948.82	4034.50
948.98	4192.19
949.15	4192.19
949.31	4177.86
949.48	4171.71
949.64	4100.03
949.81	4136.90
949.97	4220.86
950.14	4233.15
950.30	4034.50
950.47	4184.00
950.63	4118.47
950.80	4194.24
950.96	4126.66
951.13	4054.98
951.30	4306.88
951.46	4296.64
951.63	4276.16
951.79	4267.97
951.96	4255.68
952.12	4179.90
952.29	4231.10
952.45	4249.54
952.62	4257.73
952.78	4253.63
952.94	4218.82
953.11	4224.96
953.27	4175.81
953.44	4247.49
953.60	4284.35
953.77	4267.97
953.93	4220.86
954.10	4157.38
954.26	4376.51
954.43	4300.73
954.59	4409.28
954.76	4153.28
954.92	4241.34
955.09	4399.04
955.25	4317.12
955.42	4294.59
955.58	4317.12
955.75	4349.89
955.91	4245.44
956.07	4282.30
956.24	4270.01
956.40	4343.74
956.57	4304.83
956.73	4290.49
956.90	4401.08
957.06	4270.01
957.23	4394.94
957.39	4294.59
957.56	4366.27
957.72	4333.50
957.88	4227.01
958.05	4245.44
958.21	4335.55
958.38	4292.54
958.54	4392.89
958.71	4343.74
958.87	4300.73
959.03	4360.13
959.20	4257.73
959.36	4149.18
959.53	4286.40
959.69	4267.97
959.85	4270.01
960.02	4194.24
960.18	4284.35
960.35	4313.02
960.51	4337.60
960.68	4347.84
960.84	4362.17
961.00	4376.51
961.17	4241.34
961.33	4175.81
961.50	4310.97
961.66	4274.11
961.82	4265.92
961.99	4284.35
962.15	4331.45
962.31	4153.28
962.48	4186.05
962.64	4255.68
962.81	4192.19
962.97	4276.16
963.13	4149.18
963.30	4347.84
963.46	4140.99
963.62	4257.73
963.79	4321.21
963.95	4196.29
964.12	4179.90
964.28	4202.43
964.44	4190.14
964.61	4210.62
964.77	4286.40
964.93	4364.22
965.10	4138.94
965.26	4130.75
965.42	4214.72
965.59	4132.80
965.75	4163.52
965.92	4267.97
966.08	4130.75
966.24	4161.47
966.41	4120.51
966.57	4063.17
966.73	4108.23
966.90	4124.61
967.06	4091.84
967.22	4100.03
967.39	4186.05
967.55	4159.42
967.71	4061.12
967.88	4073.41
968.04	4036.55
968.20	4050.88
968.37	4087.75
968.53	3872.71
968.69	3987.40
968.85	3983.30
969.02	4126.66
969.18	3983.30
969.34	4042.69
969.51	3956.68
969.67	4022.21
969.83	4026.31
970.00	4087.75
970.16	3991.49
970.32	3995.59
970.48	3936.20
970.65	3930.05
970.81	3915.72
970.97	3932.10
971.14	3934.15
971.30	3923.91
971.46	3944.39
971.63	4087.75
971.79	3899.33
971.95	3911.62
972.11	3794.89
972.28	3817.41
972.44	3907.52
972.60	3856.33
972.76	3909.57
972.93	3817.41
973.09	3874.76
973.25	3774.41
973.42	3885.00
973.58	3796.93
973.74	3911.62
973.90	3930.05
974.07	3823.56
974.23	3796.93
974.39	3887.04
974.55	3729.35
974.72	3850.18
974.88	3839.94
975.04	3837.89
975.20	3835.85
975.37	3796.93
975.53	3721.16
975.69	3753.93
975.85	3846.09
976.01	3725.26
976.18	3780.55
976.34	3710.92
976.50	3618.76
976.66	3692.49
976.83	3717.06
976.99	3719.11
977.15	3647.43
977.31	3624.90
977.47	3710.92
977.64	3704.78
977.80	3606.47
977.96	3688.39
978.12	3665.86
978.29	3557.32
978.45	3706.82
978.61	3665.86
978.77	3540.94
978.93	3633.10
979.10	3499.98
979.26	3559.37
979.42	3633.10
979.58	3491.79
979.74	3614.66
979.91	3545.03
980.07	3481.55
980.23	3522.51
980.39	3446.73
980.55	3567.56
980.71	3506.12
980.88	3481.55
981.04	3475.40
981.20	3571.66
981.36	3522.51
981.52	3520.46
981.68	3420.11
981.85	3479.50
982.01	3418.06
982.17	3526.60
982.33	3377.10
982.49	3448.78
982.65	3344.33
982.82	3522.51
982.98	3430.35
983.14	3360.72
983.30	3379.15
983.46	3373.00
983.62	3338.19
983.79	3346.38
983.95	3391.44
984.11	3336.14
984.27	3293.13
984.43	3274.70
984.59	3321.81
984.75	3286.99
984.91	3307.47
985.08	3340.24
985.24	3352.52
985.40	3211.22
985.56	3301.33
985.72	3284.94
985.88	3213.26
986.04	3211.22
986.20	3200.98
986.37	3139.54
986.53	3123.15
986.69	3362.76
986.85	3307.47
987.01	3262.41
987.17	3227.60
987.33	3164.11
987.49	3133.39
987.65	3209.17
987.82	3182.54
987.98	3170.26
988.14	3286.99
988.30	3145.68
988.46	3137.49
988.62	3182.54
988.78	3178.45
988.94	3145.68
989.10	3100.62
989.26	3114.96
989.42	3035.09
989.59	3047.38
989.75	3059.67
989.91	3112.91
990.07	2994.13
990.23	2992.08
990.39	2940.88
990.55	3100.62
990.71	3022.80
990.87	2979.79
991.03	3002.32
991.19	2897.88
991.35	3012.56
991.51	3098.58
991.67	2983.89
991.83	2965.46
992.00	2944.98
992.16	2973.65
992.32	2959.31
992.48	3014.61
992.64	2920.40
992.80	2985.94
992.96	2975.70
993.12	2953.17
993.28	2969.55
993.44	2957.27
993.60	2969.55
993.76	2938.84
993.92	2942.93
994.08	2949.08
994.24	2959.31
994.40	2785.24
994.56	2932.69
994.72	2772.95
994.88	2865.11
995.04	2828.24
995.20	2879.44
995.36	2875.35
995.52	2875.35
995.68	2942.93
995.84	2906.07
996.00	2924.50
996.16	2920.40
996.32	2820.05
996.48	2754.52
996.64	2850.77
996.80	2858.96
996.96	2822.10
997.12	2746.33
997.28	2811.86
997.44	2756.57
997.60	2758.61
997.76	2641.88
997.92	2701.27
998.08	2815.96
998.24	2684.89
998.40	2711.51
998.56	2783.19
998.72	2656.22
998.88	2705.37
999.04	2627.54
999.20	2672.60
999.36	2691.03
999.52	2850.77
999.68	2688.98
999.84	2678.74
1000.00	2609.11
1000.16	2641.88
1000.32	2611.16
1000.48	2656.22
1000.64	2695.13
1000.80	2525.15
1000.95	2615.26
1001.11	2652.12
1001.27	2594.78
1001.43	2654.17
1001.59	2523.10
1001.75	2613.21
1001.91	2514.91
1002.07	2596.82
1002.23	2668.50
1002.39	2586.58
1002.55	2570.20
1002.71	2588.63
1002.87	2535.39
1003.03	2506.71
1003.19	2514.91
1003.34	2545.63
1003.50	2568.15
1003.66	2549.72
1003.82	2488.28
1003.98	2566.10
1004.14	2492.38
1004.30	2498.52
1004.46	2414.56
1004.62	2500.57
1004.78	2523.10
1004.94	2537.43
1005.09	2443.23
1005.25	2467.80
1005.41	2459.61
1005.57	2451.42
1005.73	2502.62
1005.89	2445.27
1006.05	2523.10
1006.21	2449.37
1006.37	2349.02
1006.52	2402.27
1006.68	2392.03
1006.84	2488.28
1007.00	2416.60
1007.16	2406.36
1007.32	2465.75
1007.48	2396.12
1007.64	2422.75
1007.79	2422.75
1007.95	2410.46
1008.11	2420.70
1008.27	2396.12
1008.43	2392.03
1008.59	2346.97
1008.75	2410.46
1008.91	2404.32
1009.06	2355.16
1009.22	2336.73
1009.38	2375.64
1009.54	2379.74
1009.70	2402.27
1009.86	2375.64
1010.01	2383.84
1010.17	2344.92
1010.33	2291.68
1010.49	2344.92
1010.65	2310.11
1010.81	2195.42
1010.96	2328.54
1011.12	2351.07
1011.28	2254.81
1011.44	2355.16
1011.60	2400.22
1011.76	2283.49
1011.91	2338.78
1012.07	2246.62
1012.23	2238.43
1012.39	2197.47
1012.55	2283.49
1012.71	2226.14
1012.86	2172.89
1013.02	2172.89
1013.18	2244.57
1013.34	2172.89
1013.50	2181.09
1013.65	2224.09
1013.81	2191.33
1013.97	2224.09
1014.13	2215.90
1014.29	2238.43
1014.44	2242.53
1014.60	2117.60
1014.76	2295.77
1014.92	2236.38
1015.07	2162.66
1015.23	2238.43
1015.39	2176.99
1015.55	2054.11
1015.71	2187.23
1015.86	2170.85
1016.02	2107.36
1016.18	2156.51
1016.34	2117.60
1016.49	2142.18
1016.65	2080.74
1016.81	2088.93
1016.97	2074.59
1017.12	2168.80
1017.28	2099.17
1017.44	2115.55
1017.60	2095.07
1017.75	2185.18
1017.91	2072.54
1018.07	2185.18
1018.23	2047.97
1018.38	2062.30
1018.54	2045.92
1018.70	2021.35
1018.86	2047.97
1019.01	2045.92
1019.17	1988.58
1019.33	2187.23
1019.49	2095.07
1019.64	2011.11
1019.80	2041.82
1019.96	2099.17
1020.12	1982.43
1020.27	2045.92
1020.43	2035.68
1020.59	2068.45
1020.74	2047.97
1020.90	2035.68
1021.06	1939.43
1021.22	1992.67
1021.37	2000.87
1021.53	1982.43
1021.69	1970.15
1021.84	2002.91
1022.00	1935.33
1022.16	1951.71
1022.31	2054.11
1022.47	1966.05
1022.63	2041.82
1022.79	1976.29
1022.94	2054.11
1023.10	1964.00
1023.26	1890.28
1023.41	1957.86
1023.57	1923.04
1023.73	2052.06
1023.88	1931.23
1024.04	1865.70
1024.20	1912.80
1024.35	1996.77
1024.51	1933.28
1024.67	1871.84
1024.82	1955.81
1024.98	1845.22
1025.14	1929.19
1025.29	1834.98
1025.45	2002.91
1025.61	1961.95
1025.76	1894.37
1025.92	1945.57
1026.08	1910.75
1026.23	1869.80
1026.39	1923.04
1026.55	1914.85
1026.70	1916.90
1026.86	1935.33
1027.02	1923.04
1027.17	1892.32
1027.33	1892.32
1027.48	1861.60
1027.64	1882.08
1027.80	1810.40
1027.95	1937.38
1028.11	1859.56
1028.27	1853.41
1028.42	1837.03
1028.58	1914.85
1028.73	1890.28
1028.89	1822.69
1029.05	1951.71
1029.20	1925.09
>>>>>End Processed Spectral Data<<<<<
