SpectraSuite Data File
++++++++++++++++++++++++++++++++++++
Date: Tue Jun 13 11:58:31 CEST 2017
User: INFO_000
Dark Spectrum Present: No
Reference Spectrum Present: No
Number of Sampled Component Spectra: 1
Spectrometers: USB4H00879
Integration Time (usec): 30000 (USB4H00879)
Spectra Averaged: 1 (USB4H00879)
Boxcar Smoothing: 0 (USB4H00879)
Correct for Electrical Dark: No (USB4H00879)
Strobe/Lamp Enabled: No (USB4H00879)
Correct for Detector Non-linearity: No (USB4H00879)
Correct for Stray Light: No (USB4H00879)
Number of Pixels in Processed Spectrum: 3648
>>>>>Begin Processed Spectral Data<<<<<
345.13	1329.13
345.34	1329.13
345.56	1329.13
345.78	1302.51
345.99	1376.24
346.21	1501.16
346.42	1478.63
346.64	1449.96
346.86	1583.08
347.07	1464.30
347.29	1515.50
347.50	1482.73
347.72	1540.07
347.94	1517.54
348.15	1490.92
348.37	1513.45
348.59	1531.88
348.80	1492.97
349.02	1581.03
349.23	1648.61
349.45	1589.22
349.67	1624.04
349.88	1613.80
350.10	1615.85
350.31	1562.60
350.53	1593.32
350.75	1667.05
350.96	1630.18
351.18	1638.38
351.39	1603.56
351.61	1540.07
351.82	1660.90
352.04	1732.58
352.26	1597.42
352.47	1687.53
352.69	1617.90
352.90	1624.04
353.12	1640.42
353.34	1650.66
353.55	1640.42
353.77	1650.66
353.98	1665.00
354.20	1605.61
354.41	1671.14
354.63	1703.91
354.85	1714.15
355.06	1710.05
355.28	1601.51
355.49	1675.24
355.71	1681.38
355.92	1568.74
356.14	1685.48
356.35	1650.66
356.57	1656.81
356.79	1681.38
357.00	1636.33
357.22	1630.18
357.43	1667.05
357.65	1697.77
357.86	1630.18
358.08	1665.00
358.29	1669.09
358.51	1650.66
358.72	1689.57
358.94	1720.29
359.16	1609.70
359.37	1593.32
359.59	1650.66
359.80	1730.53
360.02	1654.76
360.23	1775.59
360.45	1677.29
360.66	1701.86
360.88	1601.51
361.09	1714.15
361.31	1726.44
361.52	1699.81
361.74	1746.92
361.95	1685.48
362.17	1628.14
362.38	1687.53
362.60	1761.25
362.81	1724.39
363.03	1660.90
363.24	1718.25
363.46	1777.64
363.67	1705.96
363.89	1730.53
364.10	1667.05
364.32	1753.06
364.53	1716.20
364.75	1667.05
364.96	1712.10
365.18	1708.01
365.39	1806.31
365.61	1683.43
365.82	1751.01
366.04	1742.82
366.25	1757.16
366.47	1734.63
366.68	1775.59
366.90	1810.40
367.11	1808.36
367.33	1708.01
367.54	1718.25
367.76	1789.92
367.97	1814.50
368.19	1769.44
368.40	1753.06
368.62	1691.62
368.83	1730.53
369.05	1810.40
369.26	1679.33
369.48	1691.62
369.69	1789.92
369.91	1763.30
370.12	1722.34
370.33	1757.16
370.55	1658.85
370.76	1773.54
370.98	1841.12
371.19	1712.10
371.41	1728.49
371.62	1820.64
371.84	1751.01
372.05	1767.40
372.27	1820.64
372.48	1757.16
372.69	1789.92
372.91	1796.07
373.12	1761.25
373.34	1791.97
373.55	1818.60
373.77	1882.08
373.98	1841.12
374.20	1802.21
374.41	1765.35
374.62	1886.18
374.84	1857.51
375.05	1841.12
375.27	1812.45
375.48	1822.69
375.70	1949.67
375.91	1910.75
376.12	1912.80
376.34	1857.51
376.55	1824.74
376.77	1855.46
376.98	1765.35
377.19	1898.47
377.41	1841.12
377.62	1941.47
377.84	1892.32
378.05	1968.10
378.27	1898.47
378.48	1996.77
378.69	2002.91
378.91	1837.03
379.12	1888.23
379.34	1912.80
379.55	1896.42
379.76	1949.67
379.98	1947.62
380.19	1935.33
380.41	1925.09
380.62	1957.86
380.83	2002.91
381.05	1970.15
381.26	2064.35
381.47	1880.04
381.69	1984.48
381.90	2035.68
382.12	1945.57
382.33	1972.19
382.54	1986.53
382.76	2004.96
382.97	2052.06
383.19	1927.14
383.40	2002.91
383.61	2054.11
383.83	2013.15
384.04	2002.91
384.25	2037.73
384.47	2047.97
384.68	2054.11
384.89	2004.96
385.11	2107.36
385.32	2056.16
385.54	2060.26
385.75	1968.10
385.96	2027.49
386.18	2078.69
386.39	1994.72
386.60	2054.11
386.82	2101.22
387.03	2162.66
387.24	2062.30
387.46	2088.93
387.67	2052.06
387.88	2174.94
388.10	2160.61
388.31	2058.21
388.52	2215.90
388.74	2150.37
388.95	2138.08
389.16	2168.80
389.38	2158.56
389.59	2201.57
389.80	2154.46
390.02	2111.46
390.23	2217.95
390.44	2201.57
390.66	2160.61
390.87	2207.71
391.08	2201.57
391.30	2238.43
391.51	2256.86
391.72	2277.34
391.94	2301.92
392.15	2224.09
392.36	2205.66
392.58	2213.85
392.79	2306.01
393.00	2310.11
393.22	2289.63
393.43	2402.27
393.64	2357.21
393.85	2381.79
394.07	2312.16
394.28	2400.22
394.49	2394.08
394.71	2457.56
394.92	2424.80
395.13	2314.20
395.35	2363.36
395.56	2426.84
395.77	2506.71
395.98	2461.66
396.20	2342.88
396.41	2432.99
396.62	2463.71
396.84	2510.81
397.05	2537.43
397.26	2488.28
397.47	2451.42
397.69	2482.14
397.90	2514.91
398.11	2469.85
398.32	2496.47
398.54	2602.97
398.75	2568.15
398.96	2572.25
399.18	2607.06
399.39	2557.91
399.60	2670.55
399.81	2594.78
400.03	2555.86
400.24	2635.74
400.45	2600.92
400.66	2680.79
400.88	2564.06
401.09	2668.50
401.30	2650.07
401.51	2781.14
401.73	2594.78
401.94	2568.15
402.15	2736.09
402.36	2731.99
402.58	2715.61
402.79	2645.98
403.00	2760.66
403.21	2713.56
403.43	2742.23
403.64	2731.99
403.85	2648.02
404.06	2746.33
404.27	2686.94
404.49	2789.33
404.70	2772.95
404.91	2777.05
405.12	2768.85
405.34	2756.57
405.55	2912.21
405.76	2815.96
405.97	2846.68
406.19	2908.12
406.40	2838.48
406.61	2955.22
406.82	2924.50
407.03	2901.97
407.25	2807.77
407.46	2910.16
407.67	2992.08
407.88	2994.13
408.09	2873.30
408.31	2912.21
408.52	2922.45
408.73	2928.60
408.94	2885.59
409.15	2928.60
409.37	3059.67
409.58	2953.17
409.79	3024.85
410.00	3033.04
410.21	3063.76
410.43	3014.61
410.64	3000.27
410.85	3074.00
411.06	3096.53
411.27	3045.33
411.48	3168.21
411.70	2973.65
411.91	3102.67
412.12	3076.05
412.33	3184.59
412.54	3205.07
412.76	3112.91
412.97	3117.01
413.18	3137.49
413.39	3211.22
413.60	3153.87
413.81	3223.50
414.03	3203.02
414.24	3186.64
414.45	3243.98
414.66	3149.78
414.87	3264.46
415.08	3237.84
415.30	3252.17
415.51	3366.86
415.72	3311.57
415.93	3129.30
416.14	3315.66
416.35	3409.87
416.56	3299.28
416.78	3258.32
416.99	3399.63
417.20	3358.67
417.41	3411.92
417.62	3301.33
417.83	3411.92
418.04	3334.09
418.26	3342.28
418.47	3375.05
418.68	3547.08
418.89	3454.92
419.10	3536.84
419.31	3481.55
419.52	3573.71
419.73	3456.97
419.95	3598.28
420.16	3567.56
420.37	3495.88
420.58	3516.36
420.79	3518.41
421.00	3684.30
421.21	3659.72
421.42	3471.31
421.63	3540.94
421.85	3555.27
422.06	3620.81
422.27	3626.95
422.48	3653.58
422.69	3766.21
422.90	3839.94
423.11	3809.22
423.32	3721.16
423.53	3833.80
423.75	3817.41
423.96	3858.37
424.17	3727.30
424.38	3983.30
424.59	3776.45
424.80	3975.11
425.01	3979.20
425.22	3841.99
425.43	3811.27
425.64	3989.44
425.85	4138.94
426.06	4016.07
426.28	3997.64
426.49	4032.45
426.70	3962.82
426.91	4011.97
427.12	4120.51
427.33	4032.45
427.54	4186.05
427.75	4143.04
427.96	4151.23
428.17	4188.10
428.38	4206.53
428.59	4329.41
428.80	4196.29
429.01	4331.45
429.23	4315.07
429.44	4562.87
429.65	4417.47
429.86	4321.21
430.07	4280.25
430.28	4313.02
430.49	4394.94
430.70	4368.32
430.91	4454.33
431.12	4444.09
431.33	4513.72
431.54	4425.66
431.75	4452.28
431.96	4497.34
432.17	4517.82
432.38	4503.48
432.59	4624.31
432.80	4577.21
433.01	4657.08
433.22	4790.20
433.43	4612.03
433.64	4691.90
433.85	4597.69
434.06	4683.70
434.27	4708.28
434.49	4837.30
434.70	4868.02
434.91	4859.83
435.12	4642.75
435.33	4822.97
435.54	4739.00
435.75	4683.70
435.96	4820.92
436.17	4652.98
436.38	4921.27
436.59	4919.22
436.80	4796.34
437.01	5031.86
437.22	5054.39
437.43	4958.13
437.64	4890.55
437.85	5072.82
438.06	5097.39
438.27	4982.71
438.48	5164.98
438.69	5048.24
438.90	5093.30
439.11	4972.47
439.32	5175.22
439.53	5164.98
439.74	5136.31
439.95	5263.28
440.16	5224.37
440.37	5167.03
440.57	5144.50
440.78	5267.38
440.99	5390.25
441.20	5380.01
441.41	5240.75
441.62	5382.06
441.83	5201.84
442.04	5398.45
442.25	5384.11
442.46	5334.96
442.67	5463.98
442.88	5744.55
443.09	5404.59
443.30	5418.93
443.51	5558.19
443.72	5756.84
443.93	5545.90
444.14	5633.96
444.35	5478.32
444.56	5607.34
444.77	5607.34
444.98	5478.32
445.19	5584.81
445.40	5599.15
445.61	5722.02
445.81	5705.64
446.02	5691.31
446.23	5719.98
446.44	5767.08
446.65	5801.90
446.86	5830.57
447.07	5846.95
447.28	5941.16
447.49	6100.90
447.70	5789.61
447.91	6086.56
448.12	5953.45
448.33	6010.79
448.54	5973.92
448.74	5957.54
448.95	5844.90
449.16	5947.30
449.37	6201.25
449.58	6098.85
449.79	6131.62
450.00	6260.64
450.21	6303.65
450.42	6279.07
450.63	6369.18
450.84	6281.12
451.05	6428.57
451.25	6211.49
451.46	6299.55
451.67	6424.48
451.88	6387.61
452.09	6530.97
452.30	6483.87
452.51	6510.49
452.72	6377.37
452.93	6567.84
453.13	6444.96
453.34	6381.47
453.55	6518.68
453.76	6483.87
453.97	6858.65
454.18	6557.60
454.39	6692.76
454.60	6715.29
454.81	6743.96
455.01	7016.34
455.22	6522.78
455.43	6959.00
455.64	7042.96
455.85	7184.27
456.06	7167.89
456.27	6963.09
456.48	6926.23
456.68	7069.59
456.89	7118.74
457.10	7325.58
457.31	7135.12
457.52	7114.64
457.73	7180.18
457.94	7393.17
458.14	7155.60
458.35	7258.00
458.56	7395.22
458.77	7329.68
458.98	7374.74
459.19	7327.63
459.39	7460.75
459.60	7577.48
459.81	7655.31
460.02	7708.55
460.23	7694.22
460.44	7776.14
460.65	7720.84
460.85	7753.61
461.06	7905.16
461.27	7714.70
461.48	7964.55
461.69	7876.49
461.89	7755.66
462.10	8056.71
462.31	7933.83
462.52	7939.97
462.73	8093.57
462.94	8306.56
463.14	8337.28
463.35	8241.03
463.56	8501.12
463.77	8368.00
463.98	8324.99
464.18	8445.82
464.39	8378.24
464.60	8472.45
464.81	8802.17
465.02	8591.23
465.23	8927.10
465.43	8454.02
465.64	8875.90
465.85	8857.46
466.06	8722.30
466.27	9209.72
466.47	8836.99
466.68	8990.58
466.89	8980.34
467.10	9258.87
467.30	8908.66
467.51	9277.30
467.72	9432.94
467.93	9275.25
468.14	9269.11
468.34	9373.55
468.55	9553.77
468.76	9426.80
468.97	9516.91
469.17	9510.77
469.38	9609.07
469.59	9848.68
469.80	9486.19
470.01	9719.66
470.21	9803.63
470.42	10026.86
470.63	10006.38
470.84	9973.61
471.04	10225.51
471.25	10108.77
471.46	10356.58
471.67	10209.12
471.87	10295.14
472.08	10549.09
472.29	10549.09
472.50	10297.19
472.70	10393.44
472.91	10725.21
473.12	10651.49
473.33	10712.92
473.53	10893.15
473.74	10921.82
473.95	11077.46
474.16	11196.25
474.36	11167.57
474.57	11169.62
474.78	11276.12
474.99	11210.58
475.19	11069.27
475.40	11538.26
475.61	11650.89
475.81	11525.97
476.02	12015.43
476.23	11700.05
476.44	12015.43
476.64	12117.83
476.85	12027.72
477.06	12046.15
477.27	12238.66
477.47	12308.29
477.68	12236.61
477.89	12451.65
478.09	12427.07
478.30	12601.15
478.51	12410.69
478.71	12783.42
478.92	12779.32
479.13	12697.41
479.34	13041.46
479.54	12982.07
479.75	12998.46
479.96	13147.96
480.16	13428.53
480.37	13469.49
480.58	13428.53
480.78	13590.32
480.99	13696.82
481.20	13584.18
481.41	13731.63
481.61	13756.21
481.82	13786.93
482.03	14014.25
482.23	13829.93
482.44	14151.46
482.65	14339.88
482.85	14298.92
483.06	14409.51
483.27	14354.21
483.47	14536.48
483.68	14542.63
483.89	14802.72
484.09	14663.46
484.30	14722.85
484.51	15097.63
484.71	15085.34
484.92	15177.50
485.13	15343.38
485.33	15394.58
485.54	15339.29
485.75	15365.91
485.95	15601.43
486.16	15869.71
486.37	15441.68
486.57	15785.74
486.78	15626.00
486.98	16008.97
487.19	15910.67
487.40	16203.53
487.60	16021.26
487.81	16273.16
488.02	15992.59
488.22	16041.74
488.43	16678.66
488.64	16228.10
488.84	16701.19
489.05	16740.10
489.25	16649.99
489.46	16893.69
489.67	16617.22
489.87	17135.35
490.08	17266.42
490.29	17166.07
490.49	17204.99
490.70	17362.68
490.90	17596.15
491.11	17514.23
491.32	17592.05
491.52	17725.17
491.73	17606.39
491.94	17907.44
492.14	17968.88
492.35	18097.90
492.55	17964.78
492.76	18206.44
492.97	18044.65
493.17	17960.69
493.38	18177.77
493.58	18312.94
493.79	18452.20
494.00	18462.44
494.20	18609.89
494.41	18607.84
494.61	18720.48
494.82	18743.01
495.02	18869.98
495.23	18925.28
495.44	18937.57
495.64	19013.34
495.85	19046.11
496.05	19486.42
496.26	19037.92
496.47	19255.00
496.67	19347.16
496.88	19537.62
497.08	19500.76
497.29	19756.75
497.49	19713.75
497.70	19818.19
497.91	19869.39
498.11	20117.20
498.32	19963.60
498.52	20225.74
498.73	20205.26
498.93	20039.37
499.14	20186.83
499.34	20324.04
499.55	20522.69
499.76	20242.12
499.96	20375.24
500.17	20569.80
500.37	20537.03
500.58	20866.75
500.78	20842.18
500.99	20690.63
501.19	21100.22
501.40	20989.63
501.60	21063.36
501.81	21077.69
502.02	20979.39
502.22	20920.00
502.43	21294.78
502.63	21194.43
502.84	21358.27
503.04	21458.62
503.25	21536.44
503.45	21360.31
503.66	21466.81
503.86	21647.03
504.07	21640.89
504.27	21675.70
504.48	22107.82
504.68	22132.40
504.89	22015.66
505.09	22169.26
505.30	22232.75
505.50	21843.63
505.71	22030.00
505.91	22517.42
506.12	22212.27
506.32	22148.78
506.53	22304.43
506.73	22458.03
506.94	22550.18
507.14	22357.67
507.35	22496.94
507.55	22249.13
507.76	22185.65
507.96	22546.09
508.17	22568.62
508.37	22773.41
508.58	22732.45
508.78	22789.80
508.99	23043.74
509.19	23101.09
509.40	23131.81
509.60	23023.26
509.81	23187.10
510.01	23273.12
510.22	22994.59
510.42	22822.56
510.63	23201.44
510.83	23572.12
511.04	23146.14
511.24	23277.21
511.44	23441.05
511.65	23682.71
511.85	23414.43
512.06	23375.52
512.26	23725.72
512.47	23584.41
512.67	23670.42
512.88	23570.07
513.08	23588.50
513.29	23813.78
513.49	23715.48
513.69	23645.85
513.90	24086.16
514.10	24127.12
514.31	24116.88
514.51	23785.11
514.72	23781.01
514.92	24077.97
515.13	23981.71
515.33	24204.94
515.53	24452.75
515.74	24192.65
515.94	24284.81
516.15	24264.33
516.35	24200.85
516.56	24585.86
516.76	24362.64
516.96	24696.46
517.17	24632.97
517.37	24891.01
517.58	24532.62
517.78	24673.93
517.99	24768.13
518.19	24743.56
518.39	24874.63
518.60	24938.12
518.80	25030.27
519.01	25087.62
519.21	25067.14
519.41	25441.92
519.62	25073.28
519.82	25429.63
520.03	25065.09
520.23	25063.04
520.43	25259.65
520.64	26181.23
520.84	25507.45
521.05	25558.65
521.25	25814.65
521.45	25609.85
521.66	25695.86
521.86	25716.34
522.07	25505.40
522.27	26001.01
522.47	25843.32
522.68	25900.66
522.88	25691.77
523.08	26218.10
523.29	26287.73
523.49	25964.15
523.70	26312.30
523.90	26541.68
524.10	26433.13
524.31	26291.82
524.51	26549.87
524.71	26865.25
524.92	26709.61
525.12	26779.24
525.33	26738.28
525.53	26594.92
525.73	26951.27
525.94	27053.67
526.14	26789.48
526.34	27094.63
526.55	26826.34
526.75	27084.39
526.95	27500.12
527.16	27319.90
527.36	27235.94
527.56	27524.70
527.77	27561.56
527.97	27559.52
528.17	27612.76
528.38	27952.73
528.58	27768.41
528.78	27491.93
528.99	27971.16
529.19	28335.70
529.39	27801.18
529.60	28329.55
529.80	28137.04
530.00	28083.80
530.21	28149.33
530.41	28345.94
530.61	28032.60
530.82	28378.70
531.02	28509.77
531.22	28593.74
531.43	28554.83
531.63	29023.81
531.83	29005.38
532.04	29042.24
532.24	28694.09
532.44	29386.30
532.64	29052.48
532.85	29255.23
533.05	29275.71
533.25	28913.22
533.46	29328.96
533.66	29646.40
533.86	29470.27
534.07	29636.16
534.27	29521.47
534.47	30221.87
534.67	30074.42
534.88	30064.18
535.08	29849.14
535.28	29947.45
535.49	30072.37
535.69	30408.24
535.89	30320.18
536.09	30342.70
536.30	30662.19
536.50	30694.96
536.70	30813.74
536.91	30705.20
537.11	30535.21
537.31	30854.70
537.51	30752.30
537.72	30924.33
537.92	31252.00
538.12	31557.15
538.32	31129.12
538.53	31311.39
538.73	30809.64
538.93	31231.52
539.13	31213.09
539.34	31229.48
539.54	31399.46
539.74	31393.31
539.94	31551.01
540.15	31514.14
540.35	31737.37
540.55	31755.80
540.75	31591.97
540.96	32194.07
541.16	31657.50
541.36	32151.06
541.56	32022.04
541.77	32280.08
541.97	32286.23
542.17	32267.80
542.37	32235.03
542.58	32421.39
542.78	32165.40
542.98	32454.16
543.18	32515.60
543.38	32710.16
543.59	32996.87
543.79	32243.22
543.99	32810.51
544.19	32853.51
544.40	32833.04
544.60	32716.30
544.80	32714.25
545.00	32775.69
545.20	33277.44
545.41	32814.60
545.61	33062.41
545.81	33179.14
546.01	33252.87
546.21	33222.15
546.42	33097.22
546.62	33189.38
546.82	33230.34
547.02	33242.63
547.22	33785.34
547.43	33336.84
547.63	33345.03
547.83	33523.20
548.03	33281.54
548.23	33433.09
548.44	33637.89
548.64	33814.01
548.84	33760.76
549.04	33940.99
549.24	33582.59
549.45	34024.95
549.65	33752.57
549.85	33525.25
550.05	34100.73
550.25	33689.09
550.45	33897.98
550.66	34141.69
550.86	33908.22
551.06	34225.65
551.26	34061.82
551.46	34334.20
551.66	34190.84
551.87	33932.79
552.07	34360.82
552.27	34055.67
552.47	34444.79
552.67	34348.53
552.87	34416.11
553.07	34700.78
553.28	34522.61
553.48	34686.45
553.68	34305.52
553.88	34690.54
554.08	34416.11
554.28	34571.76
554.48	34627.06
554.69	34872.81
554.89	34874.86
555.09	34897.39
555.29	35091.94
555.49	34782.70
555.69	34715.12
555.89	34776.56
556.10	34903.53
556.30	34563.57
556.50	34948.59
556.70	34745.84
556.90	34893.29
557.10	34794.99
557.30	34829.80
557.50	35233.25
557.70	35360.23
557.91	35202.53
558.11	35208.68
558.31	35237.35
558.51	35266.02
558.71	35102.18
558.91	35413.48
559.11	35128.81
559.31	35585.50
559.51	35100.14
559.72	34950.63
559.92	35143.14
560.12	35388.90
560.32	35632.61
560.52	35212.77
560.72	35614.18
560.92	35616.22
561.12	34985.45
561.32	35714.53
561.52	35546.59
561.72	35644.90
561.93	35257.83
562.13	35278.31
562.33	35579.36
562.53	36060.63
562.73	35651.04
562.93	35687.90
563.13	35569.12
563.33	35827.17
563.53	35646.94
563.73	35558.88
563.93	35917.28
564.13	35935.71
564.33	35888.60
564.53	35778.01
564.74	35788.25
564.94	35464.67
565.14	36199.90
565.34	35616.22
565.54	35892.70
565.74	36021.72
565.94	35982.81
566.14	36251.09
566.34	35997.15
566.54	36310.49
566.74	35802.59
566.94	36263.38
567.14	36007.39
567.34	36074.97
567.54	36308.44
567.74	35732.96
567.94	35784.16
568.14	36378.07
568.34	36294.10
568.54	36060.63
568.74	36484.56
568.94	36173.27
569.14	36007.39
569.34	36330.97
569.54	36556.24
569.75	36066.78
569.95	35933.66
570.15	36613.59
570.35	36642.26
570.55	36050.39
570.75	36685.26
570.95	36662.74
571.15	36404.69
571.35	36605.39
571.55	36853.20
571.75	36167.13
571.95	36566.48
572.15	36247.00
572.35	36771.28
572.55	36369.88
572.75	36668.88
572.95	36879.82
573.15	36711.89
573.35	36683.22
573.55	36689.36
573.75	36740.56
573.95	36769.23
574.15	36511.19
574.35	37027.28
574.55	36763.09
574.75	36586.96
574.95	37035.47
575.15	36982.22
575.34	37043.66
575.54	36937.16
575.74	37057.99
575.94	36867.53
576.14	36945.36
576.34	36949.45
576.54	36996.56
576.74	36754.90
576.94	37068.23
577.14	37369.29
577.34	37053.90
577.54	36808.14
577.74	37088.71
577.94	37400.01
578.14	37369.29
578.34	37371.33
578.54	36963.79
578.74	36802.00
578.94	37305.80
579.14	37168.58
579.34	37475.78
579.54	37510.60
579.74	37866.94
579.94	37123.53
580.13	37477.83
580.33	37520.84
580.53	37658.05
580.73	37561.79
580.93	37522.88
581.13	37574.08
581.33	37629.38
581.53	37815.74
581.73	37580.23
581.93	38071.74
582.13	37807.55
582.33	37899.71
582.53	37619.14
582.73	37778.88
582.92	38192.57
583.12	37846.46
583.32	37957.05
583.52	37985.72
583.72	38133.18
583.92	37805.50
584.12	38352.31
584.32	38133.18
584.52	38438.33
584.72	38264.25
584.92	38124.99
585.11	38561.20
585.31	38587.83
585.51	38344.12
585.71	38387.13
585.91	38344.12
586.11	38337.98
586.31	37807.55
586.51	38434.23
586.71	38063.55
586.91	38571.44
587.10	38493.62
587.30	38585.78
587.50	38454.71
587.70	38751.66
587.90	38426.04
588.10	38499.76
588.30	38401.46
588.50	38759.86
588.69	38413.75
588.89	38493.62
589.09	38849.97
589.29	38784.43
589.49	38876.59
589.69	38467.00
589.89	38907.31
590.08	38841.78
590.28	38786.48
590.48	38579.64
590.68	38864.30
590.88	38884.78
591.08	38669.75
591.28	38538.68
591.47	39200.17
591.67	39263.66
591.87	38880.69
592.07	38802.86
592.27	39220.65
592.47	39183.79
592.67	38874.54
592.86	38901.17
593.06	38981.04
593.26	39034.28
593.46	39105.96
593.66	39312.81
593.86	38954.41
594.05	39175.59
594.25	39298.47
594.45	38929.84
594.65	38729.14
594.85	38899.12
595.05	39458.21
595.24	39587.24
595.44	39425.45
595.64	39437.73
595.84	39036.33
596.04	39271.85
596.23	39218.60
596.43	39656.87
596.63	39652.77
596.83	39245.23
597.03	39757.22
597.22	39595.43
597.42	39341.48
597.62	39409.06
597.82	39515.56
598.02	39468.45
598.21	39443.88
598.41	39271.85
598.61	39679.39
598.81	39632.29
599.01	39906.72
599.20	39706.02
599.40	39511.46
599.60	39560.61
599.80	39755.17
600.00	39617.96
600.19	40183.19
600.39	39687.59
600.59	40117.66
600.79	39951.77
600.98	39699.87
601.18	40129.95
601.38	40111.52
601.58	40062.36
601.78	39974.30
601.97	40226.20
602.17	39966.11
602.37	39931.29
602.57	40009.12
602.76	40535.45
602.96	39980.45
603.16	40441.24
603.36	40218.01
603.55	40476.05
603.75	40496.53
603.95	40547.73
604.15	40224.15
604.34	39992.73
604.54	40283.55
604.74	40000.93
604.94	40547.73
605.13	39982.49
605.33	40514.97
605.53	40349.08
605.73	40482.20
605.92	40236.44
606.12	40609.17
606.32	40424.86
606.52	40355.22
606.71	40523.16
606.91	40674.71
607.11	40172.96
607.30	40590.74
607.50	40439.19
607.70	40781.20
607.90	40240.54
608.09	40336.79
608.29	40218.01
608.49	40703.38
608.68	40781.20
608.88	40732.05
609.08	40445.33
609.28	40883.60
609.47	40727.95
609.67	41076.11
609.87	40490.39
610.06	40947.09
610.26	40510.87
610.46	40461.72
610.66	40500.63
610.85	40938.90
611.05	40234.39
611.25	40732.05
611.44	40590.74
611.64	40895.89
611.84	40848.78
612.03	40908.18
612.23	40902.03
612.43	40431.00
612.62	41078.16
612.82	40572.31
613.02	40854.93
613.21	40603.03
613.41	40643.99
613.61	40875.41
613.80	40342.94
614.00	40832.40
614.20	40517.01
614.39	40965.52
614.59	40873.36
614.79	40777.11
614.98	40801.68
615.18	40699.28
615.38	40492.44
615.57	40279.45
615.77	40756.63
615.97	40938.90
616.16	40510.87
616.36	40334.74
616.56	40730.00
616.75	40715.67
616.95	40625.56
617.15	40428.95
617.34	40670.61
617.54	40617.36
617.74	40834.45
617.93	40734.10
618.13	40676.76
618.32	40261.02
618.52	40484.25
618.72	40566.16
618.91	40572.31
619.11	40240.54
619.31	40410.52
619.50	40258.97
619.70	40193.43
619.90	40289.69
620.09	40328.60
620.29	40431.00
620.48	40570.26
620.68	40488.34
620.88	39937.44
621.07	40420.76
621.27	40385.94
621.46	40121.76
621.66	40050.08
621.86	40344.98
622.05	40261.02
622.25	40373.66
622.44	40287.64
622.64	39929.25
622.84	40269.21
623.03	39843.23
623.23	40168.86
623.42	39978.40
623.62	40555.93
623.82	40306.07
624.01	40344.98
624.21	40074.65
624.40	40334.74
624.60	40115.61
624.80	39634.34
624.99	40428.95
625.19	39761.31
625.38	40197.53
625.58	39800.22
625.77	39876.00
625.97	40048.03
626.17	40002.97
626.36	40179.10
626.56	40052.12
626.75	39302.57
626.95	40019.36
627.14	40301.98
627.34	40037.79
627.54	39706.02
627.73	39652.77
627.93	39884.19
628.12	39943.58
628.32	40119.71
628.51	39878.05
628.71	40119.71
628.90	39507.37
629.10	39957.92
629.30	39818.66
629.49	39966.11
629.69	39716.26
629.88	39994.78
630.08	39900.58
630.27	39658.91
630.47	39894.43
630.66	39957.92
630.86	39765.41
631.05	39787.94
631.25	39992.73
631.44	39941.53
631.64	39722.40
631.84	39585.19
632.03	39916.96
632.23	39832.99
632.42	39761.31
632.62	39071.15
632.81	39523.75
633.01	39546.28
633.20	39822.75
633.40	39691.68
633.59	39353.77
633.79	39452.07
633.98	39515.56
634.18	39544.23
634.37	39923.10
634.57	39761.31
634.76	39789.98
634.96	39620.00
635.15	39413.16
635.35	39392.68
635.54	39306.66
635.74	39488.93
635.93	39241.13
636.13	39468.45
636.32	39628.20
636.52	39407.01
636.71	39409.06
636.91	39390.63
637.10	39536.04
637.30	39710.11
637.49	39349.67
637.69	39587.24
637.88	39558.56
638.08	39617.96
638.27	39441.83
638.46	39327.14
638.66	39259.56
638.85	39136.68
639.05	39443.88
639.24	39581.09
639.44	39310.76
639.63	39445.93
639.83	39056.81
640.02	39562.66
640.22	39224.75
640.41	39620.00
640.61	39243.18
640.80	39421.35
640.99	39361.96
641.19	39634.34
641.38	39437.73
641.58	39038.38
641.77	39472.55
641.97	39349.67
642.16	39167.40
642.36	39550.37
642.55	39591.33
642.74	38950.32
642.94	39919.01
643.13	39454.12
643.33	38983.09
643.52	39333.29
643.72	39429.54
643.91	39542.18
644.10	39179.69
644.30	39718.31
644.49	39005.61
644.69	39339.43
644.88	39007.66
645.08	39402.92
645.27	39034.28
645.46	39148.97
645.66	39230.89
645.85	39327.14
646.05	39126.44
646.24	39611.81
646.43	39699.87
646.63	39695.78
646.82	39458.21
647.02	39476.65
647.21	39493.03
647.40	39531.94
647.60	39755.17
647.79	39984.54
647.99	39679.39
648.18	38933.93
648.37	39490.98
648.57	39585.19
648.76	39347.62
648.96	39337.38
649.15	39458.21
649.34	39296.42
649.54	39460.26
649.73	39226.79
649.92	39693.73
650.12	38921.65
650.31	39243.18
650.51	39568.80
650.70	39378.34
650.89	39024.04
651.09	39701.92
651.28	39277.99
651.47	39376.30
651.67	39155.11
651.86	39577.00
652.06	38770.10
652.25	39380.39
652.44	39265.70
652.64	39081.39
652.83	39085.48
653.02	38946.22
653.22	39415.21
653.41	39077.29
653.60	39048.62
653.80	38741.42
653.99	39263.66
654.18	38919.60
654.38	39013.80
654.57	39331.24
654.76	38999.47
654.96	39304.62
655.15	39257.51
655.34	38880.69
655.54	38993.32
655.73	39206.31
655.92	39097.77
656.12	39179.69
656.31	39015.85
656.50	39085.48
656.70	38741.42
656.89	38909.36
657.08	39325.10
657.28	39087.53
657.47	38935.98
657.66	39382.44
657.86	39181.74
658.05	39089.58
658.24	39343.53
658.43	38553.01
658.63	38974.89
658.82	38841.78
659.01	39044.52
659.21	38798.77
659.40	38802.86
659.59	38856.11
659.79	39134.63
659.98	38921.65
660.17	39030.19
660.36	38743.47
660.56	38716.85
660.75	38714.80
660.94	38913.45
661.14	39148.97
661.33	38639.03
661.52	38579.64
661.71	38999.47
661.91	38589.88
662.10	38847.92
662.29	39003.56
662.49	39144.87
662.68	38970.80
662.87	38823.34
663.06	39042.48
663.26	38766.00
663.45	39099.82
663.64	38845.87
663.83	39216.55
664.03	38673.84
664.22	38585.78
664.41	38587.83
664.60	38499.76
664.80	38843.82
664.99	38917.55
665.18	38811.06
665.37	38591.92
665.57	38860.21
665.76	38583.73
665.95	38679.99
666.14	38639.03
666.34	38837.68
666.53	38782.38
666.72	38700.47
666.91	38503.86
667.11	38636.98
667.30	38442.42
667.49	38495.67
667.68	38118.84
667.87	38454.71
668.07	38254.01
668.26	38567.35
668.45	38399.41
668.64	38188.47
668.84	38561.20
669.03	38479.28
669.22	38368.69
669.41	38254.01
669.60	38446.52
669.80	38292.92
669.99	38239.67
670.18	38481.33
670.37	38157.75
670.57	38219.19
670.76	38071.74
670.95	38499.76
671.14	38292.92
671.33	37754.30
671.53	38528.44
671.72	38323.64
671.91	38385.08
672.10	37733.82
672.29	38053.31
672.48	38213.05
672.68	38317.50
672.87	37932.48
673.06	37942.72
673.25	37782.98
673.44	37733.82
673.64	37823.93
673.83	37963.20
674.02	37846.46
674.21	37627.33
674.40	38065.60
674.59	37656.00
674.79	37787.07
674.98	37524.93
675.17	37723.58
675.36	37672.39
675.55	37877.18
675.74	37858.75
675.94	37744.06
676.13	37713.34
676.32	37662.15
676.51	37582.27
676.70	38004.16
676.89	37481.92
677.08	37957.05
677.28	37569.99
677.47	37868.99
677.66	37813.70
677.85	37682.62
678.04	37895.61
678.23	37846.46
678.42	37803.46
678.62	37262.79
678.81	37690.82
679.00	37692.86
679.19	37422.53
679.38	37201.35
679.57	37199.30
679.76	37522.88
679.96	37668.29
680.15	37555.65
680.34	37086.67
680.53	37457.35
680.72	37674.43
680.91	37612.99
681.10	37297.61
681.29	37187.02
681.48	36996.56
681.68	37318.09
681.87	37103.05
682.06	37232.07
682.25	36888.01
682.44	37070.28
682.63	36976.08
682.82	37133.77
683.01	36869.58
683.20	36693.46
683.39	37047.75
683.59	37047.75
683.78	36546.00
683.97	36412.88
684.16	36568.53
684.35	36513.23
684.54	36812.24
684.73	36443.60
684.92	36685.26
685.11	36548.05
685.30	36552.15
685.49	36613.59
685.69	36574.67
685.88	36607.44
686.07	36660.69
686.26	36619.73
686.45	36376.02
686.64	36582.87
686.83	35857.88
687.02	36402.64
687.21	36355.54
687.40	36550.10
687.59	36564.43
687.78	36578.77
687.97	36318.68
688.16	36083.16
688.35	36042.20
688.54	35962.33
688.74	36498.90
688.93	35816.93
689.12	35997.15
689.31	35988.95
689.50	36269.53
689.69	35919.32
689.88	35722.72
690.07	36275.67
690.26	35843.55
690.45	36238.81
690.64	35630.56
690.83	35454.44
691.02	35626.46
691.21	36046.30
691.40	35501.54
691.59	36085.21
691.78	35804.64
691.97	35706.34
692.16	35659.23
692.35	35845.60
692.54	35384.80
692.73	35886.56
692.92	35577.31
693.11	35345.89
693.30	35431.91
693.49	35571.17
693.68	35546.59
693.87	35771.87
694.06	35329.51
694.25	35247.59
694.44	35241.45
694.63	35329.51
694.82	35491.30
695.01	35149.29
695.20	34962.92
695.39	34952.68
695.58	34928.11
695.77	34684.40
695.96	34622.96
696.15	35118.57
696.34	34956.78
696.53	34780.65
696.72	35192.30
696.91	34979.31
697.10	34891.24
697.29	34741.74
697.48	34878.96
697.67	34514.42
697.86	34739.69
698.05	34641.39
698.24	34866.67
698.43	34424.31
698.62	34686.45
698.81	34326.00
699.00	34745.84
699.19	34430.45
699.38	34588.14
699.57	34133.50
699.76	34887.15
699.95	34067.96
700.14	34016.76
700.32	34326.00
700.51	34295.28
700.70	34373.11
700.89	34371.06
701.08	34285.04
701.27	33943.03
701.46	34491.89
701.65	33811.96
701.84	34409.97
702.03	33908.22
702.22	34196.98
702.41	34389.49
702.60	34096.63
702.79	33887.74
702.98	33961.47
703.17	33738.24
703.35	34010.62
703.54	33906.17
703.73	34016.76
703.92	33811.96
704.11	33932.79
704.30	33590.78
704.49	33900.03
704.68	33715.71
704.87	33676.80
705.06	33422.85
705.25	33564.16
705.43	33414.66
705.62	33297.92
705.81	33138.18
706.00	33433.09
706.19	33207.81
706.38	33334.79
706.57	32855.56
706.76	33428.99
706.95	33428.99
707.14	33445.38
707.32	33109.51
707.51	33377.79
707.70	33250.82
707.89	33228.29
708.08	33189.38
708.27	32992.78
708.46	33093.13
708.65	32945.67
708.84	33041.93
709.02	32974.34
709.21	32728.59
709.40	32744.97
709.59	32898.57
709.78	32429.59
709.97	32853.51
710.16	32646.67
710.34	32652.81
710.53	32464.40
710.72	32357.91
710.91	32482.83
711.10	32298.52
711.29	32941.58
711.48	32511.50
711.66	32206.36
711.85	32554.51
712.04	32495.12
712.23	32149.01
712.42	32341.52
712.61	32351.76
712.80	32417.30
712.98	32445.97
713.17	31854.11
713.36	32144.92
713.55	32126.49
713.74	32157.21
713.93	31843.87
714.11	32009.75
714.30	31802.91
714.49	31653.40
714.68	31780.38
714.87	32038.42
715.06	31878.68
715.24	31682.08
715.43	31790.62
715.62	31675.93
715.81	31686.17
716.00	31710.75
716.18	31405.60
716.37	31272.48
716.56	31477.28
716.75	31450.66
716.94	31299.11
717.12	31395.36
717.31	31381.03
717.50	31421.98
717.69	30905.90
717.88	31354.40
718.06	31364.64
718.25	31409.70
718.44	31237.67
718.63	30735.92
718.82	31114.79
719.00	30967.34
719.19	30996.01
719.38	30907.94
719.57	31022.63
719.76	30725.68
719.94	30838.31
720.13	30709.29
720.32	30793.26
720.51	30858.79
720.69	30676.52
720.88	30438.96
721.07	30510.64
721.26	30236.21
721.44	30395.95
721.63	30096.95
721.82	30062.13
722.01	30060.09
722.20	30240.31
722.38	30168.63
722.57	29853.24
722.76	30123.57
722.95	29902.39
723.13	29828.66
723.32	29531.71
723.51	29898.30
723.70	29642.30
723.88	29730.36
724.07	29535.81
724.26	29957.69
724.44	29142.60
724.63	29843.00
724.82	29836.86
725.01	29572.67
725.19	29783.61
725.38	29439.55
725.57	29181.51
725.76	29244.99
725.94	29347.39
726.13	28984.90
726.32	29142.60
726.51	29171.27
726.69	29537.85
726.88	29500.99
727.07	29224.51
727.25	29095.49
727.44	29181.51
727.63	29222.47
727.82	29300.29
728.00	28993.09
728.19	28939.85
728.38	29247.04
728.56	29029.96
728.75	29015.62
728.94	28821.06
729.12	29279.81
729.31	29263.43
729.50	29343.30
729.69	28894.79
729.87	28935.75
730.06	28849.74
730.25	28972.61
730.43	29193.79
730.62	28841.54
730.81	29175.36
730.99	28915.27
731.18	28739.15
731.37	28833.35
731.55	28608.08
731.74	28913.22
731.93	28716.62
732.11	28919.37
732.30	28571.21
732.49	28724.81
732.67	29062.72
732.86	28606.03
733.05	28644.94
733.23	28595.79
733.42	28585.55
733.61	28218.96
733.79	28237.39
733.98	28573.26
734.17	28352.08
734.35	28038.74
734.54	28229.20
734.73	28384.85
734.91	28327.50
735.10	28139.09
735.29	28434.00
735.47	27690.59
735.66	28382.80
735.84	28302.93
736.03	28010.07
736.22	28274.26
736.40	27944.53
736.59	28257.87
736.78	28061.27
736.96	28118.61
737.15	28210.77
737.33	28022.36
737.52	27940.44
737.71	27930.20
737.89	27553.37
738.08	27496.03
738.27	27672.15
738.45	28327.50
738.64	28085.84
738.82	27457.12
739.01	27289.18
739.20	27240.03
739.38	27852.38
739.57	27442.78
739.75	28020.31
739.94	27618.91
740.13	27647.58
740.31	27377.25
740.50	27496.03
740.68	27608.67
740.87	27698.78
741.06	27502.17
741.24	27307.62
741.43	27145.83
741.61	27201.12
741.80	27252.32
741.99	26996.32
742.17	27242.08
742.36	26961.51
742.54	27098.72
742.73	26973.80
742.91	26893.93
743.10	27280.99
743.29	27211.36
743.47	27225.70
743.66	27221.60
743.84	27389.53
744.03	27072.10
744.21	27006.56
744.40	27008.61
744.59	27045.48
744.77	26801.77
744.96	26693.22
745.14	26863.21
745.33	26969.70
745.51	26885.73
745.70	26834.53
745.88	26717.80
746.07	26975.84
746.26	26852.97
746.44	26875.49
746.63	26621.55
746.81	26703.46
747.00	26295.92
747.18	26529.39
747.37	26840.68
747.55	26637.93
747.74	26607.21
747.92	26627.69
748.11	26343.02
748.29	26201.71
748.48	26433.13
748.66	26037.87
748.85	26629.74
749.03	26381.93
749.22	26070.64
749.41	26402.41
749.59	26220.14
749.78	25984.63
749.96	26068.59
750.15	26050.16
750.33	26136.18
750.52	26273.39
750.70	26314.35
750.89	25953.91
751.07	25710.20
751.26	25929.33
751.44	25998.96
751.63	25798.26
751.81	25828.98
752.00	25798.26
752.18	25826.93
752.37	26033.78
752.55	25824.89
752.74	25753.21
752.92	25769.59
753.10	25781.88
753.29	25681.53
753.47	25489.02
753.66	25710.20
753.84	25663.10
754.03	25622.14
754.21	25515.64
754.40	25443.96
754.58	25540.22
754.77	25140.86
754.95	25386.62
755.14	25421.44
755.32	25478.78
755.51	25529.98
755.69	25454.20
755.88	25462.40
756.06	25390.72
756.24	25220.74
756.43	25181.82
756.61	25259.65
756.80	25081.47
756.98	24651.40
757.17	24950.40
757.35	25106.05
757.54	24872.58
757.72	24819.33
757.90	25056.90
758.09	25073.28
758.27	25009.79
758.46	25050.75
758.64	25110.14
758.83	24936.07
759.01	24905.35
759.19	24925.83
759.38	24706.70
759.56	24888.96
759.75	24985.22
759.93	24768.13
760.12	24612.49
760.30	24745.61
760.48	24755.85
760.67	24209.04
760.85	24393.36
761.04	24776.33
761.22	24600.20
761.40	24290.96
761.59	24770.18
761.77	24231.57
761.96	24491.66
762.14	24233.61
762.32	24403.60
762.51	24309.39
762.69	24217.23
762.88	24163.98
763.06	24409.74
763.24	24372.88
763.43	24426.12
763.61	24088.21
763.80	24123.02
763.98	23950.99
764.16	24053.39
764.35	23828.12
764.53	23580.31
764.72	23869.08
764.90	23862.93
765.08	23742.10
765.27	23875.22
765.45	23766.68
765.63	23441.05
765.82	23611.03
766.00	23658.14
766.18	23764.63
766.37	23674.52
766.55	23998.10
766.74	23727.77
766.92	23537.30
767.10	23512.73
767.29	23604.89
767.47	23457.43
767.65	23477.91
767.84	23535.26
768.02	23551.64
768.20	23410.33
768.39	23793.30
768.57	23494.30
768.75	23359.13
768.94	23594.65
769.12	23146.14
769.30	23283.36
769.49	23629.46
769.67	23015.07
769.85	23213.73
770.04	23172.77
770.22	22841.00
770.40	22570.66
770.59	23099.04
770.77	23021.22
770.95	23027.36
771.14	23080.61
771.32	22775.46
771.50	22787.75
771.69	22961.83
771.87	22900.39
772.05	22970.02
772.24	22843.04
772.42	22607.53
772.60	22697.64
772.78	22699.69
772.97	22642.34
773.15	23123.62
773.33	22552.23
773.52	22609.58
773.70	22683.30
773.88	22478.50
774.07	22791.84
774.25	22437.55
774.43	22785.70
774.61	22587.05
774.80	22664.87
774.98	22580.90
775.16	22668.97
775.34	22566.57
775.53	22455.98
775.71	22550.18
775.89	22494.89
776.08	22576.81
776.26	22699.69
776.44	22341.29
776.62	22484.65
776.81	22474.41
776.99	22664.87
777.17	22435.50
777.35	22539.94
777.54	22656.68
777.72	22664.87
777.90	22419.11
778.08	22722.21
778.27	22679.21
778.45	22476.46
778.63	22924.96
778.81	22621.86
779.00	23154.33
779.18	22550.18
779.36	22898.34
779.54	22601.38
779.73	22724.26
779.91	22632.10
780.09	22656.68
780.27	22720.17
780.46	22570.66
780.64	22914.72
780.82	22392.49
781.00	22679.21
781.19	22668.97
781.37	22890.15
781.55	22933.15
781.73	22879.91
781.91	22767.27
782.10	22771.36
782.28	22658.73
782.46	23021.22
782.64	22789.80
782.82	22640.29
783.01	23041.70
783.19	22812.32
783.37	22812.32
783.55	22648.49
783.74	22955.68
783.92	22716.07
784.10	22828.71
784.28	22875.81
784.46	22906.53
784.64	22531.75
784.83	22558.38
785.01	22746.79
785.19	22783.65
785.37	22722.21
785.55	22707.88
785.74	22808.23
785.92	22496.94
786.10	22724.26
786.28	22544.04
786.46	22541.99
786.64	22255.28
786.83	22509.22
787.01	22425.26
787.19	22521.51
787.37	22474.41
787.55	22404.78
787.74	22302.38
787.92	22570.66
788.10	22359.72
788.28	22136.49
788.46	22531.75
788.64	22101.68
788.82	22380.20
789.01	22353.58
789.19	22247.08
789.37	22290.09
789.55	22019.76
789.73	21767.86
789.91	21976.75
790.09	21884.59
790.28	21898.93
790.46	21751.48
790.64	21935.79
790.82	21812.92
791.00	22009.52
791.18	21694.13
791.36	21722.80
791.55	21778.10
791.73	21663.41
791.91	21348.03
792.09	21675.70
792.27	21534.39
792.45	21669.56
792.63	21524.15
792.81	21259.96
793.00	21442.23
793.18	21456.57
793.36	21386.94
793.54	21122.75
793.72	21323.45
793.90	21040.83
794.08	21022.40
794.26	21094.08
794.44	21030.59
794.62	20891.33
794.81	21065.41
794.99	20655.81
795.17	20766.40
795.35	20905.66
795.53	20893.38
795.71	21067.45
795.89	20723.40
796.07	20731.59
796.25	20324.04
796.43	20633.29
796.61	20469.45
796.80	20489.93
796.98	20235.98
797.16	20375.24
797.34	20299.47
797.52	20317.90
797.70	20303.56
797.88	20250.32
798.06	20408.01
798.24	20213.45
798.42	20215.50
798.60	20123.34
798.78	20178.64
798.96	19846.87
799.14	19752.66
799.32	20049.61
799.51	19762.90
799.69	19934.93
799.87	19877.58
800.05	19668.69
800.23	19506.90
800.41	19578.58
800.59	19584.73
800.77	19242.71
800.95	19406.55
801.13	19467.99
801.31	19080.92
801.49	19414.74
801.67	19390.17
801.85	19031.77
802.03	18992.86
802.21	19064.54
802.39	19072.73
802.57	19091.16
802.75	18996.96
802.93	18910.94
803.11	18865.89
803.29	18769.63
803.47	18773.73
803.65	18861.79
803.83	18622.18
804.01	18900.70
804.19	18740.96
804.37	18624.23
804.55	18566.88
804.73	18554.60
804.91	18327.27
805.09	18822.88
805.27	18343.66
805.45	18552.55
805.63	18345.70
805.81	18401.00
805.99	18435.81
806.17	18523.88
806.35	18169.58
806.53	18089.71
806.71	18155.24
806.89	18206.44
807.07	17925.87
807.25	18018.03
807.43	17934.06
807.61	18155.24
807.79	17802.99
807.97	17778.42
808.15	17755.89
808.33	18050.80
808.51	17698.55
808.69	17956.59
808.87	17559.28
809.05	17526.52
809.23	17581.81
809.41	17569.52
809.59	17524.47
809.77	17567.48
809.95	17422.07
810.13	17397.49
810.31	17381.11
810.49	17297.14
810.67	17362.68
810.84	17366.78
811.02	17516.28
811.20	17143.55
811.38	17057.53
811.56	17198.84
811.74	17288.95
811.92	17030.91
812.10	16914.17
812.28	17116.92
812.46	16920.32
812.64	17123.07
812.82	16985.85
813.00	16785.15
813.18	16830.21
813.36	16889.60
813.53	16563.97
813.71	16854.78
813.89	16957.18
814.07	16799.49
814.25	16781.06
814.43	16496.39
814.61	16529.16
814.79	16658.18
814.97	16465.67
815.15	16787.20
815.33	16385.80
815.50	16414.47
815.68	16559.88
815.86	16330.50
816.04	16178.95
816.22	16273.16
816.40	16445.19
816.58	16273.16
816.76	16230.15
816.94	16291.59
817.11	16097.03
817.29	16144.14
817.47	16039.69
817.65	16133.90
817.83	15882.00
818.01	16109.32
818.19	15646.48
818.37	15853.33
818.54	15800.08
818.72	15812.37
818.90	15949.58
819.08	15818.51
819.26	15834.89
819.44	15724.30
819.62	15773.46
819.80	15808.27
819.97	15808.27
820.15	15724.30
820.33	15634.19
820.51	15417.11
820.69	15656.72
820.87	15845.13
821.05	15542.03
821.22	15431.44
821.40	15214.36
821.58	15308.57
821.76	15478.55
821.94	15109.91
822.12	15216.41
822.29	15507.22
822.47	15318.81
822.65	15312.66
822.83	15159.06
823.01	15279.89
823.19	15419.16
823.36	14991.13
823.54	15230.74
823.72	15050.52
823.90	15240.98
824.08	15163.16
824.25	15064.86
824.43	14819.10
824.61	15046.43
824.79	14915.36
824.97	14991.13
825.15	14909.21
825.32	14839.58
825.50	14851.87
825.68	14704.42
825.86	14874.40
826.04	14563.11
826.21	14722.85
826.39	14657.31
826.57	14470.95
826.75	14636.83
826.93	14192.42
827.10	14737.18
827.28	14575.39
827.46	14653.22
827.64	14262.05
827.81	14466.85
827.99	14534.43
828.17	14446.37
828.35	14251.81
828.53	14489.38
828.70	14475.04
828.88	14399.27
829.06	14186.28
829.24	14503.71
829.41	14217.00
829.59	14307.11
829.77	14165.80
829.95	14161.70
830.12	14270.25
830.30	14120.74
830.48	14081.83
830.66	14247.72
830.84	14155.56
831.01	14032.68
831.19	14059.31
831.37	14120.74
831.55	13954.86
831.72	14016.30
831.90	13868.84
832.08	13725.49
832.25	14053.16
832.43	14022.44
832.61	13836.08
832.79	13737.77
832.96	13633.33
833.14	13782.83
833.32	13672.24
833.50	13868.84
833.67	13838.12
833.85	13731.63
834.03	13502.26
834.20	13971.24
834.38	13725.49
834.56	13635.38
834.74	13465.39
834.91	13575.98
835.09	13559.60
835.27	13512.50
835.44	13526.83
835.62	13307.70
835.80	13319.99
835.98	13530.93
836.15	13311.80
836.33	13434.68
836.51	13436.72
836.68	13252.41
836.86	13350.71
837.04	13420.34
837.21	13346.61
837.39	13315.89
837.57	13379.38
837.75	13272.89
837.92	13160.25
838.10	13133.62
838.28	13059.90
838.45	12986.17
838.63	13141.82
838.81	13180.73
838.98	13090.62
839.16	12937.02
839.34	13010.75
839.51	13059.90
839.69	12607.30
839.87	13037.37
840.04	12902.20
840.22	12869.44
840.40	12812.09
840.57	13018.94
840.75	13043.51
840.93	12748.61
841.10	12676.93
841.28	12861.24
841.46	12627.78
841.63	12771.13
841.81	12791.61
841.98	12873.53
842.16	12638.02
842.34	12721.98
842.51	12480.32
842.69	12705.60
842.87	12513.09
843.04	12580.67
843.22	12721.98
843.40	12721.98
843.57	12658.49
843.75	12478.27
843.92	12543.81
844.10	12406.59
844.28	12488.51
844.45	12539.71
844.63	12617.54
844.81	12400.45
844.98	12549.95
845.16	12052.30
845.33	12388.16
845.51	12269.38
845.69	12300.10
845.86	12281.67
846.04	12255.04
846.21	12293.96
846.39	12148.55
846.57	11865.93
846.74	12220.23
846.92	12109.64
847.09	12318.53
847.27	12007.24
847.45	12040.01
847.62	12130.12
847.80	12085.06
847.97	12173.13
848.15	12037.96
848.32	12060.49
848.50	11978.57
848.68	11986.76
848.85	11908.94
849.03	11953.99
849.20	11958.09
849.38	11941.71
849.56	11978.57
849.73	11777.87
849.91	11779.92
850.08	11943.75
850.26	11829.07
850.43	11722.57
850.61	11784.01
850.78	11632.46
850.96	11784.01
851.14	11587.41
851.31	11642.70
851.49	11753.29
851.66	11554.64
851.84	11714.38
852.01	11933.51
852.19	11480.91
852.36	11691.85
852.54	11687.76
852.71	11708.24
852.89	11411.28
853.07	11620.17
853.24	11634.51
853.42	11558.74
853.59	11614.03
853.77	11476.82
853.94	11468.62
854.12	11458.39
854.29	11458.39
854.47	11368.27
854.64	11444.05
854.82	11321.17
854.99	11388.75
855.17	11317.08
855.34	11386.71
855.52	11364.18
855.69	11495.25
855.87	11448.15
856.04	11349.84
856.22	11323.22
856.39	11366.23
856.57	11288.40
856.74	11575.12
856.92	11122.52
857.09	11120.47
857.27	11196.25
857.44	11087.70
857.62	11235.16
857.79	11140.95
857.97	10909.53
858.14	11294.55
858.32	11020.12
858.49	11112.28
858.67	11177.81
858.84	10973.02
859.02	10942.30
859.19	10856.28
859.37	10798.94
859.54	11020.12
859.72	10987.35
859.89	11005.78
860.06	10985.30
860.24	10970.97
860.41	10757.98
860.59	10786.65
860.76	10925.91
860.94	10501.98
861.11	10776.41
861.29	10686.30
861.46	10686.30
861.64	10610.53
861.81	10567.52
861.98	10796.89
862.16	10608.48
862.33	10741.60
862.51	10454.88
862.68	10577.76
862.86	10542.94
863.03	10569.57
863.21	10452.83
863.38	10633.05
863.55	10735.45
863.73	10583.90
863.90	10411.87
864.08	10430.30
864.25	10487.65
864.43	10493.79
864.60	10280.80
864.77	10286.95
864.95	10434.40
865.12	10241.89
865.30	10319.71
865.47	10334.05
865.64	10088.29
865.82	10485.60
865.99	10344.29
866.17	10209.12
866.34	10366.82
866.51	10008.42
866.69	10200.93
866.86	10248.04
867.04	10133.35
867.21	10166.12
867.38	10041.19
867.56	10256.23
867.73	10086.25
867.91	10141.54
868.08	9903.98
868.25	10033.00
868.43	9961.32
868.60	9809.77
868.78	9871.21
868.95	10186.60
869.12	9963.37
869.30	9822.06
869.47	9908.07
869.64	9676.65
869.82	9946.98
869.99	9791.34
870.16	9852.78
870.34	9813.87
870.51	9879.40
870.69	9645.93
870.86	9793.39
871.03	9568.11
871.21	9627.50
871.38	9711.47
871.55	9543.53
871.73	9740.14
871.90	9676.65
872.07	9592.69
872.25	9580.40
872.42	9527.15
872.59	9480.05
872.77	9613.17
872.94	9447.28
873.11	9471.86
873.29	9469.81
873.46	9293.68
873.63	9490.29
873.81	9387.89
873.98	9310.07
874.15	9402.22
874.33	9156.47
874.50	9242.48
874.67	9373.55
874.85	9297.78
875.02	9244.53
875.19	9062.26
875.37	9168.76
875.54	9156.47
875.71	9074.55
875.88	9097.08
876.06	9277.30
876.23	9029.49
876.40	9117.56
876.58	9205.62
876.75	9039.73
876.92	9017.21
877.10	8935.29
877.27	9070.45
877.44	8933.24
877.61	8773.50
877.79	8884.09
877.96	8861.56
878.13	8906.62
878.31	8806.27
878.48	8832.89
878.65	8908.66
878.82	8765.31
879.00	8793.98
879.17	8755.07
879.34	8871.80
879.51	8718.20
879.69	8609.66
879.86	8621.95
880.03	8578.94
880.21	8728.44
880.38	8804.22
880.55	8716.16
880.72	8683.39
880.90	8611.71
881.07	8658.81
881.24	8480.64
881.41	8613.76
881.59	8392.58
881.76	8488.83
881.93	8540.03
882.10	8527.74
882.28	8386.43
882.45	8490.88
882.62	8236.93
882.79	8662.91
882.96	8361.86
883.14	8523.65
883.31	8327.04
883.48	8492.93
883.65	8380.29
883.83	8599.42
884.00	8501.12
884.17	8312.71
884.34	8355.71
884.51	8286.08
884.69	8513.41
884.86	8241.03
885.03	8347.52
885.20	8073.09
885.38	8259.46
885.55	8236.93
885.72	8322.94
885.89	8271.75
886.06	8214.40
886.24	8177.54
886.41	8234.88
886.58	8195.97
886.75	8193.92
886.92	8163.20
887.10	8177.54
887.27	8079.24
887.44	8224.64
887.61	8218.50
887.78	8214.40
887.95	8245.12
888.13	8058.76
888.30	8105.86
888.47	7958.41
888.64	8109.96
888.81	7931.78
888.99	7976.84
889.16	7942.02
889.33	7872.39
889.50	8028.04
889.67	7964.55
889.84	8003.46
890.01	7819.14
890.19	7860.10
890.36	7970.69
890.53	7796.62
890.70	7845.77
890.87	7860.10
891.04	7798.66
891.22	7735.18
891.39	7763.85
891.56	7870.34
891.73	7833.48
891.90	7821.19
892.07	7630.73
892.24	7780.23
892.42	7741.32
892.59	7622.54
892.76	7550.86
892.93	7618.44
893.10	7831.43
893.27	7626.64
893.44	7690.12
893.61	7634.83
893.79	7772.04
893.96	7610.25
894.13	7591.82
894.30	7468.94
894.47	7440.27
894.64	7729.03
894.81	7702.41
894.98	7671.69
895.15	7655.31
895.33	7454.61
895.50	7638.92
895.67	7612.30
895.84	7577.48
896.01	7634.83
896.18	7434.13
896.35	7745.42
896.52	7436.17
896.69	7532.43
896.86	7573.39
897.04	7511.95
897.21	7434.13
897.38	7389.07
897.55	7522.19
897.72	7610.25
897.89	7565.20
898.06	7538.57
898.23	7442.32
898.40	7675.79
898.57	7450.51
898.74	7370.64
898.91	7462.80
899.08	7397.26
899.26	7501.71
899.43	7554.96
899.60	7325.58
899.77	7530.38
899.94	7313.30
900.11	7384.98
900.28	7411.60
900.45	7266.19
900.62	7364.50
900.79	7393.17
900.96	7247.76
901.13	7294.86
901.30	7147.41
901.47	7405.46
901.64	7405.46
901.81	7382.93
901.98	7192.47
902.15	7221.14
902.32	7182.23
902.49	7292.82
902.66	7315.34
902.83	7223.19
903.01	7258.00
903.18	7319.44
903.35	7337.87
903.52	7227.28
903.69	7360.40
903.86	7339.92
904.03	7192.47
904.20	7214.99
904.37	7317.39
904.54	7294.86
904.71	7280.53
904.88	7184.27
905.05	7204.75
905.22	7190.42
905.39	7235.47
905.56	7118.74
905.73	7253.91
905.90	7272.34
906.07	7350.16
906.24	7178.13
906.41	7305.10
906.58	7239.57
906.75	7231.38
906.92	7229.33
907.09	7290.77
907.26	7249.81
907.43	7092.12
907.60	7092.12
907.77	7346.06
907.93	7133.08
908.10	7133.08
908.27	7081.88
908.44	7004.05
908.61	7022.48
908.78	7182.23
908.95	7194.51
909.12	7100.31
909.29	7137.17
909.46	7184.27
909.63	7190.42
909.80	7038.87
909.97	7161.75
910.14	7079.83
910.31	7047.06
910.48	7149.46
910.65	6995.86
910.82	6938.52
910.99	7227.28
911.16	7002.01
911.33	7085.97
911.50	7274.38
911.66	6924.18
911.83	6918.04
912.00	6875.03
912.17	6918.04
912.34	6950.81
912.51	6965.14
912.68	6891.41
912.85	6987.67
913.02	6889.37
913.19	6909.85
913.36	6815.64
913.53	6864.79
913.70	6750.10
913.86	6883.22
914.03	6844.31
914.20	6782.87
914.37	6719.39
914.54	6719.39
914.71	6848.41
914.88	6752.15
915.05	6653.85
915.22	6688.67
915.39	6811.54
915.55	6768.54
915.72	6586.27
915.89	6612.89
916.06	6639.51
916.23	6623.13
916.40	6672.28
916.57	6586.27
916.74	6668.19
916.91	6659.99
917.07	6619.04
917.24	6465.44
917.41	6627.23
917.58	6424.48
917.75	6436.77
917.92	6461.34
918.09	6447.01
918.26	6533.02
918.42	6469.53
918.59	6442.91
918.76	6408.09
918.93	6258.59
919.10	6203.30
919.27	6451.10
919.44	6213.54
919.60	6424.48
919.77	6158.24
919.94	6250.40
920.11	6238.11
920.28	6195.11
920.45	6195.11
920.61	6061.99
920.78	6156.19
920.95	6076.32
921.12	6242.21
921.29	6070.18
921.46	6074.28
921.62	6162.34
921.79	6096.80
921.96	6016.93
922.13	5992.36
922.30	5916.58
922.47	6016.93
922.63	5969.83
922.80	5973.92
922.97	5943.21
923.14	5816.23
923.31	5846.95
923.47	5945.25
923.64	5943.21
923.81	5631.91
923.98	5924.77
924.15	5695.40
924.32	5707.69
924.48	5668.78
924.65	5791.66
924.82	5621.67
924.99	5689.26
925.15	5687.21
925.32	5650.35
925.49	5564.33
925.66	5580.71
925.83	5539.76
925.99	5642.15
926.16	5554.09
926.33	5498.80
926.50	5418.93
926.67	5504.94
926.83	5437.36
927.00	5490.60
927.17	5498.80
927.34	5341.10
927.50	5265.33
927.67	5302.19
927.84	5275.57
928.01	5429.17
928.17	5318.57
928.34	5212.08
928.51	5267.38
928.68	5277.62
928.84	5228.46
929.01	5062.58
929.18	5017.52
929.35	5167.03
929.51	5085.11
929.68	5011.38
929.85	4986.80
930.02	5201.84
930.18	5050.29
930.35	5054.39
930.52	4923.32
930.69	5083.06
930.85	5074.87
931.02	4939.70
931.19	4960.18
931.36	4870.07
931.52	4847.54
931.69	4931.51
931.86	4675.51
932.02	4896.69
932.19	4798.39
932.36	4747.19
932.53	4790.20
932.69	4698.04
932.86	4794.29
933.03	4728.76
933.19	4493.24
933.36	4763.58
933.53	4546.49
933.70	4534.20
933.86	4519.87
934.03	4530.11
934.20	4534.20
934.36	4495.29
934.53	4503.48
934.70	4526.01
934.86	4507.58
935.03	4454.33
935.20	4446.14
935.36	4356.03
935.53	4329.41
935.70	4343.74
935.86	4280.25
936.03	4224.96
936.20	4188.10
936.36	4151.23
936.53	4208.58
936.70	4095.94
936.86	4184.00
937.03	4026.31
937.20	3989.44
937.36	4140.99
937.53	3874.76
937.70	3803.08
937.86	3811.27
938.03	3878.85
938.20	3934.15
938.36	3805.13
938.53	3729.35
938.70	3735.50
938.86	3667.91
939.03	3702.73
939.20	3618.76
939.36	3665.86
939.53	3569.61
939.70	3661.77
939.86	3469.26
940.03	3446.73
940.19	3393.48
940.36	3571.66
940.53	3549.13
940.69	3338.19
940.86	3461.07
941.03	3432.40
941.19	3317.71
941.36	3293.13
941.52	3266.51
941.69	3352.52
941.86	3184.59
942.02	3264.46
942.19	3178.45
942.35	3162.06
942.52	3147.73
942.69	3133.39
942.85	3147.73
943.02	3069.91
943.18	3076.05
943.35	2959.31
943.52	3000.27
943.68	2953.17
943.85	3028.95
944.01	3026.90
944.18	2928.60
944.35	3008.47
944.51	2934.74
944.68	2973.65
944.84	2832.34
945.01	2965.46
945.17	2901.97
945.34	2887.64
945.51	2861.01
945.67	2869.20
945.84	2805.72
946.00	2852.82
946.17	2865.11
946.33	2766.81
946.50	2805.72
946.67	2838.48
946.83	2752.47
947.00	2871.25
947.16	2701.27
947.33	2854.87
947.49	2742.23
947.66	2775.00
947.82	2901.97
947.99	2734.04
948.16	2838.48
948.32	2762.71
948.49	2797.53
948.65	2717.65
948.82	2680.79
948.98	2734.04
949.15	2678.74
949.31	2836.44
949.48	2645.98
949.64	2752.47
949.81	2682.84
949.97	2713.56
950.14	2709.46
950.30	2736.09
950.47	2744.28
950.63	2752.47
950.80	2748.37
950.96	2772.95
951.13	2758.61
951.30	2879.44
951.46	2672.60
951.63	2711.51
951.79	2635.74
951.96	2731.99
952.12	2678.74
952.29	2770.90
952.45	2662.36
952.62	2617.30
952.78	2713.56
952.94	2746.33
953.11	2680.79
953.27	2662.36
953.44	2631.64
953.60	2666.46
953.77	2709.46
953.93	2656.22
954.10	2650.07
954.26	2738.13
954.43	2596.82
954.59	2736.09
954.76	2830.29
954.92	2678.74
955.09	2701.27
955.25	2664.41
955.42	2639.83
955.58	2709.46
955.75	2627.54
955.91	2619.35
956.07	2688.98
956.24	2664.41
956.40	2699.22
956.57	2731.99
956.73	2641.88
956.90	2637.78
957.06	2658.26
957.23	2627.54
957.39	2684.89
957.56	2652.12
957.72	2711.51
957.88	2635.74
958.05	2656.22
958.21	2742.23
958.38	2566.10
958.54	2697.17
958.71	2715.61
958.87	2643.93
959.03	2613.21
959.20	2660.31
959.36	2578.39
959.53	2492.38
959.69	2590.68
959.85	2670.55
960.02	2652.12
960.18	2570.20
960.35	2555.86
960.51	2641.88
960.68	2623.45
960.84	2602.97
961.00	2582.49
961.17	2621.40
961.33	2510.81
961.50	2559.96
961.66	2639.83
961.82	2600.92
961.99	2574.30
962.15	2756.57
962.31	2537.43
962.48	2516.95
962.64	2551.77
962.81	2543.58
962.97	2574.30
963.13	2584.54
963.30	2598.87
963.46	2549.72
963.62	2553.82
963.79	2602.97
963.95	2551.77
964.12	2533.34
964.28	2578.39
964.44	2516.95
964.61	2668.50
964.77	2617.30
964.93	2521.05
965.10	2562.01
965.26	2582.49
965.42	2586.58
965.59	2512.86
965.75	2457.56
965.92	2508.76
966.08	2533.34
966.24	2441.18
966.41	2494.43
966.57	2535.39
966.73	2535.39
966.90	2574.30
967.06	2502.62
967.22	2570.20
967.39	2471.90
967.55	2478.04
967.71	2412.51
967.88	2471.90
968.04	2529.24
968.20	2377.69
968.37	2521.05
968.53	2490.33
968.69	2459.61
968.85	2504.67
969.02	2504.67
969.18	2428.89
969.34	2496.47
969.51	2553.82
969.67	2461.66
969.83	2426.84
970.00	2465.75
970.16	2400.22
970.32	2424.80
970.48	2519.00
970.65	2408.41
970.81	2475.99
970.97	2361.31
971.14	2398.17
971.30	2482.14
971.46	2435.03
971.63	2572.25
971.79	2482.14
971.95	2432.99
972.11	2371.55
972.28	2471.90
972.44	2467.80
972.60	2389.98
972.76	2383.84
972.93	2400.22
973.09	2398.17
973.25	2385.88
973.42	2443.23
973.58	2441.18
973.74	2365.40
973.90	2445.27
974.07	2383.84
974.23	2340.83
974.39	2385.88
974.55	2426.84
974.72	2338.78
974.88	2336.73
975.04	2346.97
975.20	2361.31
975.37	2361.31
975.53	2242.53
975.69	2379.74
975.85	2338.78
976.01	2303.96
976.18	2353.12
976.34	2381.79
976.50	2359.26
976.66	2414.56
976.83	2416.60
976.99	2414.56
977.15	2371.55
977.31	2250.72
977.47	2330.59
977.64	2424.80
977.80	2334.68
977.96	2273.25
978.12	2258.91
978.29	2308.06
978.45	2267.10
978.61	2275.29
978.77	2320.35
978.93	2297.82
979.10	2310.11
979.26	2277.34
979.42	2336.73
979.58	2334.68
979.74	2277.34
979.91	2291.68
980.07	2289.63
980.23	2258.91
980.39	2176.99
980.55	2230.24
980.71	2230.24
980.88	2179.04
981.04	2234.33
981.20	2316.25
981.36	2332.64
981.52	2306.01
981.68	2340.83
981.85	2136.03
982.01	2236.38
982.17	2166.75
982.33	2306.01
982.49	2244.57
982.65	2246.62
982.82	2201.57
982.98	2207.71
983.14	2127.84
983.30	2289.63
983.46	2248.67
983.62	2209.76
983.79	2164.70
983.95	2146.27
984.11	2113.50
984.27	2166.75
984.43	2195.42
984.59	2138.08
984.75	2205.66
984.91	2158.56
985.08	2213.85
985.24	2209.76
985.40	2170.85
985.56	2189.28
985.72	2244.57
985.88	2136.03
986.04	2146.27
986.20	2181.09
986.37	2238.43
986.53	2138.08
986.69	2170.85
986.85	2099.17
987.01	2138.08
987.17	2207.71
987.33	2185.18
987.49	2211.81
987.65	2142.18
987.82	2133.98
987.98	2082.78
988.14	2146.27
988.30	2172.89
988.46	2131.94
988.62	2142.18
988.78	2162.66
988.94	2064.35
989.10	2097.12
989.26	2078.69
989.42	2152.42
989.59	2031.58
989.75	2015.20
989.91	2144.22
990.07	2086.88
990.23	2082.78
990.39	2027.49
990.55	2117.60
990.71	2111.46
990.87	2111.46
991.03	2117.60
991.19	2002.91
991.35	2099.17
991.51	2127.84
991.67	2086.88
991.83	2045.92
992.00	2111.46
992.16	2119.65
992.32	2093.02
992.48	2050.02
992.64	2078.69
992.80	2066.40
992.96	2039.78
993.12	2107.36
993.28	2156.51
993.44	2101.22
993.60	2064.35
993.76	2062.30
993.92	2129.89
994.08	2074.59
994.24	2088.93
994.40	1968.10
994.56	2093.02
994.72	2013.15
994.88	2013.15
995.04	2025.44
995.20	2111.46
995.36	2027.49
995.52	1990.63
995.68	2060.26
995.84	2035.68
996.00	2064.35
996.16	1964.00
996.32	1986.53
996.48	2031.58
996.64	2093.02
996.80	2021.35
996.96	2183.13
997.12	1992.67
997.28	2050.02
997.44	1949.67
997.60	1976.29
997.76	2056.16
997.92	2031.58
998.08	1966.05
998.24	2025.44
998.40	2052.06
998.56	1988.58
998.72	1904.61
998.88	1943.52
999.04	2029.54
999.20	1994.72
999.36	1896.42
999.52	1972.19
999.68	1966.05
999.84	1943.52
1000.00	1986.53
1000.16	2041.82
1000.32	1894.37
1000.48	1998.82
1000.64	1925.09
1000.80	1880.04
1000.95	1910.75
1001.11	1943.52
1001.27	1925.09
1001.43	2019.30
1001.59	1918.95
1001.75	1931.23
1001.91	1904.61
1002.07	1927.14
1002.23	1912.80
1002.39	1892.32
1002.55	1855.46
1002.71	1964.00
1002.87	1869.80
1003.03	1939.43
1003.19	1882.08
1003.34	1929.19
1003.50	1865.70
1003.66	1992.67
1003.82	1910.75
1003.98	1961.95
1004.14	1935.33
1004.30	1910.75
1004.46	1902.56
1004.62	1894.37
1004.78	1912.80
1004.94	1943.52
1005.09	1894.37
1005.25	1873.89
1005.41	1931.23
1005.57	1794.02
1005.73	1923.04
1005.89	1826.79
1006.05	1937.38
1006.21	1841.12
1006.37	1859.56
1006.52	1765.35
1006.68	1845.22
1006.84	1976.29
1007.00	1863.65
1007.16	1880.04
1007.32	1896.42
1007.48	1759.21
1007.64	1871.84
1007.79	1896.42
1007.95	1837.03
1008.11	1851.36
1008.27	1843.17
1008.43	1859.56
1008.59	1937.38
1008.75	1906.66
1008.91	1886.18
1009.06	1832.93
1009.22	1902.56
1009.38	1830.88
1009.54	1900.52
1009.70	1814.50
1009.86	1908.71
1010.01	1884.13
1010.17	1851.36
1010.33	1841.12
1010.49	1777.64
1010.65	1937.38
1010.81	1859.56
1010.96	1761.25
1011.12	1755.11
1011.28	1796.07
1011.44	1822.69
1011.60	1873.89
1011.76	1816.55
1011.91	1861.60
1012.07	1824.74
1012.23	1781.73
1012.39	1753.06
1012.55	1898.47
1012.71	1802.21
1012.86	1861.60
1013.02	1877.99
1013.18	1828.84
1013.34	1857.51
1013.50	1826.79
1013.65	1894.37
1013.81	1781.73
1013.97	1857.51
1014.13	1810.40
1014.29	1894.37
1014.44	1894.37
1014.60	1804.26
1014.76	1775.59
1014.92	1802.21
1015.07	1787.88
1015.23	1767.40
1015.39	1816.55
1015.55	1769.44
1015.71	1753.06
1015.86	1740.77
1016.02	1679.33
1016.18	1761.25
1016.34	1802.21
1016.49	1818.60
1016.65	1826.79
1016.81	1753.06
1016.97	1779.68
1017.12	1828.84
1017.28	1769.44
1017.44	1761.25
1017.60	1851.36
1017.75	1736.68
1017.91	1783.78
1018.07	1773.54
1018.23	1734.63
1018.38	1796.07
1018.54	1828.84
1018.70	1712.10
1018.86	1681.38
1019.01	1796.07
1019.17	1765.35
1019.33	1851.36
1019.49	1687.53
1019.64	1701.86
1019.80	1789.92
1019.96	1748.97
1020.12	1771.49
1020.27	1771.49
1020.43	1744.87
1020.59	1777.64
1020.74	1771.49
1020.90	1761.25
1021.06	1701.86
1021.22	1789.92
1021.37	1689.57
1021.53	1755.11
1021.69	1761.25
1021.84	1720.29
1022.00	1757.16
1022.16	1759.21
1022.31	1736.68
1022.47	1789.92
1022.63	1783.78
1022.79	1710.05
1022.94	1714.15
1023.10	1732.58
1023.26	1746.92
1023.41	1728.49
1023.57	1769.44
1023.73	1742.82
1023.88	1708.01
1024.04	1673.19
1024.20	1740.77
1024.35	1632.23
1024.51	1728.49
1024.67	1720.29
1024.82	1751.01
1024.98	1703.91
1025.14	1779.68
1025.29	1738.73
1025.45	1767.40
1025.61	1685.48
1025.76	1695.72
1025.92	1683.43
1026.08	1744.87
1026.23	1712.10
1026.39	1806.31
1026.55	1675.24
1026.70	1665.00
1026.86	1693.67
1027.02	1669.09
1027.17	1736.68
1027.33	1775.59
1027.48	1718.25
1027.64	1611.75
1027.80	1650.66
1027.95	1716.20
1028.11	1726.44
1028.27	1761.25
1028.42	1693.67
1028.58	1697.77
1028.73	1683.43
1028.89	1640.42
1029.05	1703.91
1029.20	1724.39
>>>>>End Processed Spectral Data<<<<<
