SpectraSuite Data File
++++++++++++++++++++++++++++++++++++
Date: Tue Jun 13 11:53:15 CEST 2017
User: INFO_000
Dark Spectrum Present: No
Reference Spectrum Present: No
Number of Sampled Component Spectra: 1
Spectrometers: USB4H00879
Integration Time (usec): 30000 (USB4H00879)
Spectra Averaged: 1 (USB4H00879)
Boxcar Smoothing: 0 (USB4H00879)
Correct for Electrical Dark: No (USB4H00879)
Strobe/Lamp Enabled: No (USB4H00879)
Correct for Detector Non-linearity: No (USB4H00879)
Correct for Stray Light: No (USB4H00879)
Number of Pixels in Processed Spectrum: 3648
>>>>>Begin Processed Spectral Data<<<<<
345.13	1357.80
345.34	1357.80
345.56	1357.80
345.78	1296.36
345.99	1363.95
346.21	1499.11
346.42	1476.59
346.64	1474.54
346.86	1566.70
347.07	1501.16
347.29	1591.27
347.50	1499.11
347.72	1472.49
347.94	1482.73
348.15	1429.48
348.37	1486.83
348.59	1542.12
348.80	1560.55
349.02	1511.40
349.23	1560.55
349.45	1576.94
349.67	1669.09
349.88	1611.75
350.10	1683.43
350.31	1630.18
350.53	1550.31
350.75	1710.05
350.96	1607.66
351.18	1628.14
351.39	1611.75
351.61	1576.94
351.82	1667.05
352.04	1632.23
352.26	1585.13
352.47	1630.18
352.69	1654.76
352.90	1538.02
353.12	1624.04
353.34	1589.22
353.55	1660.90
353.77	1581.03
353.98	1605.61
354.20	1671.14
354.41	1699.81
354.63	1705.96
354.85	1701.86
355.06	1621.99
355.28	1656.81
355.49	1658.85
355.71	1642.47
355.92	1601.51
356.14	1656.81
356.35	1589.22
356.57	1605.61
356.79	1615.85
357.00	1593.32
357.22	1687.53
357.43	1650.66
357.65	1728.49
357.86	1601.51
358.08	1601.51
358.29	1656.81
358.51	1665.00
358.72	1628.14
358.94	1730.53
359.16	1632.23
359.37	1636.33
359.59	1695.72
359.80	1718.25
360.02	1576.94
360.23	1611.75
360.45	1701.86
360.66	1675.24
360.88	1628.14
361.09	1630.18
361.31	1705.96
361.52	1648.61
361.74	1746.92
361.95	1726.44
362.17	1652.71
362.38	1716.20
362.60	1724.39
362.81	1705.96
363.03	1769.44
363.24	1746.92
363.46	1689.57
363.67	1773.54
363.89	1761.25
364.10	1701.86
364.32	1736.68
364.53	1744.87
364.75	1673.19
364.96	1736.68
365.18	1742.82
365.39	1701.86
365.61	1679.33
365.82	1751.01
366.04	1693.67
366.25	1669.09
366.47	1742.82
366.68	1669.09
366.90	1705.96
367.11	1769.44
367.33	1808.36
367.54	1796.07
367.76	1746.92
367.97	1708.01
368.19	1783.78
368.40	1787.88
368.62	1779.68
368.83	1740.77
369.05	1771.49
369.26	1712.10
369.48	1726.44
369.69	1757.16
369.91	1783.78
370.12	1771.49
370.33	1820.64
370.55	1753.06
370.76	1742.82
370.98	1861.60
371.19	1828.84
371.41	1822.69
371.62	1761.25
371.84	1759.21
372.05	1818.60
372.27	1832.93
372.48	1748.97
372.69	1837.03
372.91	1855.46
373.12	1828.84
373.34	1755.11
373.55	1877.99
373.77	1892.32
373.98	1834.98
374.20	1918.95
374.41	1912.80
374.62	1849.32
374.84	1810.40
375.05	1849.32
375.27	1855.46
375.48	1880.04
375.70	1839.08
375.91	1830.88
376.12	1941.47
376.34	1894.37
376.55	1982.43
376.77	1816.55
376.98	1853.41
377.19	1859.56
377.41	1871.84
377.62	1955.81
377.84	1992.67
378.05	1994.72
378.27	1923.04
378.48	2029.54
378.69	2000.87
378.91	1964.00
379.12	1994.72
379.34	1961.95
379.55	1968.10
379.76	2017.25
379.98	1968.10
380.19	2019.30
380.41	2002.91
380.62	1947.62
380.83	1949.67
381.05	1990.63
381.26	2039.78
381.47	1943.52
381.69	2078.69
381.90	2119.65
382.12	2043.87
382.33	2009.06
382.54	1970.15
382.76	1955.81
382.97	2052.06
383.19	1990.63
383.40	1986.53
383.61	2027.49
383.83	2029.54
384.04	1980.39
384.25	2056.16
384.47	2088.93
384.68	2125.79
384.89	2109.41
385.11	1992.67
385.32	2084.83
385.54	2113.50
385.75	1986.53
385.96	2166.75
386.18	2152.42
386.39	2123.74
386.60	2115.55
386.82	2129.89
387.03	2121.70
387.24	2189.28
387.46	2172.89
387.67	2187.23
387.88	2174.94
388.10	2097.12
388.31	2119.65
388.52	2185.18
388.74	2213.85
388.95	2187.23
389.16	2248.67
389.38	2181.09
389.59	2260.96
389.80	2291.68
390.02	2207.71
390.23	2392.03
390.44	2342.88
390.66	2215.90
390.87	2213.85
391.08	2258.91
391.30	2246.62
391.51	2277.34
391.72	2344.92
391.94	2252.77
392.15	2387.93
392.36	2340.83
392.58	2312.16
392.79	2373.60
393.00	2310.11
393.22	2344.92
393.43	2430.94
393.64	2404.32
393.85	2412.51
394.07	2353.12
394.28	2504.67
394.49	2437.08
394.71	2377.69
394.92	2508.76
395.13	2537.43
395.35	2394.08
395.56	2502.62
395.77	2494.43
395.98	2418.65
396.20	2545.63
396.41	2478.04
396.62	2562.01
396.84	2475.99
397.05	2576.34
397.26	2557.91
397.47	2539.48
397.69	2525.15
397.90	2596.82
398.11	2637.78
398.32	2680.79
398.54	2662.36
398.75	2553.82
398.96	2586.58
399.18	2598.87
399.39	2586.58
399.60	2664.41
399.81	2613.21
400.03	2682.84
400.24	2787.29
400.45	2637.78
400.66	2627.54
400.88	2695.13
401.09	2731.99
401.30	2654.17
401.51	2775.00
401.73	2734.04
401.94	2789.33
402.15	2783.19
402.36	2807.77
402.58	2760.66
402.79	2764.76
403.00	2785.24
403.21	2775.00
403.43	2916.31
403.64	2830.29
403.85	2684.89
404.06	2985.94
404.27	2832.34
404.49	2957.27
404.70	2811.86
404.91	2885.59
405.12	2932.69
405.34	2828.24
405.55	2975.70
405.76	2858.96
405.97	2873.30
406.19	3028.95
406.40	3006.42
406.61	2910.16
406.82	3002.32
407.03	2947.03
407.25	2971.60
407.46	3131.34
407.67	3067.86
407.88	3043.28
408.09	3012.56
408.31	3043.28
408.52	2990.03
408.73	3037.14
408.94	3016.66
409.15	2981.84
409.37	3110.86
409.58	3162.06
409.79	3145.68
410.00	3207.12
410.21	3110.86
410.43	3096.53
410.64	3225.55
410.85	3145.68
411.06	3243.98
411.27	3151.82
411.48	3272.65
411.70	3198.93
411.91	3102.67
412.12	3217.36
412.33	3266.51
412.54	3268.56
412.76	3274.70
412.97	3268.56
413.18	3039.19
413.39	3297.23
413.60	3299.28
413.81	3252.17
414.03	3172.30
414.24	3262.41
414.45	3399.63
414.66	3280.85
414.87	3420.11
415.08	3311.57
415.30	3413.96
415.51	3438.54
415.72	3442.64
415.93	3411.92
416.14	3459.02
416.35	3379.15
416.56	3413.96
416.78	3389.39
416.99	3475.40
417.20	3452.88
417.41	3454.92
417.62	3508.17
417.83	3436.49
418.04	3518.41
418.26	3481.55
418.47	3432.40
418.68	3575.75
418.89	3631.05
419.10	3665.86
419.31	3698.63
419.52	3631.05
419.73	3704.78
419.95	3758.02
420.16	3551.18
420.37	3712.97
420.58	3674.06
420.79	3551.18
421.00	3770.31
421.21	3690.44
421.42	3702.73
421.63	3710.92
421.85	3682.25
422.06	3762.12
422.27	3905.48
422.48	3891.14
422.69	3678.15
422.90	3895.24
423.11	3837.89
423.32	3956.68
423.53	4001.73
423.75	3993.54
423.96	4079.55
424.17	3807.17
424.38	3993.54
424.59	3999.68
424.80	4198.34
425.01	4118.47
425.22	4102.08
425.43	4067.27
425.64	4239.30
425.85	4095.94
426.06	4097.99
426.28	4132.80
426.49	4050.88
426.70	4140.99
426.91	4319.17
427.12	4110.27
427.33	4157.38
427.54	4212.67
427.75	4333.50
427.96	4351.93
428.17	4313.02
428.38	4425.66
428.59	4366.27
428.80	4411.32
429.01	4448.19
429.23	4538.30
429.44	4589.50
429.65	4552.63
429.86	4472.76
430.07	4257.73
430.28	4499.39
430.49	4503.48
430.70	4693.94
430.91	4579.26
431.12	4677.56
431.33	4741.05
431.54	4609.98
431.75	4835.25
431.96	4593.59
432.17	4575.16
432.38	4646.84
432.59	4814.77
432.80	4747.19
433.01	4763.58
433.22	4968.37
433.43	4908.98
433.64	4808.63
433.85	4818.87
434.06	4943.80
434.27	4882.36
434.49	4966.32
434.70	5138.35
434.91	4974.52
435.12	4980.66
435.33	5033.91
435.54	5046.20
435.75	4822.97
435.96	4951.99
436.17	4913.08
436.38	5156.79
436.59	5156.79
436.80	5158.83
437.01	5179.31
437.22	5332.91
437.43	5185.46
437.64	5042.10
437.85	5181.36
438.06	5181.36
438.27	5085.11
438.48	5349.29
438.69	5310.38
438.90	5287.86
439.11	5197.74
439.32	5345.20
439.53	5429.17
439.74	5509.04
439.95	5525.42
440.16	5435.31
440.37	5367.73
440.57	5390.25
440.78	5476.27
440.99	5396.40
441.20	5410.73
441.41	5474.22
441.62	5726.12
441.83	5306.29
442.04	5676.97
442.25	5597.10
442.46	5490.60
442.67	5699.50
442.88	5951.40
443.09	5664.68
443.30	5580.71
443.51	5572.52
443.72	5943.21
443.93	5742.50
444.14	5808.04
444.35	5783.46
444.56	5916.58
444.77	5951.40
444.98	5840.81
445.19	5963.68
445.40	5955.49
445.61	5883.81
445.81	5986.21
446.02	6016.93
446.23	5943.21
446.44	5773.22
446.65	6096.80
446.86	5906.34
447.07	5978.02
447.28	6145.95
447.49	6201.25
447.70	6180.77
447.91	6193.06
448.12	6166.43
448.33	6260.64
448.54	6301.60
448.74	6260.64
448.95	6242.21
449.16	6084.52
449.37	6326.18
449.58	6238.11
449.79	6383.52
450.00	6266.78
450.21	6461.34
450.42	6600.60
450.63	6451.10
450.84	6455.20
451.05	6494.11
451.25	6549.40
451.46	6313.89
451.67	6610.84
451.88	6565.79
452.09	6592.41
452.30	6543.26
452.51	6553.50
452.72	6582.17
452.93	6877.08
453.13	6637.47
453.34	6698.91
453.55	6723.48
453.76	6891.41
453.97	7253.91
454.18	6983.57
454.39	6977.43
454.60	6979.48
454.81	6973.33
455.01	7159.70
455.22	6805.40
455.43	6928.28
455.64	7194.51
455.85	7245.71
456.06	7395.22
456.27	7104.40
456.48	7133.08
456.68	7317.39
456.89	7196.56
457.10	7237.52
457.31	7456.65
457.52	7389.07
457.73	7413.65
457.94	7610.25
458.14	7585.68
458.35	7722.89
458.56	7548.81
458.77	7657.36
458.98	7626.64
459.19	7600.01
459.39	7759.75
459.60	7880.58
459.81	7737.23
460.02	8005.51
460.23	7989.13
460.44	8222.59
460.65	8175.49
460.85	8103.81
461.06	8146.82
461.27	7868.30
461.48	8171.40
461.69	8583.04
461.89	8025.99
462.10	8185.73
462.31	8206.21
462.52	8423.30
462.73	8320.90
462.94	8517.50
463.14	8458.11
463.35	8247.17
463.56	9023.35
463.77	8722.30
463.98	8556.41
464.18	8718.20
464.39	8697.72
464.60	8796.03
464.81	8806.27
465.02	8664.96
465.23	9043.83
465.43	8875.90
465.64	9115.51
465.85	9135.99
466.06	9027.45
466.27	9213.81
466.47	9271.15
466.68	9277.30
466.89	9414.51
467.10	9555.82
467.30	9348.98
467.51	9574.25
467.72	9684.84
467.93	9410.42
468.14	9566.06
468.34	9705.32
468.55	9574.25
468.76	9709.42
468.97	9883.50
469.17	9879.40
469.38	9949.03
469.59	10090.34
469.80	9686.89
470.01	9949.03
470.21	9977.70
470.42	10350.43
470.63	10391.39
470.84	10223.46
471.04	10479.46
471.25	10289.00
471.46	10368.87
471.67	10860.38
471.87	10606.43
472.08	10755.93
472.29	10973.02
472.50	10616.67
472.70	10694.49
472.91	10702.68
473.12	11335.51
473.33	11214.68
473.53	11163.48
473.74	11038.55
473.95	11458.39
474.16	11421.52
474.36	11345.75
474.57	11485.01
474.78	11650.89
474.99	11562.83
475.19	11681.61
475.40	11953.99
475.61	12060.49
475.81	11913.03
476.02	12089.16
476.23	11865.93
476.44	12275.52
476.64	12404.55
476.85	12371.78
477.06	12357.44
477.27	12697.41
477.47	12633.92
477.68	12681.02
477.89	12732.22
478.09	12810.04
478.30	12775.23
478.51	12910.40
478.71	13152.06
478.92	13217.59
479.13	13188.92
479.34	13340.47
479.54	13254.45
479.75	13518.64
479.96	13586.22
480.16	13586.22
480.37	13608.75
480.58	13772.59
480.78	13862.70
480.99	13967.15
481.20	14053.16
481.41	14135.08
481.61	14208.81
481.82	14294.82
482.03	14196.52
482.23	14313.25
482.44	14700.32
482.65	14587.68
482.85	14761.76
483.06	14835.49
483.27	14950.17
483.47	15042.33
483.68	14987.04
483.89	15306.52
484.09	15087.39
484.30	15159.06
484.51	15490.84
484.71	15351.57
484.92	15535.89
485.13	15580.95
485.33	15652.63
485.54	15654.67
485.75	15863.57
485.95	16021.26
486.16	16295.69
486.37	16140.04
486.57	16119.56
486.78	16144.14
486.98	16080.65
487.19	16494.34
487.40	16367.37
487.60	16437.00
487.81	16725.76
488.02	16750.34
488.22	16848.64
488.43	16645.89
488.64	16738.05
488.84	17028.86
489.05	17035.00
489.25	16750.34
489.46	17405.69
489.67	17282.81
489.87	17286.90
490.08	17358.58
490.29	17440.50
490.49	17661.68
490.70	17706.74
490.90	17899.25
491.11	17772.27
491.32	17940.21
491.52	17977.07
491.73	17975.02
491.94	18063.08
492.14	18018.03
492.35	18423.53
492.55	18302.70
492.76	18403.05
492.97	18704.10
493.17	18675.43
493.38	18648.80
493.58	18796.26
493.79	18437.86
494.00	18783.97
494.20	19123.93
494.41	19197.66
494.61	19267.29
494.82	18951.90
495.02	19099.36
495.23	19211.99
495.44	19203.80
495.64	19420.89
495.85	19437.27
496.05	19820.24
496.26	19459.80
496.47	19777.23
496.67	19744.47
496.88	19982.03
497.08	19922.64
497.29	20295.37
497.49	19928.78
497.70	20170.44
497.91	20225.74
498.11	20330.19
498.32	20502.22
498.52	20616.90
498.73	20518.60
498.93	20545.22
499.14	20874.95
499.34	20416.20
499.55	20842.18
499.76	20754.12
499.96	20942.53
500.17	21126.85
500.37	21122.75
500.58	21065.41
500.78	21010.11
500.99	21028.54
501.19	21333.69
501.40	20965.06
501.60	21354.17
501.81	21335.74
502.02	21614.26
502.22	21395.13
502.43	21694.13
502.63	21757.62
502.84	21546.68
503.04	21720.76
503.25	21599.93
503.45	21771.96
503.66	21827.25
503.86	21642.93
504.07	22171.31
504.27	21767.86
504.48	22120.11
504.68	22101.68
504.89	22308.52
505.09	22314.67
505.30	22173.36
505.50	22281.90
505.71	22331.05
505.91	22259.37
506.12	22431.40
506.32	22218.41
506.53	22668.97
506.73	22863.52
506.94	22927.01
507.14	22564.52
507.35	22636.20
507.55	22939.30
507.76	22781.60
507.96	22976.16
508.17	23066.27
508.37	22976.16
508.58	22984.35
508.78	23287.45
508.99	23010.98
509.19	23019.17
509.40	23299.74
509.60	23201.44
509.81	23187.10
510.01	23301.79
510.22	23434.91
510.42	23537.30
510.63	23664.28
510.83	23627.42
511.04	23465.63
511.24	23666.33
511.44	23447.19
511.65	23600.79
511.85	23813.78
512.06	23883.41
512.26	23617.18
512.47	24114.83
512.67	23920.28
512.88	23891.60
513.08	24045.20
513.29	24301.20
513.49	24241.81
513.69	23852.69
513.90	24174.22
514.10	23991.95
514.31	24243.85
514.51	23969.43
514.72	24319.63
514.92	24125.07
515.13	24422.03
515.33	24211.09
515.53	24219.28
515.74	24395.40
515.94	24505.99
516.15	24725.13
516.35	24438.41
516.56	24764.04
516.76	24301.20
516.96	25036.42
517.17	24862.34
517.37	24731.27
517.58	24776.33
517.78	24802.95
517.99	24786.57
518.19	25157.25
518.39	25007.75
518.60	25155.20
518.80	25132.67
519.01	25120.38
519.21	25175.68
519.41	25345.66
519.62	25489.02
519.82	25220.74
520.03	25443.96
520.23	25536.12
520.43	25306.75
520.64	25720.44
520.84	25704.06
521.05	25673.34
521.25	25593.47
521.45	25763.45
521.66	26009.20
521.86	25882.23
522.07	26046.07
522.27	26068.59
522.47	26162.80
522.68	26041.97
522.88	26238.58
523.08	26205.81
523.29	26132.08
523.49	26535.53
523.70	26211.95
523.90	26570.35
524.10	26725.99
524.31	26519.15
524.51	26439.28
524.71	26846.82
524.92	27047.52
525.12	26678.89
525.33	26771.05
525.53	26816.10
525.73	27020.90
525.94	27059.81
526.14	27143.78
526.34	27121.25
526.55	26934.88
526.75	27053.67
526.95	27178.59
527.16	26885.73
527.36	27407.97
527.56	27485.79
527.77	27532.89
527.97	27434.59
528.17	27545.18
528.38	27766.36
528.58	27780.70
528.78	27815.51
528.99	27747.93
529.19	27999.83
529.39	27766.36
529.60	27784.79
529.80	27844.18
530.00	27991.64
530.21	27958.87
530.41	28075.60
530.61	28315.22
530.82	28098.13
531.02	28165.71
531.22	28614.22
531.43	28431.95
531.63	28474.96
531.83	28986.95
532.04	28728.91
532.24	28616.27
532.44	28995.14
532.64	29120.07
532.85	29191.75
533.05	29249.09
533.25	29152.84
533.46	29027.91
533.66	29679.16
533.86	29163.08
534.07	29568.57
534.27	29304.38
534.47	29603.39
534.67	29548.09
534.88	29288.00
535.08	29611.58
535.28	29967.93
535.49	29724.22
535.69	29679.16
535.89	30037.56
536.09	30092.85
536.30	29894.20
536.50	30182.96
536.70	30197.30
536.91	30426.67
537.11	30342.70
537.31	30555.69
537.51	30266.93
537.72	30547.50
537.92	30586.41
538.12	31073.83
538.32	30762.54
538.53	31043.11
538.73	30877.22
538.93	31243.81
539.13	30426.67
539.34	31043.11
539.54	31135.27
539.74	31204.90
539.94	31241.76
540.15	30842.41
540.35	31045.16
540.55	31307.30
540.75	31170.08
540.96	31305.25
541.16	31192.61
541.36	31544.86
541.56	31440.42
541.77	31686.17
541.97	31716.89
542.17	32122.39
542.37	31665.69
542.58	31464.99
542.78	31770.14
542.98	31727.13
543.18	31514.14
543.38	31974.94
543.59	31952.41
543.79	31903.26
543.99	31723.04
544.19	31809.05
544.40	31911.45
544.60	32206.36
544.80	32394.77
545.00	32230.93
545.20	32212.50
545.41	32568.85
545.61	32216.60
545.81	31942.17
546.01	32269.84
546.21	32419.35
546.42	32222.74
546.62	32208.40
546.82	32624.14
547.02	32597.52
547.22	32654.86
547.43	32943.63
547.63	32912.91
547.83	32566.80
548.03	32529.94
548.23	33037.83
548.44	32753.16
548.64	32890.38
548.84	33048.07
549.04	32720.40
549.24	32906.76
549.45	33101.32
549.65	32898.57
549.85	32742.92
550.05	33099.27
550.25	32720.40
550.45	33390.08
550.66	33179.14
550.86	32939.53
551.06	33113.61
551.26	33244.68
551.46	33510.91
551.66	33426.95
551.87	33244.68
552.07	33543.68
552.27	33560.06
552.47	33230.34
552.67	33322.50
552.87	33328.64
553.07	33687.04
553.28	33484.29
553.48	33349.12
553.68	33555.97
553.88	33627.65
554.08	33510.91
554.28	33764.86
554.48	33281.54
554.69	33887.74
554.89	33461.76
555.09	34065.91
555.29	33637.89
555.49	33404.42
555.69	33766.91
555.89	33365.51
556.10	34121.21
556.30	33824.25
556.50	33615.36
556.70	33959.42
556.90	33943.03
557.10	34201.08
557.30	33424.90
557.50	33932.79
557.70	34022.90
557.91	34024.95
558.11	33854.97
558.31	34162.17
558.51	33957.37
558.71	33887.74
558.91	34194.93
559.11	33936.89
559.31	33574.40
559.51	33971.71
559.72	34096.63
559.92	34113.02
560.12	33818.11
560.32	33981.95
560.52	33684.99
560.72	34467.31
560.92	33994.23
561.12	33904.12
561.32	34444.79
561.52	34043.38
561.72	34162.17
561.93	34027.00
562.13	33756.67
562.33	33885.69
562.53	34811.37
562.73	33850.88
562.93	34104.82
563.13	34295.28
563.33	34070.01
563.53	34166.26
563.73	34113.02
563.93	34223.61
564.13	34561.52
564.33	34715.12
564.53	34174.45
564.74	34328.05
564.94	34113.02
565.14	34244.09
565.34	33873.40
565.54	34469.36
565.74	34510.32
565.94	34758.13
566.14	34641.39
566.34	34405.88
566.54	34770.41
566.74	33938.94
566.94	34340.34
567.14	34694.64
567.34	34227.70
567.54	34643.44
567.74	34321.91
567.94	34487.79
568.14	34719.21
568.34	34434.55
568.54	34592.24
568.74	34442.74
568.94	34768.37
569.14	34819.56
569.34	34719.21
569.54	34788.85
569.75	34383.35
569.95	34297.33
570.15	35114.47
570.35	34616.82
570.55	34301.43
570.75	34522.61
570.95	34756.08
571.15	34903.53
571.35	34452.98
571.55	34901.48
571.75	34670.06
571.95	34625.01
572.15	35065.32
572.35	34385.40
572.55	34917.87
572.75	35194.34
572.95	35028.46
573.15	35194.34
573.35	34924.01
573.55	34909.68
573.75	35102.18
573.95	34905.58
574.15	35130.86
574.35	35298.79
574.55	35223.01
574.75	34754.03
574.95	34932.20
575.15	34794.99
575.34	34844.14
575.54	35120.62
575.74	35110.38
575.94	34878.96
576.14	34840.04
576.34	35012.07
576.54	35153.38
576.74	35288.55
576.94	35331.56
577.14	35229.16
577.34	35548.64
577.54	34973.16
577.74	35405.28
577.94	35485.15
578.14	35325.41
578.34	35687.90
578.54	34991.59
578.74	35276.26
578.94	35386.85
579.14	35110.38
579.34	35202.53
579.54	35057.13
579.74	35538.40
579.94	35780.06
580.13	35692.00
580.33	35724.77
580.53	35481.06
580.73	35595.74
580.93	35446.24
581.13	35565.03
581.33	35579.36
581.53	35735.01
581.73	35851.74
581.93	36267.48
582.13	35892.70
582.33	35890.65
582.53	35401.19
582.73	36099.55
582.92	35751.39
583.12	35632.61
583.32	35909.08
583.52	35724.77
583.72	35986.91
583.92	35741.15
584.12	36013.53
584.32	35915.23
584.52	35984.86
584.72	35814.88
584.92	35933.66
585.11	35935.71
585.31	36025.82
585.51	36023.77
585.71	35999.19
585.91	36283.86
586.11	36287.96
586.31	35876.32
586.51	35812.83
586.71	36085.21
586.91	36376.02
587.10	36349.40
587.30	36220.38
587.50	36064.73
587.70	36208.09
587.90	36320.73
588.10	36713.94
588.30	36292.05
588.50	36390.36
588.69	36505.04
588.89	36427.22
589.09	36572.63
589.29	36552.15
589.49	36718.03
589.69	36482.52
589.89	36675.02
590.08	36449.75
590.28	36447.70
590.48	36341.21
590.68	36425.17
590.88	36603.35
591.08	36425.17
591.28	36206.04
591.47	36722.13
591.67	36722.13
591.87	36343.25
592.07	36390.36
592.27	36818.38
592.47	36572.63
592.67	36877.77
592.86	36515.28
593.06	37041.61
593.26	36894.16
593.46	36838.86
593.66	36447.70
593.86	37203.40
594.05	36515.28
594.25	37012.94
594.45	36367.83
594.65	36593.11
594.85	36586.96
595.05	36691.41
595.24	37025.23
595.44	36707.79
595.64	36660.69
595.84	36531.67
596.04	36597.20
596.23	36785.61
596.43	36738.51
596.63	36554.19
596.83	36652.50
597.03	36980.17
597.22	37404.10
597.42	36691.41
597.62	37336.52
597.82	37105.10
598.02	37260.74
598.21	37076.43
598.41	36892.11
598.61	36869.58
598.81	37211.59
599.01	37293.51
599.20	37184.97
599.40	37078.47
599.60	37621.19
599.80	37193.16
600.00	37393.86
600.19	37404.10
600.39	37496.26
600.59	37526.98
600.79	37531.08
600.98	37469.64
601.18	37529.03
601.38	37467.59
601.58	37635.52
601.78	37340.61
601.97	37326.28
602.17	37430.72
602.37	37711.30
602.57	37725.63
602.76	37799.36
602.96	37524.93
603.16	37752.26
603.36	37569.99
603.55	37567.94
603.75	37348.81
603.95	37813.70
604.15	37780.93
604.34	37612.99
604.54	37500.36
604.74	37584.32
604.94	37518.79
605.13	37948.86
605.33	37649.86
605.53	37805.50
605.73	37533.12
605.92	37688.77
606.12	38020.54
606.32	37703.10
606.52	37725.63
606.71	37832.13
606.91	38217.14
607.11	37825.98
607.30	37645.76
607.50	38065.60
607.70	37893.57
607.90	37961.15
608.09	38067.64
608.29	37936.57
608.49	38475.19
608.68	37832.13
608.88	37617.09
609.08	38305.21
609.28	37821.89
609.47	37907.90
609.67	38120.89
609.87	38045.12
610.06	38221.24
610.26	37639.62
610.46	38553.01
610.66	38036.92
610.85	38112.70
611.05	38045.12
611.25	37907.90
611.44	38135.23
611.64	37932.48
611.84	37735.87
612.03	37760.45
612.23	37760.45
612.43	38045.12
612.62	37656.00
612.82	37840.32
613.02	37963.20
613.21	37971.39
613.41	37946.81
613.61	37932.48
613.80	37737.92
614.00	37950.91
614.20	37909.95
614.39	37852.61
614.59	37805.50
614.79	37924.29
614.98	37729.73
615.18	37696.96
615.38	37631.43
615.57	37729.73
615.77	37809.60
615.97	37619.14
616.16	37565.89
616.36	37594.56
616.56	38383.03
616.75	38151.61
616.95	37797.31
617.15	37668.29
617.34	37670.34
617.54	37324.23
617.74	37926.33
617.93	37920.19
618.13	37621.19
618.32	37791.17
618.52	37410.25
618.72	37791.17
618.91	37848.51
619.11	37285.32
619.31	37397.96
619.50	37383.62
619.70	37234.12
619.90	37352.90
620.09	37801.41
620.29	37477.83
620.48	37311.94
620.68	37486.02
620.88	37279.18
621.07	37426.63
621.27	37158.34
621.46	37217.74
621.66	37254.60
621.86	37105.10
622.05	36953.55
622.25	37512.64
622.44	36910.54
622.64	36711.89
622.84	37324.23
623.03	37033.42
623.23	37057.99
623.42	37211.59
623.62	37293.51
623.82	37410.25
624.01	37133.77
624.21	37322.18
624.40	36931.02
624.60	36806.09
624.80	36859.34
624.99	37172.68
625.19	36750.80
625.38	37146.06
625.58	37105.10
625.77	37254.60
625.97	37029.32
626.17	36443.60
626.36	36709.84
626.56	36802.00
626.75	36181.46
626.95	36847.05
627.14	36814.29
627.34	37039.56
627.54	36976.08
627.73	36894.16
627.93	36668.88
628.12	36486.61
628.32	36955.60
628.51	36752.85
628.71	36693.46
628.90	36832.72
629.10	36705.74
629.30	36865.49
629.49	36459.99
629.69	36335.06
629.88	36668.88
630.08	36896.20
630.27	36918.73
630.47	36961.74
630.66	36226.52
630.86	36591.06
631.05	36703.70
631.25	36795.85
631.44	36492.76
631.64	36152.79
631.84	36500.95
632.03	36705.74
632.23	36689.36
632.42	36605.39
632.62	36795.85
632.81	36466.13
633.01	36414.93
633.20	36851.15
633.40	36521.43
633.59	36529.62
633.79	36470.23
633.98	36353.49
634.18	36275.67
634.37	36333.01
634.57	36666.83
634.76	36672.98
634.96	36703.70
635.15	36388.31
635.35	36017.63
635.54	35982.81
635.74	36466.13
635.93	36158.94
636.13	36322.77
636.32	36322.77
636.52	36251.09
636.71	36287.96
636.91	36371.92
637.10	36144.60
637.30	36267.48
637.49	36337.11
637.69	35761.63
637.88	36292.05
638.08	35907.04
638.27	36255.19
638.46	35864.03
638.66	35599.84
638.85	36120.02
639.05	36312.53
639.24	36185.56
639.44	36148.70
639.63	36023.77
639.83	36163.03
640.02	36218.33
640.22	35988.95
640.41	36050.39
640.61	35925.47
640.80	36089.31
640.99	35978.72
641.19	36490.71
641.38	36167.13
641.58	36546.00
641.77	35927.52
641.97	35976.67
642.16	36126.17
642.36	36089.31
642.55	36111.83
642.74	35894.75
642.94	36390.36
643.13	35802.59
643.33	36281.81
643.52	36253.14
643.72	35960.28
643.91	35878.36
644.10	36335.06
644.30	36140.50
644.49	35841.50
644.69	36154.84
644.88	35997.15
645.08	35831.26
645.27	35702.24
645.46	35685.86
645.66	36298.20
645.85	35823.07
646.05	36120.02
646.24	35988.95
646.43	35991.00
646.63	35904.99
646.82	35935.71
647.02	36058.59
647.21	36042.20
647.40	35616.22
647.60	35870.17
647.79	36070.87
647.99	36087.26
648.18	35708.38
648.37	35849.69
648.57	36103.64
648.76	35751.39
648.96	36042.20
649.15	35931.61
649.34	35741.15
649.54	35878.36
649.73	35796.45
649.92	35894.75
650.12	35698.14
650.31	35546.59
650.51	35714.53
650.70	35943.90
650.89	36111.83
651.09	36206.04
651.28	35927.52
651.47	36007.39
651.67	35812.83
651.86	36036.06
652.06	35530.21
652.25	35972.57
652.44	35526.11
652.64	35718.62
652.83	35554.79
653.02	35614.18
653.22	35663.33
653.41	35689.95
653.60	35583.46
653.80	35745.25
653.99	35849.69
654.18	35671.52
654.38	35769.82
654.57	35659.23
654.76	35974.62
654.96	35423.72
655.15	35790.30
655.34	35532.26
655.54	35184.10
655.73	35376.61
655.92	35202.53
656.12	35390.95
656.31	35585.50
656.50	35614.18
656.70	35382.76
656.89	35050.99
657.08	35444.20
657.28	35360.23
657.47	35237.35
657.66	35528.16
657.86	35249.64
658.05	35268.07
658.24	35534.31
658.43	35558.88
658.63	35259.88
658.82	35335.65
659.01	35618.27
659.21	35452.39
659.40	35440.10
659.59	34842.09
659.79	35431.91
659.98	35458.53
660.17	35466.72
660.36	35087.85
660.56	35692.00
660.75	35206.63
660.94	35378.66
661.14	35253.73
661.33	35030.51
661.52	35007.98
661.71	35573.22
661.91	35034.60
662.10	34997.74
662.29	35374.56
662.49	35112.42
662.68	35235.30
662.87	35395.04
663.06	35425.76
663.26	34936.30
663.45	35661.28
663.64	34964.97
663.83	35395.04
664.03	35419.62
664.22	35266.02
664.41	35460.58
664.60	35059.18
664.80	34967.02
664.99	35032.55
665.18	35216.87
665.37	35290.60
665.57	35235.30
665.76	35120.62
665.95	34844.14
666.14	34938.35
666.34	34930.16
666.53	34637.30
666.72	34743.79
666.91	34377.20
667.11	34706.93
667.30	34924.01
667.49	34551.28
667.68	34801.13
667.87	34737.65
668.07	34825.71
668.26	34823.66
668.45	34872.81
668.64	34285.04
668.84	34887.15
669.03	34805.23
669.22	34711.02
669.41	34559.47
669.60	34272.76
669.80	34381.30
669.99	34733.55
670.18	34448.88
670.37	34168.31
670.57	34508.27
670.76	34577.90
670.95	34778.61
671.14	34422.26
671.33	34307.57
671.53	34799.08
671.72	34538.99
671.91	34428.40
672.10	34283.00
672.29	34113.02
672.48	34213.37
672.68	34764.27
672.87	34233.85
673.06	34014.71
673.25	34428.40
673.44	34301.43
673.64	34145.78
673.83	34110.97
674.02	34063.86
674.21	33844.73
674.40	33994.23
674.59	33824.25
674.79	33531.39
674.98	34092.54
675.17	34321.91
675.36	33541.63
675.55	34457.07
675.74	33859.07
675.94	33895.93
676.13	33977.85
676.32	33732.09
676.51	34094.58
676.70	33861.12
676.89	33875.45
677.08	34278.90
677.28	33527.30
677.47	34108.92
677.66	33863.16
677.85	34088.44
678.04	33631.74
678.23	33865.21
678.42	33842.68
678.62	33721.85
678.81	33861.12
679.00	33459.71
679.19	34045.43
679.38	33682.94
679.57	33523.20
679.76	33598.98
679.96	33734.14
680.15	33576.45
680.34	33697.28
680.53	33519.10
680.72	33680.89
680.91	33566.21
681.10	33383.94
681.29	33451.52
681.48	33082.89
681.68	33340.93
681.87	33306.12
682.06	33623.55
682.25	33168.90
682.44	33228.29
682.63	33242.63
682.82	33328.64
683.01	32914.95
683.20	33091.08
683.39	33158.66
683.59	32802.32
683.78	32968.20
683.97	32585.23
684.16	32814.60
684.35	32839.18
684.54	33158.66
684.73	32839.18
684.92	32695.82
685.11	32933.39
685.30	32771.60
685.49	33037.83
685.69	32574.99
685.88	33054.22
686.07	32859.66
686.26	32931.34
686.45	32585.23
686.64	32478.74
686.83	32620.05
687.02	32794.12
687.21	32814.60
687.40	32622.09
687.59	32318.99
687.78	32824.84
687.97	32779.79
688.16	32607.76
688.35	32618.00
688.54	32331.28
688.74	32372.24
688.93	32556.56
689.12	32200.21
689.31	32368.15
689.50	32374.29
689.69	32120.34
689.88	31839.77
690.07	32243.22
690.26	32419.35
690.45	32171.54
690.64	32130.58
690.83	32144.92
691.02	31884.83
691.21	31671.84
691.40	31972.89
691.59	31716.89
691.78	31923.74
691.97	31981.08
692.16	31907.35
692.35	31845.91
692.54	31751.71
692.73	32071.19
692.92	32052.76
693.11	31804.95
693.30	31704.60
693.49	31776.28
693.68	31622.69
693.87	31331.87
694.06	31434.27
694.25	31229.48
694.44	31462.94
694.63	31471.14
694.82	31888.92
695.01	31378.98
695.20	31407.65
695.39	31340.07
695.58	31493.66
695.77	31184.42
695.96	31198.76
696.15	31581.73
696.34	31139.36
696.53	31163.94
696.72	31270.43
696.91	31174.18
697.10	31114.79
697.29	31327.78
697.48	31309.35
697.67	31051.30
697.86	30613.04
698.05	30897.70
698.24	31024.68
698.43	30752.30
698.62	30866.98
698.81	30674.48
699.00	30881.32
699.19	30553.65
699.38	30934.57
699.57	30420.53
699.76	30703.15
699.95	30682.67
700.14	30770.73
700.32	30438.96
700.51	30826.03
700.70	30658.09
700.89	30899.75
701.08	30393.90
701.27	30535.21
701.46	30895.66
701.65	30543.41
701.84	30578.22
702.03	30535.21
702.22	30520.88
702.41	30334.51
702.60	30348.85
702.79	30494.25
702.98	30062.13
703.17	30053.94
703.35	30031.41
703.54	30625.32
703.73	30148.15
703.92	30156.34
704.11	30049.85
704.30	30074.42
704.49	30049.85
704.68	29865.53
704.87	30180.92
705.06	29877.82
705.25	29822.52
705.43	29572.67
705.62	29972.02
705.81	29687.36
706.00	29683.26
706.19	29326.91
706.38	29797.95
706.57	29558.33
706.76	29580.86
706.95	29568.57
707.14	29507.13
707.32	29247.04
707.51	29228.61
707.70	29701.69
707.89	29539.90
708.08	29232.71
708.27	29253.19
708.46	29677.12
708.65	29322.82
708.84	29531.71
709.02	29322.82
709.21	29072.96
709.40	29113.92
709.59	29105.73
709.78	28743.24
709.97	29216.32
710.16	29077.06
710.34	29238.85
710.53	29206.08
710.72	28626.51
710.91	29189.70
711.10	29167.17
711.29	28960.33
711.48	28888.65
711.66	28655.18
711.85	29056.58
712.04	28493.39
712.23	28806.73
712.42	28782.15
712.61	28540.49
712.80	28665.42
712.98	28749.39
713.17	28481.10
713.36	28456.53
713.55	28458.57
713.74	28495.44
713.93	28507.72
714.11	28374.61
714.30	28591.69
714.49	27928.15
714.68	28255.82
714.87	28270.16
715.06	28503.63
715.24	28261.97
715.43	28055.12
715.62	28038.74
715.81	28221.01
716.00	28341.84
716.18	28173.91
716.37	28003.92
716.56	27844.18
716.75	28038.74
716.94	27956.82
717.12	27588.19
717.31	27858.52
717.50	27977.30
717.69	27854.42
717.88	27696.73
718.06	27545.18
718.25	28059.22
718.44	27739.74
718.63	27879.00
718.82	27608.67
719.00	27412.06
719.19	27504.22
719.38	27420.25
719.57	27182.69
719.76	27047.52
719.94	27199.07
720.13	27149.92
720.32	27301.47
720.51	26984.04
720.69	27186.79
720.88	27133.54
721.07	27094.63
721.26	26609.26
721.44	27156.07
721.63	26793.58
721.82	27119.20
722.01	26883.69
722.20	26642.03
722.38	26846.82
722.57	26599.02
722.76	26637.93
722.95	26451.56
723.13	26261.10
723.32	26453.61
723.51	26062.45
723.70	26289.77
723.88	26435.18
724.07	26347.12
724.26	26615.40
724.44	26173.04
724.63	26513.00
724.82	25992.82
725.01	26031.73
725.19	26588.78
725.38	26287.73
725.57	26111.60
725.76	26019.44
725.94	26105.46
726.13	25788.02
726.32	26001.01
726.51	25702.01
726.69	26226.29
726.88	25972.34
727.07	26359.41
727.25	25816.69
727.44	25955.96
727.63	25871.99
727.82	25992.82
728.00	25794.17
728.19	25411.20
728.38	25798.26
728.56	25753.21
728.75	25976.44
728.94	25480.83
729.12	25892.47
729.31	25599.61
729.50	25656.95
729.69	25878.13
729.87	25519.74
730.06	25589.37
730.25	25419.39
730.43	25570.94
730.62	25472.64
730.81	25618.04
730.99	25620.09
731.18	25540.22
731.37	25441.92
731.55	25251.45
731.74	25478.78
731.93	25566.84
732.11	25271.93
732.30	25026.18
732.49	25032.32
732.67	25316.99
732.86	25204.35
733.05	25337.47
733.23	24938.12
733.42	25194.11
733.61	25177.73
733.79	25067.14
733.98	25140.86
734.17	24778.37
734.35	24893.06
734.54	25167.49
734.73	25063.04
734.91	24909.44
735.10	24854.15
735.29	25056.90
735.47	24692.36
735.66	24772.23
735.84	24911.49
736.03	24684.17
736.22	25138.82
736.40	24823.43
736.59	24870.53
736.78	24583.82
736.96	24551.05
737.15	24596.10
737.33	24641.16
737.52	24561.29
737.71	24606.34
737.89	24295.05
738.08	24352.40
738.27	24258.19
738.45	24878.72
738.64	24815.24
738.82	24481.42
739.01	24422.03
739.20	24256.14
739.38	24204.94
739.57	24645.26
739.75	24417.93
739.94	24237.71
740.13	24454.79
740.31	24282.77
740.50	24604.30
740.68	24462.99
740.87	24276.62
741.06	24262.29
741.24	23946.90
741.43	24260.24
741.61	24405.64
741.80	23987.86
741.99	24211.09
742.17	24215.18
742.36	24120.98
742.54	23924.37
742.73	24088.21
742.91	23905.94
743.10	24045.20
743.29	23711.38
743.47	24000.15
743.66	23914.13
743.84	23924.37
744.03	23955.09
744.21	23959.19
744.40	24362.64
744.59	23692.95
744.77	23518.87
744.96	23783.06
745.14	23594.65
745.33	23975.57
745.51	23864.98
745.70	23756.44
745.88	23678.61
746.07	23842.45
746.26	23477.91
746.44	23660.18
746.63	23658.14
746.81	23676.57
747.00	23283.36
747.18	23479.96
747.37	23406.23
747.55	23357.08
747.74	23676.57
747.92	23449.24
748.11	23301.79
748.29	23510.68
748.48	23445.15
748.66	23385.76
748.85	22953.63
749.03	23183.01
749.22	23367.32
749.41	23279.26
749.59	23359.13
749.78	23117.47
749.96	22996.64
750.15	22951.59
750.33	23154.33
750.52	23142.05
750.70	22884.00
750.89	23131.81
751.07	22851.24
751.26	22820.52
751.44	22556.33
751.63	22916.77
751.81	22955.68
752.00	22847.14
752.18	22746.79
752.37	22662.82
752.55	22642.34
752.74	22718.12
752.92	22482.60
753.10	22808.23
753.29	22703.78
753.47	22693.54
753.66	22521.51
753.84	22388.39
754.03	22597.29
754.21	22345.39
754.40	22525.61
754.58	22685.35
754.77	22589.10
754.95	22372.01
755.14	22523.56
755.32	22435.50
755.51	22308.52
755.69	22404.78
755.88	22437.55
756.06	22011.57
756.24	22097.58
756.43	22294.19
756.61	22044.34
756.80	22304.43
756.98	22015.66
757.17	22050.48
757.35	22085.30
757.54	21964.46
757.72	22052.53
757.90	21829.30
758.09	21814.96
758.27	21954.22
758.46	21751.48
758.64	21634.74
758.83	21835.44
759.01	22154.93
759.19	21804.72
759.38	21728.95
759.56	22011.57
759.75	21706.42
759.93	21716.66
760.12	21888.69
760.30	21640.89
760.48	21675.70
760.67	21745.33
760.85	21550.78
761.04	21733.04
761.22	21882.55
761.40	21458.62
761.59	21495.48
761.77	21472.95
761.96	21249.72
762.14	21350.07
762.32	21130.94
762.51	21444.28
762.69	21448.38
762.88	21487.29
763.06	21399.23
763.24	21264.06
763.43	21321.40
763.61	21112.51
763.80	21204.67
763.98	21092.03
764.16	21327.55
764.35	21251.77
764.53	20860.61
764.72	21046.97
764.90	20917.95
765.08	20817.60
765.27	20956.86
765.45	20801.22
765.63	20610.76
765.82	20975.30
766.00	20952.77
766.18	21067.45
766.37	20793.03
766.55	20811.46
766.74	20829.89
766.92	20561.61
767.10	20788.93
767.29	20604.61
767.47	20694.72
767.65	20694.72
767.84	20369.10
768.02	20698.82
768.20	20297.42
768.39	20485.83
768.57	20465.35
768.75	20582.09
768.94	20324.04
769.12	20301.51
769.30	20209.36
769.49	20332.23
769.67	20305.61
769.85	20272.84
770.04	20301.51
770.22	20100.81
770.40	20041.42
770.59	20070.09
770.77	20240.08
770.95	20219.60
771.14	20235.98
771.32	20102.86
771.50	19844.82
771.69	19824.34
771.87	20063.95
772.05	19850.96
772.24	19910.35
772.42	20010.70
772.60	19769.04
772.78	19635.92
772.97	19818.19
773.15	20072.14
773.33	19807.95
773.52	20002.51
773.70	19769.04
773.88	19898.06
774.07	19678.93
774.25	19838.67
774.43	19748.56
774.61	19982.03
774.80	19914.45
774.98	19900.11
775.16	19928.78
775.34	19695.32
775.53	19822.29
775.71	19871.44
775.89	19793.62
776.08	19551.96
776.26	19414.74
776.44	19934.93
776.62	19855.06
776.81	19826.39
776.99	19656.40
777.17	19500.76
777.35	19855.06
777.54	19693.27
777.72	19859.15
777.90	19707.60
778.08	19967.70
778.27	19955.41
778.45	19965.65
778.63	19898.06
778.81	19922.64
779.00	19855.06
779.18	19834.58
779.36	20047.57
779.54	19748.56
779.73	19726.04
779.91	20106.96
780.09	19793.62
780.27	19928.78
780.46	19953.36
780.64	20176.59
780.82	19951.31
781.00	19726.04
781.19	19779.28
781.37	19918.54
781.55	19967.70
781.73	20059.85
781.91	19861.20
782.10	19891.92
782.28	20029.13
782.46	19648.21
782.64	19871.44
782.82	19932.88
783.01	19943.12
783.19	19963.60
783.37	19939.02
783.55	19807.95
783.74	19936.98
783.92	19635.92
784.10	19652.31
784.28	19861.20
784.46	19707.60
784.64	20027.09
784.83	19721.94
785.01	19824.34
785.19	19836.63
785.37	19764.95
785.55	19814.10
785.74	19691.22
785.92	19648.21
786.10	19742.42
786.28	19594.96
786.46	19875.54
786.64	19531.48
786.83	19640.02
787.01	19838.67
787.19	19605.20
787.37	19580.63
787.55	19576.53
787.74	19713.75
787.92	19642.07
788.10	19420.89
788.28	19439.32
788.46	19603.16
788.64	19367.64
788.82	19662.55
789.01	19465.94
789.19	19390.17
789.37	19283.67
789.55	19291.87
789.73	19111.64
789.91	19252.95
790.09	19211.99
790.28	19050.21
790.46	19068.64
790.64	19146.46
790.82	19336.92
791.00	19195.61
791.18	19025.63
791.36	19078.88
791.55	19009.25
791.73	19130.08
791.91	19150.56
792.09	19113.69
792.27	18773.73
792.45	18786.02
792.63	18730.72
792.81	18808.54
793.00	18745.06
793.18	18851.55
793.36	18765.54
793.54	18429.67
793.72	18570.98
793.90	18523.88
794.08	18355.94
794.26	18605.80
794.44	18409.19
794.62	18341.61
794.81	18345.70
794.99	18239.21
795.17	18298.60
795.35	18120.43
795.53	18298.60
795.71	18151.15
795.89	17731.31
796.07	18108.14
796.25	17751.79
796.43	17882.86
796.61	17698.55
796.80	17544.95
796.98	17782.51
797.16	17633.01
797.34	17794.80
797.52	17549.04
797.70	17622.77
797.88	17557.24
798.06	17972.97
798.24	17465.08
798.42	17393.40
798.60	17510.13
798.78	17268.47
798.96	17602.29
799.14	17182.46
799.32	17252.09
799.51	17420.02
799.69	17522.42
799.87	17250.04
800.05	17282.81
800.23	17221.37
800.41	17043.20
800.59	17026.81
800.77	17080.06
800.95	17102.59
801.13	17020.67
801.31	16746.24
801.49	17053.44
801.67	16877.31
801.85	16852.73
802.03	16504.58
802.21	16738.05
802.39	16699.14
802.57	16508.68
802.75	16537.35
802.93	16684.80
803.11	16488.20
803.29	16342.79
803.47	16416.52
803.65	16254.73
803.83	16152.33
804.01	16355.08
804.19	16357.13
804.37	16193.29
804.55	16217.86
804.73	16209.67
804.91	16217.86
805.09	16359.17
805.27	16236.30
805.45	15963.92
805.63	16121.61
805.81	16156.43
805.99	16146.19
806.17	16088.84
806.35	15795.98
806.53	16031.50
806.71	15908.62
806.89	15724.30
807.07	15630.10
807.25	15961.87
807.43	15728.40
807.61	15728.40
807.79	15695.63
807.97	15630.10
808.15	15542.03
808.33	15507.22
808.51	15560.47
808.69	15482.64
808.87	15537.94
809.05	15419.16
809.23	15275.80
809.41	15376.15
809.59	15441.68
809.77	15392.53
809.95	15548.18
810.13	15267.61
810.31	15214.36
810.49	15095.58
810.67	15232.79
810.84	14991.13
811.02	14962.46
811.20	14821.15
811.38	15013.66
811.56	14984.99
811.74	15122.20
811.92	14509.86
812.10	14706.46
812.28	15011.61
812.46	14958.36
812.64	14984.99
812.82	14720.80
813.00	14761.76
813.18	14421.80
813.36	14374.69
813.53	14559.01
813.71	14581.54
813.89	14303.01
814.07	14651.17
814.25	14679.84
814.43	14550.82
814.61	14536.48
814.79	14309.16
814.97	14386.98
815.15	14520.10
815.33	14278.44
815.50	14206.76
815.68	14507.81
815.86	14223.14
816.04	14307.11
816.22	14100.26
816.40	14190.38
816.58	14147.37
816.76	14030.63
816.94	14161.70
817.11	14124.84
817.29	13997.87
817.47	13877.04
817.65	14012.20
817.83	14053.16
818.01	13700.91
818.19	13684.53
818.37	13709.10
818.54	13504.31
818.72	13922.09
818.90	13817.65
819.08	13604.66
819.26	13645.62
819.44	13500.21
819.62	13758.25
819.80	13631.28
819.97	13457.20
820.15	13670.19
820.33	13616.94
820.51	13813.55
820.69	13518.64
820.87	13496.11
821.05	13860.65
821.22	13496.11
821.40	13295.41
821.58	13143.86
821.76	13444.91
821.94	13254.45
822.12	13434.68
822.29	13295.41
822.47	13236.02
822.65	13342.52
822.83	13188.92
823.01	13158.20
823.19	13365.04
823.36	12994.36
823.54	13057.85
823.72	12879.68
823.90	13156.15
824.08	12957.50
824.25	12994.36
824.43	12947.26
824.61	12934.97
824.79	13033.27
824.97	13080.38
825.15	13000.51
825.32	12797.76
825.50	12758.85
825.68	12896.06
825.86	13027.13
826.04	12877.63
826.21	12887.87
826.39	12742.46
826.57	12738.37
826.75	12650.30
826.93	12547.90
827.10	12838.72
827.28	12808.00
827.46	12656.45
827.64	12590.91
827.81	12562.24
827.99	12693.31
828.17	12459.84
828.35	12439.36
828.53	12318.53
828.70	12447.55
828.88	12476.23
829.06	12412.74
829.24	12339.01
829.41	12459.84
829.59	12717.89
829.77	12449.60
829.95	12242.76
830.12	12373.83
830.30	12361.54
830.48	12306.24
830.66	12418.88
830.84	12216.13
831.01	12162.89
831.19	12123.98
831.37	12410.69
831.55	12173.13
831.72	12115.78
831.90	12244.81
832.08	12154.69
832.25	12193.61
832.43	12173.13
832.61	12177.22
832.79	12158.79
832.96	11886.41
833.14	11777.87
833.32	12050.25
833.50	12035.91
833.67	11986.76
833.85	11923.27
834.03	12089.16
834.20	11837.26
834.38	11732.81
834.56	11853.64
834.74	11747.15
834.91	11910.99
835.09	11685.71
835.27	11921.23
835.44	11759.44
835.62	11513.68
835.80	11554.64
835.98	11614.03
836.15	11454.29
836.33	11423.57
836.51	11568.98
836.68	11642.70
836.86	11571.02
837.04	11589.46
837.21	11489.10
837.39	11587.41
837.57	11634.51
837.75	11503.44
837.92	11329.36
838.10	11554.64
838.28	11333.46
838.45	11503.44
838.63	11108.18
838.81	11380.56
838.98	11140.95
839.16	11325.27
839.34	11298.64
839.51	11251.54
839.69	11050.84
839.87	11173.72
840.04	11403.09
840.22	11312.98
840.40	11157.33
840.57	10970.97
840.75	11208.53
840.93	11175.77
841.10	11218.77
841.28	11128.66
841.46	11028.31
841.63	11116.37
841.81	11186.01
841.98	11169.62
842.16	10925.91
842.34	11097.94
842.51	10999.64
842.69	10813.28
842.87	11020.12
843.04	11116.37
843.22	11089.75
843.40	10917.72
843.57	10966.87
843.75	10903.39
843.92	10987.35
844.10	10827.61
844.28	11036.50
844.45	10866.52
844.63	11120.47
844.81	10796.89
844.98	10809.18
845.16	10860.38
845.33	10874.71
845.51	10610.53
845.69	10807.13
845.86	10710.88
846.04	10674.01
846.21	10657.63
846.39	10571.61
846.57	10620.77
846.74	10549.09
846.92	10778.46
847.09	10588.00
847.27	10452.83
847.45	10579.81
847.62	10553.18
847.80	10547.04
847.97	10471.26
848.15	10561.37
848.32	10655.58
848.50	10456.93
848.68	10536.80
848.85	10458.98
849.03	10465.12
849.20	10356.58
849.38	10436.45
849.56	10268.52
849.73	10401.63
849.91	10272.61
850.08	10409.83
850.26	10291.04
850.43	10311.52
850.61	10116.97
850.78	10116.97
850.96	10315.62
851.14	10010.47
851.31	10289.00
851.49	10178.40
851.66	10243.94
851.84	10028.90
852.01	10295.14
852.19	10168.16
852.36	10076.01
852.54	10162.02
852.71	10198.88
852.89	10069.86
853.07	10004.33
853.24	10092.39
853.42	10018.66
853.59	10033.00
853.77	10012.52
853.94	10014.57
854.12	9994.09
854.29	9928.55
854.47	9901.93
854.64	9852.78
854.82	9766.76
854.99	9895.78
855.17	10004.33
855.34	9983.85
855.52	9955.18
855.69	9719.66
855.87	9731.95
856.04	9766.76
856.22	9711.47
856.39	9793.39
856.57	9770.86
856.74	9637.74
856.92	9795.43
857.09	9734.00
857.27	9594.73
857.44	9756.52
857.62	9695.08
857.79	9785.19
857.97	9772.91
858.14	9498.48
858.32	9607.02
858.49	9559.92
858.67	9426.80
858.84	9543.53
859.02	9617.26
859.19	9654.12
859.37	9328.50
859.54	9410.42
859.72	9527.15
859.89	9346.93
860.06	9457.52
860.24	9338.74
860.41	9518.96
860.59	9293.68
860.76	9394.03
860.94	9521.01
861.11	9402.22
861.29	9228.15
861.46	9189.24
861.64	9291.63
861.81	9336.69
861.98	9281.39
862.16	9090.93
862.33	9260.91
862.51	9219.96
862.68	9193.33
862.86	9162.61
863.03	9310.07
863.21	9228.15
863.38	9142.13
863.55	9193.33
863.73	9060.21
863.90	9312.11
864.08	8961.91
864.25	9025.40
864.43	9140.08
864.60	9076.60
864.77	9099.13
864.95	9201.52
865.12	8904.57
865.30	9004.92
865.47	8984.44
865.64	9144.18
865.82	9033.59
865.99	9054.07
866.17	8793.98
866.34	8904.57
866.51	8738.68
866.69	8806.27
866.86	8865.66
867.04	9033.59
867.21	8939.38
867.38	8677.24
867.56	8695.68
867.73	8777.59
867.91	8697.72
868.08	8734.59
868.25	8740.73
868.43	8755.07
868.60	8566.65
868.78	8769.40
868.95	8761.21
869.12	8605.56
869.30	8669.05
869.47	8505.21
869.64	8449.92
869.82	8548.22
869.99	8474.49
870.16	8542.08
870.34	8615.80
870.51	8689.53
870.69	8380.29
870.86	8466.30
871.03	8476.54
871.21	8517.50
871.38	8478.59
871.55	8548.22
871.73	8331.14
871.90	8400.77
872.07	8468.35
872.25	8224.64
872.42	8216.45
872.59	8302.47
872.77	8181.64
872.94	8353.66
873.11	8238.98
873.29	8036.23
873.46	8116.10
873.63	8152.96
873.81	8226.69
873.98	8116.10
874.15	8126.34
874.33	8214.40
874.50	8001.41
874.67	8173.44
874.85	8195.97
875.02	7972.74
875.19	7833.48
875.37	7888.78
875.54	7976.84
875.71	7921.54
875.88	7890.82
876.06	8028.04
876.23	8025.99
876.40	7800.71
876.58	7729.03
876.75	7790.47
876.92	7724.94
877.10	7708.55
877.27	7786.38
877.44	7720.84
877.61	7724.94
877.79	7628.68
877.96	7817.10
878.13	7741.32
878.31	7575.44
878.48	7671.69
878.65	7468.94
878.82	7702.41
879.00	7747.47
879.17	7591.82
879.34	7524.24
879.51	7442.32
879.69	7331.73
879.86	7516.05
880.03	7475.09
880.21	7483.28
880.38	7544.72
880.55	7720.84
880.72	7335.82
880.90	7350.16
881.07	7464.85
881.24	7419.79
881.41	7546.76
881.59	7376.78
881.76	7368.59
881.93	7460.75
882.10	7440.27
882.28	7391.12
882.45	7505.81
882.62	7301.01
882.79	7356.30
882.96	7329.68
883.14	7409.55
883.31	7210.90
883.48	7315.34
883.65	7298.96
883.83	7358.35
884.00	7214.99
884.17	7266.19
884.34	7335.82
884.51	7458.70
884.69	7286.67
884.86	7253.91
885.03	7184.27
885.20	7276.43
885.38	7223.19
885.55	7133.08
885.72	7208.85
885.89	7143.32
886.06	7155.60
886.24	7065.49
886.41	7151.51
886.58	7221.14
886.75	7102.36
886.92	6993.81
887.10	7092.12
887.27	7122.84
887.44	7235.47
887.61	7045.01
887.78	6993.81
887.95	7233.43
888.13	7032.72
888.30	7022.48
888.47	7059.35
888.64	7176.08
888.81	7104.40
888.99	7098.26
889.16	6954.90
889.33	6956.95
889.50	6827.93
889.67	7006.10
889.84	7118.74
890.01	6965.14
890.19	6868.89
890.36	6889.37
890.53	6971.29
890.70	6770.58
890.87	6801.30
891.04	6885.27
891.22	6997.91
891.39	6690.71
891.56	6819.74
891.73	6895.51
891.90	6872.98
892.07	6700.95
892.24	6682.52
892.42	6809.50
892.59	6825.88
892.76	6631.32
892.93	6725.53
893.10	6633.37
893.27	6774.68
893.44	6690.71
893.61	6543.26
893.79	6803.35
893.96	6541.21
894.13	6682.52
894.30	6676.38
894.47	6639.51
894.64	6752.15
894.81	6746.01
894.98	6541.21
895.15	6571.93
895.33	6455.20
895.50	6655.90
895.67	6662.04
895.84	6569.88
896.01	6621.08
896.18	6567.84
896.35	6659.99
896.52	6459.29
896.69	6393.76
896.86	6713.24
897.04	6537.12
897.21	6533.02
897.38	6508.44
897.55	6545.31
897.72	6578.08
897.89	6510.49
898.06	6637.47
898.23	6502.30
898.40	6436.77
898.57	6399.90
898.74	6444.96
898.91	6533.02
899.08	6344.61
899.26	6569.88
899.43	6555.55
899.60	6451.10
899.77	6416.29
899.94	6457.25
900.11	6465.44
900.28	6610.84
900.45	6506.40
900.62	6504.35
900.79	6539.16
900.96	6582.17
901.13	6449.05
901.30	6451.10
901.47	6348.70
901.64	6354.85
901.81	6436.77
901.98	6274.98
902.15	6406.05
902.32	6518.68
902.49	6371.23
902.66	6463.39
902.83	6440.86
903.01	6332.32
903.18	6322.08
903.35	6356.90
903.52	6260.64
903.69	6455.20
903.86	6463.39
904.03	6248.35
904.20	6383.52
904.37	6207.39
904.54	6379.42
904.71	6418.33
904.88	6365.09
905.05	6328.22
905.22	6528.92
905.39	6293.41
905.56	6340.51
905.73	6293.41
905.90	6266.78
906.07	6254.50
906.24	6336.42
906.41	6289.31
906.58	6291.36
906.75	6326.18
906.92	6213.54
907.09	6346.66
907.26	6125.47
907.43	6176.67
907.60	6180.77
907.77	6139.81
907.93	6299.55
908.10	6336.42
908.27	6238.11
908.44	6084.52
908.61	6145.95
908.78	6279.07
908.95	6145.95
909.12	6082.47
909.29	6059.94
909.46	6178.72
909.63	6148.00
909.80	6281.12
909.97	6340.51
910.14	6035.36
910.31	6172.58
910.48	6170.53
910.65	6227.87
910.82	6197.15
910.99	6004.64
911.16	6057.89
911.33	6209.44
911.50	6162.34
911.66	6127.52
911.83	6047.65
912.00	6070.18
912.17	5853.09
912.34	5887.91
912.51	6158.24
912.68	6006.69
912.85	6141.86
913.02	6117.28
913.19	5986.21
913.36	5973.92
913.53	6039.46
913.70	5920.68
913.86	5957.54
914.03	6074.28
914.20	5916.58
914.37	6031.27
914.54	6031.27
914.71	6002.60
914.88	5844.90
915.05	5775.27
915.22	5906.34
915.39	5932.97
915.55	5865.38
915.72	5791.66
915.89	5978.02
916.06	5781.42
916.23	5957.54
916.40	5840.81
916.57	5799.85
916.74	5853.09
916.91	5836.71
917.07	5736.36
917.24	5777.32
917.41	5795.75
917.58	5715.88
917.75	5619.63
917.92	5617.58
918.09	5662.63
918.26	5439.40
918.42	5500.84
918.59	5683.11
918.76	5412.78
918.93	5590.95
919.10	5552.04
919.27	5478.32
919.44	5484.46
919.60	5578.67
919.77	5521.32
919.94	5488.56
920.11	5484.46
920.28	5441.45
920.45	5441.45
920.61	5369.77
920.78	5441.45
920.95	5466.03
921.12	5353.39
921.29	5310.38
921.46	5363.63
921.62	5257.14
921.79	5377.97
921.96	5207.98
922.13	5185.46
922.30	5283.76
922.47	5228.46
922.63	5240.75
922.80	5187.50
922.97	5091.25
923.14	5148.59
923.31	5289.90
923.47	5162.93
923.64	5156.79
923.81	5052.34
923.98	5115.83
924.15	5113.78
924.32	5126.07
924.48	5085.11
924.65	5103.54
924.82	4992.95
924.99	5011.38
925.15	4933.56
925.32	5046.20
925.49	4945.84
925.66	4951.99
925.83	4825.01
925.99	4802.49
926.16	4851.64
926.33	4968.37
926.50	4689.85
926.67	4933.56
926.83	4751.29
927.00	4861.88
927.17	4685.75
927.34	4655.03
927.50	4607.93
927.67	4829.11
927.84	4616.12
928.01	4620.22
928.17	4665.27
928.34	4757.43
928.51	4634.55
928.68	4603.83
928.84	4523.96
929.01	4542.39
929.18	4519.87
929.35	4433.85
929.51	4536.25
929.68	4519.87
929.85	4444.09
930.02	4382.65
930.18	4468.67
930.35	4497.34
930.52	4349.89
930.69	4407.23
930.85	4466.62
931.02	4515.77
931.19	4433.85
931.36	4370.37
931.52	4409.28
931.69	4259.78
931.86	4247.49
932.02	4198.34
932.19	4235.20
932.36	4196.29
932.53	4302.78
932.69	4054.98
932.86	4325.31
933.03	4112.32
933.19	4059.07
933.36	4038.59
933.53	4140.99
933.70	4200.38
933.86	4063.17
934.03	4155.33
934.20	4038.59
934.36	4081.60
934.53	3934.15
934.70	3944.39
934.86	3985.35
935.03	3770.31
935.20	3923.91
935.36	3866.56
935.53	3852.23
935.70	3835.85
935.86	3803.08
936.03	3690.44
936.20	3674.06
936.36	3557.32
936.53	3657.67
936.70	3602.38
936.86	3659.72
937.03	3770.31
937.20	3608.52
937.36	3590.09
937.53	3588.04
937.70	3379.15
937.86	3475.40
938.03	3459.02
938.20	3440.59
938.36	3399.63
938.53	3489.74
938.70	3362.76
938.86	3373.00
939.03	3385.29
939.20	3338.19
939.36	3295.18
939.53	3268.56
939.70	3330.00
939.86	3227.60
940.03	3203.02
940.19	3074.00
940.36	3164.11
940.53	3153.87
940.69	3094.48
940.86	3051.47
941.03	3094.48
941.19	2967.51
941.36	2920.40
941.52	2985.94
941.69	2955.22
941.86	2871.25
942.02	2955.22
942.19	2994.13
942.35	2863.06
942.52	2842.58
942.69	2959.31
942.85	2844.63
943.02	2897.88
943.18	2895.83
943.35	2797.53
943.52	2783.19
943.68	2639.83
943.85	2721.75
944.01	2764.76
944.18	2754.52
944.35	2625.50
944.51	2770.90
944.68	2598.87
944.84	2731.99
945.01	2672.60
945.17	2592.73
945.34	2623.45
945.51	2641.88
945.67	2635.74
945.84	2627.54
946.00	2584.54
946.17	2623.45
946.33	2512.86
946.50	2654.17
946.67	2625.50
946.83	2551.77
947.00	2627.54
947.16	2529.24
947.33	2594.78
947.49	2557.91
947.66	2508.76
947.82	2588.63
947.99	2514.91
948.16	2566.10
948.32	2580.44
948.49	2533.34
948.65	2592.73
948.82	2488.28
948.98	2537.43
949.15	2475.99
949.31	2617.30
949.48	2504.67
949.64	2529.24
949.81	2500.57
949.97	2529.24
950.14	2473.95
950.30	2531.29
950.47	2527.19
950.63	2541.53
950.80	2545.63
950.96	2447.32
951.13	2533.34
951.30	2527.19
951.46	2527.19
951.63	2545.63
951.79	2480.09
951.96	2469.85
952.12	2516.95
952.29	2545.63
952.45	2453.47
952.62	2553.82
952.78	2494.43
952.94	2482.14
953.11	2478.04
953.27	2516.95
953.44	2533.34
953.60	2531.29
953.77	2508.76
953.93	2512.86
954.10	2551.77
954.26	2490.33
954.43	2416.60
954.59	2510.81
954.76	2609.11
954.92	2447.32
955.09	2424.80
955.25	2502.62
955.42	2465.75
955.58	2484.19
955.75	2504.67
955.91	2512.86
956.07	2568.15
956.24	2484.19
956.40	2539.48
956.57	2439.13
956.73	2449.37
956.90	2514.91
957.06	2531.29
957.23	2424.80
957.39	2482.14
957.56	2449.37
957.72	2367.45
957.88	2449.37
958.05	2553.82
958.21	2418.65
958.38	2400.22
958.54	2426.84
958.71	2533.34
958.87	2455.51
959.03	2494.43
959.20	2496.47
959.36	2428.89
959.53	2402.27
959.69	2428.89
959.85	2482.14
960.02	2328.54
960.18	2400.22
960.35	2398.17
960.51	2471.90
960.68	2412.51
960.84	2445.27
961.00	2410.46
961.17	2344.92
961.33	2453.47
961.50	2412.51
961.66	2359.26
961.82	2396.12
961.99	2402.27
962.15	2406.36
962.31	2392.03
962.48	2473.95
962.64	2363.36
962.81	2449.37
962.97	2502.62
963.13	2383.84
963.30	2437.08
963.46	2428.89
963.62	2459.61
963.79	2332.64
963.95	2359.26
964.12	2420.70
964.28	2424.80
964.44	2355.16
964.61	2400.22
964.77	2340.83
964.93	2453.47
965.10	2351.07
965.26	2359.26
965.42	2461.66
965.59	2363.36
965.75	2357.21
965.92	2346.97
966.08	2287.58
966.24	2320.35
966.41	2349.02
966.57	2385.88
966.73	2361.31
966.90	2389.98
967.06	2287.58
967.22	2355.16
967.39	2281.44
967.55	2418.65
967.71	2344.92
967.88	2338.78
968.04	2277.34
968.20	2326.49
968.37	2318.30
968.53	2306.01
968.69	2299.87
968.85	2306.01
969.02	2308.06
969.18	2410.46
969.34	2310.11
969.51	2306.01
969.67	2373.60
969.83	2295.77
970.00	2340.83
970.16	2324.44
970.32	2230.24
970.48	2260.96
970.65	2263.01
970.81	2197.47
970.97	2312.16
971.14	2234.33
971.30	2338.78
971.46	2256.86
971.63	2252.77
971.79	2355.16
971.95	2244.57
972.11	2187.23
972.28	2174.94
972.44	2320.35
972.60	2267.10
972.76	2277.34
972.93	2207.71
973.09	2197.47
973.25	2215.90
973.42	2133.98
973.58	2291.68
973.74	2228.19
973.90	2308.06
974.07	2246.62
974.23	2256.86
974.39	2222.05
974.55	2222.05
974.72	2226.14
974.88	2205.66
975.04	2207.71
975.20	2183.13
975.37	2203.61
975.53	2220.00
975.69	2209.76
975.85	2230.24
976.01	2201.57
976.18	2156.51
976.34	2123.74
976.50	2230.24
976.66	2207.71
976.83	2185.18
976.99	2125.79
977.15	2156.51
977.31	2129.89
977.47	2142.18
977.64	2183.13
977.80	2228.19
977.96	2213.85
978.12	2140.13
978.29	2205.66
978.45	2168.80
978.61	2074.59
978.77	2140.13
978.93	2039.78
979.10	2215.90
979.26	2158.56
979.42	2101.22
979.58	2170.85
979.74	2148.32
979.91	2232.29
980.07	2148.32
980.23	2095.07
980.39	2179.04
980.55	2164.70
980.71	2158.56
980.88	2154.46
981.04	2144.22
981.20	2095.07
981.36	2062.30
981.52	2099.17
981.68	2109.41
981.85	2076.64
982.01	2117.60
982.17	2127.84
982.33	2123.74
982.49	2066.40
982.65	2078.69
982.82	2084.83
982.98	2146.27
983.14	2035.68
983.30	2166.75
983.46	2105.31
983.62	2103.26
983.79	2060.26
983.95	2047.97
984.11	2117.60
984.27	2140.13
984.43	2084.83
984.59	2002.91
984.75	2148.32
984.91	2076.64
985.08	2072.54
985.24	2056.16
985.40	2007.01
985.56	2131.94
985.72	2093.02
985.88	2129.89
986.04	2097.12
986.20	2019.30
986.37	2045.92
986.53	2052.06
986.69	2031.58
986.85	1980.39
987.01	2060.26
987.17	2078.69
987.33	1955.81
987.49	2023.39
987.65	2050.02
987.82	2058.21
987.98	1945.57
988.14	1953.76
988.30	1966.05
988.46	2074.59
988.62	2021.35
988.78	2072.54
988.94	2027.49
989.10	1970.15
989.26	2050.02
989.42	1945.57
989.59	1959.91
989.75	2033.63
989.91	2041.82
990.07	1943.52
990.23	1957.86
990.39	2019.30
990.55	2002.91
990.71	1994.72
990.87	1945.57
991.03	2000.87
991.19	1912.80
991.35	1990.63
991.51	1968.10
991.67	1964.00
991.83	2013.15
992.00	2023.39
992.16	2031.58
992.32	1978.34
992.48	2017.25
992.64	1953.76
992.80	1974.24
992.96	1998.82
993.12	2007.01
993.28	1992.67
993.44	2007.01
993.60	1984.48
993.76	1949.67
993.92	1947.62
994.08	2023.39
994.24	1941.47
994.40	1980.39
994.56	1966.05
994.72	1972.19
994.88	1925.09
995.04	1929.19
995.20	1912.80
995.36	1937.38
995.52	2027.49
995.68	1931.23
995.84	1871.84
996.00	1863.65
996.16	1931.23
996.32	1912.80
996.48	1892.32
996.64	1986.53
996.80	1937.38
996.96	1974.24
997.12	1902.56
997.28	1947.62
997.44	1937.38
997.60	1945.57
997.76	1923.04
997.92	1968.10
998.08	1882.08
998.24	1873.89
998.40	1939.43
998.56	1877.99
998.72	1875.94
998.88	1867.75
999.04	1937.38
999.20	1888.23
999.36	1855.46
999.52	1974.24
999.68	1824.74
999.84	1875.94
1000.00	1857.51
1000.16	1953.76
1000.32	1943.52
1000.48	1873.89
1000.64	1828.84
1000.80	1857.51
1000.95	1849.32
1001.11	1828.84
1001.27	1880.04
1001.43	1955.81
1001.59	1902.56
1001.75	1798.12
1001.91	1882.08
1002.07	1869.80
1002.23	1851.36
1002.39	1886.18
1002.55	1894.37
1002.71	1865.70
1002.87	1773.54
1003.03	1894.37
1003.19	1859.56
1003.34	1837.03
1003.50	1875.94
1003.66	1857.51
1003.82	1751.01
1003.98	1863.65
1004.14	1906.66
1004.30	1873.89
1004.46	1816.55
1004.62	1886.18
1004.78	1845.22
1004.94	1841.12
1005.09	1894.37
1005.25	1882.08
1005.41	1824.74
1005.57	1828.84
1005.73	1808.36
1005.89	1882.08
1006.05	1902.56
1006.21	1828.84
1006.37	1814.50
1006.52	1820.64
1006.68	1820.64
1006.84	1810.40
1007.00	1869.80
1007.16	1902.56
1007.32	1810.40
1007.48	1763.30
1007.64	1824.74
1007.79	1849.32
1007.95	1812.45
1008.11	1857.51
1008.27	1898.47
1008.43	1806.31
1008.59	1837.03
1008.75	1802.21
1008.91	1828.84
1009.06	1853.41
1009.22	1855.46
1009.38	1839.08
1009.54	1832.93
1009.70	1818.60
1009.86	1738.73
1010.01	1683.43
1010.17	1748.97
1010.33	1810.40
1010.49	1724.39
1010.65	1837.03
1010.81	1789.92
1010.96	1814.50
1011.12	1779.68
1011.28	1822.69
1011.44	1728.49
1011.60	1767.40
1011.76	1765.35
1011.91	1705.96
1012.07	1775.59
1012.23	1767.40
1012.39	1781.73
1012.55	1748.97
1012.71	1771.49
1012.86	1728.49
1013.02	1796.07
1013.18	1716.20
1013.34	1810.40
1013.50	1775.59
1013.65	1771.49
1013.81	1724.39
1013.97	1748.97
1014.13	1779.68
1014.29	1722.34
1014.44	1781.73
1014.60	1730.53
1014.76	1734.63
1014.92	1722.34
1015.07	1673.19
1015.23	1714.15
1015.39	1738.73
1015.55	1726.44
1015.71	1675.24
1015.86	1730.53
1016.02	1734.63
1016.18	1724.39
1016.34	1705.96
1016.49	1724.39
1016.65	1695.72
1016.81	1660.90
1016.97	1740.77
1017.12	1753.06
1017.28	1665.00
1017.44	1691.62
1017.60	1820.64
1017.75	1755.11
1017.91	1716.20
1018.07	1699.81
1018.23	1605.61
1018.38	1703.91
1018.54	1697.77
1018.70	1712.10
1018.86	1638.38
1019.01	1644.52
1019.17	1732.58
1019.33	1665.00
1019.49	1667.05
1019.64	1701.86
1019.80	1652.71
1019.96	1759.21
1020.12	1697.77
1020.27	1658.85
1020.43	1718.25
1020.59	1712.10
1020.74	1693.67
1020.90	1740.77
1021.06	1656.81
1021.22	1712.10
1021.37	1724.39
1021.53	1660.90
1021.69	1673.19
1021.84	1730.53
1022.00	1679.33
1022.16	1642.47
1022.31	1671.14
1022.47	1759.21
1022.63	1662.95
1022.79	1662.95
1022.94	1673.19
1023.10	1695.72
1023.26	1599.46
1023.41	1675.24
1023.57	1617.90
1023.73	1689.57
1023.88	1685.48
1024.04	1695.72
1024.20	1699.81
1024.35	1716.20
1024.51	1650.66
1024.67	1613.80
1024.82	1740.77
1024.98	1701.86
1025.14	1708.01
1025.29	1683.43
1025.45	1736.68
1025.61	1662.95
1025.76	1722.34
1025.92	1632.23
1026.08	1660.90
1026.23	1638.38
1026.39	1699.81
1026.55	1640.42
1026.70	1601.51
1026.86	1638.38
1027.02	1701.86
1027.17	1638.38
1027.33	1634.28
1027.48	1624.04
1027.64	1605.61
1027.80	1677.29
1027.95	1634.28
1028.11	1556.46
1028.27	1699.81
1028.42	1685.48
1028.58	1630.18
1028.73	1683.43
1028.89	1583.08
1029.05	1667.05
1029.20	1656.81
>>>>>End Processed Spectral Data<<<<<
