SpectraSuite Data File
++++++++++++++++++++++++++++++++++++
Date: Tue Jun 13 11:52:07 CEST 2017
User: INFO_000
Dark Spectrum Present: No
Reference Spectrum Present: No
Number of Sampled Component Spectra: 1
Spectrometers: USB4H00879
Integration Time (usec): 30000 (USB4H00879)
Spectra Averaged: 1 (USB4H00879)
Boxcar Smoothing: 0 (USB4H00879)
Correct for Electrical Dark: No (USB4H00879)
Strobe/Lamp Enabled: No (USB4H00879)
Correct for Detector Non-linearity: No (USB4H00879)
Correct for Stray Light: No (USB4H00879)
Number of Pixels in Processed Spectrum: 3648
>>>>>Begin Processed Spectral Data<<<<<
345.13	1357.80
345.34	1357.80
345.56	1357.80
345.78	1308.65
345.99	1329.13
346.21	1460.20
346.42	1554.41
346.64	1419.24
346.86	1517.54
347.07	1533.93
347.29	1593.32
347.50	1505.26
347.72	1550.31
347.94	1533.93
348.15	1468.39
348.37	1458.15
348.59	1523.69
348.80	1507.30
349.02	1611.75
349.23	1681.38
349.45	1675.24
349.67	1624.04
349.88	1593.32
350.10	1650.66
350.31	1675.24
350.53	1652.71
350.75	1679.33
350.96	1646.57
351.18	1656.81
351.39	1605.61
351.61	1644.52
351.82	1718.25
352.04	1605.61
352.26	1656.81
352.47	1675.24
352.69	1695.72
352.90	1624.04
353.12	1583.08
353.34	1609.70
353.55	1662.95
353.77	1691.62
353.98	1609.70
354.20	1605.61
354.41	1589.22
354.63	1699.81
354.85	1722.34
355.06	1611.75
355.28	1617.90
355.49	1634.28
355.71	1660.90
355.92	1636.33
356.14	1726.44
356.35	1679.33
356.57	1683.43
356.79	1699.81
357.00	1705.96
357.22	1701.86
357.43	1691.62
357.65	1644.52
357.86	1693.67
358.08	1751.01
358.29	1681.38
358.51	1638.38
358.72	1705.96
358.94	1675.24
359.16	1755.11
359.37	1730.53
359.59	1703.91
359.80	1722.34
360.02	1691.62
360.23	1726.44
360.45	1787.88
360.66	1654.76
360.88	1589.22
361.09	1658.85
361.31	1671.14
361.52	1783.78
361.74	1794.02
361.95	1882.08
362.17	1816.55
362.38	1775.59
362.60	1724.39
362.81	1730.53
363.03	1738.73
363.24	1806.31
363.46	1734.63
363.67	1748.97
363.89	1771.49
364.10	1773.54
364.32	1669.09
364.53	1806.31
364.75	1703.91
364.96	1839.08
365.18	1748.97
365.39	1773.54
365.61	1632.23
365.82	1869.80
366.04	1710.05
366.25	1865.70
366.47	1841.12
366.68	1886.18
366.90	1697.77
367.11	1818.60
367.33	1812.45
367.54	1785.83
367.76	1785.83
367.97	1785.83
368.19	1820.64
368.40	1816.55
368.62	1740.77
368.83	1791.97
369.05	1828.84
369.26	1791.97
369.48	1832.93
369.69	1834.98
369.91	1812.45
370.12	1810.40
370.33	1806.31
370.55	1826.79
370.76	1794.02
370.98	1914.85
371.19	1834.98
371.41	1814.50
371.62	1837.03
371.84	1802.21
372.05	1890.28
372.27	1914.85
372.48	1943.52
372.69	1845.22
372.91	1900.52
373.12	1892.32
373.34	1918.95
373.55	1863.65
373.77	1918.95
373.98	1910.75
374.20	1896.42
374.41	1904.61
374.62	1927.14
374.84	1968.10
375.05	1968.10
375.27	1986.53
375.48	1896.42
375.70	1923.04
375.91	1953.76
376.12	2080.74
376.34	1972.19
376.55	1998.82
376.77	1964.00
376.98	1920.99
377.19	1972.19
377.41	1951.71
377.62	2039.78
377.84	2041.82
378.05	2080.74
378.27	1964.00
378.48	1959.91
378.69	2076.64
378.91	2152.42
379.12	2058.21
379.34	2043.87
379.55	2119.65
379.76	2082.78
379.98	2037.73
380.19	2062.30
380.41	2056.16
380.62	2101.22
380.83	2109.41
381.05	2121.70
381.26	2154.46
381.47	2123.74
381.69	2133.98
381.90	2150.37
382.12	2131.94
382.33	2078.69
382.54	2174.94
382.76	2148.32
382.97	2138.08
383.19	2148.32
383.40	2215.90
383.61	2142.18
383.83	2121.70
384.04	2217.95
384.25	2123.74
384.47	2058.21
384.68	2238.43
384.89	2244.57
385.11	2146.27
385.32	2240.48
385.54	2281.44
385.75	2256.86
385.96	2232.29
386.18	2269.15
386.39	2211.81
386.60	2328.54
386.82	2326.49
387.03	2172.89
387.24	2338.78
387.46	2228.19
387.67	2330.59
387.88	2365.40
388.10	2301.92
388.31	2357.21
388.52	2385.88
388.74	2338.78
388.95	2424.80
389.16	2318.30
389.38	2475.99
389.59	2377.69
389.80	2475.99
390.02	2398.17
390.23	2437.08
390.44	2490.33
390.66	2361.31
390.87	2420.70
391.08	2453.47
391.30	2527.19
391.51	2523.10
391.72	2473.95
391.94	2525.15
392.15	2523.10
392.36	2439.13
392.58	2473.95
392.79	2512.86
393.00	2584.54
393.22	2590.68
393.43	2609.11
393.64	2643.93
393.85	2602.97
394.07	2590.68
394.28	2684.89
394.49	2641.88
394.71	2705.37
394.92	2734.04
395.13	2748.37
395.35	2656.22
395.56	2633.69
395.77	2635.74
395.98	2686.94
396.20	2770.90
396.41	2691.03
396.62	2754.52
396.84	2787.29
397.05	2723.80
397.26	2838.48
397.47	2805.72
397.69	2736.09
397.90	2891.73
398.11	2840.53
398.32	2815.96
398.54	2957.27
398.75	2799.57
398.96	2807.77
399.18	2987.99
399.39	2850.77
399.60	2963.41
399.81	2914.26
400.03	2951.12
400.24	3059.67
400.45	2895.83
400.66	3104.72
400.88	3162.06
401.09	2926.55
401.30	3123.15
401.51	3059.67
401.73	3055.57
401.94	3049.43
402.15	3076.05
402.36	3121.10
402.58	3053.52
402.79	3022.80
403.00	3209.17
403.21	3205.07
403.43	3074.00
403.64	3227.60
403.85	3131.34
404.06	3166.16
404.27	3143.63
404.49	3182.54
404.70	3123.15
404.91	3223.50
405.12	3348.43
405.34	3278.80
405.55	3198.93
405.76	3217.36
405.97	3207.12
406.19	3336.14
406.40	3319.76
406.61	3266.51
406.82	3309.52
407.03	3389.39
407.25	3368.91
407.46	3336.14
407.67	3450.83
407.88	3395.53
408.09	3356.62
408.31	3360.72
408.52	3395.53
408.73	3366.86
408.94	3350.48
409.15	3344.33
409.37	3465.16
409.58	3618.76
409.79	3547.08
410.00	3551.18
410.21	3524.55
410.43	3704.78
410.64	3530.70
410.85	3569.61
411.06	3612.62
411.27	3631.05
411.48	3678.15
411.70	3551.18
411.91	3743.69
412.12	3561.42
412.33	3569.61
412.54	3727.30
412.76	3669.96
412.97	3616.71
413.18	3692.49
413.39	3784.65
413.60	3846.09
413.81	3774.41
414.03	3690.44
414.24	3706.82
414.45	3776.45
414.66	3715.02
414.87	3938.24
415.08	3850.18
415.30	3868.61
415.51	3899.33
415.72	3901.38
415.93	3950.53
416.14	3985.35
416.35	3893.19
416.56	3913.67
416.78	4001.73
416.99	3999.68
417.20	3995.59
417.41	3989.44
417.62	4022.21
417.83	3966.92
418.04	4052.93
418.26	4169.66
418.47	3985.35
418.68	4114.37
418.89	4005.83
419.10	4270.01
419.31	4173.76
419.52	4251.58
419.73	4132.80
419.95	4298.69
420.16	4057.03
420.37	4136.90
420.58	4233.15
420.79	4212.67
421.00	4429.76
421.21	4442.04
421.42	4120.51
421.63	4366.27
421.85	4302.78
422.06	4364.22
422.27	4435.90
422.48	4429.76
422.69	4515.77
422.90	4546.49
423.11	4509.63
423.32	4480.96
423.53	4575.16
423.75	4616.12
423.96	4734.90
424.17	4534.20
424.38	4618.17
424.59	4671.42
424.80	4954.04
425.01	4698.04
425.22	4685.75
425.43	4677.56
425.64	4888.50
425.85	5011.38
426.06	4904.89
426.28	4886.45
426.49	4794.29
426.70	4798.39
426.91	4853.69
427.12	4804.53
427.33	4974.52
427.54	4949.94
427.75	4980.66
427.96	5134.26
428.17	5013.43
428.38	5148.59
428.59	5228.46
428.80	5150.64
429.01	5193.65
429.23	5197.74
429.44	5365.68
429.65	5220.27
429.86	5179.31
430.07	5214.13
430.28	5185.46
430.49	5371.82
430.70	5435.31
430.91	5402.54
431.12	5664.68
431.33	5607.34
431.54	5441.45
431.75	5525.42
431.96	5486.51
432.17	5406.64
432.38	5517.23
432.59	5830.57
432.80	5543.85
433.01	5748.65
433.22	5844.90
433.43	5719.98
433.64	5685.16
433.85	5666.73
434.06	5699.50
434.27	5775.27
434.49	5957.54
434.70	5978.02
434.91	5900.20
435.12	5859.24
435.33	5945.25
435.54	5879.72
435.75	5828.52
435.96	6039.46
436.17	5926.82
436.38	6104.99
436.59	6188.96
436.80	6121.38
437.01	6444.96
437.22	6176.67
437.43	6176.67
437.64	6090.66
437.85	6434.72
438.06	6307.74
438.27	6195.11
438.48	6293.41
438.69	6438.81
438.90	6422.43
439.11	6342.56
439.32	6465.44
439.53	6524.83
439.74	6608.80
439.95	6635.42
440.16	6571.93
440.37	6545.31
440.57	6399.90
440.78	6436.77
440.99	6659.99
441.20	6485.92
441.41	6483.87
441.62	6727.58
441.83	6606.75
442.04	6670.23
442.25	6727.58
442.46	6721.43
442.67	6952.85
442.88	7122.84
443.09	6705.05
443.30	6676.38
443.51	6911.89
443.72	7171.99
443.93	6852.50
444.14	7180.18
444.35	6770.58
444.56	7022.48
444.77	7149.46
444.98	7200.66
445.19	7165.84
445.40	7128.98
445.61	7061.40
445.81	7319.44
446.02	7229.33
446.23	7268.24
446.44	7090.07
446.65	7346.06
446.86	7298.96
447.07	7407.50
447.28	7362.45
447.49	7464.85
447.70	7337.87
447.91	7563.15
448.12	7450.51
448.33	7778.19
448.54	7557.00
448.74	7452.56
448.95	7747.47
449.16	7462.80
449.37	7874.44
449.58	7552.91
449.79	7876.49
450.00	7585.68
450.21	7868.30
450.42	7999.37
450.63	7907.21
450.84	7905.16
451.05	7919.50
451.25	7888.78
451.46	7872.39
451.67	8005.51
451.88	8091.52
452.09	8189.83
452.30	7974.79
452.51	8095.62
452.72	8255.36
452.93	8380.29
453.13	8025.99
453.34	8130.44
453.55	8191.88
453.76	8261.51
453.97	8857.46
454.18	8425.34
454.39	8591.23
454.60	8472.45
454.81	8652.67
455.01	8652.67
455.22	8456.06
455.43	8617.85
455.64	8783.74
455.85	8902.52
456.06	9056.12
456.27	8898.42
456.48	8912.76
456.68	8959.86
456.89	9015.16
457.10	9170.80
457.31	9101.17
457.52	9002.87
457.73	9131.89
457.94	9494.38
458.14	9213.81
458.35	9467.76
458.56	9332.59
458.77	9400.18
458.98	9439.09
459.19	9291.63
459.39	9559.92
459.60	9834.35
459.81	9607.02
460.02	9797.48
460.23	9695.08
460.44	9963.37
460.65	9989.99
460.85	9879.40
461.06	10016.62
461.27	9774.95
461.48	10231.65
461.69	10323.81
461.89	9973.61
462.10	10147.69
462.31	10088.29
462.52	10284.90
462.73	10465.12
462.94	10375.01
463.14	10448.74
463.35	10463.07
463.56	10860.38
463.77	10684.25
463.98	10440.54
464.18	10639.20
464.39	10737.50
464.60	11091.80
464.81	10985.30
465.02	10882.91
465.23	11267.92
465.43	11038.55
465.64	11618.13
465.85	11284.31
466.06	11181.91
466.27	11716.43
466.47	11634.51
466.68	11370.32
466.89	11790.16
467.10	11769.68
467.30	11585.36
467.51	11652.94
467.72	12052.30
467.93	11857.74
468.14	12095.30
468.34	12146.50
468.55	12158.79
468.76	12037.96
468.97	12130.12
469.17	12402.50
469.38	12482.37
469.59	12449.60
469.80	12248.90
470.01	12613.44
470.21	12564.29
470.42	12963.64
470.63	13102.90
470.84	12560.19
471.04	13203.25
471.25	13014.84
471.46	13068.09
471.67	13213.49
471.87	13254.45
472.08	13680.43
472.29	13672.24
472.50	13365.04
472.70	13403.96
472.91	13846.32
473.12	13879.08
473.33	14069.55
473.53	14280.49
473.74	14198.57
473.95	14331.69
474.16	14358.31
474.36	14554.91
474.57	14704.42
474.78	14878.49
474.99	14665.50
475.19	14516.00
475.40	14978.84
475.61	14989.08
475.81	15130.39
476.02	15406.87
476.23	15288.09
476.44	15519.51
476.64	15677.20
476.85	15693.58
477.06	15798.03
477.27	15879.95
477.47	16084.75
477.68	16078.60
477.89	16264.97
478.09	16291.59
478.30	16267.02
478.51	16449.28
478.71	16576.26
478.92	16713.47
479.13	16842.50
479.34	16717.57
479.54	17071.87
479.75	17168.12
479.96	17032.96
480.16	17325.82
480.37	17190.65
480.58	17331.96
480.78	17909.49
480.99	17833.71
481.20	17954.54
481.41	18032.36
481.61	18138.86
481.82	18271.98
482.03	18321.13
482.23	18198.25
482.44	18616.04
482.65	18835.17
482.85	18831.07
483.06	19105.50
483.27	18943.71
483.47	18884.32
483.68	19275.48
483.89	19400.41
484.09	19322.59
484.30	19664.60
484.51	19717.84
484.71	20080.33
484.92	19889.87
485.13	20033.23
485.33	20049.61
485.54	19881.68
485.75	20623.05
485.95	20451.02
486.16	20379.34
486.37	20844.23
486.57	20893.38
486.78	20758.21
486.98	20911.81
487.19	21382.84
487.40	20969.15
487.60	21262.01
487.81	21550.78
488.02	21450.42
488.22	21372.60
488.43	21567.16
488.64	21712.56
488.84	22079.15
489.05	21792.44
489.25	21857.97
489.46	22570.66
489.67	22087.34
489.87	22609.58
490.08	22582.95
490.29	22699.69
490.49	22898.34
490.70	23125.66
490.90	22931.11
491.11	23203.49
491.32	23348.89
491.52	23314.08
491.73	23565.98
491.94	23840.40
492.14	23482.01
492.35	23838.36
492.55	23842.45
492.76	23705.24
492.97	24069.78
493.17	24125.07
493.38	24188.56
493.58	24264.33
493.79	24346.25
494.00	24426.12
494.20	24780.42
494.41	24817.29
494.61	24831.62
494.82	24964.74
495.02	24862.34
495.23	25134.72
495.44	25015.94
495.64	25740.92
495.85	25362.04
496.05	25521.79
496.26	25495.16
496.47	25704.06
496.67	25714.30
496.88	25898.61
497.08	25683.58
497.29	26070.64
497.49	26205.81
497.70	26607.21
497.91	26723.94
498.11	26613.35
498.32	26701.42
498.52	26769.00
498.73	27074.15
498.93	26760.81
499.14	27055.72
499.34	26758.76
499.55	27326.05
499.76	27211.36
499.96	27154.02
500.17	27344.48
500.37	27254.37
500.58	27733.59
500.78	27811.42
500.99	27602.52
501.19	27913.81
501.40	27680.35
501.60	27948.63
501.81	27911.77
502.02	28003.92
502.22	27987.54
502.43	28513.87
502.63	28769.86
502.84	28343.89
503.04	28061.27
503.25	28587.60
503.45	28710.47
503.66	28837.45
503.86	28810.82
504.07	29054.53
504.27	28989.00
504.48	29343.30
504.68	29388.35
504.89	29394.50
505.09	29736.51
505.30	29664.83
505.50	29509.18
505.71	29347.39
505.91	29785.66
506.12	29404.74
506.32	29650.49
506.53	30193.20
506.73	29974.07
506.94	30043.70
507.14	30203.44
507.35	29963.83
507.55	30248.50
507.76	30498.35
507.96	29822.52
508.17	30328.37
508.37	30502.45
508.58	30535.21
508.78	30514.73
508.99	30967.34
509.19	30625.32
509.40	30551.60
509.60	30887.46
509.81	30850.60
510.01	31086.12
510.22	30797.35
510.42	31131.17
510.63	31426.08
510.83	31262.24
511.04	31286.82
511.24	31442.46
511.44	31534.62
511.65	31567.39
511.85	31227.43
512.06	31532.57
512.26	31927.83
512.47	31716.89
512.67	31794.71
512.88	31817.24
513.08	31825.43
513.29	32343.57
513.49	31878.68
513.69	32060.95
513.90	31927.83
514.10	32181.78
514.31	32413.20
514.51	32634.38
514.72	32118.29
514.92	32601.61
515.13	32548.37
515.33	32706.06
515.53	32628.24
515.74	32544.27
515.94	32880.14
516.15	33076.74
516.35	32517.65
516.56	33082.89
516.76	32878.09
516.96	33187.33
517.17	33129.99
517.37	33025.54
517.58	33218.05
517.78	33746.43
517.99	33220.10
518.19	33527.30
518.39	33535.49
518.60	33549.82
518.80	33885.69
519.01	34049.53
519.21	33996.28
519.41	33760.76
519.62	33758.72
519.82	33895.93
520.03	33928.70
520.23	34160.12
520.43	34190.84
520.64	34641.39
520.84	34551.28
521.05	34694.64
521.25	34895.34
521.45	34842.09
521.66	34881.00
521.86	34704.88
522.07	34782.70
522.27	35081.70
522.47	35044.84
522.68	35208.68
522.88	34979.31
523.08	35534.31
523.29	35692.00
523.49	35544.55
523.70	35257.83
523.90	35812.83
524.10	35794.40
524.31	36128.22
524.51	35677.66
524.71	36277.72
524.92	36140.50
525.12	36410.84
525.33	36550.10
525.53	36306.39
525.73	36603.35
525.94	36462.04
526.14	36433.36
526.34	37172.68
526.55	37154.25
526.75	37191.11
526.95	37490.12
527.16	37066.19
527.36	37256.65
527.56	37258.70
527.77	37508.55
527.97	37285.32
528.17	37676.48
528.38	38301.11
528.58	37524.93
528.78	37981.63
528.99	37631.43
529.19	38329.78
529.39	37836.22
529.60	38460.85
529.80	38108.60
530.00	38167.99
530.21	38651.31
530.41	39425.45
530.61	38206.90
530.82	38796.72
531.02	39108.01
531.22	39079.34
531.43	39128.49
531.63	39648.68
531.83	39202.22
532.04	39755.17
532.24	39327.14
532.44	40013.21
532.64	39554.47
532.85	39896.48
533.05	39876.00
533.25	40015.26
533.46	39806.37
533.66	40684.95
533.86	40211.87
534.07	40426.90
534.27	40691.09
534.47	40719.76
534.67	40258.97
534.88	40725.91
535.08	40643.99
535.28	41426.31
535.49	41170.32
535.69	41219.47
535.89	41024.91
536.09	41360.78
536.30	41479.56
536.50	41530.76
536.70	41926.02
536.91	41557.38
537.11	42036.61
537.31	42528.12
537.51	42018.17
537.72	42208.64
537.92	42628.47
538.12	42569.08
538.32	42349.95
538.53	42831.22
538.73	42315.13
538.93	42732.92
539.13	42728.82
539.34	42786.16
539.54	42622.33
539.74	42921.33
539.94	42968.43
540.15	42487.16
540.35	43316.59
540.55	43154.80
540.75	43277.68
540.96	43519.34
541.16	43445.61
541.36	43558.25
541.56	43521.38
541.77	44082.53
541.97	43851.11
542.17	44205.41
542.37	44135.77
542.58	44078.43
542.78	43996.51
542.98	44293.47
543.18	44393.82
543.38	44526.94
543.59	44850.52
543.79	44547.42
543.99	44592.47
544.19	44758.36
544.40	44506.46
544.60	44997.97
544.80	44909.91
545.00	44950.87
545.20	45122.90
545.41	45061.46
545.61	44983.63
545.81	45354.32
546.01	45712.71
546.21	45458.76
546.42	44995.92
546.62	45434.19
546.82	45528.39
547.02	45436.23
547.22	45866.31
547.43	45698.37
547.63	45667.66
547.83	46077.25
548.03	45667.66
548.23	46150.98
548.44	46003.52
548.64	46318.91
548.84	46382.40
549.04	46296.38
549.24	46249.28
549.45	46593.34
549.65	46150.98
549.85	46433.60
550.05	46734.65
550.25	46892.34
550.45	47297.84
550.66	46740.79
550.86	46458.17
551.06	46974.26
551.26	47050.03
551.46	47099.19
551.66	47113.52
551.87	47267.12
552.07	47166.77
552.27	47308.08
552.47	47086.90
552.67	46818.61
552.87	47541.55
553.07	47324.46
553.28	47490.35
553.48	47801.64
553.68	47437.10
553.88	47861.03
554.08	47789.35
554.28	47396.14
554.48	47697.19
554.69	47445.29
554.89	47652.14
555.09	47670.57
555.29	47373.61
555.49	48186.66
555.69	47787.30
555.89	47887.65
556.10	48235.81
556.30	47633.71
556.50	48117.03
556.70	47994.15
556.90	48465.18
557.10	47838.50
557.30	47760.68
557.50	48688.41
557.70	48155.94
557.91	48551.20
558.11	48069.92
558.31	48682.27
558.51	48471.32
558.71	48614.68
558.91	48925.97
559.11	48397.60
559.31	48366.88
559.51	48538.91
559.72	48573.72
559.92	48866.58
560.12	48729.37
560.32	48966.93
560.52	48839.96
560.72	48956.69
560.92	48985.36
561.12	48971.03
561.32	49337.62
561.52	48770.33
561.72	49265.94
561.93	48794.90
562.13	49106.19
562.33	48923.93
562.53	49747.21
562.73	49153.30
562.93	49116.43
563.13	49272.08
563.33	48866.58
563.53	48962.84
563.73	48987.41
563.93	49607.95
564.13	49521.93
564.33	49489.16
564.53	49513.74
564.74	49607.95
564.94	49257.74
565.14	49812.74
565.34	49362.19
565.54	49765.64
565.74	49657.10
565.94	49964.29
566.14	49806.60
566.34	49728.78
566.54	50105.60
566.74	49446.16
566.94	50066.69
567.14	50107.65
567.34	49849.61
567.54	49681.67
567.74	49767.69
567.94	50197.76
568.14	50359.55
568.34	49876.23
568.54	50062.60
568.74	50474.24
568.94	50289.92
569.14	50695.42
569.34	49874.18
569.54	50500.86
569.75	49884.42
569.95	50070.79
570.15	50859.26
570.35	50496.77
570.55	50502.91
570.75	50654.46
570.95	50543.87
571.15	50568.44
571.35	50871.54
571.55	50902.26
571.75	50218.24
571.95	50728.19
572.15	50576.64
572.35	51105.01
572.55	50742.52
572.75	51201.27
572.95	50980.09
573.15	50621.69
573.35	50945.27
573.55	50924.79
573.75	51006.71
573.95	51201.27
574.15	50787.58
574.35	51215.60
574.55	51348.72
574.75	50973.94
574.95	51418.35
575.15	51170.55
575.34	51395.82
575.54	51574.00
575.74	51920.10
575.94	51530.99
576.14	51199.22
576.34	51758.31
576.54	51936.49
576.74	51965.16
576.94	51936.49
577.14	52055.27
577.34	52534.49
577.54	51893.48
577.74	52278.50
577.94	52206.82
578.14	52143.33
578.34	52151.52
578.54	51844.33
578.74	51870.95
578.94	52688.09
579.14	52204.77
579.34	52255.97
579.54	52178.15
579.74	52802.78
579.94	52094.18
580.13	52532.45
580.33	52567.26
580.53	52538.59
580.73	52823.26
580.93	52853.98
581.13	52786.39
581.33	52475.10
581.53	52780.25
581.73	52464.86
581.93	53173.46
582.13	53032.15
582.33	53009.62
582.53	52858.07
582.73	53132.50
582.92	53378.26
583.12	53462.22
583.32	53322.96
583.52	53081.30
583.72	53224.66
583.92	53216.47
584.12	53312.72
584.32	53540.05
584.52	53566.67
584.72	53314.77
584.92	53679.31
585.11	54219.97
585.31	53853.39
585.51	53822.67
585.71	53906.63
585.91	54058.18
586.11	53554.38
586.31	54031.56
586.51	54467.78
586.71	53982.41
586.91	54146.25
587.10	54273.22
587.30	54154.44
587.50	54127.81
587.70	54328.52
587.90	54697.15
588.10	54541.50
588.30	54291.65
588.50	54668.48
588.69	54279.36
588.89	54160.58
589.09	54750.40
589.29	54750.40
589.49	54973.63
589.69	53847.24
589.89	54742.20
590.08	54836.41
590.28	55037.11
590.48	54897.85
590.68	54955.19
590.88	55227.57
591.08	54957.24
591.28	54631.61
591.47	55450.80
591.67	55157.94
591.87	54924.47
592.07	54840.51
592.27	54676.67
592.47	55127.22
592.67	55137.46
592.86	55452.85
593.06	55231.67
593.26	55334.07
593.46	55491.76
593.66	55407.79
593.86	55276.72
594.05	55327.92
594.25	55440.56
594.45	55112.89
594.65	55391.41
594.85	55166.13
595.05	55604.40
595.24	55927.98
595.44	55962.79
595.64	55708.85
595.84	55874.73
596.04	55770.28
596.23	55975.08
596.43	56448.16
596.63	55653.55
596.83	55905.45
597.03	56505.51
597.22	56155.30
597.42	55983.27
597.62	56280.23
597.82	55901.36
598.02	56267.94
598.21	56401.06
598.41	56153.26
598.61	56550.56
598.81	56472.74
599.01	56415.40
599.20	56155.30
599.40	56624.29
599.60	56274.09
599.80	56241.32
600.00	56544.42
600.19	56845.47
600.39	56552.61
600.59	57195.67
600.79	56747.17
600.98	56515.75
601.18	56997.02
601.38	56945.82
601.58	56911.00
601.78	57334.93
601.97	56732.83
602.17	57549.97
602.37	57562.26
602.57	57224.34
602.76	57699.47
602.96	57246.87
603.16	57453.72
603.36	57210.01
603.55	57494.67
603.75	56982.68
603.95	57459.86
604.15	57709.71
604.34	57463.96
604.54	57674.90
604.74	57570.45
604.94	58174.60
605.13	57691.28
605.33	57736.34
605.53	57429.14
605.73	57709.71
605.92	57943.18
606.12	57717.90
606.32	57734.29
606.52	57748.62
606.71	57951.37
606.91	58129.54
607.11	57916.56
607.30	58195.08
607.50	57978.00
607.70	58176.65
607.90	58219.66
608.09	58233.99
608.29	58217.61
608.49	58387.59
608.68	58406.02
608.88	58272.90
609.08	58522.76
609.28	58334.34
609.47	58238.09
609.67	58956.92
609.87	58668.16
610.06	58809.47
610.26	58371.21
610.46	58299.53
610.66	58354.82
610.85	58711.17
611.05	58281.09
611.25	58592.39
611.44	58641.54
611.64	58930.30
611.84	58270.85
612.03	58295.43
612.23	58305.67
612.43	58788.99
612.62	58621.06
612.82	58915.96
613.02	58877.05
613.21	58569.86
613.41	58440.84
613.61	58612.87
613.80	58068.11
614.00	58662.02
614.20	58928.25
614.39	58741.89
614.59	58592.39
614.79	58766.46
614.98	58555.52
615.18	58924.16
615.38	58989.69
615.57	58279.05
615.77	58131.59
615.97	58696.83
616.16	58442.88
616.36	58696.83
616.56	58580.10
616.75	58369.16
616.95	58961.02
617.15	58823.81
617.34	58434.69
617.54	58627.20
617.74	59085.95
617.93	58434.69
618.13	58483.84
618.32	58778.75
618.52	58107.02
618.72	58553.47
618.91	58270.85
619.11	58352.77
619.31	58631.30
619.50	58688.64
619.70	58277.00
619.90	58229.90
620.09	58156.17
620.29	58371.21
620.48	58059.91
620.68	59020.41
620.88	57969.80
621.07	58387.59
621.27	58291.33
621.46	57922.70
621.66	58479.75
621.86	57879.69
622.05	57973.90
622.25	58530.95
622.44	57947.28
622.64	57779.34
622.84	58569.86
623.03	57722.00
623.23	57930.89
623.42	58277.00
623.62	58481.80
623.82	58092.68
624.01	58436.74
624.21	58256.52
624.40	58152.07
624.60	58174.60
624.80	58131.59
624.99	57926.80
625.19	57441.43
625.38	57840.78
625.58	58115.21
625.77	57941.13
625.97	58066.06
626.17	57701.52
626.36	58277.00
626.56	57930.89
626.75	57402.52
626.95	57992.33
627.14	57693.33
627.34	58018.95
627.54	57664.66
627.73	58279.05
627.93	58332.29
628.12	57459.86
628.32	57988.24
628.51	58164.36
628.71	57717.90
628.90	57582.74
629.10	57644.18
629.30	57842.83
629.49	57758.86
629.69	57818.25
629.88	57775.25
630.08	57891.98
630.27	58180.74
630.47	57644.18
630.66	57549.97
630.86	57840.78
631.05	57398.42
631.25	58354.82
631.44	57824.40
631.64	57568.40
631.84	57955.47
632.03	58227.85
632.23	57689.23
632.42	58326.15
632.62	57930.89
632.81	57285.78
633.01	57371.80
633.20	57648.27
633.40	57838.73
633.59	58006.67
633.79	57070.75
633.98	57461.91
634.18	57791.63
634.37	57423.00
634.57	57785.49
634.76	57504.91
634.96	57959.56
635.15	57482.39
635.35	57537.68
635.54	57171.10
635.74	57595.03
635.93	57599.12
636.13	57529.49
636.32	57785.49
636.52	57490.58
636.71	57558.16
636.91	57722.00
637.10	57978.00
637.30	57840.78
637.49	57322.65
637.69	57101.46
637.88	57969.80
638.08	57441.43
638.27	58162.31
638.46	57478.29
638.66	57210.01
638.85	57750.67
639.05	57902.22
639.24	57840.78
639.44	57150.62
639.63	57633.94
639.83	57433.24
640.02	57570.45
640.22	57455.76
640.41	57894.03
640.61	57402.52
640.80	57244.82
640.99	57539.73
641.19	57980.04
641.38	57285.78
641.58	57746.57
641.77	57433.24
641.97	57433.24
642.16	57392.28
642.36	57240.73
642.55	57765.01
642.74	57222.29
642.94	57724.05
643.13	57183.38
643.33	57695.38
643.52	57965.71
643.72	57619.60
643.91	57392.28
644.10	57707.66
644.30	57713.81
644.49	57519.25
644.69	57877.64
644.88	57801.87
645.08	57218.20
645.27	57418.90
645.46	57611.41
645.66	57668.75
645.85	57783.44
646.05	57615.50
646.24	57752.72
646.43	57971.85
646.63	57912.46
646.82	57834.64
647.02	57558.16
647.21	57341.08
647.40	57867.40
647.60	57597.07
647.79	57990.28
647.99	58018.95
648.18	57578.64
648.37	58199.18
648.57	58027.15
648.76	57296.02
648.96	57689.23
649.15	58221.70
649.34	58250.38
649.54	58023.05
649.73	57472.15
649.92	58274.95
650.12	57582.74
650.31	57805.97
650.51	57808.01
650.70	57851.02
650.89	57416.85
651.09	58563.71
651.28	57629.84
651.47	58092.68
651.67	57894.03
651.86	58297.48
652.06	57386.13
652.25	57891.98
652.44	57689.23
652.64	57564.31
652.83	57676.94
653.02	57318.55
653.22	57746.57
653.41	57554.07
653.60	57130.14
653.80	57291.93
653.99	57834.64
654.18	58104.97
654.38	57758.86
654.57	57910.41
654.76	57724.05
654.96	57656.46
655.15	57762.96
655.34	57613.46
655.54	57623.70
655.73	57511.06
655.92	57668.75
656.12	57672.85
656.31	57674.90
656.50	57703.57
656.70	57509.01
656.89	57523.35
657.08	57502.87
657.28	57408.66
657.47	57545.87
657.66	57840.78
657.86	57455.76
658.05	57255.06
658.24	57951.37
658.43	57414.80
658.63	57371.80
658.82	57808.01
659.01	57808.01
659.21	58006.67
659.40	57816.21
659.59	57246.87
659.79	57572.50
659.98	57681.04
660.17	57857.17
660.36	57355.41
660.56	57603.22
660.75	57480.34
660.94	57169.05
661.14	57357.46
661.33	57826.45
661.52	56935.58
661.71	57457.81
661.91	57390.23
662.10	57029.79
662.29	57590.93
662.49	57672.85
662.68	57359.51
662.87	57087.13
663.06	57330.84
663.26	57095.32
663.45	57558.16
663.64	57238.68
663.83	57859.21
664.03	57832.59
664.22	57083.03
664.41	57095.32
664.60	57654.42
664.80	57365.65
664.99	57406.61
665.18	57091.22
665.37	57306.26
665.57	57445.52
665.76	56833.18
665.95	56814.75
666.14	57035.93
666.34	57121.94
666.53	57336.98
666.72	57123.99
666.91	56929.44
667.11	56777.89
667.30	57128.09
667.49	57175.19
667.68	57269.40
667.87	56874.14
668.07	57347.22
668.26	57169.05
668.45	56954.01
668.64	56489.12
668.84	57308.31
669.03	57101.46
669.22	57066.65
669.41	56937.63
669.60	57083.03
669.80	56620.19
669.99	57519.25
670.18	56769.69
670.37	56636.58
670.57	56841.37
670.76	56863.90
670.95	56972.44
671.14	57142.42
671.33	56820.89
671.53	57187.48
671.72	57130.14
671.91	56622.24
672.10	56657.06
672.29	56417.44
672.48	56716.45
672.68	57357.46
672.87	56609.95
673.06	56603.81
673.25	56466.59
673.44	56247.46
673.64	56552.61
673.83	56085.67
674.02	56534.18
674.21	56067.24
674.40	56331.43
674.59	56564.90
674.79	56239.27
674.98	56345.76
675.17	56693.92
675.36	56155.30
675.55	56528.03
675.74	56073.38
675.94	56011.95
676.13	55973.03
676.32	56210.60
676.51	56747.17
676.70	56425.64
676.89	56362.15
677.08	56781.98
677.28	55882.92
677.47	56063.14
677.66	56710.30
677.85	56325.28
678.04	56452.26
678.23	56544.42
678.42	56253.61
678.62	56089.77
678.81	56032.42
679.00	55835.82
679.19	56351.91
679.38	55829.68
679.57	56011.95
679.76	56134.82
679.96	56343.72
680.15	55671.98
680.34	56003.75
680.53	55991.47
680.72	55758.00
680.91	55973.03
681.10	55651.50
681.29	55993.51
681.48	55270.58
681.68	55667.89
681.87	55471.28
682.06	55866.54
682.25	54856.89
682.44	55231.67
682.63	55567.54
682.82	55106.74
683.01	55313.59
683.20	54803.64
683.39	55282.87
683.59	55059.64
683.78	54918.33
683.97	54815.93
684.16	55221.43
684.35	54932.67
684.54	55104.70
684.73	55289.01
684.92	54985.91
685.11	54944.95
685.30	54623.42
685.49	55137.46
685.69	54844.60
685.88	54805.69
686.07	54631.61
686.26	54768.83
686.45	54633.66
686.64	54498.50
686.83	55342.26
687.02	54648.00
687.21	54750.40
687.40	54453.44
687.59	54561.98
687.78	54787.26
687.97	55063.74
688.16	54959.29
688.35	54596.80
688.54	54385.86
688.74	54461.63
688.93	53728.46
689.12	54469.82
689.31	54392.00
689.50	54660.29
689.69	53896.39
689.88	53912.78
690.07	54185.16
690.26	53869.77
690.45	54394.05
690.64	54224.07
690.83	54195.40
691.02	53826.76
691.21	54129.86
691.40	53638.35
691.59	54088.90
691.78	53677.26
691.97	53746.89
692.16	53662.93
692.35	53695.69
692.54	53726.41
692.73	53896.39
692.92	53429.46
693.11	53585.10
693.30	53535.95
693.49	53984.46
693.68	53603.53
693.87	53630.16
694.06	53247.19
694.25	53396.69
694.44	52933.85
694.63	53200.08
694.82	53566.67
695.01	53449.94
695.20	53275.86
695.39	52661.47
695.58	52845.79
695.77	52890.84
695.96	52843.74
696.15	52946.14
696.34	52591.84
696.53	52827.35
696.72	52923.61
696.91	52413.66
697.10	52358.37
697.29	52485.34
697.48	52882.65
697.67	52432.10
697.86	52432.10
698.05	52339.94
698.24	52884.70
698.43	52163.81
698.62	52172.00
698.81	51926.25
699.00	52749.53
699.19	52237.54
699.38	52122.85
699.57	51840.23
699.76	52565.21
699.95	52149.48
700.14	52135.14
700.32	52116.71
700.51	51973.35
700.70	52325.60
700.89	52065.51
701.08	51989.73
701.27	51508.46
701.46	52085.99
701.65	51135.73
701.84	51950.82
702.03	51801.32
702.22	51414.26
702.41	51926.25
702.60	51608.81
702.79	51889.38
702.98	51643.63
703.17	51635.44
703.35	51217.65
703.54	51283.19
703.73	51881.19
703.92	51270.90
704.11	51356.91
704.30	51207.41
704.49	51272.95
704.68	51305.71
704.87	51463.41
705.06	51045.62
705.25	50662.65
705.43	51080.44
705.62	51086.58
705.81	50939.13
706.00	51174.64
706.19	50576.64
706.38	50615.55
706.57	50459.90
706.76	50851.06
706.95	50857.21
707.14	50601.21
707.32	50513.15
707.51	50316.54
707.70	50668.79
707.89	50699.51
708.08	50597.12
708.27	50572.54
708.46	50728.19
708.65	49892.61
708.84	50625.79
709.02	50492.67
709.21	50507.01
709.40	50001.16
709.59	50017.54
709.78	50013.44
709.97	50339.07
710.16	49882.37
710.34	49767.69
710.53	50228.48
710.72	49734.92
710.91	50330.88
711.10	50042.12
711.29	50181.38
711.48	49739.02
711.66	49861.90
711.85	49470.73
712.04	49464.59
712.23	49732.87
712.42	49812.74
712.61	49016.08
712.80	49397.01
712.98	49638.67
713.17	49278.22
713.36	49247.50
713.55	49595.66
713.74	49460.49
713.93	49323.28
714.11	49177.87
714.30	48864.53
714.49	48934.17
714.68	48983.32
714.87	49286.42
715.06	49116.43
715.24	48493.85
715.43	48997.65
715.62	48895.25
715.81	48600.35
716.00	48688.41
716.18	48569.63
716.37	48330.01
716.56	48299.30
716.75	48850.20
716.94	48559.39
717.12	48131.36
717.31	48901.40
717.50	48321.82
717.69	48385.31
717.88	48391.45
718.06	48196.90
718.25	48489.76
718.44	47766.82
718.63	48198.94
718.82	48127.27
719.00	47977.76
719.19	47750.44
719.38	47695.14
719.57	47410.48
719.76	47310.13
719.94	47228.21
720.13	47439.15
720.32	47775.02
720.51	47236.40
720.69	47090.99
720.88	46896.44
721.07	47113.52
721.26	46513.47
721.44	47009.07
721.63	46759.22
721.82	46769.46
722.01	46798.13
722.20	47312.17
722.38	46740.79
722.57	46396.73
722.76	46675.26
722.95	46517.56
723.13	46404.92
723.32	46427.45
723.51	46161.22
723.70	46159.17
723.88	46241.09
724.07	46204.22
724.26	46382.40
724.44	45872.45
724.63	46411.07
724.82	46179.65
725.01	45667.66
725.19	45790.53
725.38	46280.00
725.57	45792.58
725.76	45763.91
725.94	45675.85
726.13	45126.99
726.32	45757.77
726.51	45641.03
726.69	46009.67
726.88	45649.22
727.07	45563.21
727.25	45401.42
727.44	45868.36
727.63	45727.05
727.82	45466.95
728.00	45436.23
728.19	45096.27
728.38	45399.37
728.56	45303.12
728.75	45391.18
728.94	45313.36
729.12	45380.94
729.31	45000.02
729.50	45393.23
729.69	45452.62
729.87	45536.59
730.06	45178.19
730.25	45067.60
730.43	45407.56
730.62	44922.19
730.81	45442.38
730.99	45176.14
731.18	45247.82
731.37	45141.33
731.55	45024.59
731.74	45348.17
731.93	45243.73
732.11	45165.90
732.30	45311.31
732.49	44553.56
732.67	45184.33
732.86	45045.07
733.05	44571.99
733.23	44701.01
733.42	44803.41
733.61	44647.77
733.79	44797.27
733.98	44752.21
734.17	44895.57
734.35	44711.25
734.54	44684.63
734.73	44369.24
734.91	44653.91
735.10	44432.73
735.29	44852.56
735.47	44463.45
735.66	44889.43
735.84	44651.86
736.03	44152.16
736.22	44483.93
736.40	44125.53
736.59	44277.08
736.78	44447.07
736.96	44268.89
737.15	44883.28
737.33	44150.11
737.52	44195.17
737.71	43828.58
737.89	44131.68
738.08	43957.60
738.27	43980.13
738.45	44442.97
738.64	44236.12
738.82	43959.65
739.01	44414.30
739.20	44240.22
739.38	43660.65
739.57	44137.82
739.75	43994.46
739.94	43771.24
740.13	43953.51
740.31	43863.39
740.50	43627.88
740.68	44014.94
740.87	43707.75
741.06	43695.46
741.24	43437.42
741.43	43461.99
741.61	43959.65
741.80	43437.42
741.99	43408.75
742.17	43330.92
742.36	43578.73
742.54	42673.52
742.73	43398.51
742.91	43900.26
743.10	43443.56
743.29	43543.91
743.47	43074.93
743.66	42986.86
743.84	43011.44
744.03	42993.01
744.21	42599.80
744.40	43339.11
744.59	43101.55
744.77	42876.27
744.96	42780.02
745.14	42853.75
745.33	42820.98
745.51	42538.36
745.70	42980.72
745.88	42569.08
746.07	42853.75
746.26	42227.07
746.44	42425.72
746.63	42646.90
746.81	42560.89
747.00	42616.18
747.18	42390.91
747.37	42364.28
747.55	42380.67
747.74	42775.92
747.92	42265.98
748.11	42124.67
748.29	42204.54
748.48	42499.45
748.66	42313.08
748.85	42255.74
749.03	42112.38
749.22	42016.13
749.41	42052.99
749.59	42218.88
749.78	42124.67
749.96	41575.81
750.15	42169.72
750.33	42132.86
750.52	41641.35
750.70	41790.85
750.89	42044.80
751.07	41629.06
751.26	41600.39
751.44	41526.66
751.63	41510.28
751.81	41348.49
752.00	41557.38
752.18	41463.18
752.37	41344.39
752.55	41108.88
752.74	41112.97
752.92	40965.52
753.10	40893.84
753.29	41047.44
753.47	41100.68
753.66	40770.96
753.84	41205.13
754.03	41039.25
754.21	40723.86
754.40	41268.62
754.58	41004.43
754.77	40766.87
754.95	40973.71
755.14	40840.59
755.32	40781.20
755.51	40596.88
755.69	40469.91
755.88	40727.95
756.06	40486.29
756.24	40375.70
756.43	40422.81
756.61	40441.24
756.80	40351.13
756.98	40318.36
757.17	40248.73
757.35	40461.72
757.54	40363.42
757.72	40076.70
757.90	40113.56
758.09	40183.19
758.27	40533.40
758.46	39818.66
758.64	40185.24
758.83	39949.73
759.01	40011.17
759.19	39611.81
759.38	39499.17
759.56	39800.22
759.75	39722.40
759.93	39861.66
760.12	39591.33
760.30	39640.48
760.48	39859.62
760.67	39443.88
760.85	39572.90
761.04	39513.51
761.22	39349.67
761.40	39519.65
761.59	39691.68
761.77	39202.22
761.96	39419.30
762.14	39114.16
762.32	39144.87
762.51	39191.98
762.69	39028.14
762.88	39032.24
763.06	39093.68
763.24	39048.62
763.43	38778.29
763.61	38583.73
763.80	38874.54
763.98	38700.47
764.16	39065.00
764.35	38393.27
764.53	38655.41
764.72	38856.11
764.90	38563.25
765.08	38446.52
765.27	38350.26
765.45	38249.91
765.63	38223.29
765.82	38315.45
766.00	38055.36
766.18	38032.83
766.37	38557.11
766.55	38084.03
766.74	38047.16
766.92	37871.04
767.10	38073.79
767.29	38069.69
767.47	37649.86
767.65	38188.47
767.84	37580.23
768.02	37983.68
768.20	37694.91
768.39	37639.62
768.57	37561.79
768.75	37365.19
768.94	37672.39
769.12	38155.71
769.30	37391.81
769.49	37463.49
769.67	37367.24
769.85	37316.04
770.04	37330.37
770.22	37215.69
770.40	36806.09
770.59	36935.12
770.77	37555.65
770.95	37291.46
771.14	37092.81
771.32	37047.75
771.50	36292.05
771.69	36890.06
771.87	36619.73
772.05	36761.04
772.24	36416.98
772.42	36433.36
772.60	36146.65
772.78	36031.96
772.97	35999.19
773.15	36543.95
773.33	36419.03
773.52	36306.39
773.70	36279.77
773.88	36347.35
774.07	36509.14
774.25	36335.06
774.43	36582.87
774.61	36261.33
774.80	36199.90
774.98	36365.78
775.16	36517.33
775.34	36574.67
775.53	36074.97
775.71	36335.06
775.89	36396.50
776.08	36013.53
776.26	36507.09
776.44	36152.79
776.62	35808.73
776.81	36529.62
776.99	36335.06
777.17	36632.02
777.35	36400.60
777.54	36666.83
777.72	36419.03
777.90	36203.99
778.08	36515.28
778.27	36525.52
778.45	36724.18
778.63	37014.99
778.81	36554.19
779.00	37047.75
779.18	36363.73
779.36	37041.61
779.54	36808.14
779.73	36576.72
779.91	36695.50
780.09	36695.50
780.27	36939.21
780.46	36691.41
780.64	37129.67
780.82	36816.33
781.00	36576.72
781.19	36922.83
781.37	36736.46
781.55	36689.36
781.73	37230.02
781.91	36771.28
782.10	36689.36
782.28	36783.57
782.46	37053.90
782.64	36845.01
782.82	36513.23
783.01	36898.25
783.19	36662.74
783.37	36756.94
783.55	36961.74
783.74	36894.16
783.92	36840.91
784.10	37561.79
784.28	36963.79
784.46	36845.01
784.64	36867.53
784.83	36632.02
785.01	37002.70
785.19	36457.94
785.37	36808.14
785.55	36713.94
785.74	36638.16
785.92	36605.39
786.10	36472.28
786.28	36416.98
786.46	36556.24
786.64	36290.01
786.83	36435.41
787.01	36427.22
787.19	36586.96
787.37	36468.18
787.55	36316.63
787.74	36210.14
787.92	36488.66
788.10	35769.82
788.28	35892.70
788.46	36128.22
788.64	35569.12
788.82	36144.60
789.01	35909.08
789.19	35847.64
789.37	35792.35
789.55	35614.18
789.73	35573.22
789.91	35626.46
790.09	35726.81
790.28	35587.55
790.46	35333.60
790.64	35821.02
790.82	35438.05
791.00	35442.15
791.18	35063.27
791.36	35798.49
791.55	35552.74
791.73	35413.48
791.91	34854.38
792.09	34995.69
792.27	34698.73
792.45	35204.58
792.63	34930.16
792.81	34924.01
793.00	34813.42
793.18	34543.09
793.36	34993.64
793.54	34434.55
793.72	34280.95
793.90	34270.71
794.08	34158.07
794.26	34381.30
794.44	33936.89
794.62	33693.18
794.81	33957.37
794.99	33773.05
795.17	33840.64
795.35	33627.65
795.53	33549.82
795.71	33521.15
795.89	33326.60
796.07	33404.42
796.25	33119.75
796.43	33433.09
796.61	32816.65
796.80	32941.58
796.98	32792.08
797.16	32833.04
797.34	33224.20
797.52	33043.98
797.70	33027.59
797.88	32904.71
798.06	32347.67
798.24	32552.46
798.42	32732.68
798.60	32419.35
798.78	32474.64
798.96	32286.23
799.14	32275.99
799.32	32362.00
799.51	32011.80
799.69	31919.64
799.87	32134.68
800.05	31890.97
800.23	31933.98
800.41	31612.45
800.59	31657.50
800.77	31350.31
800.95	31464.99
801.13	31456.80
801.31	31264.29
801.49	31137.32
801.67	30955.05
801.85	31405.60
802.03	31174.18
802.21	30703.15
802.39	30914.09
802.57	31151.65
802.75	30797.35
802.93	30875.18
803.11	30719.53
803.29	30797.35
803.47	30463.54
803.65	30572.08
803.83	30268.98
804.01	30451.25
804.19	30359.09
804.37	30117.43
804.55	30072.37
804.73	30055.99
804.91	29910.58
805.09	30107.19
805.27	29799.99
805.45	30117.43
805.63	29892.15
805.81	29869.62
805.99	29969.97
806.17	29836.86
806.35	29296.19
806.53	29281.86
806.71	29382.21
806.89	29158.98
807.07	29324.86
807.25	29326.91
807.43	28917.32
807.61	29240.90
807.79	29115.97
807.97	28716.62
808.15	28851.78
808.33	29003.33
808.51	28724.81
808.69	28907.08
808.87	28679.75
809.05	28290.64
809.23	28520.01
809.41	28386.89
809.59	28296.78
809.77	28452.43
809.95	27999.83
810.13	28257.87
810.31	28440.14
810.49	27907.67
810.67	28118.61
810.84	27960.92
811.02	28030.55
811.20	27772.50
811.38	27833.94
811.56	27569.76
811.74	27854.42
811.92	27700.83
812.10	27487.84
812.28	27649.63
812.46	27700.83
812.64	27440.73
812.82	27319.90
813.00	27313.76
813.18	27496.03
813.36	27070.05
813.53	26945.12
813.71	26846.82
813.89	27061.86
814.07	26994.28
814.25	26908.26
814.43	26832.49
814.61	27070.05
814.79	26836.58
814.97	26588.78
815.15	27090.53
815.33	26500.72
815.50	26400.37
815.68	26492.52
815.86	26680.94
816.04	26592.87
816.22	26228.34
816.40	26238.58
816.58	26373.74
816.76	26246.77
816.94	26183.28
817.11	26037.87
817.29	26101.36
817.47	26310.25
817.65	26023.54
817.83	26019.44
818.01	25736.82
818.19	25624.18
818.37	25804.41
818.54	25527.93
818.72	25579.13
818.90	25691.77
819.08	25691.77
819.26	25632.38
819.44	25489.02
819.62	25331.33
819.80	25341.57
819.97	25470.59
820.15	25491.07
820.33	25267.84
820.51	25284.22
820.69	25034.37
820.87	25224.83
821.05	25233.02
821.22	25175.68
821.40	25245.31
821.58	25138.82
821.76	25058.95
821.94	25298.56
822.12	25007.75
822.29	24905.35
822.47	24696.46
822.65	24923.78
822.83	24850.05
823.01	24805.00
823.19	24612.49
823.36	24456.84
823.54	24284.81
823.72	24358.54
823.90	24561.29
824.08	24452.75
824.25	24348.30
824.43	24350.35
824.61	24288.91
824.79	24538.76
824.97	24245.90
825.15	24338.06
825.32	24028.82
825.50	24026.77
825.68	24016.53
825.86	24024.72
826.04	23971.47
826.21	24010.39
826.39	23989.91
826.57	24045.20
826.75	24002.19
826.93	23711.38
827.10	23840.40
827.28	23760.53
827.46	23824.02
827.64	23918.23
827.81	23404.19
827.99	23862.93
828.17	23322.27
828.35	23463.58
828.53	23617.18
828.70	23269.02
828.88	23731.86
829.06	23535.26
829.24	23518.87
829.41	23408.28
829.59	23463.58
829.77	23271.07
829.95	23080.61
830.12	23158.43
830.30	22959.78
830.48	23152.29
830.66	23154.33
830.84	23369.37
831.01	23023.26
831.19	22947.49
831.37	22730.41
831.55	22750.88
831.72	22668.97
831.90	22613.67
832.08	22699.69
832.25	22650.53
832.43	22668.97
832.61	22750.88
832.79	22656.68
832.96	22632.10
833.14	22505.13
833.32	22501.03
833.50	22648.49
833.67	22777.51
833.85	22773.41
834.03	22443.69
834.20	22630.05
834.38	22353.58
834.56	22349.48
834.74	22230.70
834.91	22191.79
835.09	22159.02
835.27	22177.45
835.44	22003.38
835.62	21853.87
835.80	21683.89
835.98	22052.53
836.15	21929.65
836.33	21853.87
836.51	22154.93
836.68	21853.87
836.86	21601.97
837.04	21995.18
837.21	21984.94
837.39	21978.80
837.57	21937.84
837.75	21716.66
837.92	21720.76
838.10	21718.71
838.28	21561.02
838.45	21427.90
838.63	21698.23
838.81	21528.25
838.98	21475.00
839.16	21585.59
839.34	21554.87
839.51	21311.16
839.69	21018.30
839.87	21176.00
840.04	21210.81
840.22	21313.21
840.40	21116.61
840.57	21472.95
840.75	21388.99
840.93	20874.95
841.10	20942.53
841.28	21216.96
841.46	21067.45
841.63	21128.89
841.81	20784.83
841.98	20897.47
842.16	20879.04
842.34	21024.45
842.51	20659.91
842.69	20987.58
842.87	20580.04
843.04	20838.08
843.22	20688.58
843.40	20704.96
843.57	20715.20
843.75	20917.95
843.92	20801.22
844.10	20870.85
844.28	20594.37
844.45	20856.51
844.63	20463.30
844.81	20537.03
844.98	20483.78
845.16	20555.46
845.33	20090.57
845.51	20383.43
845.69	20420.30
845.86	20248.27
846.04	20035.28
846.21	20399.82
846.39	20563.65
846.57	20428.49
846.74	20041.42
846.92	19990.22
847.09	19977.94
847.27	20158.16
847.45	20172.49
847.62	19994.32
847.80	19984.08
847.97	20088.53
848.15	20090.57
848.32	19627.73
848.50	19992.27
848.68	19750.61
848.85	19822.29
849.03	19689.17
849.20	19902.16
849.38	19629.78
849.56	19664.60
849.73	19627.73
849.91	19668.69
850.08	19779.28
850.26	19500.76
850.43	19576.53
850.61	19486.42
850.78	19310.30
850.96	19394.26
851.14	19365.59
851.31	19566.29
851.49	19293.91
851.66	19601.11
851.84	19506.90
852.01	19314.39
852.19	19214.04
852.36	19369.69
852.54	19175.13
852.71	19183.32
852.89	19193.56
853.07	18859.74
853.24	19168.99
853.42	18888.42
853.59	18867.94
853.77	19003.10
853.94	19037.92
854.12	19138.27
854.29	18835.17
854.47	18812.64
854.64	18960.09
854.82	18888.42
854.99	18757.35
855.17	18884.32
855.34	18882.27
855.52	18908.90
855.69	18861.79
855.87	18872.03
856.04	18734.82
856.22	18585.32
856.39	18646.76
856.57	18915.04
856.74	18796.26
856.92	18642.66
857.09	18499.30
857.27	18546.40
857.44	18609.89
857.62	18706.15
857.79	18429.67
857.97	18415.34
858.14	18274.03
858.32	18421.48
858.49	18251.50
858.67	18194.15
858.84	17977.07
859.02	18015.98
859.19	17882.86
859.37	18091.76
859.54	18001.65
859.72	18140.91
859.89	18179.82
860.06	18022.12
860.24	18001.65
860.41	17960.69
860.59	17835.76
860.76	18034.41
860.94	17594.10
861.11	17856.24
861.29	17784.56
861.46	17886.96
861.64	17813.23
861.81	17637.11
861.98	17555.19
862.16	17831.66
862.33	17647.35
862.51	17602.29
862.68	17645.30
862.86	17653.49
863.03	17366.78
863.21	17573.62
863.38	17561.33
863.55	17573.62
863.73	17497.84
863.90	17344.25
864.08	17510.13
864.25	17299.19
864.43	17422.07
864.60	17241.85
864.77	17293.05
864.95	17278.71
865.12	17334.01
865.30	17102.59
865.47	16987.90
865.64	17014.52
865.82	17168.12
865.99	17207.03
866.17	17067.77
866.34	17135.35
866.51	16856.83
866.69	16926.46
866.86	17065.72
867.04	16668.42
867.21	16924.41
867.38	16709.38
867.56	16867.07
867.73	16748.29
867.91	16713.47
868.08	16752.38
868.25	16701.19
868.43	16668.42
868.60	16469.76
868.78	16516.87
868.95	16760.58
869.12	16443.14
869.30	16482.05
869.47	16490.24
869.64	16238.34
869.82	16332.55
869.99	16367.37
870.16	16525.06
870.34	16115.47
870.51	16140.04
870.69	16062.22
870.86	15976.20
871.03	16008.97
871.21	16023.31
871.38	16088.84
871.55	16078.60
871.73	16068.36
871.90	15955.72
872.07	15992.59
872.25	15613.71
872.42	15910.67
872.59	15650.58
872.77	15593.23
872.94	15513.36
873.11	15621.91
873.29	15820.56
873.46	15718.16
873.63	15558.42
873.81	15531.80
873.98	15537.94
874.15	15603.47
874.33	15664.91
874.50	15585.04
874.67	15531.80
874.85	15503.12
875.02	15243.03
875.19	15114.01
875.37	15136.54
875.54	15083.29
875.71	15060.76
875.88	14876.44
876.06	15353.62
876.23	15204.12
876.40	14810.91
876.58	14954.27
876.75	15017.75
876.92	15013.66
877.10	14790.43
877.27	14712.61
877.44	14765.85
877.61	14815.01
877.79	14688.03
877.96	14851.87
878.13	14716.70
878.31	14411.56
878.48	14743.33
878.65	14667.55
878.82	14616.35
879.00	14532.39
879.17	14419.75
879.34	14468.90
879.51	14425.89
879.69	14356.26
879.86	14434.08
880.03	14376.74
880.21	14245.67
880.38	14405.41
880.55	14487.33
880.72	14313.25
880.90	14286.63
881.07	14194.47
881.24	14143.27
881.41	14456.61
881.59	14135.08
881.76	14223.14
881.93	14042.92
882.10	14028.59
882.28	14024.49
882.45	14049.07
882.62	14063.40
882.79	14251.81
882.96	13715.25
883.14	14290.73
883.31	14016.30
883.48	14102.31
883.65	13889.32
883.83	13952.81
884.00	13920.04
884.17	13942.57
884.34	14141.22
884.51	13965.10
884.69	13973.29
884.86	14079.79
885.03	13834.03
885.20	13750.06
885.38	13836.08
885.55	13711.15
885.72	13657.90
885.89	13586.22
886.06	13623.09
886.24	13666.10
886.41	13760.30
886.58	13788.97
886.75	13915.95
886.92	13539.12
887.10	13803.31
887.27	13397.81
887.44	13594.42
887.61	13606.70
887.78	13817.65
887.95	13612.85
888.13	13578.03
888.30	13625.14
888.47	13408.05
888.64	13471.54
888.81	13360.95
888.99	13588.27
889.16	13098.81
889.33	13283.13
889.50	13090.62
889.67	13199.16
889.84	13117.24
890.01	13010.75
890.19	13047.61
890.36	13281.08
890.53	13094.71
890.70	13182.77
890.87	13164.34
891.04	12932.92
891.22	13141.82
891.39	12767.04
891.56	12721.98
891.73	13043.51
891.90	12726.08
892.07	12848.96
892.24	12859.20
892.42	12769.09
892.59	12752.70
892.76	12814.14
892.93	12707.65
893.10	12951.35
893.27	12810.04
893.44	12871.48
893.61	12672.83
893.79	12799.80
893.96	12654.40
894.13	12801.85
894.30	12701.50
894.47	12889.92
894.64	12873.53
894.81	12769.09
894.98	12762.94
895.15	12629.82
895.33	12652.35
895.50	12676.93
895.67	12754.75
895.84	12660.54
896.01	12576.58
896.18	12531.52
896.35	12535.62
896.52	12451.65
896.69	12361.54
896.86	12496.71
897.04	12506.95
897.21	12629.82
897.38	12468.03
897.55	12369.73
897.72	12658.49
897.89	12511.04
898.06	12607.30
898.23	12617.54
898.40	12617.54
898.57	12549.95
898.74	12476.23
898.91	12425.03
899.08	12666.69
899.26	12607.30
899.43	12607.30
899.60	12597.06
899.77	12449.60
899.94	12480.32
900.11	12443.46
900.28	12433.22
900.45	12316.48
900.62	12224.33
900.79	12588.86
900.96	12336.96
901.13	12377.92
901.30	12441.41
901.47	12410.69
901.64	12343.11
901.81	12115.78
901.98	12384.07
902.15	12447.55
902.32	12328.77
902.49	12293.96
902.66	12508.99
902.83	12367.68
903.01	12392.26
903.18	12230.47
903.35	12392.26
903.52	12048.20
903.69	12230.47
903.86	12291.91
904.03	12199.75
904.20	12212.04
904.37	12427.07
904.54	12336.96
904.71	12126.02
904.88	12107.59
905.05	12267.33
905.22	12326.72
905.39	12173.13
905.56	12222.28
905.73	12281.67
905.90	12121.93
906.07	12289.86
906.24	12216.13
906.41	12199.75
906.58	12240.71
906.75	12347.20
906.92	12031.82
907.09	12236.61
907.26	12316.48
907.43	12246.85
907.60	11931.47
907.77	11951.95
907.93	12115.78
908.10	12060.49
908.27	12117.83
908.44	12097.35
908.61	11980.62
908.78	12138.31
908.95	12089.16
909.12	11992.90
909.29	12060.49
909.46	12062.54
909.63	11994.95
909.80	12085.06
909.97	11880.27
910.14	12273.48
910.31	12115.78
910.48	12035.91
910.65	11837.26
910.82	11644.75
910.99	11784.01
911.16	11968.33
911.33	11827.02
911.50	11751.24
911.66	11841.36
911.83	11933.51
912.00	11587.41
912.17	11644.75
912.34	11896.65
912.51	11716.43
912.68	11839.31
912.85	11624.27
913.02	11736.91
913.19	11652.94
913.36	11560.78
913.53	11626.32
913.70	11468.62
913.86	11636.56
914.03	11616.08
914.20	11632.46
914.37	11450.19
914.54	11599.70
914.71	11480.91
914.88	11239.25
915.05	11456.34
915.22	11247.44
915.39	11243.35
915.55	11382.61
915.72	11261.78
915.89	11419.47
916.06	11177.81
916.23	11220.82
916.40	11118.42
916.57	11198.29
916.74	11186.01
916.91	11226.96
917.07	10975.06
917.24	11026.26
917.41	10850.14
917.58	11079.51
917.75	11046.74
917.92	10917.72
918.09	11026.26
918.26	10733.40
918.42	10901.34
918.59	11054.94
918.76	10776.41
918.93	10790.75
919.10	10631.01
919.27	10635.10
919.44	10743.64
919.60	10610.53
919.77	10757.98
919.94	10641.25
920.11	10858.33
920.28	10573.66
920.45	10526.56
920.61	10446.69
920.78	10504.03
920.95	10276.71
921.12	10254.18
921.29	10215.27
921.46	10461.02
921.62	10297.19
921.79	10205.03
921.96	10311.52
922.13	10174.31
922.30	10033.00
922.47	9994.09
922.63	10049.38
922.80	9871.21
922.97	9854.83
923.14	9656.17
923.31	9871.21
923.47	9906.02
923.64	10008.42
923.81	9887.59
923.98	9807.72
924.15	9617.26
924.32	9627.50
924.48	9768.81
924.65	9750.38
924.82	9641.84
924.99	9496.43
925.15	9533.29
925.32	9582.45
925.49	9496.43
925.66	9295.73
925.83	9303.92
925.99	9381.74
926.16	9308.02
926.33	9312.11
926.50	9097.08
926.67	9164.66
926.83	9154.42
927.00	9338.74
927.17	9135.99
927.34	9105.27
927.50	8974.20
927.67	8996.73
927.84	8968.06
928.01	8890.23
928.17	8966.01
928.34	8929.14
928.51	8697.72
928.68	8634.24
928.84	8636.28
929.01	8697.72
929.18	8505.21
929.35	8466.30
929.51	8488.83
929.68	8476.54
929.85	8533.89
930.02	8501.12
930.18	8523.65
930.35	8509.31
930.52	8445.82
930.69	8288.13
930.85	8238.98
931.02	8081.28
931.19	8390.53
931.36	8163.20
931.52	8015.75
931.69	8134.53
931.86	8038.28
932.02	8116.10
932.19	7919.50
932.36	8034.18
932.53	8028.04
932.69	7899.02
932.86	7868.30
933.03	7735.18
933.19	7831.43
933.36	7761.80
933.53	7827.34
933.70	7563.15
933.86	7688.07
934.03	7522.19
934.20	7597.96
934.36	7518.09
934.53	7292.82
934.70	7341.97
934.86	7436.17
935.03	7280.53
935.20	7153.55
935.36	7040.92
935.53	7122.84
935.70	7042.96
935.86	7214.99
936.03	6852.50
936.20	7085.97
936.36	6967.19
936.53	6995.86
936.70	6739.87
936.86	6836.12
937.03	6649.75
937.20	6633.37
937.36	6778.78
937.53	6557.60
937.70	6399.90
937.86	6471.58
938.03	6242.21
938.20	6406.05
938.36	6309.79
938.53	6059.94
938.70	6002.60
938.86	5818.28
939.03	6035.36
939.20	5883.81
939.36	5859.24
939.53	5851.05
939.70	5871.53
939.86	5593.00
940.03	5486.51
940.19	5459.88
940.36	5513.13
940.53	5500.84
940.69	5355.44
940.86	5498.80
941.03	5343.15
941.19	5187.50
941.36	5339.05
941.52	5117.87
941.69	5126.07
941.86	5007.28
942.02	5068.72
942.19	4833.21
942.35	4880.31
942.52	4911.03
942.69	4876.21
942.85	4753.34
943.02	4837.30
943.18	4753.34
943.35	4700.09
943.52	4724.66
943.68	4677.56
943.85	4595.64
944.01	4624.31
944.18	4585.40
944.35	4571.07
944.51	4489.15
944.68	4507.58
944.84	4485.05
945.01	4433.85
945.17	4509.63
945.34	4507.58
945.51	4409.28
945.67	4515.77
945.84	4343.74
946.00	4323.26
946.17	4343.74
946.33	4429.76
946.50	4267.97
946.67	4435.90
946.83	4286.40
947.00	4317.12
947.16	4282.30
947.33	4364.22
947.49	4286.40
947.66	4321.21
947.82	4356.03
947.99	4356.03
948.16	4458.43
948.32	4181.95
948.49	4288.45
948.65	4239.30
948.82	4296.64
948.98	4274.11
949.15	4249.54
949.31	4450.24
949.48	4298.69
949.64	4239.30
949.81	4288.45
949.97	4323.26
950.14	4313.02
950.30	4237.25
950.47	4349.89
950.63	4272.06
950.80	4194.24
950.96	4407.23
951.13	4474.81
951.30	4343.74
951.46	4345.79
951.63	4433.85
951.79	4356.03
951.96	4419.52
952.12	4356.03
952.29	4382.65
952.45	4241.34
952.62	4364.22
952.78	4497.34
952.94	4405.18
953.11	4388.80
953.27	4280.25
953.44	4558.78
953.60	4349.89
953.77	4323.26
953.93	4300.73
954.10	4384.70
954.26	4526.01
954.43	4353.98
954.59	4413.37
954.76	4485.05
954.92	4433.85
955.09	4487.10
955.25	4366.27
955.42	4372.41
955.58	4401.08
955.75	4462.52
955.91	4280.25
956.07	4315.07
956.24	4491.20
956.40	4458.43
956.57	4460.48
956.73	4313.02
956.90	4532.15
957.06	4343.74
957.23	4378.56
957.39	4401.08
957.56	4444.09
957.72	4315.07
957.88	4442.04
958.05	4558.78
958.21	4378.56
958.38	4476.86
958.54	4466.62
958.71	4503.48
958.87	4319.17
959.03	4372.41
959.20	4464.57
959.36	4425.66
959.53	4362.17
959.69	4394.94
959.85	4528.06
960.02	4425.66
960.18	4466.62
960.35	4333.50
960.51	4351.93
960.68	4450.24
960.84	4444.09
961.00	4437.95
961.17	4319.17
961.33	4497.34
961.50	4321.21
961.66	4491.20
961.82	4345.79
961.99	4419.52
962.15	4427.71
962.31	4237.25
962.48	4329.41
962.64	4419.52
962.81	4257.73
962.97	4417.47
963.13	4507.58
963.30	4417.47
963.46	4276.16
963.62	4407.23
963.79	4353.98
963.95	4401.08
964.12	4489.15
964.28	4392.89
964.44	4356.03
964.61	4362.17
964.77	4222.91
964.93	4558.78
965.10	4343.74
965.26	4374.46
965.42	4306.88
965.59	4294.59
965.75	4167.62
965.92	4390.84
966.08	4394.94
966.24	4233.15
966.41	4267.97
966.57	4298.69
966.73	4155.33
966.90	4237.25
967.06	4345.79
967.22	4224.96
967.39	4353.98
967.55	4229.06
967.71	4249.54
967.88	4343.74
968.04	4257.73
968.20	4282.30
968.37	4177.86
968.53	4237.25
968.69	4366.27
968.85	4196.29
969.02	4243.39
969.18	4153.28
969.34	4118.47
969.51	4161.47
969.67	4255.68
969.83	4110.27
970.00	4202.43
970.16	4165.57
970.32	4194.24
970.48	4097.99
970.65	4126.66
970.81	4120.51
970.97	4108.23
971.14	4083.65
971.30	4110.27
971.46	3993.54
971.63	4155.33
971.79	4089.79
971.95	4110.27
972.11	3981.25
972.28	4052.93
972.44	4020.16
972.60	4104.13
972.76	4044.74
972.93	4079.55
973.09	3985.35
973.25	3958.72
973.42	4011.97
973.58	4052.93
973.74	3991.49
973.90	3909.57
974.07	3973.06
974.23	3882.95
974.39	3876.80
974.55	3893.19
974.72	4003.78
974.88	3803.08
975.04	3860.42
975.20	3909.57
975.37	3940.29
975.53	3790.79
975.69	3911.62
975.85	3805.13
976.01	3807.17
976.18	3889.09
976.34	3794.89
976.50	3856.33
976.66	3753.93
976.83	3717.06
976.99	3755.97
977.15	3704.78
977.31	3735.50
977.47	3846.09
977.64	3733.45
977.80	3739.59
977.96	3790.79
978.12	3870.66
978.29	3790.79
978.45	3680.20
978.61	3760.07
978.77	3758.02
978.93	3676.10
979.10	3715.02
979.26	3743.69
979.42	3674.06
979.58	3612.62
979.74	3657.67
979.91	3647.43
980.07	3749.83
980.23	3725.26
980.39	3610.57
980.55	3831.75
980.71	3538.89
980.88	3583.95
981.04	3540.94
981.20	3579.85
981.36	3594.19
981.52	3604.42
981.68	3559.37
981.85	3592.14
982.01	3524.55
982.17	3633.10
982.33	3434.44
982.49	3530.70
982.65	3450.83
982.82	3629.00
982.98	3465.16
983.14	3610.57
983.30	3561.42
983.46	3438.54
983.62	3403.72
983.79	3446.73
983.95	3499.98
984.11	3440.59
984.27	3532.75
984.43	3559.37
984.59	3364.81
984.75	3440.59
984.91	3377.10
985.08	3350.48
985.24	3346.38
985.40	3248.08
985.56	3350.48
985.72	3395.53
985.88	3502.03
986.04	3291.09
986.20	3305.42
986.37	3239.89
986.53	3321.81
986.69	3336.14
986.85	3276.75
987.01	3340.24
987.17	3325.90
987.33	3270.61
987.49	3188.69
987.65	3379.15
987.82	3340.24
987.98	3178.45
988.14	3248.08
988.30	3280.85
988.46	3149.78
988.62	3219.41
988.78	3200.98
988.94	3166.16
989.10	3215.31
989.26	3260.37
989.42	3172.30
989.59	3084.24
989.75	3098.58
989.91	3141.58
990.07	3170.26
990.23	3088.34
990.39	3084.24
990.55	3037.14
990.71	3143.63
990.87	3039.19
991.03	3071.95
991.19	3100.62
991.35	3162.06
991.51	3153.87
991.67	3143.63
991.83	3088.34
992.00	3074.00
992.16	3061.71
992.32	3065.81
992.48	3108.82
992.64	3067.86
992.80	3100.62
992.96	3063.76
993.12	3035.09
993.28	3018.71
993.44	2955.22
993.60	3014.61
993.76	3018.71
993.92	2957.27
994.08	2895.83
994.24	3004.37
994.40	2994.13
994.56	2920.40
994.72	2963.41
994.88	2938.84
995.04	2920.40
995.20	3041.23
995.36	2885.59
995.52	2889.68
995.68	2926.55
995.84	2912.21
996.00	2944.98
996.16	2811.86
996.32	2826.20
996.48	2918.36
996.64	2918.36
996.80	2809.81
996.96	2820.05
997.12	2848.72
997.28	2791.38
997.44	2787.29
997.60	2815.96
997.76	2830.29
997.92	2815.96
998.08	2789.33
998.24	2764.76
998.40	2797.53
998.56	2830.29
998.72	2715.61
998.88	2777.05
999.04	2766.81
999.20	2787.29
999.36	2781.14
999.52	2836.44
999.68	2701.27
999.84	2801.62
1000.00	2697.17
1000.16	2736.09
1000.32	2668.50
1000.48	2752.47
1000.64	2703.32
1000.80	2619.35
1000.95	2609.11
1001.11	2648.02
1001.27	2652.12
1001.43	2654.17
1001.59	2549.72
1001.75	2650.07
1001.91	2615.26
1002.07	2656.22
1002.23	2711.51
1002.39	2611.16
1002.55	2656.22
1002.71	2645.98
1002.87	2744.28
1003.03	2498.52
1003.19	2580.44
1003.34	2625.50
1003.50	2629.59
1003.66	2639.83
1003.82	2559.96
1003.98	2568.15
1004.14	2617.30
1004.30	2478.04
1004.46	2492.38
1004.62	2553.82
1004.78	2508.76
1004.94	2521.05
1005.09	2584.54
1005.25	2510.81
1005.41	2519.00
1005.57	2537.43
1005.73	2568.15
1005.89	2529.24
1006.05	2498.52
1006.21	2514.91
1006.37	2494.43
1006.52	2412.51
1006.68	2461.66
1006.84	2545.63
1007.00	2486.23
1007.16	2482.14
1007.32	2445.27
1007.48	2451.42
1007.64	2523.10
1007.79	2422.75
1007.95	2428.89
1008.11	2387.93
1008.27	2432.99
1008.43	2396.12
1008.59	2410.46
1008.75	2469.85
1008.91	2355.16
1009.06	2394.08
1009.22	2412.51
1009.38	2398.17
1009.54	2398.17
1009.70	2373.60
1009.86	2422.75
1010.01	2404.32
1010.17	2408.41
1010.33	2461.66
1010.49	2367.45
1010.65	2371.55
1010.81	2373.60
1010.96	2338.78
1011.12	2279.39
1011.28	2314.20
1011.44	2379.74
1011.60	2254.81
1011.76	2371.55
1011.91	2432.99
1012.07	2285.53
1012.23	2232.29
1012.39	2248.67
1012.55	2277.34
1012.71	2207.71
1012.86	2293.72
1013.02	2277.34
1013.18	2215.90
1013.34	2357.21
1013.50	2220.00
1013.65	2263.01
1013.81	2189.28
1013.97	2136.03
1014.13	2254.81
1014.29	2211.81
1014.44	2240.48
1014.60	2248.67
1014.76	2287.58
1014.92	2277.34
1015.07	2187.23
1015.23	2197.47
1015.39	2191.33
1015.55	2144.22
1015.71	2244.57
1015.86	2230.24
1016.02	2082.78
1016.18	2197.47
1016.34	2187.23
1016.49	2172.89
1016.65	2232.29
1016.81	2213.85
1016.97	2174.94
1017.12	2179.04
1017.28	2185.18
1017.44	2097.12
1017.60	2097.12
1017.75	2179.04
1017.91	2170.85
1018.07	2158.56
1018.23	2109.41
1018.38	2111.46
1018.54	2160.61
1018.70	2127.84
1018.86	2076.64
1019.01	2037.73
1019.17	2111.46
1019.33	2160.61
1019.49	2047.97
1019.64	2154.46
1019.80	2109.41
1019.96	2037.73
1020.12	2152.42
1020.27	2041.82
1020.43	2101.22
1020.59	2045.92
1020.74	2076.64
1020.90	2103.26
1021.06	2004.96
1021.22	2179.04
1021.37	2107.36
1021.53	2052.06
1021.69	2146.27
1021.84	1959.91
1022.00	2060.26
1022.16	1980.39
1022.31	2015.20
1022.47	2004.96
1022.63	2105.31
1022.79	2025.44
1022.94	1949.67
1023.10	2027.49
1023.26	2021.35
1023.41	1959.91
1023.57	2029.54
1023.73	2084.83
1023.88	1974.24
1024.04	1912.80
1024.20	1947.62
1024.35	1949.67
1024.51	1943.52
1024.67	1923.04
1024.82	2066.40
1024.98	1920.99
1025.14	1945.57
1025.29	1925.09
1025.45	2070.50
1025.61	1933.28
1025.76	1929.19
1025.92	1933.28
1026.08	1951.71
1026.23	1998.82
1026.39	1941.47
1026.55	1945.57
1026.70	1976.29
1026.86	1927.14
1027.02	2033.63
1027.17	1945.57
1027.33	1939.43
1027.48	1972.19
1027.64	1982.43
1027.80	1880.04
1027.95	1904.61
1028.11	1804.26
1028.27	1830.88
1028.42	1984.48
1028.58	1896.42
1028.73	1906.66
1028.89	1785.83
1029.05	1968.10
1029.20	1914.85
>>>>>End Processed Spectral Data<<<<<
