SpectraSuite Data File
++++++++++++++++++++++++++++++++++++
Date: Tue Jun 13 12:02:25 CEST 2017
User: INFO_000
Dark Spectrum Present: No
Reference Spectrum Present: No
Number of Sampled Component Spectra: 1
Spectrometers: USB4H00879
Integration Time (usec): 30000 (USB4H00879)
Spectra Averaged: 1 (USB4H00879)
Boxcar Smoothing: 0 (USB4H00879)
Correct for Electrical Dark: No (USB4H00879)
Strobe/Lamp Enabled: No (USB4H00879)
Correct for Detector Non-linearity: No (USB4H00879)
Correct for Stray Light: No (USB4H00879)
Number of Pixels in Processed Spectrum: 3648
>>>>>Begin Processed Spectral Data<<<<<
345.13	1296.36
345.34	1296.36
345.56	1296.36
345.78	1339.37
345.99	1347.56
346.21	1495.02
346.42	1499.11
346.64	1517.54
346.86	1615.85
347.07	1476.59
347.29	1558.50
347.50	1482.73
347.72	1542.12
347.94	1533.93
348.15	1540.07
348.37	1492.97
348.59	1560.55
348.80	1505.26
349.02	1597.42
349.23	1587.18
349.45	1611.75
349.67	1607.66
349.88	1605.61
350.10	1646.57
350.31	1652.71
350.53	1615.85
350.75	1603.56
350.96	1634.28
351.18	1624.04
351.39	1607.66
351.61	1570.79
351.82	1718.25
352.04	1652.71
352.26	1576.94
352.47	1621.99
352.69	1640.42
352.90	1581.03
353.12	1574.89
353.34	1654.76
353.55	1656.81
353.77	1611.75
353.98	1646.57
354.20	1593.32
354.41	1640.42
354.63	1630.18
354.85	1687.53
355.06	1642.47
355.28	1578.98
355.49	1644.52
355.71	1546.22
355.92	1626.09
356.14	1710.05
356.35	1630.18
356.57	1665.00
356.79	1613.80
357.00	1642.47
357.22	1662.95
357.43	1576.94
357.65	1703.91
357.86	1581.03
358.08	1650.66
358.29	1613.80
358.51	1591.27
358.72	1728.49
358.94	1716.20
359.16	1585.13
359.37	1560.55
359.59	1634.28
359.80	1691.62
360.02	1568.74
360.23	1626.09
360.45	1681.38
360.66	1628.14
360.88	1624.04
361.09	1613.80
361.31	1642.47
361.52	1617.90
361.74	1773.54
361.95	1712.10
362.17	1693.67
362.38	1695.72
362.60	1699.81
362.81	1650.66
363.03	1671.14
363.24	1691.62
363.46	1722.34
363.67	1669.09
363.89	1621.99
364.10	1644.52
364.32	1599.46
364.53	1703.91
364.75	1665.00
364.96	1710.05
365.18	1619.94
365.39	1726.44
365.61	1615.85
365.82	1744.87
366.04	1599.46
366.25	1701.86
366.47	1720.29
366.68	1699.81
366.90	1611.75
367.11	1703.91
367.33	1716.20
367.54	1757.16
367.76	1751.01
367.97	1687.53
368.19	1687.53
368.40	1708.01
368.62	1632.23
368.83	1646.57
369.05	1726.44
369.26	1669.09
369.48	1718.25
369.69	1687.53
369.91	1767.40
370.12	1703.91
370.33	1808.36
370.55	1779.68
370.76	1718.25
370.98	1791.97
371.19	1726.44
371.41	1744.87
371.62	1673.19
371.84	1710.05
372.05	1769.44
372.27	1732.58
372.48	1726.44
372.69	1703.91
372.91	1765.35
373.12	1691.62
373.34	1712.10
373.55	1810.40
373.77	1822.69
373.98	1740.77
374.20	1828.84
374.41	1734.63
374.62	1789.92
374.84	1826.79
375.05	1808.36
375.27	1808.36
375.48	1806.31
375.70	1810.40
375.91	1888.23
376.12	1927.14
376.34	1810.40
376.55	1847.27
376.77	1763.30
376.98	1841.12
377.19	1816.55
377.41	1839.08
377.62	1826.79
377.84	1882.08
378.05	1914.85
378.27	1853.41
378.48	1916.90
378.69	1988.58
378.91	1869.80
379.12	1873.89
379.34	1914.85
379.55	1880.04
379.76	1884.13
379.98	1847.27
380.19	1929.19
380.41	1877.99
380.62	1855.46
380.83	1861.60
381.05	1853.41
381.26	1937.38
381.47	1859.56
381.69	1837.03
381.90	2062.30
382.12	1941.47
382.33	1886.18
382.54	1925.09
382.76	1908.71
382.97	1939.43
383.19	1880.04
383.40	1892.32
383.61	1900.52
383.83	1953.76
384.04	1994.72
384.25	1865.70
384.47	2000.87
384.68	2035.68
384.89	1920.99
385.11	1992.67
385.32	2009.06
385.54	1931.23
385.75	2009.06
385.96	1955.81
386.18	1998.82
386.39	1957.86
386.60	1982.43
386.82	2027.49
387.03	2066.40
387.24	1994.72
387.46	2031.58
387.67	1996.77
387.88	2009.06
388.10	2021.35
388.31	2109.41
388.52	2123.74
388.74	2121.70
388.95	2052.06
389.16	2047.97
389.38	2011.11
389.59	2041.82
389.80	2162.66
390.02	2062.30
390.23	2138.08
390.44	2072.54
390.66	2054.11
390.87	2050.02
391.08	2187.23
391.30	2279.39
391.51	2088.93
391.72	2195.42
391.94	2158.56
392.15	2121.70
392.36	2023.39
392.58	2199.52
392.79	2179.04
393.00	2205.66
393.22	2172.89
393.43	2220.00
393.64	2242.53
393.85	2201.57
394.07	2193.37
394.28	2148.32
394.49	2246.62
394.71	2232.29
394.92	2334.68
395.13	2263.01
395.35	2207.71
395.56	2265.05
395.77	2260.96
395.98	2248.67
396.20	2330.59
396.41	2389.98
396.62	2312.16
396.84	2324.44
397.05	2248.67
397.26	2297.82
397.47	2387.93
397.69	2291.68
397.90	2455.51
398.11	2389.98
398.32	2377.69
398.54	2297.82
398.75	2338.78
398.96	2277.34
399.18	2488.28
399.39	2381.79
399.60	2344.92
399.81	2428.89
400.03	2408.41
400.24	2523.10
400.45	2420.70
400.66	2424.80
400.88	2570.20
401.09	2537.43
401.30	2478.04
401.51	2590.68
401.73	2551.77
401.94	2496.47
402.15	2539.48
402.36	2535.39
402.58	2564.06
402.79	2562.01
403.00	2625.50
403.21	2562.01
403.43	2590.68
403.64	2639.83
403.85	2643.93
404.06	2682.84
404.27	2525.15
404.49	2574.30
404.70	2592.73
404.91	2670.55
405.12	2635.74
405.34	2623.45
405.55	2783.19
405.76	2617.30
405.97	2727.89
406.19	2736.09
406.40	2648.02
406.61	2740.18
406.82	2762.71
407.03	2729.94
407.25	2688.98
407.46	2729.94
407.67	2793.43
407.88	2807.77
408.09	2660.31
408.31	2670.55
408.52	2693.08
408.73	2797.53
408.94	2731.99
409.15	2764.76
409.37	2779.09
409.58	2867.16
409.79	2832.34
410.00	2844.63
410.21	2793.43
410.43	2844.63
410.64	2842.58
410.85	2842.58
411.06	2879.44
411.27	2844.63
411.48	2971.60
411.70	2916.31
411.91	2899.92
412.12	3061.71
412.33	2899.92
412.54	3045.33
412.76	3094.48
412.97	3000.27
413.18	2871.25
413.39	3014.61
413.60	3012.56
413.81	3037.14
414.03	3006.42
414.24	2934.74
414.45	3151.82
414.66	2990.03
414.87	3135.44
415.08	3133.39
415.30	3061.71
415.51	3065.81
415.72	3141.58
415.93	3137.49
416.14	3065.81
416.35	3088.34
416.56	3117.01
416.78	3198.93
416.99	3096.53
417.20	3174.35
417.41	3235.79
417.62	3155.92
417.83	3233.74
418.04	3276.75
418.26	3223.50
418.47	3317.71
418.68	3225.55
418.89	3172.30
419.10	3340.24
419.31	3235.79
419.52	3246.03
419.73	3442.64
419.95	3393.48
420.16	3291.09
420.37	3334.09
420.58	3358.67
420.79	3254.22
421.00	3395.53
421.21	3413.96
421.42	3282.89
421.63	3399.63
421.85	3422.16
422.06	3475.40
422.27	3459.02
422.48	3514.31
422.69	3520.46
422.90	3520.46
423.11	3590.09
423.32	3594.19
423.53	3596.23
423.75	3657.67
423.96	3737.54
424.17	3686.34
424.38	3667.91
424.59	3667.91
424.80	3950.53
425.01	3792.84
425.22	3745.73
425.43	3639.24
425.64	3766.21
425.85	3850.18
426.06	3684.30
426.28	3784.65
426.49	3829.70
426.70	3743.69
426.91	3803.08
427.12	3854.28
427.33	3928.00
427.54	3848.13
427.75	3915.72
427.96	3928.00
428.17	3882.95
428.38	4014.02
428.59	3983.30
428.80	3968.96
429.01	4018.11
429.23	3954.63
429.44	4120.51
429.65	3997.64
429.86	4093.89
430.07	3989.44
430.28	3944.39
430.49	4126.66
430.70	4206.53
430.91	4140.99
431.12	4173.76
431.33	4401.08
431.54	4112.32
431.75	4298.69
431.96	4165.57
432.17	4267.97
432.38	4339.65
432.59	4411.32
432.80	4267.97
433.01	4253.63
433.22	4374.46
433.43	4425.66
433.64	4458.43
433.85	4341.69
434.06	4380.61
434.27	4394.94
434.49	4390.84
434.70	4679.61
434.91	4483.00
435.12	4425.66
435.33	4505.53
435.54	4587.45
435.75	4503.48
435.96	4591.55
436.17	4476.86
436.38	4698.04
436.59	4638.65
436.80	4726.71
437.01	4753.34
437.22	4839.35
437.43	4648.89
437.64	4474.81
437.85	4908.98
438.06	4802.49
438.27	4702.14
438.48	4761.53
438.69	4782.01
438.90	4796.34
439.11	4734.90
439.32	4831.16
439.53	4870.07
439.74	4929.46
439.95	4931.51
440.16	4970.42
440.37	5029.81
440.57	4894.65
440.78	4902.84
440.99	4966.32
441.20	5046.20
441.41	5027.76
441.62	4990.90
441.83	5085.11
442.04	5150.64
442.25	5068.72
442.46	5220.27
442.67	5148.59
442.88	5392.30
443.09	5103.54
443.30	5214.13
443.51	5124.02
443.72	5302.19
443.93	5187.50
444.14	5267.38
444.35	5013.43
444.56	5302.19
444.77	5353.39
444.98	5314.48
445.19	5216.18
445.40	5220.27
445.61	5394.35
445.81	5439.40
446.02	5427.12
446.23	5562.28
446.44	5377.97
446.65	5271.47
446.86	5382.06
447.07	5441.45
447.28	5597.10
447.49	5676.97
447.70	5576.62
447.91	5541.80
448.12	5629.87
448.33	5658.54
448.54	5642.15
448.74	5588.91
448.95	5654.44
449.16	5486.51
449.37	5930.92
449.58	5597.10
449.79	5849.00
450.00	5693.35
450.21	5875.62
450.42	5883.81
450.63	5797.80
450.84	5910.44
451.05	5904.29
451.25	5795.75
451.46	5920.68
451.67	5943.21
451.88	6186.91
452.09	5969.83
452.30	5912.49
452.51	5939.11
452.72	6049.70
452.93	6354.85
453.13	6035.36
453.34	6018.98
453.55	6031.27
453.76	6162.34
453.97	6285.22
454.18	6191.01
454.39	6252.45
454.60	6291.36
454.81	6387.61
455.01	6399.90
455.22	6158.24
455.43	6547.36
455.64	6582.17
455.85	6649.75
456.06	6637.47
456.27	6410.14
456.48	6709.15
456.68	6467.49
456.89	6604.70
457.10	6694.81
457.31	6604.70
457.52	6678.43
457.73	6791.06
457.94	6821.78
458.14	6692.76
458.35	6938.52
458.56	6889.37
458.77	6795.16
458.98	7118.74
459.19	6942.61
459.39	7114.64
459.60	7313.30
459.81	6989.72
460.02	7288.72
460.23	7106.45
460.44	7344.02
460.65	7221.14
460.85	7393.17
461.06	7331.73
461.27	7165.84
461.48	7571.34
461.69	7544.72
461.89	7360.40
462.10	7520.14
462.31	7532.43
462.52	7481.23
462.73	7382.93
462.94	7655.31
463.14	7610.25
463.35	7616.40
463.56	8083.33
463.77	7769.99
463.98	7761.80
464.18	7853.96
464.39	8007.56
464.60	8013.70
464.81	8066.95
465.02	7999.37
465.23	8083.33
465.43	8034.18
465.64	8185.73
465.85	8265.60
466.06	8175.49
466.27	8443.78
466.47	8431.49
466.68	8497.02
466.89	8349.57
467.10	8564.61
467.30	8363.90
467.51	8488.83
467.72	8695.68
467.93	8548.22
468.14	8656.76
468.34	8820.60
468.55	8787.83
468.76	8683.39
468.97	8875.90
469.17	9097.08
469.38	8984.44
469.59	9408.37
469.80	8953.72
470.01	9054.07
470.21	9111.41
470.42	9449.33
470.63	9512.81
470.84	9455.47
471.04	9500.53
471.25	9426.80
471.46	9549.68
471.67	9654.12
471.87	9772.91
472.08	9865.07
472.29	9791.34
472.50	9541.49
472.70	9742.19
472.91	10008.42
473.12	10004.33
473.33	9940.84
473.53	10202.98
473.74	10045.29
473.95	10252.13
474.16	10473.31
474.36	10270.56
474.57	10573.66
474.78	10915.67
474.99	10569.57
475.19	10583.90
475.40	10815.32
475.61	10831.71
475.81	10968.92
476.02	11202.39
476.23	11126.61
476.44	11085.65
476.64	11167.57
476.85	11403.09
477.06	11202.39
477.27	11523.92
477.47	11540.30
477.68	11427.67
477.89	11628.37
478.09	11687.76
478.30	11704.14
478.51	11872.07
478.71	11929.42
478.92	11960.14
479.13	12040.01
479.34	12228.42
479.54	12126.02
479.75	12263.24
479.96	12418.88
480.16	12377.92
480.37	12463.94
480.58	12595.01
480.78	12799.80
480.99	12791.61
481.20	13131.58
481.41	13027.13
481.61	12908.35
481.82	13037.37
482.03	13197.11
482.23	13309.75
482.44	13532.98
482.65	13373.24
482.85	13430.58
483.06	13596.46
483.27	13551.41
483.47	13725.49
483.68	13731.63
483.89	13788.97
484.09	13739.82
484.30	13993.77
484.51	14006.06
484.71	14331.69
484.92	14284.58
485.13	14311.21
485.33	14329.64
485.54	14311.21
485.75	14481.19
485.95	14911.26
486.16	14853.92
486.37	14941.98
486.57	14880.54
486.78	14800.67
486.98	15009.56
487.19	14929.69
487.40	15296.28
487.60	15099.67
487.81	15353.62
488.02	15294.23
488.22	15316.76
488.43	15587.09
488.64	15587.09
488.84	15720.21
489.05	15931.15
489.25	15820.56
489.46	15935.24
489.67	15761.17
489.87	16103.18
490.08	16025.36
490.29	16113.42
490.49	16643.84
490.70	16443.14
490.90	16492.29
491.11	16361.22
491.32	16525.06
491.52	16639.75
491.73	16523.01
491.94	16805.63
492.14	16922.37
492.35	17106.68
492.55	17010.43
492.76	16994.04
492.97	17438.45
493.17	17297.14
493.38	17420.02
493.58	17413.88
493.79	17327.86
494.00	17415.93
494.20	17661.68
494.41	17520.37
494.61	17647.35
494.82	17854.19
495.02	17833.71
495.23	17989.36
495.44	18003.69
495.64	18360.04
495.85	18165.48
496.05	18304.74
496.26	18169.58
496.47	18663.14
496.67	18028.27
496.88	18554.60
497.08	18556.64
497.29	18714.34
497.49	18669.28
497.70	18738.91
497.91	19175.13
498.11	18605.80
498.32	19048.16
498.52	19031.77
498.73	19414.74
498.93	19338.97
499.14	19343.06
499.34	19410.65
499.55	19734.23
499.76	19474.13
499.96	19551.96
500.17	19527.38
500.37	19885.78
500.58	19691.22
500.78	19957.46
500.99	19992.27
501.19	20066.00
501.40	20000.46
501.60	19943.12
501.81	20295.37
502.02	20330.19
502.22	20129.48
502.43	20223.69
502.63	20451.02
502.84	20373.19
503.04	20266.70
503.25	20498.12
503.45	20539.08
503.66	20793.03
503.86	20219.60
504.07	20698.82
504.27	20801.22
504.48	21182.14
504.68	20848.32
504.89	21114.56
505.09	21114.56
505.30	21098.17
505.50	21089.98
505.71	20997.82
505.91	21120.70
506.12	21378.75
506.32	21221.05
506.53	21403.32
506.73	21454.52
506.94	21546.68
507.14	21542.58
507.35	21608.12
507.55	21860.02
507.76	21739.19
507.96	21763.76
508.17	21829.30
508.37	21896.88
508.58	21833.39
508.78	22064.82
508.99	22163.12
509.19	22167.21
509.40	22228.65
509.60	22281.90
509.81	22472.36
510.01	22091.44
510.22	22347.44
510.42	22312.62
510.63	22408.87
510.83	22400.68
511.04	22394.54
511.24	22683.30
511.44	22656.68
511.65	22367.91
511.85	22869.67
512.06	22732.45
512.26	22550.18
512.47	22787.75
512.67	22881.95
512.88	22945.44
513.08	22769.32
513.29	23078.56
513.49	23025.31
513.69	22896.29
513.90	23129.76
514.10	23254.69
514.31	23385.76
514.51	23410.33
514.72	23301.79
514.92	23426.71
515.13	23191.20
515.33	23434.91
515.53	23635.61
515.74	23645.85
515.94	23439.00
516.15	23631.51
516.35	23514.78
516.56	23670.42
516.76	23656.09
516.96	23705.24
517.17	23641.75
517.37	24049.30
517.58	24088.21
517.78	23955.09
517.99	24057.49
518.19	24037.01
518.39	24295.05
518.60	24356.49
518.80	24422.03
519.01	24282.77
519.21	24180.37
519.41	24356.49
519.62	24481.42
519.82	24807.05
520.03	24596.10
520.23	24934.02
520.43	24587.91
520.64	25015.94
520.84	25144.96
521.05	24888.96
521.25	25282.17
521.45	25042.56
521.66	25337.47
521.86	25003.65
522.07	25280.13
522.27	25511.55
522.47	25192.06
522.68	25335.42
522.88	25380.48
523.08	25706.10
523.29	25917.04
523.49	25826.93
523.70	25882.23
523.90	26193.52
524.10	25751.16
524.31	25900.66
524.51	25693.82
524.71	26052.21
524.92	26121.84
525.12	26533.48
525.33	26203.76
525.53	26742.38
525.73	26631.79
525.94	26279.54
526.14	26465.90
526.34	26340.97
526.55	26672.74
526.75	26508.91
526.95	26451.56
527.16	26605.16
527.36	26959.46
527.56	27131.49
527.77	27221.60
527.97	27307.62
528.17	27129.44
528.38	27471.45
528.58	27534.94
528.78	27659.87
528.99	27459.16
529.19	27737.69
529.39	27668.06
529.60	27373.15
529.80	27907.67
530.00	27852.38
530.21	27833.94
530.41	28315.22
530.61	28116.56
530.82	27946.58
531.02	28005.97
531.22	28323.41
531.43	28255.82
531.63	28302.93
531.83	28665.42
532.04	28859.98
532.24	28460.62
532.44	28776.01
532.64	28778.06
532.85	28616.27
533.05	28776.01
533.25	28935.75
533.46	28425.81
533.66	29703.74
533.86	28999.24
534.07	29523.52
534.27	29306.43
534.47	29898.30
534.67	29292.10
534.88	29290.05
535.08	29587.00
535.28	29861.43
535.49	29996.60
535.69	30137.91
535.89	30207.54
536.09	30461.49
536.30	30422.58
536.50	30309.94
536.70	30332.47
536.91	30606.89
537.11	30414.38
537.31	30486.06
537.51	30418.48
537.72	30993.96
537.92	30774.83
538.12	30932.52
538.32	30815.79
538.53	30987.82
538.73	30631.47
538.93	31096.36
539.13	31110.69
539.34	31118.89
539.54	30934.57
539.74	31434.27
539.94	31096.36
540.15	31194.66
540.35	31663.64
540.55	31481.38
540.75	31643.17
540.96	31413.79
541.16	31548.96
541.36	31657.50
541.56	31720.99
541.77	31860.25
541.97	31637.02
542.17	31989.27
542.37	31895.07
542.58	32001.56
542.78	31833.63
542.98	32347.67
543.18	32187.92
543.38	32458.26
543.59	32597.52
543.79	31739.42
543.99	32470.54
544.19	32853.51
544.40	32228.88
544.60	32855.56
544.80	32759.31
545.00	33121.80
545.20	33076.74
545.41	33093.13
545.61	32927.24
545.81	33369.60
546.01	32804.36
546.21	32851.47
546.42	33029.64
546.62	33146.37
546.82	33316.36
547.02	33189.38
547.22	33428.99
547.43	32871.95
547.63	33519.10
547.83	33529.34
548.03	33517.06
548.23	33457.67
548.44	33572.35
548.64	33392.13
548.84	33512.96
549.04	33846.78
549.24	33918.46
549.45	34043.38
549.65	33836.54
549.85	34094.58
550.05	34233.85
550.25	34166.26
550.45	34039.29
550.66	34129.40
550.86	33953.27
551.06	34321.91
551.26	34495.99
551.46	34194.93
551.66	34303.48
551.87	33996.28
552.07	34467.31
552.27	34201.08
552.47	34323.96
552.67	34524.66
552.87	34295.28
553.07	34688.49
553.28	34706.93
553.48	35016.17
553.68	34702.83
553.88	34921.96
554.08	34803.18
554.28	34858.48
554.48	35032.55
554.69	35182.06
554.89	34831.85
555.09	35053.03
555.29	34907.63
555.49	34964.97
555.69	35151.34
555.89	35120.62
556.10	35388.90
556.30	34868.72
556.50	35091.94
556.70	34850.28
556.90	35120.62
557.10	35196.39
557.30	35223.01
557.50	34952.68
557.70	35470.82
557.91	35595.74
558.11	35210.73
558.31	35636.70
558.51	35452.39
558.71	35610.08
558.91	36025.82
559.11	35311.08
559.31	35800.54
559.51	35474.91
559.72	35767.77
559.92	35663.33
560.12	35497.44
560.32	35870.17
560.52	35683.81
560.72	35784.16
560.92	35843.55
561.12	35980.76
561.32	36412.88
561.52	35636.70
561.72	36259.29
561.93	35917.28
562.13	36265.43
562.33	35689.95
562.53	36056.54
562.73	36238.81
562.93	36093.40
563.13	36077.02
563.33	36023.77
563.53	35878.36
563.73	35749.34
563.93	36060.63
564.13	36337.11
564.33	36222.42
564.53	36244.95
564.74	36312.53
564.94	36079.07
565.14	36253.14
565.34	36304.34
565.54	36177.37
565.74	36478.42
565.94	36623.83
566.14	36564.43
566.34	36435.41
566.54	36855.25
566.74	36412.88
566.94	36421.08
567.14	36574.67
567.34	36806.09
567.54	36677.07
567.74	36320.73
567.94	36523.47
568.14	36806.09
568.34	36857.29
568.54	36343.25
568.74	36656.59
568.94	36832.72
569.14	36771.28
569.34	36806.09
569.54	36910.54
569.75	36603.35
569.95	36924.88
570.15	37182.92
570.35	36898.25
570.55	36894.16
570.75	36726.22
570.95	37012.94
571.15	37062.09
571.35	37043.66
571.55	37385.67
571.75	37375.43
571.95	37273.03
572.15	37227.98
572.35	37674.43
572.55	37451.20
572.75	37506.50
572.95	37451.20
573.15	37342.66
573.35	37629.38
573.55	37129.67
573.75	37821.89
573.95	37277.13
574.15	37184.97
574.35	37494.21
574.55	37561.79
574.75	37348.81
574.95	37813.70
575.15	37557.70
575.34	37465.54
575.54	37619.14
575.74	37739.97
575.94	37733.82
576.14	37518.79
576.34	37592.51
576.54	38051.26
576.74	37873.09
576.94	38061.50
577.14	38172.09
577.34	38317.50
577.54	37973.44
577.74	38045.12
577.94	38176.19
578.14	38090.17
578.34	38161.85
578.54	37844.41
578.74	38073.79
578.94	38598.07
579.14	38280.63
579.34	38393.27
579.54	38323.64
579.74	38516.15
579.94	38122.94
580.13	38411.70
580.33	38710.71
580.53	38913.45
580.73	38741.42
580.93	38702.51
581.13	38405.56
581.33	38770.10
581.53	38944.17
581.73	38782.38
581.93	39054.76
582.13	38868.40
582.33	38825.39
582.53	38817.20
582.73	38749.62
582.92	38946.22
583.12	39411.11
583.32	38641.07
583.52	38747.57
583.72	38913.45
583.92	38872.49
584.12	39185.83
584.32	39615.91
584.52	39835.04
584.72	39343.53
584.92	39794.08
585.11	39802.27
585.31	39466.41
585.51	39757.22
585.71	39450.02
585.91	39495.08
586.11	39433.64
586.31	39228.84
586.51	39163.31
586.71	39429.54
586.91	39876.00
587.10	39503.27
587.30	39687.59
587.50	39806.37
587.70	39693.73
587.90	39693.73
588.10	40076.70
588.30	40005.02
588.50	40234.39
588.69	40013.21
588.89	39968.16
589.09	40304.02
589.29	40181.15
589.49	40316.31
589.69	40154.52
589.89	40232.35
590.08	40316.31
590.28	40142.24
590.48	40236.44
590.68	40213.91
590.88	40312.22
591.08	40437.14
591.28	40234.39
591.47	40496.53
591.67	40355.22
591.87	40226.20
592.07	40443.29
592.27	40211.87
592.47	40629.65
592.67	40910.22
592.86	40545.69
593.06	40310.17
593.26	40521.11
593.46	40404.38
593.66	40336.79
593.86	40467.86
594.05	40474.01
594.25	40498.58
594.45	40332.70
594.65	40756.63
594.85	40138.14
595.05	40623.51
595.24	40910.22
595.44	40873.36
595.64	41139.60
595.84	41043.34
596.04	40725.91
596.23	40791.44
596.43	41168.27
596.63	41031.05
596.83	41117.07
597.03	40957.33
597.22	41254.28
597.42	41006.48
597.62	41248.14
597.82	41026.96
598.02	41303.43
598.21	41588.10
598.41	40998.29
598.61	41276.81
598.81	41084.30
599.01	41377.16
599.20	41557.38
599.40	41364.87
599.60	41524.61
599.80	41704.84
600.00	41383.30
600.19	41248.14
600.39	41641.35
600.59	41821.57
600.79	41784.71
600.98	41760.13
601.18	41710.98
601.38	41866.63
601.58	42317.18
601.78	41997.70
601.97	41667.97
602.17	41870.72
602.37	42155.39
602.57	42292.60
602.76	42141.05
602.96	41823.62
603.16	42442.10
603.36	42218.88
603.55	42102.14
603.75	41807.23
603.95	42268.03
604.15	42229.12
604.34	42118.53
604.54	42302.84
604.74	42343.80
604.94	42507.64
605.13	42290.55
605.33	42644.85
605.53	42036.61
605.73	42577.27
605.92	42343.80
606.12	42843.51
606.32	42726.77
606.52	42474.87
606.71	42489.21
606.91	42810.74
607.11	42952.05
607.30	42941.81
607.50	42747.25
607.70	42702.20
607.90	42624.37
608.09	42544.50
608.29	42833.27
608.49	42640.76
608.68	42773.88
608.88	43126.13
609.08	43042.16
609.28	42857.84
609.47	42685.81
609.67	42970.48
609.87	42579.32
610.06	43140.46
610.26	43124.08
610.46	43124.08
610.66	42677.62
610.85	42810.74
611.05	43208.04
611.25	42581.37
611.44	43015.54
611.64	43193.71
611.84	42814.83
612.03	43181.42
612.23	42870.13
612.43	43251.05
612.62	42616.18
612.82	43363.69
613.02	43038.06
613.21	43144.56
613.41	42669.43
613.61	43238.76
613.80	42593.65
614.00	43273.58
614.20	43062.64
614.39	42960.24
614.59	43218.28
614.79	43007.34
614.98	43214.19
615.18	42950.00
615.38	43144.56
615.57	42644.85
615.77	43535.72
615.97	42931.57
616.16	43267.44
616.36	43025.78
616.56	43351.40
616.75	43318.64
616.95	42777.97
617.15	42900.85
617.34	43203.95
617.54	42577.27
617.74	43054.45
617.93	42829.17
618.13	43193.71
618.32	42808.69
618.52	42743.16
618.72	43099.50
618.91	43453.80
619.11	42626.42
619.31	42816.88
619.50	42780.02
619.70	43031.92
619.90	42812.79
620.09	43044.21
620.29	42659.19
620.48	42939.76
620.68	43029.87
620.88	42802.55
621.07	42521.98
621.27	43126.13
621.46	42511.74
621.66	42831.22
621.86	42913.14
622.05	42669.43
622.25	42888.56
622.44	42984.82
622.64	42671.48
622.84	42679.67
623.03	42587.51
623.23	42954.10
623.42	42812.79
623.62	42868.08
623.82	42831.22
624.01	42597.75
624.21	42763.64
624.40	42397.05
624.60	42646.90
624.80	42284.41
624.99	42268.03
625.19	42327.42
625.38	42587.51
625.58	42521.98
625.77	42536.31
625.97	42413.43
626.17	42136.96
626.36	42577.27
626.56	42751.35
626.75	42032.51
626.95	42700.15
627.14	42194.30
627.34	42782.07
627.54	42519.93
627.73	42468.73
627.93	42859.89
628.12	42124.67
628.32	42392.95
628.51	42536.31
628.71	42487.16
628.90	42681.72
629.10	42440.06
629.30	42644.85
629.49	42591.61
629.69	42771.83
629.88	42278.27
630.08	42501.50
630.27	42718.58
630.47	42351.99
630.66	42132.86
630.86	42745.20
631.05	42276.22
631.25	42728.82
631.44	42403.19
631.64	42358.14
631.84	42483.06
632.03	42438.01
632.23	41936.26
632.42	42585.46
632.62	42497.40
632.81	42147.20
633.01	42241.40
633.20	42114.43
633.40	42198.40
633.59	42302.84
633.79	41979.26
633.98	42591.61
634.18	42653.05
634.37	42233.21
634.57	42329.47
634.76	42323.32
634.96	42519.93
635.15	42567.03
635.35	42151.29
635.54	42243.45
635.74	42704.24
635.93	42235.26
636.13	42286.46
636.32	42380.67
636.52	42104.19
636.71	42091.90
636.91	42302.84
637.10	42501.50
637.30	42325.37
637.49	42333.56
637.69	42429.82
637.88	42139.00
638.08	42251.64
638.27	42417.53
638.46	42376.57
638.66	41952.64
638.85	42175.87
639.05	41981.31
639.24	42372.47
639.44	41827.71
639.63	42296.70
639.83	42247.55
640.02	42169.72
640.22	42263.93
640.41	42831.22
640.61	42063.23
640.80	42157.44
640.99	41973.12
641.19	42513.78
641.38	42317.18
641.58	42300.79
641.77	42284.41
641.97	42390.91
642.16	42065.28
642.36	42280.31
642.55	42253.69
642.74	42222.97
642.94	42397.05
643.13	41805.19
643.33	42390.91
643.52	42519.93
643.72	42403.19
643.91	42044.80
644.10	42257.79
644.30	42614.13
644.49	42040.70
644.69	42564.98
644.88	42030.46
645.08	42343.80
645.27	42268.03
645.46	42292.60
645.66	42333.56
645.85	42143.10
646.05	42401.14
646.24	42407.29
646.43	42370.43
646.63	42362.23
646.82	42362.23
647.02	42274.17
647.21	42059.13
647.40	42104.19
647.60	42648.95
647.79	42354.04
647.99	42546.55
648.18	42225.02
648.37	42722.68
648.57	42521.98
648.76	42356.09
648.96	41954.69
649.15	42491.26
649.34	42362.23
649.54	42505.59
649.73	42057.09
649.92	42268.03
650.12	42335.61
650.31	42159.48
650.51	42126.72
650.70	42702.20
650.89	42229.12
651.09	43013.49
651.28	42423.67
651.47	42569.08
651.67	42458.49
651.86	42280.31
652.06	41936.26
652.25	42012.03
652.44	42491.26
652.64	42331.51
652.83	42143.10
653.02	42280.31
653.22	42474.87
653.41	41956.74
653.60	42243.45
653.80	42096.00
653.99	42691.96
654.18	42302.84
654.38	42194.30
654.57	42263.93
654.76	42425.72
654.96	42282.36
655.15	42282.36
655.34	41887.10
655.54	41872.77
655.73	42104.19
655.92	42130.81
656.12	42397.05
656.31	42288.51
656.50	42433.91
656.70	41964.93
656.89	42218.88
657.08	42280.31
657.28	42599.80
657.47	42042.75
657.66	42253.69
657.86	42118.53
658.05	42431.86
658.24	42253.69
658.43	41946.50
658.63	42505.59
658.82	42016.13
659.01	42294.65
659.21	42225.02
659.40	42315.13
659.59	42200.44
659.79	42243.45
659.98	42218.88
660.17	42851.70
660.36	42128.77
660.56	42294.65
660.75	42581.37
660.94	42491.26
661.14	42212.73
661.33	42069.37
661.52	41913.73
661.71	42509.69
661.91	41837.95
662.10	42071.42
662.29	42177.92
662.49	41751.94
662.68	41817.47
662.87	42268.03
663.06	42247.55
663.26	42120.57
663.45	42245.50
663.64	41987.46
663.83	42016.13
664.03	42179.96
664.22	41936.26
664.41	41837.95
664.60	41731.46
664.80	42157.44
664.99	41801.09
665.18	41983.36
665.37	41624.96
665.57	41969.02
665.76	41964.93
665.95	42247.55
666.14	42048.89
666.34	41964.93
666.53	41743.75
666.72	41682.31
666.91	41684.36
667.11	41647.49
667.30	41801.09
667.49	41657.73
667.68	41645.44
667.87	41446.79
668.07	41942.40
668.26	42020.22
668.45	41915.78
668.64	41414.02
668.84	42245.50
669.03	41874.82
669.22	41600.39
669.41	41897.34
669.60	41637.25
669.80	41602.44
669.99	41395.59
670.18	41477.51
670.37	41561.48
670.57	41842.05
670.76	41481.61
670.95	42116.48
671.14	41624.96
671.33	41495.94
671.53	42018.17
671.72	41557.38
671.91	41381.26
672.10	41270.67
672.29	41786.75
672.48	41080.21
672.68	41479.56
672.87	41448.84
673.06	41072.01
673.25	41268.62
673.44	41596.29
673.64	41401.74
673.83	41176.46
674.02	41328.01
674.21	41162.12
674.40	41262.47
674.59	40983.95
674.79	41145.74
674.98	41090.44
675.17	41448.84
675.36	40822.16
675.55	40996.24
675.74	41334.15
675.94	40883.60
676.13	41465.22
676.32	41383.30
676.51	41235.85
676.70	41534.85
676.89	41545.09
677.08	41016.72
677.28	40801.68
677.47	41205.13
677.66	41307.53
677.85	41256.33
678.04	41471.37
678.23	41360.78
678.42	40822.16
678.62	41438.60
678.81	41029.01
679.00	40562.07
679.19	41342.35
679.38	41035.15
679.57	40914.32
679.76	41135.50
679.96	40705.43
680.15	40775.06
680.34	40838.54
680.53	40531.35
680.72	40969.61
680.91	41149.84
681.10	40566.16
681.29	40859.02
681.48	40699.28
681.68	40613.27
681.87	40938.90
682.06	40547.73
682.25	40443.29
682.44	40539.54
682.63	40496.53
682.82	40367.51
683.01	40338.84
683.20	40215.96
683.39	40697.24
683.59	40070.56
683.78	40291.74
683.97	40428.95
684.16	40363.42
684.35	40191.39
684.54	39951.77
684.73	40168.86
684.92	40400.28
685.11	40215.96
685.30	39964.06
685.49	40244.63
685.69	40025.50
685.88	40285.59
686.07	40101.28
686.26	39785.89
686.45	40195.48
686.64	40002.97
686.83	39921.05
687.02	40076.70
687.21	40050.08
687.40	40203.67
687.59	39937.44
687.78	40013.21
687.97	39957.92
688.16	39851.42
688.35	39697.83
688.54	39605.67
688.74	39558.56
688.93	39884.19
689.12	39325.10
689.31	39708.07
689.50	39740.83
689.69	39523.75
689.88	39478.69
690.07	39683.49
690.26	39374.25
690.45	39859.62
690.64	39749.03
690.83	39286.18
691.02	38935.98
691.21	39589.28
691.40	39421.35
691.59	39800.22
691.78	39112.11
691.97	39634.34
692.16	39329.19
692.35	39288.23
692.54	39388.58
692.73	39443.88
692.92	39245.23
693.11	39265.70
693.30	38919.60
693.49	39339.43
693.68	39011.76
693.87	39271.85
694.06	38972.85
694.25	38663.60
694.44	38919.60
694.63	39040.43
694.82	38938.03
695.01	38827.44
695.20	38669.75
695.39	38788.53
695.58	38983.09
695.77	38469.04
695.96	38581.68
696.15	38751.66
696.34	38882.73
696.53	38753.71
696.72	38542.77
696.91	38286.78
697.10	38354.36
697.29	38448.57
697.48	38307.26
697.67	38782.38
697.86	38428.09
698.05	38354.36
698.24	38565.30
698.43	38071.74
698.62	38376.89
698.81	38149.56
699.00	38505.91
699.19	37791.17
699.38	38153.66
699.57	37699.01
699.76	38452.66
699.95	38071.74
700.14	37973.44
700.32	38405.56
700.51	37948.86
700.70	38520.24
700.89	38239.67
701.08	38041.02
701.27	37828.03
701.46	37707.20
701.65	37608.90
701.84	37727.68
702.03	37580.23
702.22	37510.60
702.41	37744.06
702.60	37893.57
702.79	37604.80
702.98	37338.57
703.17	37443.01
703.35	37367.24
703.54	37414.34
703.73	37713.34
703.92	37817.79
704.11	37565.89
704.30	37436.87
704.49	37164.49
704.68	37148.11
704.87	37453.25
705.06	37246.41
705.25	37180.87
705.43	36965.84
705.62	37266.89
705.81	36965.84
706.00	37119.43
706.19	36873.68
706.38	36763.09
706.57	36998.60
706.76	36840.91
706.95	36988.36
707.14	36845.01
707.32	37137.87
707.51	36871.63
707.70	36888.01
707.89	37053.90
708.08	36701.65
708.27	36824.53
708.46	36849.10
708.65	36447.70
708.84	36804.05
709.02	36945.36
709.21	36533.71
709.40	36503.00
709.59	36642.26
709.78	36337.11
709.97	36437.46
710.16	36355.54
710.34	36416.98
710.53	36179.42
710.72	36285.91
710.91	36490.71
711.10	36611.54
711.29	36349.40
711.48	36324.82
711.66	36238.81
711.85	36064.73
712.04	36158.94
712.23	36109.78
712.42	35896.80
712.61	35894.75
712.80	35993.05
712.98	35866.08
713.17	35812.83
713.36	35640.80
713.55	35878.36
713.74	35556.83
713.93	35675.62
714.11	36046.30
714.30	36015.58
714.49	35519.97
714.68	35757.53
714.87	35599.84
715.06	36079.07
715.24	36081.11
715.43	35349.99
715.62	35313.13
715.81	35542.50
716.00	35421.67
716.18	35409.38
716.37	35026.41
716.56	35163.62
716.75	35950.04
716.94	35292.65
717.12	34649.58
717.31	35321.32
717.50	35096.04
717.69	35065.32
717.88	34690.54
718.06	35286.50
718.25	35036.65
718.44	34854.38
718.63	34997.74
718.82	34334.20
719.00	34500.08
719.19	34584.05
719.38	34684.40
719.57	34743.79
719.76	34637.30
719.94	34350.58
720.13	34188.79
720.32	34256.37
720.51	34307.57
720.69	34170.36
720.88	34244.09
721.07	33971.71
721.26	34094.58
721.44	33883.64
721.63	34338.29
721.82	33885.69
722.01	34090.49
722.20	34057.72
722.38	33695.23
722.57	33598.98
722.76	33893.88
722.95	33807.87
723.13	33551.87
723.32	33173.00
723.51	33494.53
723.70	33371.65
723.88	33500.67
724.07	33285.64
724.26	33265.16
724.44	33230.34
724.63	33297.92
724.82	33347.08
725.01	33392.13
725.19	33476.10
725.38	33027.59
725.57	32974.34
725.76	33099.27
725.94	33070.60
726.13	32753.16
726.32	32554.51
726.51	32953.87
726.69	33297.92
726.88	33068.55
727.07	32845.32
727.25	33293.83
727.44	32523.79
727.63	32992.78
727.82	32691.73
728.00	32579.09
728.19	32876.04
728.38	32828.94
728.56	32558.61
728.75	33035.78
728.94	32484.88
729.12	32863.75
729.31	33035.78
729.50	32775.69
729.69	33013.26
729.87	32990.73
730.06	32503.31
730.25	32435.73
730.43	32935.43
730.62	32695.82
730.81	32548.37
730.99	32507.41
731.18	32382.48
731.37	32841.23
731.55	32747.02
731.74	32589.33
731.93	32624.14
732.11	32368.15
732.30	32964.10
732.49	32448.02
732.67	32747.02
732.86	32198.16
733.05	32034.33
733.23	32060.95
733.42	32435.73
733.61	31841.82
733.79	32300.56
733.98	32204.31
734.17	32046.62
734.35	32106.01
734.54	32063.00
734.73	32425.49
734.91	32063.00
735.10	31518.24
735.29	32214.55
735.47	32146.97
735.66	31630.88
735.84	32298.52
736.03	31655.45
736.22	32017.94
736.40	32073.24
736.59	31831.58
736.78	31764.00
736.96	31548.96
737.15	31972.89
737.33	31528.48
737.52	31997.46
737.71	31794.71
737.89	31645.21
738.08	31198.76
738.27	31440.42
738.45	31821.34
738.64	31241.76
738.82	31483.42
739.01	31444.51
739.20	31376.93
739.38	31852.06
739.57	31718.94
739.75	31411.74
739.94	31231.52
740.13	31307.30
740.31	31374.88
740.50	31282.72
740.68	31114.79
740.87	31421.98
741.06	31424.03
741.24	31151.65
741.43	30869.03
741.61	31071.78
741.80	31051.30
741.99	31028.77
742.17	30975.53
742.36	31053.35
742.54	31106.60
742.73	30901.80
742.91	31129.12
743.10	30889.51
743.29	30948.90
743.47	30690.86
743.66	30746.15
743.84	30778.92
744.03	30922.28
744.21	30758.44
744.40	31055.40
744.59	30883.37
744.77	30549.55
744.96	31077.93
745.14	30920.23
745.33	30699.05
745.51	30371.38
745.70	30676.52
745.88	30447.15
746.07	30553.65
746.26	30295.60
746.44	30735.92
746.63	30531.12
746.81	30146.10
747.00	30275.12
747.18	30672.43
747.37	30385.71
747.55	30180.92
747.74	30625.32
747.92	30238.26
748.11	30219.83
748.29	30180.92
748.48	30330.42
748.66	29967.93
748.85	30144.05
749.03	30285.36
749.22	30524.97
749.41	30225.97
749.59	29937.21
749.78	29912.63
749.96	30127.67
750.15	29867.58
750.33	30049.85
750.52	29816.38
750.70	30012.98
750.89	29298.24
751.07	29730.36
751.26	29730.36
751.44	29863.48
751.63	29670.97
751.81	29552.19
752.00	29355.58
752.18	29738.55
752.37	29697.59
752.55	29435.45
752.74	29812.28
752.92	29328.96
753.10	29419.07
753.29	29265.47
753.47	29158.98
753.66	29331.01
753.84	29331.01
754.03	29242.95
754.21	29300.29
754.40	29244.99
754.58	29468.22
754.77	29341.25
754.95	29347.39
755.14	29257.28
755.32	29081.16
755.51	28876.36
755.69	28872.26
755.88	29150.79
756.06	29500.99
756.24	28825.16
756.43	29113.92
756.61	28974.66
756.80	28546.64
756.98	28638.80
757.17	28763.72
757.35	29062.72
757.54	28782.15
757.72	28939.85
757.90	28958.28
758.09	28567.12
758.27	28859.98
758.46	28538.44
758.64	28872.26
758.83	28622.41
759.01	28372.56
759.19	28724.81
759.38	28618.32
759.56	28575.31
759.75	28599.88
759.93	28390.99
760.12	28409.42
760.30	28358.22
760.48	28186.19
760.67	28477.01
760.85	28438.09
761.04	28206.67
761.22	28116.56
761.40	28268.11
761.59	28169.81
761.77	27719.26
761.96	28067.41
762.14	28024.40
762.32	28094.04
762.51	27981.40
762.69	28104.28
762.88	28036.69
763.06	27807.32
763.24	28261.97
763.43	27817.56
763.61	27891.29
763.80	27678.30
763.98	27588.19
764.16	27799.13
764.35	27450.97
764.53	27661.91
764.72	27715.16
764.90	27784.79
765.08	27706.97
765.27	27653.72
765.45	27457.12
765.63	27221.60
765.82	27467.36
766.00	27549.28
766.18	27379.29
766.37	27823.70
766.55	27070.05
766.74	27289.18
766.92	27080.29
767.10	27264.61
767.29	27369.05
767.47	27229.79
767.65	27250.27
767.84	26918.50
768.02	27233.89
768.20	26760.81
768.39	27129.44
768.57	26990.18
768.75	27217.50
768.94	26932.84
769.12	27065.96
769.30	26826.34
769.49	27192.93
769.67	26711.66
769.85	26945.12
770.04	26758.76
770.22	26941.03
770.40	26574.44
770.59	26343.02
770.77	26607.21
770.95	26627.69
771.14	26539.63
771.32	26291.82
771.50	26326.64
771.69	26345.07
771.87	26400.37
772.05	26642.03
772.24	26285.68
772.42	26386.03
772.60	26005.11
772.78	26246.77
772.97	26134.13
773.15	26101.36
773.33	26343.02
773.52	26142.32
773.70	26117.75
773.88	26189.42
774.07	26250.86
774.25	26283.63
774.43	26336.88
774.61	26478.19
774.80	26230.38
774.98	26197.62
775.16	26357.36
775.34	26351.21
775.53	26318.45
775.71	26386.03
775.89	26152.56
776.08	26097.27
776.26	26193.52
776.44	25947.76
776.62	26148.46
776.81	26156.66
776.99	26248.82
777.17	26373.74
777.35	26410.60
777.54	26369.65
777.72	26388.08
777.90	26097.27
778.08	26383.98
778.27	26379.89
778.45	26379.89
778.63	26001.01
778.81	26279.54
779.00	26515.05
779.18	26478.19
779.36	26846.82
779.54	26283.63
779.73	26230.38
779.91	26642.03
780.09	26324.59
780.27	26484.33
780.46	26617.45
780.64	26762.86
780.82	26340.97
781.00	26543.72
781.19	26711.66
781.37	26812.01
781.55	26707.56
781.73	26601.07
781.91	26709.61
782.10	26470.00
782.28	26691.18
782.46	26482.28
782.64	26699.37
782.82	26551.91
783.01	26517.10
783.19	26652.27
783.37	26498.67
783.55	26652.27
783.74	26799.72
783.92	26816.10
784.10	26973.80
784.28	26699.37
784.46	26365.55
784.64	26236.53
784.83	26873.45
785.01	26728.04
785.19	26398.32
785.37	26523.24
785.55	26318.45
785.74	26355.31
785.92	26461.80
786.10	26619.50
786.28	26496.62
786.46	26478.19
786.64	26357.36
786.83	26248.82
787.01	26478.19
787.19	26332.78
787.37	26177.14
787.55	26177.14
787.74	26037.87
787.92	26502.76
788.10	25833.08
788.28	26037.87
788.46	26025.59
788.64	25927.28
788.82	26214.00
789.01	25831.03
789.19	26015.35
789.37	25738.87
789.55	25894.52
789.73	25867.89
789.91	25828.98
790.09	25966.20
790.28	25702.01
790.46	25831.03
790.64	26371.69
790.82	25648.76
791.00	25386.62
791.18	25575.03
791.36	25456.25
791.55	25484.92
791.73	25529.98
791.91	24985.22
792.09	25179.78
792.27	25456.25
792.45	25290.37
792.63	25190.02
792.81	24995.46
793.00	25296.51
793.18	24938.12
793.36	24770.18
793.54	24907.40
793.72	24858.24
793.90	24700.55
794.08	24460.94
794.26	24739.46
794.44	24465.03
794.62	24657.54
794.81	24952.45
794.99	24645.26
795.17	24405.64
795.35	24585.86
795.53	24753.80
795.71	24415.88
795.89	24460.94
796.07	24372.88
796.25	24442.51
796.43	24077.97
796.61	24018.58
796.80	23854.74
796.98	23813.78
797.16	23797.40
797.34	23934.61
797.52	23764.63
797.70	23989.91
797.88	23774.87
798.06	23744.15
798.24	23871.12
798.42	23522.97
798.60	23623.32
798.78	23477.91
798.96	23275.16
799.14	23502.49
799.32	23301.79
799.51	23330.46
799.69	23140.00
799.87	23365.28
800.05	23223.97
800.23	23213.73
800.41	22935.20
800.59	22988.45
800.77	22734.50
800.95	22746.79
801.13	22742.69
801.31	22709.93
801.49	22759.08
801.67	22644.39
801.85	22617.77
802.03	22378.15
802.21	22492.84
802.39	22458.03
802.57	22378.15
802.75	22238.89
802.93	22384.30
803.11	22367.91
803.29	22259.37
803.47	22122.16
803.65	22288.04
803.83	22179.50
804.01	22279.85
804.19	21984.94
804.37	21872.31
804.55	22126.25
804.73	21759.67
804.91	21745.33
805.09	21647.03
805.27	21776.05
805.45	21745.33
805.63	21640.89
805.81	22060.72
805.99	21630.65
806.17	21814.96
806.35	21718.71
806.53	21348.03
806.71	21345.98
806.89	21524.15
807.07	21337.79
807.25	21393.08
807.43	21262.01
807.61	21466.81
807.79	21022.40
807.97	21208.76
808.15	21044.93
808.33	21038.78
808.51	21020.35
808.69	20997.82
808.87	20975.30
809.05	20596.42
809.23	20561.61
809.41	20838.08
809.59	20811.46
809.77	20481.74
809.95	20553.41
810.13	20938.43
810.31	20530.89
810.49	20565.70
810.67	20393.67
810.84	20270.79
811.02	20383.43
811.20	20334.28
811.38	20303.56
811.56	20250.32
811.74	20025.04
811.92	20209.36
812.10	20246.22
812.28	20238.03
812.46	20111.05
812.64	20188.88
812.82	19844.82
813.00	19766.99
813.18	19930.83
813.36	19715.80
813.53	19777.23
813.71	19777.23
813.89	19627.73
814.07	19867.34
814.25	19797.71
814.43	19838.67
814.61	19850.96
814.79	19498.71
814.97	19492.57
815.15	19304.15
815.33	19302.11
815.50	19396.31
815.68	19465.94
815.86	19601.11
816.04	19234.52
816.22	19330.78
816.40	19250.91
816.58	19279.58
816.76	19058.40
816.94	19224.28
817.11	19189.47
817.29	19140.32
817.47	19101.40
817.65	18988.77
817.83	18810.59
818.01	18855.65
818.19	18931.42
818.37	18949.85
818.54	18849.50
818.72	18654.95
818.90	18882.27
819.08	18513.64
819.26	18861.79
819.44	18663.14
819.62	18654.95
819.80	18536.17
819.97	18491.11
820.15	18677.48
820.33	18532.07
820.51	18575.08
820.69	18052.84
820.87	18403.05
821.05	18562.79
821.22	18243.31
821.40	18292.46
821.58	18165.48
821.76	18077.42
821.94	18073.32
822.12	18247.40
822.29	18204.39
822.47	18329.32
822.65	18157.29
822.83	18052.84
823.01	18237.16
823.19	17989.36
823.36	18040.56
823.54	18130.67
823.72	17835.76
823.90	17874.67
824.08	17958.64
824.25	17577.72
824.43	17702.64
824.61	18075.37
824.79	17921.77
824.97	17616.63
825.15	17911.53
825.32	17639.15
825.50	17178.36
825.68	17473.27
825.86	17891.06
826.04	17768.18
826.21	17604.34
826.39	17479.41
826.57	17352.44
826.75	17506.04
826.93	17368.82
827.10	17305.34
827.28	17448.69
827.46	17501.94
827.64	17454.84
827.81	17000.19
827.99	17182.46
828.17	17114.87
828.35	16944.89
828.53	17186.55
828.70	17231.61
828.88	17213.18
829.06	16871.17
829.24	16951.04
829.41	17145.59
829.59	16987.90
829.77	16920.32
829.95	16908.03
830.12	16785.15
830.30	17055.48
830.48	16920.32
830.66	16789.25
830.84	17010.43
831.01	16879.36
831.19	16684.80
831.37	16633.60
831.55	16893.69
831.72	16727.81
831.90	16697.09
832.08	16594.69
832.25	16559.88
832.43	16451.33
832.61	16496.39
832.79	16473.86
832.96	16422.66
833.14	16224.01
833.32	16484.10
833.50	16336.65
833.67	16115.47
833.85	16365.32
834.03	16267.02
834.20	16338.69
834.38	16213.77
834.56	16258.82
834.74	16021.26
834.91	16346.89
835.09	16166.67
835.27	16199.43
835.44	16033.55
835.62	15744.78
835.80	15951.63
835.98	16035.60
836.15	16029.45
836.33	15785.74
836.51	16078.60
836.68	15955.72
836.86	16031.50
837.04	15935.24
837.21	15908.62
837.39	15771.41
837.57	15961.87
837.75	15832.85
837.92	15601.43
838.10	15752.98
838.28	15529.75
838.45	15912.72
838.63	15775.50
838.81	15845.13
838.98	15513.36
839.16	15716.11
839.34	15249.18
839.51	15474.45
839.69	15339.29
839.87	15312.66
840.04	15458.07
840.22	15490.84
840.40	15568.66
840.57	15279.89
840.75	15453.97
840.93	15169.30
841.10	15451.92
841.28	15509.27
841.46	15120.15
841.63	15337.24
841.81	15343.38
841.98	15152.92
842.16	15003.42
842.34	15308.57
842.51	14847.77
842.69	15236.89
842.87	15148.82
843.04	14948.12
843.22	15048.47
843.40	15036.19
843.57	15114.01
843.75	15103.77
843.92	15130.39
844.10	14737.18
844.28	14919.45
844.45	15013.66
844.63	14976.80
844.81	14819.10
844.98	14941.98
845.16	14829.34
845.33	14802.72
845.51	14704.42
845.69	14847.77
845.86	14501.67
846.04	14468.90
846.21	14481.19
846.39	14847.77
846.57	14479.14
846.74	14624.54
846.92	14352.16
847.09	14524.19
847.27	14526.24
847.45	14673.70
847.62	14528.29
847.80	14589.73
847.97	14434.08
848.15	14522.15
848.32	14419.75
848.50	14182.18
848.68	14538.53
848.85	14384.93
849.03	14077.74
849.20	14481.19
849.38	14589.73
849.56	14294.82
849.73	14305.06
849.91	14305.06
850.08	14346.02
850.26	14057.26
850.43	14227.24
850.61	14079.79
850.78	13991.72
850.96	14239.53
851.14	14047.02
851.31	14362.40
851.49	14104.36
851.66	14040.87
851.84	13936.43
852.01	14004.01
852.19	14292.77
852.36	13827.88
852.54	13977.39
852.71	13999.91
852.89	13707.05
853.07	14010.15
853.24	13858.60
853.42	13897.52
853.59	13750.06
853.77	13866.80
853.94	13885.23
854.12	13795.12
854.29	13745.97
854.47	13598.51
854.64	13610.80
854.82	13598.51
854.99	13848.36
855.17	13639.47
855.34	13682.48
855.52	13770.54
855.69	13627.18
855.87	13594.42
856.04	13434.68
856.22	13545.27
856.39	13252.41
856.57	13504.31
856.74	13528.88
856.92	13834.03
857.09	13383.48
857.27	13272.89
857.44	13571.89
857.62	13481.78
857.79	13348.66
857.97	13350.71
858.14	13264.69
858.32	13483.83
858.49	13365.04
858.67	13258.55
858.84	13279.03
859.02	13330.23
859.19	13209.40
859.37	13147.96
859.54	12992.31
859.72	13303.60
859.89	13090.62
860.06	12986.17
860.24	12941.11
860.41	12883.77
860.59	12986.17
860.76	12965.69
860.94	12894.01
861.11	12994.36
861.29	13004.60
861.46	12797.76
861.64	13018.94
861.81	12951.35
861.98	12762.94
862.16	12834.62
862.33	12734.27
862.51	12615.49
862.68	13031.23
862.86	12726.08
863.03	12660.54
863.21	12826.43
863.38	12773.18
863.55	12656.45
863.73	12650.30
863.90	12611.39
864.08	12523.33
864.25	12672.83
864.43	12693.31
864.60	12541.76
864.77	12339.01
864.95	12365.64
865.12	12500.80
865.30	12339.01
865.47	12457.79
865.64	12558.14
865.82	12531.52
865.99	12605.25
866.17	12574.53
866.34	12418.88
866.51	12171.08
866.69	12398.40
866.86	12408.64
867.04	12384.07
867.21	12111.69
867.38	12226.37
867.56	11976.52
867.73	11927.37
867.91	12283.72
868.08	12154.69
868.25	12253.00
868.43	12105.54
868.60	12089.16
868.78	11839.31
868.95	12115.78
869.12	11892.55
869.30	12001.10
869.47	11814.73
869.64	11827.02
869.82	11945.80
869.99	11919.18
870.16	11929.42
870.34	11800.40
870.51	11687.76
870.69	11661.13
870.86	11849.55
871.03	11573.07
871.21	11769.68
871.38	11816.78
871.55	11597.65
871.73	11669.33
871.90	11702.09
872.07	11378.51
872.25	11786.06
872.42	11368.27
872.59	11575.12
872.77	11388.75
872.94	11337.56
873.11	11224.92
873.29	11341.65
873.46	11224.92
873.63	11568.98
873.81	11362.13
873.98	11157.33
874.15	11417.43
874.33	10975.06
874.50	11016.02
874.67	11061.08
874.85	11104.09
875.02	11020.12
875.19	11061.08
875.37	10966.87
875.54	11005.78
875.71	11198.29
875.88	10956.63
876.06	11011.93
876.23	10934.11
876.40	10788.70
876.58	10991.45
876.75	10960.73
876.92	10925.91
877.10	10827.61
877.27	10704.73
877.44	10616.67
877.61	10704.73
877.79	10676.06
877.96	10571.61
878.13	10751.84
878.31	10647.39
878.48	10798.94
878.65	10602.33
878.82	10491.74
879.00	10583.90
879.17	10665.82
879.34	10530.66
879.51	10276.71
879.69	10364.77
879.86	10418.02
880.03	10479.46
880.21	10329.95
880.38	10418.02
880.55	10319.71
880.72	10344.29
880.90	10524.51
881.07	10293.09
881.24	10362.72
881.41	10489.70
881.59	10346.34
881.76	10299.23
881.93	10223.46
882.10	10325.86
882.28	10174.31
882.45	10250.08
882.62	10162.02
882.79	10297.19
882.96	10176.36
883.14	10231.65
883.31	10086.25
883.48	10119.01
883.65	10076.01
883.83	10200.93
884.00	9926.50
884.17	9891.69
884.34	10071.91
884.51	10129.25
884.69	10000.23
884.86	10030.95
885.03	10162.02
885.20	9903.98
885.38	10108.77
885.55	9895.78
885.72	9946.98
885.89	10002.28
886.06	9912.17
886.24	9944.94
886.41	9789.29
886.58	9817.96
886.75	9799.53
886.92	9779.05
887.10	9863.02
887.27	9680.75
887.44	9715.56
887.61	9893.74
887.78	9944.94
887.95	9901.93
888.13	9652.08
888.30	9656.17
888.47	9746.28
888.64	9674.60
888.81	9754.48
888.99	9623.41
889.16	9521.01
889.33	9502.58
889.50	9615.21
889.67	9623.41
889.84	9578.35
890.01	9598.83
890.19	9609.07
890.36	9787.24
890.53	9553.77
890.70	9486.19
890.87	9457.52
891.04	9502.58
891.22	9504.62
891.39	9484.14
891.56	9232.24
891.73	9303.92
891.90	9303.92
892.07	9381.74
892.24	9408.37
892.42	9353.07
892.59	9340.79
892.76	9316.21
892.93	9090.93
893.10	9281.39
893.27	9320.31
893.44	9174.90
893.61	9369.46
893.79	9217.91
893.96	9254.77
894.13	9170.80
894.30	9240.44
894.47	9246.58
894.64	9181.04
894.81	9246.58
894.98	9269.11
895.15	9242.48
895.33	9125.75
895.50	9148.28
895.67	9117.56
895.84	9095.03
896.01	9121.65
896.18	8957.82
896.35	9287.54
896.52	9127.80
896.69	8966.01
896.86	9162.61
897.04	9267.06
897.21	9103.22
897.38	8931.19
897.55	9025.40
897.72	9148.28
897.89	8970.10
898.06	8945.53
898.23	8970.10
898.40	9164.66
898.57	9181.04
898.74	9080.69
898.91	9072.50
899.08	8986.49
899.26	9107.32
899.43	8892.28
899.60	8724.35
899.77	9054.07
899.94	8791.93
900.11	8898.42
900.28	8759.16
900.45	9105.27
900.62	8804.22
900.79	8888.18
900.96	8753.02
901.13	8763.26
901.30	8767.35
901.47	8966.01
901.64	8929.14
901.81	8976.25
901.98	8830.84
902.15	8953.72
902.32	8646.52
902.49	8763.26
902.66	8830.84
902.83	8836.99
903.01	8900.47
903.18	8828.79
903.35	8718.20
903.52	8830.84
903.69	8769.40
903.86	8793.98
904.03	8771.45
904.20	8699.77
904.37	8947.58
904.54	8771.45
904.71	8824.70
904.88	8826.75
905.05	8820.60
905.22	8730.49
905.39	8953.72
905.56	8753.02
905.73	8900.47
905.90	8689.53
906.07	8746.87
906.24	8759.16
906.41	8691.58
906.58	8652.67
906.75	8755.07
906.92	8603.52
907.09	8765.31
907.26	8736.63
907.43	8562.56
907.60	8470.40
907.77	8599.42
907.93	8722.30
908.10	8558.46
908.27	8619.90
908.44	8634.24
908.61	8839.03
908.78	8658.81
908.95	8535.93
909.12	8669.05
909.29	8695.68
909.46	8562.56
909.63	8712.06
909.80	8634.24
909.97	8595.32
910.14	8357.76
910.31	8664.96
910.48	8564.61
910.65	8513.41
910.82	8454.02
910.99	8560.51
911.16	8445.82
911.33	8615.80
911.50	8550.27
911.66	8396.67
911.83	8449.92
912.00	8451.97
912.17	8308.61
912.34	8368.00
912.51	8267.65
912.68	8361.86
912.85	8292.23
913.02	8400.77
913.19	8353.66
913.36	8421.25
913.53	8312.71
913.70	8181.64
913.86	8411.01
914.03	8306.56
914.20	8277.89
914.37	8097.67
914.54	8114.05
914.71	8318.85
914.88	8249.22
915.05	8093.57
915.22	8263.55
915.39	8089.48
915.55	8185.73
915.72	8144.77
915.89	8021.89
916.06	8081.28
916.23	7935.88
916.40	7950.21
916.57	7962.50
916.74	8112.00
916.91	7976.84
917.07	7872.39
917.24	7847.82
917.41	7813.00
917.58	7913.35
917.75	7620.49
917.92	7757.71
918.09	7745.42
918.26	7763.85
918.42	7769.99
918.59	7813.00
918.76	7700.36
918.93	7589.77
919.10	7550.86
919.27	7618.44
919.44	7575.44
919.60	7667.60
919.77	7640.97
919.94	7323.54
920.11	7540.62
920.28	7468.94
920.45	7503.76
920.61	7423.89
920.78	7501.71
920.95	7266.19
921.12	7475.09
921.29	7280.53
921.46	7337.87
921.62	7298.96
921.79	7380.88
921.96	7284.62
922.13	7229.33
922.30	7212.95
922.47	7128.98
922.63	7090.07
922.80	7147.41
922.97	7108.50
923.14	6965.14
923.31	7180.18
923.47	6967.19
923.64	7161.75
923.81	7104.40
923.98	7049.11
924.15	6915.99
924.32	6864.79
924.48	6922.13
924.65	6829.98
924.82	6840.22
924.99	6795.16
925.15	6746.01
925.32	6809.50
925.49	6653.85
925.66	6610.84
925.83	6647.71
925.99	6694.81
926.16	6688.67
926.33	6748.06
926.50	6645.66
926.67	6584.22
926.83	6555.55
927.00	6473.63
927.17	6522.78
927.34	6305.70
927.50	6373.28
927.67	6512.54
927.84	6375.33
928.01	6418.33
928.17	6350.75
928.34	6350.75
928.51	6213.54
928.68	6266.78
928.84	6170.53
929.01	6041.51
929.18	6162.34
929.35	6051.75
929.51	6176.67
929.68	6064.04
929.85	6211.49
930.02	6084.52
930.18	6018.98
930.35	5971.88
930.52	6064.04
930.69	6109.09
930.85	5984.16
931.02	5982.12
931.19	5928.87
931.36	5834.66
931.52	5867.43
931.69	5818.28
931.86	5660.59
932.02	5666.73
932.19	5777.32
932.36	5564.33
932.53	5652.39
932.69	5631.91
932.86	5767.08
933.03	5652.39
933.19	5506.99
933.36	5509.04
933.53	5482.41
933.70	5453.74
933.86	5556.14
934.03	5363.63
934.20	5240.75
934.36	5398.45
934.53	5253.04
934.70	5240.75
934.86	5277.62
935.03	5038.00
935.20	5124.02
935.36	5220.27
935.53	5179.31
935.70	5038.00
935.86	5013.43
936.03	4941.75
936.20	4917.17
936.36	4988.85
936.53	4904.89
936.70	4863.93
936.86	5017.52
937.03	4704.18
937.20	4687.80
937.36	4716.47
937.53	4638.65
937.70	4556.73
937.86	4571.07
938.03	4640.70
938.20	4648.89
938.36	4446.14
938.53	4460.48
938.70	4327.36
938.86	4308.93
939.03	4399.04
939.20	4153.28
939.36	4261.82
939.53	4212.67
939.70	4184.00
939.86	3942.34
940.03	3975.11
940.19	4126.66
940.36	3973.06
940.53	3968.96
940.69	4001.73
940.86	3854.28
941.03	3878.85
941.19	3866.56
941.36	3811.27
941.52	3751.88
941.69	3708.87
941.86	3766.21
942.02	3700.68
942.19	3602.38
942.35	3667.91
942.52	3561.42
942.69	3491.79
942.85	3489.74
943.02	3569.61
943.18	3514.31
943.35	3497.93
943.52	3422.16
943.68	3409.87
943.85	3438.54
944.01	3561.42
944.18	3454.92
944.35	3381.20
944.51	3332.05
944.68	3241.93
944.84	3209.17
945.01	3282.89
945.17	3233.74
945.34	3289.04
945.51	3295.18
945.67	3313.61
945.84	3276.75
946.00	3106.77
946.17	3117.01
946.33	3219.41
946.50	3190.74
946.67	3160.02
946.83	3090.38
947.00	3215.31
947.16	3157.97
947.33	3182.54
947.49	3080.14
947.66	3188.69
947.82	3129.30
947.99	3055.57
948.16	3180.50
948.32	3010.51
948.49	3071.95
948.65	3100.62
948.82	3213.26
948.98	3168.21
949.15	3164.11
949.31	3166.16
949.48	3114.96
949.64	3063.76
949.81	3026.90
949.97	3018.71
950.14	3178.45
950.30	3041.23
950.47	3098.58
950.63	3096.53
950.80	3117.01
950.96	3123.15
951.13	3125.20
951.30	3020.75
951.46	3088.34
951.63	3119.06
951.79	3172.30
951.96	3137.49
952.12	3143.63
952.29	3117.01
952.45	3053.52
952.62	3092.43
952.78	3088.34
952.94	2983.89
953.11	3053.52
953.27	2996.18
953.44	3135.44
953.60	3035.09
953.77	3035.09
953.93	3051.47
954.10	3045.33
954.26	3098.58
954.43	3074.00
954.59	3147.73
954.76	3000.27
954.92	3078.10
955.09	2990.03
955.25	2971.60
955.42	3055.57
955.58	3065.81
955.75	3016.66
955.91	3065.81
956.07	3096.53
956.24	3082.19
956.40	2983.89
956.57	3028.95
956.73	2983.89
956.90	2981.84
957.06	3030.99
957.23	2893.78
957.39	2983.89
957.56	2926.55
957.72	2930.64
957.88	2947.03
958.05	3016.66
958.21	3067.86
958.38	3088.34
958.54	2961.36
958.71	2969.55
958.87	2944.98
959.03	2918.36
959.20	3020.75
959.36	2897.88
959.53	2951.12
959.69	2916.31
959.85	2994.13
960.02	2957.27
960.18	2922.45
960.35	2897.88
960.51	2987.99
960.68	2891.73
960.84	2963.41
961.00	2861.01
961.17	2899.92
961.33	2975.70
961.50	2895.83
961.66	2947.03
961.82	2861.01
961.99	2992.08
962.15	2922.45
962.31	2785.24
962.48	2975.70
962.64	2914.26
962.81	2895.83
962.97	2955.22
963.13	2961.36
963.30	2932.69
963.46	2830.29
963.62	2918.36
963.79	2842.58
963.95	2779.09
964.12	2875.35
964.28	2910.16
964.44	2818.00
964.61	2858.96
964.77	2953.17
964.93	2897.88
965.10	2838.48
965.26	2793.43
965.42	2793.43
965.59	2824.15
965.75	2906.07
965.92	2875.35
966.08	2871.25
966.24	2865.11
966.41	2826.20
966.57	2842.58
966.73	2830.29
966.90	2826.20
967.06	2858.96
967.22	2746.33
967.39	2764.76
967.55	2678.74
967.71	2787.29
967.88	2826.20
968.04	2748.37
968.20	2758.61
968.37	2713.56
968.53	2703.32
968.69	2736.09
968.85	2742.23
969.02	2785.24
969.18	2797.53
969.34	2789.33
969.51	2772.95
969.67	2770.90
969.83	2713.56
970.00	2781.14
970.16	2783.19
970.32	2746.33
970.48	2742.23
970.65	2873.30
970.81	2787.29
970.97	2752.47
971.14	2742.23
971.30	2762.71
971.46	2684.89
971.63	2709.46
971.79	2631.64
971.95	2643.93
972.11	2641.88
972.28	2648.02
972.44	2764.76
972.60	2678.74
972.76	2715.61
972.93	2703.32
973.09	2713.56
973.25	2645.98
973.42	2645.98
973.58	2645.98
973.74	2736.09
973.90	2674.65
974.07	2576.34
974.23	2537.43
974.39	2566.10
974.55	2717.65
974.72	2592.73
974.88	2523.10
975.04	2619.35
975.20	2494.43
975.37	2576.34
975.53	2611.16
975.69	2590.68
975.85	2703.32
976.01	2553.82
976.18	2613.21
976.34	2625.50
976.50	2586.58
976.66	2686.94
976.83	2570.20
976.99	2500.57
977.15	2512.86
977.31	2527.19
977.47	2654.17
977.64	2551.77
977.80	2574.30
977.96	2619.35
978.12	2607.06
978.29	2539.48
978.45	2566.10
978.61	2609.11
978.77	2543.58
978.93	2525.15
979.10	2598.87
979.26	2500.57
979.42	2492.38
979.58	2437.08
979.74	2478.04
979.91	2537.43
980.07	2500.57
980.23	2592.73
980.39	2510.81
980.55	2559.96
980.71	2453.47
980.88	2549.72
981.04	2519.00
981.20	2447.32
981.36	2469.85
981.52	2527.19
981.68	2420.70
981.85	2461.66
982.01	2490.33
982.17	2461.66
982.33	2435.03
982.49	2482.14
982.65	2430.94
982.82	2416.60
982.98	2445.27
983.14	2375.64
983.30	2506.71
983.46	2490.33
983.62	2361.31
983.79	2432.99
983.95	2424.80
984.11	2410.46
984.27	2445.27
984.43	2437.08
984.59	2428.89
984.75	2439.13
984.91	2457.56
985.08	2447.32
985.24	2340.83
985.40	2308.06
985.56	2344.92
985.72	2406.36
985.88	2355.16
986.04	2312.16
986.20	2336.73
986.37	2430.94
986.53	2351.07
986.69	2379.74
986.85	2439.13
987.01	2322.40
987.17	2308.06
987.33	2402.27
987.49	2297.82
987.65	2426.84
987.82	2367.45
987.98	2277.34
988.14	2367.45
988.30	2324.44
988.46	2289.63
988.62	2408.41
988.78	2297.82
988.94	2215.90
989.10	2369.50
989.26	2275.29
989.42	2248.67
989.59	2303.96
989.75	2228.19
989.91	2357.21
990.07	2332.64
990.23	2199.52
990.39	2320.35
990.55	2312.16
990.71	2265.05
990.87	2297.82
991.03	2297.82
991.19	2269.15
991.35	2271.20
991.51	2297.82
991.67	2287.58
991.83	2326.49
992.00	2312.16
992.16	2281.44
992.32	2283.49
992.48	2338.78
992.64	2174.94
992.80	2209.76
992.96	2306.01
993.12	2289.63
993.28	2275.29
993.44	2238.43
993.60	2213.85
993.76	2201.57
993.92	2275.29
994.08	2250.72
994.24	2176.99
994.40	2252.77
994.56	2238.43
994.72	2164.70
994.88	2136.03
995.04	2168.80
995.20	2201.57
995.36	2105.31
995.52	2209.76
995.68	2140.13
995.84	2183.13
996.00	2316.25
996.16	2160.61
996.32	2080.74
996.48	2181.09
996.64	2226.14
996.80	2103.26
996.96	2025.44
997.12	2285.53
997.28	2242.53
997.44	2076.64
997.60	2185.18
997.76	2263.01
997.92	2133.98
998.08	2176.99
998.24	2119.65
998.40	2195.42
998.56	2176.99
998.72	2142.18
998.88	2170.85
999.04	2127.84
999.20	2111.46
999.36	2103.26
999.52	2187.23
999.68	2131.94
999.84	2090.98
1000.00	2093.02
1000.16	2166.75
1000.32	2103.26
1000.48	2234.33
1000.64	2052.06
1000.80	2086.88
1000.95	2185.18
1001.11	2125.79
1001.27	2095.07
1001.43	2027.49
1001.59	2047.97
1001.75	2068.45
1001.91	2142.18
1002.07	2086.88
1002.23	2060.26
1002.39	2050.02
1002.55	2074.59
1002.71	2054.11
1002.87	2097.12
1003.03	2097.12
1003.19	2064.35
1003.34	2084.83
1003.50	2080.74
1003.66	2023.39
1003.82	2154.46
1003.98	2072.54
1004.14	2004.96
1004.30	2050.02
1004.46	1953.76
1004.62	2052.06
1004.78	2097.12
1004.94	2041.82
1005.09	2041.82
1005.25	2021.35
1005.41	2064.35
1005.57	1990.63
1005.73	2062.30
1005.89	2043.87
1006.05	2035.68
1006.21	2064.35
1006.37	2023.39
1006.52	2017.25
1006.68	2002.91
1006.84	2027.49
1007.00	2000.87
1007.16	1998.82
1007.32	1955.81
1007.48	2031.58
1007.64	1972.19
1007.79	2074.59
1007.95	1877.99
1008.11	2013.15
1008.27	2039.78
1008.43	2076.64
1008.59	2011.11
1008.75	1986.53
1008.91	2025.44
1009.06	1898.47
1009.22	2002.91
1009.38	1988.58
1009.54	1984.48
1009.70	1970.15
1009.86	2037.73
1010.01	1949.67
1010.17	1959.91
1010.33	1953.76
1010.49	1894.37
1010.65	2011.11
1010.81	1927.14
1010.96	1912.80
1011.12	1925.09
1011.28	1945.57
1011.44	1978.34
1011.60	1961.95
1011.76	1912.80
1011.91	1953.76
1012.07	1982.43
1012.23	1918.95
1012.39	1834.98
1012.55	1900.52
1012.71	1894.37
1012.86	1964.00
1013.02	1908.71
1013.18	1949.67
1013.34	1941.47
1013.50	1904.61
1013.65	1910.75
1013.81	1888.23
1013.97	1886.18
1014.13	1845.22
1014.29	1888.23
1014.44	1918.95
1014.60	1925.09
1014.76	1886.18
1014.92	1925.09
1015.07	1916.90
1015.23	1927.14
1015.39	1814.50
1015.55	1834.98
1015.71	1892.32
1015.86	1816.55
1016.02	1888.23
1016.18	1830.88
1016.34	1918.95
1016.49	1925.09
1016.65	1783.78
1016.81	1900.52
1016.97	1824.74
1017.12	1970.15
1017.28	1875.94
1017.44	1816.55
1017.60	1884.13
1017.75	1832.93
1017.91	1931.23
1018.07	1871.84
1018.23	1757.16
1018.38	1875.94
1018.54	1877.99
1018.70	1923.04
1018.86	1875.94
1019.01	1826.79
1019.17	1871.84
1019.33	1939.43
1019.49	1861.60
1019.64	1902.56
1019.80	1804.26
1019.96	1767.40
1020.12	1845.22
1020.27	1896.42
1020.43	1882.08
1020.59	1847.27
1020.74	1869.80
1020.90	1867.75
1021.06	1789.92
1021.22	1828.84
1021.37	1886.18
1021.53	1830.88
1021.69	1849.32
1021.84	1822.69
1022.00	1822.69
1022.16	1867.75
1022.31	1828.84
1022.47	1845.22
1022.63	1798.12
1022.79	1808.36
1022.94	1789.92
1023.10	1857.51
1023.26	1851.36
1023.41	1814.50
1023.57	1712.10
1023.73	1828.84
1023.88	1712.10
1024.04	1845.22
1024.20	1775.59
1024.35	1773.54
1024.51	1726.44
1024.67	1771.49
1024.82	1820.64
1024.98	1847.27
1025.14	1814.50
1025.29	1796.07
1025.45	1734.63
1025.61	1744.87
1025.76	1740.77
1025.92	1691.62
1026.08	1839.08
1026.23	1794.02
1026.39	1763.30
1026.55	1798.12
1026.70	1773.54
1026.86	1748.97
1027.02	1787.88
1027.17	1781.73
1027.33	1771.49
1027.48	1748.97
1027.64	1724.39
1027.80	1771.49
1027.95	1818.60
1028.11	1722.34
1028.27	1695.72
1028.42	1777.64
1028.58	1781.73
1028.73	1740.77
1028.89	1691.62
1029.05	1759.21
1029.20	1744.87
>>>>>End Processed Spectral Data<<<<<
