SpectraSuite Data File
++++++++++++++++++++++++++++++++++++
Date: Tue Jun 13 11:52:07 CEST 2017
User: INFO_000
Dark Spectrum Present: No
Reference Spectrum Present: No
Number of Sampled Component Spectra: 1
Spectrometers: USB4H00879
Integration Time (usec): 30000 (USB4H00879)
Spectra Averaged: 1 (USB4H00879)
Boxcar Smoothing: 0 (USB4H00879)
Correct for Electrical Dark: No (USB4H00879)
Strobe/Lamp Enabled: No (USB4H00879)
Correct for Detector Non-linearity: No (USB4H00879)
Correct for Stray Light: No (USB4H00879)
Number of Pixels in Processed Spectrum: 3648
>>>>>Begin Processed Spectral Data<<<<<
345.13	1392.62
345.34	1392.62
345.56	1392.62
345.78	1359.85
345.99	1327.08
346.21	1492.97
346.42	1542.12
346.64	1570.79
346.86	1601.51
347.07	1488.87
347.29	1552.36
347.50	1527.78
347.72	1531.88
347.94	1523.69
348.15	1431.53
348.37	1488.87
348.59	1538.02
348.80	1449.96
349.02	1597.42
349.23	1654.76
349.45	1619.94
349.67	1576.94
349.88	1630.18
350.10	1722.34
350.31	1636.33
350.53	1632.23
350.75	1728.49
350.96	1572.84
351.18	1624.04
351.39	1632.23
351.61	1640.42
351.82	1617.90
352.04	1617.90
352.26	1648.61
352.47	1628.14
352.69	1630.18
352.90	1662.95
353.12	1621.99
353.34	1548.26
353.55	1619.94
353.77	1662.95
353.98	1667.05
354.20	1671.14
354.41	1671.14
354.63	1689.57
354.85	1705.96
355.06	1718.25
355.28	1681.38
355.49	1638.38
355.71	1626.09
355.92	1628.14
356.14	1669.09
356.35	1662.95
356.57	1605.61
356.79	1697.77
357.00	1708.01
357.22	1705.96
357.43	1705.96
357.65	1708.01
357.86	1654.76
358.08	1603.56
358.29	1693.67
358.51	1720.29
358.72	1691.62
358.94	1658.85
359.16	1699.81
359.37	1685.48
359.59	1667.05
359.80	1763.30
360.02	1687.53
360.23	1736.68
360.45	1726.44
360.66	1705.96
360.88	1587.18
361.09	1701.86
361.31	1705.96
361.52	1681.38
361.74	1726.44
361.95	1781.73
362.17	1722.34
362.38	1810.40
362.60	1867.75
362.81	1712.10
363.03	1728.49
363.24	1769.44
363.46	1787.88
363.67	1847.27
363.89	1732.58
364.10	1845.22
364.32	1701.86
364.53	1822.69
364.75	1746.92
364.96	1767.40
365.18	1716.20
365.39	1781.73
365.61	1683.43
365.82	1861.60
366.04	1751.01
366.25	1730.53
366.47	1822.69
366.68	1767.40
366.90	1769.44
367.11	1804.26
367.33	1773.54
367.54	1740.77
367.76	1791.97
367.97	1894.37
368.19	1761.25
368.40	1812.45
368.62	1849.32
368.83	1800.16
369.05	1820.64
369.26	1816.55
369.48	1826.79
369.69	1794.02
369.91	1824.74
370.12	1800.16
370.33	1873.89
370.55	1781.73
370.76	1810.40
370.98	1847.27
371.19	1843.17
371.41	1818.60
371.62	1824.74
371.84	1791.97
372.05	1822.69
372.27	1843.17
372.48	1851.36
372.69	1865.70
372.91	1951.71
373.12	1931.23
373.34	1873.89
373.55	1961.95
373.77	1918.95
373.98	1875.94
374.20	1920.99
374.41	1943.52
374.62	1845.22
374.84	1959.91
375.05	1996.77
375.27	2019.30
375.48	1978.34
375.70	1976.29
375.91	1927.14
376.12	2068.45
376.34	1990.63
376.55	2025.44
376.77	1961.95
376.98	2011.11
377.19	1943.52
377.41	1980.39
377.62	1984.48
377.84	2019.30
378.05	2017.25
378.27	2029.54
378.48	2074.59
378.69	2078.69
378.91	2009.06
379.12	2050.02
379.34	2097.12
379.55	2029.54
379.76	2113.50
379.98	2015.20
380.19	2078.69
380.41	2045.92
380.62	2162.66
380.83	2097.12
381.05	2062.30
381.26	2174.94
381.47	2080.74
381.69	2052.06
381.90	2207.71
382.12	2086.88
382.33	2090.98
382.54	2111.46
382.76	2123.74
382.97	2121.70
383.19	2127.84
383.40	2179.04
383.61	2131.94
383.83	2199.52
384.04	2156.51
384.25	2187.23
384.47	2191.33
384.68	2236.38
384.89	2185.18
385.11	2195.42
385.32	2146.27
385.54	2166.75
385.75	2215.90
385.96	2258.91
386.18	2297.82
386.39	2297.82
386.60	2246.62
386.82	2312.16
387.03	2332.64
387.24	2379.74
387.46	2322.40
387.67	2379.74
387.88	2285.53
388.10	2203.61
388.31	2312.16
388.52	2445.27
388.74	2363.36
388.95	2459.61
389.16	2396.12
389.38	2410.46
389.59	2439.13
389.80	2377.69
390.02	2404.32
390.23	2463.71
390.44	2443.23
390.66	2392.03
390.87	2316.25
391.08	2469.85
391.30	2475.99
391.51	2525.15
391.72	2496.47
391.94	2488.28
392.15	2484.19
392.36	2562.01
392.58	2523.10
392.79	2553.82
393.00	2584.54
393.22	2609.11
393.43	2635.74
393.64	2588.63
393.85	2645.98
394.07	2535.39
394.28	2541.53
394.49	2701.27
394.71	2699.22
394.92	2652.12
395.13	2641.88
395.35	2711.51
395.56	2631.64
395.77	2592.73
395.98	2742.23
396.20	2848.72
396.41	2791.38
396.62	2781.14
396.84	2748.37
397.05	2775.00
397.26	2758.61
397.47	2834.39
397.69	2760.66
397.90	2881.49
398.11	2826.20
398.32	2797.53
398.54	2760.66
398.75	2775.00
398.96	2912.21
399.18	2947.03
399.39	2852.82
399.60	2955.22
399.81	2899.92
400.03	2983.89
400.24	3076.05
400.45	2906.07
400.66	3092.43
400.88	2963.41
401.09	2977.75
401.30	3035.09
401.51	2951.12
401.73	3121.10
401.94	3028.95
402.15	3076.05
402.36	3100.62
402.58	3053.52
402.79	3024.85
403.00	3157.97
403.21	3192.78
403.43	3246.03
403.64	3104.72
403.85	3018.71
404.06	3125.20
404.27	3215.31
404.49	3090.38
404.70	3176.40
404.91	3246.03
405.12	3151.82
405.34	3174.35
405.55	3274.70
405.76	3182.54
405.97	3203.02
406.19	3436.49
406.40	3268.56
406.61	3350.48
406.82	3366.86
407.03	3338.19
407.25	3411.92
407.46	3356.62
407.67	3448.78
407.88	3370.96
408.09	3416.01
408.31	3442.64
408.52	3422.16
408.73	3373.00
408.94	3526.60
409.15	3483.59
409.37	3559.37
409.58	3399.63
409.79	3536.84
410.00	3442.64
410.21	3358.67
410.43	3418.06
410.64	3545.03
410.85	3559.37
411.06	3540.94
411.27	3774.41
411.48	3684.30
411.70	3674.06
411.91	3698.63
412.12	3745.73
412.33	3635.14
412.54	3727.30
412.76	3780.55
412.97	3606.47
413.18	3612.62
413.39	3803.08
413.60	3641.29
413.81	3624.90
414.03	3749.83
414.24	3710.92
414.45	3829.70
414.66	3690.44
414.87	3825.61
415.08	3729.35
415.30	3868.61
415.51	3919.81
415.72	3907.52
415.93	3889.09
416.14	3919.81
416.35	3907.52
416.56	3893.19
416.78	3913.67
416.99	3977.16
417.20	3921.86
417.41	3882.95
417.62	4050.88
417.83	4063.17
418.04	4028.35
418.26	4016.07
418.47	3850.18
418.68	4097.99
418.89	4224.96
419.10	4132.80
419.31	4114.37
419.52	4278.21
419.73	4114.37
419.95	4351.93
420.16	4196.29
420.37	4143.04
420.58	4224.96
420.79	4108.23
421.00	4208.58
421.21	4339.65
421.42	4249.54
421.63	4433.85
421.85	4280.25
422.06	4507.58
422.27	4399.04
422.48	4423.61
422.69	4497.34
422.90	4587.45
423.11	4448.19
423.32	4523.96
423.53	4483.00
423.75	4478.91
423.96	4583.35
424.17	4603.83
424.38	4849.59
424.59	4743.10
424.80	4825.01
425.01	4601.79
425.22	4784.06
425.43	4691.90
425.64	4870.07
425.85	4886.45
426.06	4812.73
426.28	4790.20
426.49	4822.97
426.70	4913.08
426.91	4923.32
427.12	5025.72
427.33	5013.43
427.54	5105.59
427.75	5070.77
427.96	5091.25
428.17	5029.81
428.38	5195.70
428.59	5195.70
428.80	5046.20
429.01	5152.69
429.23	5306.29
429.44	5470.12
429.65	5273.52
429.86	5267.38
430.07	5189.55
430.28	5236.66
430.49	5423.02
430.70	5334.96
430.91	5330.86
431.12	5337.01
431.33	5582.76
431.54	5468.08
431.75	5568.43
431.96	5500.84
432.17	5513.13
432.38	5459.88
432.59	5826.47
432.80	5658.54
433.01	5762.98
433.22	5771.18
433.43	5748.65
433.64	5617.58
433.85	5674.92
434.06	5853.09
434.27	5953.45
434.49	5984.16
434.70	6070.18
434.91	5920.68
435.12	6041.51
435.33	5984.16
435.54	5984.16
435.75	5896.10
435.96	6018.98
436.17	5887.91
436.38	6188.96
436.59	6152.10
436.80	6084.52
437.01	6301.60
437.22	6324.13
437.43	6102.95
437.64	6035.36
437.85	6252.45
438.06	6377.37
438.27	6168.48
438.48	6356.90
438.69	6447.01
438.90	6334.37
439.11	6262.69
439.32	6313.89
439.53	6391.71
439.74	6571.93
439.95	6369.18
440.16	6442.91
440.37	6459.29
440.57	6490.01
440.78	6580.12
440.99	6649.75
441.20	6537.12
441.41	6500.25
441.62	6729.63
441.83	6571.93
442.04	6928.28
442.25	6766.49
442.46	6721.43
442.67	7047.06
442.88	7198.61
443.09	6739.87
443.30	6938.52
443.51	6911.89
443.72	6934.42
443.93	6834.07
444.14	7110.55
444.35	6784.92
444.56	7012.24
444.77	7077.78
444.98	7098.26
445.19	7171.99
445.40	7180.18
445.61	7311.25
445.81	7380.88
446.02	7169.94
446.23	7171.99
446.44	7161.75
446.65	7296.91
446.86	7237.52
447.07	7370.64
447.28	7593.87
447.49	7575.44
447.70	7399.31
447.91	7403.41
448.12	7423.89
448.33	7493.52
448.54	7628.68
448.74	7387.02
448.95	7628.68
449.16	7597.96
449.37	7827.34
449.58	7626.64
449.79	7901.06
450.00	7726.99
450.21	7683.98
450.42	7993.22
450.63	7796.62
450.84	7909.26
451.05	7851.91
451.25	7966.60
451.46	7843.72
451.67	8116.10
451.88	8163.20
452.09	8198.02
452.30	8107.91
452.51	8089.48
452.72	8036.23
452.93	8386.43
453.13	8183.68
453.34	8269.70
453.55	8077.19
453.76	8195.97
453.97	8722.30
454.18	8531.84
454.39	8431.49
454.60	8435.58
454.81	8386.43
455.01	8757.11
455.22	8363.90
455.43	8683.39
455.64	8955.77
455.85	8961.91
456.06	9080.69
456.27	8871.80
456.48	8906.62
456.68	8931.19
456.89	8963.96
457.10	9181.04
457.31	9084.79
457.52	8982.39
457.73	9355.12
457.94	9484.14
458.14	9217.91
458.35	9715.56
458.56	9275.25
458.77	9254.77
458.98	9584.49
459.19	9539.44
459.39	9529.20
459.60	9811.82
459.81	9555.82
460.02	9715.56
460.23	9480.05
460.44	9924.46
460.65	9787.24
460.85	9998.18
461.06	10127.21
461.27	9822.06
461.48	10209.12
461.69	10311.52
461.89	9953.13
462.10	10221.41
462.31	10155.88
462.52	10164.07
462.73	10280.80
462.94	10655.58
463.14	10501.98
463.35	10344.29
463.56	10706.78
463.77	10858.33
463.98	10717.02
464.18	10676.06
464.39	10987.35
464.60	11263.83
464.81	11083.61
465.02	11042.65
465.23	11163.48
465.43	11071.32
465.64	11425.62
465.85	11224.92
466.06	11255.64
466.27	11454.29
466.47	11583.31
466.68	11509.58
466.89	11599.70
467.10	11867.98
467.30	11759.44
467.51	11665.23
467.72	12031.82
467.93	11833.16
468.14	12027.72
468.34	11937.61
468.55	12275.52
468.76	12185.41
468.97	12113.74
469.17	12343.11
469.38	12490.56
469.59	12738.37
469.80	12316.48
470.01	12605.25
470.21	12457.79
470.42	12924.73
470.63	12879.68
470.84	12533.57
471.04	12611.39
471.25	12965.69
471.46	13256.50
471.67	13360.95
471.87	13231.93
472.08	13240.12
472.29	13715.25
472.50	13324.08
472.70	13399.86
472.91	13604.66
473.12	13852.46
473.33	13993.77
473.53	14223.14
473.74	13995.82
473.95	14311.21
474.16	14374.69
474.36	14522.15
474.57	14522.15
474.78	14939.93
474.99	14559.01
475.19	14753.57
475.40	14901.02
475.61	15068.95
475.81	15347.48
476.02	15580.95
476.23	15177.50
476.44	15527.70
476.64	15607.57
476.85	15628.05
477.06	15566.61
477.27	16045.84
477.47	15970.06
477.68	16015.12
477.89	16174.86
478.09	16148.23
478.30	16426.76
478.51	16523.01
478.71	16768.77
478.92	16703.23
479.13	16639.75
479.34	17014.52
479.54	17139.45
479.75	16901.89
479.96	17161.98
480.16	17143.55
480.37	17491.70
480.58	17520.37
480.78	17774.32
480.99	17841.90
481.20	17870.58
481.41	17911.53
481.61	18114.28
481.82	18054.89
482.03	18181.87
482.23	18431.72
482.44	18724.58
482.65	18669.28
482.85	18890.46
483.06	18781.92
483.27	18947.81
483.47	19046.11
483.68	19017.44
483.89	19685.08
484.09	19304.15
484.30	19511.00
484.51	19611.35
484.71	19967.70
484.92	19982.03
485.13	20037.33
485.33	19818.19
485.54	20094.67
485.75	20272.84
485.95	20365.00
486.16	20487.88
486.37	20674.24
486.57	20586.18
486.78	20862.66
486.98	20729.54
487.19	21073.60
487.40	21284.54
487.60	21233.34
487.81	21612.21
488.02	21563.06
488.22	21358.27
488.43	21665.46
488.64	21970.61
488.84	22079.15
489.05	22013.62
489.25	22150.83
489.46	22455.98
489.67	22613.67
489.87	22283.95
490.08	22828.71
490.29	22709.93
490.49	22939.30
490.70	23029.41
490.90	23053.98
491.11	22927.01
491.32	23129.76
491.52	23115.42
491.73	23226.01
491.94	23443.10
492.14	23598.74
492.35	23705.24
492.55	23967.38
492.76	24233.61
492.97	24118.93
493.17	24209.04
493.38	24331.92
493.58	24276.62
493.79	24649.35
494.00	24321.68
494.20	24755.85
494.41	24774.28
494.61	24923.78
494.82	25036.42
495.02	25097.86
495.23	25171.58
495.44	25360.00
495.64	25382.52
495.85	25265.79
496.05	25556.60
496.26	25484.92
496.47	25917.04
496.67	25818.74
496.88	26154.61
497.08	25876.09
497.29	26422.89
497.49	25900.66
497.70	26336.88
497.91	26535.53
498.11	26193.52
498.32	26693.22
498.52	26846.82
498.73	27227.74
498.93	26801.77
499.14	26863.21
499.34	27106.91
499.55	27299.42
499.76	26953.32
499.96	27293.28
500.17	27350.62
500.37	27276.90
500.58	27317.86
500.78	27747.93
500.99	27577.95
501.19	28036.69
501.40	27723.35
501.60	27776.60
501.81	28010.07
502.02	28255.82
502.22	27854.42
502.43	28655.18
502.63	28485.20
502.84	28808.78
503.04	28595.79
503.25	28448.33
503.45	28567.12
503.66	28708.43
503.86	28552.78
504.07	29238.85
504.27	28964.42
504.48	29316.67
504.68	28868.17
504.89	29587.00
505.09	29611.58
505.30	29124.16
505.50	29384.26
505.71	29924.92
505.91	29959.73
506.12	29699.64
506.32	29496.89
506.53	29697.59
506.73	29967.93
506.94	30168.63
507.14	29716.03
507.35	30008.89
507.55	30225.97
507.76	30221.87
507.96	30336.56
508.17	30668.33
508.37	30565.93
508.58	30570.03
508.78	30838.31
508.99	30928.42
509.19	30654.00
509.40	31206.95
509.60	30598.70
509.81	30881.32
510.01	30617.13
510.22	31270.43
510.42	31239.72
510.63	30930.47
510.83	31262.24
511.04	31395.36
511.24	31295.01
511.44	31600.16
511.65	31950.36
511.85	31667.74
512.06	31866.39
512.26	31559.20
512.47	31704.60
512.67	31862.30
512.88	31768.09
513.08	31712.80
513.29	31764.00
513.49	32212.50
513.69	32167.45
513.90	32120.34
514.10	32065.05
514.31	32472.59
514.51	32622.09
514.72	32323.09
514.92	32241.17
515.13	32581.13
515.33	32814.60
515.53	32691.73
515.74	32753.16
515.94	33025.54
516.15	32699.92
516.35	32884.23
516.56	33285.64
516.76	32974.34
516.96	33109.51
517.17	33469.95
517.37	33136.13
517.58	33324.55
517.78	33267.20
517.99	33486.34
518.19	33488.38
518.39	33443.33
518.60	33883.64
518.80	33783.29
519.01	33672.70
519.21	34024.95
519.41	34088.44
519.62	33938.94
519.82	34227.70
520.03	34020.86
520.23	34078.20
520.43	34131.45
520.64	34551.28
520.84	34784.75
521.05	34592.24
521.25	34758.13
521.45	34909.68
521.66	34827.76
521.86	34702.83
522.07	35020.27
522.27	35124.71
522.47	34897.39
522.68	35444.20
522.88	35192.30
523.08	35464.67
523.29	35552.74
523.49	35544.55
523.70	35591.65
523.90	35986.91
524.10	36027.87
524.31	35646.94
524.51	35560.93
524.71	36373.97
524.92	36177.37
525.12	36138.46
525.33	36468.18
525.53	36496.85
525.73	36677.07
525.94	36431.32
526.14	36584.91
526.34	36576.72
526.55	37088.71
526.75	37197.26
526.95	37135.82
527.16	36955.60
527.36	37533.12
527.56	37346.76
527.77	37823.93
527.97	37541.32
528.17	37322.18
528.38	38081.98
528.58	37686.72
528.78	38145.47
528.99	37887.42
529.19	38403.51
529.39	37893.57
529.60	38593.97
529.80	38231.48
530.00	38276.54
530.21	38522.29
530.41	38923.69
530.61	38606.26
530.82	38667.70
531.02	38448.57
531.22	38657.46
531.43	38530.48
531.63	38938.03
531.83	39400.87
532.04	39900.58
532.24	39548.32
532.44	39959.97
532.64	39867.81
532.85	40043.93
533.05	39859.62
533.25	39771.55
533.46	40127.90
533.66	40426.90
533.86	39812.51
534.07	40902.03
534.27	40287.64
534.47	40957.33
534.67	40899.98
534.88	40734.10
535.08	40447.38
535.28	40883.60
535.49	40955.28
535.69	41309.58
535.89	41457.03
536.09	41207.18
536.30	41661.83
536.50	41907.58
536.70	41667.97
536.91	41672.07
537.11	41751.94
537.31	41893.25
537.51	41960.83
537.72	42638.71
537.92	42505.59
538.12	42968.43
538.32	42028.41
538.53	42675.57
538.73	42536.31
538.93	43025.78
539.13	42878.32
539.34	42581.37
539.54	42339.71
539.74	43173.23
539.94	43068.78
540.15	43081.07
540.35	43140.46
540.55	43289.96
540.75	43111.79
540.96	43191.66
541.16	43580.78
541.36	43601.25
541.56	43785.57
541.77	44393.82
541.97	43664.74
542.17	44146.01
542.37	43959.65
542.58	43750.76
542.78	44148.06
542.98	43922.79
543.18	44473.69
543.38	44504.41
543.59	44778.84
543.79	44260.70
543.99	44756.31
544.19	45020.50
544.40	44803.41
544.60	44864.85
544.80	44840.28
545.00	45014.35
545.20	45190.48
545.41	44768.60
545.61	44825.94
545.81	45612.36
546.01	45473.10
546.21	45620.55
546.42	45698.37
546.62	45460.81
546.82	45319.50
547.02	45186.38
547.22	45929.80
547.43	45737.29
547.63	46191.94
547.83	46441.79
548.03	45684.04
548.23	45833.54
548.44	46148.93
548.64	46204.22
548.84	46286.14
549.04	46167.36
549.24	46474.55
549.45	46611.77
549.65	46218.56
549.85	46343.48
550.05	46495.03
550.25	46552.38
550.45	46609.72
550.66	46875.96
550.86	46675.26
551.06	46703.93
551.26	47125.81
551.46	46908.72
551.66	47164.72
551.87	47029.55
552.07	47074.61
552.27	47158.58
552.47	47240.50
552.67	47691.05
552.87	47383.85
553.07	47220.02
553.28	47727.91
553.48	47332.65
553.68	47496.49
553.88	47308.08
554.08	47732.01
554.28	47084.85
554.48	47596.84
554.69	47711.53
554.89	47672.62
555.09	47901.99
555.29	47602.99
555.49	47643.94
555.69	48069.92
555.89	47824.17
556.10	48026.92
556.30	47693.10
556.50	48178.46
556.70	48190.75
556.90	48596.25
557.10	48379.17
557.30	48026.92
557.50	48502.04
557.70	48270.62
557.91	48012.58
558.11	48452.89
558.31	48940.31
558.51	48344.35
558.71	49057.04
558.91	48672.03
559.11	48747.80
559.31	48706.84
559.51	48266.53
559.72	48532.76
559.92	49032.47
560.12	48448.80
560.32	48991.51
560.52	48899.35
560.72	48641.31
560.92	48903.45
561.12	49095.95
561.32	49116.43
561.52	48792.86
561.72	49005.84
561.93	48950.55
562.13	49358.09
562.33	48839.96
562.53	49386.77
562.73	48979.22
562.93	49141.01
563.13	49472.78
563.33	49327.38
563.53	49452.30
563.73	48715.03
563.93	49397.01
564.13	49659.15
564.33	49872.14
564.53	49474.83
564.74	50003.20
564.94	49548.56
565.14	49366.29
565.34	49708.30
565.54	49360.14
565.74	49698.06
565.94	50183.43
566.14	49890.57
566.34	49591.56
566.54	50312.45
566.74	49519.88
566.94	50074.88
567.14	50304.26
567.34	49827.08
567.54	50001.16
567.74	49489.16
567.94	49773.83
568.14	50230.53
568.34	50451.71
568.54	50146.56
568.74	50314.50
568.94	50267.39
569.14	50564.35
569.34	50218.24
569.54	50523.39
569.75	49986.82
569.95	49970.44
570.15	50525.44
570.35	50253.06
570.55	50552.06
570.75	50640.12
570.95	50771.19
571.15	50525.44
571.35	50357.50
571.55	50568.44
571.75	50867.45
571.95	50767.10
572.15	50558.20
572.35	50693.37
572.55	51109.11
572.75	50795.77
572.95	51004.66
573.15	51129.59
573.35	50849.02
573.55	50734.33
573.75	51098.87
573.95	50916.60
574.15	51262.71
574.35	51385.58
574.55	51389.68
574.75	50588.92
574.95	51412.21
575.15	51135.73
575.34	51289.33
575.54	51770.60
575.74	51700.97
575.94	51356.91
576.14	51451.12
576.34	51549.42
576.54	51684.59
576.74	51361.01
576.94	51922.15
577.14	51655.92
577.34	52122.85
577.54	51748.07
577.74	51916.01
577.94	51762.41
578.14	52237.54
578.34	52120.80
578.54	51641.58
578.74	52161.76
578.94	52147.43
579.14	52112.61
579.34	52432.10
579.54	51811.56
579.74	52587.74
579.94	52618.46
580.13	52749.53
580.33	52440.29
580.53	52358.37
580.73	52450.53
580.93	52540.64
581.13	52460.77
581.33	52538.59
581.53	53189.84
581.73	53079.25
581.93	53345.49
582.13	52933.85
582.33	53081.30
582.53	53066.97
582.73	53236.95
582.92	53036.25
583.12	53533.90
583.32	53116.12
583.52	53322.96
583.72	53470.42
583.92	53275.86
584.12	53009.62
584.32	53484.75
584.52	53460.18
584.72	53581.01
584.92	53712.08
585.11	54219.97
585.31	53609.68
585.51	54119.62
585.71	53601.49
585.91	54574.27
586.11	53517.52
586.31	53837.00
586.51	54314.18
586.71	53880.01
586.91	54131.91
587.10	54047.94
587.30	54555.84
587.50	54510.78
587.70	54549.70
587.90	54738.11
588.10	54787.26
588.30	54070.47
588.50	54486.21
588.69	54389.95
588.89	54715.58
589.09	54133.96
589.29	54252.74
589.49	54987.96
589.69	54521.02
589.89	54656.19
590.08	54555.84
590.28	54670.53
590.48	54965.43
590.68	54443.20
590.88	54721.72
591.08	54832.32
591.28	54973.63
591.47	55153.85
591.67	55030.97
591.87	54858.94
592.07	55223.48
592.27	55262.39
592.47	55526.58
592.67	55409.84
592.86	54863.03
593.06	54961.34
593.26	55256.24
593.46	55325.88
593.66	55223.48
593.86	55229.62
594.05	55487.67
594.25	55663.79
594.45	55141.56
594.65	55215.29
594.85	54942.91
595.05	55547.06
595.24	56009.90
595.44	55733.42
595.64	55862.44
595.84	55704.75
596.04	55741.61
596.23	56030.38
596.43	56022.19
596.63	55997.61
596.83	55813.29
597.03	56013.99
597.22	56501.41
597.42	55805.10
597.62	56265.89
597.82	56149.16
598.02	55891.12
598.21	56368.29
598.41	56261.80
598.61	56337.57
598.81	56601.76
599.01	56722.59
599.20	56525.99
599.40	56491.17
599.60	56882.33
599.80	56814.75
600.00	56585.38
600.19	56839.32
600.39	56456.35
600.59	56837.28
600.79	56384.68
600.98	56781.98
601.18	56898.72
601.38	57238.68
601.58	57273.49
601.78	56960.15
601.97	56814.75
602.17	57633.94
602.37	57173.14
602.57	56833.18
602.76	57423.00
602.96	57093.27
603.16	57541.78
603.36	57048.22
603.55	57693.33
603.75	57406.61
603.95	57423.00
604.15	57494.67
604.34	57511.06
604.54	58076.30
604.74	57777.29
604.94	57468.05
605.13	57816.21
605.33	57998.48
605.53	57568.40
605.73	57947.28
605.92	57654.42
606.12	58274.95
606.32	58141.83
606.52	58174.60
606.71	58041.48
606.91	58127.50
607.11	57992.33
607.30	58342.53
607.50	58102.92
607.70	58471.56
607.90	57926.80
608.09	58100.87
608.29	58397.83
608.49	58363.01
608.68	58221.70
608.88	58655.87
609.08	58479.75
609.28	58459.27
609.47	58215.56
609.67	58705.02
609.87	58598.53
610.06	58795.13
610.26	58530.95
610.46	58832.00
610.66	58928.25
610.85	58528.90
611.05	58551.43
611.25	58741.89
611.44	58500.23
611.64	58608.77
611.84	58813.57
612.03	58383.49
612.23	58750.08
612.43	58692.74
612.62	58227.85
612.82	58326.15
613.02	58350.73
613.21	58520.71
613.41	58508.42
613.61	58522.76
613.80	58467.46
614.00	58471.56
614.20	58260.62
614.39	58166.41
614.59	58731.65
614.79	58518.66
614.98	58391.68
615.18	58600.58
615.38	58776.70
615.57	58279.05
615.77	58604.67
615.97	58176.65
616.16	58367.11
616.36	58692.74
616.56	59135.10
616.75	58537.09
616.95	58176.65
617.15	58659.97
617.34	58430.60
617.54	58420.36
617.74	58926.20
617.93	59030.65
618.13	58186.89
618.32	58477.70
618.52	58383.49
618.72	58176.65
618.91	58389.64
619.11	58350.73
619.31	58662.02
619.50	58297.48
619.70	58637.44
619.90	58117.26
620.09	58631.30
620.29	58397.83
620.48	58109.07
620.68	58594.43
620.88	58066.06
621.07	58297.48
621.27	58453.12
621.46	58221.70
621.66	58438.79
621.86	58354.82
622.05	57894.03
622.25	58463.36
622.44	58053.77
622.64	58109.07
622.84	58147.98
623.03	57939.08
623.23	58301.57
623.42	58053.77
623.62	57857.17
623.82	58240.14
624.01	57570.45
624.21	57879.69
624.40	57877.64
624.60	57762.96
624.80	58111.11
624.99	58033.29
625.19	57580.69
625.38	57990.28
625.58	57775.25
625.77	58240.14
625.97	57996.43
626.17	57722.00
626.36	57705.62
626.56	57926.80
626.75	57515.15
626.95	57953.42
627.14	58004.62
627.34	58291.33
627.54	58057.87
627.73	58018.95
627.93	58035.34
628.12	57533.59
628.32	57638.03
628.51	58217.61
628.71	57812.11
628.90	57623.70
629.10	57891.98
629.30	57277.59
629.49	57924.75
629.69	58049.67
629.88	57846.93
630.08	58107.02
630.27	57431.19
630.47	57509.01
630.66	57670.80
630.86	58254.47
631.05	57656.46
631.25	58082.44
631.44	57724.05
631.64	57762.96
631.84	57535.63
632.03	58072.20
632.23	57418.90
632.42	58305.67
632.62	57832.59
632.81	57322.65
633.01	57537.68
633.20	58008.71
633.40	58045.58
633.59	57846.93
633.79	57246.87
633.98	57519.25
634.18	57908.36
634.37	57744.53
634.57	57433.24
634.76	57978.00
634.96	58027.15
635.15	57822.35
635.35	57326.74
635.54	57648.27
635.74	58100.87
635.93	57283.73
636.13	57644.18
636.32	58012.81
636.52	57332.89
636.71	57722.00
636.91	57365.65
637.10	58334.34
637.30	57896.08
637.49	57191.58
637.69	57519.25
637.88	58055.82
638.08	57609.36
638.27	57599.12
638.46	57187.48
638.66	57537.68
638.85	57703.57
639.05	57601.17
639.24	57760.91
639.44	57429.14
639.63	57670.80
639.83	57904.27
640.02	57279.64
640.22	57662.61
640.41	57537.68
640.61	56945.82
640.80	57975.95
640.99	57623.70
641.19	58084.49
641.38	57691.28
641.58	57230.49
641.77	57535.63
641.97	57578.64
642.16	57549.97
642.36	57738.38
642.55	58000.52
642.74	57218.20
642.94	58010.76
643.13	57797.77
643.33	57914.51
643.52	57955.47
643.72	57597.07
643.91	57523.35
644.10	58016.91
644.30	57865.36
644.49	57586.83
644.69	57644.18
644.88	57785.49
645.08	57472.15
645.27	57590.93
645.46	57404.56
645.66	57568.40
645.85	57578.64
646.05	57830.54
646.24	57420.95
646.43	57580.69
646.63	58039.43
646.82	57701.52
647.02	57566.35
647.21	57898.12
647.40	57840.78
647.60	58035.34
647.79	58156.17
647.99	57881.74
648.18	57240.73
648.37	58092.68
648.57	57662.61
648.76	57867.40
648.96	56962.20
649.15	58287.24
649.34	57980.04
649.54	57879.69
649.73	57640.08
649.92	57453.72
650.12	57730.19
650.31	58131.59
650.51	57787.53
650.70	57797.77
650.89	57635.98
651.09	58000.52
651.28	58055.82
651.47	57676.94
651.67	57605.26
651.86	58358.92
652.06	57273.49
652.25	58090.63
652.44	58154.12
652.64	57697.42
652.83	57711.76
653.02	57463.96
653.22	57429.14
653.41	57373.84
653.60	57291.93
653.80	57760.91
653.99	57619.60
654.18	57740.43
654.38	57652.37
654.57	57406.61
654.76	57697.42
654.96	57490.58
655.15	57353.36
655.34	57349.27
655.54	57355.41
655.73	57769.10
655.92	57576.59
656.12	57691.28
656.31	57713.81
656.50	57320.60
656.70	57359.51
656.89	57298.07
657.08	57638.03
657.28	57599.12
657.47	57715.86
657.66	57795.73
657.86	57279.64
658.05	57502.87
658.24	57984.14
658.43	56906.91
658.63	57812.11
658.82	57621.65
659.01	57736.34
659.21	57805.97
659.40	57535.63
659.59	57488.53
659.79	57246.87
659.98	57359.51
660.17	57533.59
660.36	57513.11
660.56	57042.07
660.75	57627.79
660.94	57429.14
661.14	57142.42
661.33	57345.17
661.52	57136.28
661.71	57973.90
661.91	57326.74
662.10	57128.09
662.29	57662.61
662.49	57556.11
662.68	57410.71
662.87	57742.48
663.06	57179.29
663.26	57447.57
663.45	58076.30
663.64	57306.26
663.83	57816.21
664.03	57445.52
664.22	57314.45
664.41	56810.65
664.60	57044.12
664.80	57443.48
664.99	56884.38
665.18	57234.58
665.37	57255.06
665.57	57406.61
665.76	56974.49
665.95	57660.56
666.14	56994.97
666.34	56976.54
666.53	56798.37
666.72	56902.81
666.91	56990.87
667.11	56722.59
667.30	57080.98
667.49	57410.71
667.68	56939.68
667.87	56849.56
668.07	56978.59
668.26	56960.15
668.45	57087.13
668.64	56872.09
668.84	57291.93
669.03	56937.63
669.22	56894.62
669.41	57130.14
669.60	57023.64
669.80	56775.84
669.99	57443.48
670.18	56870.04
670.37	56747.17
670.57	56853.66
670.76	56169.64
670.95	57148.57
671.14	57156.76
671.33	56730.78
671.53	56951.96
671.72	57193.62
671.91	56833.18
672.10	56761.50
672.29	57037.98
672.48	56558.75
672.68	57173.14
672.87	56640.67
673.06	56335.52
673.25	56374.44
673.44	56620.19
673.64	56464.55
673.83	56480.93
674.02	56550.56
674.21	56407.20
674.40	56974.49
674.59	56421.54
674.79	56331.43
674.98	55991.47
675.17	56599.71
675.36	56421.54
675.55	56566.94
675.74	56179.88
675.94	55590.06
676.13	56304.80
676.32	56128.68
676.51	56581.28
676.70	56186.02
676.89	55997.61
677.08	56157.35
677.28	56290.47
677.47	56521.89
677.66	56286.37
677.85	55946.41
678.04	56382.63
678.23	56616.10
678.42	55940.27
678.62	55571.63
678.81	56519.84
679.00	55628.98
679.19	56210.60
679.38	56247.46
679.57	55831.72
679.76	55854.25
679.96	55917.74
680.15	55901.36
680.34	56138.92
680.53	56044.71
680.72	55653.55
680.91	56040.62
681.10	55297.20
681.29	55807.15
681.48	55604.40
681.68	55512.24
681.87	55377.08
682.06	55831.72
682.25	55463.09
682.44	55250.10
682.63	55166.13
682.82	55446.71
683.01	55219.38
683.20	55026.87
683.39	55489.71
683.59	55186.61
683.78	54979.77
683.97	55119.03
684.16	55246.00
684.35	55141.56
684.54	55270.58
684.73	55315.64
684.92	54662.33
685.11	55344.31
685.30	54484.16
685.49	55108.79
685.69	54951.10
685.88	55051.45
686.07	54701.25
686.26	54799.55
686.45	54879.42
686.64	54975.67
686.83	54596.80
687.02	55225.53
687.21	54705.34
687.40	54574.27
687.59	54408.39
687.78	54617.28
687.97	54531.26
688.16	54473.92
688.35	54297.80
688.54	54109.38
688.74	54162.63
688.93	54758.59
689.12	54623.42
689.31	54344.90
689.50	53984.46
689.69	53667.02
689.88	53517.52
690.07	54029.51
690.26	53931.21
690.45	54895.80
690.64	53750.99
690.83	54009.03
691.02	53904.59
691.21	53652.69
691.40	53593.29
691.59	53896.39
691.78	53828.81
691.97	54392.00
692.16	53656.78
692.35	54346.95
692.54	53937.35
692.73	53845.19
692.92	53957.83
693.11	53861.58
693.30	53396.69
693.49	53550.29
693.68	53546.19
693.87	53558.48
694.06	53441.74
694.25	53318.87
694.44	53351.63
694.63	53325.01
694.82	53079.25
695.01	53191.89
695.20	52765.91
695.39	52972.76
695.58	52690.14
695.77	52649.18
695.96	52524.25
696.15	52810.97
696.34	52575.45
696.53	53011.67
696.72	53177.56
696.91	52817.11
697.10	52694.24
697.29	52511.97
697.48	52511.97
697.67	52380.90
697.86	52694.24
698.05	52354.27
698.24	52835.55
698.43	52450.53
698.62	52583.65
698.81	52024.55
699.00	52827.35
699.19	52253.92
699.38	52577.50
699.57	51985.64
699.76	52649.18
699.95	52384.99
700.14	52237.54
700.32	52155.62
700.51	51858.66
700.70	52012.26
700.89	52270.31
701.08	52081.89
701.27	52047.08
701.46	52145.38
701.65	51512.56
701.84	51905.77
702.03	52081.89
702.22	51662.06
702.41	51635.44
702.60	51778.79
702.79	51852.52
702.98	51741.93
703.17	51506.41
703.35	51477.74
703.54	51444.98
703.73	51801.32
703.92	51363.06
704.11	51541.23
704.30	51287.28
704.49	51166.45
704.68	51408.11
704.87	51385.58
705.06	50951.41
705.25	50892.02
705.43	51059.96
705.62	51211.51
705.81	51666.16
706.00	50920.70
706.19	50355.46
706.38	50769.15
706.57	50574.59
706.76	50693.37
706.95	50640.12
707.14	50515.20
707.32	50552.06
707.51	50767.10
707.70	50693.37
707.89	50658.56
708.08	50791.67
708.27	50388.22
708.46	50533.63
708.65	49794.31
708.84	50433.28
709.02	50271.49
709.21	50277.63
709.40	49921.29
709.59	50107.65
709.78	49992.97
709.97	50453.76
710.16	50105.60
710.34	50140.42
710.53	50109.70
710.72	49468.69
710.91	50150.66
711.10	49913.09
711.29	49941.77
711.48	49589.52
711.66	49763.59
711.85	49569.04
712.04	49702.15
712.23	49696.01
712.42	49581.32
712.61	49579.28
712.80	49566.99
712.98	49560.84
713.17	49036.56
713.36	49169.68
713.55	49104.15
713.74	49194.26
713.93	49280.27
714.11	49399.05
714.30	49022.23
714.49	49100.05
714.68	49079.57
714.87	49319.18
715.06	49179.92
715.24	49478.92
715.43	49075.48
715.62	48796.95
715.81	48590.11
716.00	49399.05
716.18	48586.01
716.37	48504.09
716.56	48241.95
716.75	48719.13
716.94	48639.26
717.12	48481.56
717.31	48381.21
717.50	48047.39
717.69	47998.24
717.88	47994.15
718.06	48407.84
718.25	48319.77
718.44	48024.87
718.63	48153.89
718.82	47965.48
719.00	47971.62
719.19	47740.20
719.38	47893.80
719.57	47539.50
719.76	47211.82
719.94	47320.37
720.13	47131.95
720.32	47754.54
720.51	47422.76
720.69	47086.90
720.88	47131.95
721.07	47224.11
721.26	46988.60
721.44	46865.72
721.63	46871.86
721.82	46513.47
722.01	46712.12
722.20	46925.11
722.38	46810.42
722.57	46327.10
722.76	46665.02
722.95	46636.34
723.13	46331.20
723.32	46355.77
723.51	46394.68
723.70	46048.58
723.88	46347.58
724.07	46126.40
724.26	46335.29
724.44	45571.40
724.63	46130.50
724.82	46175.55
725.01	45901.12
725.19	45684.04
725.38	45763.91
725.57	45884.74
725.76	45970.75
725.94	45444.43
726.13	45485.39
726.32	45733.19
726.51	45022.54
726.69	46046.53
726.88	45563.21
727.07	45800.77
727.25	45669.70
727.44	45530.44
727.63	45489.48
727.82	45811.01
728.00	45368.65
728.19	45354.32
728.38	45503.82
728.56	45014.35
728.75	45655.37
728.94	45296.97
729.12	45284.68
729.31	45579.59
729.50	45520.20
729.69	45364.56
729.87	45303.12
730.06	45272.40
730.25	45274.45
730.43	45749.57
730.62	44954.96
730.81	45294.92
730.99	45110.61
731.18	44983.63
731.37	44778.84
731.55	45247.82
731.74	45460.81
731.93	45260.11
732.11	45198.67
732.30	44977.49
732.49	44985.68
732.67	45012.31
732.86	44594.52
733.05	45165.90
733.23	44635.48
733.42	44899.67
733.61	44660.05
733.79	45100.37
733.98	45002.07
734.17	44832.08
734.35	44815.70
734.54	44787.03
734.73	45200.72
734.91	44787.03
735.10	44244.32
735.29	45071.70
735.47	44359.00
735.66	44682.58
735.84	44578.14
736.03	44146.01
736.22	44784.98
736.40	44279.13
736.59	44508.50
736.78	44682.58
736.96	44582.23
737.15	44733.78
737.33	44332.38
737.52	44062.05
737.71	44049.76
737.89	44281.18
738.08	43904.35
738.27	43758.95
738.45	44461.40
738.64	44125.53
738.82	44223.84
739.01	43677.03
739.20	44236.12
739.38	43793.76
739.57	43990.37
739.75	44205.41
739.94	43857.25
740.13	44045.66
740.31	43529.58
740.50	43664.74
740.68	43887.97
740.87	44023.14
741.06	43822.44
741.24	43574.63
741.43	43404.65
741.61	43750.76
741.80	43337.07
741.99	43507.05
742.17	43107.69
742.36	43146.61
742.54	43423.08
742.73	43314.54
742.91	43480.42
743.10	43019.63
743.29	43511.14
743.47	43173.23
743.66	43097.45
743.84	43193.71
744.03	43308.40
744.21	42906.99
744.40	43476.33
744.59	43167.09
744.77	42665.33
744.96	42812.79
745.14	42980.72
745.33	42745.20
745.51	42765.68
745.70	42671.48
745.88	42478.97
746.07	42796.40
746.26	42245.50
746.44	42493.30
746.63	42816.88
746.81	42466.68
747.00	42351.99
747.18	42562.93
747.37	42296.70
747.55	42501.50
747.74	42583.41
747.92	42311.03
748.11	42098.05
748.29	42438.01
748.48	41915.78
748.66	41561.48
748.85	42397.05
749.03	41903.49
749.22	42429.82
749.41	42026.37
749.59	42028.41
749.78	42341.75
749.96	41719.17
750.15	41848.19
750.33	42022.27
750.52	41876.86
750.70	41700.74
750.89	41631.11
751.07	41487.75
751.26	41547.14
751.44	41407.88
751.63	41618.82
751.81	41561.48
752.00	41575.81
752.18	41735.56
752.37	41340.30
752.55	41416.07
752.74	41465.22
752.92	41262.47
753.10	41104.78
753.29	41192.84
753.47	40988.05
753.66	40942.99
753.84	41133.45
754.03	40981.90
754.21	40656.28
754.40	40940.94
754.58	41264.52
754.77	40940.94
754.95	40770.96
755.14	40820.11
755.32	40895.89
755.51	40633.75
755.69	40310.17
755.88	40383.90
756.06	40512.92
756.24	40267.16
756.43	40297.88
756.61	40353.18
756.80	40447.38
756.98	40334.74
757.17	40072.60
757.35	40486.29
757.54	40129.95
757.72	40105.37
757.90	39908.77
758.09	40197.53
758.27	40218.01
758.46	40029.60
758.64	40037.79
758.83	39765.41
759.01	39941.53
759.19	40154.52
759.38	39683.49
759.56	39902.62
759.75	39665.06
759.93	39601.57
760.12	39734.69
760.30	39669.15
760.48	39447.97
760.67	39427.49
760.85	39708.07
761.04	39566.76
761.22	39423.40
761.40	39470.50
761.59	39316.90
761.77	39208.36
761.96	39179.69
762.14	39644.58
762.32	38892.97
762.51	38956.46
762.69	38870.45
762.88	39353.77
763.06	39161.26
763.24	39083.44
763.43	39370.15
763.61	38520.24
763.80	38966.70
763.98	38481.33
764.16	38743.47
764.35	38700.47
764.53	38405.56
764.72	38669.75
764.90	38456.76
765.08	38843.82
765.27	38473.14
765.45	38301.11
765.63	38270.39
765.82	38503.86
766.00	38071.74
766.18	38581.68
766.37	38501.81
766.55	37864.89
766.74	38165.95
766.92	38012.35
767.10	38041.02
767.29	38067.64
767.47	37789.12
767.65	38243.77
767.84	37582.27
768.02	37670.34
768.20	37230.02
768.39	37977.53
768.57	37844.41
768.75	37754.30
768.94	37776.83
769.12	37729.73
769.30	37371.33
769.49	37526.98
769.67	37631.43
769.85	37207.50
770.04	37580.23
770.22	37201.35
770.40	36849.10
770.59	37627.33
770.77	37129.67
770.95	37189.06
771.14	37066.19
771.32	36738.51
771.50	36541.91
771.69	36941.26
771.87	36963.79
772.05	36668.88
772.24	36562.39
772.42	36464.08
772.60	36554.19
772.78	36267.48
772.97	36558.29
773.15	36654.54
773.33	36220.38
773.52	36249.05
773.70	36318.68
773.88	36576.72
774.07	35888.60
774.25	36648.40
774.43	36449.75
774.61	36330.97
774.80	36754.90
774.98	36562.39
775.16	36273.62
775.34	36601.30
775.53	36335.06
775.71	36150.74
775.89	36296.15
776.08	36052.44
776.26	36459.99
776.44	36132.31
776.62	36052.44
776.81	36107.74
776.99	36566.48
777.17	36115.93
777.35	36337.11
777.54	36767.18
777.72	36238.81
777.90	36208.09
778.08	36373.97
778.27	36531.67
778.45	36670.93
778.63	36859.34
778.81	36476.37
779.00	36791.76
779.18	36967.88
779.36	37373.38
779.54	36517.33
779.73	36652.50
779.91	36906.44
780.09	36378.07
780.27	36881.87
780.46	36656.59
780.64	37176.78
780.82	36691.41
781.00	36509.14
781.19	36957.64
781.37	36758.99
781.55	36623.83
781.73	36994.51
781.91	36781.52
782.10	37088.71
782.28	36953.55
782.46	36675.02
782.64	37316.04
782.82	36701.65
783.01	37004.75
783.19	37010.89
783.37	36888.01
783.55	36894.16
783.74	37322.18
783.92	36845.01
784.10	37115.34
784.28	37137.87
784.46	36703.70
784.64	36568.53
784.83	36703.70
785.01	36734.42
785.19	36951.50
785.37	37033.42
785.55	36750.80
785.74	36718.03
785.92	36568.53
786.10	36423.12
786.28	36707.79
786.46	36566.48
786.64	36101.59
786.83	36328.92
787.01	36402.64
787.19	36304.34
787.37	36654.54
787.55	35904.99
787.74	35919.32
787.92	36060.63
788.10	36132.31
788.28	35964.38
788.46	36519.38
788.64	35890.65
788.82	36533.71
789.01	36144.60
789.19	36189.66
789.37	35515.87
789.55	35917.28
789.73	35775.97
789.91	35470.82
790.09	35661.28
790.28	35413.48
790.46	35372.52
790.64	35544.55
790.82	35323.36
791.00	35411.43
791.18	35309.03
791.36	35501.54
791.55	35485.15
791.73	35472.87
791.91	34649.58
792.09	35055.08
792.27	34731.50
792.45	34962.92
792.63	34975.21
792.81	34600.43
793.00	34629.10
793.18	34553.33
793.36	34364.92
793.54	34467.31
793.72	34653.68
793.90	34035.19
794.08	34371.06
794.26	34346.48
794.44	33814.01
794.62	33924.60
794.81	34047.48
794.99	33668.61
795.17	33797.63
795.35	33707.52
795.53	33779.20
795.71	33728.00
795.89	33281.54
796.07	33480.19
796.25	33439.23
796.43	32996.87
796.61	32937.48
796.80	33211.91
796.98	32978.44
797.16	32742.92
797.34	32798.22
797.52	32689.68
797.70	32982.54
797.88	32972.30
798.06	32452.11
798.24	32456.21
798.42	33158.66
798.60	32325.14
798.78	32468.50
798.96	32142.87
799.14	32011.80
799.32	32718.35
799.51	32265.75
799.69	31815.19
799.87	32083.48
800.05	31716.89
800.23	31942.17
800.41	31657.50
800.59	31585.82
800.77	31290.91
800.95	31395.36
801.13	31331.87
801.31	31233.57
801.49	31485.47
801.67	31184.42
801.85	31415.84
802.03	30907.94
802.21	30963.24
802.39	31073.83
802.57	30813.74
802.75	30723.63
802.93	30627.37
803.11	30668.33
803.29	30662.19
803.47	30502.45
803.65	30506.54
803.83	30512.69
804.01	30473.78
804.19	30168.63
804.37	29767.23
804.55	30117.43
804.73	30344.75
804.91	29982.26
805.09	30033.46
805.27	29709.88
805.45	29912.63
805.63	29724.22
805.81	29953.59
805.99	29728.31
806.17	29767.23
806.35	29197.89
806.53	29378.11
806.71	29337.15
806.89	29206.08
807.07	29281.86
807.25	29234.75
807.43	29062.72
807.61	29142.60
807.79	28882.50
807.97	28741.19
808.15	28874.31
808.33	28956.23
808.51	28913.22
808.69	28808.78
808.87	28477.01
809.05	28243.54
809.23	28610.12
809.41	28118.61
809.59	28401.23
809.77	28468.81
809.95	28376.66
810.13	28360.27
810.31	27907.67
810.49	28044.88
810.67	28096.08
810.84	28001.88
811.02	28337.74
811.20	27663.96
811.38	27999.83
811.56	27842.14
811.74	27774.55
811.92	27498.08
812.10	27774.55
812.28	27715.16
812.46	27498.08
812.64	27502.17
812.82	27051.62
813.00	27158.11
813.18	27344.48
813.36	27111.01
813.53	27147.87
813.71	27237.98
813.89	26885.73
814.07	27151.97
814.25	26891.88
814.43	26951.27
814.61	26820.20
814.79	26648.17
814.97	26558.06
815.15	26775.14
815.33	26510.96
815.50	26451.56
815.68	26842.73
815.86	27074.15
816.04	26115.70
816.22	26197.62
816.40	26232.43
816.58	26259.06
816.76	26246.77
816.94	26291.82
817.11	26136.18
817.29	26191.47
817.47	25853.56
817.65	26017.40
817.83	25831.03
818.01	25947.76
818.19	25833.08
818.37	25886.32
818.54	25740.92
818.72	25548.41
818.90	25677.43
819.08	25407.10
819.26	25609.85
819.44	25409.15
819.62	25476.73
819.80	25347.71
819.97	25122.43
820.15	25327.23
820.33	25437.82
820.51	25403.00
820.69	24852.10
820.87	25521.79
821.05	25239.17
821.22	25151.10
821.40	25200.26
821.58	24940.16
821.76	25214.59
821.94	25026.18
822.12	25038.47
822.29	25167.49
822.47	24815.24
822.65	25050.75
822.83	24866.44
823.01	24428.17
823.19	24411.79
823.36	24383.12
823.54	24553.10
823.72	24297.10
823.90	24536.71
824.08	24221.33
824.25	24389.26
824.43	24270.48
824.61	24172.18
824.79	24442.51
824.97	24211.09
825.15	23983.76
825.32	24270.48
825.50	24053.39
825.68	24139.41
825.86	23826.07
826.04	24008.34
826.21	23705.24
826.39	23879.32
826.57	24163.98
826.75	23852.69
826.93	23563.93
827.10	23606.94
827.28	23625.37
827.46	23719.57
827.64	23781.01
827.81	23596.70
827.99	23695.00
828.17	23330.46
828.35	23279.26
828.53	23340.70
828.70	23275.16
828.88	23369.37
829.06	23402.14
829.24	23666.33
829.41	22904.48
829.59	23170.72
829.77	23207.58
829.95	23033.50
830.12	23049.89
830.30	23107.23
830.48	23076.51
830.66	23096.99
830.84	22949.54
831.01	22746.79
831.19	22933.15
831.37	22986.40
831.55	22896.29
831.72	22666.92
831.90	22843.04
832.08	23199.39
832.25	22716.07
832.43	22771.36
832.61	22498.98
832.79	22720.17
832.96	22552.23
833.14	22615.72
833.32	22675.11
833.50	22771.36
833.67	22630.05
833.85	22279.85
834.03	22142.64
834.20	22372.01
834.38	22507.18
834.56	22286.00
834.74	22093.49
834.91	22122.16
835.09	22064.82
835.27	22226.60
835.44	22204.08
835.62	21757.62
835.80	22208.17
835.98	22163.12
836.15	22226.60
836.33	21735.09
836.51	22073.01
836.68	21927.60
836.86	22001.33
837.04	22085.30
837.21	22062.77
837.39	22079.15
837.57	21700.28
837.75	21810.87
837.92	21522.10
838.10	21558.97
838.28	21327.55
838.45	21532.34
838.63	21257.92
838.81	21413.56
838.98	21165.76
839.16	21319.35
839.34	21272.25
839.51	21446.33
839.69	21139.13
839.87	21411.51
840.04	21345.98
840.22	21520.06
840.40	21061.31
840.57	21008.06
840.75	21075.65
840.93	20879.04
841.10	21092.03
841.28	21311.16
841.46	21087.93
841.63	21120.70
841.81	20956.86
841.98	20911.81
842.16	21094.08
842.34	20897.47
842.51	20704.96
842.69	20793.03
842.87	20895.43
843.04	20981.44
843.22	20530.89
843.40	20541.13
843.57	20776.64
843.75	20674.24
843.92	20825.79
844.10	20782.79
844.28	20549.32
844.45	20770.50
844.63	20588.23
844.81	20272.84
844.98	20506.31
845.16	20246.22
845.33	20598.47
845.51	20418.25
845.69	20344.52
845.86	20276.94
846.04	20397.77
846.21	20590.28
846.39	20238.03
846.57	20205.26
846.74	20152.01
846.92	20029.13
847.09	20154.06
847.27	19988.18
847.45	20119.24
847.62	19906.26
847.80	20037.33
847.97	19717.84
848.15	19992.27
848.32	20016.85
848.50	20035.28
848.68	19728.08
848.85	19990.22
849.03	19775.19
849.20	19910.35
849.38	19830.48
849.56	19703.51
849.73	19627.73
849.91	19531.48
850.08	19760.85
850.26	19445.46
850.43	19644.12
850.61	19531.48
850.78	19482.33
850.96	19371.74
851.14	19377.88
851.31	19470.04
851.49	19320.54
851.66	19472.09
851.84	19285.72
852.01	19650.26
852.19	19443.42
852.36	19048.16
852.54	19144.41
852.71	19361.50
852.89	19338.97
853.07	19058.40
853.24	18958.05
853.42	19162.84
853.59	19211.99
853.77	18992.86
853.94	19080.92
854.12	19031.77
854.29	18917.09
854.47	18906.85
854.64	18929.38
854.82	18800.35
854.99	18908.90
855.17	19080.92
855.34	18585.32
855.52	18527.97
855.69	18702.05
855.87	18706.15
856.04	18802.40
856.22	18779.87
856.39	18634.47
856.57	18503.40
856.74	18566.88
856.92	18804.45
857.09	18427.62
857.27	18517.73
857.44	18466.53
857.62	18525.93
857.79	18659.04
857.97	18386.66
858.14	18319.08
858.32	18159.34
858.49	18274.03
858.67	18202.35
858.84	18155.24
859.02	18237.16
859.19	18249.45
859.37	17905.39
859.54	17960.69
859.72	18071.28
859.89	17979.12
860.06	17864.43
860.24	18073.32
860.41	17991.41
860.59	18001.65
860.76	17909.49
860.94	17893.10
861.11	17854.19
861.29	17747.70
861.46	18009.84
861.64	17768.18
861.81	17700.59
861.98	17647.35
862.16	17512.18
862.33	17704.69
862.51	17526.52
862.68	17520.37
862.86	17571.57
863.03	17577.72
863.21	17350.39
863.38	17614.58
863.55	17491.70
863.73	17540.85
863.90	17475.32
864.08	17465.08
864.25	17491.70
864.43	17313.53
864.60	17256.18
864.77	17190.65
864.95	17082.11
865.12	17233.66
865.30	17327.86
865.47	17282.81
865.64	17155.83
865.82	17231.61
865.99	17358.58
866.17	17141.50
866.34	17139.45
866.51	16690.95
866.69	17035.00
866.86	16869.12
867.04	16932.61
867.21	16867.07
867.38	16707.33
867.56	16740.10
867.73	16660.23
867.91	16717.57
868.08	16793.34
868.25	16776.96
868.43	16408.33
868.60	16598.79
868.78	16574.21
868.95	16731.90
869.12	16377.61
869.30	16389.89
869.47	16432.90
869.64	16207.62
869.82	16385.80
869.99	16236.30
870.16	16420.61
870.34	16547.59
870.51	16451.33
870.69	16226.06
870.86	16078.60
871.03	15818.51
871.21	16029.45
871.38	16156.43
871.55	15984.40
871.73	15978.25
871.90	15945.48
872.07	15619.86
872.25	15785.74
872.42	15638.29
872.59	15742.74
872.77	15730.45
872.94	15824.65
873.11	15787.79
873.29	15724.30
873.46	15646.48
873.63	15652.63
873.81	15689.49
873.98	15337.24
874.15	15251.22
874.33	15419.16
874.50	15304.47
874.67	15394.58
874.85	15101.72
875.02	15349.53
875.19	15173.40
875.37	15165.21
875.54	15146.78
875.71	15036.19
875.88	14882.59
876.06	15085.34
876.23	15292.18
876.40	15093.53
876.58	14901.02
876.75	14755.61
876.92	15054.62
877.10	15052.57
877.27	14989.08
877.44	14845.73
877.61	14855.97
877.79	14690.08
877.96	14868.25
878.13	14708.51
878.31	14761.76
878.48	14663.46
878.65	14489.38
878.82	14616.35
879.00	14679.84
879.17	14532.39
879.34	14763.81
879.51	14276.39
879.69	14321.45
879.86	14483.24
880.03	14556.96
880.21	14456.61
880.38	14266.15
880.55	14507.81
880.72	14212.90
880.90	14333.73
881.07	14223.14
881.24	14434.08
881.41	14143.27
881.59	14243.62
881.76	14208.81
881.93	13977.39
882.10	14057.26
882.28	14206.76
882.45	14311.21
882.62	14126.89
882.79	14047.02
882.96	13786.93
883.14	13963.05
883.31	14157.61
883.48	14200.62
883.65	13969.19
883.83	13764.40
884.00	13920.04
884.17	13932.33
884.34	13715.25
884.51	13600.56
884.69	13608.75
884.86	13948.72
885.03	13674.29
885.20	13598.51
885.38	13897.52
885.55	13600.56
885.72	13655.86
885.89	13561.65
886.06	13604.66
886.24	13653.81
886.41	13793.07
886.58	13735.73
886.75	13702.96
886.92	13582.13
887.10	13737.77
887.27	13520.69
887.44	13797.17
887.61	13707.05
887.78	13571.89
887.95	13553.46
888.13	13575.98
888.30	13434.68
888.47	13307.70
888.64	13193.01
888.81	13190.97
888.99	13254.45
889.16	13258.55
889.33	13285.17
889.50	13270.84
889.67	13285.17
889.84	13203.25
890.01	13090.62
890.19	13420.34
890.36	13111.10
890.53	13188.92
890.70	13027.13
890.87	13047.61
891.04	13203.25
891.22	12957.50
891.39	13047.61
891.56	13010.75
891.73	12848.96
891.90	12939.07
892.07	12818.24
892.24	13094.71
892.42	12887.87
892.59	12840.76
892.76	13016.89
892.93	12791.61
893.10	12664.64
893.27	12787.52
893.44	12490.56
893.61	12527.42
893.79	13014.84
893.96	12801.85
894.13	12674.88
894.30	12705.60
894.47	12508.99
894.64	12767.04
894.81	12627.78
894.98	12584.77
895.15	12633.92
895.33	12744.51
895.50	12650.30
895.67	12713.79
895.84	12719.93
896.01	12588.86
896.18	12375.88
896.35	12549.95
896.52	12689.21
896.69	12492.61
896.86	12789.56
897.04	12592.96
897.21	12474.18
897.38	12465.99
897.55	12812.09
897.72	12443.46
897.89	12590.91
898.06	12605.25
898.23	12353.35
898.40	12441.41
898.57	12525.38
898.74	12480.32
898.91	12433.22
899.08	12406.59
899.26	12361.54
899.43	12619.58
899.60	12621.63
899.77	12592.96
899.94	12470.08
900.11	12234.57
900.28	12398.40
900.45	12152.65
900.62	12257.09
900.79	12463.94
900.96	12318.53
901.13	12429.12
901.30	12392.26
901.47	12226.37
901.64	12386.12
901.81	12607.30
901.98	12240.71
902.15	12441.41
902.32	12281.67
902.49	12365.64
902.66	12136.26
902.83	12369.73
903.01	12351.30
903.18	12404.55
903.35	12435.27
903.52	12369.73
903.69	12326.72
903.86	12263.24
904.03	12164.93
904.20	12404.55
904.37	12279.62
904.54	12427.07
904.71	12158.79
904.88	12308.29
905.05	12144.45
905.22	12322.63
905.39	12128.07
905.56	12470.08
905.73	12105.54
905.90	12250.95
906.07	12287.81
906.24	12398.40
906.41	12320.58
906.58	12083.02
906.75	12332.87
906.92	11994.95
907.09	12369.73
907.26	12048.20
907.43	12162.89
907.60	12123.98
907.77	12228.42
907.93	12332.87
908.10	12216.13
908.27	12361.54
908.44	11910.99
908.61	12253.00
908.78	12001.10
908.95	12087.11
909.12	11917.13
909.29	12031.82
909.46	12083.02
909.63	12058.44
909.80	12156.74
909.97	11870.03
910.14	11802.44
910.31	11925.32
910.48	12060.49
910.65	12042.06
910.82	12029.77
910.99	11988.81
911.16	11816.78
911.33	11976.52
911.50	11910.99
911.66	11620.17
911.83	11804.49
912.00	11675.47
912.17	11628.37
912.34	11634.51
912.51	11605.84
912.68	11749.20
912.85	11845.45
913.02	11693.90
913.19	11558.74
913.36	11542.35
913.53	11611.98
913.70	11843.40
913.86	11564.88
914.03	11575.12
914.20	11489.10
914.37	11661.13
914.54	11614.03
914.71	11624.27
914.88	11515.73
915.05	11442.00
915.22	11304.79
915.39	11611.98
915.55	11118.42
915.72	11288.40
915.89	11190.10
916.06	11202.39
916.23	11175.77
916.40	11224.92
916.57	11018.07
916.74	10909.53
916.91	10987.35
917.07	11001.69
917.24	11032.41
917.41	11110.23
917.58	11007.83
917.75	10923.87
917.92	10872.67
918.09	10852.19
918.26	10921.82
918.42	10706.78
918.59	10811.23
918.76	10835.80
918.93	10782.56
919.10	10817.37
919.27	10622.81
919.44	10805.08
919.60	10575.71
919.77	10643.29
919.94	10647.39
920.11	10622.81
920.28	10370.91
920.45	10452.83
920.61	10653.53
920.78	10260.32
920.95	10477.41
921.12	10309.47
921.29	10202.98
921.46	10100.58
921.62	10108.77
921.79	10317.67
921.96	10094.44
922.13	10153.83
922.30	9973.61
922.47	10055.53
922.63	10014.57
922.80	9967.46
922.97	9953.13
923.14	9817.96
923.31	9928.55
923.47	9805.67
923.64	9680.75
923.81	9695.08
923.98	9693.04
924.15	9699.18
924.32	9555.82
924.48	9672.56
924.65	9447.28
924.82	9576.30
924.99	9592.69
925.15	9422.70
925.32	9490.29
925.49	9459.57
925.66	9396.08
925.83	9457.52
925.99	9260.91
926.16	9367.41
926.33	9179.00
926.50	9021.30
926.67	9338.74
926.83	9250.67
927.00	9002.87
927.17	9129.84
927.34	9086.84
927.50	9041.78
927.67	9125.75
927.84	8916.86
928.01	8888.18
928.17	8879.99
928.34	8765.31
928.51	8730.49
928.68	8820.60
928.84	8816.51
929.01	8689.53
929.18	8513.41
929.35	8656.76
929.51	8499.07
929.68	8474.49
929.85	8640.38
930.02	8662.91
930.18	8277.89
930.35	8476.54
930.52	8345.47
930.69	8339.33
930.85	8380.29
931.02	8216.45
931.19	8212.35
931.36	8284.03
931.52	8157.06
931.69	8195.97
931.86	8167.30
932.02	7921.54
932.19	8083.33
932.36	7708.55
932.53	7958.41
932.69	7882.63
932.86	7935.88
933.03	7837.58
933.19	7675.79
933.36	7704.46
933.53	7819.14
933.70	7569.29
933.86	7794.57
934.03	7589.77
934.20	7436.17
934.36	7501.71
934.53	7552.91
934.70	7509.90
934.86	7559.05
935.03	7059.35
935.20	7366.54
935.36	7110.55
935.53	7194.51
935.70	7182.23
935.86	7075.73
936.03	6969.24
936.20	6854.55
936.36	6946.71
936.53	6789.02
936.70	6901.65
936.86	6789.02
937.03	6807.45
937.20	6717.34
937.36	6649.75
937.53	6428.57
937.70	6371.23
937.86	6356.90
938.03	6238.11
938.20	6379.42
938.36	6076.32
938.53	6100.90
938.70	6092.71
938.86	6039.46
939.03	6045.60
939.20	5885.86
939.36	5922.73
939.53	5828.52
939.70	5838.76
939.86	5658.54
940.03	5535.66
940.19	5576.62
940.36	5476.27
940.53	5560.24
940.69	5443.50
940.86	5412.78
941.03	5365.68
941.19	5183.41
941.36	5107.63
941.52	5164.98
941.69	5038.00
941.86	5076.91
942.02	4999.09
942.19	4904.89
942.35	4988.85
942.52	4921.27
942.69	4908.98
942.85	4763.58
943.02	4857.78
943.18	4870.07
943.35	4767.67
943.52	4712.38
943.68	4650.94
943.85	4714.42
944.01	4593.59
944.18	4550.59
944.35	4542.39
944.51	4618.17
944.68	4569.02
944.84	4368.32
945.01	4394.94
945.17	4513.72
945.34	4497.34
945.51	4446.14
945.67	4521.92
945.84	4323.26
946.00	4300.73
946.17	4376.51
946.33	4415.42
946.50	4255.68
946.67	4423.61
946.83	4335.55
947.00	4280.25
947.16	4368.32
947.33	4321.21
947.49	4335.55
947.66	4253.63
947.82	4368.32
947.99	4280.25
948.16	4409.28
948.32	4294.59
948.49	4394.94
948.65	4224.96
948.82	4386.75
948.98	4278.21
949.15	4280.25
949.31	4337.60
949.48	4353.98
949.64	4349.89
949.81	4229.06
949.97	4327.36
950.14	4329.41
950.30	4329.41
950.47	4331.45
950.63	4313.02
950.80	4372.41
950.96	4376.51
951.13	4222.91
951.30	4284.35
951.46	4306.88
951.63	4317.12
951.79	4431.80
951.96	4411.32
952.12	4272.06
952.29	4331.45
952.45	4220.86
952.62	4415.42
952.78	4425.66
952.94	4356.03
953.11	4442.04
953.27	4317.12
953.44	4415.42
953.60	4390.84
953.77	4517.82
953.93	4499.39
954.10	4362.17
954.26	4335.55
954.43	4308.93
954.59	4454.33
954.76	4540.35
954.92	4364.22
955.09	4409.28
955.25	4401.08
955.42	4470.72
955.58	4523.96
955.75	4530.11
955.91	4403.13
956.07	4394.94
956.24	4382.65
956.40	4290.49
956.57	4517.82
956.73	4534.20
956.90	4444.09
957.06	4464.57
957.23	4431.80
957.39	4458.43
957.56	4245.44
957.72	4403.13
957.88	4396.99
958.05	4526.01
958.21	4511.68
958.38	4323.26
958.54	4458.43
958.71	4599.74
958.87	4331.45
959.03	4390.84
959.20	4396.99
959.36	4403.13
959.53	4386.75
959.69	4431.80
959.85	4515.77
960.02	4425.66
960.18	4519.87
960.35	4431.80
960.51	4433.85
960.68	4409.28
960.84	4405.18
961.00	4446.14
961.17	4472.76
961.33	4474.81
961.50	4507.58
961.66	4390.84
961.82	4431.80
961.99	4382.65
962.15	4370.37
962.31	4399.04
962.48	4280.25
962.64	4405.18
962.81	4458.43
962.97	4333.50
963.13	4423.61
963.30	4419.52
963.46	4304.83
963.62	4370.37
963.79	4360.13
963.95	4306.88
964.12	4313.02
964.28	4517.82
964.44	4308.93
964.61	4372.41
964.77	4315.07
964.93	4241.34
965.10	4233.15
965.26	4310.97
965.42	4257.73
965.59	4294.59
965.75	4288.45
965.92	4337.60
966.08	4394.94
966.24	4155.33
966.41	4339.65
966.57	4288.45
966.73	4292.54
966.90	4376.51
967.06	4294.59
967.22	4186.05
967.39	4247.49
967.55	4276.16
967.71	4272.06
967.88	4196.29
968.04	4224.96
968.20	4208.58
968.37	4227.01
968.53	4089.79
968.69	4224.96
968.85	4155.33
969.02	4165.57
969.18	4100.03
969.34	4208.58
969.51	4167.62
969.67	4235.20
969.83	4132.80
970.00	4085.70
970.16	4116.42
970.32	4218.82
970.48	4116.42
970.65	4081.60
970.81	4128.70
970.97	4173.76
971.14	4065.22
971.30	4161.47
971.46	4034.50
971.63	4100.03
971.79	4036.55
971.95	3907.52
972.11	4089.79
972.28	4093.89
972.44	4030.40
972.60	4022.21
972.76	4065.22
972.93	3987.40
973.09	3887.04
973.25	3950.53
973.42	4091.84
973.58	4005.83
973.74	3958.72
973.90	4032.45
974.07	3962.82
974.23	3995.59
974.39	3960.77
974.55	3925.96
974.72	4014.02
974.88	3837.89
975.04	3983.30
975.20	3909.57
975.37	3878.85
975.53	3901.38
975.69	3891.14
975.85	3907.52
976.01	3846.09
976.18	3813.32
976.34	3721.16
976.50	3858.37
976.66	3858.37
976.83	3817.41
976.99	3751.88
977.15	3835.85
977.31	3784.65
977.47	3715.02
977.64	3882.95
977.80	3823.56
977.96	3821.51
978.12	3862.47
978.29	3661.77
978.45	3782.60
978.61	3626.95
978.77	3837.89
978.93	3661.77
979.10	3794.89
979.26	3719.11
979.42	3585.99
979.58	3727.30
979.74	3727.30
979.91	3579.85
980.07	3686.34
980.23	3692.49
980.39	3690.44
980.55	3669.96
980.71	3639.24
980.88	3620.81
981.04	3559.37
981.20	3604.42
981.36	3549.13
981.52	3635.14
981.68	3588.04
981.85	3534.79
982.01	3542.99
982.17	3606.47
982.33	3532.75
982.49	3663.82
982.65	3452.88
982.82	3575.75
982.98	3520.46
983.14	3526.60
983.30	3612.62
983.46	3563.47
983.62	3536.84
983.79	3557.32
983.95	3502.03
984.11	3428.30
984.27	3534.79
984.43	3420.11
984.59	3416.01
984.75	3485.64
984.91	3389.39
985.08	3456.97
985.24	3323.85
985.40	3416.01
985.56	3442.64
985.72	3385.29
985.88	3317.71
986.04	3362.76
986.20	3375.05
986.37	3381.20
986.53	3266.51
986.69	3409.87
986.85	3250.13
987.01	3311.57
987.17	3313.61
987.33	3262.41
987.49	3334.09
987.65	3237.84
987.82	3278.80
987.98	3239.89
988.14	3250.13
988.30	3164.11
988.46	3250.13
988.62	3250.13
988.78	3106.77
988.94	3303.37
989.10	3184.59
989.26	3096.53
989.42	3211.22
989.59	3106.77
989.75	3166.16
989.91	3180.50
990.07	3200.98
990.23	3094.48
990.39	3033.04
990.55	3110.86
990.71	3108.82
990.87	3188.69
991.03	3219.41
991.19	3149.78
991.35	3065.81
991.51	3192.78
991.67	3143.63
991.83	3135.44
992.00	3092.43
992.16	3112.91
992.32	3106.77
992.48	3125.20
992.64	3133.39
992.80	3092.43
992.96	3018.71
993.12	3092.43
993.28	3092.43
993.44	3026.90
993.60	3020.75
993.76	3059.67
993.92	3030.99
994.08	2920.40
994.24	3010.51
994.40	3030.99
994.56	3026.90
994.72	2844.63
994.88	2912.21
995.04	2922.45
995.20	2930.64
995.36	2953.17
995.52	2959.31
995.68	2922.45
995.84	2846.68
996.00	2926.55
996.16	2891.73
996.32	2904.02
996.48	2840.53
996.64	2846.68
996.80	2799.57
996.96	2885.59
997.12	2836.44
997.28	2858.96
997.44	2826.20
997.60	2834.39
997.76	2824.15
997.92	2777.05
998.08	2805.72
998.24	2738.13
998.40	2785.24
998.56	2789.33
998.72	2729.94
998.88	2762.71
999.04	2699.22
999.20	2885.59
999.36	2787.29
999.52	2828.24
999.68	2736.09
999.84	2736.09
1000.00	2717.65
1000.16	2738.13
1000.32	2676.70
1000.48	2734.04
1000.64	2736.09
1000.80	2680.79
1000.95	2668.50
1001.11	2715.61
1001.27	2633.69
1001.43	2645.98
1001.59	2641.88
1001.75	2615.26
1001.91	2619.35
1002.07	2754.52
1002.23	2635.74
1002.39	2602.97
1002.55	2580.44
1002.71	2605.02
1002.87	2576.34
1003.03	2635.74
1003.19	2562.01
1003.34	2623.45
1003.50	2559.96
1003.66	2617.30
1003.82	2537.43
1003.98	2574.30
1004.14	2592.73
1004.30	2643.93
1004.46	2586.58
1004.62	2512.86
1004.78	2488.28
1004.94	2514.91
1005.09	2551.77
1005.25	2658.26
1005.41	2514.91
1005.57	2537.43
1005.73	2543.58
1005.89	2486.23
1006.05	2469.85
1006.21	2531.29
1006.37	2475.99
1006.52	2527.19
1006.68	2430.94
1006.84	2500.57
1007.00	2465.75
1007.16	2494.43
1007.32	2473.95
1007.48	2465.75
1007.64	2404.32
1007.79	2537.43
1007.95	2404.32
1008.11	2367.45
1008.27	2469.85
1008.43	2471.90
1008.59	2422.75
1008.75	2459.61
1008.91	2375.64
1009.06	2449.37
1009.22	2326.49
1009.38	2379.74
1009.54	2355.16
1009.70	2430.94
1009.86	2365.40
1010.01	2330.59
1010.17	2320.35
1010.33	2336.73
1010.49	2369.50
1010.65	2422.75
1010.81	2349.02
1010.96	2332.64
1011.12	2394.08
1011.28	2303.96
1011.44	2330.59
1011.60	2336.73
1011.76	2265.05
1011.91	2400.22
1012.07	2242.53
1012.23	2213.85
1012.39	2289.63
1012.55	2271.20
1012.71	2269.15
1012.86	2285.53
1013.02	2293.72
1013.18	2318.30
1013.34	2170.85
1013.50	2303.96
1013.65	2349.02
1013.81	2256.86
1013.97	2267.10
1014.13	2224.09
1014.29	2230.24
1014.44	2222.05
1014.60	2234.33
1014.76	2281.44
1014.92	2234.33
1015.07	2187.23
1015.23	2123.74
1015.39	2176.99
1015.55	2222.05
1015.71	2248.67
1015.86	2127.84
1016.02	2189.28
1016.18	2191.33
1016.34	2213.85
1016.49	2131.94
1016.65	2234.33
1016.81	2152.42
1016.97	2215.90
1017.12	2138.08
1017.28	2195.42
1017.44	2211.81
1017.60	2133.98
1017.75	2158.56
1017.91	2158.56
1018.07	2181.09
1018.23	2056.16
1018.38	2154.46
1018.54	2125.79
1018.70	2211.81
1018.86	2064.35
1019.01	2088.93
1019.17	2125.79
1019.33	2113.50
1019.49	2090.98
1019.64	2050.02
1019.80	2119.65
1019.96	2133.98
1020.12	2076.64
1020.27	2084.83
1020.43	2041.82
1020.59	2123.74
1020.74	2011.11
1020.90	2084.83
1021.06	1937.38
1021.22	2062.30
1021.37	2002.91
1021.53	2033.63
1021.69	2035.68
1021.84	2017.25
1022.00	1970.15
1022.16	1990.63
1022.31	1998.82
1022.47	2054.11
1022.63	2035.68
1022.79	1992.67
1022.94	1992.67
1023.10	2086.88
1023.26	2054.11
1023.41	2011.11
1023.57	1955.81
1023.73	1953.76
1023.88	1941.47
1024.04	2035.68
1024.20	1916.90
1024.35	1957.86
1024.51	2033.63
1024.67	1947.62
1024.82	2068.45
1024.98	1925.09
1025.14	1902.56
1025.29	1968.10
1025.45	1980.39
1025.61	1955.81
1025.76	1933.28
1025.92	2013.15
1026.08	1945.57
1026.23	1959.91
1026.39	1918.95
1026.55	1910.75
1026.70	1929.19
1026.86	1957.86
1027.02	1992.67
1027.17	1873.89
1027.33	1888.23
1027.48	1875.94
1027.64	1857.51
1027.80	1896.42
1027.95	1865.70
1028.11	1898.47
1028.27	1920.99
1028.42	1880.04
1028.58	1849.32
1028.73	1933.28
1028.89	1808.36
1029.05	1843.17
1029.20	1904.61
>>>>>End Processed Spectral Data<<<<<
