SpectraSuite Data File
++++++++++++++++++++++++++++++++++++
Date: Tue Jun 13 12:02:25 CEST 2017
User: INFO_000
Dark Spectrum Present: No
Reference Spectrum Present: No
Number of Sampled Component Spectra: 1
Spectrometers: USB4H00879
Integration Time (usec): 30000 (USB4H00879)
Spectra Averaged: 1 (USB4H00879)
Boxcar Smoothing: 0 (USB4H00879)
Correct for Electrical Dark: No (USB4H00879)
Strobe/Lamp Enabled: No (USB4H00879)
Correct for Detector Non-linearity: No (USB4H00879)
Correct for Stray Light: No (USB4H00879)
Number of Pixels in Processed Spectrum: 3648
>>>>>Begin Processed Spectral Data<<<<<
345.13	1322.99
345.34	1322.99
345.56	1322.99
345.78	1351.66
345.99	1368.04
346.21	1525.74
346.42	1603.56
346.64	1468.39
346.86	1480.68
347.07	1499.11
347.29	1515.50
347.50	1458.15
347.72	1587.18
347.94	1515.50
348.15	1540.07
348.37	1572.84
348.59	1603.56
348.80	1554.41
349.02	1548.26
349.23	1685.48
349.45	1621.99
349.67	1638.38
349.88	1538.02
350.10	1638.38
350.31	1591.27
350.53	1568.74
350.75	1642.47
350.96	1613.80
351.18	1609.70
351.39	1597.42
351.61	1554.41
351.82	1634.28
352.04	1595.37
352.26	1607.66
352.47	1708.01
352.69	1677.29
352.90	1609.70
353.12	1613.80
353.34	1605.61
353.55	1648.61
353.77	1607.66
353.98	1562.60
354.20	1626.09
354.41	1624.04
354.63	1599.46
354.85	1685.48
355.06	1638.38
355.28	1538.02
355.49	1677.29
355.71	1640.42
355.92	1587.18
356.14	1658.85
356.35	1621.99
356.57	1640.42
356.79	1636.33
357.00	1605.61
357.22	1644.52
357.43	1568.74
357.65	1654.76
357.86	1607.66
358.08	1634.28
358.29	1701.86
358.51	1710.05
358.72	1679.33
358.94	1607.66
359.16	1607.66
359.37	1583.08
359.59	1642.47
359.80	1646.57
360.02	1681.38
360.23	1685.48
360.45	1665.00
360.66	1665.00
360.88	1593.32
361.09	1656.81
361.31	1718.25
361.52	1652.71
361.74	1691.62
361.95	1759.21
362.17	1730.53
362.38	1753.06
362.60	1646.57
362.81	1619.94
363.03	1611.75
363.24	1712.10
363.46	1667.05
363.67	1722.34
363.89	1699.81
364.10	1681.38
364.32	1642.47
364.53	1677.29
364.75	1656.81
364.96	1712.10
365.18	1722.34
365.39	1693.67
365.61	1660.90
365.82	1816.55
366.04	1742.82
366.25	1634.28
366.47	1718.25
366.68	1687.53
366.90	1710.05
367.11	1761.25
367.33	1681.38
367.54	1732.58
367.76	1724.39
367.97	1714.15
368.19	1677.29
368.40	1802.21
368.62	1687.53
368.83	1662.95
369.05	1794.02
369.26	1648.61
369.48	1701.86
369.69	1695.72
369.91	1716.20
370.12	1687.53
370.33	1800.16
370.55	1742.82
370.76	1701.86
370.98	1775.59
371.19	1738.73
371.41	1738.73
371.62	1705.96
371.84	1730.53
372.05	1789.92
372.27	1671.14
372.48	1808.36
372.69	1730.53
372.91	1746.92
373.12	1802.21
373.34	1796.07
373.55	1650.66
373.77	1742.82
373.98	1693.67
374.20	1771.49
374.41	1832.93
374.62	1787.88
374.84	1785.83
375.05	1816.55
375.27	1789.92
375.48	1877.99
375.70	1826.79
375.91	1865.70
376.12	1910.75
376.34	1861.60
376.55	1781.73
376.77	1798.12
376.98	1863.65
377.19	1761.25
377.41	1794.02
377.62	1894.37
377.84	1839.08
378.05	1912.80
378.27	1828.84
378.48	1837.03
378.69	1894.37
378.91	1853.41
379.12	1851.36
379.34	1908.71
379.55	1966.05
379.76	1937.38
379.98	1867.75
380.19	1822.69
380.41	1871.84
380.62	1916.90
380.83	1867.75
381.05	1830.88
381.26	1982.43
381.47	1892.32
381.69	1873.89
381.90	1888.23
382.12	1943.52
382.33	1906.66
382.54	1906.66
382.76	1968.10
382.97	1875.94
383.19	2007.01
383.40	1974.24
383.61	1927.14
383.83	1931.23
384.04	1951.71
384.25	1920.99
384.47	2039.78
384.68	1904.61
384.89	1972.19
385.11	1974.24
385.32	1937.38
385.54	2031.58
385.75	1929.19
385.96	1959.91
386.18	1951.71
386.39	2035.68
386.60	1970.15
386.82	1974.24
387.03	1947.62
387.24	1912.80
387.46	2037.73
387.67	1994.72
387.88	2072.54
388.10	1957.86
388.31	2115.55
388.52	2041.82
388.74	2039.78
388.95	2011.11
389.16	2142.18
389.38	2058.21
389.59	2039.78
389.80	2064.35
390.02	2023.39
390.23	2211.81
390.44	2117.60
390.66	2148.32
390.87	2125.79
391.08	2154.46
391.30	2158.56
391.51	2183.13
391.72	2162.66
391.94	2170.85
392.15	2176.99
392.36	2060.26
392.58	2084.83
392.79	2232.29
393.00	2238.43
393.22	2220.00
393.43	2299.87
393.64	2240.48
393.85	2273.25
394.07	2279.39
394.28	2199.52
394.49	2269.15
394.71	2263.01
394.92	2293.72
395.13	2224.09
395.35	2213.85
395.56	2303.96
395.77	2295.77
395.98	2283.49
396.20	2279.39
396.41	2242.53
396.62	2363.36
396.84	2277.34
397.05	2281.44
397.26	2291.68
397.47	2408.41
397.69	2252.77
397.90	2463.71
398.11	2371.55
398.32	2475.99
398.54	2275.29
398.75	2377.69
398.96	2383.84
399.18	2545.63
399.39	2379.74
399.60	2469.85
399.81	2469.85
400.03	2383.84
400.24	2408.41
400.45	2463.71
400.66	2443.23
400.88	2406.36
401.09	2611.16
401.30	2502.62
401.51	2521.05
401.73	2537.43
401.94	2506.71
402.15	2557.91
402.36	2463.71
402.58	2639.83
402.79	2656.22
403.00	2566.10
403.21	2512.86
403.43	2660.31
403.64	2654.17
403.85	2559.96
404.06	2594.78
404.27	2566.10
404.49	2633.69
404.70	2627.54
404.91	2676.70
405.12	2656.22
405.34	2705.37
405.55	2723.80
405.76	2570.20
405.97	2668.50
406.19	2863.06
406.40	2639.83
406.61	2572.25
406.82	2664.41
407.03	2709.46
407.25	2643.93
407.46	2713.56
407.67	2770.90
407.88	2818.00
408.09	2662.36
408.31	2691.03
408.52	2777.05
408.73	2738.13
408.94	2752.47
409.15	2824.15
409.37	2869.20
409.58	2822.10
409.79	2912.21
410.00	2928.60
410.21	2828.24
410.43	2748.37
410.64	2815.96
410.85	2983.89
411.06	2879.44
411.27	2975.70
411.48	2955.22
411.70	2858.96
411.91	2926.55
412.12	3006.42
412.33	2842.58
412.54	2953.17
412.76	3014.61
412.97	2969.55
413.18	2949.08
413.39	3022.80
413.60	3022.80
413.81	2942.93
414.03	3018.71
414.24	2936.79
414.45	3041.23
414.66	2963.41
414.87	3035.09
415.08	3174.35
415.30	3067.86
415.51	3039.19
415.72	3018.71
415.93	3084.24
416.14	3092.43
416.35	3088.34
416.56	3020.75
416.78	3108.82
416.99	3207.12
417.20	3123.15
417.41	3108.82
417.62	3258.32
417.83	3143.63
418.04	3246.03
418.26	3227.60
418.47	3203.02
418.68	3276.75
418.89	3133.39
419.10	3264.46
419.31	3346.38
419.52	3393.48
419.73	3317.71
419.95	3317.71
420.16	3370.96
420.37	3465.16
420.58	3280.85
420.79	3262.41
421.00	3375.05
421.21	3450.83
421.42	3418.06
421.63	3387.34
421.85	3295.18
422.06	3442.64
422.27	3571.66
422.48	3413.96
422.69	3452.88
422.90	3491.79
423.11	3557.32
423.32	3538.89
423.53	3567.56
423.75	3631.05
423.96	3616.71
424.17	3588.04
424.38	3694.54
424.59	3696.58
424.80	3712.97
425.01	3735.50
425.22	3622.86
425.43	3614.66
425.64	3782.60
425.85	3848.13
426.06	3655.62
426.28	3882.95
426.49	3790.79
426.70	3749.83
426.91	3831.75
427.12	3786.69
427.33	3928.00
427.54	3745.73
427.75	3895.24
427.96	3979.20
428.17	3975.11
428.38	3930.05
428.59	3903.43
428.80	3946.44
429.01	4116.42
429.23	4038.59
429.44	4093.89
429.65	3991.49
429.86	4136.90
430.07	4132.80
430.28	4071.36
430.49	4128.70
430.70	4249.54
430.91	4235.20
431.12	4200.38
431.33	4364.22
431.54	4300.73
431.75	4204.48
431.96	4302.78
432.17	4278.21
432.38	4280.25
432.59	4331.45
432.80	4425.66
433.01	4351.93
433.22	4362.17
433.43	4403.13
433.64	4366.27
433.85	4300.73
434.06	4386.75
434.27	4460.48
434.49	4493.24
434.70	4478.91
434.91	4409.28
435.12	4530.11
435.33	4378.56
435.54	4636.60
435.75	4480.96
435.96	4636.60
436.17	4663.22
436.38	4663.22
436.59	4675.51
436.80	4673.46
437.01	4792.25
437.22	4808.63
437.43	4745.14
437.64	4515.77
437.85	4745.14
438.06	4782.01
438.27	4681.66
438.48	4710.33
438.69	4843.45
438.90	4724.66
439.11	4665.27
439.32	4845.49
439.53	4958.13
439.74	4933.56
439.95	4908.98
440.16	4882.36
440.37	5033.91
440.57	4872.12
440.78	5029.81
440.99	4960.18
441.20	4960.18
441.41	4992.95
441.62	5074.87
441.83	4941.75
442.04	5216.18
442.25	4937.65
442.46	4923.32
442.67	5072.82
442.88	5367.73
443.09	5081.01
443.30	5097.39
443.51	5193.65
443.72	5341.10
443.93	5081.01
444.14	5298.10
444.35	5150.64
444.56	5347.25
444.77	5132.21
444.98	5246.90
445.19	5349.29
445.40	5314.48
445.61	5289.90
445.81	5490.60
446.02	5463.98
446.23	5433.26
446.44	5207.98
446.65	5363.63
446.86	5584.81
447.07	5541.80
447.28	5652.39
447.49	5427.12
447.70	5513.13
447.91	5523.37
448.12	5580.71
448.33	5644.20
448.54	5762.98
448.74	5539.76
448.95	5771.18
449.16	5472.17
449.37	5869.48
449.58	5666.73
449.79	5957.54
450.00	5742.50
450.21	5865.38
450.42	5869.48
450.63	5924.77
450.84	5746.60
451.05	6107.04
451.25	5795.75
451.46	5904.29
451.67	5898.15
451.88	6104.99
452.09	5963.68
452.30	5889.96
452.51	6100.90
452.72	6066.08
452.93	6322.08
453.13	6129.57
453.34	6100.90
453.55	6199.20
453.76	6145.95
453.97	6457.25
454.18	6170.53
454.39	6457.25
454.60	6305.70
454.81	6412.19
455.01	6504.35
455.22	6133.67
455.43	6414.24
455.64	6551.45
455.85	6653.85
456.06	6590.36
456.27	6682.52
456.48	6408.09
456.68	6500.25
456.89	6641.56
457.10	6746.01
457.31	6795.16
457.52	6803.35
457.73	6766.49
457.94	6875.03
458.14	6750.10
458.35	7100.31
458.56	6846.36
458.77	6715.29
458.98	7004.05
459.19	6940.57
459.39	7085.97
459.60	7139.22
459.81	7051.16
460.02	7241.62
460.23	7055.25
460.44	7323.54
460.65	7397.26
460.85	7315.34
461.06	7448.46
461.27	7163.79
461.48	7331.73
461.69	7567.24
461.89	7245.71
462.10	7415.69
462.31	7407.50
462.52	7389.07
462.73	7595.92
462.94	7694.22
463.14	7696.27
463.35	7718.79
463.56	7995.27
463.77	7843.72
463.98	7935.88
464.18	7917.45
464.39	8019.85
464.60	8155.01
464.81	8152.96
465.02	8136.58
465.23	8161.16
465.43	8083.33
465.64	8386.43
465.85	8361.86
466.06	7993.22
466.27	8411.01
466.47	8415.10
466.68	8382.34
466.89	8458.11
467.10	8515.45
467.30	8454.02
467.51	8499.07
467.72	8689.53
467.93	8519.55
468.14	8746.87
468.34	8865.66
468.55	8888.18
468.76	8863.61
468.97	8771.45
469.17	9187.19
469.38	9109.36
469.59	9095.03
469.80	9080.69
470.01	9172.85
470.21	9002.87
470.42	9379.70
470.63	9346.93
470.84	9115.51
471.04	9348.98
471.25	9516.91
471.46	9541.49
471.67	9817.96
471.87	9723.76
472.08	9686.89
472.29	9994.09
472.50	9695.08
472.70	9989.99
472.91	9951.08
473.12	10149.73
473.33	10090.34
473.53	10219.36
473.74	10176.36
473.95	10565.47
474.16	10409.83
474.36	10403.68
474.57	10411.87
474.78	10639.20
474.99	10397.54
475.19	10657.63
475.40	10768.22
475.61	10821.47
475.81	10735.45
476.02	10999.64
476.23	11034.46
476.44	11079.51
476.64	11519.82
476.85	11485.01
477.06	11327.32
477.27	11534.16
477.47	11603.79
477.68	11595.60
477.89	11648.85
478.09	11962.19
478.30	11761.48
478.51	11843.40
478.71	12074.82
478.92	12136.26
479.13	12334.92
479.34	12320.58
479.54	12173.13
479.75	12263.24
479.96	12564.29
480.16	12437.31
480.37	12382.02
480.58	12537.66
480.78	12810.04
480.99	12758.85
481.20	12961.59
481.41	13063.99
481.61	13215.54
481.82	13107.00
482.03	13027.13
482.23	13027.13
482.44	13414.20
482.65	13307.70
482.85	13391.67
483.06	13442.87
483.27	13535.03
483.47	13596.46
483.68	13745.97
483.89	13879.08
484.09	13985.58
484.30	14120.74
484.51	14356.26
484.71	14151.46
484.92	14090.02
485.13	14403.36
485.33	14427.94
485.54	14292.77
485.75	14700.32
485.95	14679.84
486.16	14851.87
486.37	14919.45
486.57	14880.54
486.78	14827.29
486.98	15013.66
487.19	14997.28
487.40	15216.41
487.60	15087.39
487.81	15273.75
488.02	15333.14
488.22	15263.51
488.43	15263.51
488.64	15777.55
488.84	15609.62
489.05	15752.98
489.25	15722.26
489.46	15998.73
489.67	16101.13
489.87	15830.80
490.08	16307.98
490.29	16115.47
490.49	16346.89
490.70	16518.92
490.90	16600.83
491.11	16516.87
491.32	16641.79
491.52	16600.83
491.73	16811.78
491.94	16520.96
492.14	16848.64
492.35	16920.32
492.55	17155.83
492.76	17172.22
492.97	17325.82
493.17	17278.71
493.38	17291.00
493.58	17491.70
493.79	17540.85
494.00	17301.24
494.20	17682.16
494.41	17633.01
494.61	17721.07
494.82	17960.69
495.02	17712.88
495.23	18024.17
495.44	18050.80
495.64	18075.37
495.85	18208.49
496.05	18398.95
496.26	18255.59
496.47	18405.10
496.67	18271.98
496.88	18464.49
497.08	18173.67
497.29	18863.84
497.49	18722.53
497.70	18847.46
497.91	18888.42
498.11	19025.63
498.32	19082.97
498.52	19072.73
498.73	19457.75
498.93	19314.39
499.14	19224.28
499.34	19336.92
499.55	19298.01
499.76	19605.20
499.96	19631.83
500.17	19621.59
500.37	19783.38
500.58	19711.70
500.78	19687.12
500.99	20117.20
501.19	19934.93
501.40	19865.30
501.60	19998.41
501.81	20217.55
502.02	20354.76
502.22	19789.52
502.43	20342.47
502.63	20143.82
502.84	20367.05
503.04	20352.71
503.25	20653.76
503.45	20231.88
503.66	20694.72
503.86	20414.15
504.07	20868.80
504.27	20422.34
504.48	20858.56
504.68	20827.84
504.89	20991.68
505.09	21032.64
505.30	21069.50
505.50	21153.47
505.71	21137.09
505.91	21247.68
506.12	21276.35
506.32	21487.29
506.53	21702.32
506.73	21429.94
506.94	21679.80
507.14	21644.98
507.35	21573.30
507.55	21491.38
507.76	21915.31
507.96	21788.34
508.17	21501.62
508.37	21847.73
508.58	21864.11
508.78	22199.98
508.99	22257.32
509.19	21991.09
509.40	22257.32
509.60	22138.54
509.81	22318.76
510.01	22232.75
510.22	22107.82
510.42	22296.24
510.63	22439.59
510.83	22523.56
511.04	22505.13
511.24	22615.72
511.44	22513.32
511.65	22802.08
511.85	22668.97
512.06	22722.21
512.26	22656.68
512.47	22832.80
512.67	22640.29
512.88	22861.48
513.08	22683.30
513.29	23246.49
513.49	23191.20
513.69	23219.87
513.90	23068.32
514.10	23133.86
514.31	23125.66
514.51	23434.91
514.72	23328.41
514.92	23226.01
515.13	23266.97
515.33	23568.02
515.53	23727.77
515.74	23482.01
515.94	23729.81
516.15	23537.30
516.35	23711.38
516.56	23848.60
516.76	23838.36
516.96	23768.73
517.17	24041.11
517.37	23940.75
517.58	24182.42
517.78	24405.64
517.99	24024.72
518.19	24266.38
518.39	24426.12
518.60	24430.22
518.80	24434.32
519.01	24462.99
519.21	24381.07
519.41	24417.93
519.62	24553.10
519.82	24577.67
520.03	24954.50
520.23	24708.74
520.43	24796.81
520.64	24745.61
520.84	25017.99
521.05	25093.76
521.25	24886.92
521.45	24833.67
521.66	25196.16
521.86	25093.76
522.07	25104.00
522.27	25296.51
522.47	25339.52
522.68	25620.09
522.88	25325.18
523.08	26009.20
523.29	25529.98
523.49	25638.52
523.70	25704.06
523.90	25845.37
524.10	25704.06
524.31	26136.18
524.51	26089.07
524.71	26066.55
524.92	26031.73
525.12	26439.28
525.33	26111.60
525.53	26441.32
525.73	26465.90
525.94	26605.16
526.14	26603.11
526.34	26592.87
526.55	26390.13
526.75	26863.21
526.95	26682.98
527.16	26957.41
527.36	26908.26
527.56	27217.50
527.77	27453.02
527.97	27188.83
528.17	27016.80
528.38	27094.63
528.58	27297.38
528.78	27375.20
528.99	27600.47
529.19	27868.76
529.39	27571.80
529.60	27721.30
529.80	27764.31
530.00	27852.38
530.21	27774.55
530.41	27881.05
530.61	27745.88
530.82	27862.61
531.02	27813.46
531.22	28208.72
531.43	28175.95
531.63	28812.87
531.83	28515.92
532.04	28350.03
532.24	28399.18
532.44	28972.61
532.64	28880.46
532.85	28913.22
533.05	29085.25
533.25	29036.10
533.46	28931.65
533.66	29247.04
533.86	29351.49
534.07	29361.73
534.27	29398.59
534.47	29861.43
534.67	29730.36
534.88	29339.20
535.08	29648.44
535.28	29820.47
535.49	29994.55
535.69	29994.55
535.89	29890.10
536.09	29886.01
536.30	30481.97
536.50	30508.59
536.70	30246.45
536.91	30561.84
537.11	30447.15
537.31	30613.04
537.51	30367.28
537.72	30717.48
537.92	30668.33
538.12	30850.60
538.32	31090.21
538.53	31374.88
538.73	30682.67
538.93	31028.77
539.13	31327.78
539.34	31004.20
539.54	31192.61
539.74	31245.86
539.94	31073.83
540.15	30981.67
540.35	31446.56
540.55	31628.83
540.75	31397.41
540.96	31366.69
541.16	32081.43
541.36	31999.51
541.56	31616.54
541.77	32083.48
541.97	31698.46
542.17	31974.94
542.37	31933.98
542.58	32093.72
542.78	32067.09
542.98	32155.16
543.18	32206.36
543.38	32661.01
543.59	32380.43
543.79	32257.56
543.99	32413.20
544.19	32646.67
544.40	32618.00
544.60	32849.42
544.80	32884.23
545.00	32753.16
545.20	32822.80
545.41	32775.69
545.61	32937.48
545.81	32964.10
546.01	33017.35
546.21	33322.50
546.42	33273.35
546.62	33185.29
546.82	33572.35
547.02	33553.92
547.22	33525.25
547.43	33197.57
547.63	33662.46
547.83	33605.12
548.03	33365.51
548.23	33623.55
548.44	33494.53
548.64	33459.71
548.84	33623.55
549.04	33650.17
549.24	33953.27
549.45	33582.59
549.65	33852.92
549.85	33811.96
550.05	34190.84
550.25	33861.12
550.45	34244.09
550.66	34385.40
550.86	33953.27
551.06	34692.59
551.26	34510.32
551.46	34452.98
551.66	34332.15
551.87	34106.87
552.07	34432.50
552.27	34864.62
552.47	34348.53
552.67	34594.29
552.87	34420.21
553.07	34274.80
553.28	34850.28
553.48	34895.34
553.68	34665.97
553.88	34881.00
554.08	34547.18
554.28	34749.93
554.48	34754.03
554.69	35132.90
554.89	34776.56
555.09	34907.63
555.29	34854.38
555.49	35065.32
555.69	35032.55
555.89	35126.76
556.10	35141.10
556.30	34829.80
556.50	35126.76
556.70	34942.44
556.90	35417.57
557.10	35053.03
557.30	35075.56
557.50	35184.10
557.70	35489.25
557.91	35460.58
558.11	35591.65
558.31	35659.23
558.51	35507.68
558.71	35405.28
558.91	35601.89
559.11	35225.06
559.31	35214.82
559.51	35466.72
559.72	35761.63
559.92	35866.08
560.12	35456.48
560.32	35511.78
560.52	35399.14
560.72	36240.86
560.92	36040.15
561.12	35716.58
561.32	36163.03
561.52	35933.66
561.72	36089.31
561.93	35825.12
562.13	35880.41
562.33	35640.80
562.53	36093.40
562.73	35659.23
562.93	35765.73
563.13	36029.91
563.33	35630.56
563.53	36126.17
563.73	35968.48
563.93	35988.95
564.13	36273.62
564.33	36359.64
564.53	36068.83
564.74	36384.21
564.94	36341.21
565.14	36031.96
565.34	36244.95
565.54	36242.90
565.74	36771.28
565.94	36519.38
566.14	36294.10
566.34	36177.37
566.54	36599.25
566.74	36580.82
566.94	36029.91
567.14	36535.76
567.34	36769.23
567.54	36607.44
567.74	36388.31
567.94	36539.86
568.14	37055.95
568.34	36789.71
568.54	36775.37
568.74	36832.72
568.94	36328.92
569.14	37309.89
569.34	36679.12
569.54	36914.64
569.75	36605.39
569.95	36726.22
570.15	37152.20
570.35	36896.20
570.55	36771.28
570.75	37033.42
570.95	36615.63
571.15	36969.93
571.35	37158.34
571.55	37209.54
571.75	37295.56
571.95	37498.31
572.15	37217.74
572.35	37639.62
572.55	37199.30
572.75	37553.60
572.95	37443.01
573.15	37230.02
573.35	37176.78
573.55	37381.57
573.75	37369.29
573.95	37492.16
574.15	37324.23
574.35	37475.78
574.55	37555.65
574.75	37254.60
574.95	37924.29
575.15	37393.86
575.34	38030.78
575.54	37547.46
575.74	37987.77
575.94	37551.56
576.14	38059.45
576.34	37756.35
576.54	37580.23
576.74	38030.78
576.94	37825.98
577.14	38127.03
577.34	38352.31
577.54	37668.29
577.74	37860.80
577.94	37940.67
578.14	38423.99
578.34	38020.54
578.54	37434.82
578.74	38231.48
578.94	38438.33
579.14	38041.02
579.34	38284.73
579.54	38389.17
579.74	38510.00
579.94	38542.77
580.13	38675.89
580.33	38598.07
580.53	38749.62
580.73	38426.04
580.93	38366.65
581.13	38544.82
581.33	38641.07
581.53	38933.93
581.73	39071.15
581.93	38737.33
582.13	38845.87
582.33	38729.14
582.53	38526.39
582.73	39202.22
582.92	38989.23
583.12	38983.09
583.32	38968.75
583.52	39085.48
583.72	39146.92
583.92	39265.70
584.12	39034.28
584.32	39345.58
584.52	39310.76
584.72	39327.14
584.92	39503.27
585.11	39538.08
585.31	39519.65
585.51	39632.29
585.71	39329.19
585.91	39792.03
586.11	39439.78
586.31	39579.04
586.51	39282.09
586.71	39706.02
586.91	39970.21
587.10	39597.48
587.30	39585.19
587.50	39996.83
587.70	39476.65
587.90	39847.33
588.10	40093.08
588.30	39746.98
588.50	40285.59
588.69	39919.01
588.89	39771.55
589.09	40144.28
589.29	40299.93
589.49	40439.19
589.69	40222.11
589.89	40201.63
590.08	39990.69
590.28	40318.36
590.48	40097.18
590.68	40166.81
590.88	40224.15
591.08	40412.57
591.28	39832.99
591.47	40097.18
591.67	40273.31
591.87	40471.96
592.07	40301.98
592.27	40424.86
592.47	40410.52
592.67	39914.91
592.86	40281.50
593.06	40510.87
593.26	40910.22
593.46	40650.13
593.66	40877.46
593.86	40805.78
594.05	40508.82
594.25	40770.96
594.45	40437.14
594.65	40822.16
594.85	40629.65
595.05	40756.63
595.24	41072.01
595.44	40703.38
595.64	40738.19
595.84	41098.64
596.04	41012.62
596.23	40955.28
596.43	41262.47
596.63	41135.50
596.83	40834.45
597.03	40730.00
597.22	41227.66
597.42	41029.01
597.62	40867.22
597.82	41624.96
598.02	41436.55
598.21	41393.54
598.41	41182.60
598.61	41321.87
598.81	41315.72
599.01	41571.72
599.20	41534.85
599.40	41053.58
599.60	41489.80
599.80	41414.02
600.00	41399.69
600.19	41899.39
600.39	41203.08
600.59	41776.51
600.79	41549.19
600.98	41553.29
601.18	41631.11
601.38	41821.57
601.58	41721.22
601.78	41807.23
601.97	41915.78
602.17	42306.94
602.37	42136.96
602.57	41698.69
602.76	42014.08
602.96	41993.60
603.16	42182.01
603.36	41964.93
603.55	42290.55
603.75	41936.26
603.95	42222.97
604.15	42661.24
604.34	41801.09
604.54	42067.33
604.74	42218.88
604.94	42499.45
605.13	42329.47
605.33	42497.40
605.53	42055.04
605.73	42304.89
605.92	42626.42
606.12	42265.98
606.32	42790.26
606.52	42677.62
606.71	42755.44
606.91	42913.14
607.11	42532.22
607.30	42483.06
607.50	42667.38
607.70	42954.10
607.90	42788.21
608.09	42675.57
608.29	42775.92
608.49	42820.98
608.68	42528.12
608.88	42820.98
609.08	42962.29
609.28	43079.02
609.47	42984.82
609.67	43015.54
609.87	42624.37
610.06	43119.98
610.26	42605.94
610.46	43160.94
610.66	43048.30
610.85	42855.79
611.05	43058.54
611.25	42845.55
611.44	43214.19
611.64	42847.60
611.84	43013.49
612.03	42810.74
612.23	42966.38
612.43	43240.81
612.62	43273.58
612.82	42913.14
613.02	42866.03
613.21	43056.50
613.41	42904.95
613.61	43431.27
613.80	42816.88
614.00	43113.84
614.20	43148.65
614.39	42868.08
614.59	43226.48
614.79	42876.27
614.98	42714.48
615.18	42792.31
615.38	43031.92
615.57	42997.10
615.77	43074.93
615.97	43296.11
616.16	42665.33
616.36	42913.14
616.56	43003.25
616.75	42839.41
616.95	42872.18
617.15	42798.45
617.34	43146.61
617.54	42986.86
617.74	43134.32
617.93	42876.27
618.13	42722.68
618.32	43062.64
618.52	42814.83
618.72	42980.72
618.91	43160.94
619.11	42696.05
619.31	43251.05
619.50	42966.38
619.70	42878.32
619.90	43093.36
620.09	43009.39
620.29	42943.86
620.48	42880.37
620.68	42661.24
620.88	42329.47
621.07	43056.50
621.27	42880.37
621.46	42538.36
621.66	42976.62
621.86	43007.34
622.05	42925.42
622.25	42915.19
622.44	42646.90
622.64	42499.45
622.84	43005.30
623.03	42661.24
623.23	42825.07
623.42	42311.03
623.62	42886.51
623.82	42882.42
624.01	42452.34
624.21	42655.09
624.40	42771.83
624.60	42499.45
624.80	42599.80
624.99	42495.35
625.19	42388.86
625.38	42722.68
625.58	42411.38
625.77	42468.73
625.97	42524.02
626.17	42425.72
626.36	42411.38
626.56	42868.08
626.75	42343.80
626.95	42638.71
627.14	42151.29
627.34	42872.18
627.54	42349.95
627.73	42237.31
627.93	42450.30
628.12	42329.47
628.32	42644.85
628.51	42605.94
628.71	42337.66
628.90	42603.89
629.10	42284.41
629.30	42483.06
629.49	42730.87
629.69	42665.33
629.88	42429.82
630.08	42528.12
630.27	42562.93
630.47	42343.80
630.66	42265.98
630.86	42169.72
631.05	41981.31
631.25	42464.63
631.44	42700.15
631.64	42376.57
631.84	42397.05
632.03	42536.31
632.23	42171.77
632.42	42673.52
632.62	42452.34
632.81	42239.36
633.01	42319.23
633.20	42419.58
633.40	42521.98
633.59	42612.09
633.79	42091.90
633.98	42120.57
634.18	42374.52
634.37	42304.89
634.57	42218.88
634.76	42327.42
634.96	42349.95
635.15	42265.98
635.35	42204.54
635.54	42057.09
635.74	42093.95
635.93	41893.25
636.13	42343.80
636.32	42360.19
636.52	42093.95
636.71	42091.90
636.91	42530.17
637.10	42470.78
637.30	42452.34
637.49	42036.61
637.69	42415.48
637.88	42311.03
638.08	42169.72
638.27	42501.50
638.46	42528.12
638.66	42358.14
638.85	42300.79
639.05	42308.99
639.24	42276.22
639.44	42210.68
639.63	42124.67
639.83	42294.65
640.02	42114.43
640.22	41928.06
640.41	42765.68
640.61	41862.53
640.80	42483.06
640.99	42198.40
641.19	42632.57
641.38	42257.79
641.58	42311.03
641.77	42251.64
641.97	42118.53
642.16	41952.64
642.36	42378.62
642.55	42063.23
642.74	42251.64
642.94	42481.02
643.13	42028.41
643.33	42460.54
643.52	42667.38
643.72	42526.07
643.91	42429.82
644.10	42296.70
644.30	42358.14
644.49	42165.63
644.69	42462.58
644.88	41960.83
645.08	42026.37
645.27	42192.25
645.46	41760.13
645.66	42323.32
645.85	42026.37
646.05	42360.19
646.24	42386.81
646.43	42317.18
646.63	42460.54
646.82	42653.05
647.02	42216.83
647.21	42261.88
647.40	42206.59
647.60	42493.30
647.79	42646.90
647.99	42657.14
648.18	41876.86
648.37	42454.39
648.57	42470.78
648.76	42569.08
648.96	41872.77
649.15	42530.17
649.34	42265.98
649.54	42198.40
649.73	42378.62
649.92	42370.43
650.12	42218.88
650.31	42251.64
650.51	42163.58
650.70	42139.00
650.89	42208.64
651.09	42696.05
651.28	42302.84
651.47	42468.73
651.67	42251.64
651.86	42417.53
652.06	42030.46
652.25	42753.40
652.44	42374.52
652.64	42177.92
652.83	42214.78
653.02	42505.59
653.22	42413.43
653.41	41883.01
653.60	42188.16
653.80	41995.65
653.99	42368.38
654.18	42104.19
654.38	42139.00
654.57	42251.64
654.76	42143.10
654.96	42091.90
655.15	42093.95
655.34	42241.40
655.54	41962.88
655.73	42706.29
655.92	42435.96
656.12	42296.70
656.31	42128.77
656.50	42392.95
656.70	42321.27
656.89	42100.09
657.08	42085.76
657.28	42308.99
657.47	42143.10
657.66	42648.95
657.86	42169.72
658.05	42096.00
658.24	41921.92
658.43	42116.48
658.63	42112.38
658.82	42143.10
659.01	42087.81
659.21	42126.72
659.40	42356.09
659.59	41936.26
659.79	42319.23
659.98	42108.29
660.17	42421.62
660.36	42059.13
660.56	42227.07
660.75	42409.34
660.94	41999.74
661.14	42159.48
661.33	42464.63
661.52	41977.22
661.71	42229.12
661.91	42091.90
662.10	41715.08
662.29	42106.24
662.49	42306.94
662.68	42319.23
662.87	42261.88
663.06	42485.11
663.26	42290.55
663.45	42102.14
663.64	41870.72
663.83	41938.30
664.03	41917.82
664.22	41905.54
664.41	41936.26
664.60	41831.81
664.80	42198.40
664.99	41938.30
665.18	41807.23
665.37	41835.91
665.57	42108.29
665.76	42194.30
665.95	42169.72
666.14	42139.00
666.34	41852.29
666.53	41930.11
666.72	41620.87
666.91	41434.50
667.11	41512.33
667.30	41969.02
667.49	41735.56
667.68	42059.13
667.87	41989.50
668.07	41780.61
668.26	42104.19
668.45	41760.13
668.64	41737.60
668.84	41901.44
669.03	41641.35
669.22	41887.10
669.41	41672.07
669.60	41880.96
669.80	41530.76
669.99	41819.52
670.18	41514.37
670.37	41921.92
670.57	41756.03
670.76	42014.08
670.95	41655.68
671.14	41545.09
671.33	41477.51
671.53	41891.20
671.72	42061.18
671.91	41678.21
672.10	41129.36
672.29	41604.49
672.48	41723.27
672.68	41522.57
672.87	41774.47
673.06	41575.81
673.25	41508.23
673.44	41397.64
673.64	41328.01
673.83	41219.47
674.02	41387.40
674.21	41131.40
674.40	41321.87
674.59	41235.85
674.79	41006.48
674.98	41172.36
675.17	41504.13
675.36	41469.32
675.55	41278.86
675.74	41080.21
675.94	41264.52
676.13	40961.42
676.32	41307.53
676.51	41452.94
676.70	41076.11
676.89	40916.37
677.08	41444.74
677.28	40781.20
677.47	41125.26
677.66	41221.52
677.85	40973.71
678.04	41190.80
678.23	41444.74
678.42	41051.53
678.62	40867.22
678.81	40994.19
679.00	40781.20
679.19	41446.79
679.38	40701.33
679.57	41057.68
679.76	41012.62
679.96	41274.76
680.15	40996.24
680.34	40744.34
680.53	40850.83
680.72	41092.49
680.91	41102.73
681.10	40600.98
681.29	40668.56
681.48	40643.99
681.68	40424.86
681.87	40490.39
682.06	40650.13
682.25	40271.26
682.44	40631.70
682.63	40318.36
682.82	40549.78
683.01	40723.86
683.20	40279.45
683.39	40617.36
683.59	40594.84
683.78	40586.64
683.97	40197.53
684.16	40166.81
684.35	40189.34
684.54	40357.27
684.73	40183.19
684.92	39804.32
685.11	40189.34
685.30	40132.00
685.49	40600.98
685.69	40218.01
685.88	40422.81
686.07	40129.95
686.26	39892.38
686.45	40371.61
686.64	40068.51
686.83	39937.44
687.02	40226.20
687.21	39816.61
687.40	39814.56
687.59	40082.84
687.78	39806.37
687.97	40390.04
688.16	39755.17
688.35	40039.84
688.54	39873.95
688.74	39767.46
688.93	39687.59
689.12	39941.53
689.31	39945.63
689.50	39988.64
689.69	39024.04
689.88	39464.36
690.07	39636.39
690.26	39572.90
690.45	39675.30
690.64	39447.97
690.83	39304.62
691.02	39482.79
691.21	39789.98
691.40	39351.72
691.59	39323.05
691.78	39421.35
691.97	39355.82
692.16	39392.68
692.35	39499.17
692.54	39128.49
692.73	39411.11
692.92	39126.44
693.11	39376.30
693.30	39273.90
693.49	39243.18
693.68	39067.05
693.87	39499.17
694.06	38673.84
694.25	39075.24
694.44	39073.20
694.63	38880.69
694.82	39028.14
695.01	38833.58
695.20	38702.51
695.39	38884.78
695.58	38673.84
695.77	38686.13
695.96	38245.82
696.15	38583.73
696.34	38825.39
696.53	38800.82
696.72	38815.15
696.91	38598.07
697.10	38110.65
697.29	38223.29
697.48	38589.88
697.67	38211.00
697.86	38229.43
698.05	38204.86
698.24	38389.17
698.43	38206.90
698.62	38370.74
698.81	38313.40
699.00	38397.37
699.19	38036.92
699.38	38378.93
699.57	37905.85
699.76	38512.05
699.95	37897.66
700.14	38213.05
700.32	37971.39
700.51	38124.99
700.70	37946.81
700.89	38104.51
701.08	37840.32
701.27	37805.50
701.46	38135.23
701.65	37379.53
701.84	37727.68
702.03	37891.52
702.22	37744.06
702.41	37393.86
702.60	37772.74
702.79	37649.86
702.98	37633.47
703.17	37602.75
703.35	37404.10
703.54	37739.97
703.73	37690.82
703.92	37662.15
704.11	37572.03
704.30	37176.78
704.49	37479.88
704.68	37334.47
704.87	37017.04
705.06	37342.66
705.25	36687.31
705.43	36941.26
705.62	37043.66
705.81	36867.53
706.00	37146.06
706.19	36720.08
706.38	36863.44
706.57	37166.54
706.76	37131.72
706.95	37246.41
707.14	36740.56
707.32	36842.96
707.51	36758.99
707.70	36795.85
707.89	37068.23
708.08	36881.87
708.27	36888.01
708.46	36959.69
708.65	36244.95
708.84	36572.63
709.02	36703.70
709.21	36449.75
709.40	36615.63
709.59	36867.53
709.78	35950.04
709.97	36578.77
710.16	36562.39
710.34	36292.05
710.53	36292.05
710.72	36543.95
710.91	36459.99
711.10	36394.45
711.29	36038.11
711.48	36353.49
711.66	36128.22
711.85	35759.58
712.04	36427.22
712.23	36273.62
712.42	35880.41
712.61	35788.25
712.80	35945.95
712.98	36197.85
713.17	35988.95
713.36	35982.81
713.55	35907.04
713.74	35628.51
713.93	36074.97
714.11	36007.39
714.30	35538.40
714.49	35538.40
714.68	35651.04
714.87	35925.47
715.06	35290.60
715.24	35657.18
715.43	35724.77
715.62	35311.08
715.81	35284.45
716.00	35358.18
716.18	35272.17
716.37	34926.06
716.56	34758.13
716.75	35612.13
716.94	35573.22
717.12	35128.81
717.31	35358.18
717.50	35212.77
717.69	35210.73
717.88	34872.81
718.06	35223.01
718.25	35245.54
718.44	35116.52
718.63	35147.24
718.82	34653.68
719.00	34561.52
719.19	34684.40
719.38	34868.72
719.57	34233.85
719.76	34330.10
719.94	34379.25
720.13	34602.48
720.32	34504.18
720.51	34493.94
720.69	34162.17
720.88	34299.38
721.07	34139.64
721.26	33744.38
721.44	34217.46
721.63	34041.34
721.82	33975.80
722.01	33990.14
722.20	34010.62
722.38	33656.32
722.57	33740.29
722.76	33926.65
722.95	33705.47
723.13	33500.67
723.32	33850.88
723.51	33459.71
723.70	33654.27
723.88	33566.21
724.07	33248.77
724.26	33449.47
724.44	33058.31
724.63	33629.69
724.82	33410.56
725.01	33555.97
725.19	33336.84
725.38	33158.66
725.57	33041.93
725.76	33052.17
725.94	32990.73
726.13	32615.95
726.32	32790.03
726.51	32585.23
726.69	33250.82
726.88	32982.54
727.07	32984.58
727.25	33168.90
727.44	32890.38
727.63	32914.95
727.82	32802.32
728.00	32943.63
728.19	32955.91
728.38	32830.99
728.56	32497.17
728.75	32742.92
728.94	32511.50
729.12	32650.77
729.31	32787.98
729.50	32509.46
729.69	33101.32
729.87	32900.62
730.06	32462.35
730.25	32472.59
730.43	32704.01
730.62	32495.12
730.81	32794.12
730.99	32591.37
731.18	32372.24
731.37	32624.14
731.55	32736.78
731.74	32802.32
731.93	32536.08
732.11	32499.22
732.30	32308.76
732.49	32316.95
732.67	32325.14
732.86	32269.84
733.05	32085.53
733.23	32026.14
733.42	32443.92
733.61	31888.92
733.79	32364.05
733.98	32019.99
734.17	32243.22
734.35	31944.22
734.54	31876.63
734.73	32226.84
734.91	32280.08
735.10	32024.09
735.29	31866.39
735.47	31880.73
735.66	31983.13
735.84	32069.14
736.03	31454.75
736.22	31981.08
736.40	31397.41
736.59	31823.39
736.78	31950.36
736.96	31528.48
737.15	31821.34
737.33	31680.03
737.52	31841.82
737.71	31464.99
737.89	31630.88
738.08	31518.24
738.27	31538.72
738.45	31837.72
738.64	31723.04
738.82	31460.90
739.01	31374.88
739.20	31397.41
739.38	31428.13
739.57	31340.07
739.75	31714.84
739.94	31213.09
740.13	31348.26
740.31	31335.97
740.50	31381.03
740.68	31282.72
740.87	31106.60
741.06	31446.56
741.24	31206.95
741.43	30963.24
741.61	31151.65
741.80	30907.94
741.99	30895.66
742.17	30768.68
742.36	31059.49
742.54	30875.18
742.73	31102.50
742.91	30901.80
743.10	30717.48
743.29	31073.83
743.47	31039.01
743.66	30848.55
743.84	31067.69
744.03	30846.51
744.21	30862.89
744.40	30957.10
744.59	30617.13
744.77	30807.59
744.96	30924.33
745.14	30727.72
745.33	30547.50
745.51	30572.08
745.70	30811.69
745.88	30453.30
746.07	30621.23
746.26	30291.51
746.44	30254.64
746.63	30246.45
746.81	30821.93
747.00	30115.38
747.18	30369.33
747.37	30375.47
747.55	30666.28
747.74	30402.10
747.92	30285.36
748.11	29738.55
748.29	30326.32
748.48	30160.44
748.66	30191.16
748.85	30078.52
749.03	30340.66
749.22	30264.88
749.41	30027.32
749.59	30086.71
749.78	29867.58
749.96	29789.75
750.15	29867.58
750.33	29816.38
750.52	29935.16
750.70	29535.81
750.89	29632.06
751.07	29500.99
751.26	29668.92
751.44	29476.41
751.63	29523.52
751.81	29476.41
752.00	29621.82
752.18	29675.07
752.37	29376.06
752.55	29103.68
752.74	29476.41
752.92	29212.23
753.10	29689.40
753.29	29410.88
753.47	29333.06
753.66	29062.72
753.84	29306.43
754.03	29193.79
754.21	29054.53
754.40	29359.68
754.58	29288.00
754.77	29503.04
754.95	29257.28
755.14	29132.36
755.32	29097.54
755.51	29126.21
755.69	28698.19
755.88	29222.47
756.06	29095.49
756.24	28950.09
756.43	28907.08
756.61	29093.44
756.80	28939.85
756.98	28540.49
757.17	28837.45
757.35	28595.79
757.54	28399.18
757.72	28911.17
757.90	29064.77
758.09	28524.11
758.27	28751.43
758.46	28718.67
758.64	28497.49
758.83	28661.32
759.01	28460.62
759.19	28677.71
759.38	28614.22
759.56	29046.34
759.75	28454.48
759.93	28417.61
760.12	28196.43
760.30	28534.35
760.48	28259.92
760.67	28337.74
760.85	28546.64
761.04	28323.41
761.22	28214.87
761.40	28016.21
761.59	28597.84
761.77	27969.11
761.96	28081.75
762.14	27768.41
762.32	27991.64
762.51	28012.12
762.69	28010.07
762.88	28057.17
763.06	27715.16
763.24	28108.37
763.43	27862.61
763.61	27811.42
763.80	27614.81
763.98	27483.74
764.16	27754.07
764.35	27520.60
764.53	27461.21
764.72	27567.71
764.90	27706.97
765.08	27526.75
765.27	27631.19
765.45	27352.67
765.63	27309.66
765.82	27643.48
766.00	27450.97
766.18	27545.18
766.37	27412.06
766.55	27166.31
766.74	27446.88
766.92	26943.08
767.10	27205.22
767.29	27215.46
767.47	26992.23
767.65	27276.90
767.84	27053.67
768.02	27350.62
768.20	26900.07
768.39	26883.69
768.57	27147.87
768.75	26889.83
768.94	27033.19
769.12	26820.20
769.30	26721.90
769.49	26472.04
769.67	26785.38
769.85	26601.07
770.04	27061.86
770.22	26779.24
770.40	26449.52
770.59	26547.82
770.77	26470.00
770.95	26959.46
771.14	26291.82
771.32	26306.16
771.50	26420.84
771.69	26506.86
771.87	26584.68
772.05	26496.62
772.24	26183.28
772.42	26072.69
772.60	26293.87
772.78	26029.68
772.97	26166.90
773.15	26103.41
773.33	26318.45
773.52	25994.87
773.70	26183.28
773.88	26306.16
774.07	26027.63
774.25	26521.20
774.43	26488.43
774.61	26308.21
774.80	26214.00
774.98	26203.76
775.16	26271.34
775.34	25998.96
775.53	26037.87
775.71	26138.23
775.89	26062.45
776.08	26140.27
776.26	26267.25
776.44	26441.32
776.62	26328.69
776.81	26193.52
776.99	26152.56
777.17	26214.00
777.35	26271.34
777.54	26470.00
777.72	26056.31
777.90	26064.50
778.08	26326.64
778.27	26330.73
778.45	26553.96
778.63	26355.31
778.81	26127.99
779.00	26666.60
779.18	26484.33
779.36	26617.45
779.54	26044.02
779.73	26347.12
779.91	26517.10
780.09	26031.73
780.27	26486.38
780.46	26377.84
780.64	26676.84
780.82	26238.58
781.00	26623.59
781.19	26689.13
781.37	26660.46
781.55	26750.57
781.73	26635.88
781.91	26558.06
782.10	26836.58
782.28	26377.84
782.46	26803.82
782.64	26760.81
782.82	26467.95
783.01	26599.02
783.19	26551.91
783.37	26885.73
783.55	26834.53
783.74	26746.47
783.92	26533.48
784.10	26947.17
784.28	26680.94
784.46	26506.86
784.64	26377.84
784.83	26617.45
785.01	26556.01
785.19	26482.28
785.37	26809.96
785.55	26543.72
785.74	26267.25
785.92	26308.21
786.10	26652.27
786.28	26510.96
786.46	26406.51
786.64	26257.01
786.83	26455.66
787.01	26451.56
787.19	26527.34
787.37	26336.88
787.55	26046.07
787.74	26007.16
787.92	25994.87
788.10	26191.47
788.28	26152.56
788.46	25962.10
788.64	25667.19
788.82	26121.84
789.01	25972.34
789.19	25984.63
789.37	25902.71
789.55	26214.00
789.73	25931.38
789.91	25919.09
790.09	25804.41
790.28	25742.97
790.46	25812.60
790.64	25661.05
790.82	25874.04
791.00	25568.89
791.18	25912.95
791.36	25476.73
791.55	25710.20
791.73	25429.63
791.91	24903.30
792.09	25042.56
792.27	25458.30
792.45	25179.78
792.63	25185.92
792.81	24960.64
793.00	25331.33
793.18	25052.80
793.36	25202.30
793.54	25011.84
793.72	24798.85
793.90	24649.35
794.08	24934.02
794.26	24876.68
794.44	24671.88
794.62	24299.15
794.81	24880.77
794.99	24604.30
795.17	24524.43
795.35	24305.29
795.53	24446.60
795.71	24690.31
795.89	24600.20
796.07	24092.30
796.25	23860.88
796.43	24127.12
796.61	23602.84
796.80	23721.62
796.98	24241.81
797.16	23998.10
797.34	23590.55
797.52	23629.46
797.70	24278.67
797.88	24032.91
798.06	23756.44
798.24	23545.50
798.42	23553.69
798.60	23645.85
798.78	23396.00
798.96	23416.47
799.14	23242.40
799.32	23432.86
799.51	22914.72
799.69	23367.32
799.87	23266.97
800.05	22994.59
800.23	23189.15
800.41	23000.74
800.59	22912.67
800.77	23072.42
800.95	22863.52
801.13	22859.43
801.31	22685.35
801.49	22816.42
801.67	22648.49
801.85	22853.28
802.03	22703.78
802.21	22443.69
802.39	22398.63
802.57	22560.42
802.75	22202.03
802.93	22339.24
803.11	22230.70
803.29	22326.96
803.47	22159.02
803.65	22195.89
803.83	22374.06
804.01	22054.58
804.19	22050.48
804.37	21804.72
804.55	21943.99
804.73	21968.56
804.91	21513.91
805.09	21558.97
805.27	21683.89
805.45	21886.64
805.63	21694.13
805.81	21610.17
805.99	21577.40
806.17	21458.62
806.35	21360.31
806.53	21376.70
806.71	21741.24
806.89	21345.98
807.07	21419.71
807.25	21223.10
807.43	20977.34
807.61	21307.07
807.79	21262.01
807.97	21106.37
808.15	20995.78
808.33	20909.76
808.51	21040.83
808.69	21206.72
808.87	21036.74
809.05	20780.74
809.23	20733.64
809.41	20465.35
809.59	20819.65
809.77	20522.69
809.95	20623.05
810.13	20901.57
810.31	20567.75
810.49	20463.30
810.67	20369.10
810.84	20516.55
811.02	20563.65
811.20	20219.60
811.38	20491.98
811.56	20387.53
811.74	20242.12
811.92	19893.97
812.10	20330.19
812.28	20092.62
812.46	19906.26
812.64	20076.24
812.82	19994.32
813.00	20274.89
813.18	19893.97
813.36	20094.67
813.53	19881.68
813.71	19916.50
813.89	19863.25
814.07	19818.19
814.25	20008.65
814.43	19633.88
814.61	19658.45
814.79	19695.32
814.97	19361.50
815.15	19361.50
815.33	19513.05
815.50	19535.57
815.68	19613.40
815.86	19302.11
816.04	19332.82
816.22	19269.34
816.40	19173.08
816.58	19345.11
816.76	19275.48
816.94	19089.12
817.11	19160.80
817.29	19091.16
817.47	18945.76
817.65	19009.25
817.83	18962.14
818.01	18802.40
818.19	18833.12
818.37	18818.78
818.54	18710.24
818.72	18425.57
818.90	18802.40
819.08	18716.39
819.26	18745.06
819.44	18599.65
819.62	18648.80
819.80	18517.73
819.97	18476.77
820.15	18237.16
820.33	18525.93
820.51	18493.16
820.69	18280.17
820.87	18470.63
821.05	18552.55
821.22	18431.72
821.40	18364.14
821.58	18102.00
821.76	18314.98
821.94	18108.14
822.12	18196.20
822.29	18382.57
822.47	18284.26
822.65	18192.11
822.83	18114.28
823.01	18102.00
823.19	17981.17
823.36	18110.19
823.54	18102.00
823.72	17747.70
823.90	17962.73
824.08	17964.78
824.25	17796.85
824.43	17620.72
824.61	17735.41
824.79	17893.10
824.97	17657.59
825.15	17495.80
825.32	17465.08
825.50	17483.51
825.68	17473.27
825.86	17714.93
826.04	17616.63
826.21	17329.91
826.39	17452.79
826.57	17272.57
826.75	17446.65
826.93	17503.99
827.10	17213.18
827.28	17559.28
827.46	17319.67
827.64	17356.54
827.81	17270.52
827.99	17299.19
828.17	17129.21
828.35	17065.72
828.53	17182.46
828.70	17299.19
828.88	17239.80
829.06	17084.16
829.24	17301.24
829.41	17030.91
829.59	17159.93
829.77	16883.45
829.95	16965.37
830.12	17078.01
830.30	16983.80
830.48	16707.33
830.66	16797.44
830.84	16627.46
831.01	16649.99
831.19	16719.62
831.37	16705.28
831.55	16785.15
831.72	16410.37
831.90	16449.28
832.08	16615.17
832.25	16535.30
832.43	16557.83
832.61	16443.14
832.79	16426.76
832.96	16389.89
833.14	16572.16
833.32	16508.68
833.50	16539.40
833.67	16525.06
833.85	16465.67
834.03	16224.01
834.20	16297.74
834.38	16277.26
834.56	16275.21
834.74	16172.81
834.91	16097.03
835.09	16142.09
835.27	15914.77
835.44	15978.25
835.62	15611.67
835.80	15884.05
835.98	16197.38
836.15	16097.03
836.33	16054.03
836.51	15882.00
836.68	15904.53
836.86	15879.95
837.04	15838.99
837.21	15939.34
837.39	15814.41
837.57	15726.35
837.75	16074.51
837.92	15871.76
838.10	15623.95
838.28	15595.28
838.45	15779.60
838.63	15712.02
838.81	15742.74
838.98	15544.08
839.16	15359.77
839.34	15449.88
839.51	15527.70
839.69	15357.72
839.87	15310.61
840.04	15384.34
840.22	15613.71
840.40	15587.09
840.57	15236.89
840.75	15644.43
840.93	15206.17
841.10	15238.94
841.28	15415.06
841.46	15419.16
841.63	15292.18
841.81	15388.44
841.98	15208.22
842.16	15308.57
842.34	15111.96
842.51	15099.67
842.69	14978.84
842.87	15210.26
843.04	15095.58
843.22	15015.71
843.40	14849.82
843.57	15068.95
843.75	15116.06
843.92	15015.71
844.10	14970.65
844.28	14864.16
844.45	15181.59
844.63	14974.75
844.81	14733.09
844.98	14903.07
845.16	14714.66
845.33	14948.12
845.51	14559.01
845.69	14704.42
845.86	14683.94
846.04	14450.47
846.21	14628.64
846.39	14544.67
846.57	14380.84
846.74	14456.61
846.92	14688.03
847.09	14634.78
847.27	14481.19
847.45	14503.71
847.62	14638.88
847.80	14712.61
847.97	14436.13
848.15	14509.86
848.32	14139.18
848.50	14448.42
848.68	14477.09
848.85	14503.71
849.03	14456.61
849.20	14372.64
849.38	14454.56
849.56	14190.38
849.73	14495.52
849.91	14483.24
850.08	14536.48
850.26	14083.88
850.43	14196.52
850.61	14241.57
850.78	14112.55
850.96	14178.09
851.14	13961.00
851.31	14049.07
851.49	13981.48
851.66	14032.68
851.84	13909.80
852.01	14028.59
852.19	14065.45
852.36	13954.86
852.54	14143.27
852.71	13809.45
852.89	13930.28
853.07	14071.59
853.24	13909.80
853.42	13995.82
853.59	13799.21
853.77	13647.66
853.94	14014.25
854.12	13817.65
854.29	13891.37
854.47	13909.80
854.64	13532.98
854.82	13592.37
854.99	13805.36
855.17	13707.05
855.34	13788.97
855.52	13688.62
855.69	13752.11
855.87	13741.87
856.04	13455.15
856.22	13363.00
856.39	13348.66
856.57	13694.77
856.74	13473.59
856.92	13475.63
857.09	13453.11
857.27	13137.72
857.44	13567.79
857.62	13584.18
857.79	13502.26
857.97	13219.64
858.14	13348.66
858.32	13182.77
858.49	13434.68
858.67	13317.94
858.84	13250.36
859.02	13309.75
859.19	13107.00
859.37	13127.48
859.54	13088.57
859.72	13328.18
859.89	13258.55
860.06	13051.70
860.24	13117.24
860.41	12930.87
860.59	12959.55
860.76	13047.61
860.94	12799.80
861.11	13068.09
861.29	12834.62
861.46	12973.88
861.64	12689.21
861.81	12848.96
861.98	12959.55
862.16	12912.44
862.33	12779.32
862.51	12928.83
862.68	12756.80
862.86	12478.27
863.03	12871.48
863.21	12713.79
863.38	12445.51
863.55	12592.96
863.73	12625.73
863.90	12871.48
864.08	12576.58
864.25	12484.42
864.43	12752.70
864.60	12488.51
864.77	12511.04
864.95	12449.60
865.12	12502.85
865.30	12398.40
865.47	12326.72
865.64	12486.47
865.82	12414.79
865.99	12257.09
866.17	12349.25
866.34	12320.58
866.51	12146.50
866.69	12441.41
866.86	12312.39
867.04	12281.67
867.21	12257.09
867.38	12062.54
867.56	12140.36
867.73	12072.78
867.91	11960.14
868.08	12109.64
868.25	12001.10
868.43	12273.48
868.60	11956.04
868.78	12103.50
868.95	12146.50
869.12	12080.97
869.30	12076.87
869.47	11878.22
869.64	11835.21
869.82	11661.13
869.99	11820.88
870.16	12066.63
870.34	11863.88
870.51	11652.94
870.69	11798.35
870.86	11743.05
871.03	11736.91
871.21	11593.55
871.38	11804.49
871.55	11798.35
871.73	11595.60
871.90	11657.04
872.07	11661.13
872.25	11487.06
872.42	11489.10
872.59	11437.91
872.77	11552.59
872.94	11229.01
873.11	11272.02
873.29	11364.18
873.46	11390.80
873.63	11300.69
873.81	11196.25
873.98	11343.70
874.15	11122.52
874.33	11302.74
874.50	11102.04
874.67	11282.26
874.85	11061.08
875.02	11097.94
875.19	11128.66
875.37	11061.08
875.54	10911.58
875.71	11231.06
875.88	10932.06
876.06	11140.95
876.23	10985.30
876.40	11061.08
876.58	10956.63
876.75	10796.89
876.92	10921.82
877.10	10823.51
877.27	10770.27
877.44	10803.04
877.61	10522.46
877.79	10665.82
877.96	10807.13
878.13	10684.25
878.31	10622.81
878.48	10710.88
878.65	10725.21
878.82	10430.30
879.00	10600.29
879.17	10510.18
879.34	10489.70
879.51	10501.98
879.69	10360.67
879.86	10348.39
880.03	10628.96
880.21	10420.06
880.38	10467.17
880.55	10620.77
880.72	10446.69
880.90	10211.17
881.07	10319.71
881.24	10530.66
881.41	10504.03
881.59	10379.11
881.76	10245.99
881.93	10223.46
882.10	10297.19
882.28	10082.15
882.45	10229.60
882.62	10121.06
882.79	10323.81
882.96	9918.31
883.14	10202.98
883.31	10137.45
883.48	9998.18
883.65	10006.38
883.83	10254.18
884.00	10192.74
884.17	10049.38
884.34	9932.65
884.51	10106.73
884.69	9897.83
884.86	9854.83
885.03	10037.09
885.20	9826.15
885.38	10049.38
885.55	9822.06
885.72	10012.52
885.89	9969.51
886.06	9942.89
886.24	9992.04
886.41	9715.56
886.58	9992.04
886.75	9889.64
886.92	9887.59
887.10	9957.22
887.27	9793.39
887.44	9842.54
887.61	9832.30
887.78	9863.02
887.95	9643.88
888.13	9752.43
888.30	9799.53
888.47	9588.59
888.64	9729.90
888.81	9670.51
888.99	9686.89
889.16	9512.81
889.33	9746.28
889.50	9533.29
889.67	9744.24
889.84	9594.73
890.01	9443.18
890.19	9613.17
890.36	9531.25
890.53	9609.07
890.70	9451.38
890.87	9516.91
891.04	9451.38
891.22	9426.80
891.39	9561.97
891.56	9275.25
891.73	9355.12
891.90	9250.67
892.07	9383.79
892.24	9394.03
892.42	9305.97
892.59	9215.86
892.76	9308.02
892.93	9195.38
893.10	9281.39
893.27	9195.38
893.44	9359.22
893.61	9201.52
893.79	9205.62
893.96	9293.68
894.13	9148.28
894.30	9185.14
894.47	9115.51
894.64	9353.07
894.81	9222.00
894.98	9211.76
895.15	9160.56
895.33	9201.52
895.50	9090.93
895.67	9201.52
895.84	9072.50
896.01	9103.22
896.18	8953.72
896.35	9013.11
896.52	9185.14
896.69	9109.36
896.86	9135.99
897.04	9078.65
897.21	9179.00
897.38	8994.68
897.55	9045.88
897.72	9103.22
897.89	9211.76
898.06	9037.69
898.23	9099.13
898.40	9117.56
898.57	9058.17
898.74	9009.01
898.91	8927.10
899.08	8955.77
899.26	9002.87
899.43	8818.55
899.60	9078.65
899.77	8992.63
899.94	9092.98
900.11	8728.44
900.28	8986.49
900.45	8859.51
900.62	8869.75
900.79	8951.67
900.96	8793.98
901.13	8955.77
901.30	8826.75
901.47	8849.27
901.64	8982.39
901.81	8822.65
901.98	8796.03
902.15	8912.76
902.32	8802.17
902.49	8867.70
902.66	8765.31
902.83	8791.93
903.01	8798.07
903.18	8753.02
903.35	8818.55
903.52	8703.87
903.69	8793.98
903.86	8912.76
904.03	8564.61
904.20	8869.75
904.37	8888.18
904.54	8961.91
904.71	8998.77
904.88	8681.34
905.05	8648.57
905.22	8839.03
905.39	8888.18
905.56	8808.31
905.73	8796.03
905.90	8677.24
906.07	8724.35
906.24	8673.15
906.41	8871.80
906.58	8615.80
906.75	8781.69
906.92	8527.74
907.09	8769.40
907.26	8679.29
907.43	8621.95
907.60	8650.62
907.77	8857.46
907.93	8712.06
908.10	8732.54
908.27	8664.96
908.44	8566.65
908.61	8425.34
908.78	8624.00
908.95	8583.04
909.12	8601.47
909.29	8587.13
909.46	8544.13
909.63	8515.45
909.80	8601.47
909.97	8695.68
910.14	8630.14
910.31	8656.76
910.48	8476.54
910.65	8353.66
910.82	8462.21
910.99	8611.71
911.16	8687.48
911.33	8476.54
911.50	8460.16
911.66	8529.79
911.83	8347.52
912.00	8509.31
912.17	8384.38
912.34	8429.44
912.51	8304.51
912.68	8329.09
912.85	8228.74
913.02	8398.72
913.19	8202.11
913.36	8130.44
913.53	8290.18
913.70	8152.96
913.86	8304.51
914.03	8324.99
914.20	8193.92
914.37	8279.94
914.54	8202.11
914.71	8259.46
914.88	8091.52
915.05	8163.20
915.22	7956.36
915.39	8327.04
915.55	8173.44
915.72	8011.65
915.89	8185.73
916.06	8052.61
916.23	8222.59
916.40	7954.31
916.57	8062.85
916.74	8058.76
916.91	7835.53
917.07	8050.57
917.24	7911.30
917.41	7804.81
917.58	7958.41
917.75	7759.75
917.92	7479.18
918.09	7839.62
918.26	7813.00
918.42	7806.86
918.59	7796.62
918.76	7618.44
918.93	7753.61
919.10	7624.59
919.27	7616.40
919.44	7708.55
919.60	7589.77
919.77	7524.24
919.94	7446.41
920.11	7423.89
920.28	7475.09
920.45	7405.46
920.61	7415.69
920.78	7401.36
920.95	7284.62
921.12	7403.41
921.29	7354.26
921.46	7376.78
921.62	7188.37
921.79	7313.30
921.96	7298.96
922.13	7106.45
922.30	7188.37
922.47	7171.99
922.63	7204.75
922.80	7020.44
922.97	7051.16
923.14	6893.46
923.31	7055.25
923.47	7014.29
923.64	7223.19
923.81	6868.89
923.98	6942.61
924.15	6836.12
924.32	6893.46
924.48	6819.74
924.65	6907.80
924.82	6739.87
924.99	6741.91
925.15	6733.72
925.32	6760.34
925.49	6586.27
925.66	6741.91
925.83	6655.90
925.99	6549.40
926.16	6659.99
926.33	6522.78
926.50	6459.29
926.67	6635.42
926.83	6500.25
927.00	6424.48
927.17	6537.12
927.34	6373.28
927.50	6393.76
927.67	6520.73
927.84	6471.58
928.01	6449.05
928.17	6213.54
928.34	6195.11
928.51	6348.70
928.68	6260.64
928.84	6264.74
929.01	6297.50
929.18	6143.91
929.35	6098.85
929.51	6160.29
929.68	6078.37
929.85	5910.44
930.02	6068.13
930.18	5898.15
930.35	5961.64
930.52	5898.15
930.69	5967.78
930.85	5967.78
931.02	5818.28
931.19	5740.46
931.36	5904.29
931.52	5760.94
931.69	5935.01
931.86	5789.61
932.02	5828.52
932.19	5605.29
932.36	5701.54
932.53	5664.68
932.69	5679.02
932.86	5566.38
933.03	5578.67
933.19	5525.42
933.36	5523.37
933.53	5560.24
933.70	5390.25
933.86	5398.45
934.03	5328.81
934.20	5347.25
934.36	5480.36
934.53	5324.72
934.70	5263.28
934.86	5263.28
935.03	5158.83
935.20	5181.36
935.36	5226.42
935.53	5109.68
935.70	5023.67
935.86	5126.07
936.03	4847.54
936.20	5015.48
936.36	4970.42
936.53	4859.83
936.70	4761.53
936.86	4986.80
937.03	4773.82
937.20	4736.95
937.36	4763.58
937.53	4730.81
937.70	4657.08
937.86	4515.77
938.03	4472.76
938.20	4521.92
938.36	4466.62
938.53	4325.31
938.70	4292.54
938.86	4349.89
939.03	4241.34
939.20	4181.95
939.36	4249.54
939.53	4198.34
939.70	4216.77
939.86	4042.69
940.03	4075.46
940.19	4102.08
940.36	4061.12
940.53	3993.54
940.69	3819.46
940.86	3899.33
941.03	3872.71
941.19	3897.28
941.36	3930.05
941.52	3821.51
941.69	3626.95
941.86	3692.49
942.02	3700.68
942.19	3571.66
942.35	3704.78
942.52	3598.28
942.69	3575.75
942.85	3561.42
943.02	3594.19
943.18	3551.18
943.35	3549.13
943.52	3549.13
943.68	3428.30
943.85	3508.17
944.01	3411.92
944.18	3383.24
944.35	3450.83
944.51	3223.50
944.68	3252.17
944.84	3289.04
945.01	3311.57
945.17	3323.85
945.34	3256.27
945.51	3276.75
945.67	3170.26
945.84	3219.41
946.00	3190.74
946.17	3182.54
946.33	3178.45
946.50	3258.32
946.67	3182.54
946.83	3178.45
947.00	3243.98
947.16	3219.41
947.33	3131.34
947.49	3145.68
947.66	3137.49
947.82	3174.35
947.99	3092.43
948.16	3160.02
948.32	3049.43
948.49	3147.73
948.65	3207.12
948.82	3112.91
948.98	3133.39
949.15	3078.10
949.31	3139.54
949.48	3082.19
949.64	3170.26
949.81	3065.81
949.97	3010.51
950.14	3170.26
950.30	2998.23
950.47	3121.10
950.63	3086.29
950.80	3104.72
950.96	3076.05
951.13	3078.10
951.30	3035.09
951.46	3047.38
951.63	3102.67
951.79	3002.32
951.96	2906.07
952.12	3024.85
952.29	3041.23
952.45	3106.77
952.62	3160.02
952.78	3059.67
952.94	3086.29
953.11	3104.72
953.27	3057.62
953.44	3074.00
953.60	3061.71
953.77	2947.03
953.93	3074.00
954.10	3004.37
954.26	3051.47
954.43	3051.47
954.59	3033.04
954.76	3108.82
954.92	3000.27
955.09	3057.62
955.25	2967.51
955.42	3004.37
955.58	2985.94
955.75	2967.51
955.91	3082.19
956.07	3004.37
956.24	3004.37
956.40	3059.67
956.57	3053.52
956.73	2969.55
956.90	3121.10
957.06	2924.50
957.23	2848.72
957.39	3127.25
957.56	2957.27
957.72	2904.02
957.88	2912.21
958.05	3104.72
958.21	3033.04
958.38	3020.75
958.54	2944.98
958.71	3039.19
958.87	2844.63
959.03	2947.03
959.20	3037.14
959.36	2883.54
959.53	2955.22
959.69	2904.02
959.85	2987.99
960.02	2889.68
960.18	2891.73
960.35	2885.59
960.51	3028.95
960.68	2885.59
960.84	2865.11
961.00	2848.72
961.17	2842.58
961.33	3022.80
961.50	2998.23
961.66	2940.88
961.82	2910.16
961.99	2920.40
962.15	2858.96
962.31	2967.51
962.48	2979.79
962.64	2861.01
962.81	2832.34
962.97	2830.29
963.13	2889.68
963.30	2885.59
963.46	2818.00
963.62	2844.63
963.79	2873.30
963.95	2887.64
964.12	2815.96
964.28	2848.72
964.44	2742.23
964.61	2856.92
964.77	2920.40
964.93	2854.87
965.10	2920.40
965.26	2758.61
965.42	2856.92
965.59	2811.86
965.75	2881.49
965.92	2834.39
966.08	2871.25
966.24	2914.26
966.41	2787.29
966.57	2840.53
966.73	2797.53
966.90	2889.68
967.06	2756.57
967.22	2736.09
967.39	2848.72
967.55	2795.48
967.71	2764.76
967.88	2877.40
968.04	2740.18
968.20	2668.50
968.37	2754.52
968.53	2856.92
968.69	2811.86
968.85	2824.15
969.02	2750.42
969.18	2762.71
969.34	2672.60
969.51	2752.47
969.67	2783.19
969.83	2680.79
970.00	2770.90
970.16	2779.09
970.32	2791.38
970.48	2731.99
970.65	2754.52
970.81	2682.84
970.97	2748.37
971.14	2652.12
971.30	2789.33
971.46	2701.27
971.63	2770.90
971.79	2705.37
971.95	2688.98
972.11	2682.84
972.28	2695.13
972.44	2787.29
972.60	2662.36
972.76	2664.41
972.93	2648.02
973.09	2572.25
973.25	2742.23
973.42	2723.80
973.58	2678.74
973.74	2691.03
973.90	2699.22
974.07	2543.58
974.23	2713.56
974.39	2623.45
974.55	2707.41
974.72	2598.87
974.88	2645.98
975.04	2596.82
975.20	2516.95
975.37	2615.26
975.53	2633.69
975.69	2650.07
975.85	2639.83
976.01	2596.82
976.18	2570.20
976.34	2648.02
976.50	2609.11
976.66	2594.78
976.83	2582.49
976.99	2582.49
977.15	2592.73
977.31	2504.67
977.47	2631.64
977.64	2588.63
977.80	2574.30
977.96	2590.68
978.12	2486.23
978.29	2584.54
978.45	2576.34
978.61	2406.36
978.77	2521.05
978.93	2504.67
979.10	2578.39
979.26	2523.10
979.42	2574.30
979.58	2527.19
979.74	2500.57
979.91	2535.39
980.07	2492.38
980.23	2584.54
980.39	2457.56
980.55	2523.10
980.71	2467.80
980.88	2410.46
981.04	2572.25
981.20	2521.05
981.36	2465.75
981.52	2496.47
981.68	2482.14
981.85	2459.61
982.01	2414.56
982.17	2506.71
982.33	2478.04
982.49	2480.09
982.65	2361.31
982.82	2389.98
982.98	2488.28
983.14	2457.56
983.30	2426.84
983.46	2588.63
983.62	2480.09
983.79	2396.12
983.95	2404.32
984.11	2396.12
984.27	2406.36
984.43	2420.70
984.59	2439.13
984.75	2437.08
984.91	2365.40
985.08	2396.12
985.24	2400.22
985.40	2418.65
985.56	2457.56
985.72	2428.89
985.88	2432.99
986.04	2351.07
986.20	2369.50
986.37	2387.93
986.53	2342.88
986.69	2428.89
986.85	2314.20
987.01	2375.64
987.17	2385.88
987.33	2340.83
987.49	2355.16
987.65	2349.02
987.82	2363.36
987.98	2326.49
988.14	2285.53
988.30	2355.16
988.46	2338.78
988.62	2301.92
988.78	2338.78
988.94	2359.26
989.10	2275.29
989.26	2312.16
989.42	2353.12
989.59	2346.97
989.75	2291.68
989.91	2340.83
990.07	2244.57
990.23	2336.73
990.39	2265.05
990.55	2371.55
990.71	2234.33
990.87	2236.38
991.03	2365.40
991.19	2291.68
991.35	2271.20
991.51	2215.90
991.67	2277.34
991.83	2263.01
992.00	2320.35
992.16	2248.67
992.32	2332.64
992.48	2322.40
992.64	2203.61
992.80	2310.11
992.96	2201.57
993.12	2314.20
993.28	2299.87
993.44	2238.43
993.60	2258.91
993.76	2242.53
993.92	2246.62
994.08	2244.57
994.24	2263.01
994.40	2215.90
994.56	2234.33
994.72	2236.38
994.88	2222.05
995.04	2281.44
995.20	2205.66
995.36	2185.18
995.52	2232.29
995.68	2160.61
995.84	2162.66
996.00	2236.38
996.16	2265.05
996.32	2211.81
996.48	2191.33
996.64	2183.13
996.80	2156.51
996.96	2230.24
997.12	2146.27
997.28	2136.03
997.44	2166.75
997.60	2101.22
997.76	2203.61
997.92	2074.59
998.08	2160.61
998.24	2123.74
998.40	2232.29
998.56	2103.26
998.72	2127.84
998.88	2152.42
999.04	2121.70
999.20	2166.75
999.36	2119.65
999.52	2127.84
999.68	2052.06
999.84	2095.07
1000.00	2146.27
1000.16	2189.28
1000.32	2062.30
1000.48	2068.45
1000.64	2070.50
1000.80	2144.22
1000.95	2027.49
1001.11	2117.60
1001.27	2095.07
1001.43	2090.98
1001.59	2076.64
1001.75	2041.82
1001.91	2080.74
1002.07	2060.26
1002.23	2127.84
1002.39	2029.54
1002.55	2146.27
1002.71	2050.02
1002.87	2002.91
1003.03	2090.98
1003.19	2062.30
1003.34	2082.78
1003.50	2131.94
1003.66	2113.50
1003.82	2123.74
1003.98	2027.49
1004.14	2064.35
1004.30	2056.16
1004.46	1994.72
1004.62	2033.63
1004.78	1984.48
1004.94	2007.01
1005.09	2002.91
1005.25	1998.82
1005.41	1951.71
1005.57	2023.39
1005.73	2015.20
1005.89	1986.53
1006.05	2041.82
1006.21	1996.77
1006.37	2017.25
1006.52	1972.19
1006.68	1976.29
1006.84	2056.16
1007.00	2029.54
1007.16	2105.31
1007.32	1980.39
1007.48	1968.10
1007.64	2019.30
1007.79	1984.48
1007.95	1992.67
1008.11	1949.67
1008.27	2017.25
1008.43	1925.09
1008.59	1990.63
1008.75	1980.39
1008.91	1970.15
1009.06	1982.43
1009.22	2025.44
1009.38	1984.48
1009.54	1966.05
1009.70	1959.91
1009.86	1869.80
1010.01	1912.80
1010.17	1937.38
1010.33	1980.39
1010.49	1939.43
1010.65	1992.67
1010.81	2000.87
1010.96	1896.42
1011.12	1970.15
1011.28	1902.56
1011.44	1947.62
1011.60	1912.80
1011.76	1910.75
1011.91	1968.10
1012.07	1982.43
1012.23	1923.04
1012.39	1947.62
1012.55	1957.86
1012.71	1857.51
1012.86	1888.23
1013.02	1945.57
1013.18	1937.38
1013.34	1929.19
1013.50	1931.23
1013.65	1927.14
1013.81	1857.51
1013.97	1861.60
1014.13	1904.61
1014.29	1927.14
1014.44	1959.91
1014.60	1867.75
1014.76	1939.43
1014.92	1941.47
1015.07	1929.19
1015.23	1927.14
1015.39	1896.42
1015.55	1896.42
1015.71	1914.85
1015.86	1845.22
1016.02	1861.60
1016.18	1875.94
1016.34	1873.89
1016.49	1880.04
1016.65	1839.08
1016.81	1918.95
1016.97	1828.84
1017.12	1875.94
1017.28	1804.26
1017.44	1853.41
1017.60	1828.84
1017.75	1861.60
1017.91	1902.56
1018.07	1908.71
1018.23	1867.75
1018.38	1855.46
1018.54	1867.75
1018.70	1869.80
1018.86	1857.51
1019.01	1816.55
1019.17	1931.23
1019.33	1900.52
1019.49	1886.18
1019.64	1865.70
1019.80	1884.13
1019.96	1880.04
1020.12	1818.60
1020.27	1828.84
1020.43	1880.04
1020.59	1855.46
1020.74	1851.36
1020.90	1886.18
1021.06	1794.02
1021.22	1851.36
1021.37	1839.08
1021.53	1806.31
1021.69	1859.56
1021.84	1830.88
1022.00	1861.60
1022.16	1779.68
1022.31	1779.68
1022.47	1826.79
1022.63	1791.97
1022.79	1742.82
1022.94	1757.16
1023.10	1875.94
1023.26	1789.92
1023.41	1794.02
1023.57	1820.64
1023.73	1834.98
1023.88	1761.25
1024.04	1851.36
1024.20	1808.36
1024.35	1732.58
1024.51	1763.30
1024.67	1726.44
1024.82	1767.40
1024.98	1720.29
1025.14	1740.77
1025.29	1763.30
1025.45	1845.22
1025.61	1708.01
1025.76	1714.15
1025.92	1767.40
1026.08	1808.36
1026.23	1802.21
1026.39	1808.36
1026.55	1781.73
1026.70	1834.98
1026.86	1722.34
1027.02	1740.77
1027.17	1734.63
1027.33	1779.68
1027.48	1740.77
1027.64	1779.68
1027.80	1691.62
1027.95	1787.88
1028.11	1746.92
1028.27	1751.01
1028.42	1730.53
1028.58	1757.16
1028.73	1753.06
1028.89	1744.87
1029.05	1808.36
1029.20	1736.68
>>>>>End Processed Spectral Data<<<<<
