SpectraSuite Data File
++++++++++++++++++++++++++++++++++++
Date: Tue Jun 13 12:03:49 CEST 2017
User: INFO_000
Dark Spectrum Present: No
Reference Spectrum Present: No
Number of Sampled Component Spectra: 1
Spectrometers: USB4H00879
Integration Time (usec): 30000 (USB4H00879)
Spectra Averaged: 1 (USB4H00879)
Boxcar Smoothing: 0 (USB4H00879)
Correct for Electrical Dark: No (USB4H00879)
Strobe/Lamp Enabled: No (USB4H00879)
Correct for Detector Non-linearity: No (USB4H00879)
Correct for Stray Light: No (USB4H00879)
Number of Pixels in Processed Spectrum: 3648
>>>>>Begin Processed Spectral Data<<<<<
345.13	1288.17
345.34	1288.17
345.56	1288.17
345.78	1347.56
345.99	1388.52
346.21	1466.35
346.42	1511.40
346.64	1544.17
346.86	1515.50
347.07	1513.45
347.29	1570.79
347.50	1464.30
347.72	1538.02
347.94	1521.64
348.15	1499.11
348.37	1515.50
348.59	1546.22
348.80	1558.50
349.02	1613.80
349.23	1636.33
349.45	1558.50
349.67	1675.24
349.88	1572.84
350.10	1675.24
350.31	1683.43
350.53	1599.46
350.75	1656.81
350.96	1558.50
351.18	1621.99
351.39	1654.76
351.61	1517.54
351.82	1626.09
352.04	1597.42
352.26	1669.09
352.47	1679.33
352.69	1683.43
352.90	1595.37
353.12	1572.84
353.34	1558.50
353.55	1734.63
353.77	1654.76
353.98	1640.42
354.20	1626.09
354.41	1722.34
354.63	1611.75
354.85	1746.92
355.06	1615.85
355.28	1609.70
355.49	1562.60
355.71	1669.09
355.92	1658.85
356.14	1667.05
356.35	1613.80
356.57	1628.14
356.79	1701.86
357.00	1601.51
357.22	1697.77
357.43	1626.09
357.65	1708.01
357.86	1671.14
358.08	1585.13
358.29	1671.14
358.51	1705.96
358.72	1654.76
358.94	1675.24
359.16	1640.42
359.37	1726.44
359.59	1640.42
359.80	1703.91
360.02	1710.05
360.23	1693.67
360.45	1759.21
360.66	1660.90
360.88	1654.76
361.09	1705.96
361.31	1771.49
361.52	1683.43
361.74	1701.86
361.95	1687.53
362.17	1681.38
362.38	1818.60
362.60	1693.67
362.81	1658.85
363.03	1798.12
363.24	1787.88
363.46	1703.91
363.67	1761.25
363.89	1736.68
364.10	1759.21
364.32	1646.57
364.53	1757.16
364.75	1650.66
364.96	1777.64
365.18	1765.35
365.39	1767.40
365.61	1609.70
365.82	1746.92
366.04	1712.10
366.25	1669.09
366.47	1675.24
366.68	1787.88
366.90	1708.01
367.11	1742.82
367.33	1796.07
367.54	1853.41
367.76	1791.97
367.97	1755.11
368.19	1710.05
368.40	1742.82
368.62	1761.25
368.83	1732.58
369.05	1822.69
369.26	1771.49
369.48	1828.84
369.69	1798.12
369.91	1746.92
370.12	1781.73
370.33	1837.03
370.55	1701.86
370.76	1773.54
370.98	1789.92
371.19	1787.88
371.41	1681.38
371.62	1853.41
371.84	1736.68
372.05	1796.07
372.27	1783.78
372.48	1851.36
372.69	1816.55
372.91	1816.55
373.12	1857.51
373.34	1773.54
373.55	1892.32
373.77	1882.08
373.98	1875.94
374.20	1880.04
374.41	1841.12
374.62	1894.37
374.84	1791.97
375.05	1812.45
375.27	1871.84
375.48	1847.27
375.70	1894.37
375.91	1880.04
376.12	1900.52
376.34	1830.88
376.55	1892.32
376.77	1902.56
376.98	1845.22
377.19	1812.45
377.41	1918.95
377.62	1886.18
377.84	1875.94
378.05	2000.87
378.27	1939.43
378.48	1875.94
378.69	2041.82
378.91	1945.57
379.12	1900.52
379.34	2011.11
379.55	1976.29
379.76	1970.15
379.98	1959.91
380.19	1902.56
380.41	1964.00
380.62	1886.18
380.83	1890.28
381.05	2039.78
381.26	2013.15
381.47	1961.95
381.69	1929.19
381.90	2052.06
382.12	1941.47
382.33	1937.38
382.54	1966.05
382.76	1941.47
382.97	2056.16
383.19	1992.67
383.40	2007.01
383.61	1968.10
383.83	2045.92
384.04	2093.02
384.25	1959.91
384.47	2043.87
384.68	2058.21
384.89	2009.06
385.11	2093.02
385.32	2025.44
385.54	2076.64
385.75	2105.31
385.96	2019.30
386.18	2082.78
386.39	2088.93
386.60	2058.21
386.82	2125.79
387.03	2088.93
387.24	2117.60
387.46	2068.45
387.67	2097.12
387.88	2172.89
388.10	2172.89
388.31	2207.71
388.52	2176.99
388.74	2234.33
388.95	2142.18
389.16	2195.42
389.38	2183.13
389.59	2228.19
389.80	2277.34
390.02	2191.33
390.23	2263.01
390.44	2160.61
390.66	2174.94
390.87	2291.68
391.08	2256.86
391.30	2338.78
391.51	2303.96
391.72	2271.20
391.94	2322.40
392.15	2263.01
392.36	2258.91
392.58	2291.68
392.79	2291.68
393.00	2306.01
393.22	2459.61
393.43	2316.25
393.64	2447.32
393.85	2387.93
394.07	2340.83
394.28	2318.30
394.49	2422.75
394.71	2385.88
394.92	2455.51
395.13	2295.77
395.35	2252.77
395.56	2387.93
395.77	2334.68
395.98	2414.56
396.20	2389.98
396.41	2392.03
396.62	2543.58
396.84	2500.57
397.05	2480.09
397.26	2623.45
397.47	2570.20
397.69	2435.03
397.90	2537.43
398.11	2428.89
398.32	2521.05
398.54	2543.58
398.75	2486.23
398.96	2531.29
399.18	2523.10
399.39	2519.00
399.60	2564.06
399.81	2562.01
400.03	2621.40
400.24	2709.46
400.45	2555.86
400.66	2600.92
400.88	2709.46
401.09	2682.84
401.30	2680.79
401.51	2711.51
401.73	2654.17
401.94	2695.13
402.15	2715.61
402.36	2678.74
402.58	2703.32
402.79	2705.37
403.00	2734.04
403.21	2729.94
403.43	2772.95
403.64	2906.07
403.85	2752.47
404.06	2879.44
404.27	2693.08
404.49	2805.72
404.70	2725.85
404.91	2875.35
405.12	2889.68
405.34	2863.06
405.55	2848.72
405.76	2777.05
405.97	2873.30
406.19	2918.36
406.40	2840.53
406.61	2873.30
406.82	2891.73
407.03	2934.74
407.25	2842.58
407.46	2981.84
407.67	2916.31
407.88	2955.22
408.09	2826.20
408.31	2889.68
408.52	3006.42
408.73	2990.03
408.94	2953.17
409.15	3000.27
409.37	3037.14
409.58	2979.79
409.79	3028.95
410.00	3041.23
410.21	3020.75
410.43	3076.05
410.64	3043.28
410.85	3157.97
411.06	3090.38
411.27	3000.27
411.48	3153.87
411.70	3137.49
411.91	3131.34
412.12	3141.58
412.33	3065.81
412.54	3129.30
412.76	3223.50
412.97	3143.63
413.18	3104.72
413.39	3207.12
413.60	3262.41
413.81	3198.93
414.03	3225.55
414.24	3276.75
414.45	3241.93
414.66	3209.17
414.87	3190.74
415.08	3231.69
415.30	3272.65
415.51	3297.23
415.72	3317.71
415.93	3366.86
416.14	3319.76
416.35	3342.28
416.56	3346.38
416.78	3381.20
416.99	3311.57
417.20	3360.72
417.41	3309.52
417.62	3438.54
417.83	3424.20
418.04	3383.24
418.26	3416.01
418.47	3434.44
418.68	3493.83
418.89	3551.18
419.10	3504.07
419.31	3520.46
419.52	3698.63
419.73	3542.99
419.95	3555.27
420.16	3532.75
420.37	3481.55
420.58	3567.56
420.79	3407.82
421.00	3555.27
421.21	3616.71
421.42	3510.22
421.63	3635.14
421.85	3637.19
422.06	3821.51
422.27	3682.25
422.48	3794.89
422.69	3575.75
422.90	3735.50
423.11	3739.59
423.32	3678.15
423.53	3977.16
423.75	3860.42
423.96	3882.95
424.17	3889.09
424.38	3981.25
424.59	3829.70
424.80	3895.24
425.01	3921.86
425.22	3811.27
425.43	3901.38
425.64	4147.14
425.85	3952.58
426.06	3960.77
426.28	3995.59
426.49	4007.87
426.70	4093.89
426.91	4036.55
427.12	4097.99
427.33	4186.05
427.54	4153.28
427.75	4173.76
427.96	4220.86
428.17	4210.62
428.38	4261.82
428.59	4243.39
428.80	4167.62
429.01	4245.44
429.23	4208.58
429.44	4390.84
429.65	4345.79
429.86	4419.52
430.07	4282.30
430.28	4317.12
430.49	4337.60
430.70	4487.10
430.91	4435.90
431.12	4489.15
431.33	4505.53
431.54	4444.09
431.75	4571.07
431.96	4503.48
432.17	4497.34
432.38	4501.44
432.59	4636.60
432.80	4609.98
433.01	4700.09
433.22	4695.99
433.43	4693.94
433.64	4689.85
433.85	4661.18
434.06	4763.58
434.27	4745.14
434.49	4788.15
434.70	4820.92
434.91	4710.33
435.12	4855.73
435.33	4962.23
435.54	4847.54
435.75	4810.68
435.96	4878.26
436.17	4810.68
436.38	4982.71
436.59	4954.04
436.80	4935.60
437.01	5246.90
437.22	5035.96
437.43	5009.33
437.64	4831.16
437.85	5072.82
438.06	5009.33
438.27	5076.91
438.48	5058.48
438.69	5144.50
438.90	5156.79
439.11	5023.67
439.32	5048.24
439.53	5093.30
439.74	5216.18
439.95	5238.70
440.16	5443.50
440.37	5205.94
440.57	5138.35
440.78	5330.86
440.99	5339.05
441.20	5398.45
441.41	5351.34
441.62	5306.29
441.83	5056.43
442.04	5476.27
442.25	5445.55
442.46	5416.88
442.67	5533.61
442.88	5722.02
443.09	5375.92
443.30	5439.40
443.51	5642.15
443.72	5683.11
443.93	5502.89
444.14	5810.09
444.35	5529.52
444.56	5609.39
444.77	5797.80
444.98	5636.01
445.19	5695.40
445.40	5754.79
445.61	5783.46
445.81	5873.57
446.02	5652.39
446.23	5795.75
446.44	5588.91
446.65	5789.61
446.86	5756.84
447.07	5869.48
447.28	5978.02
447.49	5984.16
447.70	5834.66
447.91	6035.36
448.12	6053.80
448.33	6109.09
448.54	6014.88
448.74	5887.91
448.95	6094.76
449.16	6059.94
449.37	6219.68
449.58	6043.56
449.79	6277.02
450.00	6102.95
450.21	6252.45
450.42	6303.65
450.63	6266.78
450.84	6154.15
451.05	6387.61
451.25	6379.42
451.46	6393.76
451.67	6422.43
451.88	6373.28
452.09	6492.06
452.30	6326.18
452.51	6340.51
452.72	6530.97
452.93	6829.98
453.13	6533.02
453.34	6498.20
453.55	6649.75
453.76	6633.37
453.97	6791.06
454.18	6619.04
454.39	6633.37
454.60	6688.67
454.81	6657.95
455.01	6893.46
455.22	6643.61
455.43	6819.74
455.64	6948.76
455.85	7110.55
456.06	7104.40
456.27	7071.64
456.48	7020.44
456.68	7049.11
456.89	6944.66
457.10	7016.34
457.31	7376.78
457.52	7167.89
457.73	7174.03
457.94	7317.39
458.14	7337.87
458.35	7577.48
458.56	7483.28
458.77	7151.51
458.98	7577.48
459.19	7407.50
459.39	7561.10
459.60	7526.29
459.81	7530.38
460.02	7706.51
460.23	7626.64
460.44	7972.74
460.65	7802.76
460.85	7802.76
461.06	7847.82
461.27	7647.12
461.48	7899.02
461.69	8050.57
461.89	7966.60
462.10	8050.57
462.31	7880.58
462.52	8161.16
462.73	7976.84
462.94	8329.09
463.14	8308.61
463.35	8157.06
463.56	8531.84
463.77	8269.70
463.98	8339.33
464.18	8204.16
464.39	8511.36
464.60	8703.87
464.81	8632.19
465.02	8703.87
465.23	8699.77
465.43	8601.47
465.64	8806.27
465.85	8871.80
466.06	8879.99
466.27	8955.77
466.47	9088.89
466.68	8902.52
466.89	9043.83
467.10	9287.54
467.30	8953.72
467.51	9154.42
467.72	9279.35
467.93	9125.75
468.14	9297.78
468.34	9455.47
468.55	9443.18
468.76	9467.76
468.97	9256.82
469.17	9506.67
469.38	9426.80
469.59	9965.42
469.80	9568.11
470.01	9547.63
470.21	9734.00
470.42	10008.42
470.63	9998.18
470.84	9838.44
471.04	10225.51
471.25	10088.29
471.46	10063.72
471.67	10325.86
471.87	10278.76
472.08	10291.04
472.29	10461.02
472.50	10176.36
472.70	10422.11
472.91	10350.43
473.12	10807.13
473.33	10622.81
473.53	10995.54
473.74	10735.45
473.95	10925.91
474.16	11007.83
474.36	11104.09
474.57	11198.29
474.78	11405.14
474.99	11116.37
475.19	11106.13
475.40	11650.89
475.61	11620.17
475.81	11730.76
476.02	11939.66
476.23	11568.98
476.44	11927.37
476.64	11937.61
476.85	12048.20
477.06	11902.79
477.27	12484.42
477.47	12250.95
477.68	12310.34
477.89	12474.18
478.09	12412.74
478.30	12744.51
478.51	12455.75
478.71	12709.69
478.92	12865.34
479.13	12744.51
479.34	12980.03
479.54	13016.89
479.75	13012.79
479.96	13010.75
480.16	13055.80
480.37	13193.01
480.58	13322.04
480.78	13557.55
480.99	13569.84
481.20	13672.24
481.41	13807.41
481.61	14077.74
481.82	13944.62
482.03	13807.41
482.23	14016.30
482.44	14151.46
482.65	14354.21
482.85	14346.02
483.06	14341.93
483.27	14501.67
483.47	14389.03
483.68	14309.16
483.89	14495.52
484.09	14690.08
484.30	14788.38
484.51	14821.15
484.71	15009.56
484.92	15062.81
485.13	15128.35
485.33	15175.45
485.54	15263.51
485.75	15507.22
485.95	15349.53
486.16	15560.47
486.37	15626.00
486.57	15603.47
486.78	15605.52
486.98	15732.50
487.19	16160.52
487.40	15765.26
487.60	15910.67
487.81	15937.29
488.02	15918.86
488.22	16236.30
488.43	16219.91
488.64	16451.33
488.84	16713.47
489.05	16719.62
489.25	16398.09
489.46	16736.00
489.67	16776.96
489.87	16731.90
490.08	17022.72
490.29	16944.89
490.49	17553.14
490.70	17307.38
490.90	17436.41
491.11	17272.57
491.32	17755.89
491.52	17491.70
491.73	17508.08
491.94	17542.90
492.14	18032.36
492.35	17753.84
492.55	17843.95
492.76	18011.89
492.97	18046.70
493.17	18024.17
493.38	18138.86
493.58	18435.81
493.79	18407.14
494.00	18269.93
494.20	18550.50
494.41	18556.64
494.61	18728.67
494.82	18673.38
495.02	18646.76
495.23	18802.40
495.44	18908.90
495.64	18857.70
495.85	18806.50
496.05	19250.91
496.26	19289.82
496.47	19338.97
496.67	19003.10
496.88	19386.07
497.08	19554.01
497.29	19678.93
497.49	19531.48
497.70	19830.48
497.91	19801.81
498.11	19668.69
498.32	20025.04
498.52	19914.45
498.73	20309.71
498.93	19881.68
499.14	20051.66
499.34	20162.25
499.55	20262.60
499.76	20248.27
499.96	20461.26
500.17	20338.38
500.37	20571.85
500.58	20735.68
500.78	20502.22
500.99	20696.77
501.19	20907.71
501.40	20649.67
501.60	20795.07
501.81	20895.43
502.02	20690.63
502.22	20721.35
502.43	21032.64
502.63	21264.06
502.84	21200.57
503.04	21157.57
503.25	21491.38
503.45	21565.11
503.66	21771.96
503.86	21647.03
504.07	21427.90
504.27	21450.42
504.48	21792.44
504.68	21675.70
504.89	22042.29
505.09	21751.48
505.30	21937.84
505.50	22032.05
505.71	21892.79
505.91	22173.36
506.12	22423.21
506.32	21880.50
506.53	22306.48
506.73	22345.39
506.94	22486.70
507.14	22343.34
507.35	22537.90
507.55	22562.47
507.76	22748.84
507.96	22384.30
508.17	22376.11
508.37	22554.28
508.58	22599.34
508.78	22695.59
508.99	22595.24
509.19	22781.60
509.40	22894.24
509.60	22505.13
509.81	23008.93
510.01	23015.07
510.22	22808.23
510.42	23109.28
510.63	23256.73
510.83	23183.01
511.04	23195.29
511.24	23377.56
511.44	23469.72
511.65	23211.68
511.85	23262.88
512.06	23451.29
512.26	23336.60
512.47	23484.06
512.67	23627.42
512.88	23422.62
513.08	23228.06
513.29	23815.83
513.49	23856.79
513.69	23809.68
513.90	23744.15
514.10	23721.62
514.31	23918.23
514.51	23873.17
514.72	24090.26
514.92	23879.32
515.13	23942.80
515.33	24092.30
515.53	24258.19
515.74	24252.05
515.94	24557.19
516.15	24172.18
516.35	24454.79
516.56	24374.92
516.76	24661.64
516.96	24616.58
517.17	24549.00
517.37	24569.48
517.58	24419.98
517.78	24444.56
517.99	24788.61
518.19	24780.42
518.39	24938.12
518.60	24940.16
518.80	25046.66
519.01	24848.00
519.21	25136.77
519.41	25142.91
519.62	24938.12
519.82	25353.85
520.03	25261.69
520.23	25386.62
520.43	25237.12
520.64	25183.87
520.84	25529.98
521.05	25620.09
521.25	25646.71
521.45	25618.04
521.66	25640.57
521.86	25861.75
522.07	25661.05
522.27	26076.79
522.47	25712.25
522.68	25771.64
522.88	25570.94
523.08	26035.83
523.29	26136.18
523.49	26041.97
523.70	26101.36
523.90	26418.80
524.10	26371.69
524.31	26652.27
524.51	26134.13
524.71	26447.47
524.92	26764.90
525.12	26639.98
525.33	26814.05
525.53	26965.60
525.73	26906.21
525.94	26701.42
526.14	26570.35
526.34	27035.24
526.55	26895.97
526.75	26820.20
526.95	27448.93
527.16	27100.77
527.36	27401.82
527.56	27367.01
527.77	27604.57
527.97	27385.44
528.17	27735.64
528.38	27522.65
528.58	27815.51
528.78	27993.68
528.99	27481.69
529.19	28124.75
529.39	27881.05
529.60	28026.45
529.80	28028.50
530.00	27958.87
530.21	28358.22
530.41	28333.65
530.61	28524.11
530.82	28268.11
531.02	28327.50
531.22	28823.11
531.43	28655.18
531.63	28716.62
531.83	29120.07
532.04	29136.45
532.24	28868.17
532.44	29279.81
532.64	29357.63
532.85	29328.96
533.05	29269.57
533.25	29509.18
533.46	29212.23
533.66	29429.31
533.86	29384.26
534.07	29693.50
534.27	29394.50
534.47	29783.61
534.67	29799.99
534.88	29877.82
535.08	29797.95
535.28	30062.13
535.49	30232.11
535.69	30283.31
535.89	30281.27
536.09	30053.94
536.30	30578.22
536.50	30371.38
536.70	30711.34
536.91	30465.58
537.11	30430.77
537.31	30764.59
537.51	30799.40
537.72	31254.05
537.92	31102.50
538.12	30963.24
538.32	30934.57
538.53	31358.50
538.73	30922.28
538.93	31215.14
539.13	31159.84
539.34	31149.60
539.54	31368.74
539.74	31471.14
539.94	31219.24
540.15	31471.14
540.35	31499.81
540.55	31688.22
540.75	31905.31
540.96	31893.02
541.16	31778.33
541.36	32011.80
541.56	31981.08
541.77	32278.04
541.97	31829.53
542.17	32052.76
542.37	32200.21
542.58	32202.26
542.78	32198.16
542.98	32450.06
543.18	32187.92
543.38	32919.05
543.59	32544.27
543.79	32192.02
543.99	32433.68
544.19	32779.79
544.40	32339.47
544.60	32656.91
544.80	32728.59
545.00	32824.84
545.20	33244.68
545.41	32996.87
545.61	32919.05
545.81	33164.81
546.01	33056.26
546.21	33152.52
546.42	32804.36
546.62	33383.94
546.82	33072.65
547.02	33457.67
547.22	33297.92
547.43	33306.12
547.63	33418.75
547.83	33428.99
548.03	33097.22
548.23	33867.26
548.44	33754.62
548.64	33590.78
548.84	33859.07
549.04	33615.36
549.24	33701.37
549.45	33768.96
549.65	33578.50
549.85	33437.19
550.05	34186.74
550.25	33705.47
550.45	34213.37
550.66	33721.85
550.86	33906.17
551.06	33893.88
551.26	33867.26
551.46	34385.40
551.66	33990.14
551.87	34143.74
552.07	34448.88
552.27	34305.52
552.47	34239.99
552.67	34637.30
552.87	34264.57
553.07	34557.42
553.28	34326.00
553.48	34897.39
553.68	34584.05
553.88	34510.32
554.08	34592.24
554.28	34700.78
554.48	34270.71
554.69	34596.34
554.89	34526.71
555.09	34809.32
555.29	34745.84
555.49	34944.49
555.69	34860.52
555.89	34850.28
556.10	35018.22
556.30	34760.17
556.50	35145.19
556.70	34614.77
556.90	34913.77
557.10	34829.80
557.30	34698.73
557.50	35034.60
557.70	34567.66
557.91	35059.18
558.11	35300.84
558.31	35292.65
558.51	35020.27
558.71	35071.46
558.91	35196.39
559.11	35020.27
559.31	35362.28
559.51	35087.85
559.72	34895.34
559.92	35577.31
560.12	35249.64
560.32	35442.15
560.52	35231.21
560.72	35417.57
560.92	35620.32
561.12	34944.49
561.32	35354.08
561.52	35393.00
561.72	35618.27
561.93	35431.91
562.13	35403.24
562.33	35276.26
562.53	36005.34
562.73	35317.22
562.93	35149.29
563.13	35579.36
563.33	35411.43
563.53	35618.27
563.73	35347.94
563.93	35769.82
564.13	35890.65
564.33	35829.21
564.53	35524.07
564.74	35913.18
564.94	35700.19
565.14	35935.71
565.34	35489.25
565.54	35818.97
565.74	36312.53
565.94	36193.75
566.14	35872.22
566.34	35659.23
566.54	36412.88
566.74	35722.72
566.94	35962.33
567.14	36443.60
567.34	35804.64
567.54	36015.58
567.74	36122.07
567.94	35962.33
568.14	36179.42
568.34	35999.19
568.54	36302.29
568.74	36062.68
568.94	36115.93
569.14	36558.29
569.34	36404.69
569.54	36439.51
569.75	35956.19
569.95	36136.41
570.15	36750.80
570.35	36443.60
570.55	36279.77
570.75	36619.73
570.95	36494.80
571.15	36548.05
571.35	36742.61
571.55	36537.81
571.75	36578.77
571.95	36478.42
572.15	36218.33
572.35	36574.67
572.55	36806.09
572.75	36343.25
572.95	36615.63
573.15	36720.08
573.35	36738.51
573.55	36046.30
573.75	36328.92
573.95	36599.25
574.15	36609.49
574.35	37047.75
574.55	37017.04
574.75	36769.23
574.95	36894.16
575.15	36980.17
575.34	36769.23
575.54	36967.88
575.74	37242.31
575.94	37074.38
576.14	36914.64
576.34	36896.20
576.54	37569.99
576.74	37057.99
576.94	37072.33
577.14	36947.40
577.34	37344.71
577.54	37082.57
577.74	37205.45
577.94	37588.42
578.14	37434.82
578.34	37586.37
578.54	36761.04
578.74	37420.48
578.94	37684.67
579.14	37537.22
579.34	37393.86
579.54	37465.54
579.74	37709.25
579.94	37510.60
580.13	37645.76
580.33	37461.44
580.53	37828.03
580.73	38014.40
580.93	37549.51
581.13	37780.93
581.33	37660.10
581.53	38090.17
581.73	37889.47
581.93	37797.31
582.13	37694.91
582.33	37909.95
582.53	38143.42
582.73	37924.29
582.92	38000.06
583.12	38106.55
583.32	38139.32
583.52	38020.54
583.72	38462.90
583.92	37979.58
584.12	38135.23
584.32	38655.41
584.52	38698.42
584.72	38350.26
584.92	38340.02
585.11	39132.59
585.31	38362.55
585.51	38716.85
585.71	38315.45
585.91	38524.34
586.11	38362.55
586.31	38553.01
586.51	38358.45
586.71	38325.69
586.91	38690.23
587.10	38743.47
587.30	38880.69
587.50	38827.44
587.70	39015.85
587.90	39093.68
588.10	38733.23
588.30	38647.22
588.50	38747.57
588.69	38641.07
588.89	38913.45
589.09	39325.10
589.29	38966.70
589.49	39239.08
589.69	39054.76
589.89	39333.29
590.08	38809.01
590.28	39372.20
590.48	39056.81
590.68	39050.67
590.88	39108.01
591.08	38667.70
591.28	39011.76
591.47	39462.31
591.67	39425.45
591.87	38884.78
592.07	38985.13
592.27	39466.41
592.47	39402.92
592.67	39277.99
592.86	38985.13
593.06	39017.90
593.26	39550.37
593.46	39165.35
593.66	39277.99
593.86	39538.08
594.05	39026.09
594.25	39310.76
594.45	39292.33
594.65	39542.18
594.85	39009.71
595.05	39105.96
595.24	39593.38
595.44	39560.61
595.64	39437.73
595.84	39507.37
596.04	39198.12
596.23	39579.04
596.43	39771.55
596.63	39673.25
596.83	39380.39
597.03	39835.04
597.22	40142.24
597.42	39726.50
597.62	39978.40
597.82	39837.09
598.02	39849.38
598.21	40054.17
598.41	39644.58
598.61	39869.86
598.81	40050.08
599.01	40115.61
599.20	40146.33
599.40	40201.63
599.60	39886.24
599.80	40252.83
600.00	40351.13
600.19	40207.77
600.39	40103.32
600.59	40189.34
600.79	40404.38
600.98	40267.16
601.18	40213.91
601.38	40164.76
601.58	40428.95
601.78	40093.08
601.97	40426.90
602.17	41004.43
602.37	40492.44
602.57	40488.34
602.76	40777.11
602.96	40281.50
603.16	40828.30
603.36	40869.26
603.55	40732.05
603.75	40799.63
603.95	40701.33
604.15	40824.21
604.34	40945.04
604.54	41321.87
604.74	40506.77
604.94	40850.83
605.13	41098.64
605.33	41143.69
605.53	40838.54
605.73	41375.11
605.92	40930.70
606.12	40660.37
606.32	40994.19
606.52	41213.32
606.71	40850.83
606.91	41270.67
607.11	41192.84
607.30	40977.81
607.50	41026.96
607.70	41203.08
607.90	41088.40
608.09	41309.58
608.29	41561.48
608.49	41108.88
608.68	41360.78
608.88	41354.63
609.08	41272.71
609.28	41248.14
609.47	41471.37
609.67	41620.87
609.87	41119.12
610.06	41387.40
610.26	41117.07
610.46	41497.99
610.66	41319.82
610.85	41416.07
611.05	41108.88
611.25	41285.00
611.44	41209.23
611.64	41543.05
611.84	41373.06
612.03	41262.47
612.23	41332.11
612.43	41506.18
612.62	41270.67
612.82	41891.20
613.02	41264.52
613.21	41194.89
613.41	41121.16
613.61	41397.64
613.80	41221.52
614.00	41051.53
614.20	40869.26
614.39	41461.13
614.59	40768.91
614.79	41254.28
614.98	41250.19
615.18	41364.87
615.38	41299.34
615.57	41272.71
615.77	41391.50
615.97	41336.20
616.16	41258.38
616.36	41059.73
616.56	41137.55
616.75	41069.97
616.95	40932.75
617.15	41184.65
617.34	41248.14
617.54	41190.80
617.74	41336.20
617.93	41321.87
618.13	41065.87
618.32	41008.53
618.52	40942.99
618.72	41029.01
618.91	41463.18
619.11	41035.15
619.31	41174.41
619.50	40746.39
619.70	40914.32
619.90	41264.52
620.09	41067.92
620.29	41067.92
620.48	40983.95
620.68	40979.85
620.88	40570.26
621.07	40873.36
621.27	41504.13
621.46	40899.98
621.66	41053.58
621.86	40873.36
622.05	40527.25
622.25	41166.22
622.44	40496.53
622.64	40600.98
622.84	41086.35
623.03	40891.79
623.23	40842.64
623.42	40768.91
623.62	40492.44
623.82	40848.78
624.01	40535.45
624.21	40875.41
624.40	40527.25
624.60	40850.83
624.80	40218.01
624.99	40531.35
625.19	40412.57
625.38	40580.50
625.58	40920.46
625.77	40584.60
625.97	41002.38
626.17	40467.86
626.36	40517.01
626.56	40703.38
626.75	40029.60
626.95	41029.01
627.14	40398.23
627.34	40689.04
627.54	40320.41
627.73	40723.86
627.93	40351.13
628.12	40543.64
628.32	40377.75
628.51	40426.90
628.71	40379.80
628.90	40379.80
629.10	40441.24
629.30	40363.42
629.49	40619.41
629.69	40318.36
629.88	40418.71
630.08	40875.41
630.27	40730.00
630.47	40363.42
630.66	39962.01
630.86	40570.26
631.05	40052.12
631.25	40574.36
631.44	40246.68
631.64	39970.21
631.84	40572.31
632.03	40553.88
632.23	40379.80
632.42	40535.45
632.62	40078.75
632.81	39980.45
633.01	40625.56
633.20	40168.86
633.40	40289.69
633.59	39998.88
633.79	40172.96
633.98	40168.86
634.18	40443.29
634.37	40035.74
634.57	40103.32
634.76	40549.78
634.96	40031.65
635.15	40394.14
635.35	40543.64
635.54	40281.50
635.74	40396.18
635.93	39876.00
636.13	40480.15
636.32	40080.80
636.52	40068.51
636.71	39914.91
636.91	40426.90
637.10	39912.86
637.30	40017.31
637.49	40025.50
637.69	40002.97
637.88	40396.18
638.08	40080.80
638.27	40416.66
638.46	40150.43
638.66	40306.07
638.85	40183.19
639.05	40330.65
639.24	40269.21
639.44	39916.96
639.63	40068.51
639.83	40138.14
640.02	40031.65
640.22	39794.08
640.41	40557.97
640.61	39925.15
640.80	40222.11
640.99	40031.65
641.19	40564.12
641.38	40254.87
641.58	40041.88
641.77	40037.79
641.97	39771.55
642.16	40230.30
642.36	40265.11
642.55	39935.39
642.74	40033.69
642.94	40005.02
643.13	39810.46
643.33	40164.76
643.52	39919.01
643.72	40027.55
643.91	40418.71
644.10	40248.73
644.30	40306.07
644.49	40213.91
644.69	40195.48
644.88	40373.66
645.08	39503.27
645.27	40121.76
645.46	39554.47
645.66	40168.86
645.85	40093.08
646.05	39947.68
646.24	40299.93
646.43	39921.05
646.63	40207.77
646.82	40308.12
647.02	40125.85
647.21	40072.60
647.40	40105.37
647.60	40093.08
647.79	40105.37
647.99	39812.51
648.18	40154.52
648.37	40232.35
648.57	40539.54
648.76	40254.87
648.96	39560.61
649.15	40017.31
649.34	40179.10
649.54	40191.39
649.73	39818.66
649.92	40013.21
650.12	40009.12
650.31	39925.15
650.51	40031.65
650.70	39937.44
650.89	40332.70
651.09	40160.67
651.28	39978.40
651.47	40009.12
651.67	40076.70
651.86	40453.53
652.06	39638.44
652.25	39820.70
652.44	40142.24
652.64	39921.05
652.83	39728.55
653.02	40027.55
653.22	39810.46
653.41	39974.30
653.60	39237.03
653.80	39503.27
653.99	39882.14
654.18	39865.76
654.38	39837.09
654.57	39925.15
654.76	39509.41
654.96	39579.04
655.15	39898.53
655.34	39611.81
655.54	39579.04
655.73	39544.23
655.92	39832.99
656.12	40058.27
656.31	39886.24
656.50	39732.64
656.70	39939.49
656.89	39394.73
657.08	39488.93
657.28	39794.08
657.47	39749.03
657.66	39499.17
657.86	39654.82
658.05	39726.50
658.24	39550.37
658.43	39755.17
658.63	39445.93
658.82	39458.21
659.01	39984.54
659.21	39865.76
659.40	39724.45
659.59	39269.80
659.79	40056.22
659.98	39706.02
660.17	40072.60
660.36	39527.84
660.56	39636.39
660.75	39511.46
660.94	39480.74
661.14	39779.74
661.33	39570.85
661.52	39400.87
661.71	40052.12
661.91	39357.86
662.10	39632.29
662.29	39736.74
662.49	39519.65
662.68	39282.09
662.87	39325.10
663.06	39105.96
663.26	39429.54
663.45	39497.13
663.64	39275.94
663.83	39450.02
664.03	39695.78
664.22	39224.75
664.41	39462.31
664.60	39216.55
664.80	39214.51
664.99	39140.78
665.18	39269.80
665.37	39239.08
665.57	39400.87
665.76	39071.15
665.95	39230.89
666.14	39271.85
666.34	39349.67
666.53	39364.01
666.72	39353.77
666.91	38872.49
667.11	39095.72
667.30	39116.20
667.49	39101.87
667.68	39032.24
667.87	38653.36
668.07	38929.84
668.26	38532.53
668.45	39267.75
668.64	38782.38
668.84	39384.49
669.03	39165.35
669.22	38888.88
669.41	38516.15
669.60	38978.99
669.80	38991.28
669.99	38991.28
670.18	38888.88
670.37	39376.30
670.57	38997.42
670.76	38806.96
670.95	39120.30
671.14	39101.87
671.33	38497.72
671.53	39267.75
671.72	38467.00
671.91	38913.45
672.10	38702.51
672.29	38698.42
672.48	38933.93
672.68	38956.46
672.87	38491.57
673.06	38383.03
673.25	38370.74
673.44	38579.64
673.64	38663.60
673.83	38227.38
674.02	38282.68
674.21	38032.83
674.40	38860.21
674.59	38555.06
674.79	38467.00
674.98	38430.13
675.17	38665.65
675.36	38348.21
675.55	38852.02
675.74	38358.45
675.94	38464.95
676.13	38397.37
676.32	37981.63
676.51	38809.01
676.70	38677.94
676.89	38520.24
677.08	38546.87
677.28	38092.22
677.47	38161.85
677.66	38602.16
677.85	38067.64
678.04	38485.43
678.23	38292.92
678.42	38342.07
678.62	38215.10
678.81	38151.61
679.00	37678.53
679.19	38337.98
679.38	37813.70
679.57	38256.06
679.76	38182.33
679.96	38387.13
680.15	38034.88
680.34	38018.49
680.53	37858.75
680.72	38059.45
680.91	37688.77
681.10	37682.62
681.29	38272.44
681.48	37912.00
681.68	38106.55
681.87	37975.48
682.06	38018.49
682.25	37510.60
682.44	37574.08
682.63	37608.90
682.82	37352.90
683.01	37492.16
683.20	37465.54
683.39	37520.84
683.59	37567.94
683.78	37078.47
683.97	37307.85
684.16	37164.49
684.35	37057.99
684.54	37094.86
684.73	37322.18
684.92	37352.90
685.11	36996.56
685.30	37082.57
685.49	37553.60
685.69	37656.00
685.88	37334.47
686.07	37158.34
686.26	36888.01
686.45	37227.98
686.64	36904.40
686.83	37080.52
687.02	36961.74
687.21	37086.67
687.40	37117.39
687.59	36836.81
687.78	36822.48
687.97	37424.58
688.16	36959.69
688.35	36865.49
688.54	36695.50
688.74	36795.85
688.93	36828.62
689.12	36806.09
689.31	37096.91
689.50	36722.13
689.69	36457.94
689.88	36210.14
690.07	36804.05
690.26	36527.57
690.45	36939.21
690.64	36535.76
690.83	36328.92
691.02	36287.96
691.21	36535.76
691.40	36447.70
691.59	36236.76
691.78	36357.59
691.97	36699.60
692.16	36308.44
692.35	36232.66
692.54	36595.15
692.73	36158.94
692.92	36591.06
693.11	36130.26
693.30	36054.49
693.49	36040.15
693.68	35876.32
693.87	36206.04
694.06	35978.72
694.25	35976.67
694.44	36044.25
694.63	36191.70
694.82	36189.66
695.01	36525.52
695.20	35771.87
695.39	35440.10
695.58	35919.32
695.77	35583.46
695.96	35280.36
696.15	35460.58
696.34	35653.09
696.53	35642.85
696.72	35792.35
696.91	35417.57
697.10	35464.67
697.29	35515.87
697.48	35321.32
697.67	35407.33
697.86	35302.89
698.05	35442.15
698.24	35565.03
698.43	35050.99
698.62	35474.91
698.81	35116.52
699.00	35442.15
699.19	35089.90
699.38	35335.65
699.57	35247.59
699.76	35440.10
699.95	35282.41
700.14	35044.84
700.32	34958.83
700.51	35239.40
700.70	35411.43
700.89	34582.00
701.08	34844.14
701.27	34872.81
701.46	34840.04
701.65	34426.35
701.84	34952.68
702.03	34782.70
702.22	34686.45
702.41	34952.68
702.60	34723.31
702.79	34774.51
702.98	34412.02
703.17	34514.42
703.35	34911.72
703.54	34385.40
703.73	34954.73
703.92	34655.73
704.11	34346.48
704.30	34698.73
704.49	34270.71
704.68	34315.76
704.87	34295.28
705.06	34078.20
705.25	34110.97
705.43	34301.43
705.62	34530.80
705.81	33914.36
706.00	34205.17
706.19	33576.45
706.38	33531.39
706.57	34174.45
706.76	34100.73
706.95	33859.07
707.14	33613.31
707.32	33644.03
707.51	33754.62
707.70	33844.73
707.89	33885.69
708.08	33584.64
708.27	33457.67
708.46	33908.22
708.65	33525.25
708.84	33852.92
709.02	33594.88
709.21	33623.55
709.40	33754.62
709.59	33707.52
709.78	33332.74
709.97	33740.29
710.16	33435.14
710.34	33324.55
710.53	33535.49
710.72	33166.85
710.91	33203.72
711.10	33709.57
711.29	33494.53
711.48	33187.33
711.66	33353.22
711.85	33078.79
712.04	33259.01
712.23	33070.60
712.42	32761.36
712.61	32847.37
712.80	33281.54
712.98	32841.23
713.17	32667.15
713.36	32712.20
713.55	32972.30
713.74	32644.62
713.93	32699.92
714.11	32738.83
714.30	32529.94
714.49	32618.00
714.68	32597.52
714.87	32417.30
715.06	32900.62
715.24	32259.60
715.43	32704.01
715.62	32507.41
715.81	32433.68
716.00	32388.63
716.18	32185.88
716.37	32151.06
716.56	32224.79
716.75	32179.73
716.94	31917.59
717.12	31737.37
717.31	31708.70
717.50	31864.35
717.69	32251.41
717.88	31723.04
718.06	32056.85
718.25	32052.76
718.44	31383.07
718.63	31759.90
718.82	31753.76
719.00	31505.95
719.19	31553.05
719.38	31540.77
719.57	31149.60
719.76	31747.61
719.94	31374.88
720.13	31065.64
720.32	31473.18
720.51	31331.87
720.69	31424.03
720.88	31114.79
721.07	31057.45
721.26	31098.41
721.44	30858.79
721.63	30993.96
721.82	30830.12
722.01	30901.80
722.20	31079.97
722.38	30735.92
722.57	30670.38
722.76	30484.01
722.95	30694.96
723.13	30490.16
723.32	30414.38
723.51	30359.09
723.70	30471.73
723.88	30633.52
724.07	30395.95
724.26	30520.88
724.44	30004.79
724.63	30494.25
724.82	30584.37
725.01	30434.86
725.19	29892.15
725.38	29963.83
725.57	30193.20
725.76	30320.18
725.94	30139.96
726.13	30103.09
726.32	29814.33
726.51	30068.28
726.69	30107.19
726.88	30017.08
727.07	30092.85
727.25	30029.37
727.44	29720.12
727.63	29728.31
727.82	29969.97
728.00	29601.34
728.19	29759.03
728.38	29781.56
728.56	29591.10
728.75	29580.86
728.94	29455.93
729.12	29691.45
729.31	29857.34
729.50	29673.02
729.69	29648.44
729.87	29640.25
730.06	29351.49
730.25	29597.24
730.43	29775.42
730.62	29441.60
730.81	29417.02
730.99	29769.27
731.18	29636.16
731.37	29683.26
731.55	29435.45
731.74	29982.26
731.93	29335.10
732.11	29396.54
732.30	29638.20
732.49	29087.30
732.67	29242.95
732.86	29040.20
733.05	29154.88
733.23	28804.68
733.42	29040.20
733.61	29103.68
733.79	28898.89
733.98	29077.06
734.17	29175.36
734.35	28827.21
734.54	28911.17
734.73	28892.74
734.91	29058.63
735.10	28802.63
735.29	29101.64
735.47	28800.58
735.66	28972.61
735.84	28712.52
736.03	28694.09
736.22	29197.89
736.40	28808.78
736.59	29050.44
736.78	28802.63
736.96	28556.88
737.15	28679.75
737.33	28681.80
737.52	28655.18
737.71	28415.57
737.89	28679.75
738.08	28483.15
738.27	28581.45
738.45	28460.62
738.64	28669.51
738.82	28567.12
739.01	28444.24
739.20	28253.78
739.38	28411.47
739.57	28728.91
739.75	28300.88
739.94	28153.43
740.13	28266.06
740.31	28096.08
740.50	28249.68
740.68	28343.89
740.87	28241.49
741.06	28229.20
741.24	28018.26
741.43	27876.95
741.61	28085.84
741.80	27932.25
741.99	27885.14
742.17	27835.99
742.36	27833.94
742.54	27700.83
742.73	27739.74
742.91	27811.42
743.10	27692.63
743.29	27817.56
743.47	28055.12
743.66	27489.88
743.84	27799.13
744.03	27936.34
744.21	27350.62
744.40	27614.81
744.59	27719.26
744.77	27475.55
744.96	27612.76
745.14	27342.43
745.33	27596.38
745.51	27391.58
745.70	27489.88
745.88	27225.70
746.07	27598.43
746.26	27084.39
746.44	27264.61
746.63	27205.22
746.81	27121.25
747.00	26945.12
747.18	27293.28
747.37	27119.20
747.55	26826.34
747.74	27219.55
747.92	27047.52
748.11	27020.90
748.29	26865.25
748.48	27008.61
748.66	26760.81
748.85	26943.08
749.03	26949.22
749.22	27280.99
749.41	26875.49
749.59	26947.17
749.78	26623.59
749.96	26211.95
750.15	26857.06
750.33	26687.08
750.52	26541.68
750.70	27168.35
750.89	26426.99
751.07	26762.86
751.26	26576.49
751.44	26437.23
751.63	26429.04
751.81	26668.65
752.00	26601.07
752.18	26766.95
752.37	26558.06
752.55	26287.73
752.74	26447.47
752.92	26240.62
753.10	26091.12
753.29	26289.77
753.47	26185.33
753.66	26062.45
753.84	26107.51
754.03	25988.72
754.21	26134.13
754.40	26060.40
754.58	26080.88
754.77	26052.21
754.95	25810.55
755.14	25896.56
755.32	25882.23
755.51	26089.07
755.69	26236.53
755.88	25931.38
756.06	25820.79
756.24	25708.15
756.43	25683.58
756.61	25847.41
756.80	25570.94
756.98	25509.50
757.17	25691.77
757.35	25882.23
757.54	25415.29
757.72	25689.72
757.90	25476.73
758.09	25517.69
758.27	25546.36
758.46	25345.66
758.64	25478.78
758.83	25415.29
759.01	25632.38
759.19	25472.64
759.38	25644.66
759.56	25552.51
759.75	25710.20
759.93	25300.61
760.12	25173.63
760.30	25233.02
760.48	25267.84
760.67	25237.12
760.85	25349.76
761.04	25290.37
761.22	25294.46
761.40	25063.04
761.59	24880.77
761.77	24884.87
761.96	25149.06
762.14	25093.76
762.32	24673.93
762.51	24727.17
762.69	24739.46
762.88	24874.63
763.06	24710.79
763.24	24805.00
763.43	24936.07
763.61	24862.34
763.80	24831.62
763.98	24632.97
764.16	24917.64
764.35	24563.34
764.53	24274.57
764.72	24532.62
764.90	24882.82
765.08	24354.44
765.27	24934.02
765.45	24528.52
765.63	24268.43
765.82	24761.99
766.00	24331.92
766.18	24268.43
766.37	24376.97
766.55	24266.38
766.74	24284.81
766.92	24430.22
767.10	24309.39
767.29	24108.69
767.47	24204.94
767.65	24270.48
767.84	24182.42
768.02	24336.01
768.20	23922.32
768.39	23981.71
768.57	24032.91
768.75	24039.06
768.94	24006.29
769.12	24075.92
769.30	23895.70
769.49	23981.71
769.67	23535.26
769.85	23645.85
770.04	23850.64
770.22	23459.48
770.40	23346.84
770.59	23666.33
770.77	23574.17
770.95	23592.60
771.14	23338.65
771.32	23477.91
771.50	23656.09
771.69	23412.38
771.87	23596.70
772.05	23416.47
772.24	23459.48
772.42	23514.78
772.60	23463.58
772.78	23578.26
772.97	23127.71
773.15	23774.87
773.33	23109.28
773.52	23207.58
773.70	23246.49
773.88	23008.93
774.07	23264.92
774.25	23158.43
774.43	23170.72
774.61	23477.91
774.80	23522.97
774.98	23334.56
775.16	23033.50
775.34	23084.70
775.53	23035.55
775.71	23223.97
775.89	23234.21
776.08	23137.95
776.26	23277.21
776.44	22933.15
776.62	22894.24
776.81	22802.08
776.99	23381.66
777.17	23305.88
777.35	23570.07
777.54	23017.12
777.72	23146.14
777.90	23105.18
778.08	23332.51
778.27	22931.11
778.45	23406.23
778.63	23146.14
778.81	22836.90
779.00	23340.70
779.18	23084.70
779.36	23346.84
779.54	22908.58
779.73	23215.77
779.91	23019.17
780.09	23408.28
780.27	23326.36
780.46	23279.26
780.64	23383.71
780.82	23244.45
781.00	23166.62
781.19	23131.81
781.37	23301.79
781.55	23160.48
781.73	23707.29
781.91	23060.13
782.10	23287.45
782.28	23160.48
782.46	23535.26
782.64	23482.01
782.82	23113.38
783.01	23019.17
783.19	23467.67
783.37	23191.20
783.55	23473.82
783.74	23256.73
783.92	22894.24
784.10	23332.51
784.28	23244.45
784.46	23115.42
784.64	22900.39
784.83	23133.86
785.01	23322.27
785.19	23066.27
785.37	23473.82
785.55	22988.45
785.74	22855.33
785.92	22863.52
786.10	23281.31
786.28	23010.98
786.46	22972.07
786.64	22830.76
786.83	23010.98
787.01	23189.15
787.19	23246.49
787.37	22771.36
787.55	22970.02
787.74	22965.92
787.92	22900.39
788.10	22587.05
788.28	22550.18
788.46	22812.32
788.64	22570.66
788.82	22953.63
789.01	22875.81
789.19	22834.85
789.37	22806.18
789.55	22707.88
789.73	22748.84
789.91	22568.62
790.09	22423.21
790.28	22263.47
790.46	22163.12
790.64	22419.11
790.82	22521.51
791.00	22376.11
791.18	22085.30
791.36	22498.98
791.55	22507.18
791.73	22298.28
791.91	22017.71
792.09	22050.48
792.27	22154.93
792.45	22136.49
792.63	21972.66
792.81	21993.14
793.00	21952.18
793.18	21642.93
793.36	22005.42
793.54	21649.08
793.72	21520.06
793.90	21739.19
794.08	21597.88
794.26	21640.89
794.44	21350.07
794.62	21280.44
794.81	21436.09
794.99	21309.11
795.17	21661.37
795.35	21354.17
795.53	21597.88
795.71	21565.11
795.89	21182.14
796.07	21069.50
796.25	21118.65
796.43	21167.80
796.61	21196.48
796.80	20897.47
796.98	21135.04
797.16	20883.14
797.34	20981.44
797.52	21055.17
797.70	20795.07
797.88	20709.06
798.06	20844.23
798.24	20621.00
798.42	20594.37
798.60	20424.39
798.78	20489.93
798.96	20623.05
799.14	20272.84
799.32	20309.71
799.51	20324.04
799.69	20504.26
799.87	20299.47
800.05	20147.92
800.23	20197.07
800.41	20025.04
800.59	20004.56
800.77	20004.56
800.95	19879.63
801.13	19918.54
801.31	19873.49
801.49	19951.31
801.67	19650.26
801.85	19801.81
802.03	19824.34
802.21	19707.60
802.39	19644.12
802.57	19695.32
802.75	19592.92
802.93	19328.73
803.11	19343.06
803.29	19513.05
803.47	19336.92
803.65	19373.78
803.83	19435.22
804.01	19011.29
804.19	19013.34
804.37	19183.32
804.55	19162.84
804.73	19123.93
804.91	19064.54
805.09	18939.62
805.27	19048.16
805.45	19068.64
805.63	19031.77
805.81	19017.44
805.99	18736.87
806.17	18929.38
806.35	18956.00
806.53	18790.11
806.71	18743.01
806.89	18700.00
807.07	18294.50
807.25	18714.34
807.43	18444.01
807.61	18386.66
807.79	18417.38
807.97	18401.00
808.15	18171.63
808.33	18386.66
808.51	18157.29
808.69	18233.07
808.87	18263.79
809.05	17952.49
809.23	18142.96
809.41	17837.81
809.59	18011.89
809.77	18120.43
809.95	17721.07
810.13	17882.86
810.31	17766.13
810.49	17805.04
810.67	17800.94
810.84	17886.96
811.02	17776.37
811.20	17669.87
811.38	17313.53
811.56	17413.88
811.74	17757.94
811.92	17438.45
812.10	17577.72
812.28	17428.21
812.46	17266.42
812.64	17395.45
812.82	17256.18
813.00	17399.54
813.18	17403.64
813.36	17110.78
813.53	17143.55
813.71	17059.58
813.89	17094.40
814.07	17121.02
814.25	17282.81
814.43	16815.87
814.61	16926.46
814.79	17047.29
814.97	16807.68
815.15	16891.65
815.33	16455.43
815.50	16430.85
815.68	16758.53
815.86	16830.21
816.04	16721.66
816.22	16467.72
816.40	16635.65
816.58	16594.69
816.76	16455.43
816.94	16373.51
817.11	16439.05
817.29	16428.81
817.47	16248.58
817.65	16181.00
817.83	16549.64
818.01	16062.22
818.19	16260.87
818.37	16240.39
818.54	15970.06
818.72	16025.36
818.90	16246.54
819.08	16162.57
819.26	16187.14
819.44	15984.40
819.62	16291.59
819.80	15978.25
819.97	16099.08
820.15	15781.65
820.33	15822.61
820.51	15931.15
820.69	15537.94
820.87	15664.91
821.05	15830.80
821.22	15748.88
821.40	15777.55
821.58	15603.47
821.76	15472.40
821.94	15773.46
822.12	15648.53
822.29	15879.95
822.47	15333.14
822.65	15519.51
822.83	15490.84
823.01	15683.34
823.19	15410.96
823.36	15609.62
823.54	15335.19
823.72	15222.55
823.90	15327.00
824.08	15193.88
824.25	15398.68
824.43	15220.50
824.61	15146.78
824.79	15054.62
824.97	15216.41
825.15	15490.84
825.32	14995.23
825.50	15060.76
825.68	14888.73
825.86	15148.82
826.04	15007.52
826.21	14991.13
826.39	14937.88
826.57	14853.92
826.75	15255.32
826.93	15005.47
827.10	14868.25
827.28	14645.02
827.46	14966.56
827.64	14796.57
827.81	14685.98
827.99	14810.91
828.17	14812.96
828.35	14608.16
828.53	14917.40
828.70	14833.44
828.88	14528.29
829.06	14583.59
829.24	14728.99
829.41	14405.41
829.59	14827.29
829.77	14290.73
829.95	14534.43
830.12	14401.32
830.30	14511.91
830.48	14599.97
830.66	14487.33
830.84	14473.00
831.01	14274.34
831.19	14325.54
831.37	14341.93
831.55	14300.97
831.72	14276.39
831.90	14292.77
832.08	14288.68
832.25	14290.73
832.43	14266.15
832.61	14192.42
832.79	14038.83
832.96	14206.76
833.14	14241.57
833.32	14235.43
833.50	14268.20
833.67	14047.02
833.85	14049.07
834.03	14065.45
834.20	13885.23
834.38	13950.76
834.56	14079.79
834.74	13913.90
834.91	13780.78
835.09	13987.63
835.27	13807.41
835.44	13727.53
835.62	13803.31
835.80	13774.64
835.98	13829.93
836.15	13561.65
836.33	13451.06
836.51	14024.49
836.68	13733.68
836.86	13569.84
837.04	13623.09
837.21	13668.14
837.39	13430.58
837.57	13719.34
837.75	13469.49
837.92	13592.37
838.10	13547.31
838.28	13426.48
838.45	13401.91
838.63	13504.31
838.81	13449.01
838.98	13256.50
839.16	13360.95
839.34	13545.27
839.51	13274.93
839.69	13397.81
839.87	13258.55
840.04	13283.13
840.22	13238.07
840.40	13109.05
840.57	13170.49
840.75	13055.80
840.93	13291.32
841.10	13113.14
841.28	13123.38
841.46	13139.77
841.63	13252.41
841.81	13223.73
841.98	13244.21
842.16	13147.96
842.34	12896.06
842.51	12969.79
842.69	13168.44
842.87	12875.58
843.04	12969.79
843.22	12881.72
843.40	12740.41
843.57	12678.97
843.75	13076.28
843.92	13002.55
844.10	12918.59
844.28	12791.61
844.45	12848.96
844.63	12844.86
844.81	12486.47
844.98	12777.28
845.16	12607.30
845.33	12773.18
845.51	12463.94
845.69	12525.38
845.86	12664.64
846.04	12308.29
846.21	12443.46
846.39	12572.48
846.57	12353.35
846.74	12355.40
846.92	12566.34
847.09	12494.66
847.27	12425.03
847.45	12406.59
847.62	12371.78
847.80	12320.58
847.97	12363.59
848.15	12195.65
848.32	12273.48
848.50	12302.15
848.68	12228.42
848.85	12414.79
849.03	12310.34
849.20	12332.87
849.38	12207.94
849.56	12302.15
849.73	12328.77
849.91	12060.49
850.08	12242.76
850.26	12121.93
850.43	12246.85
850.61	12263.24
850.78	12064.58
850.96	12060.49
851.14	12033.86
851.31	12277.57
851.49	11927.37
851.66	12150.60
851.84	11919.18
852.01	12040.01
852.19	12050.25
852.36	11900.75
852.54	12015.43
852.71	12050.25
852.89	11824.97
853.07	11700.05
853.24	11908.94
853.42	11902.79
853.59	11867.98
853.77	11677.52
853.94	11931.47
854.12	11738.96
854.29	11550.54
854.47	11743.05
854.64	11626.32
854.82	11892.55
854.99	11741.00
855.17	11523.92
855.34	11638.61
855.52	11521.87
855.69	11657.04
855.87	11407.19
856.04	11343.70
856.22	11663.18
856.39	11472.72
856.57	11411.28
856.74	11523.92
856.92	11423.57
857.09	11458.39
857.27	11321.17
857.44	11337.56
857.62	11401.04
857.79	11470.67
857.97	11370.32
858.14	11265.88
858.32	11378.51
858.49	11179.86
858.67	11317.08
858.84	11249.49
859.02	11097.94
859.19	11124.57
859.37	11302.74
859.54	11130.71
859.72	11212.63
859.89	11247.44
860.06	11253.59
860.24	11149.14
860.41	11165.53
860.59	10907.48
860.76	10960.73
860.94	10825.56
861.11	10919.77
861.29	10854.23
861.46	10768.22
861.64	10893.15
861.81	10956.63
861.98	11007.83
862.16	10776.41
862.33	10684.25
862.51	10567.52
862.68	10757.98
862.86	10631.01
863.03	10837.85
863.21	10729.31
863.38	10739.55
863.55	10743.64
863.73	10774.36
863.90	10823.51
864.08	10663.77
864.25	10551.14
864.43	10753.88
864.60	10497.89
864.77	10415.97
864.95	10530.66
865.12	10336.10
865.30	10504.03
865.47	10452.83
865.64	10452.83
865.82	10356.58
865.99	10446.69
866.17	10313.57
866.34	10389.35
866.51	10342.24
866.69	10493.79
866.86	10375.01
867.04	10350.43
867.21	10364.77
867.38	10348.39
867.56	10491.74
867.73	10389.35
867.91	10127.21
868.08	10268.52
868.25	10202.98
868.43	10274.66
868.60	10235.75
868.78	10067.81
868.95	10141.54
869.12	10266.47
869.30	10041.19
869.47	10112.87
869.64	9996.14
869.82	9977.70
869.99	9908.07
870.16	10071.91
870.34	10020.71
870.51	9963.37
870.69	9932.65
870.86	9846.63
871.03	10043.24
871.21	9985.90
871.38	9889.64
871.55	9817.96
871.73	9934.70
871.90	9725.80
872.07	9545.58
872.25	9633.64
872.42	9748.33
872.59	9842.54
872.77	9650.03
872.94	9711.47
873.11	9600.88
873.29	9660.27
873.46	9557.87
873.63	9488.24
873.81	9576.30
873.98	9615.21
874.15	9357.17
874.33	9486.19
874.50	9445.23
874.67	9439.09
874.85	9465.71
875.02	9465.71
875.19	9281.39
875.37	9404.27
875.54	9230.20
875.71	9389.94
875.88	9146.23
876.06	9391.98
876.23	9271.15
876.40	9310.07
876.58	9179.00
876.75	9226.10
876.92	9209.72
877.10	9330.55
877.27	9211.76
877.44	9092.98
877.61	8990.58
877.79	9021.30
877.96	9160.56
878.13	9072.50
878.31	8968.06
878.48	8896.38
878.65	9058.17
878.82	9041.78
879.00	8900.47
879.17	8818.55
879.34	8994.68
879.51	8855.42
879.69	8937.34
879.86	8832.89
880.03	8804.22
880.21	8953.72
880.38	8775.55
880.55	8941.43
880.72	8679.29
880.90	8824.70
881.07	8898.42
881.24	8624.00
881.41	8988.53
881.59	8789.88
881.76	8738.68
881.93	8787.83
882.10	8619.90
882.28	8572.80
882.45	8669.05
882.62	8656.76
882.79	8738.68
882.96	8419.20
883.14	8617.85
883.31	8566.65
883.48	8648.57
883.65	8585.08
883.83	8636.28
884.00	8509.31
884.17	8568.70
884.34	8564.61
884.51	8601.47
884.69	8601.47
884.86	8527.74
885.03	8503.17
885.20	8365.95
885.38	8542.08
885.55	8540.03
885.72	8380.29
885.89	8482.69
886.06	8527.74
886.24	8169.35
886.41	8400.77
886.58	8546.17
886.75	8316.80
886.92	8533.89
887.10	8398.72
887.27	8351.62
887.44	8429.44
887.61	8468.35
887.78	8314.75
887.95	8284.03
888.13	8296.32
888.30	8273.79
888.47	8292.23
888.64	8351.62
888.81	8429.44
888.99	8267.65
889.16	8177.54
889.33	8298.37
889.50	8298.37
889.67	8040.33
889.84	8032.13
890.01	8175.49
890.19	8171.40
890.36	8126.34
890.53	8275.84
890.70	8148.87
890.87	8048.52
891.04	8050.57
891.22	8134.53
891.39	8132.48
891.56	7759.75
891.73	7913.35
891.90	7995.27
892.07	7874.44
892.24	7884.68
892.42	7962.50
892.59	7970.69
892.76	8050.57
892.93	7833.48
893.10	7845.77
893.27	7903.11
893.44	7794.57
893.61	7829.38
893.79	7915.40
893.96	7915.40
894.13	7985.03
894.30	8023.94
894.47	7745.42
894.64	7884.68
894.81	7989.13
894.98	7710.60
895.15	7786.38
895.33	7544.72
895.50	7776.14
895.67	7782.28
895.84	7565.20
896.01	7737.23
896.18	7772.04
896.35	7565.20
896.52	7782.28
896.69	7575.44
896.86	7769.99
897.04	7546.76
897.21	7567.24
897.38	7569.29
897.55	7741.32
897.72	7606.16
897.89	7552.91
898.06	7649.16
898.23	7608.20
898.40	7915.40
898.57	7587.72
898.74	7634.83
898.91	7681.93
899.08	7718.79
899.26	7552.91
899.43	7632.78
899.60	7571.34
899.77	7694.22
899.94	7577.48
900.11	7434.13
900.28	7509.90
900.45	7518.09
900.62	7333.78
900.79	7530.38
900.96	7589.77
901.13	7514.00
901.30	7468.94
901.47	7554.96
901.64	7493.52
901.81	7466.89
901.98	7514.00
902.15	7466.89
902.32	7450.51
902.49	7538.57
902.66	7376.78
902.83	7528.33
903.01	7294.86
903.18	7503.76
903.35	7497.61
903.52	7350.16
903.69	7444.37
903.86	7432.08
904.03	7352.21
904.20	7538.57
904.37	7528.33
904.54	7368.59
904.71	7348.11
904.88	7507.85
905.05	7421.84
905.22	7430.03
905.39	7389.07
905.56	7249.81
905.73	7311.25
905.90	7362.45
906.07	7339.92
906.24	7458.70
906.41	7237.52
906.58	7589.77
906.75	7509.90
906.92	7391.12
907.09	7370.64
907.26	7243.67
907.43	7399.31
907.60	7436.17
907.77	7296.91
907.93	7255.95
908.10	7307.15
908.27	7276.43
908.44	7223.19
908.61	7051.16
908.78	7272.34
908.95	7249.81
909.12	7069.59
909.29	7171.99
909.46	7284.62
909.63	7262.10
909.80	7282.58
909.97	7096.21
910.14	7192.47
910.31	7163.79
910.48	7243.67
910.65	7151.51
910.82	7206.80
910.99	7022.48
911.16	7141.27
911.33	7008.15
911.50	7120.79
911.66	7106.45
911.83	7233.43
912.00	6967.19
912.17	7008.15
912.34	7210.90
912.51	7012.24
912.68	7190.42
912.85	7094.16
913.02	7090.07
913.19	7051.16
913.36	6940.57
913.53	6934.42
913.70	6942.61
913.86	7126.93
914.03	6885.27
914.20	7042.96
914.37	7143.32
914.54	6959.00
914.71	6928.28
914.88	6934.42
915.05	6862.74
915.22	6801.30
915.39	6969.24
915.55	6784.92
915.72	6913.94
915.89	6737.82
916.06	6922.13
916.23	6700.95
916.40	6832.02
916.57	6715.29
916.74	6713.24
916.91	6592.41
917.07	6737.82
917.24	6504.35
917.41	6612.89
917.58	6703.00
917.75	6502.30
917.92	6619.04
918.09	6621.08
918.26	6479.77
918.42	6502.30
918.59	6549.40
918.76	6487.96
918.93	6434.72
919.10	6479.77
919.27	6377.37
919.44	6477.73
919.60	6518.68
919.77	6375.33
919.94	6459.29
920.11	6281.12
920.28	6381.47
920.45	6379.42
920.61	6404.00
920.78	6274.98
920.95	6305.70
921.12	6262.69
921.29	6164.39
921.46	6127.52
921.62	6172.58
921.79	6049.70
921.96	6090.66
922.13	6133.67
922.30	6076.32
922.47	6092.71
922.63	6121.38
922.80	6006.69
922.97	5930.92
923.14	5965.73
923.31	6037.41
923.47	5994.40
923.64	6021.03
923.81	5947.30
923.98	6043.56
924.15	5945.25
924.32	5988.26
924.48	5853.09
924.65	5926.82
924.82	5871.53
924.99	5799.85
925.15	5826.47
925.32	5849.00
925.49	5670.83
925.66	5808.04
925.83	5652.39
925.99	5681.07
926.16	5748.65
926.33	5498.80
926.50	5523.37
926.67	5588.91
926.83	5527.47
927.00	5470.12
927.17	5468.08
927.34	5384.11
927.50	5418.93
927.67	5625.77
927.84	5459.88
928.01	5316.53
928.17	5410.73
928.34	5300.14
928.51	5341.10
928.68	5318.57
928.84	5386.16
929.01	5404.59
929.18	5189.55
929.35	5164.98
929.51	5326.77
929.68	5273.52
929.85	5240.75
930.02	5205.94
930.18	5201.84
930.35	5058.48
930.52	5169.07
930.69	5138.35
930.85	5009.33
931.02	4990.90
931.19	4931.51
931.36	5038.00
931.52	5042.10
931.69	5058.48
931.86	4947.89
932.02	4894.65
932.19	4974.52
932.36	4927.41
932.53	4825.01
932.69	4884.41
932.86	4884.41
933.03	4825.01
933.19	4739.00
933.36	4704.18
933.53	4665.27
933.70	4765.62
933.86	4853.69
934.03	4753.34
934.20	4640.70
934.36	4730.81
934.53	4468.67
934.70	4609.98
934.86	4480.96
935.03	4444.09
935.20	4474.81
935.36	4376.51
935.53	4421.56
935.70	4431.80
935.86	4351.93
936.03	4276.16
936.20	4245.44
936.36	4345.79
936.53	4267.97
936.70	4296.64
936.86	4214.72
937.03	4134.85
937.20	4186.05
937.36	4212.67
937.53	4050.88
937.70	3962.82
937.86	4077.51
938.03	3952.58
938.20	3999.68
938.36	3903.43
938.53	3844.04
938.70	3805.13
938.86	3860.42
939.03	3766.21
939.20	3698.63
939.36	3680.20
939.53	3665.86
939.70	3794.89
939.86	3520.46
940.03	3549.13
940.19	3577.80
940.36	3561.42
940.53	3469.26
940.69	3465.16
940.86	3493.83
941.03	3409.87
941.19	3340.24
941.36	3350.48
941.52	3334.09
941.69	3260.37
941.86	3280.85
942.02	3276.75
942.19	3385.29
942.35	3225.55
942.52	3223.50
942.69	3170.26
942.85	3133.39
943.02	3121.10
943.18	3055.57
943.35	3151.82
943.52	3108.82
943.68	3143.63
943.85	3252.17
944.01	2967.51
944.18	3024.85
944.35	3127.25
944.51	2944.98
944.68	2930.64
944.84	2959.31
945.01	2869.20
945.17	2947.03
945.34	2942.93
945.51	2852.82
945.67	2885.59
945.84	2795.48
946.00	2873.30
946.17	2908.12
946.33	2901.97
946.50	2932.69
946.67	2826.20
946.83	2766.81
947.00	2783.19
947.16	2799.57
947.33	2832.34
947.49	2807.77
947.66	2738.13
947.82	2803.67
947.99	2748.37
948.16	2836.44
948.32	2686.94
948.49	2891.73
948.65	2770.90
948.82	2783.19
948.98	2891.73
949.15	2758.61
949.31	2772.95
949.48	2838.48
949.64	2775.00
949.81	2768.85
949.97	2809.81
950.14	2836.44
950.30	2809.81
950.47	2662.36
950.63	2789.33
950.80	2752.47
950.96	2758.61
951.13	2674.65
951.30	2721.75
951.46	2688.98
951.63	2822.10
951.79	2748.37
951.96	2783.19
952.12	2719.70
952.29	2740.18
952.45	2703.32
952.62	2772.95
952.78	2770.90
952.94	2715.61
953.11	2598.87
953.27	2736.09
953.44	2742.23
953.60	2820.05
953.77	2795.48
953.93	2766.81
954.10	2750.42
954.26	2779.09
954.43	2648.02
954.59	2695.13
954.76	2721.75
954.92	2725.85
955.09	2748.37
955.25	2641.88
955.42	2781.14
955.58	2676.70
955.75	2719.70
955.91	2742.23
956.07	2674.65
956.24	2666.46
956.40	2693.08
956.57	2691.03
956.73	2727.89
956.90	2623.45
957.06	2680.79
957.23	2633.69
957.39	2674.65
957.56	2598.87
957.72	2645.98
957.88	2680.79
958.05	2598.87
958.21	2785.24
958.38	2674.65
958.54	2680.79
958.71	2760.66
958.87	2754.52
959.03	2574.30
959.20	2559.96
959.36	2578.39
959.53	2592.73
959.69	2648.02
959.85	2613.21
960.02	2529.24
960.18	2664.41
960.35	2635.74
960.51	2676.70
960.68	2564.06
960.84	2668.50
961.00	2588.63
961.17	2541.53
961.33	2549.72
961.50	2582.49
961.66	2639.83
961.82	2529.24
961.99	2596.82
962.15	2594.78
962.31	2486.23
962.48	2572.25
962.64	2676.70
962.81	2572.25
962.97	2588.63
963.13	2578.39
963.30	2656.22
963.46	2625.50
963.62	2549.72
963.79	2535.39
963.95	2475.99
964.12	2621.40
964.28	2514.91
964.44	2521.05
964.61	2574.30
964.77	2578.39
964.93	2508.76
965.10	2545.63
965.26	2469.85
965.42	2494.43
965.59	2469.85
965.75	2506.71
965.92	2498.52
966.08	2519.00
966.24	2590.68
966.41	2475.99
966.57	2570.20
966.73	2592.73
966.90	2521.05
967.06	2519.00
967.22	2424.80
967.39	2488.28
967.55	2484.19
967.71	2461.66
967.88	2461.66
968.04	2447.32
968.20	2398.17
968.37	2416.60
968.53	2424.80
968.69	2400.22
968.85	2539.48
969.02	2494.43
969.18	2531.29
969.34	2389.98
969.51	2547.67
969.67	2418.65
969.83	2381.79
970.00	2521.05
970.16	2453.47
970.32	2482.14
970.48	2570.20
970.65	2373.60
970.81	2437.08
970.97	2467.80
971.14	2441.18
971.30	2455.51
971.46	2447.32
971.63	2439.13
971.79	2371.55
971.95	2453.47
972.11	2443.23
972.28	2432.99
972.44	2392.03
972.60	2389.98
972.76	2406.36
972.93	2453.47
973.09	2379.74
973.25	2441.18
973.42	2449.37
973.58	2398.17
973.74	2408.41
973.90	2387.93
974.07	2435.03
974.23	2299.87
974.39	2412.51
974.55	2416.60
974.72	2322.40
974.88	2342.88
975.04	2392.03
975.20	2316.25
975.37	2394.08
975.53	2355.16
975.69	2318.30
975.85	2326.49
976.01	2334.68
976.18	2346.97
976.34	2351.07
976.50	2498.52
976.66	2383.84
976.83	2295.77
976.99	2385.88
977.15	2279.39
977.31	2349.02
977.47	2336.73
977.64	2273.25
977.80	2355.16
977.96	2299.87
978.12	2295.77
978.29	2297.82
978.45	2240.48
978.61	2234.33
978.77	2299.87
978.93	2336.73
979.10	2344.92
979.26	2289.63
979.42	2310.11
979.58	2211.81
979.74	2295.77
979.91	2277.34
980.07	2263.01
980.23	2295.77
980.39	2322.40
980.55	2254.81
980.71	2213.85
980.88	2199.52
981.04	2250.72
981.20	2213.85
981.36	2252.77
981.52	2244.57
981.68	2250.72
981.85	2303.96
982.01	2209.76
982.17	2234.33
982.33	2271.20
982.49	2250.72
982.65	2203.61
982.82	2222.05
982.98	2254.81
983.14	2252.77
983.30	2170.85
983.46	2269.15
983.62	2299.87
983.79	2168.80
983.95	2148.32
984.11	2197.47
984.27	2224.09
984.43	2191.33
984.59	2154.46
984.75	2277.34
984.91	2197.47
985.08	2199.52
985.24	2189.28
985.40	2230.24
985.56	2242.53
985.72	2213.85
985.88	2142.18
986.04	2195.42
986.20	2166.75
986.37	2107.36
986.53	2127.84
986.69	2185.18
986.85	2144.22
987.01	2181.09
987.17	2127.84
987.33	2156.51
987.49	2140.13
987.65	2205.66
987.82	2252.77
987.98	2136.03
988.14	2252.77
988.30	2191.33
988.46	2088.93
988.62	2113.50
988.78	2140.13
988.94	2103.26
989.10	2127.84
989.26	2090.98
989.42	2138.08
989.59	2111.46
989.75	2111.46
989.91	2179.04
990.07	2095.07
990.23	2101.22
990.39	2080.74
990.55	2125.79
990.71	2115.55
990.87	2107.36
991.03	2131.94
991.19	2090.98
991.35	2004.96
991.51	2084.83
991.67	2050.02
991.83	2090.98
992.00	2150.37
992.16	2017.25
992.32	2039.78
992.48	2150.37
992.64	2052.06
992.80	2045.92
992.96	2052.06
993.12	2031.58
993.28	2131.94
993.44	2121.70
993.60	2025.44
993.76	2109.41
993.92	2125.79
994.08	2121.70
994.24	2029.54
994.40	2052.06
994.56	2140.13
994.72	2041.82
994.88	2088.93
995.04	2107.36
995.20	2064.35
995.36	2031.58
995.52	2015.20
995.68	2056.16
995.84	1961.95
996.00	2068.45
996.16	2013.15
996.32	2045.92
996.48	2095.07
996.64	2041.82
996.80	2107.36
996.96	2004.96
997.12	1968.10
997.28	1986.53
997.44	2019.30
997.60	1980.39
997.76	1947.62
997.92	2035.68
998.08	2037.73
998.24	1978.34
998.40	1990.63
998.56	2070.50
998.72	1947.62
998.88	2009.06
999.04	2004.96
999.20	2029.54
999.36	2017.25
999.52	2047.97
999.68	2043.87
999.84	1959.91
1000.00	1951.71
1000.16	2056.16
1000.32	1992.67
1000.48	2052.06
1000.64	1910.75
1000.80	1941.47
1000.95	1986.53
1001.11	2039.78
1001.27	1916.90
1001.43	1945.57
1001.59	1888.23
1001.75	1951.71
1001.91	1941.47
1002.07	1978.34
1002.23	1929.19
1002.39	1955.81
1002.55	2031.58
1002.71	1951.71
1002.87	1882.08
1003.03	1914.85
1003.19	1920.99
1003.34	2013.15
1003.50	1920.99
1003.66	1966.05
1003.82	1951.71
1003.98	1908.71
1004.14	1964.00
1004.30	1902.56
1004.46	1863.65
1004.62	1974.24
1004.78	1920.99
1004.94	1869.80
1005.09	1877.99
1005.25	2000.87
1005.41	1884.13
1005.57	1970.15
1005.73	1996.77
1005.89	1877.99
1006.05	1996.77
1006.21	1882.08
1006.37	1914.85
1006.52	1888.23
1006.68	1865.70
1006.84	1886.18
1007.00	1914.85
1007.16	1882.08
1007.32	1890.28
1007.48	1916.90
1007.64	1888.23
1007.79	1906.66
1007.95	1853.41
1008.11	1961.95
1008.27	1894.37
1008.43	1916.90
1008.59	1918.95
1008.75	1859.56
1008.91	1861.60
1009.06	1857.51
1009.22	1900.52
1009.38	1871.84
1009.54	1875.94
1009.70	1781.73
1009.86	1863.65
1010.01	1937.38
1010.17	1867.75
1010.33	1886.18
1010.49	1839.08
1010.65	1839.08
1010.81	1775.59
1010.96	1923.04
1011.12	1830.88
1011.28	1791.97
1011.44	1804.26
1011.60	1853.41
1011.76	1888.23
1011.91	1794.02
1012.07	1812.45
1012.23	1841.12
1012.39	1865.70
1012.55	1816.55
1012.71	1812.45
1012.86	1796.07
1013.02	1855.46
1013.18	1783.78
1013.34	1800.16
1013.50	1859.56
1013.65	1824.74
1013.81	1740.77
1013.97	1791.97
1014.13	1884.13
1014.29	1806.31
1014.44	1851.36
1014.60	1822.69
1014.76	1785.83
1014.92	1763.30
1015.07	1775.59
1015.23	1808.36
1015.39	1802.21
1015.55	1855.46
1015.71	1814.50
1015.86	1744.87
1016.02	1794.02
1016.18	1730.53
1016.34	1802.21
1016.49	1796.07
1016.65	1822.69
1016.81	1755.11
1016.97	1736.68
1017.12	1734.63
1017.28	1859.56
1017.44	1728.49
1017.60	1787.88
1017.75	1839.08
1017.91	1787.88
1018.07	1843.17
1018.23	1804.26
1018.38	1847.27
1018.54	1771.49
1018.70	1791.97
1018.86	1726.44
1019.01	1708.01
1019.17	1759.21
1019.33	1761.25
1019.49	1808.36
1019.64	1759.21
1019.80	1687.53
1019.96	1818.60
1020.12	1742.82
1020.27	1701.86
1020.43	1767.40
1020.59	1771.49
1020.74	1755.11
1020.90	1777.64
1021.06	1787.88
1021.22	1785.83
1021.37	1730.53
1021.53	1773.54
1021.69	1830.88
1021.84	1777.64
1022.00	1759.21
1022.16	1748.97
1022.31	1759.21
1022.47	1775.59
1022.63	1736.68
1022.79	1673.19
1022.94	1732.58
1023.10	1738.73
1023.26	1701.86
1023.41	1722.34
1023.57	1771.49
1023.73	1697.77
1023.88	1783.78
1024.04	1689.57
1024.20	1675.24
1024.35	1742.82
1024.51	1673.19
1024.67	1654.76
1024.82	1798.12
1024.98	1667.05
1025.14	1693.67
1025.29	1726.44
1025.45	1781.73
1025.61	1708.01
1025.76	1740.77
1025.92	1699.81
1026.08	1779.68
1026.23	1685.48
1026.39	1675.24
1026.55	1732.58
1026.70	1689.57
1026.86	1679.33
1027.02	1730.53
1027.17	1638.38
1027.33	1740.77
1027.48	1677.29
1027.64	1689.57
1027.80	1738.73
1027.95	1683.43
1028.11	1665.00
1028.27	1732.58
1028.42	1718.25
1028.58	1753.06
1028.73	1751.01
1028.89	1644.52
1029.05	1744.87
1029.20	1734.63
>>>>>End Processed Spectral Data<<<<<
