SpectraSuite Data File
++++++++++++++++++++++++++++++++++++
Date: Tue Jun 13 11:52:07 CEST 2017
User: INFO_000
Dark Spectrum Present: No
Reference Spectrum Present: No
Number of Sampled Component Spectra: 1
Spectrometers: USB4H00879
Integration Time (usec): 30000 (USB4H00879)
Spectra Averaged: 1 (USB4H00879)
Boxcar Smoothing: 0 (USB4H00879)
Correct for Electrical Dark: No (USB4H00879)
Strobe/Lamp Enabled: No (USB4H00879)
Correct for Detector Non-linearity: No (USB4H00879)
Correct for Stray Light: No (USB4H00879)
Number of Pixels in Processed Spectrum: 3648
>>>>>Begin Processed Spectral Data<<<<<
345.13	1388.52
345.34	1388.52
345.56	1388.52
345.78	1368.04
345.99	1331.18
346.21	1566.70
346.42	1476.59
346.64	1490.92
346.86	1587.18
347.07	1452.01
347.29	1449.96
347.50	1568.74
347.72	1535.98
347.94	1564.65
348.15	1492.97
348.37	1546.22
348.59	1490.92
348.80	1486.83
349.02	1568.74
349.23	1679.33
349.45	1619.94
349.67	1624.04
349.88	1615.85
350.10	1654.76
350.31	1542.12
350.53	1658.85
350.75	1757.16
350.96	1609.70
351.18	1644.52
351.39	1605.61
351.61	1609.70
351.82	1742.82
352.04	1626.09
352.26	1613.80
352.47	1658.85
352.69	1689.57
352.90	1626.09
353.12	1601.51
353.34	1671.14
353.55	1679.33
353.77	1722.34
353.98	1630.18
354.20	1660.90
354.41	1738.73
354.63	1669.09
354.85	1701.86
355.06	1671.14
355.28	1644.52
355.49	1730.53
355.71	1675.24
355.92	1708.01
356.14	1744.87
356.35	1648.61
356.57	1638.38
356.79	1673.19
357.00	1671.14
357.22	1740.77
357.43	1640.42
357.65	1630.18
357.86	1609.70
358.08	1753.06
358.29	1699.81
358.51	1695.72
358.72	1777.64
358.94	1669.09
359.16	1710.05
359.37	1621.99
359.59	1724.39
359.80	1746.92
360.02	1656.81
360.23	1738.73
360.45	1712.10
360.66	1691.62
360.88	1708.01
361.09	1646.57
361.31	1761.25
361.52	1673.19
361.74	1746.92
361.95	1736.68
362.17	1787.88
362.38	1814.50
362.60	1847.27
362.81	1787.88
363.03	1691.62
363.24	1732.58
363.46	1773.54
363.67	1742.82
363.89	1732.58
364.10	1802.21
364.32	1779.68
364.53	1753.06
364.75	1796.07
364.96	1783.78
365.18	1771.49
365.39	1757.16
365.61	1738.73
365.82	1728.49
366.04	1843.17
366.25	1771.49
366.47	1818.60
366.68	1802.21
366.90	1810.40
367.11	1814.50
367.33	1812.45
367.54	1834.98
367.76	1826.79
367.97	1845.22
368.19	1839.08
368.40	1882.08
368.62	1816.55
368.83	1806.31
369.05	1814.50
369.26	1769.44
369.48	1843.17
369.69	1804.26
369.91	1800.16
370.12	1808.36
370.33	1880.04
370.55	1830.88
370.76	1880.04
370.98	1853.41
371.19	1855.46
371.41	1898.47
371.62	1855.46
371.84	1783.78
372.05	1875.94
372.27	1822.69
372.48	1853.41
372.69	1882.08
372.91	1845.22
373.12	1920.99
373.34	1898.47
373.55	1843.17
373.77	1875.94
373.98	1912.80
374.20	1912.80
374.41	2013.15
374.62	1902.56
374.84	1959.91
375.05	2007.01
375.27	1918.95
375.48	1888.23
375.70	2007.01
375.91	1984.48
376.12	2062.30
376.34	1974.24
376.55	1968.10
376.77	2007.01
376.98	1886.18
377.19	1949.67
377.41	1996.77
377.62	2084.83
377.84	2025.44
378.05	2033.63
378.27	1931.23
378.48	2023.39
378.69	2103.26
378.91	2011.11
379.12	2142.18
379.34	2039.78
379.55	2086.88
379.76	2107.36
379.98	2054.11
380.19	2117.60
380.41	2029.54
380.62	2099.17
380.83	2131.94
381.05	1982.43
381.26	2052.06
381.47	2095.07
381.69	2062.30
381.90	2166.75
382.12	2131.94
382.33	2136.03
382.54	2111.46
382.76	2111.46
382.97	2148.32
383.19	2115.55
383.40	2222.05
383.61	2121.70
383.83	2154.46
384.04	2166.75
384.25	2162.66
384.47	2203.61
384.68	2164.70
384.89	2144.22
385.11	2205.66
385.32	2195.42
385.54	2244.57
385.75	2234.33
385.96	2162.66
386.18	2322.40
386.39	2273.25
386.60	2252.77
386.82	2299.87
387.03	2338.78
387.24	2310.11
387.46	2289.63
387.67	2258.91
387.88	2410.46
388.10	2351.07
388.31	2342.88
388.52	2332.64
388.74	2363.36
388.95	2369.50
389.16	2385.88
389.38	2449.37
389.59	2328.54
389.80	2467.80
390.02	2492.38
390.23	2490.33
390.44	2346.97
390.66	2430.94
390.87	2367.45
391.08	2506.71
391.30	2439.13
391.51	2535.39
391.72	2549.72
391.94	2539.48
392.15	2475.99
392.36	2447.32
392.58	2531.29
392.79	2535.39
393.00	2432.99
393.22	2633.69
393.43	2660.31
393.64	2600.92
393.85	2686.94
394.07	2643.93
394.28	2557.91
394.49	2684.89
394.71	2715.61
394.92	2717.65
395.13	2748.37
395.35	2627.54
395.56	2699.22
395.77	2828.24
395.98	2766.81
396.20	2713.56
396.41	2799.57
396.62	2813.91
396.84	2793.43
397.05	2725.85
397.26	2805.72
397.47	2899.92
397.69	2830.29
397.90	2838.48
398.11	2856.92
398.32	2811.86
398.54	2889.68
398.75	2758.61
398.96	2869.20
399.18	2848.72
399.39	2990.03
399.60	3092.43
399.81	2932.69
400.03	2928.60
400.24	2992.08
400.45	2871.25
400.66	3153.87
400.88	2983.89
401.09	3063.76
401.30	3086.29
401.51	3106.77
401.73	3104.72
401.94	3014.61
402.15	3153.87
402.36	3041.23
402.58	3016.66
402.79	3117.01
403.00	3160.02
403.21	3264.46
403.43	3123.15
403.64	3213.26
403.85	3225.55
404.06	3037.14
404.27	3176.40
404.49	3114.96
404.70	3164.11
404.91	3155.92
405.12	3262.41
405.34	3166.16
405.55	3393.48
405.76	3139.54
405.97	3274.70
406.19	3424.20
406.40	3309.52
406.61	3305.42
406.82	3475.40
407.03	3362.76
407.25	3362.76
407.46	3418.06
407.67	3493.83
407.88	3370.96
408.09	3348.43
408.31	3401.68
408.52	3370.96
408.73	3362.76
408.94	3362.76
409.15	3407.82
409.37	3473.36
409.58	3438.54
409.79	3508.17
410.00	3510.22
410.21	3487.69
410.43	3610.57
410.64	3487.69
410.85	3538.89
411.06	3506.12
411.27	3608.52
411.48	3725.26
411.70	3581.90
411.91	3653.58
412.12	3667.91
412.33	3504.07
412.54	3753.93
412.76	3891.14
412.97	3657.67
413.18	3606.47
413.39	3696.58
413.60	3710.92
413.81	3690.44
414.03	3854.28
414.24	3729.35
414.45	3860.42
414.66	3729.35
414.87	3731.40
415.08	3858.37
415.30	3755.97
415.51	3921.86
415.72	3755.97
415.93	3915.72
416.14	3868.61
416.35	3952.58
416.56	3837.89
416.78	3966.92
416.99	4007.87
417.20	3960.77
417.41	4014.02
417.62	4016.07
417.83	4026.31
418.04	3983.30
418.26	3985.35
418.47	4022.21
418.68	4222.91
418.89	4020.16
419.10	4116.42
419.31	4112.32
419.52	4186.05
419.73	4212.67
419.95	4175.81
420.16	4100.03
420.37	4341.69
420.58	4329.41
420.79	4110.27
421.00	4335.55
421.21	4409.28
421.42	4161.47
421.63	4356.03
421.85	4317.12
422.06	4517.82
422.27	4505.53
422.48	4419.52
422.69	4452.28
422.90	4505.53
423.11	4554.68
423.32	4513.72
423.53	4618.17
423.75	4556.73
423.96	4689.85
424.17	4505.53
424.38	4671.42
424.59	4642.75
424.80	4894.65
425.01	4886.45
425.22	4755.38
425.43	4743.10
425.64	4829.11
425.85	4782.01
426.06	4806.58
426.28	4921.27
426.49	4777.91
426.70	4755.38
426.91	4855.73
427.12	5076.91
427.33	4939.70
427.54	4884.41
427.75	5072.82
427.96	5107.63
428.17	4980.66
428.38	5140.40
428.59	5242.80
428.80	5128.11
429.01	5287.86
429.23	5226.42
429.44	5361.58
429.65	5238.70
429.86	5304.24
430.07	5265.33
430.28	5218.22
430.49	5339.05
430.70	5511.08
430.91	5429.17
431.12	5451.69
431.33	5629.87
431.54	5418.93
431.75	5556.14
431.96	5500.84
432.17	5478.32
432.38	5476.27
432.59	5754.79
432.80	5476.27
433.01	5781.42
433.22	5846.95
433.43	5709.74
433.64	5756.84
433.85	5728.17
434.06	5898.15
434.27	5816.23
434.49	5945.25
434.70	5842.85
434.91	5975.97
435.12	6012.84
435.33	5939.11
435.54	6061.99
435.75	5801.90
435.96	5896.10
436.17	5982.12
436.38	6152.10
436.59	6148.00
436.80	6111.14
437.01	6393.76
437.22	6242.21
437.43	6229.92
437.64	6072.23
437.85	6227.87
438.06	6145.95
438.27	6213.54
438.48	6346.66
438.69	6328.22
438.90	6332.32
439.11	6432.67
439.32	6496.16
439.53	6490.01
439.74	6543.26
439.95	6567.84
440.16	6500.25
440.37	6442.91
440.57	6481.82
440.78	6791.06
440.99	6610.84
441.20	6526.88
441.41	6543.26
441.62	6551.45
441.83	6430.62
442.04	6870.94
442.25	6664.09
442.46	6735.77
442.67	6944.66
442.88	7169.94
443.09	6692.76
443.30	6748.06
443.51	6741.91
443.72	7233.43
443.93	6866.84
444.14	7217.04
444.35	6789.02
444.56	7085.97
444.77	7098.26
444.98	7085.97
445.19	7319.44
445.40	7092.12
445.61	7102.36
445.81	7190.42
446.02	7253.91
446.23	7296.91
446.44	7184.27
446.65	7231.38
446.86	7206.80
447.07	7206.80
447.28	7503.76
447.49	7536.52
447.70	7403.41
447.91	7440.27
448.12	7524.24
448.33	7626.64
448.54	7675.79
448.74	7409.55
448.95	7710.60
449.16	7489.42
449.37	7823.24
449.58	7720.84
449.79	8023.94
450.00	7589.77
450.21	7858.06
450.42	7870.34
450.63	7886.73
450.84	7856.01
451.05	7888.78
451.25	7843.72
451.46	7925.64
451.67	8093.57
451.88	8288.13
452.09	8064.90
452.30	8060.80
452.51	8171.40
452.72	8277.89
452.93	8458.11
453.13	8116.10
453.34	8220.55
453.55	8353.66
453.76	8304.51
453.97	8650.62
454.18	8355.71
454.39	8505.21
454.60	8376.19
454.81	8654.72
455.01	8824.70
455.22	8464.25
455.43	8609.66
455.64	8791.93
455.85	8941.43
456.06	9119.60
456.27	8771.45
456.48	8771.45
456.68	9029.49
456.89	8941.43
457.10	9133.94
457.31	9129.84
457.52	9027.45
457.73	9041.78
457.94	9332.59
458.14	9271.15
458.35	9664.36
458.56	9228.15
458.77	9207.67
458.98	9641.84
459.19	9426.80
459.39	9508.72
459.60	9756.52
459.81	9332.59
460.02	9844.59
460.23	9717.61
460.44	9969.51
460.65	9858.92
460.85	10028.90
461.06	9979.75
461.27	9842.54
461.48	10114.92
461.69	10461.02
461.89	9936.74
462.10	10325.86
462.31	10057.57
462.52	10098.53
462.73	10325.86
462.94	10524.51
463.14	10604.38
463.35	10405.73
463.56	10729.31
463.77	10891.10
463.98	10760.03
464.18	10815.32
464.39	10882.91
464.60	10872.67
464.81	10991.45
465.02	10970.97
465.23	11196.25
465.43	11261.78
465.64	11550.54
465.85	11337.56
466.06	11167.57
466.27	11677.52
466.47	11593.55
466.68	11472.72
466.89	11747.15
467.10	11827.02
467.30	11579.22
467.51	11648.85
467.72	12076.87
467.93	11790.16
468.14	12033.86
468.34	12093.26
468.55	12246.85
468.76	12121.93
468.97	12130.12
469.17	12332.87
469.38	12316.48
469.59	12521.28
469.80	12422.98
470.01	12658.49
470.21	12539.71
470.42	12803.90
470.63	12771.13
470.84	12603.20
471.04	13010.75
471.25	13027.13
471.46	12883.77
471.67	13313.84
471.87	13301.56
472.08	13233.97
472.29	13612.85
472.50	13184.82
472.70	13610.80
472.91	13539.12
473.12	13926.19
473.33	14087.98
473.53	14053.16
473.74	14255.91
473.95	14255.91
474.16	14477.09
474.36	14341.93
474.57	14421.80
474.78	14810.91
474.99	14616.35
475.19	14796.57
475.40	14808.86
475.61	15122.20
475.81	15085.34
476.02	15435.54
476.23	15144.73
476.44	15359.77
476.64	15642.39
476.85	15699.73
477.06	15779.60
477.27	15912.72
477.47	16256.78
477.68	15978.25
477.89	16359.17
478.09	16195.34
478.30	16402.18
478.51	16393.99
478.71	16559.88
478.92	16789.25
479.13	16903.93
479.34	17157.88
479.54	17055.48
479.75	17166.07
479.96	17360.63
480.16	17000.19
480.37	17383.16
480.58	17452.79
480.78	17874.67
480.99	17721.07
481.20	18104.04
481.41	18058.99
481.61	18233.07
481.82	18192.11
482.03	18515.69
482.23	18353.90
482.44	18513.64
482.65	18933.47
482.85	18843.36
483.06	18886.37
483.27	18960.09
483.47	18806.50
483.68	19105.50
483.89	19191.52
484.09	19396.31
484.30	19551.96
484.51	19730.13
484.71	19840.72
484.92	19631.83
485.13	19990.22
485.33	20068.05
485.54	20217.55
485.75	20532.93
485.95	20551.37
486.16	20723.40
486.37	20489.93
486.57	20915.90
486.78	20412.10
486.98	21116.61
487.19	21053.12
487.40	21008.06
487.60	21305.02
487.81	21546.68
488.02	21556.92
488.22	21300.92
488.43	21649.08
488.64	21733.04
488.84	22062.77
489.05	22062.77
489.25	22251.18
489.46	22654.63
489.67	22120.11
489.87	22683.30
490.08	22771.36
490.29	22613.67
490.49	22810.28
490.70	22879.91
490.90	23176.86
491.11	23076.51
491.32	23144.09
491.52	23246.49
491.73	23623.32
491.94	23502.49
492.14	23541.40
492.35	24098.45
492.55	23666.33
492.76	24045.20
492.97	24280.72
493.17	24151.70
493.38	24389.26
493.58	24630.92
493.79	24596.10
494.00	24618.63
494.20	24692.36
494.41	24807.05
494.61	24870.53
494.82	24979.07
495.02	24909.44
495.23	25360.00
495.44	25310.85
495.64	25605.75
495.85	25446.01
496.05	25878.13
496.26	25446.01
496.47	25912.95
496.67	25853.56
496.88	25822.84
497.08	25826.93
497.29	26134.13
497.49	26058.35
497.70	26240.62
497.91	26607.21
498.11	26621.55
498.32	26506.86
498.52	26715.75
498.73	27199.07
498.93	26447.47
499.14	26826.34
499.34	27037.28
499.55	27223.65
499.76	27207.26
499.96	27354.72
500.17	27430.49
500.37	27299.42
500.58	27354.72
500.78	27702.87
500.99	27616.86
501.19	27975.25
501.40	27850.33
501.60	27993.68
501.81	28014.16
502.02	28040.79
502.22	27993.68
502.43	28352.08
502.63	28362.32
502.84	28436.05
503.04	28415.57
503.25	28702.28
503.45	28907.08
503.66	28534.35
503.86	28726.86
504.07	29189.70
504.27	29052.48
504.48	29474.37
504.68	29257.28
504.89	29554.24
505.09	29597.24
505.30	29537.85
505.50	29591.10
505.71	29589.05
505.91	29972.02
506.12	29505.09
506.32	29773.37
506.53	29834.81
506.73	30219.83
506.94	30135.86
507.14	29845.05
507.35	29957.69
507.55	30062.13
507.76	30391.86
507.96	30314.03
508.17	30162.48
508.37	30418.48
508.58	30846.51
508.78	30604.84
508.99	30778.92
509.19	30770.73
509.40	30834.22
509.60	30586.41
509.81	30848.55
510.01	30930.47
510.22	30963.24
510.42	31260.20
510.63	30922.28
510.83	31346.21
511.04	31442.46
511.24	31471.14
511.44	31178.28
511.65	31626.78
511.85	31714.84
512.06	31931.93
512.26	32067.09
512.47	31847.96
512.67	31833.63
512.88	31841.82
513.08	31782.43
513.29	32093.72
513.49	31835.67
513.69	31811.10
513.90	31942.17
514.10	32249.36
514.31	32366.10
514.51	32343.57
514.72	32200.21
514.92	32601.61
515.13	32513.55
515.33	32724.49
515.53	32638.48
515.74	32949.77
515.94	32873.99
516.15	32980.49
516.35	32710.16
516.56	33166.85
516.76	32740.88
516.96	32884.23
517.17	33185.29
517.37	32927.24
517.58	32994.82
517.78	33435.14
517.99	33271.30
518.19	33682.94
518.39	33472.00
518.60	33660.41
518.80	33664.51
519.01	33842.68
519.21	34070.01
519.41	34061.82
519.62	33838.59
519.82	34174.45
520.03	34500.08
520.23	34383.35
520.43	34434.55
520.64	34567.66
520.84	34590.19
521.05	34672.11
521.25	34567.66
521.45	34524.66
521.66	35087.85
521.86	34670.06
522.07	35063.27
522.27	34412.02
522.47	35098.09
522.68	35356.13
522.88	35319.27
523.08	35087.85
523.29	35636.70
523.49	35751.39
523.70	35710.43
523.90	35775.97
524.10	35612.13
524.31	36271.57
524.51	35407.33
524.71	36120.02
524.92	35788.25
525.12	36503.00
525.33	36193.75
525.53	36363.73
525.73	36636.11
525.94	36709.84
526.14	36535.76
526.34	37002.70
526.55	37070.28
526.75	36847.05
526.95	37103.05
527.16	36963.79
527.36	37230.02
527.56	37365.19
527.77	37471.68
527.97	37197.26
528.17	37389.77
528.38	37557.70
528.58	37770.69
528.78	37920.19
528.99	37887.42
529.19	38116.79
529.39	38022.59
529.60	38526.39
529.80	38219.19
530.00	38399.41
530.21	38536.63
530.41	39122.35
530.61	38436.28
530.82	38847.92
531.02	38790.58
531.22	39052.72
531.43	38809.01
531.63	39220.65
531.83	39482.79
532.04	39609.76
532.24	39349.67
532.44	39763.36
532.64	39611.81
532.85	40113.56
533.05	39972.25
533.25	40209.82
533.46	39849.38
533.66	40275.35
533.86	40062.36
534.07	40496.53
534.27	40537.49
534.47	40727.95
534.67	40854.93
534.88	40727.95
535.08	40652.18
535.28	41192.84
535.49	41119.12
535.69	41330.06
535.89	41555.33
536.09	41782.66
536.30	41676.16
536.50	41190.80
536.70	41641.35
536.91	42108.29
537.11	41407.88
537.31	42270.08
537.51	42018.17
537.72	42405.24
537.92	42423.67
538.12	42491.26
538.32	42253.69
538.53	43064.69
538.73	42562.93
538.93	43236.72
539.13	42829.17
539.34	42603.89
539.54	42829.17
539.74	43148.65
539.94	43257.20
540.15	43019.63
540.35	43390.31
540.55	42988.91
540.75	43394.41
540.96	43162.99
541.16	43423.08
541.36	43625.83
541.56	43826.53
541.77	43922.79
541.97	43607.40
542.17	44111.20
542.37	43844.96
542.58	44117.34
542.78	43855.20
542.98	44262.75
543.18	44246.36
543.38	44864.85
543.59	44608.86
543.79	44348.76
543.99	44729.69
544.19	45137.23
544.40	44500.31
544.60	45213.01
544.80	45294.92
545.00	45251.92
545.20	45075.79
545.41	45194.57
545.61	45360.46
545.81	45974.85
546.01	45491.53
546.21	45436.23
546.42	45331.79
546.62	45645.13
546.82	45247.82
547.02	45819.20
547.22	45559.11
547.43	45495.63
547.63	46099.78
547.83	46032.19
548.03	45595.98
548.23	45870.40
548.44	45995.33
548.64	46216.51
548.84	46173.50
549.04	45872.45
549.24	46490.94
549.45	46316.86
549.65	46392.64
549.85	45921.60
550.05	46638.39
550.25	46708.02
550.45	47201.58
550.66	46781.75
550.86	46763.32
551.06	46890.29
551.26	47037.75
551.46	46734.65
551.66	46896.44
551.87	46519.61
552.07	47117.62
552.27	46794.04
552.47	47062.32
552.67	47426.86
552.87	47152.43
553.07	47349.04
553.28	47510.83
553.48	47623.47
553.68	47322.41
553.88	47938.85
554.08	47668.52
554.28	48063.78
554.48	47416.62
554.69	47402.28
554.89	47543.59
555.09	47363.37
555.29	47885.61
555.49	48028.96
555.69	47535.40
555.89	48145.70
556.10	48172.32
556.30	47654.18
556.50	48133.41
556.70	48061.73
556.90	48420.13
557.10	48395.55
557.30	48022.82
557.50	48518.43
557.70	48745.75
557.91	48475.42
558.11	48164.13
558.31	48725.27
558.51	47822.12
558.71	48649.50
558.91	48547.10
559.11	48653.59
559.31	48477.47
559.51	48485.66
559.72	48491.80
559.92	48854.29
560.12	48870.68
560.32	48858.39
560.52	48563.48
560.72	48747.80
560.92	48940.31
561.12	48938.26
561.32	49204.50
561.52	48430.36
561.72	49423.63
561.93	48792.86
562.13	49011.99
562.33	48567.58
562.53	49585.42
562.73	49087.76
562.93	49317.14
563.13	49229.07
563.33	49173.78
563.53	49788.17
563.73	49415.44
563.93	49237.26
564.13	49624.33
564.33	49583.37
564.53	49765.64
564.74	49503.50
564.94	49542.41
565.14	49407.25
565.34	49650.95
565.54	49865.99
565.74	49863.94
565.94	50142.47
566.14	49767.69
566.34	49190.16
566.54	50044.16
566.74	49902.85
566.94	49990.92
567.14	50025.73
567.34	49822.98
567.54	50158.85
567.74	49831.18
567.94	49818.89
568.14	50271.49
568.34	50210.05
568.54	50105.60
568.74	50386.18
568.94	50134.28
569.14	50779.39
569.34	50033.92
569.54	50267.39
569.75	49683.72
569.95	50386.18
570.15	50529.53
570.35	50418.94
570.55	50367.74
570.75	50638.08
570.95	50820.34
571.15	50640.12
571.35	50750.71
571.55	50672.89
571.75	51029.24
571.95	50957.56
572.15	50732.28
572.35	51006.71
572.55	50988.28
572.75	51072.24
572.95	51205.36
573.15	51029.24
573.35	50816.25
573.55	50861.30
573.75	50793.72
573.95	50828.54
574.15	51207.41
574.35	51373.30
574.55	51469.55
574.75	51242.23
574.95	51574.00
575.15	51072.24
575.34	50975.99
575.54	51606.76
575.74	51991.78
575.94	51655.92
576.14	51688.68
576.34	51588.33
576.54	51928.30
576.74	52178.15
576.94	51621.10
577.14	52004.07
577.34	51516.65
577.54	51705.07
577.74	51490.03
577.94	51969.26
578.14	51997.93
578.34	51948.78
578.54	51934.44
578.74	52172.00
578.94	52677.85
579.14	52083.94
579.34	52192.48
579.54	52665.56
579.74	52976.86
579.94	52413.66
580.13	52802.78
580.33	52698.33
580.53	52907.22
580.73	52720.86
580.93	52862.17
581.13	52776.15
581.33	52866.27
581.53	52939.99
581.73	52800.73
581.93	53206.23
582.13	52864.22
582.33	52958.42
582.53	53007.58
582.73	52962.52
582.92	53019.86
583.12	53279.96
583.32	53269.72
583.52	53464.27
583.72	53425.36
583.92	53310.67
584.12	53411.02
584.32	54310.08
584.52	53509.33
584.72	53460.18
584.92	53601.49
585.11	54058.18
585.31	53759.18
585.51	54056.14
585.71	53544.14
585.91	54039.75
586.11	53646.54
586.31	53867.72
586.51	53730.51
586.71	53892.30
586.91	54547.65
587.10	54031.56
587.30	53783.76
587.50	54174.92
587.70	54400.19
587.90	54383.81
588.10	54553.79
588.30	54363.33
588.50	54254.79
588.69	54539.46
588.89	54508.74
589.09	54713.53
589.29	54764.73
589.49	55129.27
589.69	54271.17
589.89	55241.91
590.08	55223.48
590.28	54715.58
590.48	54938.81
590.68	54727.87
590.88	54742.20
591.08	54922.43
591.28	55026.87
591.47	55436.47
591.67	55067.83
591.87	54838.46
592.07	55065.78
592.27	55170.23
592.47	55037.11
592.67	55368.88
592.86	55041.21
593.06	55186.61
593.26	55190.71
593.46	55235.77
593.66	55635.12
593.86	55262.39
594.05	54703.29
594.25	55205.05
594.45	55203.00
594.65	55233.72
594.85	55192.76
595.05	55176.37
595.24	56028.33
595.44	55604.40
595.64	55499.95
595.84	56059.05
596.04	55661.74
596.23	55418.03
596.43	56067.24
596.63	55835.82
596.83	55850.16
597.03	55846.06
597.22	56532.13
597.42	56018.09
597.62	56009.90
597.82	55948.46
598.02	56130.73
598.21	56515.75
598.41	55733.42
598.61	56442.02
598.81	56224.93
599.01	56028.33
599.20	56644.77
599.40	56417.44
599.60	56556.70
599.80	56779.93
600.00	56489.12
600.19	56743.07
600.39	56335.52
600.59	56906.91
600.79	56698.01
600.98	56962.20
601.18	57269.40
601.38	57046.17
601.58	57173.14
601.78	56986.78
601.97	56911.00
602.17	57423.00
602.37	57267.35
602.57	57001.11
602.76	57431.19
602.96	57279.64
603.16	57453.72
603.36	57535.63
603.55	57619.60
603.75	57590.93
603.95	57916.56
604.15	57486.48
604.34	57552.02
604.54	57554.07
604.74	57435.28
604.94	57726.10
605.13	57937.04
605.33	57765.01
605.53	57633.94
605.73	57681.04
605.92	57670.80
606.12	58262.66
606.32	57851.02
606.52	57810.06
606.71	58125.45
606.91	58018.95
607.11	58289.29
607.30	58371.21
607.50	58330.25
607.70	58266.76
607.90	58457.22
608.09	57881.74
608.29	58543.23
608.49	58209.42
608.68	58207.37
608.88	58477.70
609.08	58188.94
609.28	58371.21
609.47	58317.96
609.67	58725.50
609.87	58289.29
610.06	58846.33
610.26	58520.71
610.46	58512.52
610.66	58608.77
610.85	58651.78
611.05	58360.97
611.25	58987.64
611.44	58782.85
611.64	58643.59
611.84	58567.81
612.03	58410.12
612.23	59227.26
612.43	58643.59
612.62	58317.96
612.82	58340.49
613.02	58770.56
613.21	58807.42
613.41	58412.16
613.61	58727.55
613.80	58115.21
614.00	58776.70
614.20	58659.97
614.39	58627.20
614.59	58920.06
614.79	58938.49
614.98	58711.17
615.18	58580.10
615.38	58846.33
615.57	58315.91
615.77	58823.81
615.97	58881.15
616.16	58791.04
616.36	58717.31
616.56	58440.84
616.75	58889.34
616.95	58287.24
617.15	58619.01
617.34	58432.64
617.54	58334.34
617.74	58760.32
617.93	58768.51
618.13	58242.18
618.32	58012.81
618.52	58061.96
618.72	58659.97
618.91	58406.02
619.11	58784.90
619.31	58598.53
619.50	58635.39
619.70	58377.35
619.90	58524.80
620.09	58647.68
620.29	58629.25
620.48	58299.53
620.68	58573.95
620.88	57902.22
621.07	58190.98
621.27	58434.69
621.46	57687.18
621.66	58055.82
621.86	58639.49
622.05	58025.10
622.25	58506.37
622.44	58469.51
622.64	58250.38
622.84	58522.76
623.03	58033.29
623.23	58195.08
623.42	58016.91
623.62	58369.16
623.82	58074.25
624.01	58113.16
624.21	57980.04
624.40	57742.48
624.60	58221.70
624.80	57765.01
624.99	58070.15
625.19	57427.09
625.38	58115.21
625.58	57955.47
625.77	57832.59
625.97	57865.36
626.17	57861.26
626.36	58164.36
626.56	57740.43
626.75	57656.46
626.95	58064.01
627.14	57480.34
627.34	58268.81
627.54	57369.75
627.73	58156.17
627.93	58186.89
628.12	57715.86
628.32	57674.90
628.51	58139.78
628.71	57883.79
628.90	57715.86
629.10	57603.22
629.30	57654.42
629.49	58299.53
629.69	57767.05
629.88	57711.76
630.08	57828.49
630.27	57928.84
630.47	57472.15
630.66	57599.12
630.86	57978.00
631.05	57523.35
631.25	57855.12
631.44	57722.00
631.64	57824.40
631.84	57533.59
632.03	57896.08
632.23	57353.36
632.42	57824.40
632.62	57644.18
632.81	57523.35
633.01	58037.39
633.20	57697.42
633.40	57466.00
633.59	57873.55
633.79	57363.60
633.98	57996.43
634.18	57863.31
634.37	57549.97
634.57	57824.40
634.76	58295.43
634.96	57584.79
635.15	58035.34
635.35	57703.57
635.54	57384.08
635.74	57740.43
635.93	57592.98
636.13	57881.74
636.32	57767.05
636.52	57238.68
636.71	57705.62
636.91	57656.46
637.10	57648.27
637.30	57752.72
637.49	57521.30
637.69	57382.04
637.88	57795.73
638.08	57750.67
638.27	57773.20
638.46	57748.62
638.66	57447.57
638.85	57613.46
639.05	58111.11
639.24	57734.29
639.44	57644.18
639.63	57418.90
639.83	57767.05
640.02	57558.16
640.22	57668.75
640.41	57986.19
640.61	56964.25
640.80	57963.66
640.99	57619.60
641.19	57599.12
641.38	57539.73
641.58	57664.66
641.77	57357.46
641.97	57318.55
642.16	57658.51
642.36	57906.32
642.55	57814.16
642.74	56798.37
642.94	58018.95
643.13	57519.25
643.33	57652.37
643.52	58031.24
643.72	57830.54
643.91	57848.97
644.10	57975.95
644.30	57722.00
644.49	57490.58
644.69	57844.88
644.88	57793.68
645.08	57814.16
645.27	57683.09
645.46	57574.55
645.66	57914.51
645.85	57357.46
646.05	57683.09
646.24	57967.76
646.43	57607.31
646.63	58049.67
646.82	57963.66
647.02	57552.02
647.21	57998.48
647.40	57834.64
647.60	58098.83
647.79	57547.92
647.99	57582.74
648.18	57603.22
648.37	57980.04
648.57	58217.61
648.76	57726.10
648.96	58016.91
649.15	57738.38
649.34	57785.49
649.54	58029.19
649.73	57748.62
649.92	57773.20
650.12	57502.87
650.31	57924.75
650.51	58045.58
650.70	58102.92
650.89	57760.91
651.09	58295.43
651.28	57713.81
651.47	57904.27
651.67	57631.89
651.86	58021.00
652.06	57480.34
652.25	57848.97
652.44	57638.03
652.64	57349.27
652.83	57732.24
653.02	57808.01
653.22	57320.60
653.41	57590.93
653.60	57611.41
653.80	57320.60
653.99	57570.45
654.18	57195.67
654.38	57576.59
654.57	57484.43
654.76	57582.74
654.96	57531.54
655.15	57285.78
655.34	57212.06
655.54	57285.78
655.73	57738.38
655.92	57998.48
656.12	57418.90
656.31	58039.43
656.50	57713.81
656.70	57760.91
656.89	57261.21
657.08	57681.04
657.28	57492.63
657.47	57615.50
657.66	57558.16
657.86	57672.85
658.05	57814.16
658.24	57189.53
658.43	57418.90
658.63	57611.41
658.82	57730.19
659.01	57875.60
659.21	57670.80
659.40	57668.75
659.59	57304.21
659.79	57814.16
659.98	57672.85
660.17	57793.68
660.36	57640.08
660.56	57369.75
660.75	57355.41
660.94	57523.35
661.14	57527.44
661.33	57230.49
661.52	57019.55
661.71	57832.59
661.91	57543.83
662.10	57234.58
662.29	57640.08
662.49	57869.45
662.68	56931.48
662.87	57523.35
663.06	57638.03
663.26	57588.88
663.45	57504.91
663.64	57160.86
663.83	57554.07
664.03	57527.44
664.22	57185.43
664.41	57365.65
664.60	57392.28
664.80	57150.62
664.99	57506.96
665.18	57435.28
665.37	57689.23
665.57	57617.55
665.76	57547.92
665.95	56917.15
666.14	57193.62
666.34	57183.38
666.53	56982.68
666.72	57089.18
666.91	56816.80
667.11	56761.50
667.30	57674.90
667.49	56986.78
667.68	56917.15
667.87	57234.58
668.07	57058.46
668.26	57068.70
668.45	57189.53
668.64	56992.92
668.84	57568.40
669.03	56986.78
669.22	56822.94
669.41	56878.24
669.60	56550.56
669.80	56360.10
669.99	57269.40
670.18	57232.53
670.37	56726.69
670.57	56943.77
670.76	56624.29
670.95	56929.44
671.14	56902.81
671.33	56792.22
671.53	57255.06
671.72	56992.92
671.91	56607.90
672.10	56523.94
672.29	56612.00
672.48	56638.62
672.68	56947.87
672.87	56523.94
673.06	56657.06
673.25	56552.61
673.44	56513.70
673.64	56505.51
673.83	56544.42
674.02	56263.85
674.21	55911.59
674.40	56800.41
674.59	56198.31
674.79	56444.07
674.98	56011.95
675.17	56282.28
675.36	56183.97
675.55	56781.98
675.74	55932.07
675.94	56046.76
676.13	56542.37
676.32	56341.67
676.51	56648.86
676.70	56497.31
676.89	55927.98
677.08	56480.93
677.28	55995.56
677.47	56251.56
677.66	56339.62
677.85	56104.10
678.04	56388.77
678.23	56401.06
678.42	56175.78
678.62	55735.47
678.81	56356.00
679.00	55735.47
679.19	56480.93
679.38	55741.61
679.57	55850.16
679.76	55784.62
679.96	55954.60
680.15	55866.54
680.34	56073.38
680.53	55948.46
680.72	56030.38
680.91	55989.42
681.10	55723.18
681.29	55792.81
681.48	55340.21
681.68	55426.23
681.87	55604.40
682.06	55436.47
682.25	55082.17
682.44	55499.95
682.63	55696.56
682.82	55133.37
683.01	55344.31
683.20	55164.09
683.39	55481.52
683.59	54983.86
683.78	55145.65
683.97	55174.33
684.16	54850.75
684.35	55033.02
684.54	55084.22
684.73	54869.18
684.92	54947.00
685.11	54764.73
685.30	54627.52
685.49	55067.83
685.69	55047.35
685.88	55182.52
686.07	54873.27
686.26	55076.02
686.45	54748.35
686.64	55121.08
686.83	54648.00
687.02	54768.83
687.21	54918.33
687.40	54705.34
687.59	54455.49
687.78	54269.12
687.97	54545.60
688.16	54613.18
688.35	54516.93
688.54	54281.41
688.74	54531.26
688.93	54463.68
689.12	54269.12
689.31	54484.16
689.50	54549.70
689.69	53855.43
689.88	53472.46
690.07	54119.62
690.26	54318.28
690.45	54555.84
690.64	53974.22
690.83	54076.61
691.02	53624.01
691.21	54129.86
691.40	53912.78
691.59	53714.12
691.78	53867.72
691.97	53988.55
692.16	53929.16
692.35	53552.33
692.54	53920.97
692.73	53728.46
692.92	53456.08
693.11	53417.17
693.30	53517.52
693.49	53664.97
693.68	53343.44
693.87	53527.76
694.06	53216.47
694.25	53650.64
694.44	53243.09
694.63	53159.12
694.82	53675.21
695.01	52878.55
695.20	53204.18
695.39	53292.24
695.58	53351.63
695.77	52935.90
695.96	52964.57
696.15	53232.85
696.34	52514.01
696.53	52870.36
696.72	53114.07
696.91	52677.85
697.10	52780.25
697.29	52565.21
697.48	52536.54
697.67	52595.93
697.86	52331.75
698.05	52391.14
698.24	52727.00
698.43	52651.23
698.62	52606.17
698.81	52155.62
699.00	52518.11
699.19	51940.58
699.38	52569.31
699.57	51870.95
699.76	52636.89
699.95	52096.23
700.14	51985.64
700.32	52192.48
700.51	51952.87
700.70	52274.40
700.89	52229.35
701.08	51926.25
701.27	52045.03
701.46	51664.11
701.65	51811.56
701.84	51508.46
702.03	52192.48
702.22	51543.28
702.41	51692.78
702.60	51363.06
702.79	51840.23
702.98	51444.98
703.17	51320.05
703.35	51334.38
703.54	51279.09
703.73	51354.86
703.92	51481.84
704.11	51666.16
704.30	51340.53
704.49	51268.85
704.68	51016.95
704.87	51293.43
705.06	50967.80
705.25	50550.01
705.43	50894.07
705.62	51371.25
705.81	50961.65
706.00	50926.84
706.19	50824.44
706.38	50464.00
706.57	50779.39
706.76	50644.22
706.95	50851.06
707.14	50982.13
707.32	50453.76
707.51	51000.57
707.70	50748.67
707.89	50539.77
708.08	50095.36
708.27	50498.81
708.46	50533.63
708.65	50308.35
708.84	50756.86
709.02	50246.91
709.21	49960.20
709.40	50341.12
709.59	50228.48
709.78	49571.08
709.97	49978.63
710.16	50048.26
710.34	50224.39
710.53	49810.70
710.72	49743.11
710.91	50031.88
711.10	50019.59
711.29	50105.60
711.48	49624.33
711.66	49716.49
711.85	49872.14
712.04	50056.45
712.23	49761.54
712.42	49718.54
712.61	49384.72
712.80	49108.24
712.98	49710.35
713.17	49323.28
713.36	49085.72
713.55	49370.38
713.74	49087.76
713.93	49306.90
714.11	49212.69
714.30	49169.68
714.49	48887.06
714.68	49501.45
714.87	48928.02
715.06	49354.00
715.24	48907.54
715.43	48962.84
715.62	48823.58
715.81	48618.78
716.00	49048.85
716.18	48694.55
716.37	48471.32
716.56	48448.80
716.75	48782.62
716.94	48672.03
717.12	48368.93
717.31	48428.32
717.50	48514.33
717.69	48211.23
717.88	48090.40
718.06	48239.90
718.25	48407.84
718.44	47992.10
718.63	48053.54
718.82	47723.82
719.00	47797.54
719.19	47865.13
719.38	48024.87
719.57	47451.44
719.76	47363.37
719.94	47117.62
720.13	47584.55
720.32	47287.60
720.51	47195.44
720.69	47439.15
720.88	47224.11
721.07	46951.73
721.26	46884.15
721.44	46972.21
721.63	46492.99
721.82	47177.01
722.01	46820.66
722.20	46826.81
722.38	46853.43
722.57	46392.64
722.76	46492.99
722.95	46452.03
723.13	46439.74
723.32	46359.87
723.51	46492.99
723.70	45960.51
723.88	46431.55
724.07	46015.81
724.26	46275.90
724.44	45866.31
724.63	46355.77
724.82	45725.00
725.01	45983.04
725.19	45757.77
725.38	46040.39
725.57	45567.30
725.76	45800.77
725.94	45636.94
726.13	45532.49
726.32	45700.42
726.51	45438.28
726.69	45821.25
726.88	46087.49
727.07	45811.01
727.25	45194.57
727.44	45337.93
727.63	45647.18
727.82	45894.98
728.00	45735.24
728.19	45432.14
728.38	45509.96
728.56	45184.33
728.75	45946.18
728.94	44979.54
729.12	45335.88
729.31	45249.87
729.50	45223.25
729.69	45122.90
729.87	45188.43
730.06	45176.14
730.25	44948.82
730.43	45749.57
730.62	44973.39
730.81	45051.22
730.99	45380.94
731.18	45045.07
731.37	45174.09
731.55	45020.50
731.74	45428.04
731.93	45086.03
732.11	45282.64
732.30	45094.22
732.49	44938.58
732.67	45180.24
732.86	44797.27
733.05	44907.86
733.23	44762.45
733.42	44717.40
733.61	44627.29
733.79	44854.61
733.98	45143.38
734.17	44875.09
734.35	44473.69
734.54	45038.93
734.73	44619.10
734.91	44694.87
735.10	44348.76
735.29	44817.75
735.47	44189.02
735.66	44496.22
735.84	44526.94
736.03	43750.76
736.22	45038.93
736.40	44520.79
736.59	44504.41
736.78	44760.40
736.96	44467.55
737.15	44676.44
737.33	44039.52
737.52	44303.71
737.71	44146.01
737.89	44301.66
738.08	44072.29
738.27	43924.83
738.45	44277.08
738.64	43933.03
738.82	43959.65
739.01	43930.98
739.20	43773.28
739.38	44021.09
739.57	43988.32
739.75	43898.21
739.94	43539.82
740.13	43552.10
740.31	43634.02
740.50	43900.26
740.68	43619.69
740.87	43761.00
741.06	43582.82
741.24	43386.22
741.43	43554.15
741.61	43447.66
741.80	43308.40
741.99	43611.49
742.17	43199.85
742.36	43476.33
742.54	43093.36
742.73	43072.88
742.91	43363.69
743.10	43349.35
743.29	43349.35
743.47	43142.51
743.66	43390.31
743.84	43033.97
744.03	43234.67
744.21	42829.17
744.40	43668.84
744.59	43083.12
744.77	43038.06
744.96	42751.35
745.14	43019.63
745.33	43144.56
745.51	42646.90
745.70	42540.41
745.88	42495.35
746.07	42683.76
746.26	42380.67
746.44	42499.45
746.63	43113.84
746.81	42870.13
747.00	42376.57
747.18	42794.36
747.37	42730.87
747.55	42710.39
747.74	42222.97
747.92	42186.11
748.11	42444.15
748.29	41913.73
748.48	42085.76
748.66	42026.37
748.85	42442.10
749.03	42257.79
749.22	42249.60
749.41	41667.97
749.59	42175.87
749.78	42139.00
749.96	41622.92
750.15	41653.64
750.33	42073.47
750.52	41481.61
750.70	41504.13
750.89	41426.31
751.07	41682.31
751.26	41450.89
751.44	41596.29
751.63	41647.49
751.81	41520.52
752.00	41268.62
752.18	41977.22
752.37	41401.74
752.55	41268.62
752.74	41135.50
752.92	41092.49
753.10	40816.02
753.29	41495.94
753.47	41098.64
753.66	40932.75
753.84	41303.43
754.03	40721.81
754.21	40594.84
754.40	40842.64
754.58	41182.60
754.77	40840.59
754.95	40760.72
755.14	40603.03
755.32	40895.89
755.51	40623.51
755.69	40187.29
755.88	40218.01
756.06	40502.68
756.24	40551.83
756.43	40277.40
756.61	40588.69
756.80	40132.00
756.98	40091.04
757.17	40269.21
757.35	40060.32
757.54	40121.76
757.72	40328.60
757.90	40269.21
758.09	40193.43
758.27	40154.52
758.46	39904.67
758.64	40015.26
758.83	40152.48
759.01	40175.00
759.19	39703.97
759.38	39945.63
759.56	39951.77
759.75	39894.43
759.93	39493.03
760.12	39476.65
760.30	39628.20
760.48	39222.70
760.67	39611.81
760.85	39568.80
761.04	39595.43
761.22	39472.55
761.40	39306.66
761.59	39417.25
761.77	38958.51
761.96	39372.20
762.14	39595.43
762.32	39151.02
762.51	39218.60
762.69	38841.78
762.88	38864.30
763.06	39214.51
763.24	39394.73
763.43	39003.56
763.61	38811.06
763.80	38831.54
763.98	38747.57
764.16	38780.34
764.35	38790.58
764.53	38325.69
764.72	38479.28
764.90	38987.18
765.08	38469.04
765.27	38679.99
765.45	38266.30
765.63	37987.77
765.82	38487.48
766.00	38172.09
766.18	38157.75
766.37	38434.23
766.55	38260.15
766.74	38151.61
766.92	37885.37
767.10	37979.58
767.29	38104.51
767.47	37914.05
767.65	37961.15
767.84	37565.89
768.02	37977.53
768.20	37658.05
768.39	37447.11
768.57	37766.59
768.75	37885.37
768.94	37309.89
769.12	37574.08
769.30	37412.29
769.49	37453.25
769.67	37275.08
769.85	36953.55
770.04	37318.09
770.22	37170.63
770.40	37004.75
770.59	36756.94
770.77	37156.30
770.95	37148.11
771.14	36988.36
771.32	36558.29
771.50	36824.53
771.69	37033.42
771.87	36910.54
772.05	36701.65
772.24	36556.24
772.42	36539.86
772.60	36439.51
772.78	36318.68
772.97	36591.06
773.15	36845.01
773.33	36271.57
773.52	36414.93
773.70	36316.63
773.88	36584.91
774.07	36197.85
774.25	36095.45
774.43	36668.88
774.61	36437.46
774.80	36648.40
774.98	36599.25
775.16	36290.01
775.34	36535.76
775.53	36486.61
775.71	36427.22
775.89	36298.20
776.08	36029.91
776.26	36302.29
776.44	36199.90
776.62	36132.31
776.81	36146.65
776.99	36414.93
777.17	35972.57
777.35	36128.22
777.54	36509.14
777.72	36441.56
777.90	36394.45
778.08	36634.06
778.27	36290.01
778.45	36711.89
778.63	36632.02
778.81	36224.47
779.00	36746.70
779.18	36754.90
779.36	36746.70
779.54	36617.68
779.73	36304.34
779.91	36621.78
780.09	36890.06
780.27	36842.96
780.46	36763.09
780.64	36668.88
780.82	36498.90
781.00	36863.44
781.19	36744.66
781.37	36623.83
781.55	36599.25
781.73	37041.61
781.91	36912.59
782.10	36756.94
782.28	36926.92
782.46	37010.89
782.64	36879.82
782.82	36439.51
783.01	36957.64
783.19	36711.89
783.37	36797.90
783.55	36912.59
783.74	37213.64
783.92	36736.46
784.10	36888.01
784.28	36648.40
784.46	36406.74
784.64	36517.33
784.83	36836.81
785.01	36744.66
785.19	36812.24
785.37	36931.02
785.55	36900.30
785.74	36574.67
785.92	36324.82
786.10	36748.75
786.28	36404.69
786.46	36138.46
786.64	36425.17
786.83	36476.37
787.01	36183.51
787.19	36349.40
787.37	36099.55
787.55	36077.02
787.74	36163.03
787.92	36308.44
788.10	36054.49
788.28	35909.08
788.46	35972.57
788.64	35782.11
788.82	36343.25
789.01	36107.74
789.19	35966.43
789.37	35884.51
789.55	36171.22
789.73	35890.65
789.91	35751.39
790.09	35952.09
790.28	35558.88
790.46	35700.19
790.64	35767.77
790.82	35612.13
791.00	35579.36
791.18	35040.75
791.36	35362.28
791.55	35775.97
791.73	35343.84
791.91	35046.89
792.09	34874.86
792.27	34967.02
792.45	34870.76
792.63	35048.94
792.81	34885.10
793.00	34721.26
793.18	34352.63
793.36	34582.00
793.54	34657.78
793.72	34305.52
793.90	34399.73
794.08	34254.33
794.26	34332.15
794.44	33953.27
794.62	33789.44
794.81	33846.78
794.99	33709.57
795.17	33637.89
795.35	33674.75
795.53	33558.02
795.71	33945.08
795.89	33277.44
796.07	33240.58
796.25	32947.72
796.43	33310.21
796.61	33041.93
796.80	32806.41
796.98	33146.37
797.16	32679.44
797.34	32892.43
797.52	32800.27
797.70	32929.29
797.88	32830.99
798.06	32515.60
798.24	32523.79
798.42	32454.16
798.60	32577.04
798.78	32591.37
798.96	32349.71
799.14	32030.23
799.32	32407.06
799.51	32103.96
799.69	32380.43
799.87	31987.22
800.05	31895.07
800.23	31559.20
800.41	31684.12
800.59	31471.14
800.77	31444.51
800.95	31755.80
801.13	31303.20
801.31	31282.72
801.49	31407.65
801.67	31041.06
801.85	31342.11
802.03	31045.16
802.21	30916.14
802.39	30981.67
802.57	30660.14
802.75	30819.88
802.93	30744.11
803.11	30764.59
803.29	30813.74
803.47	30244.40
803.65	30520.88
803.83	30414.38
804.01	30369.33
804.19	29750.84
804.37	30180.92
804.55	30398.00
804.73	30379.57
804.91	30033.46
805.09	30055.99
805.27	29843.00
805.45	29984.31
805.63	29797.95
805.81	29851.19
805.99	30006.84
806.17	29558.33
806.35	29869.62
806.53	29306.43
806.71	29273.67
806.89	29349.44
807.07	29349.44
807.25	29316.67
807.43	28773.96
807.61	29144.64
807.79	29109.83
807.97	28659.27
808.15	28943.94
808.33	28726.86
808.51	28538.44
808.69	28616.27
808.87	28141.14
809.05	28565.07
809.23	28585.55
809.41	28317.26
809.59	28247.63
809.77	28759.63
809.95	28055.12
810.13	28364.37
810.31	28216.91
810.49	28386.89
810.67	27651.67
810.84	28167.76
811.02	27872.85
811.20	27659.87
811.38	27809.37
811.56	27545.18
811.74	27473.50
811.92	27659.87
812.10	27625.05
812.28	27786.84
812.46	27641.43
812.64	27397.73
812.82	27186.79
813.00	27592.28
813.18	27336.29
813.36	27305.57
813.53	27299.42
813.71	27231.84
813.89	27438.69
814.07	26990.18
814.25	27051.62
814.43	26824.29
814.61	26857.06
814.79	26592.87
814.97	26730.09
815.15	26703.46
815.33	26568.30
815.50	26461.80
815.68	26879.59
815.86	26691.18
816.04	26340.97
816.22	26633.83
816.40	26402.41
816.58	26334.83
816.76	26144.37
816.94	26138.23
817.11	26318.45
817.29	26058.35
817.47	25884.28
817.65	26205.81
817.83	25839.22
818.01	25781.88
818.19	25601.66
818.37	25923.19
818.54	25474.68
818.72	25613.95
818.90	25433.72
819.08	25482.88
819.26	25329.28
819.44	25308.80
819.62	25222.78
819.80	25665.14
819.97	25577.08
820.15	25327.23
820.33	25054.85
820.51	25253.50
820.69	25024.13
820.87	25165.44
821.05	25144.96
821.22	25130.62
821.40	25407.10
821.58	24778.37
821.76	24974.98
821.94	24811.14
822.12	25026.18
822.29	24997.51
822.47	24714.89
822.65	24716.93
822.83	24606.34
823.01	24469.13
823.19	24735.37
823.36	24694.41
823.54	24460.94
823.72	24546.95
823.90	24438.41
824.08	24221.33
824.25	24235.66
824.43	23897.75
824.61	24321.68
824.79	24106.64
824.97	24274.57
825.15	24069.78
825.32	24133.26
825.50	23930.51
825.68	24086.16
825.86	24116.88
826.04	24352.40
826.21	24057.49
826.39	23922.32
826.57	23803.54
826.75	23944.85
826.93	23518.87
827.10	23877.27
827.28	23766.68
827.46	23682.71
827.64	23862.93
827.81	23594.65
827.99	23582.36
828.17	23398.04
828.35	23414.43
828.53	23498.39
828.70	23479.96
828.88	23398.04
829.06	23408.28
829.24	23805.59
829.41	23137.95
829.59	23264.92
829.77	23203.49
829.95	23144.09
830.12	23193.25
830.30	23363.23
830.48	23066.27
830.66	23189.15
830.84	23236.25
831.01	22671.01
831.19	22828.71
831.37	22863.52
831.55	22644.39
831.72	22691.49
831.90	22763.17
832.08	22650.53
832.25	22666.92
832.43	22898.34
832.61	22417.07
832.79	22539.94
832.96	22513.32
833.14	22335.15
833.32	22836.90
833.50	22781.60
833.67	22269.61
833.85	22566.57
834.03	22455.98
834.20	22439.59
834.38	22482.60
834.56	22566.57
834.74	22437.55
834.91	22066.86
835.09	22238.89
835.27	21868.21
835.44	22214.32
835.62	21864.11
835.80	22195.89
835.98	22079.15
836.15	21980.85
836.33	21796.53
836.51	22070.96
836.68	21741.24
836.86	22154.93
837.04	21671.61
837.21	21835.44
837.39	21735.09
837.57	21892.79
837.75	21653.17
837.92	21540.54
838.10	21632.69
838.28	21554.87
838.45	21737.14
838.63	21628.60
838.81	21505.72
838.98	21659.32
839.16	21104.32
839.34	21255.87
839.51	21270.20
839.69	21155.52
839.87	21180.09
840.04	21118.65
840.22	21241.53
840.40	21001.92
840.57	21161.66
840.75	21444.28
840.93	21380.79
841.10	21120.70
841.28	21268.16
841.46	21061.31
841.63	20905.66
841.81	20907.71
841.98	20768.45
842.16	20803.27
842.34	20907.71
842.51	20752.07
842.69	21051.07
842.87	20770.50
843.04	20684.48
843.22	20737.73
843.40	20922.05
843.57	20690.63
843.75	20905.66
843.92	20915.90
844.10	20866.75
844.28	20674.24
844.45	20666.05
844.63	20592.33
844.81	20281.03
844.98	20530.89
845.16	20410.06
845.33	20448.97
845.51	20461.26
845.69	20426.44
845.86	20373.19
846.04	20309.71
846.21	20448.97
846.39	20336.33
846.57	20068.05
846.74	20172.49
846.92	20172.49
847.09	19973.84
847.27	20092.62
847.45	20035.28
847.62	19945.17
847.80	19908.30
847.97	20022.99
848.15	19791.57
848.32	19955.41
848.50	20002.51
848.68	19838.67
848.85	19949.26
849.03	19855.06
849.20	20041.42
849.38	19674.84
849.56	19807.95
849.73	19750.61
849.91	19480.28
850.08	19465.94
850.26	19422.94
850.43	19609.30
850.61	19805.91
850.78	19388.12
850.96	19285.72
851.14	19277.53
851.31	19371.74
851.49	19392.22
851.66	19533.53
851.84	19525.33
852.01	19402.46
852.19	19474.13
852.36	19381.98
852.54	19123.93
852.71	19275.48
852.89	19068.64
853.07	19152.60
853.24	19152.60
853.42	19156.70
853.59	19027.68
853.77	19187.42
853.94	19191.52
854.12	19060.45
854.29	18831.07
854.47	19136.22
854.64	18912.99
854.82	18958.05
854.99	18953.95
855.17	18673.38
855.34	18566.88
855.52	18677.48
855.69	18691.81
855.87	18642.66
856.04	18497.25
856.22	18816.74
856.39	18542.31
856.57	18743.01
856.74	18568.93
856.92	18497.25
857.09	18310.89
857.27	18394.86
857.44	18738.91
857.62	18757.35
857.79	18175.72
857.97	18450.15
858.14	18157.29
858.32	18185.96
858.49	18405.10
858.67	18237.16
858.84	18280.17
859.02	18155.24
859.19	18073.32
859.37	18097.90
859.54	18134.76
859.72	17987.31
859.89	17964.78
860.06	18040.56
860.24	18054.89
860.41	18286.31
860.59	17766.13
860.76	17948.40
860.94	17704.69
861.11	17780.46
861.29	17671.92
861.46	17923.82
861.64	17635.06
861.81	17602.29
861.98	17690.35
862.16	17782.51
862.33	17520.37
862.51	17893.10
862.68	17573.62
862.86	17540.85
863.03	17667.83
863.21	17575.67
863.38	17598.20
863.55	17444.60
863.73	17526.52
863.90	17389.30
864.08	17440.50
864.25	17106.68
864.43	17428.21
864.60	17309.43
864.77	17348.34
864.95	17118.97
865.12	17172.22
865.30	17055.48
865.47	17024.76
865.64	16905.98
865.82	17065.72
865.99	17161.98
866.17	16953.09
866.34	17035.00
866.51	16719.62
866.69	16895.74
866.86	16871.17
867.04	16985.85
867.21	16846.59
867.38	16692.99
867.56	16707.33
867.73	16760.58
867.91	16559.88
868.08	16674.56
868.25	16531.20
868.43	16715.52
868.60	16701.19
868.78	16695.04
868.95	16480.00
869.12	16371.46
869.30	16408.33
869.47	16445.19
869.64	16232.20
869.82	16490.24
869.99	16197.38
870.16	16566.02
870.34	16504.58
870.51	16189.19
870.69	16307.98
870.86	16205.58
871.03	16191.24
871.21	15918.86
871.38	16047.88
871.55	16068.36
871.73	16045.84
871.90	15800.08
872.07	15974.16
872.25	15851.28
872.42	15857.42
872.59	15896.33
872.77	16051.98
872.94	15578.90
873.11	15724.30
873.29	15593.23
873.46	15763.22
873.63	15873.81
873.81	15587.09
873.98	15568.66
874.15	15703.82
874.33	15392.53
874.50	15343.38
874.67	15152.92
874.85	15511.32
875.02	15095.58
875.19	15283.99
875.37	15097.63
875.54	15171.35
875.71	15087.39
875.88	14759.71
876.06	15341.33
876.23	14939.93
876.40	15114.01
876.58	15044.38
876.75	14714.66
876.92	14944.03
877.10	15095.58
877.27	14866.21
877.44	14692.13
877.61	14573.35
877.79	14954.27
877.96	14716.70
878.13	14810.91
878.31	14741.28
878.48	14642.98
878.65	14602.02
878.82	14591.78
879.00	14597.92
879.17	14356.26
879.34	14436.13
879.51	14411.56
879.69	14446.37
879.86	14313.25
880.03	14354.21
880.21	14311.21
880.38	14276.39
880.55	14362.40
880.72	14102.31
880.90	14393.12
881.07	14331.69
881.24	14292.77
881.41	14434.08
881.59	14374.69
881.76	14130.98
881.93	14092.07
882.10	14194.47
882.28	14001.96
882.45	14065.45
882.62	13993.77
882.79	14294.82
882.96	13840.17
883.14	13950.76
883.31	14145.32
883.48	13893.42
883.65	14006.06
883.83	14022.44
884.00	14036.78
884.17	13983.53
884.34	13866.80
884.51	13645.62
884.69	13817.65
884.86	13733.68
885.03	13780.78
885.20	13885.23
885.38	13922.09
885.55	13977.39
885.72	13707.05
885.89	13727.53
886.06	13635.38
886.24	13618.99
886.41	13573.94
886.58	13717.29
886.75	13956.91
886.92	13537.07
887.10	13657.90
887.27	13565.74
887.44	13514.55
887.61	13592.37
887.78	13582.13
887.95	13457.20
888.13	13262.65
888.30	13459.25
888.47	13332.28
888.64	13387.57
888.81	13590.32
888.99	13334.32
889.16	13319.99
889.33	13182.77
889.50	13158.20
889.67	13184.82
889.84	13104.95
890.01	13268.79
890.19	13119.29
890.36	13178.68
890.53	13186.87
890.70	13000.51
890.87	12902.20
891.04	12996.41
891.22	12732.22
891.39	12799.80
891.56	12937.02
891.73	12740.41
891.90	12861.24
892.07	12855.10
892.24	12904.25
892.42	12793.66
892.59	12781.37
892.76	12707.65
892.93	12724.03
893.10	12828.48
893.27	12889.92
893.44	12777.28
893.61	12576.58
893.79	12896.06
893.96	12820.28
894.13	12887.87
894.30	12771.13
894.47	12631.87
894.64	12793.66
894.81	12738.37
894.98	12803.90
895.15	12652.35
895.33	12515.14
895.50	12689.21
895.67	12853.05
895.84	12425.03
896.01	12697.41
896.18	12449.60
896.35	12697.41
896.52	12558.14
896.69	12484.42
896.86	12719.93
897.04	12474.18
897.21	12558.14
897.38	12627.78
897.55	12463.94
897.72	12799.80
897.89	12445.51
898.06	12420.93
898.23	12527.42
898.40	12517.18
898.57	12552.00
898.74	12527.42
898.91	12695.36
899.08	12404.55
899.26	12447.55
899.43	12379.97
899.60	12289.86
899.77	12412.74
899.94	12279.62
900.11	12209.99
900.28	12490.56
900.45	12416.83
900.62	12328.77
900.79	12500.80
900.96	12310.34
901.13	12451.65
901.30	12230.47
901.47	12441.41
901.64	12310.34
901.81	12506.95
901.98	12310.34
902.15	12595.01
902.32	12400.45
902.49	12359.49
902.66	12382.02
902.83	12425.03
903.01	12308.29
903.18	12488.51
903.35	12406.59
903.52	12420.93
903.69	12191.56
903.86	12271.43
904.03	12093.26
904.20	12191.56
904.37	12324.68
904.54	12218.18
904.71	12150.60
904.88	12162.89
905.05	12330.82
905.22	12396.35
905.39	12189.51
905.56	12277.57
905.73	12220.23
905.90	12238.66
906.07	12406.59
906.24	12244.81
906.41	12287.81
906.58	12330.82
906.75	12214.09
906.92	12271.43
907.09	12027.72
907.26	12099.40
907.43	12123.98
907.60	11953.99
907.77	12277.57
907.93	12027.72
908.10	12064.58
908.27	12160.84
908.44	12146.50
908.61	12035.91
908.78	12115.78
908.95	12019.53
909.12	12046.15
909.29	12068.68
909.46	12074.82
909.63	12171.08
909.80	12037.96
909.97	12013.38
910.14	11872.07
910.31	11847.50
910.48	12060.49
910.65	12070.73
910.82	11929.42
910.99	11949.90
911.16	11833.16
911.33	11757.39
911.50	11730.76
911.66	11706.19
911.83	11929.42
912.00	11616.08
912.17	11745.10
912.34	11761.48
912.51	11706.19
912.68	11687.76
912.85	11927.37
913.02	11763.53
913.19	11636.56
913.36	11509.58
913.53	11599.70
913.70	11315.03
913.86	11734.86
914.03	11673.42
914.20	11427.67
914.37	11728.72
914.54	11351.89
914.71	11599.70
914.88	11495.25
915.05	11482.96
915.22	11259.73
915.39	11474.77
915.55	11095.89
915.72	11214.68
915.89	11321.17
916.06	11194.20
916.23	11253.59
916.40	11118.42
916.57	11169.62
916.74	11065.18
916.91	11212.63
917.07	10960.73
917.24	10942.30
917.41	11077.46
917.58	11097.94
917.75	10766.17
917.92	10764.12
918.09	10870.62
918.26	10876.76
918.42	10796.89
918.59	10876.76
918.76	10727.26
918.93	10774.36
919.10	10674.01
919.27	10620.77
919.44	10614.62
919.60	10751.84
919.77	10819.42
919.94	10538.85
920.11	10596.19
920.28	10579.81
920.45	10276.71
920.61	10379.11
920.78	10198.88
920.95	10315.62
921.12	10301.28
921.29	10319.71
921.46	10209.12
921.62	10377.06
921.79	10323.81
921.96	10338.15
922.13	10020.71
922.30	10164.07
922.47	9975.66
922.63	9996.14
922.80	9987.94
922.97	9936.74
923.14	9893.74
923.31	9973.61
923.47	9695.08
923.64	10020.71
923.81	9785.19
923.98	9777.00
924.15	9758.57
924.32	9795.43
924.48	9709.42
924.65	9672.56
924.82	9465.71
924.99	9465.71
925.15	9541.49
925.32	9459.57
925.49	9275.25
925.66	9361.27
925.83	9308.02
925.99	9369.46
926.16	9279.35
926.33	9115.51
926.50	9144.18
926.67	9502.58
926.83	9144.18
927.00	8925.05
927.17	9170.80
927.34	9066.36
927.50	8939.38
927.67	8992.63
927.84	9045.88
928.01	8779.64
928.17	8822.65
928.34	8855.42
928.51	8785.79
928.68	8742.78
928.84	8724.35
929.01	8589.18
929.18	8378.24
929.35	8640.38
929.51	8492.93
929.68	8568.70
929.85	8580.99
930.02	8458.11
930.18	8605.56
930.35	8271.75
930.52	8519.55
930.69	8263.55
930.85	8353.66
931.02	8238.98
931.19	8228.74
931.36	8216.45
931.52	8130.44
931.69	8099.72
931.86	8089.48
932.02	8204.16
932.19	7966.60
932.36	8069.00
932.53	8056.71
932.69	7692.17
932.86	8025.99
933.03	7944.07
933.19	7675.79
933.36	7761.80
933.53	7829.38
933.70	7626.64
933.86	7477.13
934.03	7698.31
934.20	7442.32
934.36	7571.34
934.53	7368.59
934.70	7260.05
934.86	7296.91
935.03	7212.95
935.20	7231.38
935.36	7184.27
935.53	7040.92
935.70	7067.54
935.86	7122.84
936.03	7004.05
936.20	6887.32
936.36	6879.13
936.53	6719.39
936.70	6864.79
936.86	6731.67
937.03	6743.96
937.20	6465.44
937.36	6750.10
937.53	6459.29
937.70	6375.33
937.86	6268.83
938.03	6496.16
938.20	6356.90
938.36	6168.48
938.53	6250.40
938.70	6000.55
938.86	6059.94
939.03	5967.78
939.20	5937.06
939.36	5957.54
939.53	5703.59
939.70	5873.57
939.86	5603.24
940.03	5515.18
940.19	5480.36
940.36	5414.83
940.53	5554.09
940.69	5330.86
940.86	5371.82
941.03	5248.94
941.19	5185.46
941.36	5162.93
941.52	5044.15
941.69	5025.72
941.86	5099.44
942.02	5068.72
942.19	4908.98
942.35	5099.44
942.52	4964.28
942.69	4906.93
942.85	4884.41
943.02	4702.14
943.18	4855.73
943.35	4827.06
943.52	4722.62
943.68	4724.66
943.85	4724.66
944.01	4599.74
944.18	4607.93
944.35	4630.46
944.51	4427.71
944.68	4351.93
944.84	4517.82
945.01	4464.57
945.17	4491.20
945.34	4489.15
945.51	4507.58
945.67	4417.47
945.84	4388.80
946.00	4380.61
946.17	4317.12
946.33	4362.17
946.50	4347.84
946.67	4349.89
946.83	4403.13
947.00	4405.18
947.16	4356.03
947.33	4358.08
947.49	4321.21
947.66	4280.25
947.82	4267.97
947.99	4249.54
948.16	4376.51
948.32	4304.83
948.49	4337.60
948.65	4333.50
948.82	4353.98
948.98	4267.97
949.15	4216.77
949.31	4288.45
949.48	4300.73
949.64	4249.54
949.81	4425.66
949.97	4313.02
950.14	4308.93
950.30	4331.45
950.47	4288.45
950.63	4374.46
950.80	4249.54
950.96	4319.17
951.13	4284.35
951.30	4255.68
951.46	4409.28
951.63	4474.81
951.79	4267.97
951.96	4325.31
952.12	4435.90
952.29	4321.21
952.45	4462.52
952.62	4298.69
952.78	4349.89
952.94	4386.75
953.11	4315.07
953.27	4374.46
953.44	4403.13
953.60	4440.00
953.77	4405.18
953.93	4372.41
954.10	4423.61
954.26	4470.72
954.43	4319.17
954.59	4454.33
954.76	4450.24
954.92	4386.75
955.09	4542.39
955.25	4472.76
955.42	4456.38
955.58	4353.98
955.75	4474.81
955.91	4413.37
956.07	4566.97
956.24	4513.72
956.40	4323.26
956.57	4505.53
956.73	4407.23
956.90	4548.54
957.06	4368.32
957.23	4536.25
957.39	4360.13
957.56	4472.76
957.72	4448.19
957.88	4421.56
958.05	4462.52
958.21	4396.99
958.38	4401.08
958.54	4425.66
958.71	4421.56
958.87	4437.95
959.03	4442.04
959.20	4339.65
959.36	4429.76
959.53	4403.13
959.69	4405.18
959.85	4501.44
960.02	4407.23
960.18	4300.73
960.35	4405.18
960.51	4507.58
960.68	4448.19
960.84	4366.27
961.00	4382.65
961.17	4497.34
961.33	4349.89
961.50	4511.68
961.66	4444.09
961.82	4349.89
961.99	4399.04
962.15	4349.89
962.31	4382.65
962.48	4386.75
962.64	4536.25
962.81	4388.80
962.97	4378.56
963.13	4343.74
963.30	4454.33
963.46	4265.92
963.62	4437.95
963.79	4372.41
963.95	4302.78
964.12	4306.88
964.28	4331.45
964.44	4317.12
964.61	4386.75
964.77	4284.35
964.93	4454.33
965.10	4345.79
965.26	4368.32
965.42	4360.13
965.59	4186.05
965.75	4243.39
965.92	4181.95
966.08	4118.47
966.24	4339.65
966.41	4278.21
966.57	4179.90
966.73	4249.54
966.90	4390.84
967.06	4288.45
967.22	4218.82
967.39	4231.10
967.55	4136.90
967.71	4231.10
967.88	4206.53
968.04	4136.90
968.20	4138.94
968.37	4190.14
968.53	4220.86
968.69	4198.34
968.85	4171.71
969.02	4106.18
969.18	4202.43
969.34	4153.28
969.51	4118.47
969.67	4165.57
969.83	4071.36
970.00	4057.03
970.16	4175.81
970.32	4001.73
970.48	4280.25
970.65	4114.37
970.81	4100.03
970.97	4224.96
971.14	4128.70
971.30	4108.23
971.46	4153.28
971.63	4184.00
971.79	4106.18
971.95	4054.98
972.11	3948.48
972.28	4009.92
972.44	3964.87
972.60	4069.31
972.76	4159.42
972.93	3889.09
973.09	3952.58
973.25	3968.96
973.42	3977.16
973.58	3989.44
973.74	4042.69
973.90	3887.04
974.07	4005.83
974.23	3876.80
974.39	3942.34
974.55	3823.56
974.72	3850.18
974.88	3864.52
975.04	3973.06
975.20	3841.99
975.37	3821.51
975.53	3880.90
975.69	3805.13
975.85	4001.73
976.01	3868.61
976.18	3952.58
976.34	3928.00
976.50	3897.28
976.66	3811.27
976.83	3817.41
976.99	3798.98
977.15	3790.79
977.31	3723.21
977.47	3780.55
977.64	3885.00
977.80	3717.06
977.96	3803.08
978.12	3872.71
978.29	3813.32
978.45	3743.69
978.61	3692.49
978.77	3798.98
978.93	3672.01
979.10	3794.89
979.26	3696.58
979.42	3686.34
979.58	3710.92
979.74	3729.35
979.91	3682.25
980.07	3629.00
980.23	3667.91
980.39	3577.80
980.55	3690.44
980.71	3635.14
980.88	3665.86
981.04	3569.61
981.20	3532.75
981.36	3684.30
981.52	3567.56
981.68	3592.14
981.85	3655.62
982.01	3559.37
982.17	3573.71
982.33	3493.83
982.49	3592.14
982.65	3596.23
982.82	3450.83
982.98	3590.09
983.14	3399.63
983.30	3575.75
983.46	3493.83
983.62	3471.31
983.79	3471.31
983.95	3467.21
984.11	3510.22
984.27	3575.75
984.43	3403.72
984.59	3473.36
984.75	3422.16
984.91	3485.64
985.08	3436.49
985.24	3399.63
985.40	3366.86
985.56	3479.50
985.72	3307.47
985.88	3274.70
986.04	3360.72
986.20	3350.48
986.37	3375.05
986.53	3317.71
986.69	3370.96
986.85	3246.03
987.01	3280.85
987.17	3315.66
987.33	3246.03
987.49	3282.89
987.65	3366.86
987.82	3176.40
987.98	3229.65
988.14	3356.62
988.30	3227.60
988.46	3262.41
988.62	3162.06
988.78	3096.53
988.94	3133.39
989.10	3145.68
989.26	3178.45
989.42	3227.60
989.59	3088.34
989.75	3252.17
989.91	3141.58
990.07	3080.14
990.23	3119.06
990.39	3065.81
990.55	3174.35
990.71	3053.52
990.87	3037.14
991.03	3184.59
991.19	3155.92
991.35	3096.53
991.51	3041.23
991.67	3057.62
991.83	3133.39
992.00	3110.86
992.16	3033.04
992.32	2975.70
992.48	3155.92
992.64	2916.31
992.80	3096.53
992.96	3094.48
993.12	2926.55
993.28	2985.94
993.44	3108.82
993.60	2996.18
993.76	3033.04
993.92	3006.42
994.08	3092.43
994.24	3033.04
994.40	2938.84
994.56	2985.94
994.72	2832.34
994.88	2957.27
995.04	3018.71
995.20	2940.88
995.36	2947.03
995.52	3012.56
995.68	2865.11
995.84	2924.50
996.00	2940.88
996.16	2879.44
996.32	2885.59
996.48	2815.96
996.64	2830.29
996.80	2846.68
996.96	2891.73
997.12	2846.68
997.28	2797.53
997.44	2766.81
997.60	2836.44
997.76	2856.92
997.92	2881.49
998.08	2809.81
998.24	2850.77
998.40	2840.53
998.56	2801.62
998.72	2766.81
998.88	2832.34
999.04	2693.08
999.20	2834.39
999.36	2750.42
999.52	2934.74
999.68	2744.28
999.84	2799.57
1000.00	2721.75
1000.16	2684.89
1000.32	2703.32
1000.48	2834.39
1000.64	2699.22
1000.80	2717.65
1000.95	2662.36
1001.11	2717.65
1001.27	2623.45
1001.43	2744.28
1001.59	2658.26
1001.75	2533.34
1001.91	2678.74
1002.07	2635.74
1002.23	2600.92
1002.39	2658.26
1002.55	2494.43
1002.71	2607.06
1002.87	2627.54
1003.03	2607.06
1003.19	2605.02
1003.34	2621.40
1003.50	2656.22
1003.66	2525.15
1003.82	2590.68
1003.98	2621.40
1004.14	2637.78
1004.30	2461.66
1004.46	2506.71
1004.62	2463.71
1004.78	2547.67
1004.94	2584.54
1005.09	2564.06
1005.25	2541.53
1005.41	2514.91
1005.57	2553.82
1005.73	2537.43
1005.89	2465.75
1006.05	2486.23
1006.21	2459.61
1006.37	2475.99
1006.52	2412.51
1006.68	2424.80
1006.84	2541.53
1007.00	2498.52
1007.16	2375.64
1007.32	2428.89
1007.48	2357.21
1007.64	2469.85
1007.79	2457.56
1007.95	2494.43
1008.11	2394.08
1008.27	2482.14
1008.43	2365.40
1008.59	2369.50
1008.75	2402.27
1008.91	2447.32
1009.06	2377.69
1009.22	2355.16
1009.38	2355.16
1009.54	2346.97
1009.70	2406.36
1009.86	2363.36
1010.01	2424.80
1010.17	2387.93
1010.33	2396.12
1010.49	2263.01
1010.65	2406.36
1010.81	2293.72
1010.96	2369.50
1011.12	2389.98
1011.28	2306.01
1011.44	2359.26
1011.60	2269.15
1011.76	2310.11
1011.91	2308.06
1012.07	2228.19
1012.23	2342.88
1012.39	2236.38
1012.55	2291.68
1012.71	2275.29
1012.86	2246.62
1013.02	2338.78
1013.18	2189.28
1013.34	2289.63
1013.50	2244.57
1013.65	2236.38
1013.81	2172.89
1013.97	2215.90
1014.13	2263.01
1014.29	2240.48
1014.44	2318.30
1014.60	2215.90
1014.76	2295.77
1014.92	2248.67
1015.07	2207.71
1015.23	2248.67
1015.39	2176.99
1015.55	2158.56
1015.71	2101.22
1015.86	2152.42
1016.02	2183.13
1016.18	2248.67
1016.34	2195.42
1016.49	2162.66
1016.65	2215.90
1016.81	2201.57
1016.97	2240.48
1017.12	2136.03
1017.28	2138.08
1017.44	2164.70
1017.60	2080.74
1017.75	2133.98
1017.91	2111.46
1018.07	2140.13
1018.23	2176.99
1018.38	2080.74
1018.54	2107.36
1018.70	2017.25
1018.86	2088.93
1019.01	2062.30
1019.17	2050.02
1019.33	2113.50
1019.49	2070.50
1019.64	2068.45
1019.80	2050.02
1019.96	2113.50
1020.12	2095.07
1020.27	2037.73
1020.43	1980.39
1020.59	2117.60
1020.74	2070.50
1020.90	2109.41
1021.06	2070.50
1021.22	2009.06
1021.37	2080.74
1021.53	2062.30
1021.69	2093.02
1021.84	1986.53
1022.00	2004.96
1022.16	1978.34
1022.31	2023.39
1022.47	1998.82
1022.63	2011.11
1022.79	2025.44
1022.94	1925.09
1023.10	2052.06
1023.26	2031.58
1023.41	1974.24
1023.57	1910.75
1023.73	2015.20
1023.88	1994.72
1024.04	1898.47
1024.20	1966.05
1024.35	2011.11
1024.51	1929.19
1024.67	1970.15
1024.82	2013.15
1024.98	1929.19
1025.14	1976.29
1025.29	1935.33
1025.45	2025.44
1025.61	1935.33
1025.76	1964.00
1025.92	1941.47
1026.08	2015.20
1026.23	1953.76
1026.39	1931.23
1026.55	1837.03
1026.70	1931.23
1026.86	1986.53
1027.02	1923.04
1027.17	1851.36
1027.33	2033.63
1027.48	1863.65
1027.64	1947.62
1027.80	1886.18
1027.95	1914.85
1028.11	1908.71
1028.27	1931.23
1028.42	1822.69
1028.58	1972.19
1028.73	1798.12
1028.89	1880.04
1029.05	1779.68
1029.20	1900.52
>>>>>End Processed Spectral Data<<<<<
